Video ID: 	7dKfKjmylgw
H: 	1080
W: 	1920
FPS: 	25.0

FRAME INDEX X0 Y0 W H [Landmarks (5 Points)]

00001977 00000000 1131.00 154.59 447.39 579.41 1237.22 346.72 1401.38 431.80 1222.17 490.81 1174.51 548.15 1307.72 618.47
00001978 00000001 1138.56 151.67 443.25 587.56 1239.39 352.46 1401.29 438.72 1223.00 494.55 1178.85 552.92 1311.10 624.43
00001979 DELETE   1140.22 151.48 442.46 586.96 1240.32 350.37 1406.01 447.10 1222.62 505.06 1177.94 551.11 1310.59 629.57
00001980 00000003 1150.27 150.13 440.33 588.16 1242.84 358.01 1410.38 444.92 1227.71 506.25 1191.06 562.21 1318.93 632.09
00001981 00000004 1158.76 152.62 436.65 585.81 1249.70 360.32 1414.36 443.51 1234.82 506.49 1198.42 560.78 1329.28 627.45
00001982 00000005 1171.34 156.22 424.15 588.85 1259.48 358.29 1416.26 448.08 1248.10 508.77 1208.48 557.64 1339.91 630.52
00001983 00000006 1176.78 156.25 424.73 588.45 1264.26 360.01 1422.95 448.09 1254.83 510.65 1213.25 558.95 1346.12 630.01
00001984 00000007 1180.10 154.40 426.74 593.30 1268.95 361.23 1429.64 446.89 1262.16 512.47 1216.45 562.11 1348.64 631.55
00001985 DELETE   1183.84 155.91 431.10 595.94 1274.38 363.02 1438.67 449.03 1267.05 514.73 1222.47 565.46 1358.84 635.08
00001986 00000009 1189.75 162.84 427.67 586.26 1278.98 367.24 1441.36 452.07 1271.28 518.60 1229.26 567.54 1361.79 635.86
00001987 00000010 1193.91 162.63 426.03 585.57 1281.70 366.94 1443.05 452.17 1274.44 518.76 1233.46 565.21 1365.95 633.68
00001988 00000011 1196.78 161.51 428.47 587.19 1282.30 366.86 1446.33 450.34 1277.45 519.90 1235.82 567.07 1372.57 633.76
00001989 00000012 1198.95 163.05 428.16 583.85 1282.78 366.87 1447.83 447.71 1279.26 518.77 1238.78 566.77 1378.90 631.07
00001990 00000013 1196.92 161.81 430.82 584.62 1283.26 365.97 1449.74 448.62 1280.60 516.59 1238.18 562.24 1387.29 627.63
00001991 00000014 1191.10 166.39 434.12 584.43 1279.54 367.60 1446.86 449.40 1277.66 516.83 1235.41 563.91 1387.67 628.56
00001992 00000015 1184.87 170.92 436.72 589.14 1276.45 370.18 1443.13 451.91 1274.01 520.86 1232.94 566.52 1387.69 631.11
00001993 00000016 1179.30 168.21 434.10 592.09 1270.21 375.91 1435.91 454.70 1271.80 525.19 1229.91 569.33 1385.75 631.33
00001994 00000017 1176.65 163.83 429.24 590.62 1264.64 375.67 1430.39 455.95 1266.68 525.92 1225.10 567.25 1380.24 630.44
00001995 00000018 1172.82 158.47 431.53 595.71 1259.37 376.50 1426.14 453.78 1263.14 525.03 1221.92 569.25 1373.94 630.46
00001996 00000019 1170.18 158.97 430.00 595.15 1256.52 374.69 1421.76 453.44 1258.54 523.55 1218.66 566.74 1370.73 629.34
00001997 00000020 1166.87 155.87 431.17 603.28 1252.87 376.14 1417.48 451.12 1255.37 521.17 1216.40 570.46 1367.30 630.33
00001998 00000021 1161.95 157.67 430.20 606.56 1246.59 374.65 1409.34 448.01 1246.45 519.69 1210.67 572.20 1361.68 631.13
00001999 00000022 1153.94 159.04 434.30 603.63 1237.73 379.63 1408.52 445.47 1239.41 523.99 1199.59 574.39 1358.29 625.86
00002000 00000023 1146.73 163.14 432.39 601.06 1229.25 381.07 1398.76 446.16 1233.40 522.59 1195.26 574.61 1355.27 624.57
00002001 00000024 1138.15 171.67 430.34 594.14 1222.56 382.47 1387.17 450.78 1224.41 524.17 1187.87 572.15 1347.17 624.67
00002002 00000025 1128.97 176.56 427.38 591.68 1213.68 382.60 1379.80 451.23 1217.74 524.57 1178.09 574.84 1339.61 627.90
00002003 00000026 1117.26 176.83 431.96 593.04 1203.89 382.75 1373.35 449.48 1211.49 525.07 1169.68 577.10 1333.60 628.89
00002004 00000027 1110.11 169.49 432.68 595.59 1198.03 381.07 1366.05 449.04 1206.87 524.44 1164.40 574.32 1326.46 627.19
00002005 00000028 1104.08 165.18 434.62 592.89 1194.03 376.89 1362.85 448.66 1202.55 522.46 1159.55 570.14 1319.73 626.43
00002006 00000029 1098.92 171.22 436.25 582.72 1188.93 375.20 1359.22 450.73 1195.33 521.13 1153.31 566.06 1314.99 625.59
00002007 00000030 1096.11 165.24 435.45 600.70 1181.47 376.80 1357.76 449.83 1195.95 517.21 1145.31 571.16 1310.73 628.85
00002008 00000031 1091.25 166.73 437.05 591.07 1183.40 374.71 1351.54 451.92 1185.76 518.67 1146.56 565.00 1307.01 626.34
00002009 00000032 1087.71 167.23 436.73 599.10 1177.25 378.11 1345.54 448.10 1179.88 517.89 1143.18 573.54 1302.08 629.49
00002010 00000033 1083.16 167.30 436.81 607.16 1173.64 379.55 1340.32 446.49 1175.75 518.41 1140.49 579.35 1298.47 633.16
00002011 00000034 1077.96 174.91 440.42 600.22 1166.11 387.37 1341.76 447.16 1173.77 527.71 1132.63 584.27 1293.65 631.01
00002012 00000035 1074.52 170.73 438.56 603.56 1161.60 387.38 1334.01 446.72 1169.90 530.32 1129.88 584.54 1289.14 630.60
00002013 00000036 1072.78 171.95 437.03 598.23 1156.75 386.88 1327.26 446.90 1164.36 531.85 1127.50 583.53 1285.50 629.73
00002014 00000037 1067.18 171.40 439.91 594.92 1151.88 384.82 1324.65 446.48 1161.27 529.28 1124.03 579.76 1285.01 627.21
00002015 00000038 1063.98 171.28 441.66 593.48 1150.43 381.91 1324.64 443.98 1160.72 525.76 1121.80 577.17 1284.50 625.02
00002016 00000039 1061.35 171.40 442.00 593.19 1148.55 378.72 1322.78 443.41 1157.84 523.05 1119.08 572.33 1285.27 622.30
00002017 00000040 1059.54 172.49 440.01 590.74 1148.09 378.87 1321.76 445.12 1158.13 523.35 1117.40 568.36 1287.11 619.60
00002018 00000041 1058.25 173.02 439.34 587.84 1146.81 380.50 1321.70 448.64 1158.33 526.39 1116.19 567.46 1287.86 620.25
00002019 00000042 1059.06 174.25 440.07 587.24 1147.32 382.20 1322.24 451.73 1159.50 530.85 1116.41 568.02 1289.07 621.91
00002020 00000043 1059.48 173.20 441.14 596.07 1146.98 388.66 1322.41 456.12 1161.19 539.04 1118.16 575.99 1291.00 628.12
00002021 00000044 1060.06 178.99 440.08 596.84 1147.79 394.40 1325.29 459.58 1165.18 546.81 1119.06 581.83 1295.44 632.25
00002022 00000045 1061.48 179.71 439.03 599.28 1147.43 398.56 1324.52 463.77 1165.15 549.74 1119.36 584.70 1296.35 635.13
00002023 00000046 1062.69 180.50 437.06 601.21 1148.00 400.88 1325.87 465.56 1166.42 552.86 1119.96 589.11 1295.89 639.48
00002024 00000047 1062.21 185.76 435.52 597.19 1147.80 405.64 1324.41 470.08 1167.04 555.13 1118.96 589.92 1295.13 640.16
00002025 00000048 1062.81 187.45 434.09 596.66 1147.45 414.79 1324.36 476.72 1167.17 555.16 1120.67 593.32 1296.30 641.48
00002026 00000049 1064.35 188.16 432.04 597.71 1146.85 414.48 1325.69 474.65 1166.92 554.91 1119.38 596.11 1295.69 643.00
00002027 00000050 1064.18 188.97 434.63 597.78 1147.31 412.58 1326.68 474.98 1166.12 558.29 1119.23 596.16 1295.80 644.92
00002028 00000051 1066.17 186.73 435.08 600.95 1148.53 412.55 1329.07 472.34 1168.49 557.33 1120.16 598.02 1297.86 644.75
00002029 00000052 1068.15 185.10 435.29 603.01 1150.29 411.93 1332.38 469.92 1171.03 556.98 1121.05 599.06 1299.91 644.49
00002030 00000053 1071.71 186.72 434.19 602.37 1153.33 410.23 1335.67 468.14 1173.41 556.04 1123.38 598.01 1303.91 643.64
00002031 00000054 1074.28 186.33 434.32 603.57 1155.57 408.36 1339.10 466.51 1175.14 554.43 1125.32 597.32 1307.40 643.31
00002032 00000055 1075.91 185.70 434.44 605.62 1157.94 408.25 1342.13 467.42 1177.44 553.81 1128.01 597.86 1309.72 644.75
00002033 00000056 1078.65 186.90 432.52 605.67 1160.68 409.62 1345.11 467.83 1180.65 553.04 1131.21 598.01 1314.20 644.20
00002034 00000057 1082.12 182.28 435.38 610.79 1169.91 406.28 1347.55 470.03 1188.47 545.10 1146.96 596.15 1323.57 646.45
00002035 00000058 1086.06 185.29 433.24 609.27 1171.66 409.16 1349.72 473.96 1189.29 548.57 1148.88 597.74 1326.10 648.67
00002036 00000059 1086.02 189.02 433.83 607.27 1171.82 412.30 1350.80 476.67 1190.59 550.16 1149.02 599.94 1326.68 650.47
00002037 00000060 1086.40 199.36 429.04 603.08 1165.32 419.18 1351.72 476.90 1186.64 557.53 1137.53 606.36 1321.49 652.92
00002038 00000061 1087.25 194.00 431.97 607.29 1172.63 418.10 1351.22 481.92 1193.14 555.07 1150.14 604.41 1327.56 654.53
00002039 00000062 1087.05 195.02 432.55 607.25 1174.10 420.29 1352.01 484.10 1195.61 557.25 1151.28 605.31 1328.04 655.38
00002040 00000063 1087.44 195.60 433.62 607.11 1174.99 422.19 1353.31 485.00 1197.61 557.59 1152.06 606.19 1329.60 655.34
00002041 00000064 1087.75 196.86 434.91 604.29 1176.55 421.65 1356.21 483.97 1200.06 557.17 1153.91 605.11 1333.39 653.70
00002042 00000065 1088.39 200.85 436.00 604.00 1179.75 420.44 1360.87 482.18 1205.37 558.12 1154.61 606.71 1335.77 655.05
00002043 00000066 1094.98 198.99 432.02 613.78 1187.36 424.51 1371.27 479.05 1218.30 560.57 1162.68 613.84 1346.82 656.04
00002044 00000067 1103.48 201.82 429.51 617.29 1198.07 428.36 1381.49 482.80 1230.39 565.35 1172.04 619.49 1354.75 661.98
00002045 00000068 1110.10 206.27 431.82 620.76 1206.29 432.87 1389.72 488.19 1241.00 575.64 1177.90 623.48 1362.81 667.79
00002046 00000069 1110.72 207.12 435.22 624.74 1213.80 442.91 1398.09 497.83 1254.57 579.93 1180.64 628.23 1368.94 672.85
00002047 DELETE   1115.23 208.31 430.11 622.72 1215.80 450.25 1400.18 504.47 1258.39 586.63 1182.96 630.93 1371.77 675.51
00002048 00000071 1110.01 210.86 433.76 616.45 1211.79 444.63 1395.00 503.67 1250.12 586.02 1179.18 626.09 1365.27 674.13
00002049 00000072 1104.85 210.08 430.82 610.04 1204.93 439.08 1385.56 498.76 1235.93 577.93 1175.20 622.55 1354.22 670.40
00002050 00000073 1099.30 209.34 427.44 607.99 1192.87 432.52 1372.17 494.51 1219.94 572.79 1165.57 619.18 1341.44 668.54
00002051 00000074 1089.16 203.31 431.42 613.61 1178.32 427.84 1358.42 491.88 1202.68 569.66 1154.81 616.53 1333.55 667.23
00002052 00000075 1085.46 208.97 430.09 607.27 1162.94 428.98 1345.81 486.35 1181.05 567.11 1135.75 615.69 1321.23 662.00
00002053 00000076 1080.53 209.36 433.52 603.20 1157.23 427.84 1337.80 485.44 1171.13 564.29 1129.92 614.01 1309.92 660.43
00002054 00000077 1079.59 209.45 433.86 601.21 1156.69 425.95 1333.33 485.81 1167.07 561.97 1128.34 610.87 1304.68 658.82
00002055 00000078 1079.50 206.54 433.34 603.35 1156.48 425.20 1333.25 485.37 1167.04 561.59 1128.59 611.02 1304.32 659.14
00002056 00000079 1080.41 210.04 435.21 600.84 1158.58 424.23 1337.98 485.79 1169.26 562.62 1129.07 611.16 1307.02 660.62
00002057 00000080 1082.03 207.67 434.59 603.18 1159.47 423.78 1342.22 485.59 1173.37 563.83 1131.71 613.22 1311.31 662.87
00002058 00000081 1083.93 208.23 432.76 602.50 1161.81 423.72 1345.01 485.22 1177.04 564.02 1133.89 612.61 1314.58 662.10
00002059 00000082 1084.31 206.47 432.64 602.58 1164.42 421.00 1349.23 485.09 1181.48 564.17 1134.44 609.42 1317.86 661.16
00002060 00000083 1084.13 204.21 433.79 604.36 1165.18 418.27 1352.02 483.49 1182.99 562.88 1134.00 608.28 1318.49 660.86
00002061 00000084 1082.24 201.69 436.37 605.70 1165.25 415.14 1352.87 483.52 1182.82 562.02 1131.61 605.52 1317.21 660.58
00002062 00000085 1081.22 202.00 438.06 603.90 1164.58 413.29 1352.85 482.42 1182.10 561.55 1130.85 604.04 1316.59 659.58
00002063 00000086 1080.04 200.00 438.05 604.75 1163.92 412.66 1352.54 480.86 1180.98 559.71 1128.98 603.88 1314.32 658.61
00002064 00000087 1079.30 199.92 438.11 604.66 1163.79 410.88 1352.05 479.18 1180.61 558.78 1128.24 602.00 1314.78 656.63
00002065 00000088 1079.40 200.50 438.65 604.64 1163.66 410.67 1352.32 478.42 1180.84 558.30 1127.98 602.65 1314.56 656.85
00002066 00000089 1078.81 199.53 439.11 608.04 1163.03 412.06 1351.93 479.18 1180.60 559.20 1127.51 604.39 1314.50 657.98
00002067 00000090 1078.06 198.66 439.20 609.60 1162.98 410.86 1352.14 478.20 1180.82 558.39 1126.95 604.18 1314.40 657.80
00002068 00000091 1077.58 196.99 440.27 609.13 1163.48 410.01 1353.31 478.05 1181.35 556.69 1126.77 603.03 1314.19 657.37
00002069 00000092 1076.68 195.66 441.28 609.58 1163.06 408.73 1352.99 477.80 1180.82 556.33 1126.09 601.85 1313.69 656.82
00002070 00000093 1075.38 195.78 442.95 606.93 1163.06 405.67 1354.05 477.81 1180.71 556.44 1124.51 598.81 1313.10 656.31
00002071 00000094 1072.76 195.23 444.21 603.48 1161.74 403.91 1352.48 477.50 1179.70 555.69 1122.28 597.99 1308.56 656.53
00002072 00000095 1070.92 195.95 446.78 600.76 1161.99 400.63 1353.04 477.86 1178.48 556.22 1119.71 595.55 1305.25 657.19
00002073 00000096 1067.67 198.61 448.84 596.41 1161.09 398.24 1351.63 478.73 1176.25 556.59 1116.55 592.23 1302.23 656.42
00002074 00000097 1065.41 200.23 447.70 594.26 1160.04 397.68 1349.18 478.70 1174.00 556.61 1114.70 592.49 1297.94 657.16
00002075 00000098 1061.42 199.39 448.59 594.84 1157.32 399.55 1344.92 480.38 1170.81 556.50 1113.13 594.05 1293.17 658.43
00002076 00000099 1056.74 201.06 451.18 590.64 1154.65 398.63 1341.74 481.87 1166.67 557.33 1109.47 591.72 1288.54 658.08
00002077 00000100 1052.40 198.64 452.86 590.92 1151.82 399.63 1337.31 482.30 1163.64 556.44 1107.09 590.99 1284.40 656.74
00002078 00000101 1050.06 198.31 452.72 589.77 1149.94 401.95 1333.55 482.34 1161.46 555.04 1106.42 592.43 1280.72 656.30
00002079 00000102 1049.41 198.02 451.36 589.37 1148.71 401.48 1331.67 481.61 1159.76 554.72 1105.10 592.46 1278.34 656.13
00002080 00000103 1048.98 199.73 451.69 587.67 1148.08 401.45 1331.12 481.17 1158.70 554.40 1104.50 592.73 1277.41 656.11
00002081 00000104 1049.15 199.31 451.81 587.86 1148.29 400.54 1332.10 481.20 1158.92 554.50 1104.08 592.58 1277.07 656.81
00002082 00000105 1048.88 198.23 451.89 588.38 1149.18 399.48 1332.69 481.60 1158.99 553.60 1103.77 591.24 1276.76 656.65
00002083 00000106 1047.14 201.03 454.09 583.85 1150.25 397.24 1333.15 481.01 1158.44 551.51 1102.13 588.73 1274.02 655.68
00002084 00000107 1044.99 201.39 455.06 582.94 1150.57 394.40 1332.76 479.75 1157.80 549.24 1100.37 586.05 1272.27 654.29
00002085 00000108 1042.01 199.62 455.79 583.78 1150.27 392.65 1331.63 479.68 1156.00 546.02 1097.56 584.89 1267.49 654.55
00002086 00000109 1037.37 201.47 457.09 581.70 1147.57 392.02 1328.54 482.07 1152.24 546.29 1094.98 582.40 1265.67 654.60
00002087 00000110 1032.81 203.34 458.83 581.18 1143.87 391.73 1325.56 483.52 1147.64 546.19 1091.48 582.52 1263.29 656.07
00002088 00000111 1031.10 204.12 455.55 584.06 1139.40 395.03 1320.84 484.59 1145.35 547.60 1089.39 585.34 1262.86 656.94
00002089 00000112 1027.85 203.58 454.10 584.90 1137.78 394.34 1317.40 484.44 1143.38 546.29 1086.83 585.02 1258.40 657.08
00002090 00000113 1025.57 201.80 451.42 585.02 1134.75 390.99 1312.35 484.12 1139.14 545.37 1085.10 580.68 1256.81 654.94
00002091 00000114 1024.13 200.43 450.50 584.84 1133.42 388.04 1309.91 482.83 1137.09 543.87 1083.35 577.90 1254.98 653.42
00002092 00000115 1021.88 201.09 451.92 583.72 1132.02 386.43 1308.20 481.32 1135.41 541.63 1082.09 576.03 1254.14 651.60
00002093 00000116 1020.30 201.95 452.68 581.22 1130.60 387.27 1307.46 481.68 1134.24 543.19 1080.97 577.14 1251.76 652.45
00002094 00000117 1019.55 202.29 450.51 580.91 1130.05 387.32 1306.84 485.31 1132.77 544.85 1077.87 576.19 1248.96 654.53
00002095 00000118 1014.42 203.54 454.23 585.81 1126.10 393.28 1303.36 490.92 1129.45 547.26 1074.89 583.45 1243.49 661.72
00002096 00000119 1011.14 206.05 460.52 594.37 1125.32 407.66 1297.86 504.70 1126.22 552.76 1076.12 589.55 1241.34 666.54
00002097 DELETE   1008.31 206.41 459.00 597.32 1124.62 407.65 1297.19 512.12 1124.26 557.75 1071.87 587.55 1238.30 670.77
00002098 00000121 1010.15 211.75 455.70 594.92 1123.35 412.54 1296.67 517.02 1123.85 563.23 1071.42 593.59 1236.42 677.33
00002099 00000122 1011.03 212.73 453.76 591.66 1123.97 418.83 1296.13 520.93 1127.25 566.71 1071.73 597.33 1232.08 679.43
CROP_BBOX: 756 0 1847 987
