Video ID: 	wcxroujFPN0
H: 	1080
W: 	1920
FPS: 	23.976023976023978

FRAME INDEX X0 Y0 W H [Landmarks (5 Points)]

00068629 00000000 871.47 284.31 397.10 519.62 1136.53 441.11 1234.99 461.99 1270.47 561.63 1142.10 641.54 1218.75 659.95
00068630 00000001 873.95 287.55 395.36 520.41 1135.12 442.40 1236.48 462.43 1270.98 563.09 1142.28 644.92 1221.17 662.62
00068631 00000002 869.85 288.71 399.16 533.91 1132.36 443.55 1234.45 466.94 1271.10 565.00 1140.32 654.44 1217.67 674.82
00068632 00000003 862.80 287.93 404.74 524.57 1120.94 445.82 1233.55 467.06 1265.40 570.83 1131.18 654.72 1216.70 673.41
00068633 DELETE   853.35 282.41 406.00 526.78 1119.06 438.97 1236.81 474.88 1255.56 573.58 1122.66 648.37 1211.19 678.36
00068634 DELETE   842.88 273.30 410.06 546.28 1112.39 432.60 1237.43 475.40 1249.13 572.11 1104.93 649.79 1206.57 685.26
00068635 00000006 832.13 281.14 421.06 562.25 1111.37 430.06 1229.45 481.55 1245.05 576.71 1095.57 661.38 1188.12 704.26
00068636 00000007 841.17 285.71 422.47 570.10 1096.76 434.91 1236.01 481.97 1239.11 576.13 1078.83 676.07 1188.79 716.46
00068637 00000008 842.07 282.31 419.04 572.53 1102.49 436.94 1236.40 481.63 1242.45 580.46 1078.71 677.31 1185.52 716.45
00068638 00000009 847.08 289.06 414.85 571.31 1106.70 439.89 1237.62 488.63 1246.49 584.84 1076.92 676.77 1183.54 719.76
00068639 00000010 855.23 300.82 411.55 562.65 1110.49 441.76 1235.72 488.36 1246.71 585.34 1083.68 679.76 1185.01 721.12
00068640 00000011 865.18 311.02 403.36 550.74 1109.57 445.45 1236.25 486.83 1244.62 589.44 1088.05 682.08 1188.60 719.44
00068641 00000012 868.79 310.84 401.18 549.33 1111.85 446.62 1236.01 485.71 1244.90 589.40 1091.80 682.51 1189.26 717.85
00068642 00000013 864.58 309.03 401.93 548.38 1110.11 446.02 1235.18 486.28 1244.55 587.58 1089.99 681.26 1188.51 717.26
00068643 00000014 856.85 300.33 407.97 549.35 1108.54 445.38 1234.23 488.95 1243.57 583.28 1090.82 676.45 1189.85 714.83
00068644 00000015 849.59 286.51 412.37 566.94 1108.96 444.86 1234.60 488.01 1243.11 585.36 1085.58 676.60 1186.18 715.02
00068645 00000016 849.77 285.10 410.40 567.96 1102.37 444.81 1233.25 486.54 1238.21 586.51 1080.32 677.17 1185.41 714.27
00068646 00000017 848.79 284.09 409.70 565.38 1101.76 445.81 1232.72 487.16 1236.30 586.46 1080.49 676.37 1185.19 713.04
00068647 00000018 833.38 283.96 418.85 562.79 1105.15 441.36 1221.27 483.07 1239.03 588.68 1085.87 669.89 1180.95 706.57
00068648 00000019 835.89 286.06 418.19 558.77 1108.66 442.75 1223.65 485.76 1241.25 587.47 1091.97 668.13 1184.63 705.53
00068649 00000020 853.31 292.82 408.45 550.61 1103.93 446.36 1235.01 488.19 1239.60 584.16 1092.82 676.58 1192.46 712.81
00068650 00000021 857.13 293.30 406.18 550.19 1108.95 449.39 1233.11 487.66 1240.74 585.69 1097.39 677.60 1191.99 711.28
00068651 00000022 856.45 294.82 406.62 548.23 1111.02 448.53 1233.91 486.30 1244.30 584.30 1102.31 678.62 1194.78 711.42
00068652 00000023 859.57 295.18 403.73 548.72 1110.57 448.38 1234.89 486.95 1244.07 582.03 1104.19 678.89 1196.53 711.93
00068653 00000024 859.18 295.48 403.34 547.32 1111.53 446.14 1235.42 486.25 1244.19 580.56 1103.90 676.67 1196.91 711.01
00068654 00000025 857.06 293.83 406.09 549.70 1110.20 444.66 1234.30 485.91 1243.47 579.97 1099.53 674.20 1194.26 709.83
00068655 00000026 850.28 286.52 415.53 557.01 1104.78 445.18 1234.90 487.67 1239.60 579.73 1092.88 672.95 1193.41 709.76
00068656 00000027 848.69 283.23 414.99 561.84 1106.03 445.17 1235.22 488.18 1240.63 580.44 1091.13 672.72 1192.30 710.22
00068657 00000028 846.73 286.25 416.10 557.23 1105.92 443.54 1234.36 488.39 1240.35 580.42 1089.88 670.30 1191.01 709.25
00068658 00000029 848.74 284.26 411.83 559.37 1104.84 442.72 1233.78 486.38 1239.68 580.55 1089.16 670.85 1190.88 708.97
00068659 00000030 849.41 284.94 410.59 557.56 1105.52 440.89 1233.86 484.77 1239.10 580.14 1089.54 669.37 1190.58 707.65
00068660 00000031 851.07 283.95 407.32 558.10 1107.67 439.89 1234.12 483.71 1240.83 578.86 1090.09 667.46 1190.22 706.10
00068661 00000032 850.55 285.06 406.76 556.49 1108.10 439.17 1231.23 479.15 1242.72 579.21 1090.35 667.38 1187.91 703.26
00068662 00000033 850.78 285.09 407.23 558.99 1109.01 437.64 1229.80 476.27 1243.48 578.77 1091.06 668.33 1186.25 703.24
00068663 00000034 848.59 283.27 410.77 563.45 1109.69 435.83 1228.43 471.08 1245.18 578.11 1090.70 669.44 1183.94 701.95
00068664 00000035 848.60 287.49 411.79 557.30 1107.98 432.35 1227.74 467.03 1244.64 575.72 1092.69 671.09 1185.17 702.71
00068665 00000036 845.07 280.90 414.29 563.99 1106.67 431.29 1227.11 464.14 1245.13 572.92 1090.89 671.13 1184.36 701.46
00068666 00000037 844.01 281.50 413.11 564.53 1103.88 428.12 1225.64 463.22 1242.77 568.22 1090.95 667.92 1185.79 699.46
00068667 00000038 840.30 270.79 413.41 573.51 1101.29 423.21 1225.10 456.40 1241.11 563.93 1088.17 666.63 1184.21 696.74
00068668 00000039 831.28 261.71 416.22 565.59 1104.30 417.87 1217.45 449.43 1241.10 565.51 1088.74 653.09 1182.77 681.75
00068669 00000040 835.93 256.79 415.61 564.38 1096.01 416.88 1223.51 446.32 1238.43 552.54 1090.44 649.42 1187.95 675.25
00068670 00000041 836.52 247.27 413.21 554.56 1091.09 411.57 1222.60 438.54 1232.03 543.86 1095.15 643.41 1191.37 665.91
00068671 00000042 831.24 248.47 416.35 544.06 1084.98 404.87 1217.40 431.68 1229.08 539.54 1096.22 636.08 1189.17 657.75
00068672 00000043 828.28 238.39 414.63 545.37 1079.54 398.29 1216.74 427.34 1228.40 528.33 1098.33 631.08 1193.06 653.67
00068673 00000044 831.78 226.16 409.58 554.34 1080.91 393.00 1218.06 423.63 1227.69 521.57 1096.71 623.18 1192.99 647.25
00068674 00000045 833.26 220.85 407.58 559.18 1081.19 392.82 1216.77 423.24 1227.86 519.81 1095.58 621.18 1192.03 645.68
00068675 00000046 827.01 224.16 415.08 568.20 1079.95 390.13 1213.54 422.15 1223.86 517.67 1085.87 619.06 1188.15 644.50
00068676 00000047 822.26 225.48 419.54 578.32 1078.05 387.73 1207.09 417.56 1221.15 520.63 1080.68 628.08 1179.58 651.97
00068677 00000048 816.09 228.17 424.14 583.88 1072.49 388.69 1200.92 418.49 1218.76 523.75 1065.84 628.63 1171.30 653.68
00068678 00000049 814.88 229.95 422.81 578.61 1069.08 387.40 1196.68 416.89 1215.56 522.60 1061.63 626.32 1166.58 651.31
00068679 00000050 812.43 222.84 421.43 585.34 1065.69 385.26 1189.42 416.53 1210.28 516.94 1061.03 625.69 1161.14 651.56
00068680 00000051 811.31 228.39 419.46 577.30 1061.90 384.81 1186.12 415.85 1206.72 515.85 1059.27 625.40 1158.89 650.72
00068681 00000052 811.51 230.65 417.26 574.29 1059.60 384.40 1183.30 415.03 1202.75 516.33 1059.39 627.60 1155.83 652.18
00068682 00000053 810.05 229.53 418.14 576.24 1060.31 385.77 1183.92 415.93 1202.14 515.83 1063.05 630.04 1157.88 653.81
00068683 00000054 809.85 228.90 418.43 575.02 1060.34 386.79 1186.09 416.18 1202.51 518.13 1064.35 631.92 1159.32 654.91
00068684 00000055 813.12 228.83 417.27 575.64 1062.52 386.11 1188.63 415.03 1202.71 520.72 1068.15 634.03 1160.38 656.38
00068685 00000056 815.17 226.46 416.93 579.15 1061.56 386.81 1191.34 415.40 1204.38 520.65 1069.18 635.13 1163.59 657.11
00068686 00000057 815.43 224.43 417.34 583.83 1061.60 386.62 1190.99 415.17 1204.58 520.31 1070.34 636.32 1164.81 658.36
00068687 00000058 816.65 225.22 415.68 582.36 1061.59 386.54 1191.15 416.38 1205.60 519.42 1072.77 636.48 1166.80 659.49
00068688 00000059 813.26 224.17 418.39 582.76 1061.55 385.99 1191.29 414.42 1207.24 519.03 1075.93 637.53 1168.53 659.31
00068689 00000060 814.93 221.65 416.80 586.99 1061.83 385.16 1191.33 413.76 1207.67 517.35 1080.71 637.72 1171.94 659.46
00068690 00000061 813.64 220.08 416.79 586.23 1062.12 385.30 1189.81 411.93 1208.42 516.91 1085.04 638.89 1172.51 659.05
00068691 00000062 815.92 216.26 414.80 585.59 1063.05 386.16 1191.05 411.65 1209.39 516.79 1088.78 638.68 1175.32 657.81
00068692 00000063 815.93 219.89 415.59 577.63 1064.77 386.98 1191.44 411.41 1210.07 517.00 1093.30 638.01 1179.31 656.03
00068693 00000064 814.64 219.18 417.02 579.80 1065.14 386.32 1191.84 411.76 1211.17 516.08 1094.49 637.73 1180.79 656.47
00068694 00000065 814.68 214.45 413.29 583.04 1064.47 389.97 1189.83 419.66 1208.84 515.54 1090.41 632.60 1178.87 655.42
00068695 00000066 815.70 211.77 412.75 586.80 1064.69 390.00 1190.32 419.47 1207.44 515.90 1087.16 632.42 1176.39 655.45
00068696 00000067 814.26 215.45 411.73 580.98 1060.32 387.08 1189.19 414.41 1206.64 510.73 1089.41 630.76 1180.82 651.26
00068697 00000068 814.40 211.23 415.22 582.88 1061.26 386.67 1192.65 414.73 1204.43 509.86 1087.21 627.44 1181.32 648.42
00068698 00000069 814.90 222.38 413.67 570.93 1062.16 383.99 1188.24 411.31 1205.38 509.41 1088.67 626.88 1177.98 647.23
00068699 00000070 816.07 218.55 413.39 571.55 1062.75 384.17 1189.04 408.07 1206.00 510.12 1092.88 629.04 1179.79 646.58
00068700 00000071 816.16 211.31 412.73 576.13 1062.64 384.36 1190.43 407.31 1206.07 511.14 1096.92 629.78 1183.17 646.48
00068701 00000072 816.40 209.52 412.91 577.18 1062.73 385.12 1187.26 405.33 1206.42 510.71 1099.63 630.40 1182.76 645.02
00068702 00000073 816.91 210.37 412.39 575.31 1062.62 385.41 1187.87 405.36 1205.78 511.33 1100.29 630.75 1183.22 645.04
00068703 00000074 816.57 213.30 412.45 572.25 1062.86 384.67 1187.76 404.67 1206.16 510.79 1099.41 630.31 1182.01 644.60
00068704 00000075 817.75 212.55 412.42 573.16 1063.11 383.80 1186.62 401.64 1206.68 510.52 1099.92 631.20 1182.10 643.95
00068705 00000076 819.34 212.32 411.10 573.14 1062.54 383.79 1186.79 402.50 1206.49 510.50 1099.15 630.53 1182.28 644.09
00068706 00000077 814.33 205.91 410.99 579.61 1062.43 388.53 1186.20 415.41 1204.96 508.97 1095.32 624.78 1181.76 645.08
00068707 00000078 813.27 206.14 411.11 579.40 1061.76 389.23 1186.09 415.17 1203.66 510.88 1094.64 627.64 1180.52 647.07
00068708 00000079 812.49 213.16 411.31 575.26 1060.90 389.40 1185.86 415.16 1205.57 511.56 1096.22 629.34 1182.32 648.51
00068709 00000080 814.89 219.16 412.10 571.96 1059.40 389.57 1188.46 415.58 1203.24 514.00 1095.17 631.70 1184.11 650.70
00068710 00000081 815.20 217.25 410.39 571.29 1059.54 388.47 1188.50 411.97 1204.68 513.16 1097.55 633.24 1184.43 650.20
00068711 00000082 815.67 218.95 410.05 570.36 1060.46 386.95 1187.42 409.84 1206.11 512.90 1098.64 634.03 1183.79 650.54
00068712 00000083 815.36 221.93 408.84 565.92 1060.55 385.63 1185.56 407.78 1206.36 512.65 1099.76 633.98 1182.65 649.75
00068713 00000084 815.16 218.18 409.43 570.85 1059.60 383.39 1184.90 405.37 1204.91 511.31 1100.45 635.04 1182.25 650.41
00068714 00000085 814.92 216.86 409.95 572.55 1060.26 382.50 1184.25 404.10 1205.73 510.93 1100.93 635.30 1181.74 650.42
00068715 00000086 815.03 217.50 410.44 570.54 1060.12 382.95 1185.23 404.34 1205.91 510.53 1100.77 634.47 1182.66 649.37
00068716 00000087 814.36 218.99 409.96 568.45 1058.56 381.86 1184.92 401.86 1205.56 511.30 1099.36 635.32 1181.30 648.99
00068717 00000088 812.23 222.30 408.57 566.23 1056.54 381.58 1184.72 403.63 1203.38 510.81 1098.18 634.36 1182.23 649.58
00068718 00000089 813.77 223.71 404.89 562.31 1055.56 381.42 1182.59 402.77 1200.91 511.40 1098.45 633.56 1180.09 647.90
00068719 00000090 814.75 220.66 403.07 563.84 1054.26 382.17 1180.29 403.31 1199.44 511.06 1097.42 633.66 1178.34 647.86
00068720 00000091 813.80 222.45 403.41 559.29 1054.23 382.17 1180.13 402.73 1199.30 510.85 1097.98 632.54 1178.72 646.21
00068721 00000092 813.78 219.09 402.62 558.79 1053.75 381.39 1178.29 400.55 1200.22 508.88 1097.11 629.83 1177.87 642.50
00068722 00000093 813.26 217.68 403.53 557.27 1053.73 382.11 1178.46 401.35 1200.18 508.38 1096.53 629.22 1177.71 642.14
00068723 00000094 811.06 209.44 404.56 563.89 1054.81 382.41 1177.20 402.83 1199.38 506.19 1094.80 625.47 1176.32 639.76
00068724 00000095 806.01 211.12 408.65 565.12 1050.96 382.44 1171.89 401.96 1195.82 504.12 1093.29 622.17 1175.13 635.66
00068725 00000096 800.99 211.06 410.54 561.23 1046.25 378.79 1165.68 396.05 1195.73 498.81 1095.85 616.75 1176.27 628.42
00068726 00000097 794.60 208.98 416.62 557.41 1040.18 372.88 1164.85 390.47 1199.11 490.58 1094.04 611.05 1181.05 623.49
00068727 00000098 794.91 205.71 418.75 560.71 1044.27 368.42 1161.36 384.76 1200.14 484.86 1096.68 607.60 1178.74 620.14
00068728 00000099 801.48 203.21 407.37 569.33 1044.98 364.86 1167.95 381.98 1201.44 469.70 1083.74 606.67 1172.10 619.46
00068729 00000100 797.30 198.64 412.50 574.09 1041.72 358.30 1163.69 379.64 1198.45 463.93 1077.56 599.73 1165.36 616.10
00068730 00000101 786.44 190.17 411.95 566.24 1039.66 352.82 1159.48 376.78 1190.93 464.10 1069.75 575.15 1165.27 594.27
00068731 00000102 784.65 177.30 422.66 575.49 1037.43 349.34 1167.58 374.30 1190.79 459.49 1065.22 571.48 1170.74 591.37
00068732 00000103 790.44 181.37 424.88 567.76 1043.63 346.74 1178.29 367.57 1197.48 458.52 1070.59 571.07 1178.00 587.46
00068733 00000104 799.33 185.81 424.59 563.34 1045.19 346.49 1185.84 368.19 1201.98 455.09 1068.73 568.98 1182.19 585.96
00068734 00000105 807.30 179.63 430.12 591.62 1063.68 336.64 1193.34 357.94 1215.19 460.27 1072.15 582.56 1175.65 601.76
CROP_BBOX: 506 0 1667 1080
