Video ID: 	b8v9rY_1gxk
H: 	1080
W: 	1920
FPS: 	29.97002997002997

FRAME INDEX X0 Y0 W H [Landmarks (5 Points)]

00023528 00000000 1084.36 94.73 410.21 636.65 1125.08 346.53 1286.90 351.51 1145.36 441.39 1126.13 565.89 1240.62 572.18
00023529 00000001 1085.85 94.77 410.51 631.00 1125.67 343.71 1289.19 345.89 1146.37 436.06 1126.03 563.85 1241.88 567.94
00023530 DELETE   1083.53 92.42 411.85 639.14 1125.67 348.62 1291.97 351.25 1151.10 444.82 1128.80 569.14 1248.71 573.86
00023531 00000003 1086.32 99.32 416.31 659.14 1129.79 369.49 1301.62 377.52 1160.24 483.45 1144.47 596.24 1269.44 604.61
00023532 00000004 1086.35 98.80 416.41 659.86 1130.00 369.53 1301.58 377.55 1160.38 483.24 1144.56 596.10 1269.54 604.44
00023533 DELETE   1081.18 123.90 437.74 652.94 1138.24 387.86 1324.55 398.27 1169.79 514.09 1151.35 619.91 1292.60 628.83
00023534 DELETE   1097.91 126.85 424.98 645.34 1151.18 393.02 1333.25 403.99 1189.04 517.75 1162.89 617.74 1298.30 626.82
00023535 DELETE   1114.98 116.42 422.34 632.72 1167.61 389.29 1342.61 397.70 1200.21 502.67 1174.62 599.82 1308.77 607.72
00023536 00000008 1131.09 113.06 430.14 616.72 1186.43 373.53 1362.46 382.69 1213.58 480.45 1188.81 585.19 1325.58 592.80
00023537 DELETE   1131.29 112.72 429.86 616.86 1186.59 373.46 1362.40 382.79 1213.73 480.30 1188.84 584.79 1325.64 592.49
00023538 DELETE   1153.32 106.02 423.90 617.65 1208.74 362.93 1387.47 372.52 1240.43 466.98 1213.13 577.85 1342.30 585.96
00023539 DELETE   1162.06 110.26 431.90 629.01 1226.45 353.95 1403.57 362.61 1258.22 448.62 1226.20 571.37 1351.72 579.98
00023540 00000012 1174.11 114.21 427.96 631.13 1234.57 349.63 1413.36 357.99 1261.77 444.54 1229.57 570.87 1356.69 580.01
00023541 00000013 1180.43 118.96 424.66 623.68 1238.64 346.66 1419.37 355.17 1263.91 441.29 1231.34 568.11 1363.39 577.51
00023542 00000014 1180.32 118.23 424.59 624.31 1238.46 346.71 1419.43 355.21 1263.94 441.44 1231.50 568.05 1363.74 577.45
00023543 00000015 1180.20 112.91 425.76 624.60 1239.08 344.64 1419.37 355.21 1264.11 439.12 1230.61 562.89 1364.92 574.13
00023544 00000016 1177.98 112.46 426.46 619.67 1235.32 344.21 1414.58 355.58 1259.33 438.21 1225.86 559.11 1361.19 570.83
00023545 00000017 1171.65 107.72 427.15 610.92 1229.99 347.38 1410.41 357.48 1257.39 438.68 1221.61 555.57 1357.73 565.82
00023546 00000018 1161.57 107.34 429.78 607.04 1223.92 346.86 1404.88 357.05 1254.44 439.04 1218.79 553.37 1357.33 562.87
00023547 00000019 1161.73 108.50 429.81 606.23 1223.94 347.04 1404.87 357.43 1254.17 438.83 1218.57 553.14 1357.34 562.83
00023548 00000020 1153.45 103.50 433.19 607.81 1217.35 349.94 1394.97 356.47 1244.28 438.97 1215.52 554.92 1352.38 560.97
00023549 00000021 1149.71 104.78 430.97 607.53 1210.56 351.99 1387.33 356.68 1238.73 442.99 1211.67 557.26 1348.25 561.69
00023550 00000022 1151.73 102.43 419.49 612.60 1199.00 352.77 1380.25 355.75 1227.75 449.88 1198.67 561.85 1351.81 564.23
00023551 00000023 1149.20 105.09 421.06 609.10 1197.26 353.38 1378.25 355.74 1226.32 449.30 1197.85 562.32 1349.88 564.11
00023552 00000024 1149.20 104.90 420.96 609.24 1197.24 353.50 1378.32 355.68 1226.35 449.20 1197.90 562.23 1350.10 563.86
00023553 00000025 1149.93 101.88 419.87 610.54 1197.63 353.21 1377.89 355.94 1226.28 449.66 1198.39 561.51 1349.94 563.56
00023554 00000026 1149.33 105.60 420.62 610.24 1196.27 353.56 1377.99 355.87 1225.31 450.98 1197.19 563.24 1350.58 564.88
00023555 00000027 1148.22 107.63 421.52 607.72 1194.75 353.73 1378.68 356.92 1224.97 451.65 1195.31 564.35 1349.58 566.72
00023556 00000028 1148.29 106.24 419.66 612.50 1196.35 353.88 1376.79 358.46 1225.34 453.98 1197.93 564.19 1349.79 567.71
00023557 00000029 1148.48 104.88 419.58 614.05 1196.32 353.77 1376.67 358.49 1225.28 454.23 1198.04 564.23 1350.03 567.83
00023558 00000030 1148.34 107.70 417.59 616.46 1197.07 353.15 1373.97 356.65 1224.30 449.75 1195.28 567.51 1340.74 570.60
00023559 00000031 1146.13 104.95 414.54 602.08 1197.05 346.19 1373.19 351.23 1223.20 441.43 1192.47 557.97 1333.91 562.71
00023560 00000032 1140.84 109.71 418.73 592.53 1194.43 342.66 1372.76 345.88 1219.86 434.90 1186.43 554.86 1325.80 558.50
00023561 00000033 1137.74 108.19 418.40 599.90 1195.76 340.74 1368.66 345.91 1218.81 433.29 1188.08 553.02 1322.00 558.71
00023562 00000034 1137.79 108.51 418.81 599.98 1195.84 340.76 1368.71 345.86 1218.76 433.33 1188.23 553.15 1322.14 558.81
00023563 00000035 1140.31 107.26 411.31 616.57 1191.05 340.73 1362.03 342.89 1211.95 424.51 1185.68 559.10 1304.18 563.20
00023564 00000036 1135.10 100.20 420.26 613.76 1193.70 337.01 1367.16 342.36 1215.41 430.20 1186.27 552.97 1322.18 558.49
00023565 00000037 1133.38 101.48 420.77 599.84 1191.52 334.58 1368.59 341.69 1216.28 428.66 1183.10 547.02 1320.56 553.58
00023566 00000038 1131.99 101.04 422.34 600.10 1190.33 334.57 1366.34 343.03 1214.85 429.80 1180.67 544.56 1318.56 552.01
00023567 00000039 1132.00 100.60 422.35 600.76 1190.40 334.44 1366.14 343.03 1214.70 429.67 1180.61 544.38 1318.23 551.93
00023568 00000040 1128.30 97.22 423.49 603.32 1187.98 335.67 1362.89 343.88 1213.31 429.33 1179.26 544.27 1313.78 551.56
00023569 00000041 1126.18 90.95 424.59 611.00 1186.80 336.13 1360.01 343.21 1210.81 425.42 1176.85 545.61 1305.51 552.49
00023570 00000042 1123.62 85.66 426.79 616.34 1183.34 336.69 1356.99 342.72 1207.16 421.96 1172.90 543.76 1303.46 549.79
00023571 00000043 1122.26 90.76 426.05 615.31 1182.24 337.76 1355.51 343.38 1206.61 423.37 1172.38 545.19 1303.63 551.05
00023572 00000044 1122.46 90.60 425.74 615.02 1182.19 337.59 1355.45 343.15 1206.50 423.62 1172.42 545.19 1303.87 550.97
00023573 00000045 1119.82 89.93 424.60 625.00 1182.18 338.60 1355.19 341.15 1208.60 426.02 1176.41 552.42 1301.55 555.86
00023574 00000046 1119.43 84.95 425.59 632.01 1181.72 335.92 1354.24 340.73 1206.39 425.05 1174.83 549.41 1301.62 554.56
00023575 00000047 1120.04 88.68 425.08 630.52 1180.31 337.33 1352.58 341.42 1204.30 427.10 1173.70 550.54 1303.14 554.98
00023576 00000048 1118.25 95.25 427.83 632.65 1180.87 342.83 1350.62 344.72 1204.49 433.30 1175.64 556.51 1305.73 558.76
00023577 00000049 1118.64 94.40 427.44 633.07 1180.94 342.78 1350.42 344.83 1204.37 433.40 1175.78 556.29 1305.68 558.62
00023578 00000050 1118.50 97.16 427.37 635.59 1179.43 348.84 1348.03 349.12 1201.52 437.54 1175.79 562.45 1307.50 563.16
00023579 00000051 1117.45 94.98 427.69 635.52 1176.71 348.24 1347.08 348.96 1200.00 437.71 1173.60 561.89 1305.65 563.05
00023580 00000052 1117.05 90.12 427.42 629.99 1174.68 346.95 1346.43 348.54 1198.74 435.17 1172.06 557.66 1302.07 559.78
00023581 00000053 1117.03 88.90 426.04 625.07 1172.56 346.90 1345.39 348.30 1198.45 435.47 1171.23 555.93 1302.35 557.81
00023582 00000054 1116.74 88.85 426.37 625.36 1172.62 346.56 1345.54 348.13 1198.44 435.38 1171.11 555.87 1302.28 557.90
00023583 00000055 1118.56 87.48 426.00 624.44 1170.92 349.06 1345.06 350.13 1197.43 438.17 1170.55 557.14 1305.21 558.61
00023584 00000056 1119.29 88.69 424.15 622.89 1171.52 350.71 1344.21 351.79 1197.06 439.88 1171.16 557.88 1304.99 559.28
00023585 00000057 1118.59 89.64 423.58 617.70 1171.11 350.38 1343.28 352.20 1196.98 439.63 1171.24 555.36 1304.69 557.29
00023586 00000058 1118.82 92.23 423.67 616.04 1170.97 349.29 1343.25 351.62 1196.63 439.46 1170.27 554.92 1304.92 557.27
00023587 00000059 1118.83 91.74 423.63 616.38 1171.05 349.28 1343.27 351.44 1196.55 439.35 1170.47 554.90 1304.93 557.12
00023588 00000060 1118.26 91.16 424.23 617.13 1170.95 349.07 1343.09 351.59 1196.34 440.17 1170.62 554.85 1304.67 557.40
00023589 00000061 1118.87 91.72 424.27 619.01 1171.03 350.06 1343.57 352.84 1195.81 441.40 1169.70 556.74 1305.38 559.49
00023590 00000062 1118.34 91.08 424.77 620.64 1170.04 350.83 1343.05 353.54 1195.69 442.19 1169.69 557.90 1305.93 560.50
00023591 00000063 1118.08 91.53 424.78 622.10 1169.73 352.24 1342.68 354.10 1195.65 442.99 1169.82 559.19 1306.31 561.10
00023592 00000064 1117.91 91.70 424.95 622.14 1169.66 352.18 1342.63 354.07 1195.65 443.21 1169.90 559.19 1306.22 561.14
00023593 00000065 1118.79 92.45 423.64 620.58 1169.96 353.30 1342.50 355.16 1195.89 444.26 1170.76 559.21 1306.94 561.06
00023594 00000066 1119.26 94.51 423.24 620.39 1171.14 353.54 1342.25 355.88 1196.18 445.53 1172.01 559.67 1307.35 561.88
00023595 00000067 1117.55 97.76 425.55 621.20 1169.94 354.89 1343.01 357.86 1197.29 448.97 1171.65 562.82 1308.28 565.49
00023596 00000068 1116.47 105.64 425.38 621.39 1171.14 357.60 1341.91 359.15 1198.65 454.03 1176.69 567.24 1307.37 569.00
00023597 00000069 1116.70 105.33 425.10 621.67 1171.18 357.82 1341.99 359.17 1198.56 453.76 1176.68 567.37 1307.42 568.97
00023598 00000070 1113.76 106.39 426.55 634.28 1172.69 357.44 1341.68 359.15 1198.09 449.74 1173.68 570.16 1304.56 572.10
00023599 00000071 1115.65 103.47 424.86 636.77 1174.01 353.56 1341.84 356.27 1197.38 445.96 1172.81 566.64 1305.92 569.34
00023600 00000072 1116.63 97.40 426.36 636.05 1174.56 352.98 1342.74 355.19 1197.23 444.35 1173.03 564.29 1306.78 566.54
00023601 00000073 1117.02 97.43 426.74 633.21 1174.91 352.67 1342.72 355.52 1197.40 444.21 1172.63 563.10 1306.05 565.89
00023602 00000074 1116.82 96.82 427.07 634.29 1174.98 352.58 1342.67 355.56 1197.39 444.21 1172.51 563.04 1306.04 565.92
00023603 00000075 1115.38 96.67 428.26 636.01 1175.15 351.11 1342.56 354.59 1196.32 441.32 1170.72 561.72 1304.68 565.03
00023604 00000076 1111.67 95.85 430.52 639.25 1174.22 348.95 1342.96 352.41 1195.69 438.75 1167.89 561.83 1300.84 565.37
00023605 00000077 1109.72 97.41 431.92 641.51 1174.68 347.64 1341.29 352.89 1193.85 437.64 1166.41 561.88 1296.59 566.89
00023606 00000078 1112.95 99.48 428.76 637.46 1174.84 350.48 1340.62 356.88 1194.29 441.50 1167.90 563.90 1294.55 570.07
00023607 00000079 1112.86 99.74 428.89 637.40 1175.03 350.71 1340.59 357.17 1194.35 441.63 1167.83 564.00 1294.27 570.23
00023608 00000080 1114.21 104.62 429.47 630.35 1171.09 353.83 1342.93 361.84 1195.45 447.17 1164.53 568.01 1295.27 575.70
00023609 00000081 1113.87 114.23 430.48 616.54 1169.54 360.71 1344.66 368.45 1198.89 456.13 1166.66 575.25 1296.41 582.71
00023610 00000082 1105.46 130.59 429.51 619.52 1163.13 371.39 1339.09 382.80 1182.94 464.47 1154.66 594.07 1275.69 605.46
00023611 00000083 1104.86 123.67 432.65 662.94 1162.97 376.63 1337.79 388.66 1178.04 482.58 1160.79 607.19 1289.07 618.09
00023612 00000084 1104.75 124.64 432.63 661.95 1163.06 376.61 1337.76 388.79 1177.98 482.47 1160.35 606.79 1289.02 617.80
00023613 00000085 1092.70 125.56 428.99 672.45 1152.48 382.78 1323.94 398.99 1167.69 490.88 1151.19 611.66 1279.94 625.73
00023614 00000086 1084.96 139.21 420.94 662.14 1131.73 388.80 1298.18 402.30 1144.88 499.70 1129.85 618.75 1260.95 631.18
00023615 00000087 1063.34 156.01 425.39 659.28 1112.60 400.34 1285.70 409.88 1127.82 511.65 1110.27 627.43 1250.69 636.23
00023616 00000088 1041.65 152.23 426.13 656.03 1094.22 404.73 1260.81 414.62 1111.61 511.64 1092.85 629.70 1228.67 637.85
00023617 00000089 1041.54 151.97 426.76 656.50 1094.28 404.94 1261.00 414.80 1111.62 511.66 1092.69 629.80 1228.75 637.93
00023618 00000090 1022.88 149.31 437.54 656.19 1080.24 402.45 1255.01 416.94 1095.10 510.22 1078.84 625.03 1218.95 638.30
00023619 00000091 1015.63 142.82 431.62 654.20 1065.60 394.35 1238.10 407.33 1085.29 508.17 1066.85 619.17 1208.20 630.17
00023620 00000092 1003.13 133.10 435.94 644.11 1055.57 388.20 1237.08 399.23 1072.13 491.44 1056.00 609.11 1201.94 618.18
00023621 00000093 1004.29 123.30 437.43 637.39 1056.14 381.54 1234.51 395.66 1068.55 483.13 1053.09 598.09 1194.68 609.91
00023622 00000094 1004.20 122.90 437.47 638.07 1055.97 381.41 1234.53 395.63 1068.76 483.55 1053.13 598.09 1194.72 610.01
00023623 00000095 1007.71 107.73 444.64 647.01 1059.39 374.34 1240.38 388.29 1073.61 474.75 1058.20 593.50 1197.60 605.62
00023624 00000096 1017.15 100.42 445.39 654.25 1066.65 366.17 1249.41 381.35 1079.98 465.30 1064.44 590.92 1202.15 604.99
00023625 00000097 1028.20 89.11 441.79 659.23 1076.48 350.56 1255.87 370.42 1087.34 453.15 1067.07 576.81 1202.06 595.47
00023626 00000098 1036.24 84.69 439.13 657.44 1090.73 342.17 1266.59 359.74 1110.63 449.81 1079.24 569.12 1213.52 585.26
00023627 00000099 1036.09 84.65 439.50 657.59 1090.98 342.20 1266.75 359.89 1110.68 449.62 1079.27 568.90 1213.60 585.10
00023628 00000100 1043.87 83.77 446.38 659.70 1102.39 341.70 1277.09 360.62 1118.91 449.64 1086.96 566.56 1221.02 583.24
00023629 DELETE   1051.83 92.16 456.24 673.31 1107.05 342.12 1300.67 372.61 1121.82 470.10 1081.58 576.20 1230.81 603.37
00023630 00000102 1057.59 101.61 456.28 672.66 1117.41 352.34 1310.49 386.97 1130.68 480.68 1094.93 588.94 1239.41 618.54
00023631 00000103 1071.41 105.69 448.98 688.97 1128.59 358.65 1309.92 400.03 1142.08 491.38 1114.99 600.12 1255.22 636.20
00023632 DELETE   1071.59 105.81 448.31 688.51 1128.44 358.75 1309.47 400.04 1141.72 491.57 1114.91 600.26 1254.83 636.25
00023633 00000105 1065.81 105.22 461.88 694.48 1136.13 365.82 1326.54 403.68 1146.78 488.65 1116.17 606.79 1263.53 639.56
00023634 00000106 1066.90 100.95 463.39 695.34 1136.35 363.72 1326.52 403.54 1144.33 486.75 1114.75 604.49 1260.57 638.97
00023635 DELETE   1065.00 100.24 462.38 691.00 1132.95 362.19 1321.51 403.15 1138.22 486.25 1109.69 601.37 1252.38 636.76
00023636 00000108 1071.29 105.75 453.00 687.18 1125.06 363.67 1307.11 406.53 1137.32 495.30 1107.83 601.53 1241.88 639.82
00023637 DELETE   1071.05 105.55 453.24 687.40 1125.39 363.27 1307.34 406.52 1137.29 495.15 1107.98 601.15 1242.23 639.72
00023638 00000110 1070.62 107.19 453.66 689.68 1123.85 370.02 1302.28 414.03 1132.31 502.89 1106.10 606.98 1237.15 646.11
00023639 00000111 1069.29 112.21 464.80 688.18 1130.49 379.07 1321.99 422.82 1141.21 517.03 1116.73 621.93 1257.32 659.30
CROP_BBOX: 729 0 1844 1015
