Video ID: 	oVwynCPyBEo
H: 	1080
W: 	1920
FPS: 	25.0

FRAME INDEX X0 Y0 W H [Landmarks (5 Points)]

00035131 00000000 660.26 164.84 358.86 582.36 800.83 407.40 967.02 406.70 937.93 494.40 822.06 604.47 959.99 606.44
00035132 00000001 661.30 166.03 356.35 581.25 798.51 409.17 965.40 412.98 932.48 498.24 815.20 604.82 954.93 610.85
00035133 00000002 656.01 170.16 360.89 577.73 802.19 410.01 966.49 414.84 938.75 501.03 817.34 606.06 953.24 612.37
00035134 00000003 652.14 172.52 361.51 576.46 806.13 410.57 969.26 413.13 948.63 501.03 823.26 610.07 953.61 614.24
00035135 00000004 651.71 174.41 358.32 574.46 805.76 412.30 969.63 411.58 952.49 500.98 816.32 607.39 953.57 609.89
00035136 00000005 652.77 173.20 354.35 573.14 801.62 412.97 965.68 410.36 946.33 500.66 808.05 604.01 949.79 605.72
00035137 00000006 657.37 172.54 344.32 575.46 794.17 409.66 959.11 411.03 932.85 497.81 801.09 600.14 944.34 606.01
00035138 DELETE   651.16 169.36 342.60 579.02 786.83 408.51 953.54 409.29 927.11 496.87 794.56 600.57 938.73 606.03
00035139 00000008 640.10 164.80 349.05 583.72 780.04 406.06 947.87 408.36 919.23 498.63 788.07 598.92 933.54 604.19
00035140 00000009 629.03 162.28 354.94 587.62 773.36 400.66 941.91 405.26 913.98 498.44 782.97 599.99 926.79 606.16
00035141 00000010 615.06 159.65 366.33 585.31 766.74 398.14 936.97 402.76 907.36 498.11 778.15 599.21 922.77 604.18
00035142 00000011 615.48 164.25 369.40 575.11 764.32 403.51 942.26 402.75 908.59 500.59 769.42 598.91 924.24 601.86
00035143 00000012 611.86 164.07 370.52 575.48 757.85 404.61 937.43 401.39 903.47 502.01 762.52 600.44 918.50 601.83
00035144 00000013 607.10 168.67 372.71 571.47 753.80 405.82 932.50 401.24 899.34 503.24 759.03 602.65 913.28 603.01
00035145 00000014 602.74 164.67 374.68 575.63 751.57 405.52 928.52 399.04 897.56 503.15 764.22 607.14 910.29 605.35
00035146 00000015 604.00 159.11 373.07 581.49 752.44 403.51 926.14 395.59 898.57 498.58 771.13 607.99 912.30 604.53
00035147 00000016 604.33 155.92 370.97 584.38 749.44 399.21 924.44 392.77 896.92 495.22 770.68 606.32 911.74 603.93
00035148 00000017 602.07 157.79 370.53 583.71 747.74 399.32 922.72 393.69 895.75 497.31 767.67 607.42 907.88 605.80
00035149 00000018 601.21 158.88 369.71 583.55 746.34 400.01 920.88 394.50 893.35 498.71 765.66 607.90 905.98 606.65
00035150 00000019 599.19 158.73 369.59 580.79 743.57 401.40 918.62 396.61 889.22 499.19 762.57 607.08 903.23 606.34
00035151 00000020 594.45 159.22 372.02 583.22 741.69 402.15 915.60 398.23 887.41 499.22 760.03 607.74 900.77 607.53
00035152 00000021 592.49 157.52 373.13 583.96 739.46 403.76 914.95 397.10 887.83 500.95 756.63 608.32 900.78 605.96
00035153 00000022 591.51 157.15 373.93 584.41 736.80 404.21 913.42 397.79 884.08 502.36 750.84 607.00 898.90 604.96
00035154 00000023 592.74 159.57 371.33 580.26 735.97 403.93 911.07 398.93 879.78 502.25 748.06 605.10 894.69 604.32
00035155 00000024 590.97 157.12 373.38 582.76 734.57 405.19 910.94 398.58 877.97 501.95 751.69 607.28 896.76 604.70
00035156 00000025 590.13 156.64 374.18 587.31 734.56 405.42 910.12 399.18 877.76 503.96 749.23 607.98 895.12 605.97
00035157 00000026 590.11 158.76 372.77 587.50 732.97 405.40 907.19 400.95 874.79 503.95 745.90 608.62 891.71 608.41
00035158 00000027 590.60 161.93 370.36 585.97 731.35 406.44 904.65 402.71 871.63 502.64 743.13 607.70 890.10 608.42
00035159 00000028 590.81 162.39 369.58 586.07 730.00 407.84 903.28 403.69 870.26 503.06 740.37 607.57 889.22 608.11
00035160 00000029 590.43 161.57 369.24 586.35 730.38 407.53 903.46 403.52 870.45 502.98 740.10 606.58 888.96 607.12
00035161 00000030 590.09 161.93 369.22 584.82 731.01 408.12 903.79 402.83 871.79 503.58 740.70 606.73 888.67 606.13
00035162 00000031 588.81 160.95 370.33 584.93 732.25 409.11 904.94 402.59 874.50 504.47 742.48 607.09 890.60 605.29
00035163 00000032 589.96 160.32 369.22 583.88 733.40 409.97 906.00 402.37 876.91 504.08 745.17 607.93 891.97 605.11
00035164 00000033 589.48 160.97 368.21 583.29 732.84 410.65 904.51 402.09 876.05 504.36 746.28 608.84 891.53 605.07
00035165 00000034 588.98 162.82 367.39 582.04 730.67 410.47 902.55 402.08 872.89 503.79 744.99 608.96 890.17 605.13
00035166 00000035 587.93 162.79 366.89 583.13 729.14 409.87 899.60 402.10 869.52 504.68 744.90 609.96 887.71 606.34
00035167 00000036 589.65 161.92 364.97 585.10 727.60 410.23 897.77 402.61 865.81 506.13 747.29 612.53 886.98 608.80
00035168 00000037 584.03 161.60 369.29 590.14 725.44 409.76 894.55 403.37 863.07 505.43 749.26 615.81 884.18 612.66
00035169 00000038 582.14 159.82 370.52 591.47 724.50 409.99 895.79 401.30 864.57 505.49 752.37 618.09 887.13 612.96
00035170 00000039 584.09 158.88 370.25 589.39 725.49 409.56 897.34 401.06 864.47 505.61 754.48 617.54 888.55 612.61
00035171 00000040 584.59 160.01 370.25 587.56 725.99 410.22 897.84 401.09 864.88 505.83 753.78 616.66 889.03 611.06
00035172 00000041 586.68 161.10 368.73 585.53 726.17 410.98 899.18 402.08 865.95 506.09 753.50 616.92 890.94 611.79
00035173 00000042 586.48 161.47 369.32 586.03 726.14 411.58 899.15 402.52 866.08 506.29 753.13 616.63 891.41 611.51
00035174 00000043 588.25 161.53 367.61 585.47 725.65 412.10 898.86 404.79 863.57 507.81 751.28 616.16 890.36 612.47
00035175 00000044 586.97 161.19 368.59 586.50 724.64 412.96 897.56 405.65 862.04 508.94 749.23 615.78 888.52 612.04
00035176 00000045 589.45 163.46 365.61 582.72 724.21 415.16 896.79 407.54 859.80 511.62 747.25 615.80 887.42 611.85
00035177 00000046 589.35 164.85 364.69 581.47 722.95 416.58 895.76 409.43 857.66 511.72 744.60 615.16 886.05 611.95
00035178 00000047 587.30 164.77 366.69 581.77 722.48 417.07 895.02 410.36 856.20 512.16 744.59 615.74 885.07 612.78
00035179 00000048 586.71 165.34 366.76 581.43 722.19 417.58 894.77 410.64 856.28 513.06 743.98 615.63 884.97 612.48
00035180 00000049 586.06 164.63 367.40 582.22 722.16 417.65 894.86 410.70 856.29 513.29 744.07 615.88 884.87 612.70
00035181 00000050 586.24 165.01 367.01 581.81 722.15 417.58 894.84 410.50 856.32 513.46 744.28 616.19 884.65 612.88
00035182 00000051 586.16 164.68 366.94 582.39 722.16 417.00 894.77 409.79 856.34 513.39 744.17 616.04 884.15 612.58
00035183 00000052 585.41 164.60 366.30 583.07 721.57 416.08 893.34 408.41 856.22 511.85 745.82 616.99 883.59 613.13
00035184 00000053 584.13 162.67 366.02 588.77 721.64 415.16 889.38 405.67 855.42 511.44 753.14 622.86 880.87 616.88
00035185 00000054 583.37 157.95 366.57 593.86 720.89 412.29 889.39 401.91 855.19 508.84 756.04 624.06 881.84 617.15
00035186 00000055 582.01 153.52 367.11 599.01 720.22 408.26 887.99 398.41 856.19 507.50 759.02 624.34 882.44 617.65
00035187 00000056 581.46 151.15 366.57 601.04 719.22 406.83 887.66 398.81 855.56 504.53 757.81 622.42 882.93 617.06
00035188 00000057 585.00 151.45 363.93 598.35 721.78 406.07 892.22 397.23 860.44 502.29 760.61 620.70 888.03 614.90
00035189 00000058 585.42 152.04 366.53 592.82 729.15 408.24 901.19 398.09 872.24 501.02 770.15 619.51 898.26 612.44
00035190 00000059 584.68 150.61 369.77 595.40 736.18 411.77 904.82 395.52 887.56 498.33 779.55 619.66 908.11 607.59
00035191 00000060 590.48 157.77 363.42 586.62 733.74 415.16 900.65 395.13 884.85 497.47 773.78 618.08 906.04 603.31
00035192 00000061 590.52 162.18 355.76 586.99 727.52 418.43 894.11 396.51 878.45 502.19 757.33 617.39 897.19 601.59
00035193 DELETE   591.40 166.15 354.68 580.73 729.00 417.71 898.38 396.97 882.37 502.25 749.50 611.33 897.82 597.38
00035194 00000063 596.16 162.63 355.03 581.12 740.97 417.67 905.66 393.09 897.51 498.63 759.89 609.75 904.19 593.23
00035195 DELETE   595.31 156.75 358.01 583.88 748.51 418.77 908.93 392.23 904.62 494.41 774.27 611.22 911.05 592.73
00035196 00000065 596.70 156.28 357.61 584.89 748.27 421.50 908.72 393.11 902.39 496.04 777.64 614.43 912.60 594.20
00035197 00000066 594.38 160.25 358.32 580.29 743.74 424.09 907.97 396.52 898.92 496.09 776.16 616.70 912.74 596.42
00035198 DELETE   595.75 165.67 352.85 576.71 739.81 425.90 902.83 397.78 893.24 501.71 771.24 619.10 907.62 598.52
00035199 DELETE   590.77 168.31 353.75 582.29 732.87 427.58 896.61 400.59 887.79 504.59 762.10 621.95 901.56 601.88
00035200 00000069 583.28 167.62 359.95 581.39 727.84 427.33 893.10 403.22 879.16 507.93 763.96 625.41 896.80 606.65
00035201 DELETE   579.37 164.69 363.45 583.43 722.70 427.41 889.12 402.26 870.67 512.96 766.95 631.13 893.69 610.83
00035202 00000071 577.52 165.24 364.56 582.76 718.58 428.40 887.84 402.19 863.76 518.42 768.38 636.49 893.23 615.03
00035203 DELETE   576.53 169.03 364.84 584.91 713.50 432.18 885.21 404.63 857.62 523.16 766.22 642.92 890.83 620.64
00035204 DELETE   575.57 172.92 363.97 587.24 708.86 435.21 882.51 408.65 850.55 530.67 757.42 646.17 884.73 624.93
00035205 00000074 572.28 178.65 366.80 588.17 708.67 437.28 882.92 415.48 849.53 533.17 750.07 645.99 881.20 628.81
00035206 00000075 572.67 178.87 369.11 591.23 713.36 440.16 886.83 418.63 857.12 532.22 745.88 644.14 882.27 627.74
00035207 00000076 577.37 178.85 372.28 590.30 722.14 432.80 893.66 418.91 866.74 527.41 749.57 638.50 882.47 629.34
00035208 00000077 576.53 178.56 368.50 582.45 719.40 438.30 891.66 416.44 860.49 533.68 752.66 641.40 885.47 624.33
00035209 00000078 577.54 177.08 367.03 584.07 719.03 436.90 891.19 415.33 861.15 531.82 753.34 641.62 885.39 624.72
00035210 00000079 579.89 176.58 364.06 584.59 717.92 436.36 890.42 415.63 859.12 531.46 752.89 642.02 884.23 625.58
00035211 00000080 578.41 177.07 364.21 586.73 716.59 436.38 888.61 415.67 858.04 530.31 753.06 643.14 883.44 626.74
00035212 00000081 579.51 180.64 362.19 585.31 715.33 438.77 887.68 418.41 858.17 530.88 747.62 642.26 882.20 626.59
00035213 00000082 577.38 180.31 362.67 586.93 714.66 440.64 887.10 419.15 859.51 532.13 742.46 641.06 880.84 625.23
00035214 00000083 576.00 180.30 362.77 586.25 713.75 440.94 887.35 420.16 858.74 532.65 739.18 639.26 879.62 624.27
00035215 00000084 577.00 180.01 360.39 588.00 712.93 440.51 887.28 419.99 858.49 533.09 735.34 638.16 879.04 623.88
00035216 00000085 577.78 181.29 358.47 585.55 713.35 440.85 886.55 419.92 858.35 533.33 734.78 636.71 878.77 622.07
00035217 00000086 577.73 181.42 359.35 582.33 714.54 441.25 885.34 420.77 855.97 533.93 739.25 636.98 878.45 622.05
00035218 00000087 576.01 179.84 359.82 583.50 714.07 440.60 883.81 419.70 853.55 535.42 742.36 638.18 877.59 622.41
00035219 00000088 572.95 178.62 361.69 587.88 711.81 439.18 881.99 416.96 852.59 535.35 741.92 639.51 876.68 622.79
00035220 00000089 574.20 178.41 358.00 589.95 709.58 438.70 879.96 418.28 851.64 533.80 737.63 638.62 874.45 623.69
00035221 00000090 570.27 176.48 359.83 589.50 708.34 438.14 879.91 416.61 855.11 532.09 732.79 635.53 874.61 620.07
00035222 00000091 573.45 178.71 356.77 582.42 711.26 436.94 882.88 417.62 857.19 530.68 731.91 631.40 874.50 617.99
00035223 00000092 573.96 177.89 357.02 580.81 715.86 435.73 885.89 418.32 860.32 529.32 731.64 627.34 874.62 615.63
00035224 00000093 575.01 177.31 357.07 581.28 716.62 434.61 886.17 418.01 861.01 527.85 730.69 625.96 874.41 615.04
00035225 00000094 570.53 175.67 358.50 584.97 713.66 433.67 882.01 417.48 857.71 527.12 734.74 629.90 871.76 618.74
00035226 00000095 569.11 175.70 358.58 587.99 710.21 433.18 879.20 418.55 851.24 529.79 734.78 631.81 869.21 621.56
00035227 00000096 567.76 176.03 358.36 589.48 709.08 433.88 877.99 417.77 850.36 531.95 734.64 633.60 868.54 622.14
00035228 00000097 564.00 174.80 361.57 590.33 707.57 432.98 877.01 418.55 849.00 530.15 735.31 633.75 868.71 623.52
00035229 00000098 561.29 175.22 363.52 590.07 707.35 432.11 876.28 418.38 848.03 530.26 735.16 634.28 866.94 624.46
00035230 00000099 560.84 174.20 365.28 591.68 707.15 432.86 877.78 416.67 849.72 531.97 733.82 634.79 867.43 623.03
00035231 00000100 557.71 173.14 368.88 594.95 706.33 432.46 877.70 416.61 849.24 532.24 731.40 634.74 866.82 623.62
00035232 00000101 559.86 172.75 367.55 600.00 705.75 430.63 877.94 415.81 850.83 530.21 729.13 636.64 866.97 626.50
00035233 00000102 562.62 173.59 364.64 602.72 705.81 432.14 876.98 415.10 854.69 528.26 729.37 638.43 868.93 626.83
00035234 00000103 564.92 173.59 364.44 596.98 707.18 433.30 879.47 415.57 855.02 529.06 732.74 638.11 871.20 625.91
00035235 00000104 571.06 175.95 361.73 590.96 709.38 433.97 880.94 417.70 851.45 529.57 739.88 638.83 873.39 627.22
00035236 00000105 570.62 174.23 365.12 589.37 710.14 433.24 882.96 414.51 851.93 529.34 745.03 637.91 878.76 623.76
00035237 00000106 570.01 173.68 367.88 589.81 710.54 431.93 883.70 413.01 852.41 528.00 748.95 639.38 880.78 624.61
00035238 00000107 573.39 174.51 365.16 590.45 712.52 431.33 884.58 413.70 853.93 527.38 751.59 642.18 880.05 628.56
00035239 00000108 570.84 172.27 368.68 591.03 714.86 431.70 885.57 413.87 855.88 527.67 755.01 642.12 881.15 628.12
00035240 00000109 574.60 170.78 367.00 585.85 718.89 431.01 889.14 412.06 860.43 526.94 756.60 639.02 883.50 624.04
00035241 00000110 576.45 170.85 367.03 584.27 721.39 431.47 892.03 411.30 864.26 527.11 756.82 638.35 885.40 622.72
00035242 00000111 577.16 172.00 366.76 585.43 721.91 432.69 892.43 411.33 866.78 528.41 752.60 637.60 884.55 621.35
00035243 00000112 577.74 174.11 366.44 582.29 721.45 434.02 892.75 413.26 865.84 530.46 746.83 634.47 883.64 619.03
00035244 00000113 579.21 175.78 365.48 582.20 721.36 435.88 892.70 413.07 866.37 531.23 747.62 636.93 884.24 619.81
00035245 00000114 580.35 178.09 364.60 579.51 720.40 434.24 893.22 413.05 865.65 530.70 749.35 636.86 886.79 620.74
CROP_BBOX: 326 0 1304 978
