Video ID: 	xId_x0WdB3I
H: 	1080
W: 	1920
FPS: 	25.0

FRAME INDEX X0 Y0 W H [Landmarks (5 Points)]

00004575 00000000 749.93 183.04 354.81 514.31 798.71 385.60 936.86 395.18 819.52 478.89 804.76 552.07 940.73 559.87
00004576 00000001 751.14 181.73 354.89 516.44 802.41 385.72 941.92 396.61 824.34 476.60 805.81 545.98 946.79 554.69
00004577 00000002 751.42 185.01 362.16 520.02 809.30 386.61 953.77 395.24 838.53 473.46 809.81 545.42 957.04 552.58
00004578 00000003 757.17 184.46 364.77 523.54 818.00 390.75 967.63 397.41 855.60 478.45 818.60 548.41 968.68 554.11
00004579 00000004 762.07 187.88 363.11 521.41 825.42 391.45 977.69 399.06 867.31 478.98 826.34 550.60 976.44 557.43
00004580 DELETE   761.57 186.84 363.13 523.03 827.11 391.93 979.80 400.85 870.72 480.27 827.96 551.33 978.17 559.18
00004581 00000006 760.81 186.79 362.03 520.89 825.86 391.67 977.99 400.94 868.32 478.72 825.38 550.46 973.69 558.75
00004582 00000007 759.92 186.01 360.88 517.08 823.06 390.59 973.10 401.42 860.87 478.84 820.02 552.06 963.29 561.89
00004583 00000008 754.24 185.76 361.28 511.87 818.97 387.62 968.62 399.65 855.61 476.90 813.47 549.72 956.01 560.78
00004584 00000009 749.59 188.59 358.35 506.38 813.36 383.94 961.11 396.02 849.24 475.27 808.45 550.31 944.37 562.10
00004585 00000010 747.77 189.10 351.75 504.29 810.66 382.01 956.63 395.51 847.59 474.94 806.90 552.80 936.55 566.27
00004586 00000011 746.30 188.93 347.56 505.89 807.61 379.29 950.42 393.53 842.86 475.47 805.84 555.29 929.28 569.56
00004587 00000012 745.15 188.48 343.37 502.95 803.96 380.16 945.95 393.14 839.54 475.63 804.85 555.93 925.83 569.01
00004588 00000013 741.57 188.73 341.05 499.75 797.56 381.71 938.88 392.92 832.37 477.37 800.51 557.70 920.53 568.88
00004589 00000014 734.62 189.44 341.57 500.90 788.07 387.80 927.27 396.11 821.94 480.75 797.31 562.33 915.14 570.49
00004590 00000015 733.89 191.77 340.14 500.17 780.26 391.52 921.19 392.69 809.96 482.96 795.66 569.18 912.11 570.83
00004591 00000016 726.64 186.79 337.93 506.21 772.93 389.49 912.80 389.65 802.50 481.83 793.84 568.70 908.65 569.51
00004592 00000017 716.60 186.04 341.05 507.79 765.54 388.21 905.71 387.92 795.53 478.09 788.69 564.73 906.59 564.81
00004593 00000018 711.57 184.02 340.54 509.29 756.91 389.47 898.50 384.77 788.35 475.70 783.44 563.98 904.64 560.47
00004594 00000019 706.42 189.50 344.56 508.62 755.99 393.12 890.40 384.08 784.82 476.64 776.29 565.01 898.23 558.45
00004595 00000020 704.55 188.90 342.63 506.29 751.39 395.30 884.13 385.70 777.53 476.17 768.15 565.00 887.71 558.32
00004596 00000021 701.36 188.77 338.29 499.10 748.49 393.70 880.53 384.08 770.14 475.66 769.77 562.47 881.77 556.27
00004597 00000022 700.90 184.67 342.06 504.57 734.59 396.72 874.13 382.91 760.52 474.64 760.38 568.76 878.59 559.33
00004598 00000023 698.22 183.96 340.95 504.37 731.53 394.47 867.21 379.13 753.57 469.73 758.11 568.30 869.07 557.84
00004599 00000024 695.01 178.27 336.97 503.95 726.22 392.84 862.63 373.27 749.65 464.55 754.44 566.85 863.35 553.35
00004600 00000025 690.49 177.40 340.21 503.97 722.44 393.25 860.85 370.93 747.71 462.84 752.86 566.34 862.82 550.70
00004601 00000026 690.55 177.32 339.90 503.25 722.04 395.83 862.15 372.54 748.66 462.94 752.39 567.22 864.20 550.83
00004602 00000027 690.28 177.97 341.04 504.39 720.99 396.71 862.64 372.69 748.34 464.83 752.84 569.21 866.88 552.09
00004603 00000028 689.50 177.09 342.42 510.50 721.37 396.53 863.41 372.81 749.38 464.91 752.99 570.09 868.04 553.03
00004604 00000029 690.99 176.62 343.39 513.93 723.01 397.52 864.36 375.05 749.38 466.09 754.83 571.14 868.99 554.88
00004605 00000030 693.64 178.97 345.48 515.24 728.26 396.83 869.44 378.49 755.62 471.53 758.63 570.79 875.58 557.71
00004606 00000031 698.67 184.23 343.80 505.92 734.65 396.84 876.76 382.77 762.70 474.35 759.35 570.85 878.64 561.37
00004607 00000032 702.92 182.01 343.80 508.79 741.65 395.94 885.48 385.86 771.43 478.50 763.10 570.29 886.41 563.60
00004608 00000033 705.15 180.03 344.27 512.07 748.15 392.45 892.85 384.84 779.75 477.72 770.90 569.20 893.59 564.05
00004609 00000034 709.45 178.02 345.24 514.46 755.87 388.55 900.73 382.56 788.11 472.42 780.09 569.58 897.27 565.53
00004610 00000035 718.25 178.97 344.48 513.44 763.36 390.39 906.03 383.36 793.90 471.17 787.46 571.40 901.31 566.33
00004611 DELETE   721.40 183.17 345.99 509.68 768.62 391.69 911.59 385.82 798.00 470.26 790.22 568.72 907.32 564.42
00004612 00000037 724.79 179.13 344.21 512.10 770.28 385.90 914.59 381.99 798.39 470.68 788.91 565.00 910.00 562.51
00004613 00000038 728.60 178.45 342.43 512.11 771.66 383.56 916.47 381.60 796.33 471.86 784.67 564.14 910.76 563.30
00004614 00000039 729.00 176.79 342.23 513.55 773.98 379.60 918.57 378.50 796.84 468.40 784.48 560.58 910.40 560.44
00004615 00000040 727.71 173.73 346.00 522.77 774.86 378.23 918.02 382.58 799.41 467.29 781.38 555.49 904.73 559.78
00004616 00000041 730.41 174.86 345.01 522.61 776.67 376.80 919.16 381.50 799.53 467.66 783.38 557.26 905.35 561.83
00004617 00000042 735.72 177.79 341.19 517.62 781.10 376.94 919.13 382.53 805.09 466.12 794.12 557.67 912.97 563.17
00004618 00000043 737.42 177.21 345.08 516.75 783.90 375.99 924.16 383.90 809.50 467.78 793.40 556.29 916.46 563.87
00004619 00000044 738.45 176.95 350.72 511.52 785.47 375.10 928.51 383.41 813.51 468.16 793.31 553.10 920.79 560.85
00004620 00000045 741.93 174.38 351.17 509.64 789.77 372.55 933.41 380.53 817.95 466.36 796.43 548.95 925.07 556.36
00004621 00000046 744.58 170.92 353.18 514.20 793.37 371.68 936.91 378.55 821.51 462.41 800.60 546.38 929.58 553.00
00004622 00000047 750.64 171.21 351.27 515.71 800.40 369.84 942.01 376.83 826.22 462.25 806.92 544.88 934.26 552.11
00004623 00000048 753.61 169.56 354.42 515.96 802.97 369.84 946.24 374.95 828.96 462.08 810.26 543.32 940.65 548.88
00004624 00000049 757.80 164.98 354.87 519.07 806.17 366.81 948.41 372.01 832.42 462.06 814.05 542.06 944.42 547.46
00004625 00000050 761.32 160.98 354.63 519.78 809.53 363.90 954.31 369.52 839.01 461.25 817.21 540.10 948.36 545.86
00004626 00000051 765.39 160.10 352.84 518.07 816.22 354.73 964.69 371.53 842.01 460.81 819.41 534.72 942.56 547.33
00004627 00000052 765.52 158.33 353.21 519.17 817.10 351.65 965.87 369.61 843.43 458.78 820.11 533.09 942.81 546.65
00004628 00000053 766.50 152.84 351.49 522.61 819.00 349.44 965.76 368.72 844.90 457.75 820.48 529.70 942.53 544.45
00004629 00000054 768.10 150.09 351.49 523.63 819.87 347.48 966.57 367.98 843.95 456.27 819.98 527.80 942.58 543.72
00004630 00000055 768.69 149.94 351.41 523.21 821.32 345.40 968.59 366.54 845.13 455.14 821.81 527.70 943.14 544.21
00004631 00000056 769.87 146.99 352.02 524.48 821.92 344.43 969.65 365.31 843.94 453.89 822.78 527.63 944.19 544.00
00004632 00000057 769.20 149.03 352.29 526.54 822.01 343.48 969.29 363.84 843.36 452.34 823.82 529.23 942.50 545.12
00004633 00000058 764.91 147.39 354.86 528.30 819.51 343.78 966.43 363.41 840.16 451.62 822.39 529.28 940.99 544.47
00004634 00000059 761.92 150.23 355.21 527.27 815.36 345.17 961.20 361.62 836.00 450.33 821.30 531.38 937.74 543.77
00004635 00000060 759.83 150.03 355.56 529.33 810.71 346.43 955.42 358.99 829.61 447.62 818.88 534.01 934.31 542.99
00004636 00000061 756.96 146.03 354.66 531.69 805.46 346.71 949.05 354.51 824.20 443.93 818.58 536.88 927.54 542.00
00004637 00000062 749.88 131.13 356.48 546.60 795.04 345.88 945.12 353.40 822.31 447.55 807.63 538.35 925.87 543.87
00004638 00000063 742.62 135.44 355.18 541.55 786.04 345.92 935.46 354.36 810.91 448.64 796.87 538.63 919.59 544.77
00004639 00000064 734.46 134.67 354.22 544.35 776.38 347.03 927.89 357.81 798.10 450.97 786.15 540.95 910.02 549.11
00004640 00000065 726.59 139.81 356.00 544.07 766.78 347.93 922.64 359.39 789.72 455.46 777.58 543.72 905.07 552.44
00004641 00000066 722.31 147.02 357.81 543.25 764.32 352.10 918.21 364.31 785.59 457.98 772.21 545.73 901.21 554.97
00004642 00000067 719.60 151.88 358.84 543.29 762.65 355.75 915.59 368.25 782.75 459.18 768.35 548.03 897.24 557.60
00004643 00000068 718.43 155.31 358.21 544.35 762.26 356.92 915.10 371.98 779.90 461.73 764.98 548.36 896.82 559.96
00004644 00000069 716.33 158.50 358.91 544.86 762.36 358.88 915.27 375.62 779.15 463.55 763.90 547.94 897.92 560.92
00004645 00000070 712.69 160.12 358.68 545.42 760.55 359.28 915.63 378.07 778.72 463.69 760.66 546.75 897.79 561.37
00004646 00000071 711.53 163.08 359.28 544.56 760.66 361.50 916.75 380.75 780.26 466.27 760.32 548.26 898.70 563.23
00004647 00000072 715.08 168.03 356.12 539.09 768.19 362.65 912.09 381.87 788.86 469.47 772.29 548.93 903.28 563.71
00004648 00000073 715.33 168.70 355.26 539.85 769.44 364.28 913.11 383.22 791.36 470.82 774.27 551.46 905.24 566.08
00004649 00000074 715.03 169.99 354.74 539.38 769.67 365.74 913.45 383.45 792.67 471.53 776.63 553.57 907.05 567.15
00004650 00000075 715.46 171.60 354.25 536.58 771.18 368.13 916.80 384.41 798.02 472.81 778.98 554.51 908.97 567.07
00004651 00000076 717.78 172.67 353.29 533.60 774.00 368.91 919.90 384.81 803.08 473.62 782.25 554.75 911.53 567.19
00004652 00000077 720.46 173.08 352.23 531.95 777.01 370.87 923.99 386.40 807.88 474.49 784.94 554.99 915.51 567.35
00004653 00000078 722.55 172.44 353.18 531.43 779.40 369.91 926.79 384.50 811.77 472.73 787.45 553.47 918.54 565.37
00004654 00000079 724.62 172.46 354.07 530.07 781.83 368.52 929.21 382.90 814.56 469.66 789.25 549.46 921.79 561.32
00004655 00000080 724.02 171.51 353.75 528.46 780.27 365.77 927.39 378.80 813.84 466.60 789.10 547.59 920.43 558.35
00004656 00000081 720.71 168.33 353.59 526.13 775.67 364.27 923.18 376.16 809.47 465.88 784.00 547.59 913.29 557.28
00004657 00000082 712.63 161.83 357.56 531.71 762.79 366.99 918.22 377.57 793.11 467.16 769.93 550.33 900.29 558.53
00004658 00000083 709.28 165.05 355.97 528.18 758.72 373.10 910.44 379.85 787.87 465.48 768.61 552.12 892.02 557.04
00004659 00000084 704.39 162.14 357.26 531.90 754.36 368.00 903.56 373.17 781.01 465.67 764.30 556.81 885.98 562.50
00004660 00000085 700.64 160.08 358.54 533.13 746.02 367.97 894.66 368.40 772.64 461.27 759.21 558.83 879.16 560.99
00004661 00000086 697.25 160.78 358.65 533.48 738.18 371.98 882.91 365.84 760.45 458.63 755.29 562.51 870.61 559.52
00004662 00000087 692.87 158.81 356.45 543.00 730.66 380.99 877.23 368.82 753.89 460.86 753.13 569.07 869.48 561.23
00004663 00000088 689.30 164.32 355.13 546.07 726.20 387.58 871.02 375.34 749.54 468.44 751.58 574.81 868.41 566.62
00004664 00000089 686.65 175.28 355.24 535.39 725.62 389.76 863.62 383.27 745.72 477.53 745.04 577.15 867.05 573.40
00004665 00000090 685.32 175.35 353.95 531.52 717.51 392.07 867.53 385.55 745.18 480.24 742.01 584.64 854.65 581.04
00004666 00000091 685.41 181.01 352.42 525.35 717.96 394.81 866.85 390.29 746.55 484.44 741.32 584.53 854.15 582.75
00004667 00000092 685.80 182.63 350.76 525.72 719.52 398.11 868.30 394.92 748.54 487.26 741.20 585.17 855.42 584.37
00004668 00000093 684.15 184.39 352.80 529.27 720.39 400.35 868.56 397.17 750.43 490.58 740.80 585.99 857.51 584.92
00004669 00000094 684.68 187.59 351.74 527.96 722.89 405.00 869.72 400.03 753.51 493.99 743.91 586.92 863.10 584.34
00004670 00000095 681.21 193.17 359.84 520.75 731.56 404.77 873.42 402.48 759.03 496.14 749.14 585.66 871.96 585.34
00004671 00000096 680.26 196.03 361.90 518.95 732.94 404.02 876.76 401.99 763.25 498.37 751.51 586.66 874.42 586.67
00004672 00000097 679.72 197.40 363.18 518.24 735.71 405.09 881.08 402.62 769.03 500.92 755.18 587.60 878.15 587.27
00004673 00000098 679.99 197.89 364.35 515.07 735.93 407.99 883.97 405.23 773.08 505.14 757.71 589.14 882.74 588.19
00004674 00000099 680.71 203.07 366.57 511.03 739.07 410.94 886.55 408.20 777.30 508.16 761.37 590.25 885.30 589.49
00004675 00000100 686.27 206.43 360.55 520.90 746.20 414.07 892.77 416.13 776.54 499.90 762.10 590.14 879.65 591.11
00004676 00000101 687.57 207.66 359.66 522.88 748.99 416.03 895.12 418.12 780.05 499.79 765.14 591.89 879.17 592.72
00004677 00000102 687.88 209.50 359.61 528.13 750.42 416.68 896.42 419.59 780.77 500.80 765.52 593.71 879.10 595.27
00004678 00000103 690.13 211.97 358.14 527.92 752.38 417.48 898.20 422.34 781.61 504.30 767.09 594.76 880.92 597.88
00004679 00000104 694.81 209.14 355.43 530.75 754.03 413.23 899.27 422.17 786.91 513.96 772.34 597.78 891.91 604.30
00004680 00000105 695.74 213.57 355.25 525.03 754.06 417.78 902.77 427.33 786.25 516.29 769.45 595.42 888.48 602.05
00004681 00000106 697.07 212.95 355.14 522.25 753.30 419.08 903.22 429.26 786.32 518.94 769.04 596.38 889.29 603.52
00004682 00000107 698.18 212.90 352.25 521.74 754.04 418.75 902.25 427.62 785.36 516.91 770.14 595.67 888.83 601.63
00004683 00000108 699.50 208.25 355.96 526.25 755.48 415.72 898.88 422.96 785.51 515.32 776.16 596.80 894.90 601.73
00004684 00000109 698.66 207.11 357.67 528.82 755.18 412.79 898.75 418.87 784.10 512.56 776.16 596.90 894.87 600.86
00004685 00000110 700.84 203.89 357.23 530.35 756.60 412.68 899.96 416.93 784.22 509.40 776.66 596.02 895.76 598.54
00004686 00000111 706.32 201.82 354.41 520.16 756.43 414.13 901.18 417.06 784.07 509.59 775.63 594.42 895.84 596.99
00004687 00000112 712.24 202.16 350.09 511.72 757.59 414.80 901.64 416.10 785.74 509.42 777.57 594.22 896.55 596.08
00004688 00000113 713.05 201.72 350.78 512.77 760.18 415.05 903.45 415.65 788.25 507.75 781.04 594.82 897.34 596.19
00004689 00000114 713.32 200.96 352.57 515.91 761.14 414.87 903.82 414.94 788.32 506.75 782.28 594.66 898.22 595.41
00004690 00000115 715.80 201.72 352.53 514.81 763.92 416.80 905.79 415.81 790.21 508.70 788.04 597.21 900.51 597.05
00004691 00000116 719.42 203.13 352.34 523.51 766.60 416.67 910.01 417.17 792.33 512.01 790.06 600.97 902.78 601.44
00004692 00000117 721.54 205.20 353.36 526.46 769.72 417.56 912.87 416.62 794.92 512.67 794.46 603.85 906.80 602.78
00004693 00000118 723.89 204.89 353.41 527.38 772.27 417.48 916.15 415.99 798.04 511.77 797.48 605.26 908.58 603.69
00004694 00000119 725.16 206.20 351.75 526.56 774.99 417.47 918.73 416.25 802.33 510.73 798.92 605.84 909.61 604.75
00004695 00000120 724.37 209.82 353.59 524.77 775.11 418.92 921.89 419.17 805.98 514.23 799.30 609.52 908.37 609.72
00004696 00000121 722.39 212.79 356.23 523.58 774.46 422.00 923.31 422.90 807.96 516.42 798.45 611.22 909.07 611.84
00004697 00000122 723.22 215.39 354.80 519.90 774.92 422.69 924.18 424.31 810.44 517.97 798.76 611.82 908.82 613.12
00004698 00000123 722.37 216.75 355.74 521.54 774.59 423.20 923.68 425.56 811.09 520.11 798.12 612.29 911.13 613.71
00004699 00000124 723.77 220.43 353.76 517.12 774.16 424.72 924.00 427.93 811.33 523.28 797.05 612.53 911.91 614.61
00004700 00000125 723.30 224.50 354.17 515.13 772.94 427.67 925.21 430.23 812.42 525.94 795.47 614.26 913.59 615.69
00004701 00000126 723.53 227.87 355.31 515.89 775.36 428.95 928.97 433.06 816.18 528.34 796.84 615.12 915.71 617.61
00004702 00000127 724.29 230.64 356.04 520.73 777.95 431.88 930.46 434.87 817.64 531.41 799.25 618.37 918.68 619.48
00004703 00000128 726.14 233.69 357.68 526.53 779.45 436.42 931.83 435.55 818.75 534.41 800.83 622.23 925.71 619.40
00004704 00000129 728.63 241.40 354.49 517.94 782.60 438.20 929.37 442.32 824.59 534.39 802.01 614.19 929.21 618.02
00004705 00000130 730.40 245.21 353.07 514.23 785.14 440.38 931.07 444.71 827.10 537.26 804.05 614.94 931.33 619.19
00004706 00000131 730.84 247.82 351.70 513.06 786.20 441.19 931.58 445.99 827.66 538.49 804.22 614.97 932.17 619.64
00004707 00000132 729.82 247.96 351.14 512.11 784.58 440.37 929.33 445.62 825.40 538.73 803.05 613.46 931.53 618.25
00004708 00000133 728.49 247.41 351.16 512.61 782.64 439.77 926.92 444.94 822.81 538.08 802.09 612.08 930.66 616.58
00004709 00000134 726.56 240.55 354.81 517.71 778.28 440.65 929.07 439.66 817.86 540.58 799.83 618.77 932.00 615.09
00004710 00000135 723.65 236.82 356.85 518.69 776.31 436.18 927.40 436.74 815.92 538.36 798.04 615.38 930.91 612.97
00004711 00000136 724.63 229.20 354.48 519.44 775.16 429.25 926.40 431.97 815.85 532.00 797.85 609.79 928.48 609.57
00004712 00000137 723.04 225.16 356.33 521.38 775.10 424.14 924.10 428.32 812.73 527.69 796.99 605.52 925.48 606.46
00004713 00000138 722.06 216.66 357.23 525.02 775.25 421.07 922.08 422.83 809.70 522.59 799.65 603.59 923.57 602.73
00004714 00000139 723.12 211.90 356.21 527.98 777.04 416.93 922.74 420.89 808.60 519.71 798.37 599.14 923.91 600.19
00004715 00000140 724.66 210.01 352.74 527.87 777.06 414.40 922.05 418.87 806.65 517.26 796.29 595.69 924.34 597.13
00004716 00000141 725.04 204.18 352.10 527.94 777.45 413.02 921.13 416.19 804.53 510.25 793.32 590.12 923.01 591.22
00004717 00000142 725.16 198.19 346.01 512.63 774.60 408.63 920.76 408.37 806.11 497.25 788.11 583.03 917.54 583.38
00004718 00000143 725.24 196.76 343.97 509.74 772.98 403.43 918.70 404.22 803.82 493.38 784.03 577.33 916.38 578.86
00004719 00000144 722.47 197.71 344.21 509.06 770.28 401.99 916.83 404.13 800.30 491.57 780.76 576.81 911.81 579.66
00004720 00000145 721.01 198.04 343.87 507.60 767.53 401.80 913.45 404.56 796.63 490.53 778.42 576.19 905.98 579.64
00004721 00000146 719.71 196.96 342.08 505.72 763.96 404.87 908.38 407.54 793.33 492.71 773.33 577.42 899.22 581.10
00004722 00000147 718.65 200.45 340.56 501.11 764.16 410.29 904.05 411.50 788.74 489.25 770.39 576.15 894.46 578.54
00004723 00000148 705.22 205.08 349.24 502.64 760.68 414.41 907.67 412.83 795.54 493.69 769.55 578.53 896.16 579.45
00004724 00000149 704.72 206.24 348.02 502.30 759.22 413.81 904.55 412.88 791.55 492.98 766.44 578.24 891.29 579.92
00004725 00000150 704.75 205.15 346.39 504.26 759.55 411.89 903.51 413.32 790.59 492.74 763.90 576.96 888.07 580.74
00004726 00000151 704.30 204.13 346.37 503.90 758.33 412.37 902.77 413.65 789.14 493.02 762.79 577.73 886.61 581.30
00004727 00000152 703.50 206.16 347.96 503.85 756.88 414.75 901.53 415.15 786.89 495.25 762.12 580.44 885.38 583.30
00004728 00000153 704.21 206.09 346.28 505.25 756.33 416.66 901.18 416.73 787.58 497.32 762.67 583.40 885.25 585.96
00004729 00000154 706.64 205.74 342.01 507.18 754.60 419.17 895.67 418.72 776.08 491.38 759.09 582.71 873.65 582.44
00004730 00000155 706.65 207.35 346.44 509.54 754.92 419.25 895.40 417.95 775.96 495.70 761.07 583.04 882.63 581.89
00004731 00000156 709.98 205.89 346.47 512.62 755.51 420.32 896.48 417.79 775.90 500.11 765.18 586.01 888.24 583.49
00004732 00000157 722.33 204.02 348.10 519.70 764.09 414.02 899.75 416.49 778.31 505.84 775.21 587.58 899.51 588.85
00004733 00000158 731.86 204.00 347.91 534.06 773.41 414.93 911.07 411.83 787.46 506.08 791.00 597.61 910.03 593.81
00004734 00000159 745.06 205.40 345.60 531.09 784.38 411.20 921.25 408.68 795.53 501.65 800.29 596.48 914.99 593.66
00004735 00000160 751.36 204.65 347.35 522.76 794.33 408.78 930.45 405.99 805.81 494.71 805.91 590.76 918.57 588.21
00004736 00000161 755.66 196.57 349.97 530.35 791.77 409.67 933.54 407.72 814.08 496.64 808.48 588.05 931.26 586.31
00004737 00000162 763.58 194.52 351.04 528.28 802.13 401.61 943.16 406.33 819.69 493.29 812.51 581.20 935.17 585.52
00004738 00000163 770.22 193.26 352.78 528.61 812.42 396.80 956.32 407.51 829.57 492.88 817.19 577.32 945.14 586.83
00004739 00000164 772.67 191.89 356.29 528.54 823.37 402.71 966.61 409.27 838.16 489.68 823.41 575.63 947.16 581.19
00004740 00000165 778.04 189.05 354.15 530.29 829.41 402.62 973.34 407.71 847.08 488.44 832.26 574.46 955.96 578.71
00004741 00000166 787.99 189.12 352.26 527.75 832.22 394.77 976.57 403.53 848.29 490.61 837.10 578.08 961.85 585.70
00004742 00000167 794.00 184.66 353.56 530.46 838.49 391.49 981.73 402.08 851.98 487.46 840.42 574.15 965.16 583.20
00004743 00000168 797.47 182.96 353.49 527.31 842.72 390.51 987.40 399.93 857.54 485.70 845.36 571.91 971.07 580.15
00004744 00000169 796.26 182.22 350.17 526.04 847.84 388.68 985.51 402.68 867.40 485.47 854.73 569.41 974.17 580.89
00004745 00000170 798.72 181.61 352.24 528.63 844.35 389.40 988.47 400.17 857.43 485.61 845.50 570.09 973.38 579.29
