Video ID: 	2zh-p3GZ5yg
H: 	1080
W: 	1920
FPS: 	29.97002997002997

FRAME INDEX X0 Y0 W H [Landmarks (5 Points)]

00008142 00000000 836.07 241.32 421.61 562.70 947.16 447.77 1134.31 453.88 1037.88 567.49 958.60 648.34 1120.62 653.28
00008143 DELETE   840.73 240.67 425.83 565.89 956.34 449.42 1142.29 453.29 1048.84 570.70 968.98 653.55 1126.67 656.38
00008144 00000002 846.14 240.95 428.14 567.26 967.15 453.84 1150.71 456.92 1059.70 573.07 978.62 653.79 1139.26 655.86
00008145 00000003 851.57 240.03 429.09 572.48 977.28 455.49 1160.35 460.24 1068.07 576.25 984.18 652.10 1151.02 655.54
00008146 00000004 858.42 238.55 426.37 574.92 989.09 453.15 1170.07 461.69 1078.60 578.23 990.73 651.56 1154.66 658.29
00008147 00000005 864.82 237.83 426.43 575.52 998.57 450.86 1177.05 461.50 1087.09 580.38 997.77 651.42 1158.46 659.78
00008148 00000006 872.10 236.10 425.19 578.09 1008.72 451.62 1187.75 465.47 1097.87 584.11 1002.18 651.15 1166.42 662.30
00008149 00000007 877.64 244.18 428.25 568.88 1010.67 455.60 1196.38 470.23 1102.40 584.58 1005.82 652.06 1170.04 664.63
00008150 00000008 879.41 248.92 429.46 564.35 1015.08 459.70 1200.56 473.70 1106.90 587.04 1007.56 653.35 1175.05 665.62
00008151 00000009 882.04 248.47 429.11 565.84 1016.65 459.89 1203.83 474.22 1109.23 588.33 1008.13 654.64 1177.91 667.32
00008152 00000010 883.60 251.67 429.32 563.44 1017.89 461.48 1204.12 475.07 1109.84 589.57 1009.81 655.19 1179.32 667.40
00008153 00000011 884.49 253.96 430.53 562.05 1019.44 462.20 1205.86 476.36 1110.82 590.59 1010.94 655.51 1181.34 668.24
00008154 00000012 885.87 254.62 429.79 562.00 1019.99 462.82 1206.65 477.49 1111.17 590.05 1011.20 655.20 1182.71 668.35
00008155 00000013 887.74 253.00 429.19 563.78 1020.68 461.23 1206.60 476.81 1111.10 589.16 1011.20 654.15 1182.71 667.99
00008156 00000014 888.65 250.94 429.11 565.09 1021.16 459.90 1207.94 476.15 1111.74 588.20 1011.23 653.13 1183.91 667.41
00008157 00000015 889.58 249.68 429.19 565.16 1021.37 459.53 1207.75 475.72 1111.49 587.18 1011.43 651.55 1184.20 665.78
00008158 00000016 889.83 249.21 429.39 565.35 1020.99 458.83 1207.15 475.34 1110.57 586.33 1010.69 650.37 1183.78 664.81
00008159 00000017 889.67 248.12 429.41 565.91 1020.58 458.39 1206.12 474.24 1110.28 584.83 1011.22 649.30 1184.31 663.10
00008160 00000018 889.31 249.89 430.13 566.77 1020.33 458.60 1204.00 474.27 1108.49 584.35 1011.97 649.82 1181.49 663.45
00008161 00000019 889.25 248.32 429.65 568.91 1020.28 458.53 1203.02 474.86 1107.75 583.90 1011.06 649.39 1180.44 663.47
00008162 00000020 889.09 248.42 429.94 569.00 1019.96 458.24 1203.17 474.66 1107.30 583.86 1010.08 649.86 1180.00 664.06
00008163 00000021 889.01 250.06 429.80 566.62 1019.98 458.55 1203.64 474.55 1107.64 584.71 1010.18 650.60 1180.49 664.54
00008164 00000022 888.97 249.12 429.43 568.12 1019.67 458.55 1203.36 474.92 1107.15 584.69 1009.65 651.34 1179.69 665.57
00008165 00000023 888.99 250.22 429.66 567.30 1019.09 458.75 1203.02 474.65 1106.22 584.62 1009.43 651.52 1180.15 665.30
00008166 00000024 888.81 249.70 429.96 568.00 1018.91 457.95 1203.37 474.31 1106.44 583.21 1009.24 651.96 1179.01 666.11
00008167 00000025 889.21 249.74 429.36 567.49 1019.09 457.71 1203.12 474.34 1106.28 582.30 1009.68 650.67 1179.35 664.99
00008168 00000026 888.93 247.94 428.30 568.14 1018.83 457.20 1201.72 473.50 1106.26 582.23 1010.18 649.82 1178.32 663.84
00008169 00000027 888.66 246.54 428.14 568.30 1018.24 456.38 1201.75 472.79 1105.91 580.38 1010.15 648.67 1178.90 662.63
00008170 00000028 888.44 245.63 427.70 568.39 1016.79 455.32 1200.86 471.35 1104.62 579.35 1009.90 647.53 1178.76 661.07
00008171 00000029 888.31 243.40 425.03 567.18 1015.28 454.00 1199.73 471.33 1103.21 577.13 1007.83 644.80 1175.71 659.45
00008172 00000030 886.94 243.04 424.33 562.12 1013.08 453.19 1198.26 470.85 1100.94 576.16 1007.03 644.91 1171.13 659.93
00008173 00000031 886.81 242.89 424.35 563.62 1011.80 451.84 1197.17 469.79 1099.12 573.69 1006.12 645.13 1169.74 660.26
00008174 00000032 886.61 241.59 424.29 567.25 1010.90 451.22 1196.28 469.74 1097.88 573.00 1005.17 645.23 1168.60 660.77
00008175 00000033 887.12 241.24 423.78 568.84 1009.94 451.07 1195.16 469.55 1095.88 573.67 1004.40 646.10 1167.79 661.61
00008176 00000034 886.03 241.55 424.44 567.84 1008.20 451.37 1193.85 469.76 1094.00 574.98 1003.71 646.76 1165.72 662.22
00008177 00000035 884.83 241.76 424.11 564.80 1006.31 451.96 1193.07 470.86 1091.81 575.18 1001.76 646.00 1165.27 661.84
00008178 00000036 883.43 240.89 424.38 565.91 1004.89 452.38 1191.25 470.76 1090.38 575.71 1000.57 645.77 1163.06 661.26
00008179 00000037 882.26 240.93 424.76 566.79 1003.12 452.02 1189.09 470.19 1087.80 576.38 999.44 646.07 1161.21 661.42
00008180 00000038 877.79 235.72 423.14 572.18 999.63 453.50 1179.10 467.14 1081.41 578.40 993.52 645.71 1161.72 656.61
00008181 00000039 874.37 233.71 421.89 569.58 992.37 453.32 1174.21 467.65 1074.14 575.75 988.32 644.72 1156.51 656.04
00008182 00000040 869.93 236.80 422.06 565.01 985.65 450.87 1167.43 466.13 1064.68 572.48 981.80 643.19 1149.43 655.08
00008183 00000041 867.05 234.58 421.23 567.15 976.98 448.96 1161.05 462.76 1053.87 565.25 975.33 642.88 1144.61 653.48
00008184 00000042 862.63 228.92 424.96 572.92 970.40 441.52 1156.80 453.73 1047.82 560.06 968.72 640.96 1134.16 650.49
00008185 00000043 859.83 223.24 417.25 568.42 961.67 435.32 1150.78 448.35 1039.79 552.53 958.30 633.59 1129.48 644.34
00008186 00000044 856.71 217.66 417.16 566.56 957.63 429.27 1144.90 442.18 1035.73 543.55 955.87 624.63 1126.20 634.91
00008187 00000045 854.67 209.06 413.67 567.11 954.89 425.04 1142.11 437.35 1034.52 539.87 954.61 618.36 1125.26 628.24
00008188 00000046 852.37 205.50 413.04 564.58 952.91 422.44 1140.40 435.49 1032.56 538.37 951.92 615.10 1122.32 625.99
00008189 00000047 851.09 206.53 412.03 561.44 951.98 418.91 1140.33 430.26 1034.38 539.14 952.47 615.59 1121.19 624.92
00008190 00000048 849.00 210.81 412.83 562.92 950.30 418.26 1139.08 429.22 1034.09 540.83 950.46 616.73 1120.76 625.53
00008191 00000049 847.59 217.85 411.79 560.90 947.35 421.82 1136.27 432.17 1030.69 542.84 949.58 620.47 1120.93 628.82
00008192 00000050 846.60 220.41 410.20 559.05 944.61 422.75 1134.16 434.80 1027.19 546.10 946.51 623.55 1115.83 633.50
00008193 00000051 845.26 223.09 409.18 559.71 942.82 424.77 1132.15 436.47 1024.83 547.73 944.55 625.96 1112.86 635.69
00008194 00000052 844.89 222.39 407.90 562.68 941.64 422.87 1128.13 433.69 1022.15 545.45 944.38 626.59 1107.99 635.68
00008195 00000053 842.50 221.65 408.54 564.87 939.54 419.28 1124.17 430.03 1019.70 540.64 943.40 624.10 1104.07 632.96
00008196 00000054 841.76 220.56 408.87 564.30 936.75 415.72 1121.35 426.70 1015.55 538.42 940.67 620.90 1102.96 629.69
00008197 00000055 840.80 219.78 409.02 561.12 933.83 413.10 1118.64 423.29 1011.88 536.37 939.52 618.64 1101.73 626.71
00008198 00000056 839.62 215.68 409.03 562.16 931.23 413.26 1115.49 421.51 1009.23 535.31 939.51 617.81 1101.64 624.13
00008199 00000057 838.38 214.62 408.84 563.47 928.10 413.90 1112.59 420.97 1005.42 535.66 938.43 618.66 1100.94 623.83
00008200 00000058 837.13 219.59 408.47 563.05 926.52 416.44 1110.57 423.45 1002.29 536.14 937.41 621.35 1098.88 626.35
00008201 00000059 834.73 220.09 408.10 562.05 923.86 421.28 1109.03 426.45 1000.74 537.45 935.83 624.96 1098.08 628.49
00008202 00000060 834.10 222.35 407.34 561.57 923.16 424.38 1108.32 429.58 1000.71 540.09 934.72 628.03 1097.37 631.74
00008203 00000061 833.13 225.55 406.18 557.46 921.19 427.78 1106.54 432.03 998.96 542.13 932.27 628.45 1097.81 631.53
00008204 00000062 823.68 217.97 418.84 560.45 915.88 420.40 1106.17 425.95 993.10 541.61 929.15 622.31 1100.29 626.15
00008205 00000063 822.38 218.32 419.08 556.57 913.15 420.66 1104.92 425.36 990.96 540.51 926.59 620.67 1099.57 623.57
00008206 00000064 821.57 219.19 420.42 555.36 912.84 418.89 1103.25 423.30 990.38 538.52 925.95 618.86 1098.50 621.57
00008207 00000065 820.94 220.33 420.45 550.98 911.78 419.11 1101.92 422.64 989.79 537.09 925.33 616.21 1098.92 618.02
00008208 00000066 820.51 220.11 419.76 547.87 910.02 419.27 1100.35 422.85 987.77 536.76 924.82 615.48 1097.45 617.32
00008209 00000067 819.40 221.26 419.52 548.93 909.68 420.64 1099.69 423.42 989.16 537.81 925.07 616.69 1098.19 617.96
00008210 00000068 817.67 223.25 420.26 551.13 909.51 421.78 1099.35 425.36 988.62 540.49 923.21 618.27 1097.05 620.43
00008211 00000069 816.94 223.57 419.59 551.87 908.58 424.52 1098.52 428.76 987.52 543.57 921.56 619.99 1095.08 622.86
00008212 00000070 815.28 225.74 419.12 551.44 906.83 425.63 1097.00 428.23 986.86 543.76 921.02 621.96 1093.81 623.71
00008213 00000071 813.62 225.55 418.13 551.50 904.19 425.59 1094.38 427.25 984.26 542.97 920.27 622.89 1091.92 623.91
00008214 00000072 813.19 223.93 417.38 549.16 902.07 425.56 1092.64 425.89 982.46 541.49 919.82 621.43 1092.21 621.04
00008215 00000073 813.29 223.17 415.61 549.39 898.24 436.34 1085.25 429.44 980.33 542.16 917.20 623.93 1093.20 616.37
00008216 00000074 811.32 220.14 416.03 549.54 895.49 434.51 1083.63 427.32 977.81 541.36 915.68 623.24 1090.71 615.35
00008217 00000075 810.82 218.21 414.68 547.73 893.50 432.26 1081.79 423.91 976.41 539.46 916.79 623.97 1087.94 614.96
00008218 00000076 809.62 216.30 413.78 550.43 891.93 431.31 1079.45 422.89 974.30 538.74 915.49 623.45 1085.71 614.28
00008219 00000077 809.02 215.05 413.36 553.76 890.86 432.15 1076.13 422.45 972.76 538.06 915.68 623.97 1084.24 613.73
00008220 00000078 807.90 214.01 413.76 556.50 889.39 434.22 1073.82 424.56 970.65 539.51 914.91 624.77 1083.86 614.64
00008221 00000079 806.75 215.43 415.44 556.56 889.13 435.22 1072.80 426.51 970.91 543.50 916.06 628.20 1080.82 619.13
00008222 00000080 803.48 215.17 419.61 563.10 888.02 435.88 1072.96 426.46 971.08 547.53 918.56 635.39 1077.74 625.63
00008223 00000081 803.80 217.42 420.67 567.99 888.99 437.38 1073.04 425.35 972.19 547.78 922.03 639.94 1077.62 628.22
00008224 00000082 804.12 219.72 421.45 572.04 889.26 438.74 1073.62 427.03 972.63 550.24 923.18 643.46 1079.07 632.22
00008225 00000083 803.28 219.19 422.93 574.49 890.44 440.46 1074.00 428.47 973.91 552.13 925.58 646.50 1078.66 634.73
00008226 00000084 803.07 218.30 423.21 576.43 891.07 440.97 1074.58 427.81 975.84 552.53 927.69 647.43 1081.26 634.58
00008227 00000085 800.57 217.16 422.89 576.11 886.40 441.51 1068.94 427.09 969.75 552.55 923.34 646.52 1077.64 632.91
00008228 00000086 793.16 213.40 424.84 574.81 877.13 441.39 1060.96 425.53 959.65 551.57 915.72 645.85 1070.54 631.16
00008229 00000087 787.87 215.00 425.87 574.42 870.81 442.63 1052.20 425.84 950.86 549.44 910.05 645.42 1063.55 629.86
00008230 00000088 785.60 215.49 423.63 576.56 867.22 443.74 1044.79 423.87 944.97 546.07 907.03 645.71 1059.04 628.07
00008231 00000089 785.03 218.11 424.47 580.77 867.08 441.67 1043.56 422.87 943.83 545.05 906.28 648.15 1055.36 631.70
00008232 00000090 784.21 219.55 424.73 584.10 866.25 442.96 1044.78 423.57 944.22 547.91 904.98 650.60 1059.35 633.66
00008233 00000091 782.84 221.89 426.39 587.33 867.04 445.16 1044.89 425.48 944.63 551.33 905.66 653.17 1060.71 635.36
00008234 00000092 780.12 225.34 428.14 582.94 865.80 448.38 1044.91 428.45 944.77 555.08 905.21 654.90 1060.96 636.82
00008235 00000093 776.38 227.26 428.28 578.70 861.81 450.13 1042.22 431.19 943.23 559.91 905.59 658.43 1058.90 641.14
00008236 00000094 773.49 233.62 427.26 566.72 858.26 452.37 1038.87 434.46 942.02 563.11 903.57 659.41 1053.79 643.27
00008237 00000095 770.46 235.90 428.99 570.13 856.12 454.00 1034.75 433.89 941.30 564.02 903.34 661.47 1051.54 643.59
00008238 00000096 766.49 238.86 432.91 569.77 853.92 456.44 1032.66 435.54 941.27 566.33 901.88 662.64 1050.77 644.01
00008239 00000097 763.94 239.39 434.37 569.39 851.17 457.97 1030.19 435.75 939.78 567.09 901.46 662.92 1049.95 643.17
00008240 00000098 761.45 239.19 435.50 570.44 848.41 459.39 1028.83 436.95 937.66 568.79 898.92 663.71 1050.59 643.63
00008241 00000099 759.59 239.83 434.68 567.56 846.75 459.59 1028.66 437.46 936.93 568.92 896.28 662.58 1048.68 642.98
00008242 00000100 757.96 240.17 434.62 565.44 843.79 461.79 1026.89 438.62 934.56 570.35 894.71 662.85 1049.53 642.37
00008243 00000101 755.02 241.10 436.36 564.88 840.77 464.52 1025.42 439.08 932.45 571.52 892.27 664.30 1049.63 641.92
00008244 00000102 753.27 239.09 438.80 569.69 836.53 468.00 1023.38 438.89 929.22 573.88 889.74 668.16 1050.14 642.41
00008245 00000103 750.80 239.20 439.64 571.61 833.57 469.81 1020.64 439.52 925.42 574.76 888.93 670.84 1048.15 644.07
00008246 00000104 750.00 236.49 439.39 576.31 832.66 471.40 1018.78 439.90 924.38 575.60 888.69 673.05 1047.18 645.25
00008247 00000105 748.63 235.56 441.37 577.82 831.42 470.68 1018.77 438.19 924.03 573.60 888.79 672.94 1047.62 644.23
00008248 00000106 748.80 237.05 440.89 573.94 832.10 468.81 1018.99 437.38 924.61 572.86 888.76 670.88 1046.35 643.15
00008249 00000107 748.80 238.89 440.59 569.14 833.34 466.49 1019.94 436.15 926.01 570.77 887.68 666.79 1046.77 640.02
00008250 00000108 750.20 238.50 439.47 566.04 834.72 464.10 1020.41 435.15 927.10 569.77 889.89 665.56 1044.31 640.25
00008251 00000109 751.07 237.82 438.46 566.14 836.74 461.22 1022.11 434.98 928.88 568.44 890.61 665.07 1042.52 642.25
00008252 00000110 753.62 237.08 436.74 566.14 838.67 459.65 1023.57 434.26 931.08 568.30 892.95 664.44 1044.00 642.43
00008253 00000111 757.77 236.35 432.31 562.50 842.16 458.01 1025.55 434.14 933.39 565.99 895.30 663.07 1043.66 642.49
00008254 00000112 760.55 235.66 428.93 559.13 846.45 455.69 1027.69 432.75 936.76 562.09 899.90 660.39 1045.19 640.66
00008255 00000113 765.77 231.04 425.71 559.93 851.37 452.87 1029.57 430.10 939.03 558.76 902.86 657.01 1046.82 637.33
00008256 00000114 771.59 225.05 420.55 563.17 855.19 450.31 1032.71 425.92 943.76 554.78 906.56 656.21 1052.79 635.34
00008257 00000115 774.71 225.83 419.88 559.91 859.94 446.67 1039.62 423.26 948.91 549.77 907.51 650.70 1057.27 630.69
00008258 00000116 777.73 222.36 422.07 562.45 864.01 445.78 1043.11 419.77 953.27 544.33 911.30 646.91 1062.00 624.30
00008259 00000117 780.64 219.10 419.78 562.60 867.59 443.59 1045.77 417.34 956.44 540.73 913.31 641.64 1065.66 618.58
00008260 00000118 781.52 218.22 420.93 559.33 870.25 440.80 1047.52 414.17 960.24 539.43 916.61 638.38 1068.03 614.71
00008261 00000119 782.64 215.01 420.48 557.91 870.97 436.95 1050.07 410.87 961.86 537.30 915.87 634.36 1069.22 610.84
00008262 00000120 782.92 211.20 420.53 556.78 869.21 434.10 1050.21 409.60 958.94 536.65 912.64 630.89 1067.36 608.43
00008263 00000121 783.68 209.33 418.03 554.84 866.65 432.87 1048.18 410.57 953.68 535.15 907.54 627.93 1061.79 607.60
00008264 00000122 782.51 208.05 417.86 551.40 862.11 430.23 1043.93 410.63 944.06 532.95 901.60 625.93 1052.78 608.08
00008265 00000123 783.08 205.84 416.75 554.04 859.59 425.90 1039.73 409.32 936.26 529.96 897.97 623.61 1046.08 608.13
00008266 00000124 782.29 202.38 416.46 556.92 858.06 423.54 1032.20 407.54 928.51 524.61 895.36 620.10 1038.47 605.51
00008267 00000125 775.33 199.98 425.67 558.12 854.78 417.92 1030.53 403.74 922.13 518.38 892.09 617.22 1037.47 604.39
00008268 00000126 772.71 195.82 427.02 562.30 848.96 416.90 1026.28 401.49 914.35 514.35 885.55 617.48 1033.48 603.60
00008269 00000127 771.79 194.46 425.46 560.27 844.82 416.77 1023.16 402.49 908.15 514.44 880.47 616.83 1029.58 603.68
00008270 00000128 770.54 195.88 425.35 559.04 841.33 419.36 1018.95 404.43 902.42 516.43 877.84 619.33 1025.54 605.45
00008271 00000129 768.13 196.19 427.96 563.50 840.29 421.67 1017.61 405.64 903.10 519.93 879.03 621.76 1027.47 606.98
00008272 00000130 763.62 199.41 432.06 570.93 840.64 423.20 1016.48 404.57 907.07 524.24 884.16 625.78 1032.10 608.91
00008273 00000131 769.23 208.86 424.69 570.01 845.62 430.99 1019.15 408.97 917.94 528.47 890.15 632.24 1035.66 612.40
00008274 00000132 769.56 213.35 422.50 567.06 848.25 435.38 1022.25 411.41 926.81 532.42 895.97 637.32 1040.67 616.28
00008275 00000133 769.48 214.89 424.18 571.51 851.56 438.60 1024.75 412.55 933.23 535.48 900.88 640.80 1047.07 617.73
00008276 00000134 772.38 223.85 421.90 566.11 856.11 442.21 1026.82 415.03 940.61 538.13 906.29 644.03 1052.51 619.97
00008277 00000135 774.03 221.13 420.78 570.10 858.51 448.07 1030.99 417.92 945.65 547.27 910.76 650.07 1059.83 623.58
00008278 00000136 772.50 217.73 425.85 578.46 859.39 450.60 1037.79 421.19 951.78 554.75 913.02 653.40 1066.83 627.25
00008279 DELETE   771.53 224.77 432.64 575.67 862.62 454.42 1044.18 426.57 958.40 566.34 914.85 656.27 1072.13 630.93
00008280 00000138 771.32 233.06 435.96 572.21 868.31 462.88 1049.73 433.32 968.39 574.65 921.85 664.74 1077.28 638.01
00008281 DELETE   773.87 243.95 436.70 570.53 871.34 470.43 1048.71 439.19 968.63 580.03 924.20 670.21 1080.28 642.31
00008282 DELETE   773.71 248.44 439.42 571.49 871.19 475.71 1050.01 443.87 970.05 592.24 927.07 678.88 1082.36 650.52
00008283 00000141 774.08 259.85 438.74 563.98 872.25 480.74 1051.77 452.06 967.24 597.29 926.21 684.32 1078.66 658.50
00008284 00000142 773.18 264.00 438.68 563.82 873.38 486.13 1051.28 459.75 967.31 603.70 926.70 688.57 1075.24 664.50
00008285 00000143 777.07 269.11 433.00 563.15 874.29 489.92 1050.66 467.21 968.08 613.10 923.44 688.93 1072.41 666.70
00008286 00000144 778.02 272.59 431.70 562.10 873.30 491.30 1050.52 468.25 967.28 614.25 922.05 689.99 1073.34 667.42
00008287 00000145 779.43 267.37 432.70 570.21 871.73 490.35 1050.56 466.17 965.15 611.21 921.06 690.54 1072.60 666.89
00008288 00000146 780.21 260.98 432.39 575.57 869.93 487.72 1049.10 462.28 961.10 608.17 918.10 688.24 1070.71 663.63
00008289 00000147 779.07 256.62 435.50 573.52 869.09 480.48 1048.50 456.01 954.44 597.73 917.17 687.61 1069.97 665.07
00008290 00000148 775.68 250.17 437.60 570.71 867.56 475.37 1046.43 449.59 954.57 585.57 916.79 681.62 1066.17 658.57
00008291 DELETE   776.59 242.06 436.31 569.90 864.65 467.92 1044.92 442.34 950.99 575.70 912.61 672.64 1062.71 649.94
00008292 00000150 778.20 234.73 431.37 564.81 864.06 458.70 1042.87 438.31 948.09 568.74 909.95 663.31 1056.61 644.93
00008293 00000151 781.07 226.39 424.87 564.21 864.28 451.20 1042.24 431.31 945.32 558.24 909.76 655.60 1055.75 637.74
00008294 00000152 784.90 216.84 419.77 569.11 865.30 444.71 1040.09 424.17 945.22 549.68 909.16 647.07 1055.75 628.89
00008295 00000153 783.78 219.00 419.77 562.56 867.52 438.74 1041.51 416.59 948.96 536.03 909.52 637.80 1054.47 618.27
00008296 00000154 782.77 209.44 419.83 565.36 867.30 429.86 1044.99 407.08 952.58 530.83 911.91 631.69 1056.30 610.86
00008297 00000155 783.30 203.69 420.13 565.51 866.27 426.54 1045.04 400.92 952.40 525.69 912.53 627.98 1058.35 604.36
00008298 00000156 785.40 197.26 417.48 562.16 865.97 422.90 1045.97 395.91 952.17 522.16 912.36 624.19 1058.83 599.81
00008299 00000157 780.45 196.02 426.75 561.76 867.30 420.05 1048.15 395.31 951.17 519.01 915.46 621.29 1066.07 599.43
00008300 00000158 779.50 196.91 426.87 563.11 866.87 421.67 1047.47 397.28 950.98 521.34 915.43 622.99 1065.01 601.33
00008301 00000159 782.47 203.85 417.56 559.08 864.78 429.02 1043.39 402.20 952.18 529.77 910.40 627.61 1060.42 603.35
00008302 00000160 780.43 212.55 419.38 557.70 864.46 439.12 1042.85 411.20 953.48 535.20 910.72 633.08 1064.18 608.06
00008303 00000161 779.77 221.73 421.99 559.75 866.64 444.49 1042.15 417.23 954.63 541.11 913.33 639.76 1065.26 615.45
00008304 00000162 780.03 221.96 422.23 564.53 865.85 447.40 1042.90 422.02 954.09 547.60 911.86 646.00 1064.58 623.69
00008305 00000163 780.11 222.50 422.53 564.26 866.20 446.50 1043.54 422.72 953.58 548.63 911.23 646.26 1062.40 625.29
00008306 00000164 778.99 221.25 421.90 559.25 865.90 445.63 1041.96 421.30 953.13 544.36 911.33 641.86 1062.02 620.28
00008307 00000165 778.35 219.88 419.31 552.69 864.45 440.58 1041.67 416.87 951.23 536.61 907.83 635.76 1058.02 614.90
00008308 00000166 778.60 211.00 420.80 565.92 861.46 433.15 1040.56 408.04 945.82 530.13 906.20 632.87 1056.09 610.53
