Video ID: 	TNYaOw781J0
H: 	1080
W: 	1920
FPS: 	25.0

FRAME INDEX X0 Y0 W H [Landmarks (5 Points)]

00004149 00000000 628.52 220.61 362.74 527.05 780.17 470.34 935.79 446.25 903.05 550.16 824.90 640.51 943.04 620.54
00004150 00000001 634.41 226.58 361.53 530.99 786.87 475.70 940.91 450.24 911.81 558.70 830.61 649.03 950.44 627.87
00004151 00000002 634.19 226.35 357.65 532.68 783.85 468.65 935.71 444.98 912.74 547.77 830.93 650.26 942.11 631.46
00004152 00000003 628.09 226.98 361.36 536.55 781.37 471.16 936.45 451.22 910.73 554.40 824.00 653.29 937.33 637.34
00004153 00000004 624.39 231.42 363.37 540.49 778.83 477.47 935.22 459.51 906.64 563.13 819.05 658.66 934.53 644.38
00004154 00000005 624.30 241.31 363.44 542.09 775.59 487.34 935.81 468.37 901.36 580.12 815.34 669.41 936.31 654.30
00004155 00000006 622.50 245.87 364.87 555.79 777.29 502.96 937.31 478.35 904.39 603.04 824.72 692.76 936.32 672.57
00004156 00000007 623.51 258.73 361.68 547.68 782.11 516.86 939.41 493.28 907.68 614.60 830.01 702.80 937.54 683.71
00004157 00000008 625.07 263.13 359.67 551.28 783.42 521.53 940.79 495.82 910.35 620.51 833.15 710.16 940.76 689.14
00004158 00000009 626.74 253.60 360.74 550.12 785.23 511.70 941.49 488.45 910.20 612.51 839.01 706.37 938.09 687.09
00004159 DELETE   628.05 246.43 360.35 547.45 781.38 497.11 937.93 474.60 906.49 595.96 837.72 693.24 937.86 674.08
00004160 DELETE   629.06 228.60 357.42 550.56 782.77 475.45 934.33 455.65 907.24 565.20 831.77 667.97 933.47 651.51
00004161 DELETE   627.37 215.18 365.41 538.62 787.84 461.35 945.46 447.39 912.79 550.11 829.37 643.68 944.24 632.03
00004162 00000013 631.50 197.14 369.27 533.25 787.94 443.44 951.44 435.84 916.89 524.84 834.06 623.61 953.64 616.64
00004163 DELETE   636.33 190.79 367.40 526.06 792.86 425.91 956.78 422.99 922.76 507.35 836.98 610.24 956.59 607.26
00004164 00000015 639.98 185.94 365.08 522.39 799.19 420.23 960.24 416.39 928.53 497.91 842.75 602.17 959.92 598.54
00004165 00000016 642.21 183.00 365.41 520.53 804.07 417.91 962.88 411.16 934.89 490.63 849.26 598.67 965.40 592.59
00004166 00000017 645.89 181.45 363.80 523.23 807.21 419.90 965.57 409.39 940.53 489.71 854.35 600.71 971.83 591.52
00004167 00000018 647.62 180.27 363.47 527.96 809.11 423.94 967.33 411.08 943.35 494.35 857.40 605.26 975.57 594.04
00004168 00000019 650.01 180.28 362.83 531.56 810.00 426.38 969.19 410.52 944.64 497.89 858.15 608.43 976.95 594.94
00004169 00000020 651.26 180.90 364.03 531.01 814.47 427.26 973.81 411.73 948.50 498.36 860.57 608.86 979.43 595.62
00004170 00000021 654.88 175.60 365.17 529.70 823.62 424.51 983.17 412.57 958.77 490.94 864.48 602.13 986.93 591.91
00004171 00000022 659.67 169.40 364.74 521.40 829.12 417.93 991.75 409.13 965.21 479.73 866.23 590.27 991.97 582.62
00004172 DELETE   664.19 160.77 364.70 521.21 830.30 401.26 993.15 394.95 965.45 466.77 869.82 579.97 994.88 574.38
00004173 00000024 663.45 156.35 364.79 513.96 831.21 387.15 988.75 381.45 967.89 450.53 872.14 564.50 993.93 559.97
00004174 00000025 663.04 151.13 365.20 514.89 826.36 380.83 986.74 373.25 966.57 440.75 872.04 560.10 997.39 553.84
00004175 00000026 663.67 149.38 365.93 524.68 822.06 381.23 984.96 372.74 964.54 440.42 870.27 564.35 999.43 557.26
00004176 00000027 666.90 153.20 362.30 532.88 821.42 390.79 983.64 380.10 958.26 455.18 866.04 576.12 992.71 567.51
00004177 00000028 661.60 162.85 367.63 542.81 820.07 408.23 984.70 391.84 958.18 477.04 864.80 595.07 994.35 580.81
00004178 00000029 657.73 173.66 375.20 554.78 817.22 426.06 986.49 409.45 953.32 506.36 860.30 618.55 990.13 603.94
00004179 00000030 658.56 179.41 374.53 555.14 814.41 440.35 981.95 420.37 948.43 523.13 858.44 630.42 986.75 613.42
00004180 00000031 661.74 187.23 375.49 551.27 814.39 447.40 983.28 423.03 948.88 527.78 860.74 635.89 989.63 615.39
00004181 00000032 662.51 185.55 374.02 548.31 815.56 443.66 985.69 419.22 952.22 522.42 862.22 631.99 992.13 611.26
00004182 00000033 662.02 183.00 373.11 546.56 817.67 435.50 985.64 416.03 952.56 515.73 862.35 623.90 992.31 607.05
00004183 00000034 663.12 178.64 373.78 543.51 819.79 427.01 991.39 409.71 957.95 507.46 862.38 615.11 995.36 599.95
00004184 00000035 667.74 176.72 370.11 538.93 827.41 420.71 994.21 402.93 964.37 498.16 864.50 606.03 996.57 591.14
00004185 00000036 670.19 176.24 369.02 538.75 828.87 421.33 996.93 402.03 966.87 497.14 865.66 605.82 1000.25 589.63
00004186 00000037 669.01 177.44 370.14 543.51 825.36 427.82 992.13 406.85 962.79 506.12 867.65 615.59 998.36 597.92
00004187 00000038 668.46 183.10 371.95 549.31 826.90 439.90 992.91 415.59 965.08 519.24 868.28 626.75 998.51 606.51
00004188 00000039 670.17 187.27 372.77 554.85 832.92 451.55 997.38 425.06 970.88 531.97 873.68 640.40 1000.59 618.32
00004189 00000040 669.30 190.76 373.86 554.97 831.78 454.41 997.61 430.47 968.30 538.14 871.67 644.43 998.61 624.26
00004190 00000041 667.43 187.82 374.19 550.05 829.98 449.25 997.02 427.65 966.13 533.98 869.30 638.54 996.29 620.45
00004191 00000042 666.36 181.67 373.24 546.14 827.60 439.78 995.22 419.66 963.03 527.06 865.34 628.61 993.47 611.87
00004192 00000043 667.33 178.31 372.17 541.12 824.80 433.52 995.25 412.80 960.58 520.95 865.10 622.65 994.58 605.17
00004193 00000044 669.28 172.97 370.91 544.37 825.30 429.64 995.13 409.44 960.94 517.71 866.32 619.30 996.03 602.24
00004194 00000045 670.68 173.35 370.42 543.97 824.46 430.97 995.16 408.08 960.29 518.70 865.99 620.39 996.87 601.15
00004195 00000046 670.85 177.15 370.59 543.05 827.15 437.43 995.17 412.67 962.41 523.32 866.47 623.76 996.13 603.41
00004196 00000047 671.66 180.57 373.46 545.15 828.12 447.64 999.70 421.38 963.51 534.76 866.72 632.53 999.12 610.74
00004197 00000048 676.29 193.20 369.73 543.26 829.73 457.90 999.47 429.53 962.15 544.43 867.82 644.36 997.86 620.49
00004198 00000049 678.86 198.24 369.34 542.59 831.03 459.80 1001.11 433.92 961.14 548.46 867.81 647.01 998.10 624.89
00004199 00000050 678.94 192.64 372.10 543.73 830.92 451.70 1004.74 431.26 960.55 545.69 864.47 640.34 998.40 622.91
00004200 00000051 683.13 188.34 371.33 542.48 835.03 437.64 1005.98 421.12 961.25 535.24 872.57 623.08 998.36 610.75
00004201 00000052 683.84 183.75 371.86 541.58 837.87 429.59 1008.47 420.01 962.63 525.40 870.31 612.77 997.09 605.73
00004202 00000053 689.02 173.30 370.88 540.97 839.31 418.75 1015.65 414.73 962.15 513.74 861.49 609.18 997.47 606.36
00004203 00000054 688.80 173.99 370.49 538.50 838.87 410.30 1008.11 410.69 958.54 506.31 862.88 595.59 989.60 596.66
00004204 00000055 688.61 166.75 372.10 543.13 836.21 398.28 1008.50 404.25 955.19 499.30 852.83 589.93 984.26 595.22
00004205 00000056 687.03 167.48 374.87 544.10 835.35 396.03 1008.96 404.91 952.54 501.53 849.70 590.83 980.76 598.33
00004206 00000057 687.72 163.75 377.65 543.58 829.38 391.35 1016.38 405.94 945.84 509.65 844.11 595.99 984.40 608.46
00004207 00000058 685.75 170.92 378.26 549.85 835.09 400.84 1008.32 411.93 949.96 513.24 847.04 599.73 975.04 609.29
00004208 00000059 684.94 172.79 379.34 550.31 841.19 412.70 1014.01 423.32 956.56 519.01 851.55 603.69 981.11 613.34
00004209 00000060 685.52 173.43 380.76 550.05 844.51 416.75 1018.05 429.08 959.95 516.73 854.39 601.65 984.90 612.49
00004210 00000061 684.74 172.23 381.31 550.86 847.45 416.29 1019.95 429.91 964.57 511.69 857.03 598.87 987.10 610.58
00004211 00000062 681.88 168.59 382.92 553.31 848.12 412.24 1019.30 429.72 965.24 504.83 854.52 593.65 984.56 608.40
00004212 00000063 684.14 162.50 382.20 556.88 855.73 401.16 1018.02 426.47 963.03 505.41 850.22 583.28 975.25 606.72
00004213 00000064 677.96 161.12 381.87 548.82 844.27 395.56 1016.54 422.75 958.10 503.93 842.34 589.04 973.70 612.30
00004214 00000065 674.15 164.71 382.28 549.15 840.58 397.58 1009.74 427.31 949.38 510.43 833.73 590.22 963.21 615.64
00004215 00000066 669.03 169.91 385.20 550.77 835.66 403.08 1002.09 436.49 940.40 518.95 825.17 594.85 952.19 623.35
00004216 00000067 666.51 176.53 387.76 550.87 834.67 408.98 1001.41 444.44 938.69 527.38 820.97 600.54 948.33 631.03
00004217 00000068 663.32 181.22 390.61 548.96 832.58 409.13 1001.74 447.81 936.98 528.16 817.79 601.44 946.84 634.60
00004218 00000069 660.13 185.77 392.43 544.15 834.00 404.85 1003.26 447.58 938.79 525.55 816.94 598.44 946.32 634.80
00004219 00000070 658.19 182.76 391.62 544.10 833.24 402.30 1000.95 445.66 937.68 521.52 815.35 594.02 944.50 630.94
00004220 00000071 657.82 176.60 389.24 545.21 832.47 399.28 999.30 441.92 938.91 514.29 815.32 588.35 944.92 624.56
00004221 00000072 656.02 172.57 389.09 544.96 831.48 392.97 998.99 433.85 939.56 508.25 814.59 582.52 944.95 616.88
00004222 00000073 654.46 169.32 387.18 546.11 829.87 389.62 996.66 429.10 939.37 500.55 815.36 578.68 945.11 611.72
00004223 00000074 649.52 165.41 389.73 554.26 829.77 387.42 994.56 423.86 941.30 495.37 819.51 579.86 946.75 610.04
00004224 00000075 650.18 163.12 387.03 565.23 831.44 385.95 996.07 420.61 946.13 496.54 821.98 584.54 949.61 613.99
00004225 00000076 645.62 162.30 388.14 571.47 830.50 388.69 992.53 419.23 945.91 499.59 824.96 588.85 948.66 614.70
00004226 00000077 640.63 162.10 387.18 568.06 824.50 388.79 986.62 417.37 941.34 497.44 821.44 586.30 945.89 610.45
00004227 00000078 637.86 158.98 385.99 559.19 820.00 381.29 983.16 410.34 936.10 489.07 817.52 576.84 941.90 600.75
00004228 00000079 634.94 149.18 387.90 549.06 813.86 367.03 981.55 395.20 933.90 474.70 816.37 564.28 944.92 587.02
00004229 00000080 629.17 139.16 388.89 541.31 810.67 354.89 977.87 378.37 935.60 457.59 816.34 546.41 950.73 565.98
00004230 00000081 625.89 129.99 383.98 532.98 803.20 348.79 974.57 375.75 929.01 443.52 819.38 533.56 948.87 555.54
00004231 00000082 627.01 124.71 380.77 530.53 802.01 345.58 974.61 369.71 931.78 432.11 822.38 529.88 952.80 549.55
00004232 00000083 627.14 121.81 379.45 531.51 799.64 346.31 971.07 369.20 929.07 430.80 824.28 530.36 953.01 548.81
00004233 00000084 625.34 124.44 380.63 533.22 797.60 351.45 969.38 370.03 929.91 436.12 826.62 536.86 954.93 551.85
00004234 00000085 623.38 129.06 384.96 538.98 795.90 362.17 967.22 375.21 927.12 451.91 827.92 547.18 954.33 557.20
00004235 00000086 631.30 135.19 382.44 550.05 800.79 367.67 965.50 374.15 930.37 458.98 830.18 562.62 953.06 567.39
00004236 00000087 634.35 140.48 377.81 549.30 800.85 371.30 965.22 377.94 928.70 463.43 830.31 567.46 950.55 572.43
00004237 00000088 636.23 140.33 378.89 544.19 802.73 367.25 968.29 377.32 930.18 457.98 830.35 561.38 954.17 569.03
00004238 00000089 634.84 139.58 381.70 537.71 803.58 358.65 967.83 373.85 932.00 448.25 831.59 551.67 954.93 563.38
00004239 00000090 635.53 139.32 381.91 533.36 808.26 352.82 972.01 374.92 935.22 441.42 832.52 543.51 957.03 560.66
00004240 00000091 636.23 140.22 376.56 523.87 809.95 356.03 980.27 382.15 936.99 442.73 831.34 539.68 959.05 560.73
00004241 00000092 640.64 141.74 377.80 524.07 815.16 349.88 980.31 376.97 941.38 440.98 834.04 539.52 959.64 560.81
00004242 00000093 644.53 145.84 377.05 523.45 820.86 358.06 985.82 383.91 947.91 447.01 839.21 545.09 964.10 565.41
00004243 00000094 650.10 149.47 372.98 527.66 822.76 367.57 987.03 387.94 949.98 455.06 841.21 553.72 965.73 569.91
00004244 00000095 655.52 153.43 369.87 531.92 822.65 375.77 987.88 393.82 947.08 468.47 839.97 565.20 962.95 579.80
00004245 00000096 658.85 157.98 369.38 533.19 825.58 381.35 993.63 401.61 949.93 475.79 839.63 571.76 964.77 588.29
00004246 00000097 661.05 164.16 370.98 531.58 829.85 386.16 999.36 410.53 953.31 482.18 839.83 576.52 965.14 596.50
00004247 00000098 663.87 168.44 373.15 531.04 832.40 389.70 1003.43 415.23 954.37 485.82 841.33 580.53 968.33 601.45
00004248 00000099 667.43 172.26 372.54 528.65 836.03 387.42 1008.06 415.54 956.86 485.58 843.13 579.47 970.72 602.64
00004249 00000100 670.74 170.71 372.61 532.28 839.84 381.02 1011.94 413.26 961.07 481.45 843.45 576.41 972.97 603.32
00004250 00000101 673.10 170.90 372.28 534.81 844.28 377.10 1013.01 409.71 966.46 479.19 844.16 574.17 973.67 601.85
00004251 00000102 672.93 172.20 371.20 531.35 843.63 375.39 1010.64 408.99 964.42 477.72 841.96 569.64 973.75 598.22
00004252 00000103 675.43 171.26 367.85 525.22 840.33 378.27 1008.69 407.05 962.14 477.53 843.16 568.16 976.82 592.85
00004253 00000104 677.13 171.02 366.16 523.23 840.59 382.92 1009.22 408.97 961.77 481.03 846.19 570.54 979.15 592.80
00004254 00000105 678.56 172.10 365.55 525.20 842.79 392.68 1010.58 412.42 964.93 488.41 850.64 579.03 982.03 595.97
CROP_BBOX: 344 0 1314 952
