Video ID: 	AyiRO0_Ta7o
H: 	1080
W: 	1920
FPS: 	23.976023976023978

FRAME INDEX X0 Y0 W H [Landmarks (5 Points)]

00025046 00000000 712.53 111.77 466.69 713.45 975.14 396.88 1135.91 385.10 1139.44 520.06 1017.99 654.98 1140.11 644.34
00025047 DELETE   710.32 109.33 467.00 716.37 973.21 394.56 1132.61 381.79 1138.95 516.95 1016.84 653.77 1138.06 642.25
00025048 DELETE   715.80 108.91 464.62 715.40 977.74 395.26 1133.39 378.18 1144.00 512.81 1022.08 650.30 1143.36 636.02
00025049 00000003 720.32 99.93 463.39 726.49 985.92 391.77 1139.02 379.81 1156.15 512.63 1023.24 653.26 1145.91 643.49
00025050 DELETE   719.97 100.17 464.81 728.71 987.20 392.83 1139.50 378.57 1159.22 513.21 1024.69 655.48 1147.03 643.96
00025051 DELETE   717.09 108.38 465.09 723.32 981.07 396.50 1133.80 379.38 1148.16 514.91 1025.98 655.09 1144.76 641.06
00025052 00000006 712.39 109.43 468.53 718.79 972.24 395.68 1132.90 379.26 1138.75 516.47 1016.45 655.16 1140.35 640.98
00025053 00000007 711.17 101.76 465.44 720.23 972.13 391.64 1132.10 380.88 1141.27 517.49 1008.64 653.78 1136.21 644.63
00025054 00000008 713.51 109.02 467.38 719.75 976.06 395.87 1132.59 378.82 1141.97 515.21 1019.44 652.65 1141.65 638.17
00025055 00000009 716.90 107.82 465.59 722.95 980.73 395.97 1133.31 379.53 1146.99 514.98 1023.85 652.84 1143.10 639.32
00025056 00000010 717.50 107.84 465.31 722.14 982.63 396.21 1134.86 379.76 1149.08 515.42 1025.13 653.20 1143.55 639.92
00025057 00000011 716.51 108.58 465.67 719.00 980.48 396.49 1133.82 380.17 1146.15 515.16 1023.71 653.00 1142.59 639.61
00025058 00000012 713.19 108.51 467.05 718.27 977.39 394.84 1132.27 379.33 1143.43 515.26 1019.19 652.43 1138.42 639.61
00025059 00000013 710.32 98.17 466.05 725.15 976.13 388.62 1132.01 379.92 1143.85 516.26 1012.74 653.31 1135.16 645.99
00025060 00000014 710.37 97.96 466.23 723.89 977.14 388.04 1130.65 380.30 1145.01 515.38 1016.11 653.12 1136.40 646.73
00025061 00000015 710.77 96.27 465.79 728.83 978.56 386.88 1129.27 381.47 1145.42 514.38 1019.66 653.49 1137.50 649.05
00025062 00000016 713.00 104.00 467.35 723.67 976.46 392.57 1130.33 379.59 1141.03 514.18 1026.70 656.86 1142.19 645.87
00025063 00000017 712.84 103.53 467.77 729.78 976.27 391.66 1128.25 380.57 1140.45 513.64 1026.16 659.00 1140.48 650.02
00025064 00000018 711.87 103.34 470.14 738.86 974.09 391.09 1128.73 378.80 1139.22 512.89 1020.10 660.39 1139.25 650.34
00025065 00000019 709.87 102.41 470.58 742.73 973.87 388.87 1126.06 378.41 1138.63 512.56 1017.20 660.30 1134.06 651.95
00025066 00000020 706.31 102.45 476.30 753.11 974.24 387.01 1126.21 379.08 1139.56 511.27 1008.70 658.18 1131.34 651.86
00025067 00000021 705.07 101.47 476.20 755.42 972.86 385.52 1125.98 377.50 1139.29 510.34 1008.80 659.11 1132.66 652.64
00025068 00000022 706.40 98.98 473.37 751.19 971.56 385.14 1123.98 374.74 1137.14 509.94 1010.77 658.13 1131.98 649.84
00025069 00000023 707.09 98.65 472.16 742.98 971.29 385.40 1123.16 373.02 1137.52 510.33 1014.04 657.02 1131.35 647.39
00025070 00000024 705.43 96.23 470.86 733.84 973.39 381.24 1126.05 374.70 1142.91 510.54 1011.58 653.60 1131.98 648.36
00025071 00000025 706.82 95.63 468.97 728.95 974.24 382.71 1127.83 375.57 1143.69 511.77 1013.58 652.13 1134.08 646.35
00025072 00000026 706.63 96.10 469.39 728.06 974.95 383.54 1128.15 376.96 1144.51 512.74 1015.61 652.07 1135.25 646.72
00025073 00000027 707.64 96.52 467.95 725.58 975.23 384.77 1127.65 377.65 1144.85 512.61 1016.17 651.41 1134.53 645.69
00025074 00000028 708.24 97.73 467.72 724.25 976.10 385.03 1128.07 378.19 1146.06 513.24 1017.07 651.83 1135.00 646.41
00025075 00000029 708.42 97.65 467.02 722.83 975.66 386.15 1128.15 378.59 1145.16 513.89 1016.87 651.77 1134.60 645.67
00025076 00000030 707.83 98.36 467.24 722.51 975.08 386.68 1127.49 379.53 1143.94 514.40 1016.31 652.41 1134.01 646.68
00025077 00000031 706.38 98.40 468.33 724.34 973.71 387.02 1126.03 380.37 1142.31 515.00 1016.21 653.77 1133.42 648.46
00025078 00000032 703.45 97.17 471.51 726.92 971.32 388.04 1124.67 380.61 1140.21 515.93 1015.00 655.61 1131.44 649.67
00025079 00000033 699.08 97.08 473.84 728.13 970.18 387.67 1121.12 378.78 1139.54 515.83 1013.26 656.53 1126.01 649.47
00025080 00000034 696.37 98.83 473.26 727.48 967.47 388.23 1115.16 378.19 1137.06 516.45 1010.40 657.61 1120.31 650.05
00025081 00000035 693.16 98.22 469.46 729.25 962.32 388.41 1108.45 377.35 1134.70 516.89 1006.07 658.41 1116.17 650.02
00025082 00000036 686.49 99.85 469.78 724.43 955.59 391.36 1101.46 380.42 1127.58 516.14 1001.49 657.97 1112.44 649.41
00025083 00000037 677.84 96.16 471.31 729.02 950.09 392.39 1096.43 382.56 1121.19 517.50 994.40 658.70 1107.66 650.76
00025084 00000038 675.37 99.38 465.47 725.54 943.49 395.11 1091.21 384.70 1111.88 518.51 987.07 658.43 1101.76 649.46
00025085 00000039 669.88 97.82 465.90 724.33 938.35 396.56 1085.27 384.54 1105.63 520.41 981.66 657.64 1095.93 647.30
00025086 00000040 671.45 99.79 462.35 713.01 926.41 402.46 1085.98 384.19 1103.74 512.36 983.71 655.40 1099.32 639.30
00025087 00000041 666.28 98.64 465.55 715.33 926.40 394.83 1090.07 383.06 1100.30 516.41 972.17 659.07 1094.83 649.59
00025088 00000042 663.68 100.22 463.82 717.09 923.49 395.84 1085.48 383.87 1097.29 517.26 967.50 660.01 1090.79 650.50
00025089 00000043 660.55 100.83 463.41 717.31 919.12 395.53 1081.69 384.17 1092.47 517.67 962.71 659.05 1087.60 649.78
00025090 00000044 656.55 100.47 464.75 719.23 916.91 394.13 1077.87 383.55 1090.15 517.05 960.77 658.51 1085.00 649.99
00025091 00000045 654.04 101.62 466.02 718.60 914.56 393.29 1073.83 382.20 1088.09 515.77 958.78 657.65 1082.88 648.82
00025092 00000046 650.78 101.92 468.03 719.59 912.57 392.83 1072.24 381.33 1085.97 515.34 956.32 657.49 1080.78 648.46
00025093 00000047 649.75 102.53 466.41 719.55 910.57 391.96 1069.11 381.31 1083.02 515.91 955.13 657.24 1079.24 648.90
00025094 00000048 647.25 103.55 466.95 716.34 908.20 391.85 1065.72 381.17 1080.28 515.00 953.88 656.32 1077.27 648.02
00025095 00000049 643.68 99.97 467.84 720.88 906.96 391.26 1062.69 381.19 1078.92 514.57 953.18 656.02 1074.95 648.16
00025096 00000050 642.21 99.16 466.77 723.01 905.30 391.01 1061.05 379.76 1078.38 514.39 951.14 656.22 1073.43 647.38
00025097 00000051 641.94 99.51 465.68 722.46 902.82 391.16 1059.18 379.51 1076.29 513.79 950.42 656.70 1073.24 647.59
00025098 00000052 639.81 99.97 467.37 722.25 901.35 390.56 1058.02 378.92 1075.55 513.89 949.59 657.27 1072.72 648.25
00025099 00000053 638.75 99.46 467.54 723.60 900.01 391.64 1056.43 379.44 1073.77 513.33 948.26 657.67 1070.96 648.01
00025100 00000054 638.92 98.38 466.68 725.99 899.17 392.70 1055.16 379.92 1072.21 513.24 947.01 658.16 1069.17 647.97
00025101 00000055 635.85 97.11 468.24 728.56 898.05 391.94 1053.69 377.61 1071.80 513.10 945.20 658.36 1066.82 646.93
00025102 00000056 635.53 96.30 466.89 727.65 897.36 392.00 1052.60 376.43 1071.23 512.61 945.04 657.95 1065.32 645.58
00025103 00000057 634.26 95.16 466.52 727.85 897.14 391.44 1050.67 376.17 1070.46 512.53 944.81 656.96 1063.77 645.00
00025104 00000058 633.19 95.13 467.44 728.95 897.12 391.55 1050.09 375.56 1070.75 512.32 944.78 657.20 1063.42 644.63
00025105 00000059 633.86 95.99 466.73 727.71 897.17 391.12 1049.58 375.74 1070.47 512.16 945.18 656.92 1063.24 644.91
00025106 00000060 632.95 95.30 467.89 728.91 897.77 390.79 1049.93 375.88 1071.27 511.90 945.36 657.02 1062.86 645.41
00025107 00000061 633.86 95.91 466.52 728.31 897.31 390.62 1050.22 375.72 1070.92 511.98 945.03 657.25 1063.12 645.67
00025108 00000062 634.14 96.39 466.65 727.25 897.78 391.16 1050.97 376.51 1070.70 512.71 945.11 657.19 1063.52 645.78
00025109 00000063 633.60 96.44 468.44 728.89 897.87 391.49 1051.20 376.85 1071.61 512.16 946.32 657.87 1064.88 646.39
00025110 00000064 633.95 96.14 468.52 729.71 898.02 391.42 1052.24 377.43 1071.94 512.16 946.12 657.81 1065.79 646.76
00025111 00000065 633.96 95.90 468.75 730.65 897.99 391.46 1052.63 377.76 1072.11 512.04 946.36 658.09 1066.31 647.20
00025112 00000066 634.32 96.89 468.29 727.09 898.36 391.12 1052.87 377.32 1071.98 512.12 946.94 657.44 1066.35 646.54
00025113 00000067 634.95 97.52 467.25 723.61 898.50 391.41 1052.98 377.75 1071.95 511.91 947.02 656.20 1066.17 645.40
00025114 00000068 635.65 98.30 466.21 720.86 898.46 391.52 1053.19 377.84 1071.62 511.71 946.69 655.01 1066.26 644.18
00025115 00000069 634.99 98.54 466.88 720.02 898.31 391.50 1053.23 377.52 1072.16 511.81 946.85 654.89 1066.69 643.88
00025116 00000070 635.62 98.86 466.17 718.10 898.63 391.33 1053.41 377.73 1072.12 511.88 946.70 654.00 1066.68 643.37
00025117 00000071 635.36 99.58 466.12 717.25 898.34 391.34 1053.29 377.74 1072.02 512.39 945.97 654.28 1066.27 643.66
00025118 00000072 635.25 99.54 466.33 717.39 898.37 391.13 1053.17 377.69 1072.14 512.33 946.49 654.29 1066.49 643.84
00025119 00000073 635.68 98.97 465.92 717.63 898.49 391.53 1052.56 378.06 1071.63 512.05 946.87 653.86 1066.29 643.42
00025120 00000074 635.55 99.08 465.94 717.37 898.52 390.98 1052.48 377.78 1071.59 511.95 946.68 653.75 1065.99 643.52
00025121 00000075 635.51 99.53 466.07 716.70 898.43 391.21 1052.30 377.63 1071.45 512.25 946.56 653.68 1065.83 643.17
00025122 00000076 635.10 99.85 466.57 715.93 898.71 390.25 1052.65 377.85 1071.39 512.03 947.08 653.35 1065.91 643.75
00025123 00000077 639.69 104.48 465.69 704.45 892.54 400.59 1048.90 378.90 1065.24 513.49 949.31 656.69 1064.51 639.68
00025124 00000078 638.77 104.19 466.19 705.28 891.92 400.77 1047.77 378.73 1064.99 513.27 948.73 656.85 1063.56 639.66
00025125 00000079 634.99 99.15 465.41 716.49 898.61 391.33 1050.01 378.29 1070.61 512.56 947.15 654.22 1063.13 644.28
00025126 00000080 638.72 104.32 465.24 704.17 890.88 401.22 1046.85 379.05 1063.22 513.65 948.11 657.12 1062.15 639.83
00025127 00000081 633.09 99.09 466.74 717.27 897.20 392.14 1047.73 377.95 1069.40 513.19 946.20 655.13 1061.15 644.25
00025128 00000082 633.31 99.93 466.14 715.79 895.92 393.57 1046.36 378.54 1067.28 513.68 945.69 655.36 1060.35 643.81
00025129 00000083 631.91 100.24 466.41 713.96 895.33 393.28 1044.09 378.67 1066.32 513.80 944.95 654.49 1058.01 643.39
00025130 00000084 632.07 100.07 466.34 714.31 894.98 393.98 1044.25 379.01 1065.87 514.08 945.54 655.03 1058.57 643.59
00025131 00000085 631.99 99.92 466.57 714.80 895.20 393.78 1044.16 378.91 1066.27 514.07 945.76 655.20 1058.75 643.92
00025132 00000086 632.21 100.38 466.58 714.92 895.40 393.48 1044.34 378.73 1066.35 513.95 945.13 655.19 1058.18 644.02
00025133 00000087 633.09 100.34 466.29 714.30 896.22 393.09 1046.05 378.68 1066.84 513.29 945.97 654.76 1059.85 643.68
00025134 00000088 633.95 100.55 466.13 714.06 896.68 393.02 1047.50 378.71 1067.94 513.70 946.18 654.68 1061.00 643.67
00025135 00000089 634.82 101.17 466.20 714.21 897.67 392.90 1050.23 379.03 1068.97 514.00 946.73 655.48 1062.53 644.68
00025136 00000090 635.23 102.86 466.45 713.44 898.84 394.29 1051.09 380.80 1069.66 514.14 946.96 655.64 1063.46 645.07
00025137 00000091 636.52 103.39 466.18 712.81 899.35 394.41 1052.76 381.51 1070.42 514.25 947.78 655.87 1065.39 645.70
00025138 00000092 636.81 104.43 466.76 713.52 899.29 394.73 1052.68 381.68 1070.91 514.33 948.30 656.96 1066.31 646.79
00025139 00000093 637.37 104.83 466.21 712.69 899.34 394.89 1052.94 381.66 1071.08 514.12 948.36 656.85 1066.80 646.53
00025140 00000094 636.00 104.50 467.89 713.99 899.30 394.79 1053.09 381.38 1071.28 514.21 947.35 657.50 1065.40 647.03
00025141 00000095 635.25 104.75 467.00 716.02 898.11 395.41 1050.33 380.91 1069.73 516.03 946.71 659.37 1063.83 648.07
00025142 00000096 634.10 106.79 468.81 715.23 896.64 397.60 1049.91 383.40 1068.38 517.76 946.21 661.65 1063.58 650.61
00025143 00000097 632.17 109.11 469.58 716.50 891.35 401.74 1047.60 384.38 1064.61 521.61 940.08 665.83 1061.46 652.20
00025144 00000098 621.03 117.48 472.89 728.34 887.42 407.01 1038.05 390.55 1060.32 531.86 928.97 677.96 1045.27 665.76
00025145 00000099 612.57 114.57 481.32 753.76 875.44 408.06 1044.77 398.56 1049.06 538.22 907.77 684.49 1043.51 675.49
00025146 00000100 608.70 118.49 479.02 760.38 868.50 414.15 1032.78 406.44 1044.09 544.32 896.27 691.26 1034.96 685.52
00025147 00000101 608.97 107.29 472.32 755.35 864.54 401.59 1031.59 399.27 1033.50 527.85 900.18 675.65 1038.77 672.88
00025148 00000102 600.20 102.15 476.16 748.16 857.85 391.42 1028.40 393.23 1030.27 519.16 888.16 661.74 1032.03 661.95
00025149 00000103 596.53 98.06 469.69 733.84 852.90 380.93 1021.03 387.31 1022.20 509.06 885.26 646.13 1024.66 649.48
CROP_BBOX: 315 0 1452 1044
