Video ID: 	j2S5_uRrONI
H: 	1080
W: 	1920
FPS: 	25.0

FRAME INDEX X0 Y0 W H [Landmarks (5 Points)]

00025711 00000000 921.36 112.86 468.72 610.26 1012.04 338.36 1223.47 348.90 1090.55 475.20 1025.38 557.26 1200.58 566.66
00025712 00000001 921.16 112.20 469.53 611.43 1012.03 338.27 1223.39 348.92 1090.25 475.22 1025.27 557.27 1200.52 566.78
00025713 00000002 921.54 111.60 469.65 609.43 1011.99 337.99 1223.47 348.52 1090.25 474.65 1024.91 556.59 1200.52 565.96
00025714 00000003 922.95 113.19 468.84 607.42 1012.68 337.10 1224.24 348.08 1090.70 473.93 1024.63 555.69 1200.95 565.47
00025715 00000004 923.74 114.10 469.60 608.91 1013.37 335.84 1225.48 347.23 1090.97 473.96 1024.91 555.61 1201.87 565.77
00025716 00000005 922.86 110.61 468.03 613.46 1013.52 336.43 1225.63 347.59 1092.35 474.27 1025.32 556.54 1202.24 566.49
00025717 00000006 922.69 109.64 469.17 614.58 1013.74 336.72 1225.52 348.31 1092.15 475.25 1025.56 556.94 1201.38 567.28
00025718 00000007 922.37 108.74 469.56 615.56 1013.69 337.14 1226.36 348.53 1092.42 475.68 1026.22 557.96 1201.92 568.12
00025719 00000008 922.25 109.89 469.76 614.20 1013.54 337.06 1226.37 348.55 1092.39 476.02 1026.00 557.85 1201.75 568.12
00025720 00000009 922.29 112.03 469.61 611.84 1013.59 337.24 1226.25 348.48 1092.65 475.90 1026.19 557.92 1201.74 567.95
00025721 00000010 923.50 110.82 469.17 612.60 1015.23 337.51 1225.98 350.18 1092.35 476.54 1026.72 556.89 1201.44 568.16
00025722 00000011 924.86 112.04 469.98 614.62 1017.74 343.64 1223.57 356.32 1090.93 476.03 1027.29 557.46 1202.91 568.62
00025723 00000012 928.14 113.37 469.86 617.09 1020.36 341.67 1227.20 356.25 1093.97 478.45 1030.23 557.21 1207.16 569.85
00025724 00000013 927.86 109.33 473.43 629.57 1024.82 342.08 1237.11 355.06 1105.43 482.01 1038.35 564.27 1215.73 575.57
00025725 00000014 925.13 110.14 478.68 635.73 1032.45 342.61 1249.17 354.94 1121.59 487.79 1047.79 569.77 1224.72 580.71
00025726 DELETE   925.22 114.70 484.61 637.23 1039.30 344.44 1259.25 356.29 1133.26 490.04 1056.61 574.73 1233.85 585.13
00025727 DELETE   928.23 109.46 482.83 640.15 1045.77 352.82 1270.68 359.27 1144.52 487.04 1061.43 586.46 1239.77 592.53
00025728 00000017 934.23 117.40 482.02 619.81 1055.18 353.49 1278.84 359.76 1153.32 489.15 1070.47 582.82 1244.18 589.03
00025729 00000018 938.70 113.00 475.97 624.19 1061.21 357.70 1282.37 362.89 1162.04 489.99 1076.30 583.29 1250.68 588.50
00025730 00000019 941.00 114.82 475.08 624.87 1062.92 358.14 1281.48 361.20 1164.98 490.05 1081.69 585.69 1254.10 589.13
00025731 00000020 942.07 109.82 477.14 632.61 1065.81 358.92 1283.64 360.78 1170.04 490.20 1086.97 587.84 1258.39 590.21
00025732 00000021 943.25 103.05 476.31 641.67 1068.57 362.04 1284.75 363.67 1174.58 490.35 1090.10 589.29 1262.62 591.20
00025733 00000022 944.37 109.16 476.65 635.96 1070.69 362.13 1287.13 364.72 1176.26 489.99 1090.37 589.17 1263.69 591.92
00025734 00000023 941.88 101.37 478.64 638.58 1071.56 362.86 1288.35 366.32 1178.10 489.83 1090.80 587.14 1263.37 590.48
00025735 00000024 942.12 103.24 477.97 635.06 1072.57 361.46 1288.21 364.47 1179.13 488.86 1091.55 584.67 1264.09 587.75
00025736 00000025 941.69 103.61 478.52 639.55 1072.05 361.93 1288.04 363.64 1180.01 489.61 1092.47 586.79 1266.59 588.71
00025737 00000026 939.51 105.60 480.64 641.98 1072.77 362.19 1287.68 363.37 1181.74 490.00 1094.46 588.41 1267.14 589.94
00025738 00000027 938.95 103.42 481.61 647.48 1073.35 362.64 1288.26 363.19 1183.61 490.52 1095.64 590.48 1268.74 591.47
00025739 00000028 938.46 103.82 482.18 648.47 1072.79 362.40 1288.10 362.41 1183.47 490.28 1096.92 592.34 1269.69 592.93
00025740 00000029 936.41 105.99 483.82 647.44 1065.24 359.87 1282.04 358.80 1175.49 489.62 1091.74 593.91 1263.18 593.67
00025741 00000030 938.11 112.89 477.49 633.83 1059.94 354.61 1277.68 358.58 1162.32 485.86 1079.66 588.07 1249.98 592.25
00025742 00000031 931.83 111.89 482.28 633.28 1049.47 346.14 1272.08 352.40 1147.53 480.52 1066.51 583.74 1241.13 589.76
00025743 DELETE   933.34 109.37 470.93 635.11 1036.01 342.49 1264.16 350.09 1131.87 479.61 1054.52 582.84 1237.33 589.37
00025744 00000033 931.69 108.26 468.72 625.55 1027.32 336.57 1246.03 348.03 1114.65 480.49 1040.84 569.57 1217.91 579.95
00025745 00000034 930.99 110.82 465.09 625.39 1019.97 336.98 1234.27 348.88 1098.86 475.99 1030.57 566.70 1203.23 577.74
00025746 00000035 925.88 109.13 468.04 620.73 1015.22 337.93 1227.89 348.82 1091.43 474.25 1025.47 564.69 1196.68 574.77
00025747 00000036 924.29 118.88 470.53 609.84 1012.42 338.19 1225.21 349.05 1088.03 475.87 1023.81 564.93 1194.59 574.83
00025748 00000037 922.65 118.12 470.78 610.62 1011.21 340.18 1224.22 349.75 1088.03 476.31 1024.47 566.37 1195.07 575.14
00025749 00000038 922.35 120.00 469.77 609.59 1010.95 340.26 1224.83 350.19 1088.58 477.95 1024.49 566.30 1195.49 575.43
00025750 00000039 920.28 120.34 470.34 608.05 1010.55 339.89 1224.81 350.48 1089.62 477.94 1024.03 565.12 1195.88 574.71
00025751 00000040 919.49 118.04 470.14 608.58 1009.60 340.36 1224.47 350.76 1089.89 478.22 1023.78 564.41 1196.63 573.74
00025752 00000041 919.43 116.44 470.33 609.55 1009.38 341.43 1223.98 351.59 1090.20 479.11 1023.90 564.23 1197.56 573.39
00025753 00000042 920.36 118.80 470.11 609.24 1010.15 342.82 1225.51 352.25 1091.26 479.64 1025.23 566.57 1197.25 575.16
00025754 00000043 921.88 117.66 468.54 609.62 1011.16 343.41 1226.20 352.96 1093.25 480.51 1026.72 567.32 1198.42 576.00
00025755 00000044 923.02 116.02 466.58 612.92 1012.53 344.79 1226.58 354.36 1094.47 480.88 1027.59 567.69 1198.55 576.43
00025756 00000045 923.38 120.29 466.63 609.10 1013.68 344.63 1227.93 355.23 1095.31 481.88 1028.02 568.22 1199.18 577.80
00025757 00000046 923.82 120.07 466.49 609.08 1014.50 344.33 1228.95 355.27 1096.71 483.52 1028.73 568.54 1199.54 578.44
00025758 00000047 924.97 119.50 465.77 609.56 1015.43 344.43 1229.57 355.56 1096.91 482.69 1029.13 568.58 1200.46 578.67
00025759 00000048 925.48 121.50 466.56 607.33 1016.19 343.42 1230.25 355.72 1097.03 484.38 1029.65 568.11 1201.12 579.13
00025760 00000049 925.83 121.90 467.45 607.16 1015.73 343.13 1230.12 355.03 1096.64 483.57 1029.62 567.76 1201.64 578.46
00025761 00000050 925.38 121.81 467.69 608.23 1015.94 343.36 1230.32 354.89 1096.99 483.34 1030.37 568.22 1201.93 578.61
00025762 00000051 924.97 120.98 466.94 610.05 1016.35 344.90 1230.01 355.41 1097.39 483.12 1031.17 569.12 1201.74 578.70
00025763 00000052 924.87 119.90 466.16 612.07 1016.33 345.13 1229.85 355.50 1097.40 483.92 1032.01 570.20 1201.82 579.67
00025764 00000053 924.79 119.47 468.65 613.44 1016.36 344.05 1230.29 354.52 1097.78 484.18 1032.42 569.89 1202.82 579.48
00025765 00000054 926.03 123.05 468.56 610.28 1017.85 343.21 1232.06 354.50 1099.66 484.92 1033.81 569.17 1203.61 579.46
00025766 00000055 926.42 123.50 468.31 610.19 1018.86 342.11 1233.84 353.56 1101.48 484.16 1035.02 569.20 1205.87 579.55
00025767 00000056 928.32 122.88 468.07 609.75 1020.29 341.57 1235.16 353.55 1102.50 484.27 1036.22 568.32 1207.02 579.13
00025768 00000057 930.12 123.90 466.95 608.40 1021.54 340.06 1237.82 353.17 1104.89 485.14 1037.19 567.99 1208.93 579.70
00025769 00000058 929.82 120.68 467.62 612.71 1022.43 340.51 1238.19 353.75 1105.57 486.36 1037.32 567.69 1210.30 579.61
00025770 00000059 930.16 118.72 471.86 615.54 1023.85 346.40 1237.07 357.83 1106.17 485.27 1037.91 569.47 1211.63 579.65
00025771 00000060 931.39 119.76 470.14 615.93 1024.63 347.11 1235.84 360.73 1105.37 485.16 1038.21 568.70 1211.98 580.46
00025772 00000061 930.40 121.07 471.32 616.50 1024.24 346.51 1237.10 360.55 1105.29 487.12 1038.01 569.40 1213.27 581.63
00025773 00000062 929.74 115.06 471.15 623.03 1023.53 345.80 1236.84 359.41 1105.19 490.49 1038.99 571.27 1212.57 583.23
00025774 00000063 928.44 117.12 470.51 620.02 1022.96 344.55 1237.83 357.84 1106.26 491.47 1039.06 571.14 1212.64 582.91
00025775 00000064 927.47 119.43 470.04 616.39 1022.50 343.34 1237.82 356.07 1107.00 490.73 1039.81 570.15 1211.87 581.48
00025776 00000065 928.08 120.51 468.72 613.43 1021.63 341.59 1238.45 354.38 1106.56 489.45 1038.64 568.85 1211.34 580.36
00025777 00000066 927.83 121.54 468.22 613.04 1022.69 340.08 1238.63 353.47 1106.62 488.08 1038.35 566.94 1210.21 579.03
00025778 00000067 928.47 121.52 468.52 612.28 1022.74 339.09 1237.13 353.06 1104.18 487.24 1038.58 566.21 1206.91 578.88
00025779 00000068 928.97 121.16 466.90 608.75 1023.11 339.25 1236.30 352.36 1104.62 486.40 1039.42 565.68 1205.49 577.59
00025780 00000069 927.49 118.75 468.87 613.14 1022.14 338.97 1236.92 351.06 1104.76 485.62 1039.95 568.45 1204.99 579.64
00025781 00000070 924.22 118.48 473.11 619.62 1022.28 339.35 1237.18 350.57 1104.60 484.72 1040.13 571.06 1203.99 581.70
00025782 00000071 922.70 120.17 474.08 623.78 1021.62 341.59 1235.76 351.67 1103.27 485.39 1039.80 574.92 1204.18 584.66
00025783 00000072 921.40 118.44 473.70 626.43 1018.44 344.90 1233.12 356.61 1099.37 488.80 1036.15 576.60 1199.74 587.60
00025784 00000073 919.43 119.64 475.11 631.28 1016.64 351.66 1230.04 367.30 1094.40 498.74 1030.82 582.27 1196.13 596.25
00025785 00000074 916.12 116.37 479.06 645.48 1013.81 357.99 1229.56 373.80 1093.74 508.73 1031.44 592.87 1199.70 606.88
00025786 00000075 915.97 119.45 478.30 648.99 1014.58 357.87 1229.78 370.81 1095.07 511.10 1035.12 594.89 1203.95 606.63
00025787 00000076 915.49 117.49 478.23 651.67 1013.59 358.26 1229.60 371.45 1094.51 510.51 1033.54 594.08 1206.06 605.88
00025788 00000077 915.64 119.97 478.00 647.07 1012.50 358.16 1228.86 371.01 1093.52 511.48 1033.37 593.38 1205.60 604.92
00025789 00000078 916.08 114.56 475.92 648.79 1012.23 363.21 1228.90 377.73 1094.23 517.63 1032.89 594.16 1205.41 606.92
00025790 00000079 915.16 121.25 476.58 640.59 1010.96 365.43 1229.58 381.98 1094.03 525.01 1031.11 595.86 1205.93 610.20
00025791 00000080 915.42 124.90 475.28 634.81 1009.85 365.86 1230.50 382.70 1094.82 526.75 1029.82 596.36 1205.23 611.03
00025792 00000081 917.12 128.36 474.52 631.40 1009.91 367.05 1229.42 382.64 1094.55 528.53 1029.88 596.00 1206.59 609.64
00025793 00000082 917.28 124.27 473.76 633.96 1010.18 367.62 1228.96 383.50 1094.36 527.37 1029.87 595.10 1206.41 608.92
00025794 00000083 917.22 122.55 475.37 634.99 1010.75 366.62 1229.13 382.67 1094.85 528.37 1029.99 594.36 1206.31 608.48
00025795 00000084 918.20 126.48 476.92 629.33 1010.44 365.06 1229.16 380.03 1094.63 527.12 1030.77 593.02 1207.66 606.25
00025796 00000085 919.84 126.01 475.77 629.91 1009.95 363.80 1228.71 378.99 1093.61 526.39 1031.12 590.60 1207.83 604.00
00025797 00000086 918.27 123.74 476.71 631.24 1011.57 362.26 1229.26 376.61 1095.52 522.28 1031.50 587.87 1208.09 600.45
00025798 00000087 918.73 122.27 476.28 628.27 1012.24 360.61 1229.45 374.32 1097.01 519.65 1032.95 585.55 1208.60 597.53
00025799 00000088 918.33 122.31 475.67 627.12 1013.66 360.98 1229.65 374.40 1098.57 518.80 1033.34 584.76 1208.53 596.48
00025800 00000089 917.79 121.98 476.33 626.11 1014.37 358.90 1229.51 373.16 1098.21 516.53 1032.77 581.59 1207.45 593.98
00025801 00000090 916.91 123.92 475.19 622.74 1015.96 358.24 1229.17 372.75 1099.04 514.22 1032.86 577.95 1207.83 590.38
00025802 00000091 917.07 120.57 474.10 625.38 1016.95 357.96 1229.55 372.72 1099.66 512.71 1032.32 576.57 1208.16 589.19
00025803 00000092 916.96 121.15 475.05 626.10 1016.86 357.97 1229.49 372.10 1099.75 512.84 1031.81 575.99 1208.51 588.17
00025804 00000093 916.89 121.06 474.94 626.66 1016.98 358.32 1230.03 372.24 1099.96 511.82 1031.78 576.70 1209.57 588.61
00025805 00000094 917.64 123.00 474.81 622.63 1016.21 357.57 1230.84 371.18 1099.75 509.89 1030.79 575.02 1212.00 586.66
00025806 00000095 917.20 124.43 474.41 620.63 1016.39 355.56 1231.79 369.90 1100.33 508.64 1031.48 573.23 1213.94 585.42
00025807 00000096 917.24 126.45 474.81 618.13 1016.78 354.05 1231.77 368.47 1100.73 507.55 1032.52 572.02 1214.00 584.29
00025808 00000097 917.42 125.94 472.56 617.67 1016.78 353.69 1231.54 367.86 1100.85 505.97 1033.04 571.15 1215.05 583.10
00025809 00000098 917.71 129.44 472.34 614.98 1017.51 353.69 1232.18 367.74 1102.10 506.66 1033.83 571.98 1215.44 583.87
00025810 00000099 918.32 128.20 472.71 616.62 1018.26 353.31 1232.58 367.23 1102.84 506.65 1034.52 571.97 1216.88 583.76
00025811 00000100 918.22 128.04 473.26 616.63 1018.43 353.40 1232.91 366.72 1103.16 505.32 1034.97 571.29 1218.49 582.51
00025812 00000101 919.03 126.82 473.19 617.50 1019.42 352.57 1233.63 365.91 1103.98 505.26 1036.91 570.71 1220.43 581.88
00025813 00000102 920.47 126.81 473.89 618.13 1020.46 352.80 1235.11 366.81 1104.88 507.50 1037.86 571.83 1220.11 583.73
00025814 00000103 921.91 127.48 473.38 617.20 1021.55 352.21 1237.49 366.83 1107.03 508.59 1038.93 571.83 1221.26 584.27
00025815 00000104 923.09 126.08 474.73 619.86 1020.97 352.18 1237.68 366.09 1106.32 508.17 1039.26 572.87 1221.82 584.76
00025816 00000105 923.39 125.67 474.85 621.29 1021.19 352.43 1238.31 366.64 1106.55 508.99 1038.92 573.52 1222.61 585.68
00025817 00000106 922.85 125.40 476.24 622.58 1020.77 353.08 1237.85 366.79 1105.97 509.87 1039.64 574.55 1222.56 586.28
00025818 00000107 924.18 126.42 477.97 621.58 1022.82 358.92 1238.36 374.42 1105.81 510.97 1038.97 575.44 1221.78 588.72
00025819 00000108 921.92 119.82 481.85 634.17 1026.02 369.47 1236.85 385.50 1108.21 514.09 1040.59 579.10 1224.13 592.31
00025820 00000109 923.32 125.58 480.05 629.71 1030.23 374.40 1240.88 389.41 1115.52 519.18 1043.64 582.10 1226.91 594.53
00025821 00000110 925.11 123.37 481.17 637.30 1033.84 377.32 1243.77 388.67 1121.57 525.70 1048.82 586.95 1234.48 596.39
00025822 00000111 929.19 122.66 472.81 639.16 1041.93 377.55 1258.22 384.23 1130.67 516.81 1050.16 593.68 1241.82 600.37
00025823 00000112 929.73 127.68 476.71 635.07 1040.60 377.85 1257.27 388.50 1134.72 524.84 1055.48 593.58 1242.81 602.60
00025824 00000113 933.94 122.91 473.67 643.14 1047.65 379.96 1269.99 386.60 1142.88 516.87 1057.29 598.27 1252.68 604.70
00025825 00000114 935.77 119.81 470.46 648.44 1052.13 380.65 1272.15 385.50 1151.57 516.58 1063.76 599.89 1256.14 604.95
00025826 00000115 935.23 122.67 474.28 649.95 1055.25 378.83 1274.01 385.01 1154.83 520.01 1067.86 601.54 1257.11 607.83
00025827 00000116 937.15 121.45 473.39 649.96 1057.19 379.52 1276.52 384.13 1159.20 519.00 1072.99 603.47 1259.84 608.27
00025828 00000117 937.84 125.64 476.34 643.68 1059.08 378.54 1278.60 380.73 1163.13 519.23 1077.14 601.98 1263.75 604.91
00025829 00000118 939.12 120.66 477.12 649.49 1061.05 379.16 1280.03 380.49 1165.89 518.44 1080.13 601.60 1266.57 603.74
00025830 00000119 940.81 123.09 476.08 644.55 1063.63 378.47 1281.42 379.06 1168.79 517.62 1083.62 601.33 1267.15 602.88
00025831 00000120 940.83 118.34 478.43 649.71 1065.68 379.36 1282.83 379.13 1171.36 517.36 1084.41 599.92 1269.36 600.86
00025832 00000121 942.27 115.01 476.83 652.62 1066.47 379.71 1283.13 378.78 1172.26 516.42 1085.14 600.33 1269.68 600.60
00025833 00000122 941.79 112.18 478.50 655.18 1066.96 379.40 1283.16 378.26 1172.79 515.57 1086.06 600.95 1269.64 600.94
00025834 00000123 942.01 111.72 478.55 655.33 1068.15 379.42 1283.71 378.92 1173.50 516.50 1087.04 600.51 1269.77 601.01
00025835 00000124 941.37 114.03 480.38 653.40 1068.14 379.24 1284.74 378.12 1174.09 516.29 1087.90 600.55 1271.33 600.57
00025836 00000125 941.84 114.08 479.38 651.86 1068.81 379.26 1284.64 378.38 1174.81 515.41 1088.16 600.02 1270.70 600.22
00025837 00000126 942.67 112.73 478.23 653.06 1068.66 379.30 1284.45 377.67 1174.64 514.86 1088.15 599.74 1271.58 599.39
00025838 00000127 941.81 108.38 479.49 657.26 1067.64 378.57 1283.92 377.56 1173.46 514.68 1087.31 598.86 1271.49 598.94
00025839 00000128 942.57 110.26 479.35 654.25 1067.23 377.23 1284.05 376.26 1172.74 513.74 1086.74 598.58 1270.99 598.72
00025840 00000129 943.64 111.07 477.22 651.86 1067.26 376.59 1284.09 375.87 1172.45 512.96 1086.06 597.40 1270.40 597.78
00025841 00000130 943.14 108.82 477.63 652.56 1065.92 376.39 1283.42 375.91 1170.74 512.77 1085.37 597.70 1269.87 598.16
00025842 00000131 943.09 110.47 476.39 649.00 1064.28 374.10 1281.84 375.12 1168.74 513.08 1086.00 599.08 1266.00 600.49
00025843 00000132 943.46 111.29 475.75 649.25 1061.94 371.57 1277.01 374.29 1164.18 510.72 1084.90 601.71 1259.92 604.36
00025844 00000133 941.90 110.08 475.62 648.49 1059.47 370.98 1276.84 374.51 1162.32 509.49 1082.97 602.73 1258.08 605.99
00025845 00000134 941.06 116.65 472.07 643.03 1056.36 370.44 1274.33 374.85 1157.95 508.30 1078.93 604.56 1253.21 608.77
00025846 00000135 938.27 110.39 474.70 651.06 1051.78 378.89 1272.46 385.27 1148.71 510.10 1068.64 605.25 1247.60 611.11
00025847 00000136 936.77 115.28 471.86 651.29 1044.65 379.72 1264.00 384.91 1136.76 517.58 1061.53 611.08 1237.62 616.38
00025848 00000137 928.41 114.30 471.06 661.46 1033.58 380.81 1253.87 390.17 1121.68 526.81 1051.21 618.84 1224.65 627.72
00025849 00000138 918.23 140.67 475.21 646.02 1026.10 387.27 1243.20 407.48 1114.15 546.00 1049.66 618.07 1220.55 634.83
00025850 00000139 919.51 147.38 471.96 629.52 1020.03 385.90 1238.64 404.64 1108.64 547.09 1045.24 616.64 1217.39 632.41
00025851 00000140 918.10 142.58 475.13 636.13 1015.96 384.42 1236.74 402.11 1104.67 550.62 1042.06 618.25 1216.44 633.11
00025852 00000141 916.67 145.18 475.21 634.25 1013.79 382.08 1235.78 402.44 1100.92 547.43 1038.11 617.10 1211.23 634.05
00025853 00000142 917.95 154.11 472.40 627.87 1011.98 383.86 1232.57 402.55 1098.55 550.23 1038.20 620.91 1210.70 636.29
00025854 00000143 917.52 154.43 478.44 633.26 1013.99 385.28 1232.56 396.91 1100.23 547.66 1038.27 619.58 1208.79 629.76
00025855 00000144 917.87 157.84 477.88 630.95 1014.40 386.89 1233.32 396.94 1102.72 550.96 1038.77 619.27 1216.39 627.95
00025856 00000145 915.40 137.74 478.40 649.82 1013.89 385.26 1234.32 402.61 1101.50 554.51 1040.20 619.30 1219.17 633.58
00025857 00000146 915.58 139.71 478.14 645.32 1013.60 385.40 1235.10 402.46 1101.92 553.77 1038.95 616.94 1220.04 631.01
00025858 00000147 917.03 143.15 474.66 639.79 1014.90 385.79 1235.04 402.49 1102.30 553.83 1039.03 615.11 1222.80 628.76
00025859 00000148 916.63 145.40 476.39 638.17 1015.60 385.45 1236.27 402.71 1103.94 553.07 1039.93 614.91 1223.02 629.00
00025860 00000149 916.42 139.32 477.70 644.78 1016.71 384.86 1236.97 403.17 1104.84 552.06 1040.04 614.21 1222.27 629.31
00025861 00000150 916.67 144.54 477.86 640.80 1017.33 385.28 1237.12 401.79 1105.81 550.89 1040.57 613.92 1223.95 627.50
00025862 00000151 921.06 147.28 478.60 645.41 1019.06 379.48 1240.06 395.23 1105.16 546.23 1036.59 608.55 1221.50 621.56
00025863 00000152 920.91 146.40 479.21 647.10 1018.81 379.22 1240.23 395.22 1105.08 547.55 1037.06 608.61 1221.72 621.81
00025864 00000153 920.62 145.54 479.75 645.62 1018.59 380.09 1240.14 395.78 1105.29 548.12 1037.72 608.59 1222.85 621.46
00025865 00000154 920.21 145.19 480.05 646.34 1018.17 380.79 1239.49 395.00 1105.89 549.13 1038.21 609.09 1224.99 620.66
00025866 00000155 919.70 149.31 474.67 634.93 1018.32 385.86 1236.45 401.47 1105.72 550.94 1041.90 613.89 1225.56 626.69
00025867 00000156 919.74 147.58 474.89 636.05 1017.55 386.23 1235.95 402.28 1104.35 551.00 1041.10 614.27 1224.33 627.39
00025868 00000157 919.61 147.58 475.03 632.58 1016.65 386.09 1236.72 401.82 1105.17 551.07 1041.07 613.76 1224.92 626.56
00025869 00000158 918.60 138.87 476.85 640.79 1017.06 385.33 1238.14 401.78 1106.19 550.88 1042.24 614.21 1224.64 627.64
00025870 00000159 918.79 135.24 477.28 644.66 1017.16 384.91 1238.53 401.24 1106.58 549.80 1042.89 615.16 1223.00 628.64
00025871 00000160 920.15 130.58 475.36 645.42 1017.48 384.30 1239.01 401.29 1107.22 549.18 1042.40 613.78 1221.88 627.93
00025872 00000161 920.18 133.42 475.99 638.95 1017.16 383.99 1238.79 401.22 1106.80 548.42 1041.95 613.65 1218.93 628.15
00025873 00000162 920.40 133.00 475.91 638.21 1016.74 383.42 1238.71 400.93 1106.53 548.33 1041.12 612.83 1218.87 627.54
00025874 00000163 920.03 133.83 475.81 635.51 1016.26 383.17 1238.60 400.48 1106.64 548.60 1040.71 611.91 1219.48 626.45
