Video ID: 	So-jvaGWWoI
H: 	1080
W: 	1920
FPS: 	25.0

FRAME INDEX X0 Y0 W H [Landmarks (5 Points)]

00000531 00000000 302.98 202.73 435.41 613.05 566.41 412.82 713.24 438.08 719.71 526.33 593.33 648.03 701.55 666.21
00000532 00000001 309.32 215.01 426.22 606.53 576.72 415.92 715.22 443.51 729.81 528.85 601.88 649.88 705.82 670.28
00000533 00000002 315.26 204.03 420.38 616.02 582.65 416.92 716.21 444.98 732.90 527.96 605.76 650.70 707.82 671.81
00000534 00000003 317.43 206.12 420.12 613.80 585.67 416.85 719.75 446.82 736.38 526.30 608.67 650.67 710.94 673.58
00000535 00000004 318.19 192.86 418.12 620.83 583.30 417.24 716.37 447.90 734.63 513.16 610.08 644.10 716.17 667.36
00000536 00000005 316.07 184.74 415.30 616.38 578.96 400.38 707.54 435.62 728.05 493.19 608.44 626.04 709.57 652.41
00000537 DELETE   319.94 171.22 409.94 616.26 577.60 385.73 697.84 422.47 729.73 465.71 605.04 602.51 708.11 631.39
00000538 00000007 317.47 155.85 408.78 619.50 581.58 370.72 688.42 407.86 733.82 446.45 609.80 586.42 703.88 616.92
00000539 DELETE   307.34 169.74 409.56 613.98 576.04 382.48 691.80 434.51 724.44 462.31 592.49 588.92 692.60 631.55
00000540 DELETE   305.85 198.39 407.62 609.88 574.76 405.49 696.84 463.53 719.34 492.87 578.96 606.83 689.46 652.98
00000541 00000010 137.24 79.57 313.07 398.99
00000542 00000011 319.62 204.60 402.29 620.30 603.23 415.69 712.50 486.90 737.28 513.78 586.19 619.28 687.54 676.79
00000543 DELETE   336.70 203.63 398.25 619.71 620.71 408.65 729.72 475.29 752.56 515.65 592.74 619.94 697.13 673.46
00000544 DELETE   144.80 84.77 305.68 397.59
00000545 00000014 354.63 221.83 403.44 625.24 643.07 423.35 742.41 480.55 762.16 554.61 597.29 641.93 698.66 688.38
00000546 00000015 155.51 90.32 301.54 396.37
00000547 00000016 160.87 93.10 299.47 395.76
00000548 00000017 166.23 95.87 297.41 395.16
00000549 00000018 171.58 98.65 295.34 394.55
00000550 00000019 171.81 98.95 294.67 394.07
00000551 00000020 172.03 99.25 294.00 393.59
00000552 00000021 172.25 99.54 293.33 393.12
00000553 00000022 172.47 99.84 292.67 392.64
00000554 00000023 172.69 100.14 292.00 392.16
00000555 00000024 169.46 98.40 293.41 392.78
00000556 00000025 297.38 187.92 455.17 632.09 556.65 420.72 724.02 473.34 705.29 524.66 552.82 633.74 691.78 675.59
00000557 00000026 286.41 195.44 470.12 624.37 535.19 413.81 719.69 461.83 682.39 528.18 536.45 635.86 686.51 673.59
00000558 00000027 274.23 196.54 477.45 628.96 516.09 407.54 711.73 450.46 668.85 529.48 522.09 640.04 681.20 673.02
00000559 00000028 258.40 195.13 484.65 629.39 490.95 401.06 699.17 438.01 644.08 531.92 499.87 640.55 668.63 668.63
00000560 00000029 250.38 182.64 493.74 637.99 467.33 403.17 683.37 425.69 626.37 528.57 484.86 646.55 658.47 665.33
00000561 00000030 236.22 179.44 503.03 640.10 449.56 401.74 672.41 423.78 608.42 527.02 464.80 642.80 647.67 661.13
00000562 00000031 224.37 172.75 514.88 651.41 427.42 394.60 659.63 414.13 581.53 529.83 443.55 645.70 634.95 659.67
00000563 00000032 220.38 172.29 512.48 657.90 418.53 394.76 652.77 411.75 572.69 530.62 435.15 644.74 631.00 657.00
00000564 00000033 220.43 163.74 510.57 662.74 415.86 392.78 650.03 410.54 567.65 527.55 432.75 640.60 626.97 653.54
00000565 00000034 215.72 164.18 503.49 655.42 406.94 390.31 644.16 405.90 558.97 522.85 427.22 636.67 621.96 647.86
00000566 00000035 218.49 155.43 502.55 659.75 404.66 393.98 638.89 409.17 556.35 522.68 424.27 637.00 621.74 648.88
00000567 00000036 213.52 154.76 496.98 657.01 399.24 395.12 633.65 408.44 552.19 522.75 421.57 637.46 617.94 647.79
00000568 00000037 216.14 165.19 500.20 644.41 405.28 389.04 641.19 403.99 556.08 516.19 426.32 630.41 620.08 640.96
00000569 00000038 222.14 152.89 508.30 653.64 409.63 388.03 646.10 402.83 561.64 517.13 430.65 628.52 628.86 639.87
00000570 00000039 217.70 156.77 507.65 652.27 404.36 391.07 642.01 404.54 556.96 522.75 426.16 632.93 624.98 643.35
00000571 00000040 218.64 160.90 503.15 654.80 401.32 396.29 637.60 407.52 553.74 527.22 423.57 639.61 622.20 648.52
00000572 00000041 219.21 173.13 509.94 656.82 408.34 397.19 645.49 411.50 558.85 533.28 425.96 644.45 624.51 654.25
00000573 00000042 219.02 168.54 513.78 659.60 411.73 393.99 649.38 410.38 561.49 532.05 425.68 642.08 624.74 653.95
00000574 00000043 228.88 169.89 513.29 655.48 421.98 393.73 659.15 408.65 574.10 531.46 436.69 644.39 634.87 655.28
00000575 00000044 233.79 166.97 510.44 652.22 427.17 392.35 663.45 407.68 578.71 530.15 441.43 642.64 637.49 653.88
00000576 00000045 233.82 168.40 509.66 648.64 430.01 391.81 662.29 407.08 580.82 527.89 444.39 640.30 636.56 651.51
00000577 00000046 228.42 169.02 512.26 660.29 425.37 395.42 658.97 413.81 576.76 530.96 439.95 643.99 634.76 657.30
00000578 00000047 230.52 173.96 509.34 656.16 428.19 399.24 660.57 418.16 579.48 533.24 444.06 646.83 637.70 660.54
00000579 00000048 238.80 168.35 503.11 647.64 436.20 396.71 664.60 412.16 585.65 529.20 451.55 642.40 639.03 653.54
00000580 00000049 231.67 170.14 506.10 641.56 431.02 391.41 659.75 406.50 583.49 522.08 448.41 635.91 636.19 646.75
00000581 00000050 229.91 171.19 506.47 639.74 430.50 390.57 659.19 404.47 584.27 520.63 448.66 635.34 636.88 645.24
00000582 00000051 233.04 168.48 504.67 641.49 433.50 390.83 660.66 403.66 587.01 516.53 451.48 633.99 639.04 642.96
00000583 00000052 239.63 160.07 502.17 641.65 437.96 386.26 667.17 399.23 593.01 508.62 452.91 624.76 645.83 634.20
00000584 00000053 244.22 144.34 494.60 643.32 445.68 370.83 672.79 388.59 604.48 496.22 463.29 609.03 654.44 622.59
00000585 00000054 244.07 144.70 486.42 634.06 446.03 365.42 672.44 382.61 607.78 483.11 467.10 602.53 657.22 615.44
00000586 00000055 247.97 152.04 482.66 619.40 457.12 364.24 676.43 383.46 621.95 475.23 478.77 594.38 663.86 608.27
00000587 00000056 244.17 149.47 480.48 618.11 457.99 362.36 672.48 385.01 622.05 468.14 480.72 589.87 660.95 606.15
00000588 00000057 243.43 151.66 477.96 618.88 459.85 368.69 671.72 393.37 624.60 473.23 482.37 593.73 660.43 612.01
00000589 00000058 245.18 155.85 481.84 627.08 464.68 370.95 674.12 402.07 622.89 479.02 479.76 596.31 658.67 620.42
00000590 00000059 250.00 156.86 480.68 631.48 465.18 378.69 672.32 405.97 625.21 486.09 479.79 608.49 652.84 629.42
00000591 00000060 254.95 156.80 485.28 635.28 480.04 381.19 688.40 410.95 636.52 494.14 489.61 607.86 663.86 631.12
00000592 00000061 263.42 173.15 484.40 623.87 486.91 380.97 701.23 409.79 645.06 495.16 501.46 611.64 678.74 634.02
00000593 00000062 262.29 180.59 490.81 621.63 487.13 382.95 705.94 410.62 646.47 505.17 502.32 619.90 679.50 641.07
00000594 00000063 270.59 181.70 493.46 626.48 493.68 385.50 712.42 409.00 650.37 518.73 508.27 627.86 685.64 645.69
00000595 00000064 271.02 172.12 497.05 641.26 492.94 385.90 716.34 408.72 652.96 520.65 508.16 631.96 689.59 649.37
00000596 00000065 267.74 167.53 499.01 641.58 489.30 383.99 713.73 405.04 649.58 518.09 505.83 629.12 687.19 644.72
00000597 00000066 271.85 163.43 497.05 635.99 491.94 379.58 715.25 400.98 652.25 506.71 506.45 618.97 690.81 635.27
00000598 00000067 272.99 155.47 494.59 640.11 493.50 375.60 713.85 397.94 653.52 500.02 507.25 612.49 691.59 629.93
00000599 00000068 266.70 156.83 494.91 631.94 484.73 376.05 703.10 400.31 642.63 499.97 496.87 606.67 683.13 625.68
00000600 00000069 258.17 156.45 492.98 632.33 474.80 375.80 694.30 397.42 634.35 495.60 489.10 607.90 675.69 624.64
00000601 00000070 252.92 149.25 488.76 635.23 465.58 369.10 683.84 394.33 623.44 485.13 481.47 601.63 666.88 621.05
00000602 00000071 252.92 148.64 490.36 637.30 465.49 369.41 683.82 395.99 621.79 486.89 479.90 602.65 665.36 623.26
00000603 00000072 255.60 152.35 491.12 638.03 463.95 371.69 685.28 395.42 622.52 488.92 479.38 605.89 669.96 624.28
00000604 00000073 253.24 149.62 497.71 646.63 457.98 377.80 681.48 398.85 613.31 501.37 473.02 611.83 666.36 627.95
00000605 00000074 252.31 151.14 501.92 654.23 449.53 384.46 679.68 403.33 602.84 513.74 465.27 622.84 661.97 637.29
00000606 00000075 248.97 161.14 505.23 652.88 440.37 389.86 673.64 410.17 588.45 524.25 454.38 631.63 651.86 647.79
00000607 00000076 251.22 162.91 507.47 657.65 435.57 394.68 674.74 413.63 581.42 530.94 445.32 638.59 650.04 653.93
00000608 00000077 253.32 161.76 509.32 656.80 438.37 394.02 676.17 414.47 582.61 530.47 448.36 637.56 650.35 654.13
00000609 00000078 254.05 161.36 507.57 655.07 435.91 391.51 675.50 412.36 579.47 526.64 444.79 634.77 649.43 651.63
00000610 00000079 251.10 163.44 504.27 656.66 431.99 393.61 670.87 413.83 574.70 526.34 439.30 636.37 645.35 652.74
00000611 00000080 255.00 163.61 500.67 661.88 437.14 398.06 674.21 417.30 580.98 527.23 447.50 640.74 650.64 656.26
00000612 00000081 258.01 178.39 494.90 664.04 442.19 410.13 673.89 428.84 588.08 532.60 455.21 654.54 652.41 669.76
00000613 00000082 259.98 183.34 489.76 665.11 441.74 425.66 670.09 437.83 587.55 543.17 460.40 667.72 649.58 678.02
00000614 00000083 260.14 187.26 487.80 658.35 443.02 422.95 669.61 434.65 590.13 541.51 465.98 668.97 651.39 678.88
00000615 00000084 256.73 159.43 497.40 658.77 445.42 393.90 671.54 415.05 588.85 518.70 466.51 639.69 651.31 656.76
00000616 00000085 261.94 139.88 500.70 658.87 453.88 359.17 679.37 386.56 597.30 486.17 473.19 611.30 655.47 632.58
00000617 00000086 265.15 137.86 493.58 653.69 450.71 347.42 677.17 375.10 594.10 464.49 472.64 601.35 652.62 622.41
00000618 00000087 251.92 140.18 502.42 666.45 442.85 350.64 668.89 379.31 584.11 477.15 460.89 615.17 633.78 637.98
00000619 00000088 258.40 163.60 493.84 661.24 448.58 370.54 673.34 398.90 588.45 485.12 466.06 629.75 633.75 651.05
00000620 00000089 256.95 157.80 494.95 670.16 450.34 376.99 673.96 405.52 589.22 489.30 465.66 633.67 633.77 655.07
00000621 00000090 260.44 144.54 497.39 675.57 449.56 366.03 678.07 391.89 589.49 486.88 467.88 627.12 636.81 645.97
00000622 00000091 265.81 142.39 496.94 672.68 452.98 353.24 681.37 379.42 594.49 481.19 469.14 618.51 641.03 638.24
00000623 00000092 263.12 125.84 502.83 675.90 456.76 345.86 682.15 376.01 599.67 479.31 472.59 610.72 649.02 634.27
00000624 00000093 264.78 116.82 503.70 681.24 458.54 343.99 688.09 372.18 607.53 474.73 476.24 604.15 662.99 625.33
00000625 00000094 267.48 120.96 502.91 672.32 461.34 344.78 689.43 372.35 609.52 468.34 481.42 602.17 664.43 622.97
00000626 00000095 259.02 121.74 504.87 675.86 454.74 344.13 682.61 372.91 603.52 469.70 471.93 602.29 659.53 623.98
00000627 00000096 259.71 133.08 501.65 667.50 457.28 347.34 682.02 374.52 605.13 478.49 471.57 602.37 661.88 622.99
00000628 00000097 266.03 142.72 500.32 651.63 461.11 353.37 687.92 379.73 611.20 480.78 475.76 600.91 669.28 620.86
00000629 00000098 263.26 141.82 500.50 648.38 458.82 352.99 688.03 378.63 610.49 479.04 472.35 598.49 669.72 617.75
00000630 00000099 257.82 137.81 499.82 653.87 449.29 354.64 683.25 381.33 600.21 480.87 461.65 600.81 663.54 620.85
00000631 00000100 256.84 135.27 505.81 658.97 451.37 359.63 684.73 387.78 601.97 486.47 463.23 604.01 665.53 625.35
00000632 00000101 256.14 133.67 507.58 666.12 450.17 365.23 685.92 393.19 601.15 495.67 462.97 611.50 665.18 632.59
00000633 00000102 263.28 140.62 509.75 659.02 458.08 372.97 694.54 396.81 611.44 501.56 476.44 616.82 676.11 634.74
00000634 00000103 271.14 128.97 506.88 659.80 462.59 362.27 702.05 385.69 618.71 487.74 482.31 606.61 685.16 624.22
00000635 00000104 259.86 138.12 508.58 648.48 455.10 354.08 692.34 372.99 613.36 484.00 475.21 602.43 677.05 615.88
00000636 00000105 257.10 144.02 507.41 646.96 453.78 360.21 687.07 382.73 609.15 485.28 470.56 603.50 671.56 620.06
00000637 00000106 259.18 145.38 504.52 650.95 454.64 370.50 687.95 394.99 608.02 492.07 470.59 609.17 671.32 627.61
00000638 00000107 271.81 150.21 496.83 648.59 467.88 379.45 698.13 404.74 621.03 496.69 482.34 612.51 680.48 632.40
00000639 00000108 270.77 172.76 494.24 637.04 469.50 385.26 702.39 411.58 626.06 497.37 484.87 621.47 681.25 641.47
CROP_BBOX: 0 0 952 1017
