Video ID: 	OqymHbKFJ-c
H: 	1080
W: 	1920
FPS: 	25.0

FRAME INDEX X0 Y0 W H [Landmarks (5 Points)]

00059408 00000000 475.99 190.07 475.31 613.12 562.68 446.02 752.71 407.57 646.11 544.43 623.88 652.60 771.14 620.11
00059409 00000001 476.65 182.52 470.86 605.23 563.36 434.28 749.16 393.83 646.95 524.74 624.24 641.27 777.58 606.37
00059410 00000002 485.92 161.86 470.45 609.68 576.32 422.24 770.90 385.68 661.12 511.88 626.48 629.55 775.20 599.21
00059411 00000003 506.27 155.71 467.38 603.54 594.21 410.53 787.52 374.51 680.96 498.51 646.16 621.85 791.75 592.68
00059412 00000004 528.59 157.79 463.84 599.26 612.37 401.46 809.13 363.65 706.30 491.71 668.97 615.74 823.54 584.12
00059413 DELETE   538.01 159.80 465.00 605.10 630.78 402.37 825.96 370.48 725.97 495.39 686.16 617.79 838.90 590.64
00059414 DELETE   547.94 167.06 468.26 606.73 646.82 407.53 843.31 381.99 743.84 508.29 701.09 626.78 852.88 604.43
00059415 00000007 555.75 178.42 472.96 606.97 661.43 415.46 861.89 391.81 761.66 519.99 714.41 635.21 873.17 613.22
00059416 00000008 572.57 179.82 463.43 603.91 676.93 414.77 885.06 392.31 781.31 524.09 721.09 633.90 888.62 615.65
00059417 00000009 581.85 173.50 465.08 606.55 686.53 408.10 894.77 386.42 792.54 521.01 730.91 629.31 898.95 611.77
00059418 00000010 586.85 171.24 467.39 607.98 688.82 404.07 897.90 381.27 794.65 517.46 732.08 626.56 903.44 607.60
00059419 00000011 582.39 167.36 465.57 610.86 683.40 404.62 891.83 382.05 788.04 515.51 723.50 624.97 895.67 606.44
00059420 00000012 562.17 170.72 470.75 610.99 662.77 412.42 866.98 390.05 756.60 523.14 704.46 632.07 865.73 613.44
00059421 DELETE   542.58 176.41 470.27 607.77 636.97 417.56 831.85 391.51 728.12 526.14 690.15 636.79 844.17 614.38
00059422 DELETE   528.10 172.85 468.09 604.69 613.94 415.23 809.75 389.81 699.37 524.76 663.17 631.31 819.64 610.00
00059423 DELETE   527.16 157.84 461.33 610.37 599.49 415.66 785.15 390.24 666.37 515.78 645.84 623.94 788.44 603.39
00059424 00000016 527.58 155.61 456.06 606.85 594.58 413.30 771.61 386.83 652.35 503.80 638.55 617.68 773.47 596.21
00059425 00000017 531.59 144.51 447.77 608.92 589.75 406.63 764.30 376.83 647.61 497.69 634.99 613.56 767.92 589.84
00059426 00000018 531.36 144.99 447.04 594.69 592.60 401.82 764.18 371.51 641.89 480.41 630.34 600.49 764.58 575.67
00059427 00000019 533.23 136.80 447.39 599.75 592.22 399.29 768.37 365.69 645.73 476.50 628.85 600.58 771.40 573.26
00059428 00000020 539.23 129.85 450.33 604.01 594.06 392.20 768.47 363.75 645.49 479.18 635.66 596.68 767.37 573.74
00059429 00000021 541.44 138.33 449.95 595.83 601.18 394.97 778.73 364.17 655.71 478.16 639.05 599.35 780.75 574.56
00059430 00000022 546.25 126.93 460.30 614.60 611.19 382.93 786.13 362.25 661.50 479.82 652.54 594.84 782.25 578.04
00059431 00000023 554.31 119.35 457.28 617.94 622.12 376.81 802.71 353.55 680.38 470.77 661.36 587.33 800.50 568.05
00059432 00000024 561.14 114.27 463.83 608.53 642.50 370.83 831.05 350.17 712.08 454.95 679.11 577.02 821.77 560.24
00059433 DELETE   573.41 113.25 457.34 594.95 661.09 355.96 861.53 338.07 742.70 452.36 696.82 567.85 850.41 553.30
00059434 DELETE   588.32 121.09 460.25 589.54 688.93 352.76 888.50 333.58 781.78 448.86 732.96 566.95 888.77 551.88
00059435 00000027 595.40 123.47 466.11 583.36 711.97 354.66 910.84 335.15 814.61 445.60 762.38 561.29 920.22 545.54
00059436 00000028 605.01 124.88 471.96 585.58 739.29 357.28 942.74 334.42 860.31 442.89 796.50 571.18 945.50 548.66
00059437 00000029 628.62 115.15 462.77 598.55 764.67 354.97 967.52 334.76 882.04 441.85 812.89 566.04 971.36 551.10
00059438 00000030 652.34 117.24 455.21 583.29 794.78 351.83 991.32 332.69 917.70 434.05 844.70 556.35 1001.92 541.70
00059439 00000031 676.62 114.17 457.62 584.68 825.78 347.68 1025.25 326.13 960.16 433.11 875.04 557.86 1035.30 536.24
00059440 00000032 705.46 112.48 452.41 589.50 855.31 353.21 1052.73 335.84 985.10 432.65 899.21 555.99 1062.10 542.56
00059441 00000033 718.91 116.27 457.39 589.12 875.46 351.70 1074.92 334.03 1011.55 437.06 922.68 557.51 1086.15 544.07
00059442 00000034 732.84 128.99 454.68 588.76 893.05 350.77 1085.11 329.70 1031.09 439.91 946.58 565.65 1102.10 544.74
00059443 00000035 737.34 129.61 453.76 590.63 898.44 348.78 1090.15 328.38 1037.89 441.16 952.89 566.06 1105.78 545.82
00059444 00000036 737.05 128.73 452.91 590.94 897.58 348.45 1089.50 327.00 1037.72 441.19 951.80 565.44 1106.74 544.33
00059445 00000037 729.26 129.68 454.44 586.93 890.41 352.97 1080.67 329.01 1029.37 441.42 946.52 566.75 1098.66 543.53
00059446 00000038 712.38 118.96 455.75 592.17 866.77 359.32 1059.06 339.20 997.74 444.62 923.01 566.47 1074.36 550.90
00059447 00000039 692.40 128.43 462.14 594.84 846.64 365.36 1040.15 335.96 984.38 448.83 904.13 584.11 1054.40 556.42
00059448 00000040 673.24 139.32 453.97 594.11 820.35 374.22 1009.42 343.37 952.93 457.70 877.57 585.88 1028.22 557.88
00059449 00000041 652.27 144.43 452.71 600.24 792.15 380.84 985.01 352.63 919.22 466.23 845.80 591.10 1003.24 567.43
00059450 00000042 618.22 152.93 469.38 604.24 754.75 391.80 948.77 357.00 880.89 481.93 821.65 611.63 967.53 580.28
00059451 00000043 608.51 161.93 462.62 600.89 736.22 399.93 931.60 367.41 860.40 492.16 801.36 615.57 952.39 587.74
00059452 00000044 592.31 167.70 466.53 599.44 719.82 409.18 916.99 373.65 842.26 500.51 785.19 619.69 939.88 591.35
00059453 00000045 584.38 173.49 471.62 603.72 712.39 412.38 916.24 377.26 836.52 507.53 776.56 626.14 937.98 598.56
00059454 00000046 584.05 175.77 473.01 610.93 711.82 417.12 917.14 382.47 835.91 515.33 775.41 632.78 940.20 605.25
00059455 00000047 579.46 184.80 476.21 612.47 711.22 424.57 917.94 390.01 838.40 529.37 775.75 644.52 943.31 617.25
00059456 00000048 577.93 193.26 471.67 612.11 706.95 439.25 911.86 404.48 832.19 545.67 769.15 657.34 937.69 630.17
00059457 00000049 566.29 206.66 472.42 617.14 694.06 451.30 899.69 417.50 819.00 562.96 759.37 671.92 925.93 645.16
00059458 00000050 550.02 209.30 480.74 621.15 681.85 452.08 888.88 419.18 806.56 565.66 747.41 676.26 914.10 649.95
00059459 00000051 543.05 208.12 479.37 620.22 676.12 450.05 882.51 418.17 800.08 562.71 739.38 671.92 904.40 646.63
00059460 00000052 541.59 204.34 478.26 620.47 675.12 447.54 882.18 415.57 799.62 557.78 736.50 667.53 902.90 642.14
00059461 00000053 541.83 203.88 479.16 618.16 675.87 446.05 883.51 413.72 800.99 555.38 738.35 665.68 904.52 639.98
00059462 00000054 544.65 204.24 477.85 616.45 678.39 445.62 885.67 412.68 804.62 554.15 743.15 665.59 908.80 639.36
00059463 00000055 552.79 200.38 474.83 610.53 684.09 443.49 890.77 409.31 811.11 550.36 751.42 661.43 917.48 634.31
00059464 00000056 568.49 186.70 464.90 615.97 699.72 438.00 901.34 401.65 826.84 538.73 765.34 653.20 931.94 624.74
00059465 00000057 582.30 177.51 471.97 612.98 718.65 426.35 919.84 388.72 848.22 527.64 782.80 641.16 948.78 610.78
00059466 DELETE   602.60 167.71 467.25 613.04 743.98 414.43 945.68 380.37 879.03 518.84 803.91 631.70 967.78 602.70
00059467 00000059 630.55 157.93 467.87 611.04 771.52 408.41 973.83 375.96 902.62 501.80 827.23 618.68 994.40 592.48
00059468 00000060 648.19 160.21 460.80 602.06 795.26 404.10 992.28 370.38 933.10 495.67 853.75 613.32 1021.34 585.70
00059469 00000061 661.61 159.05 459.54 605.08 812.41 399.25 1008.14 365.12 955.23 493.19 871.33 611.02 1038.25 582.06
00059470 00000062 670.73 160.83 462.48 601.75 823.38 397.56 1021.93 364.79 965.33 491.77 880.96 609.97 1048.09 581.73
00059471 00000063 676.37 159.69 463.95 602.03 835.00 399.20 1033.05 364.08 978.63 491.99 893.55 613.15 1057.38 582.11
00059472 00000064 679.75 160.62 465.17 600.97 837.39 399.11 1038.28 363.11 983.78 489.57 898.74 614.15 1064.01 582.07
00059473 00000065 680.09 160.62 463.22 599.39 837.43 399.32 1037.26 363.36 983.44 488.50 898.59 612.95 1063.67 580.95
00059474 00000066 673.66 159.78 464.24 599.53 832.54 397.06 1031.43 362.95 976.73 489.07 890.99 609.49 1056.43 579.36
00059475 00000067 669.74 159.42 462.60 598.76 822.61 392.76 1020.88 361.12 963.36 485.46 881.33 605.51 1047.25 577.68
00059476 00000068 662.72 160.07 463.55 595.11 813.68 393.73 1012.81 360.51 956.20 484.08 872.53 603.85 1042.30 575.02
00059477 00000069 655.25 155.37 462.53 600.59 807.92 396.50 1005.44 361.41 950.50 485.10 866.25 605.29 1035.96 575.00
00059478 00000070 646.08 158.19 460.89 599.57 793.11 402.87 988.28 365.16 931.05 485.63 854.07 608.80 1022.25 577.38
00059479 00000071 632.22 160.24 462.87 602.29 777.42 413.11 971.95 371.52 914.68 493.42 839.71 614.37 1005.27 580.36
00059480 00000072 606.13 174.48 481.80 604.42 762.85 422.15 960.76 382.05 903.79 505.61 823.45 629.62 986.68 592.14
00059481 00000073 603.49 183.32 477.58 600.33 761.68 429.84 956.70 388.47 903.20 511.13 821.82 635.93 984.41 597.77
00059482 00000074 605.24 184.22 480.17 602.22 764.16 430.37 960.45 388.48 905.73 515.26 824.02 639.09 985.77 600.85
00059483 00000075 621.90 177.01 464.25 613.83 772.90 435.16 969.50 393.83 912.15 520.35 833.45 640.12 999.30 608.20
00059484 00000076 624.57 180.33 462.69 615.06 776.75 439.75 969.69 398.91 917.93 526.06 843.46 647.51 1003.70 616.28
00059485 00000077 618.75 184.88 465.88 614.89 775.17 445.16 967.13 403.59 917.10 532.96 843.52 652.52 1000.59 619.86
00059486 00000078 603.37 204.34 476.26 604.19 766.49 453.01 954.09 395.53 910.42 541.17 838.66 668.95 989.83 618.30
00059487 00000079 596.56 207.26 476.78 604.61 756.45 452.12 945.86 395.15 901.50 539.31 830.96 668.39 984.90 618.58
00059488 00000080 588.12 201.08 476.75 601.67 749.64 444.99 938.17 388.09 898.07 528.40 826.24 659.29 980.21 609.47
00059489 00000081 582.11 190.88 479.08 605.03 739.70 432.01 934.28 375.40 890.94 519.06 816.41 648.80 978.56 598.78
00059490 00000082 582.63 183.03 475.95 602.07 739.57 427.86 929.45 372.99 885.76 509.14 812.99 638.60 973.63 589.61
00059491 00000083 583.88 180.74 474.82 603.72 739.24 424.88 928.44 371.48 883.51 506.07 814.22 635.95 973.20 587.99
00059492 00000084 585.78 180.93 476.61 606.19 741.65 425.00 933.65 372.24 888.21 510.51 818.38 641.39 976.59 593.83
00059493 00000085 592.85 174.30 467.61 605.67 742.61 425.13 935.05 373.25 887.59 515.52 818.29 640.00 974.39 597.21
00059494 00000086 603.60 166.38 473.39 596.26 765.48 416.93 953.43 370.63 906.63 500.79 834.00 628.77 981.37 586.47
00059495 DELETE   634.12 153.78 458.02 595.72 783.27 398.89 969.39 358.71 918.77 471.78 847.13 603.40 1004.79 569.76
00059496 00000088 646.10 142.99 460.42 599.73 806.31 381.53 988.33 348.83 942.09 457.65 867.53 591.57 1018.17 562.92
00059497 00000089 656.58 139.96 461.95 603.39 820.79 382.53 1002.44 349.41 959.09 458.27 882.90 594.32 1032.07 564.52
00059498 00000090 664.68 147.83 461.83 596.74 825.94 381.23 1013.64 347.21 965.68 465.11 888.64 595.67 1041.36 565.34
00059499 00000091 667.72 154.48 461.30 597.75 821.31 389.21 1013.98 352.27 962.73 475.19 886.69 602.24 1044.28 569.87
00059500 00000092 668.33 160.64 460.37 595.69 822.33 396.49 1013.93 360.25 962.57 481.79 886.38 606.78 1043.90 575.73
00059501 00000093 669.10 159.64 459.17 590.11 821.27 393.03 1013.57 357.13 962.12 477.82 886.64 602.19 1043.96 571.08
00059502 00000094 669.31 154.55 458.64 584.69 822.14 383.82 1014.20 348.63 962.89 471.13 886.84 595.23 1042.01 564.40
00059503 00000095 664.61 152.54 459.43 581.71 820.40 382.26 1010.75 346.52 962.36 467.81 884.27 592.36 1039.91 561.02
00059504 00000096 656.27 141.44 459.29 598.69 813.52 385.14 1003.38 349.82 953.57 469.20 873.79 593.71 1030.95 562.80
00059505 00000097 649.86 148.42 456.47 592.12 804.36 391.97 993.35 357.41 941.44 470.44 863.55 596.30 1020.24 566.93
00059506 00000098 643.12 154.31 454.74 595.12 789.96 398.05 980.61 361.13 925.28 475.34 850.61 603.73 1012.65 572.90
00059507 00000099 635.82 156.12 458.13 596.36 781.42 399.80 975.24 364.25 916.65 477.57 841.64 604.35 1005.98 574.92
00059508 00000100 629.98 155.36 462.49 600.26 777.15 399.66 972.83 364.17 913.92 480.41 837.39 604.42 1003.66 574.79
00059509 00000101 628.78 157.42 465.58 603.41 777.03 403.30 971.37 365.15 915.07 482.86 838.74 608.84 1004.00 576.94
00059510 00000102 630.52 162.47 463.68 607.51 779.88 412.91 970.02 372.39 917.16 490.83 839.75 616.74 1003.85 583.68
00059511 00000103 635.16 170.79 462.19 607.00 782.88 418.99 976.50 379.70 919.71 510.71 845.95 628.14 1006.68 596.94
00059512 00000104 639.26 175.30 459.03 602.74 786.41 423.77 981.44 386.56 922.82 514.28 849.11 633.40 1009.66 604.42
00059513 00000105 641.56 170.22 461.58 599.36 790.33 419.00 985.71 379.53 927.54 509.34 852.70 625.81 1013.34 594.56
00059514 00000106 646.76 165.64 460.19 594.77 797.35 408.87 989.25 370.43 935.75 495.37 859.82 615.82 1019.57 584.96
00059515 00000107 649.92 159.81 461.45 594.69 803.24 395.33 995.61 360.46 941.04 480.69 863.11 606.12 1022.82 576.85
00059516 00000108 652.34 150.24 459.41 601.70 808.43 386.22 1001.08 356.34 946.19 473.84 864.26 597.36 1025.18 571.31
00059517 00000109 654.78 147.86 457.96 598.33 810.28 381.37 1002.86 352.02 948.08 468.64 865.57 593.55 1026.05 567.73
00059518 00000110 654.70 148.08 457.42 591.96 811.29 379.89 1002.45 350.75 948.40 465.07 866.81 591.22 1024.70 565.51
00059519 00000111 654.40 148.20 455.09 580.26 811.96 376.68 1002.40 348.65 948.29 459.14 868.83 586.49 1021.69 561.41
00059520 00000112 655.92 145.72 453.06 576.79 811.35 375.87 999.56 345.57 945.73 452.34 869.42 583.82 1020.34 556.76
00059521 00000113 656.79 144.99 451.92 572.21 809.89 370.72 999.48 339.13 944.77 448.20 869.87 580.58 1020.92 552.12
00059522 00000114 657.55 142.34 453.52 571.36 810.76 366.97 999.92 335.36 945.09 444.58 872.15 577.34 1021.38 548.29
00059523 00000115 657.36 141.86 454.22 568.45 812.10 365.40 1001.21 335.18 946.09 442.09 872.64 574.56 1021.10 546.61
00059524 00000116 657.94 141.25 453.89 567.69 812.32 365.51 1000.92 335.34 945.68 442.44 872.71 574.64 1020.56 546.74
00059525 00000117 657.50 141.73 453.67 572.53 810.14 366.22 999.90 335.66 943.67 444.43 871.22 578.14 1019.86 549.99
00059526 00000118 655.08 143.78 452.50 576.73 804.83 369.87 996.59 340.75 937.76 447.86 862.39 581.61 1014.46 555.78
00059527 00000119 649.56 150.19 451.61 576.98 800.71 372.83 994.10 347.70 933.54 456.66 853.97 586.81 1007.24 565.45
00059528 00000120 646.34 151.37 450.32 582.90 792.76 376.82 987.87 352.17 924.38 462.64 845.18 590.50 1000.40 570.32
00059529 00000121 638.30 142.36 449.46 590.53 782.53 383.91 978.05 357.59 913.40 473.62 840.80 590.41 995.48 570.13
00059530 00000122 634.41 143.11 453.32 595.15 778.23 387.17 975.49 359.83 909.33 476.30 837.26 594.13 993.48 572.78
00059531 00000123 628.46 145.11 458.91 598.29 774.01 388.26 972.53 361.66 904.52 479.09 834.73 597.06 989.33 576.11
00059532 00000124 627.24 148.63 459.11 599.35 771.18 391.39 969.15 362.89 901.33 481.22 834.63 600.90 988.93 578.19
00059533 00000125 622.05 163.12 465.17 585.91 769.61 393.46 967.82 362.14 905.71 477.63 837.02 608.50 989.44 579.01
00059534 00000126 620.09 164.36 464.02 588.61 768.48 394.31 967.15 363.50 905.54 481.57 835.28 611.00 988.72 582.15
00059535 00000127 618.13 165.53 464.95 588.76 767.63 395.47 966.60 365.04 903.98 483.15 833.39 612.25 987.17 583.91
00059536 00000128 617.81 165.68 464.73 590.14 767.26 396.18 965.70 365.81 902.83 483.58 831.75 612.54 986.29 584.43
00059537 00000129 617.45 166.43 464.26 589.69 767.10 396.35 964.14 366.10 901.62 484.77 830.92 612.23 984.71 584.26
00059538 00000130 617.10 165.77 465.05 591.89 766.04 396.67 963.87 366.04 900.48 485.28 829.63 613.02 984.34 584.70
00059539 00000131 617.43 166.45 465.43 592.39 765.68 396.87 963.88 366.84 899.65 486.19 828.98 613.24 983.79 585.45
00059540 00000132 616.99 166.41 466.09 593.69 765.86 397.42 963.65 367.57 899.45 486.47 828.61 614.01 983.46 586.39
00059541 00000133 616.72 166.54 466.76 594.45 766.07 397.45 963.68 367.72 899.57 486.37 828.66 614.47 983.20 586.96
00059542 00000134 616.90 166.03 466.13 594.59 766.79 397.65 963.64 367.98 900.22 486.19 829.85 614.58 983.28 587.12
00059543 00000135 617.22 165.26 467.20 594.49 768.16 395.99 964.18 367.20 900.61 485.10 831.41 613.87 982.28 587.08
00059544 00000136 617.83 164.83 469.76 595.60 768.77 394.00 965.90 365.58 901.59 483.19 832.44 613.70 983.20 587.00
00059545 00000137 619.73 162.98 469.52 597.55 768.63 393.43 967.00 365.08 902.55 481.94 833.23 613.69 984.52 586.88
00059546 00000138 620.99 163.80 469.29 597.11 769.78 392.63 968.49 364.61 903.99 480.98 834.76 613.47 985.48 586.89
00059547 00000139 630.61 157.41 460.50 599.64 772.66 388.14 969.11 364.25 900.31 476.92 831.70 605.79 983.96 585.57
00059548 00000140 631.60 156.21 459.94 601.08 773.50 387.66 969.64 363.98 901.39 476.06 832.14 605.19 984.90 585.17
00059549 00000141 633.81 155.94 458.44 599.76 774.06 387.73 971.26 363.64 902.56 475.18 833.05 604.64 987.25 584.35
00059550 00000142 634.51 156.58 457.75 599.01 774.03 387.75 970.84 363.61 902.10 474.90 832.72 604.53 986.83 584.25
00059551 00000143 634.14 155.53 458.27 601.48 773.28 387.73 971.79 363.26 902.24 475.94 831.77 605.03 988.21 584.40
00059552 00000144 633.39 154.95 459.31 603.22 772.59 388.13 972.10 363.01 902.17 475.93 830.48 605.17 989.34 584.00
00059553 00000145 632.40 154.22 460.16 605.87 771.78 387.36 971.93 362.89 901.30 476.50 828.89 605.62 988.49 584.89
00059554 00000146 630.93 155.22 461.59 607.13 772.35 389.16 970.92 364.23 901.70 478.07 827.86 606.47 988.35 585.47
00059555 00000147 631.08 156.32 461.98 607.92 772.11 390.33 971.00 364.52 901.81 480.23 828.46 608.38 989.60 586.62
00059556 00000148 630.95 156.62 461.97 606.72 772.31 391.06 970.99 365.28 901.63 480.99 828.98 608.81 988.60 587.12
00059557 00000149 630.94 156.30 461.78 606.97 771.86 392.07 971.69 366.26 901.68 482.39 829.58 610.59 988.21 588.98
00059558 00000150 630.56 157.90 461.04 605.02 771.83 393.57 970.86 367.54 901.35 483.31 829.60 611.32 987.28 589.63
00059559 00000151 630.03 157.30 461.13 605.82 771.49 394.11 969.71 367.80 900.81 483.47 828.79 611.47 986.79 589.51
00059560 00000152 630.02 157.14 461.00 605.12 771.54 394.25 969.66 368.41 900.58 484.15 828.77 611.47 985.79 589.94
00059561 00000153 630.00 157.35 461.07 603.79 771.39 394.21 969.24 368.15 900.45 483.91 829.37 611.22 985.48 589.51
00059562 00000154 629.96 157.02 460.84 603.69 771.47 394.29 968.95 368.20 900.40 483.82 829.61 611.25 985.08 589.51
00059563 00000155 629.96 157.54 460.68 603.01 771.34 393.96 969.19 367.92 900.34 483.34 830.09 611.10 985.19 589.41
00059564 00000156 630.60 157.00 460.02 602.76 771.51 394.07 969.37 368.00 900.08 482.88 830.27 610.74 985.12 589.08
00059565 00000157 630.64 157.89 460.06 601.81 771.28 393.57 969.86 367.46 900.15 482.76 830.49 610.81 985.76 589.06
00059566 00000158 630.33 158.04 460.65 602.18 771.28 393.67 970.08 367.43 900.52 482.65 830.09 610.45 986.70 588.56
00059567 00000159 621.30 163.81 469.78 599.08 769.25 395.85 970.41 366.78 905.53 485.43 834.17 616.55 988.44 589.24
00059568 00000160 620.59 163.30 469.55 600.81 768.49 397.83 969.40 367.63 904.66 486.69 832.41 617.66 988.08 589.55
00059569 00000161 615.77 163.42 471.26 601.44 762.65 400.87 964.94 369.06 898.28 488.77 824.30 616.88 984.21 587.68
00059570 00000162 612.92 165.32 466.37 599.38 757.85 411.16 959.69 382.70 889.44 491.41 811.82 616.52 974.23 591.92
00059571 00000163 607.78 170.64 467.77 597.27 747.10 419.52 951.48 390.93 875.71 511.67 795.47 621.78 964.11 598.36
00059572 DELETE   605.80 178.75 472.83 606.48 736.20 427.03 940.08 402.46 853.13 535.11 782.41 635.95 949.27 615.17
00059573 DELETE   606.14 194.61 475.26 606.52 726.17 435.18 931.78 418.54 831.76 559.73 763.90 647.81 933.66 634.59
00059574 DELETE   608.79 210.78 472.63 611.79 721.33 445.36 928.86 436.75 829.02 579.31 757.02 668.42 916.26 659.76
00059575 00000167 611.18 223.09 474.00 603.89 722.93 455.99 930.26 449.09 827.15 593.42 757.02 680.42 912.15 673.43
00059576 DELETE   619.26 208.56 471.45 607.73 732.84 441.88 945.46 442.65 827.36 584.43 761.80 663.90 920.26 665.82
00059577 DELETE   630.55 185.48 466.90 608.83 747.11 420.44 961.67 421.97 846.23 556.59 769.60 643.83 931.78 646.30
