Video ID: 	vnCj9bZJ8_M
H: 	1080
W: 	1920
FPS: 	25.0

FRAME INDEX X0 Y0 W H [Landmarks (5 Points)]

00005924 00000000 1188.07 186.03 372.89 500.78 1286.17 340.99 1462.99 349.03 1375.17 447.46 1288.63 526.27 1454.83 534.93
00005925 00000001 1185.05 186.11 373.99 498.93 1281.99 338.10 1457.63 348.12 1367.29 445.75 1283.00 523.35 1446.03 533.78
00005926 DELETE   1177.51 180.85 375.60 500.86 1277.02 334.60 1451.37 346.90 1359.64 443.63 1274.63 517.75 1436.51 529.82
00005927 DELETE   1167.76 179.38 370.55 500.59 1244.92 313.46 1419.03 306.22 1318.22 414.49 1265.23 527.81 1390.24 524.01
00005928 DELETE   1166.29 181.75 370.71 491.64 1245.12 315.98 1419.86 308.57 1319.92 418.99 1266.32 526.47 1392.73 522.13
00005929 00000005 1165.35 181.82 368.81 488.68 1245.44 319.17 1420.03 314.09 1320.75 423.53 1265.00 524.49 1394.57 521.69
00005930 00000006 1165.45 180.80 370.64 491.97 1245.95 321.66 1421.34 317.88 1320.55 425.36 1263.89 526.64 1396.21 524.97
00005931 00000007 1166.81 178.13 369.98 495.73 1247.77 322.09 1424.72 319.96 1321.43 425.25 1264.34 527.79 1399.77 527.46
00005932 00000008 1169.49 178.74 371.94 495.30 1251.25 321.87 1428.73 322.38 1324.63 425.85 1265.36 527.53 1403.57 529.54
00005933 00000009 1171.93 176.10 372.05 499.21 1253.76 323.82 1431.38 324.11 1328.53 426.73 1267.04 529.56 1407.57 531.38
00005934 00000010 1171.70 178.48 375.80 497.80 1255.83 326.14 1432.90 327.04 1330.99 428.79 1268.64 530.72 1407.71 532.96
00005935 00000011 1172.07 183.27 382.90 512.35 1254.93 325.68 1433.77 326.03 1329.15 429.63 1268.57 535.93 1410.77 537.79
00005936 00000012 1171.93 185.33 384.79 517.90 1254.53 326.55 1432.87 326.90 1328.34 430.21 1267.06 536.64 1414.04 538.68
00005937 00000013 1172.58 190.90 384.47 513.83 1256.15 327.71 1433.80 329.44 1328.96 430.43 1266.40 535.53 1415.91 538.76
00005938 00000014 1171.80 189.67 386.58 514.31 1256.74 329.08 1436.00 331.65 1330.35 432.14 1266.57 535.54 1417.83 539.20
00005939 00000015 1170.63 189.84 382.88 499.29 1259.22 336.11 1436.48 339.81 1333.24 436.91 1269.70 534.87 1418.23 539.13
00005940 00000016 1170.56 186.85 381.27 494.45 1259.90 339.25 1438.00 341.97 1336.81 439.76 1274.04 535.56 1418.57 538.65
00005941 00000017 1172.00 184.81 381.02 496.15 1260.83 337.41 1440.73 341.48 1338.85 440.74 1276.88 539.18 1417.01 543.38
00005942 00000018 1172.68 182.80 380.28 497.83 1261.91 338.26 1442.71 342.28 1341.20 442.40 1278.68 543.21 1415.72 547.45
00005943 00000019 1173.30 184.93 377.75 494.40 1263.20 338.91 1442.30 343.12 1342.35 444.59 1280.07 545.47 1412.89 550.01
00005944 00000020 1173.05 183.20 378.54 499.22 1262.03 338.53 1441.93 344.02 1340.46 445.51 1278.15 545.99 1411.46 551.59
00005945 00000021 1172.33 183.42 382.36 506.51 1261.59 338.24 1441.83 344.35 1339.46 445.24 1277.98 547.59 1413.26 553.46
00005946 00000022 1173.03 180.45 379.82 511.96 1261.68 337.87 1442.39 345.68 1337.98 446.63 1276.41 550.81 1409.13 558.33
00005947 00000023 1173.96 181.03 382.04 520.14 1262.39 336.69 1442.99 341.22 1339.18 447.07 1280.53 553.72 1412.20 558.39
00005948 00000024 1173.81 183.68 385.18 524.56 1262.15 334.63 1443.68 338.53 1339.75 446.23 1279.35 555.91 1412.95 560.10
00005949 00000025 1173.77 185.34 385.80 525.08 1261.36 334.16 1443.14 336.85 1339.41 445.43 1279.88 556.53 1414.90 559.75
00005950 00000026 1174.45 185.20 384.13 524.65 1261.24 333.81 1441.99 336.17 1338.18 444.97 1279.92 556.13 1414.15 559.15
00005951 00000027 1174.79 185.46 384.11 524.83 1260.48 334.34 1441.18 335.58 1337.44 443.85 1280.05 556.57 1413.99 558.78
00005952 00000028 1174.78 188.01 385.20 523.75 1260.26 333.23 1440.83 334.20 1337.31 443.54 1280.63 557.17 1413.94 559.17
00005953 00000029 1175.49 186.17 385.76 526.42 1260.49 331.61 1442.31 332.77 1337.97 442.36 1281.36 558.09 1414.34 560.28
00005954 00000030 1176.35 185.93 385.60 526.45 1260.98 330.95 1443.15 331.10 1339.11 441.77 1282.83 559.49 1414.85 560.95
00005955 00000031 1177.46 184.67 384.66 527.66 1262.38 330.82 1443.89 329.70 1340.96 440.84 1285.07 560.56 1415.18 561.01
00005956 00000032 1179.95 182.69 382.93 529.58 1264.07 331.25 1445.80 328.56 1342.97 439.13 1287.14 561.87 1417.35 561.12
00005957 00000033 1181.58 182.09 384.06 530.99 1264.23 329.23 1447.00 326.38 1343.69 436.22 1287.22 561.14 1418.30 560.48
00005958 00000034 1183.51 181.31 382.07 531.48 1265.93 328.58 1448.55 323.97 1347.27 430.55 1288.10 560.04 1419.82 558.19
00005959 00000035 1184.12 180.31 382.34 532.31 1266.35 325.89 1449.37 320.19 1348.44 426.62 1288.76 559.06 1420.01 556.45
00005960 00000036 1186.20 181.96 383.45 532.29 1269.31 323.93 1451.80 319.54 1350.96 424.90 1290.88 557.43 1422.02 555.71
00005961 00000037 1187.85 182.27 382.86 531.16 1270.44 322.97 1452.26 318.26 1352.40 423.43 1292.14 555.82 1423.90 553.83
00005962 00000038 1188.87 179.12 382.06 534.24 1271.52 322.07 1454.08 317.03 1354.42 422.24 1292.59 555.27 1425.75 552.93
00005963 00000039 1189.71 180.78 382.15 533.00 1272.49 321.34 1454.92 316.27 1355.25 421.82 1293.35 554.69 1427.42 552.24
00005964 00000040 1189.67 182.01 381.89 531.53 1272.49 320.45 1454.85 315.50 1355.29 421.25 1293.34 554.11 1426.65 551.90
00005965 00000041 1189.91 183.90 382.98 528.83 1272.36 321.02 1454.52 315.92 1354.49 421.07 1293.26 553.33 1426.86 550.95
00005966 00000042 1189.27 181.78 381.79 529.43 1272.19 321.55 1454.64 316.08 1354.49 419.88 1292.62 552.63 1426.69 549.99
00005967 00000043 1189.13 181.00 382.28 527.98 1272.38 321.36 1454.69 316.23 1354.80 419.24 1293.10 550.67 1428.14 548.23
00005968 00000044 1189.96 178.67 377.32 526.25 1273.97 321.11 1453.33 318.01 1355.38 420.70 1291.98 544.02 1430.34 543.28
00005969 00000045 1186.65 181.33 379.01 496.23 1273.79 329.76 1449.76 330.14 1351.89 424.62 1291.32 528.29 1433.48 529.35
00005970 00000046 1186.25 170.56 377.35 498.37 1272.63 325.60 1451.63 327.29 1353.32 422.84 1286.54 516.73 1437.78 518.70
00005971 00000047 1183.23 169.47 380.89 499.28 1271.38 321.10 1450.16 325.87 1349.14 420.53 1280.09 508.75 1436.05 513.49
00005972 00000048 1182.40 169.17 382.38 498.30 1269.28 318.10 1450.28 322.97 1346.13 417.17 1274.55 505.67 1434.78 510.81
00005973 00000049 1182.68 171.69 382.79 498.08 1268.83 318.42 1449.59 321.76 1345.66 415.99 1274.58 506.38 1435.80 510.24
00005974 00000050 1185.73 173.01 380.27 502.79 1269.93 317.98 1448.49 318.30 1345.86 413.13 1276.59 510.09 1434.68 511.77
00005975 00000051 1187.37 175.82 380.66 508.28 1271.55 317.88 1448.90 315.32 1348.45 412.61 1280.37 515.24 1436.22 514.42
00005976 00000052 1187.54 175.54 382.62 514.08 1271.61 317.85 1449.38 314.53 1348.98 412.28 1280.56 516.90 1438.44 515.37
00005977 00000053 1187.78 174.03 380.92 518.13 1270.64 318.02 1448.38 313.13 1347.89 411.67 1280.66 519.08 1437.59 516.43
00005978 00000054 1187.96 174.77 379.11 517.99 1269.24 317.42 1446.84 310.45 1345.47 411.49 1282.55 522.46 1434.13 518.28
00005979 00000055 1187.96 180.96 378.44 510.68 1268.45 316.88 1443.55 308.49 1342.86 410.79 1284.03 523.02 1430.58 517.95
00005980 00000056 1187.03 182.99 380.40 508.66 1266.58 316.24 1441.07 306.64 1340.05 411.18 1283.81 523.44 1427.76 517.40
00005981 00000057 1185.24 182.33 381.17 507.66 1264.86 316.89 1438.34 307.79 1337.44 413.16 1282.20 522.31 1425.89 516.60
00005982 00000058 1184.22 182.54 380.27 505.52 1263.46 319.04 1435.42 310.81 1334.71 414.99 1280.94 522.47 1423.03 517.58
00005983 00000059 1181.14 182.80 380.12 499.08 1260.82 322.56 1432.91 314.09 1333.05 418.49 1281.01 524.34 1420.67 519.08
00005984 00000060 1181.07 182.63 379.23 497.16 1259.74 327.01 1431.69 317.20 1333.59 421.30 1280.35 525.83 1422.19 519.39
00005985 00000061 1179.63 176.92 382.58 503.49 1259.50 330.71 1431.91 321.38 1335.15 426.14 1281.41 527.66 1423.57 521.10
00005986 00000062 1178.79 179.39 382.25 504.76 1260.24 332.66 1432.73 324.11 1336.39 428.27 1281.91 532.95 1422.47 527.29
00005987 00000063 1181.93 184.94 385.83 520.06 1260.50 333.37 1437.14 325.16 1334.90 429.59 1279.72 538.09 1430.99 532.72
00005988 00000064 1183.92 184.36 384.45 530.43 1261.84 334.37 1438.75 327.17 1335.91 432.29 1279.21 540.63 1436.48 535.82
00005989 00000065 1182.81 182.72 383.44 533.23 1260.37 334.67 1437.74 326.87 1335.30 432.76 1278.22 541.83 1436.39 536.48
00005990 00000066 1180.97 181.97 384.41 532.40 1258.47 334.27 1435.88 325.81 1333.90 432.15 1277.08 541.57 1434.17 535.73
00005991 00000067 1180.25 183.39 383.63 530.20 1257.10 334.42 1433.72 325.93 1332.09 433.50 1276.76 542.34 1431.92 536.47
00005992 00000068 1180.18 185.00 382.75 525.27 1257.29 335.97 1431.33 327.45 1331.24 433.19 1277.63 540.77 1429.65 535.11
00005993 00000069 1178.84 185.20 381.63 524.54 1254.49 336.95 1427.11 327.62 1327.31 435.42 1275.89 541.31 1425.59 534.85
00005994 00000070 1175.29 185.23 384.11 527.99 1250.49 338.88 1424.80 329.37 1323.43 438.63 1274.60 548.36 1420.95 541.56
00005995 00000071 1173.26 180.26 383.78 538.22 1246.12 342.76 1421.86 328.89 1319.88 442.08 1275.33 558.79 1418.87 548.41
00005996 00000072 1170.90 180.66 385.75 542.27 1244.22 347.38 1422.81 331.85 1320.01 445.54 1274.88 565.93 1418.57 554.29
00005997 00000073 1168.76 182.50 388.19 541.67 1243.71 350.71 1421.69 333.11 1320.96 450.86 1277.35 571.02 1416.29 557.47
00005998 00000074 1168.48 182.41 388.37 540.76 1244.62 353.19 1421.59 335.54 1322.54 454.57 1279.42 571.46 1416.90 557.61
00005999 00000075 1167.14 184.76 389.67 535.54 1244.79 355.96 1423.03 338.10 1324.96 456.15 1279.97 570.05 1420.86 555.68
00006000 00000076 1165.74 183.68 389.18 533.76 1243.91 356.09 1421.66 339.00 1323.91 455.92 1278.55 568.04 1420.09 554.28
00006001 00000077 1164.35 185.53 390.23 529.87 1242.89 354.06 1420.78 337.04 1323.38 454.86 1278.28 566.49 1418.75 552.72
00006002 00000078 1164.42 184.85 387.60 527.31 1242.31 354.19 1419.52 337.86 1322.95 453.63 1276.74 564.77 1416.45 551.85
00006003 00000079 1165.17 184.58 384.63 525.71 1242.28 353.97 1419.68 337.98 1322.82 452.30 1275.99 563.46 1416.42 550.91
00006004 00000080 1165.82 186.20 385.70 521.44 1243.98 353.50 1419.44 338.17 1323.61 451.44 1276.80 560.28 1416.82 548.16
00006005 00000081 1167.71 183.07 383.08 519.79 1245.59 354.03 1419.80 338.36 1325.15 450.19 1278.20 558.26 1417.37 545.87
00006006 00000082 1167.98 184.39 382.35 516.36 1246.24 353.27 1419.75 337.56 1325.75 449.65 1279.21 556.62 1417.30 544.28
00006007 00000083 1170.37 185.04 379.24 515.20 1247.27 350.34 1420.06 336.78 1324.73 446.62 1277.29 553.58 1415.03 543.32
00006008 00000084 1170.27 188.67 378.65 511.58 1246.91 349.39 1419.54 337.84 1324.31 445.31 1274.24 549.39 1416.91 540.75
00006009 00000085 1168.92 190.32 379.51 507.66 1247.04 349.63 1419.09 339.36 1324.55 443.83 1271.78 545.35 1417.51 537.59
00006010 00000086 1167.53 190.59 378.12 502.19 1246.11 351.28 1417.92 341.11 1323.57 443.02 1269.77 541.30 1418.55 533.36
00006011 00000087 1165.64 193.04 378.92 497.02 1244.85 349.80 1417.00 341.56 1322.52 443.04 1266.03 537.03 1417.64 530.48
00006012 00000088 1164.42 193.44 377.94 495.10 1243.72 347.43 1415.91 340.11 1321.17 441.84 1262.50 532.28 1417.52 526.51
00006013 00000089 1164.00 192.95 377.27 495.57 1242.10 346.11 1414.34 338.95 1318.90 440.70 1260.39 529.73 1418.47 523.98
00006014 00000090 1163.40 192.66 375.49 497.56 1240.80 344.54 1413.65 337.72 1318.42 440.30 1261.58 532.85 1415.09 527.36
00006015 00000091 1162.51 189.63 375.32 496.19 1240.31 345.36 1414.03 335.96 1320.32 441.45 1267.10 538.35 1411.60 530.81
00006016 00000092 1162.10 183.91 375.16 500.76 1240.64 346.42 1415.78 335.56 1322.08 442.62 1269.93 542.73 1410.84 534.06
00006017 00000093 1162.35 178.72 373.32 507.58 1241.01 349.89 1417.13 338.38 1323.61 444.59 1270.21 545.11 1413.47 535.84
00006018 00000094 1164.50 177.16 371.47 513.88 1244.07 352.38 1420.03 342.06 1326.61 446.59 1272.11 549.41 1412.94 541.58
00006019 00000095 1165.52 172.48 376.40 532.23 1243.20 351.03 1420.81 339.03 1325.07 446.71 1272.54 552.77 1418.32 543.21
00006020 00000096 1165.71 174.53 377.21 526.10 1245.19 352.50 1421.33 341.14 1327.40 447.43 1273.06 549.67 1421.38 540.34
00006021 00000097 1165.93 175.16 369.99 504.90 1247.30 352.67 1422.47 339.89 1329.87 445.85 1273.35 544.93 1420.70 534.17
00006022 00000098 1166.06 180.57 367.75 498.39 1249.18 343.06 1420.38 337.12 1328.28 445.18 1268.29 532.61 1410.83 528.18
00006023 00000099 1163.34 178.22 373.44 499.58 1247.36 346.87 1421.22 333.61 1325.36 439.07 1272.12 534.09 1421.63 522.96
00006024 00000100 1164.43 178.45 369.68 501.13 1248.50 338.90 1422.00 332.83 1327.14 438.57 1268.74 531.72 1412.62 526.91
00006025 00000101 1163.44 175.17 364.72 515.11 1244.27 338.01 1418.02 329.23 1325.24 440.14 1269.36 533.30 1418.74 525.58
00006026 DELETE   1162.34 181.76 367.48 503.86 1240.81 335.96 1415.42 328.76 1325.21 439.90 1266.28 533.45 1406.69 527.90
00006027 00000103 1161.42 180.90 372.86 506.82 1238.86 337.23 1413.14 330.54 1320.37 438.68 1264.39 536.91 1404.09 531.92
00006028 00000104 1159.63 182.61 377.42 519.04 1236.44 336.35 1412.95 330.13 1317.88 436.25 1262.23 542.48 1406.00 538.04
00006029 00000105 1158.06 185.26 383.71 523.79 1235.32 337.05 1413.03 331.22 1315.07 434.99 1260.28 546.20 1406.29 542.15
00006030 00000106 1158.78 185.53 383.66 527.15 1234.72 337.50 1411.39 332.15 1311.87 434.72 1257.48 543.65 1408.55 539.85
00006031 00000107 1159.38 186.66 383.97 524.51 1236.26 338.14 1411.54 333.68 1311.80 434.54 1255.75 539.17 1409.74 536.01
00006032 00000108 1158.73 186.84 381.88 520.04 1236.03 338.77 1411.29 335.60 1311.68 434.30 1253.39 535.31 1409.12 532.99
00006033 00000109 1158.80 186.31 380.52 515.81 1235.70 339.77 1409.72 337.01 1310.01 434.24 1251.67 531.42 1408.35 529.28
00006034 00000110 1157.45 188.01 380.73 510.51 1234.95 341.29 1408.93 338.43 1308.46 434.29 1249.40 528.73 1408.31 526.33
00006035 00000111 1159.33 191.07 375.75 507.50 1237.80 347.25 1410.64 346.16 1309.36 436.93 1247.94 527.66 1410.63 526.92
00006036 00000112 1158.46 190.63 373.29 509.14 1235.26 348.99 1408.16 349.32 1307.32 440.71 1246.39 529.33 1409.47 529.76
00006037 00000113 1158.80 198.94 368.12 499.52 1233.26 354.98 1405.50 354.70 1304.25 444.68 1246.15 532.87 1405.47 533.44
00006038 00000114 1159.89 200.04 363.45 493.86 1234.11 357.92 1405.53 358.82 1303.83 449.85 1246.66 535.45 1399.44 537.62
00006039 00000115 1161.65 198.24 359.67 492.18 1233.77 360.13 1404.49 358.90 1303.02 454.47 1249.35 540.90 1395.54 541.41
00006040 00000116 1163.02 199.65 359.22 492.91 1234.51 359.51 1405.19 357.88 1305.03 457.48 1252.70 544.31 1394.37 544.56
00006041 00000117 1164.39 202.75 356.81 485.26 1234.55 363.05 1404.14 359.28 1304.76 457.89 1252.78 546.08 1392.71 544.82
00006042 00000118 1162.46 202.10 354.78 483.98 1232.84 362.01 1402.01 359.41 1303.51 459.12 1250.28 544.36 1390.49 543.79
00006043 00000119 1160.65 200.90 352.62 491.11 1227.46 359.29 1395.91 357.93 1295.55 456.93 1243.56 544.46 1384.22 545.08
00006044 00000120 1155.19 196.12 357.22 497.64 1219.15 355.95 1387.15 357.53 1284.79 454.46 1234.06 540.78 1377.90 543.82
00006045 DELETE   1145.46 200.87 351.94 490.71 1205.39 354.08 1372.26 351.95 1269.43 449.17 1223.71 540.97 1364.67 540.03
00006046 00000122 1136.01 193.08 352.09 500.14 1201.83 360.83 1357.15 355.32 1255.95 451.59 1219.58 544.71 1354.39 541.87
00006047 00000123 1129.84 196.67 353.84 503.30 1194.85 358.06 1349.13 351.34 1245.30 447.08 1210.52 543.65 1347.10 539.98
00006048 00000124 1124.87 198.92 353.35 505.38 1186.46 354.97 1340.54 348.78 1233.69 444.77 1203.42 542.33 1341.78 539.57
00006049 00000125 1122.74 198.69 353.48 507.26 1180.58 354.86 1331.79 346.73 1224.97 442.73 1199.48 542.04 1338.66 538.25
CROP_BBOX: 958 0 1741 836
