Video ID: 	ke6WQxVTtM0
H: 	1080
W: 	1920
FPS: 	23.976023976023978

FRAME INDEX X0 Y0 W H [Landmarks (5 Points)]

00013586 00000000 795.41 222.74 323.57 551.40 826.19 435.01 952.19 423.02 834.63 526.74 842.97 627.27 961.32 618.78
00013587 00000001 801.13 218.62 335.66 558.44 836.11 428.58 970.29 428.61 840.11 531.22 852.37 624.87 969.99 625.72
00013588 00000002 802.79 218.24 337.30 554.90 842.54 436.39 984.72 429.01 856.67 520.90 860.14 627.07 976.57 620.02
00013589 00000003 816.20 221.91 334.32 541.43 850.21 424.28 983.03 425.91 862.61 522.85 859.89 617.63 970.52 621.52
00013590 00000004 817.23 220.30 338.04 539.77 849.47 421.53 986.05 423.18 864.84 520.03 856.63 617.67 967.69 622.01
00013591 00000005 817.80 218.23 347.24 535.54 851.45 418.25 986.77 421.85 864.92 518.28 856.50 612.30 967.89 618.14
00013592 00000006 822.24 216.78 342.45 536.95 855.58 417.60 990.14 421.34 867.98 517.13 860.15 611.86 971.18 618.40
00013593 00000007 823.18 216.73 339.32 534.38 859.15 414.72 993.42 418.76 875.13 512.93 864.35 608.07 971.25 615.63
00013594 00000008 824.61 211.24 340.86 531.79 860.05 412.62 998.07 416.35 875.11 508.93 863.43 604.24 976.99 611.48
00013595 00000009 825.31 209.03 343.06 530.64 863.56 409.45 1002.09 413.54 879.34 503.97 866.06 598.78 981.57 606.59
00013596 00000010 825.91 198.31 342.79 539.87 872.27 411.56 1009.19 415.02 881.14 501.87 872.32 600.43 983.08 606.93
00013597 00000011 831.49 203.43 340.76 549.61 868.19 411.96 1006.23 414.02 885.73 503.90 876.58 606.62 983.75 613.33
00013598 00000012 833.43 206.53 339.49 556.81 871.42 413.79 1008.57 414.26 887.36 503.08 881.54 611.38 987.63 616.77
00013599 00000013 832.68 211.52 340.33 558.66 871.35 416.23 1006.42 418.76 887.75 509.04 883.21 615.68 988.81 622.26
00013600 00000014 814.76 208.44 349.02 586.47 863.17 431.46 1014.09 425.78 885.69 506.51 883.42 641.33 987.01 635.85
00013601 DELETE   821.00 225.26 339.08 567.35 860.72 444.14 995.87 444.23 881.03 541.01 881.55 647.64 985.57 650.64
00013602 DELETE   798.66 236.49 344.30 569.66 843.85 468.00 980.40 456.59 849.64 554.44 870.69 671.29 967.95 662.12
00013603 00000017 775.99 242.82 359.58 567.03 822.12 478.68 959.46 471.33 832.95 571.26 853.40 674.37 955.05 667.28
00013604 00000018 772.27 257.13 346.16 548.56 816.25 483.58 946.32 470.01 838.27 589.71 844.80 677.23 954.47 667.45
00013605 00000019 766.00 257.39 348.38 545.86 811.75 482.84 941.60 469.81 836.04 588.38 844.43 675.60 954.06 665.73
00013606 00000020 761.85 258.02 348.31 545.62 807.29 481.20 936.64 467.91 830.49 585.34 842.49 674.77 950.76 664.86
00013607 00000021 761.14 255.92 344.18 548.64 802.64 478.72 934.70 465.74 825.92 583.20 837.99 672.80 949.87 662.96
00013608 00000022 755.28 257.56 343.47 547.84 797.98 479.74 934.20 466.01 824.21 582.52 832.44 673.03 948.29 662.80
00013609 00000023 750.54 257.55 347.87 546.79 793.30 479.37 934.83 466.57 822.43 580.56 825.68 669.63 949.55 659.93
00013610 00000024 748.04 257.26 349.04 545.38 792.52 477.74 935.99 465.12 823.21 576.41 824.09 664.65 953.02 654.83
00013611 00000025 748.49 258.02 349.73 543.53 793.42 476.63 937.21 461.47 825.62 572.02 825.63 661.24 958.01 649.26
00013612 00000026 749.68 260.65 352.34 541.13 795.24 475.39 937.98 455.98 830.39 566.50 830.26 657.16 967.96 641.29
00013613 00000027 750.35 258.18 358.86 545.10 797.71 475.53 940.30 451.74 836.17 564.58 837.49 657.47 978.21 637.43
00013614 00000028 753.06 255.18 355.19 545.35 800.14 474.16 940.86 448.65 839.10 562.53 840.52 654.86 982.08 633.25
00013615 00000029 756.13 250.93 355.53 546.04 802.64 471.24 944.21 447.66 841.16 561.66 840.22 650.86 983.11 630.73
00013616 00000030 755.66 251.61 360.14 539.78 806.96 473.19 951.36 450.59 849.35 562.91 841.84 650.02 985.53 631.17
00013617 00000031 757.60 256.71 360.86 534.03 812.30 475.47 961.77 454.38 859.40 568.48 846.09 652.50 992.09 635.13
00013618 00000032 760.13 257.06 359.48 533.97 819.35 475.78 972.89 458.23 870.97 570.95 846.75 651.49 997.45 637.42
00013619 00000033 766.33 249.07 353.31 543.14 824.01 468.15 979.31 452.37 874.86 560.42 845.75 644.36 1001.37 632.15
00013620 00000034 777.11 236.13 347.01 548.69 832.72 460.10 989.17 449.09 882.52 551.90 850.25 635.62 1007.52 627.61
00013621 00000035 784.59 236.17 348.70 548.88 841.76 454.05 999.13 442.93 890.06 543.37 858.17 634.19 1009.92 626.38
00013622 00000036 788.08 225.00 350.31 566.30 846.05 444.36 1008.27 440.75 880.26 533.41 865.61 637.24 1001.31 634.65
00013623 DELETE   797.73 230.66 355.50 551.47 862.39 435.06 1018.20 451.29 902.68 532.65 862.22 616.55 1000.24 631.14
00013624 DELETE   815.00 229.25 356.58 543.68 878.19 430.85 1035.55 455.02 911.21 530.98 867.54 607.74 1009.69 629.93
00013625 DELETE   827.50 219.55 364.22 541.20 899.75 427.46 1065.90 454.71 942.94 534.55 886.61 609.81 1033.49 634.02
00013626 00000040 843.82 225.48 365.50 536.86 932.00 418.86 1101.42 460.49 987.07 534.25 910.16 604.18 1057.44 640.30
00013627 00000041 864.04 229.31 360.36 537.24 952.15 421.20 1115.75 462.64 1000.59 533.82 929.91 599.04 1069.45 634.13
00013628 00000042 868.50 228.34 368.13 538.37 954.97 418.29 1119.13 457.78 1000.92 532.16 931.97 599.90 1070.39 633.87
00013629 00000043 870.28 226.97 352.72 546.22 951.71 422.63 1110.40 458.94 996.92 529.78 934.51 604.72 1062.32 636.38
00013630 00000044 866.87 227.03 344.02 556.61 941.30 425.36 1098.84 452.05 985.73 524.83 932.37 614.52 1055.04 638.23
00013631 00000045 855.67 225.39 352.79 567.22 933.90 431.33 1096.73 451.25 986.73 527.79 921.39 624.68 1068.77 642.33
00013632 00000046 850.71 222.66 353.22 570.02 927.45 431.92 1093.81 450.56 982.15 529.54 915.27 625.13 1068.23 641.62
00013633 00000047 845.50 220.03 354.51 569.96 920.47 432.91 1089.32 449.94 976.31 531.69 911.43 625.31 1070.73 640.21
00013634 00000048 840.86 220.60 357.85 567.05 915.78 434.75 1086.86 449.55 974.44 534.38 909.06 624.34 1074.08 637.73
00013635 00000049 836.95 221.52 362.50 564.23 913.56 435.08 1086.37 450.24 973.66 537.67 907.75 622.62 1076.48 636.15
00013636 00000050 834.05 224.87 364.86 560.38 913.07 437.74 1082.75 453.53 973.50 540.49 906.44 620.11 1076.08 634.26
00013637 00000051 832.22 226.98 366.19 557.50 911.43 436.94 1079.12 453.16 970.40 540.82 904.13 618.35 1072.30 632.68
00013638 00000052 829.24 227.81 366.74 554.81 908.76 435.63 1073.97 451.80 966.84 538.62 902.14 617.47 1062.83 631.82
00013639 00000053 829.05 223.96 365.55 548.95 905.15 431.07 1070.93 447.62 962.04 534.69 899.86 615.86 1051.57 630.64
00013640 00000054 830.59 218.49 361.91 542.33 902.31 434.82 1071.11 449.52 961.06 535.79 900.03 613.92 1055.90 626.44
00013641 00000055 830.53 217.72 359.58 539.27 900.71 440.52 1068.12 451.65 962.34 535.57 901.37 614.06 1058.27 623.30
00013642 00000056 828.61 217.15 359.93 539.48 895.93 439.74 1066.45 449.86 956.30 535.13 897.53 614.82 1057.20 623.29
00013643 00000057 828.32 216.62 361.03 546.55 893.90 439.29 1063.59 449.23 950.49 536.05 894.64 618.97 1054.12 627.66
00013644 00000058 828.68 223.00 364.63 553.59 897.10 443.05 1066.32 449.46 954.34 537.57 899.53 627.43 1058.26 633.44
00013645 00000059 829.46 228.94 365.72 554.27 899.15 446.47 1067.93 450.05 957.51 543.33 903.52 633.95 1062.29 637.74
00013646 00000060 831.89 230.47 362.20 553.44 902.17 447.16 1069.53 449.97 961.37 543.93 907.28 634.19 1066.00 637.22
00013647 00000061 834.47 229.44 361.96 554.04 905.26 444.51 1072.75 448.19 964.78 541.83 910.28 632.54 1068.42 636.11
00013648 00000062 834.95 227.15 361.18 553.86 904.18 441.64 1072.98 444.31 963.91 537.54 910.82 631.46 1066.78 634.34
00013649 00000063 835.12 226.36 359.35 553.10 902.62 440.35 1070.99 442.30 961.39 535.49 909.81 630.70 1064.19 633.19
00013650 00000064 834.35 225.11 358.06 555.95 899.61 439.44 1066.83 441.09 955.78 534.48 906.45 630.75 1059.44 633.19
00013651 00000065 832.51 227.29 357.75 556.84 896.35 439.43 1059.94 440.10 947.97 533.20 903.19 631.85 1051.57 634.04
00013652 00000066 833.91 228.48 355.68 559.95 896.61 439.68 1058.05 440.60 945.03 535.25 901.54 633.54 1048.89 635.99
00013653 00000067 834.51 230.69 356.33 558.99 898.42 441.26 1060.56 441.58 948.04 536.04 903.31 635.17 1051.85 637.04
00013654 00000068 837.57 232.09 354.06 559.04 903.09 442.46 1066.34 443.38 954.65 538.20 907.63 636.22 1058.17 638.29
00013655 00000069 838.75 232.54 354.13 558.89 903.57 442.64 1067.01 442.81 955.22 537.65 908.45 636.42 1059.38 637.92
00013656 00000070 836.91 228.88 354.41 561.60 900.55 451.44 1061.55 448.68 950.61 538.71 905.94 638.19 1056.83 637.10
00013657 00000071 833.59 229.75 357.35 559.80 898.80 450.45 1058.08 448.29 947.96 538.24 904.13 637.02 1053.38 636.54
00013658 00000072 834.95 226.74 354.83 562.53 896.02 441.14 1056.70 439.77 944.50 534.92 903.07 634.62 1050.50 635.04
00013659 00000073 835.16 226.45 353.28 562.85 894.36 436.88 1055.77 434.84 941.47 530.23 901.94 632.15 1049.88 632.11
00013660 00000074 835.54 222.34 350.76 565.74 892.40 432.66 1052.18 430.71 936.99 525.87 899.80 629.06 1045.73 629.26
00013661 00000075 837.10 223.94 342.95 563.92 889.63 431.25 1046.68 428.55 928.16 522.39 893.95 625.57 1038.97 625.98
00013662 00000076 837.49 223.90 341.80 561.80 887.94 430.03 1042.49 429.46 922.29 518.48 891.35 622.23 1033.84 624.76
00013663 00000077 836.72 224.41 343.23 560.10 887.08 428.91 1041.50 428.23 920.76 516.63 891.05 621.74 1032.27 624.33
00013664 00000078 837.00 222.97 342.44 561.05 887.89 427.59 1043.07 426.61 922.73 515.39 891.69 620.56 1033.93 622.94
00013665 00000079 837.03 219.92 346.22 563.94 887.69 426.93 1044.61 425.00 924.20 515.38 892.37 621.44 1036.11 622.74
00013666 00000080 837.28 216.95 346.89 565.40 888.50 425.93 1046.18 422.83 926.95 514.03 894.30 621.48 1037.75 621.71
00013667 00000081 836.52 215.91 347.20 565.13 889.02 424.89 1046.79 419.57 928.95 511.60 896.11 621.28 1038.73 619.61
00013668 00000082 837.01 212.28 348.36 565.19 889.04 422.09 1047.41 416.44 929.05 510.43 897.02 618.54 1039.82 616.41
00013669 00000083 836.87 212.73 349.30 562.94 891.02 419.77 1049.04 413.47 932.48 507.07 899.37 616.16 1041.69 613.55
00013670 00000084 839.15 213.69 348.66 561.33 892.36 417.67 1049.78 411.30 933.49 505.44 900.89 615.66 1041.94 613.08
00013671 00000085 839.39 212.66 348.94 561.05 893.87 417.01 1051.55 410.48 935.13 504.60 902.28 615.54 1042.40 612.91
00013672 00000086 840.41 209.72 350.55 563.32 893.64 417.17 1052.10 409.88 935.21 504.85 902.68 615.90 1043.91 612.43
00013673 00000087 842.26 207.48 350.06 564.24 894.62 428.50 1052.94 418.59 935.73 506.42 902.98 616.80 1049.05 610.78
00013674 00000088 842.13 208.31 347.37 562.53 895.51 428.29 1053.74 418.44 936.74 504.96 903.59 615.54 1049.67 609.73
00013675 00000089 842.72 205.89 345.02 562.84 895.42 419.41 1052.81 411.14 937.15 503.67 904.73 613.13 1046.47 608.80
00013676 00000090 842.75 207.12 343.97 560.72 896.25 415.22 1052.22 407.47 937.81 501.59 905.69 611.76 1043.82 607.99
00013677 00000091 842.05 209.12 343.86 558.35 896.43 414.48 1051.87 406.39 937.59 499.73 905.20 609.83 1044.17 605.89
00013678 00000092 841.55 209.86 345.59 557.83 895.40 414.55 1050.38 405.47 936.03 498.70 904.80 609.65 1043.46 604.95
00013679 00000093 840.37 211.56 344.35 557.26 894.19 415.18 1049.15 406.16 935.27 498.59 903.61 610.41 1042.90 605.90
00013680 00000094 838.86 213.40 345.70 556.62 892.04 415.75 1047.32 405.45 933.19 498.18 902.26 611.79 1041.26 606.39
00013681 00000095 837.73 213.50 346.56 556.84 891.36 416.25 1045.77 405.56 931.95 497.70 901.38 611.56 1039.23 605.99
00013682 00000096 837.40 214.47 343.21 554.85 891.30 415.08 1044.27 405.78 932.25 498.14 901.43 609.51 1036.44 605.42
00013683 00000097 837.29 212.17 344.20 555.82 890.92 414.50 1043.84 405.82 931.99 498.22 901.36 608.45 1035.34 604.82
00013684 00000098 837.84 210.12 343.85 555.59 890.65 412.95 1043.73 405.46 932.36 498.21 901.70 609.61 1030.91 607.21
00013685 00000099 836.83 206.35 343.21 558.18 890.60 413.45 1043.98 406.05 933.23 497.75 901.51 611.35 1026.81 609.27
00013686 00000100 834.37 206.13 349.71 561.41 893.64 423.54 1042.30 416.64 933.20 508.14 901.87 617.05 1024.83 615.07
00013687 00000101 833.63 203.49 349.61 561.33 892.44 418.79 1041.17 411.53 931.94 506.95 901.33 617.31 1021.15 615.19
00013688 00000102 830.93 200.45 352.50 564.24 888.55 413.61 1039.28 404.18 928.57 503.89 898.33 619.03 1016.93 615.18
00013689 00000103 828.78 201.17 356.75 561.81 883.69 413.96 1038.82 404.10 923.56 508.80 896.65 617.84 1022.51 613.07
00013690 00000104 825.76 205.84 358.83 557.92 878.19 410.43 1035.95 399.78 924.32 499.32 895.62 610.81 1023.84 606.24
00013691 00000105 826.87 210.26 356.66 556.91 877.77 409.17 1031.81 396.50 920.32 495.85 896.06 611.15 1022.86 604.79
00013692 00000106 828.52 211.22 357.94 555.00 878.31 412.47 1034.57 399.66 917.48 497.07 894.93 609.93 1031.54 602.62
00013693 00000107 828.74 206.83 360.69 557.03 883.62 411.51 1044.32 400.00 924.83 501.96 898.12 611.60 1038.43 604.39
00013694 00000108 831.78 206.45 357.79 539.75 890.54 402.46 1050.39 394.13 934.11 486.60 899.16 593.66 1041.45 589.68
00013695 00000109 830.05 202.03 358.86 534.53 891.43 391.77 1050.59 383.28 937.42 473.15 899.70 580.99 1044.87 577.14
00013696 00000110 830.60 200.33 360.52 533.93 892.04 386.44 1047.97 376.99 934.45 463.49 899.51 574.80 1043.50 570.23
00013697 00000111 830.44 199.07 359.82 535.73 891.89 384.41 1046.54 374.16 932.91 459.81 899.75 574.25 1042.88 569.15
00013698 00000112 832.77 204.40 356.17 533.65 892.21 387.28 1046.74 376.13 933.73 462.60 901.00 577.79 1043.64 571.90
00013699 00000113 833.95 203.75 355.58 537.37 891.83 393.92 1048.87 381.00 935.56 469.66 902.61 584.90 1046.84 577.20
00013700 00000114 830.83 199.82 359.79 536.60 890.06 396.90 1049.03 386.67 936.52 474.85 900.30 582.71 1046.79 577.06
00013701 00000115 826.09 198.67 363.82 529.75 886.64 397.70 1044.52 387.80 932.82 474.77 897.65 579.16 1042.76 573.82
00013702 00000116 824.78 198.69 365.53 527.96 884.56 399.25 1041.97 389.46 928.38 475.10 895.66 579.36 1041.19 573.92
00013703 00000117 823.88 197.34 366.66 537.06 881.81 400.95 1041.74 390.03 925.85 477.82 894.68 584.80 1041.99 578.26
00013704 00000118 823.26 198.75 362.40 541.24 879.69 402.82 1040.16 392.27 923.45 482.01 893.18 588.32 1041.03 582.16
00013705 00000119 821.24 198.50 364.65 541.51 878.25 405.19 1039.14 393.90 922.79 482.64 892.89 588.98 1040.50 582.10
00013706 00000120 819.61 199.02 363.97 540.03 876.68 404.72 1038.44 394.77 921.17 482.53 890.83 587.48 1040.14 581.60
00013707 00000121 820.67 200.60 360.51 543.15 875.46 406.34 1037.08 395.96 917.48 484.24 889.78 591.70 1037.85 585.69
00013708 00000122 821.27 200.07 359.97 556.50 875.03 407.03 1035.98 394.39 915.90 486.01 891.14 599.17 1039.44 591.01
00013709 00000123 817.31 198.66 359.25 558.30 871.94 406.53 1035.43 395.34 915.28 486.72 887.77 598.62 1039.01 591.65
00013710 00000124 812.81 199.50 360.96 554.52 868.16 407.73 1032.76 397.95 912.59 489.09 883.83 596.97 1036.07 590.92
00013711 00000125 808.30 200.76 359.49 552.38 864.69 415.43 1030.75 406.93 910.31 497.84 880.01 599.34 1032.80 593.92
00013712 00000126 801.48 202.69 364.63 550.31 859.09 422.01 1027.14 411.17 906.38 503.53 877.39 604.45 1030.59 596.40
00013713 00000127 799.06 205.36 364.64 549.27 857.74 425.66 1025.30 414.95 907.50 506.43 878.76 607.46 1029.51 599.33
00013714 00000128 800.06 213.54 363.88 553.68 857.99 431.03 1025.17 420.15 909.71 513.78 879.19 613.88 1031.72 605.55
00013715 00000129 807.57 233.85 357.06 549.75 863.03 436.14 1025.24 423.25 912.82 513.39 886.66 620.30 1040.49 610.62
00013716 00000130 814.91 240.84 355.65 559.19 867.46 448.80 1023.50 433.20 911.50 530.52 892.38 639.46 1043.08 627.34
00013717 00000131 814.37 244.89 363.81 557.56 871.17 452.69 1025.48 438.51 917.30 536.45 896.83 644.68 1045.65 634.07
00013718 00000132 815.30 245.47 367.07 550.61 873.82 454.58 1028.43 440.26 920.67 535.96 896.15 640.23 1047.44 629.39
00013719 00000133 814.09 238.45 374.16 547.80 873.16 453.26 1033.16 438.91 924.40 533.49 894.41 635.49 1048.42 624.80
00013720 00000134 814.40 232.14 371.88 550.54 872.69 450.06 1034.61 435.16 924.53 529.26 892.87 630.87 1048.32 620.09
00013721 00000135 814.31 229.86 370.14 552.79 872.48 445.81 1035.55 429.92 923.76 523.99 891.97 628.40 1047.55 616.97
00013722 00000136 817.48 237.18 368.47 555.77 875.67 450.40 1034.16 432.81 923.45 526.84 894.96 634.89 1050.16 622.24
00013723 00000137 818.58 244.11 368.14 560.17 879.33 452.73 1032.89 440.12 925.78 541.15 898.51 641.85 1052.02 632.48
00013724 00000138 814.88 247.54 371.01 551.33 875.66 455.01 1028.81 441.75 922.58 540.50 897.79 640.75 1049.94 630.35
00013725 00000139 809.34 243.44 369.38 545.59 868.08 451.37 1026.03 439.13 917.91 532.27 891.81 632.96 1044.23 623.64
00013726 00000140 811.01 240.38 361.49 545.06 865.63 448.26 1024.00 435.54 912.95 530.05 888.93 629.80 1041.35 620.06
00013727 00000141 810.77 236.95 361.09 546.08 862.79 445.59 1019.41 434.06 908.72 528.35 887.38 627.34 1037.18 618.54
00013728 00000142 808.51 229.90 357.38 550.30 859.40 442.10 1021.29 432.74 905.22 529.59 880.84 623.33 1033.24 616.65
00013729 00000143 805.33 224.67 356.12 550.32 857.26 438.42 1018.66 429.89 902.99 526.65 877.36 619.41 1029.21 613.27
00013730 00000144 804.07 223.77 355.46 550.71 855.44 439.41 1016.81 430.56 900.31 525.70 874.60 620.18 1024.66 613.91
00013731 00000145 803.26 226.26 354.94 547.16 853.17 443.13 1012.60 432.00 896.88 527.54 874.24 621.96 1022.12 613.70
00013732 00000146 800.31 227.18 354.29 546.30 851.59 445.02 1009.81 433.07 895.92 527.07 872.78 624.10 1016.48 615.42
00013733 00000147 798.45 226.72 353.61 546.75 851.11 444.70 1008.23 432.16 895.52 525.60 871.92 624.99 1012.06 615.97
00013734 00000148 796.22 223.28 355.55 554.18 851.23 442.55 1006.95 431.30 895.81 526.86 871.18 628.48 1005.51 620.92
00013735 00000149 797.61 232.30 351.18 536.79 849.87 436.19 1000.33 427.61 899.09 517.94 876.74 625.48 993.61 621.02
00013736 00000150 798.19 231.86 350.34 537.01 848.54 435.71 998.01 427.28 895.88 519.08 875.31 625.79 990.64 621.36
00013737 00000151 797.25 231.29 351.88 537.37 848.21 436.28 996.59 427.40 895.16 518.97 875.43 625.39 990.30 620.50
00013738 00000152 797.06 229.59 353.25 537.58 847.69 436.35 997.16 427.02 895.25 518.95 874.89 624.82 990.49 619.51
00013739 00000153 795.40 219.33 357.22 551.89 850.38 439.23 1001.14 429.89 891.35 525.89 870.13 629.96 990.52 624.54
00013740 00000154 795.27 225.69 358.08 543.72 847.48 441.97 1009.75 423.41 894.74 516.32 875.14 638.01 992.40 622.62
00013741 00000155 795.86 227.54 355.72 540.07 849.67 440.82 1010.15 423.66 894.08 515.33 874.19 636.95 989.88 622.65
00013742 00000156 796.00 226.06 354.44 540.68 850.08 439.73 1010.36 423.56 894.05 514.76 873.98 636.21 988.80 622.86
00013743 00000157 796.36 226.26 354.74 538.94 851.00 438.69 1011.61 423.64 894.26 512.65 872.53 634.56 988.04 622.30
00013744 00000158 796.49 221.20 357.34 542.50 852.17 438.86 1011.03 422.53 894.14 508.93 873.85 633.50 986.30 620.48
00013745 00000159 798.44 213.15 352.21 549.70 852.65 434.58 1001.93 425.24 892.91 519.92 870.12 625.92 985.86 620.95
00013746 00000160 801.53 211.88 351.81 550.94 854.20 432.89 1002.17 423.69 892.68 519.07 870.56 625.33 985.19 620.64
00013747 00000161 799.78 218.26 353.16 542.23 854.18 428.71 1015.05 416.03 895.46 507.88 875.60 630.04 984.64 620.06
00013748 00000162 799.43 223.36 353.49 535.96 854.60 425.68 1016.10 413.91 895.89 505.28 874.85 628.40 984.44 618.99
00013749 00000163 797.69 220.56 355.35 537.14 855.62 423.69 1017.04 412.36 896.39 499.90 875.51 626.58 984.10 617.32
00013750 00000164 797.78 218.54 355.10 537.78 856.24 422.71 1018.46 410.33 896.87 496.53 875.28 625.52 984.25 615.38
00013751 00000165 805.13 212.52 357.83 538.27 850.60 411.44 1003.85 402.09 897.14 499.73 872.19 608.11 987.88 603.69
00013752 00000166 805.53 212.12 354.71 539.09 851.41 411.38 1005.89 402.89 898.45 500.09 872.20 608.07 989.05 604.27
00013753 00000167 806.03 212.00 358.74 538.91 851.27 411.43 1006.76 402.53 898.14 500.29 871.87 609.54 988.42 605.45
00013754 00000168 807.56 213.77 357.31 538.32 852.25 412.85 1007.20 408.63 898.26 506.80 871.73 608.08 989.84 607.61
