Video ID: 	p-u3K3BC52Q
H: 	1080
W: 	1920
FPS: 	29.97002997002997

FRAME INDEX X0 Y0 W H [Landmarks (5 Points)]

00002819 00000000 829.61 172.31 426.03 592.89 868.24 443.93 1015.35 409.97 907.37 535.93 925.48 637.52 1048.02 609.12
00002820 00000001 829.64 172.06 427.60 594.15 869.71 442.90 1018.20 407.00 911.26 535.57 927.74 637.94 1051.70 608.07
00002821 DELETE   834.90 170.84 426.04 597.87 874.04 441.21 1021.80 404.07 911.42 534.81 932.04 640.12 1056.27 609.05
00002822 DELETE   837.62 171.73 426.37 595.86 875.18 441.42 1026.91 405.12 914.77 537.03 931.31 639.80 1060.05 609.50
00002823 00000004 842.50 170.84 423.90 595.11 878.32 438.24 1032.55 403.84 918.15 536.95 931.26 638.72 1062.40 610.21
00002824 00000005 847.47 167.87 422.41 596.78 882.21 435.53 1039.11 400.16 921.99 533.15 935.86 638.41 1065.40 609.24
00002825 DELETE   849.98 167.74 425.05 595.84 886.23 431.64 1044.67 398.33 926.37 530.34 940.55 636.47 1068.61 608.79
00002826 00000007 855.02 167.61 427.17 592.58 891.62 426.61 1051.19 395.85 930.42 527.21 943.97 633.97 1072.09 608.03
00002827 00000008 860.78 170.35 427.26 587.47 898.37 424.73 1062.16 394.70 939.78 525.65 949.09 631.57 1078.84 606.00
00002828 00000009 859.52 165.98 433.11 590.88 905.60 420.81 1072.57 394.11 952.23 526.23 957.02 631.32 1087.62 608.67
00002829 00000010 861.89 163.46 429.94 589.89 908.99 418.90 1077.04 393.05 954.81 523.16 957.47 628.91 1086.09 607.21
00002830 00000011 862.24 157.99 428.31 591.28 908.12 417.08 1078.44 390.98 955.48 521.32 955.32 626.28 1086.63 604.36
00002831 00000012 865.14 152.73 422.67 596.23 905.34 417.24 1080.11 388.34 955.40 515.88 947.05 622.93 1084.90 599.04
00002832 00000013 863.56 149.37 424.30 597.76 906.04 410.56 1082.59 384.53 956.31 511.56 946.52 617.16 1088.05 595.60
00002833 00000014 857.95 143.94 433.49 600.58 906.14 407.32 1085.31 380.06 955.48 510.33 951.49 618.27 1092.65 595.35
00002834 00000015 859.72 152.19 421.36 597.92 907.17 400.58 1075.07 373.97 948.74 500.13 949.76 618.27 1090.89 595.46
00002835 00000016 857.73 150.72 422.24 599.71 907.00 394.96 1076.52 370.53 950.28 497.54 949.84 617.24 1087.93 596.49
00002836 00000017 853.81 134.24 434.88 610.59 904.05 397.35 1083.98 367.60 955.86 494.73 954.82 621.90 1085.71 596.42
00002837 00000018 853.35 140.96 426.69 603.52 900.53 396.19 1079.04 366.29 949.07 497.48 946.20 617.16 1098.08 591.49
00002838 00000019 851.95 140.83 426.75 603.98 899.51 395.99 1079.27 366.73 950.17 499.13 945.59 617.21 1100.17 592.07
00002839 00000020 851.48 139.74 426.37 606.38 898.65 396.62 1079.81 367.92 950.06 502.40 945.37 618.78 1101.58 593.95
00002840 00000021 849.48 140.24 429.59 608.91 896.99 397.24 1079.44 368.69 948.12 503.84 944.62 621.51 1101.87 596.13
00002841 00000022 847.02 140.29 436.62 611.47 897.36 397.26 1084.22 372.05 948.85 505.14 942.51 618.27 1092.20 596.73
00002842 00000023 844.37 137.82 434.05 612.62 894.19 401.23 1082.15 374.09 952.83 508.74 943.13 621.54 1088.42 599.46
00002843 00000024 842.33 139.94 434.30 614.68 891.75 404.23 1077.80 375.31 948.61 511.43 943.19 625.04 1087.39 601.24
00002844 00000025 841.63 145.51 437.20 610.91 890.74 407.79 1075.59 377.48 947.53 514.00 943.83 625.68 1088.15 600.52
00002845 00000026 842.09 145.65 438.89 614.79 890.98 409.42 1074.41 379.01 946.64 516.55 944.08 626.65 1090.19 601.14
00002846 00000027 841.27 147.21 440.04 614.29 889.82 411.87 1074.15 381.66 945.25 517.34 942.83 627.44 1091.12 601.99
00002847 00000028 840.82 151.13 439.46 608.40 887.31 413.39 1073.14 383.22 943.41 520.72 940.13 628.40 1092.62 602.94
00002848 00000029 840.42 153.58 436.45 604.21 886.44 413.84 1071.78 384.64 944.49 522.20 939.04 629.79 1090.81 605.28
00002849 00000030 841.03 151.66 435.25 605.73 887.79 414.35 1071.27 385.29 945.29 521.78 940.01 630.16 1089.15 605.88
00002850 00000031 841.38 152.80 435.13 604.62 888.74 414.34 1071.73 384.98 946.31 521.73 941.75 630.70 1089.94 606.12
00002851 00000032 840.36 151.77 436.40 605.55 889.32 415.07 1072.14 383.54 948.46 521.03 944.79 631.40 1091.45 605.07
00002852 00000033 839.64 147.59 437.12 610.14 890.63 414.34 1072.53 380.48 950.08 518.57 948.96 631.11 1091.94 602.93
00002853 00000034 838.66 148.64 436.93 609.07 891.66 412.72 1070.29 376.97 949.56 514.83 953.73 629.27 1089.92 599.50
00002854 00000035 838.10 147.94 437.88 606.64 893.41 410.86 1071.45 375.07 952.21 510.62 955.17 625.19 1088.24 595.42
00002855 00000036 837.83 145.36 436.41 607.35 892.93 410.67 1072.75 374.53 952.61 508.89 953.23 623.55 1088.23 593.59
00002856 00000037 837.01 145.50 437.82 604.49 891.96 411.01 1072.61 374.74 952.35 509.43 951.69 623.36 1089.38 593.48
00002857 00000038 836.31 147.85 437.40 601.99 890.59 413.04 1070.82 375.33 951.70 511.58 951.39 624.54 1091.24 593.47
00002858 00000039 835.23 149.10 437.07 603.01 888.80 414.68 1067.61 377.06 948.48 515.72 950.63 627.12 1091.10 595.94
00002859 00000040 835.15 148.50 436.15 606.34 886.89 417.48 1063.51 380.05 944.80 517.79 948.84 629.57 1089.07 598.51
00002860 00000041 835.64 154.60 437.35 603.90 886.03 421.31 1057.44 382.68 940.53 521.12 950.67 632.05 1088.18 599.76
00002861 00000042 835.67 161.15 438.96 603.33 884.94 422.98 1053.22 386.27 934.46 523.80 950.03 635.15 1082.77 604.56
00002862 00000043 833.49 168.17 439.10 602.12 883.22 427.46 1049.41 389.88 933.02 527.46 949.76 638.16 1080.46 606.86
00002863 00000044 830.78 172.27 439.65 599.85 879.36 430.20 1045.20 391.50 931.11 532.50 947.86 641.52 1078.36 609.32
00002864 00000045 825.71 174.26 441.71 596.74 873.87 431.45 1038.58 393.60 927.61 536.29 942.18 641.44 1072.58 610.01
00002865 00000046 820.66 177.66 442.11 590.62 869.14 433.50 1034.24 395.93 925.03 539.84 935.37 640.71 1070.16 609.50
00002866 00000047 816.65 174.15 443.50 594.14 865.96 434.18 1032.31 398.27 923.30 543.26 931.26 640.84 1068.00 610.99
00002867 00000048 813.18 176.08 444.85 596.70 862.82 437.45 1031.38 402.56 922.51 549.29 927.58 642.41 1066.59 613.33
00002868 00000049 809.05 179.99 445.97 595.63 859.88 442.33 1026.90 409.17 919.31 554.64 925.31 644.54 1062.42 616.81
00002869 00000050 808.79 180.23 443.03 596.25 858.83 445.15 1024.42 411.65 917.44 555.76 923.83 645.60 1060.82 617.58
00002870 00000051 804.73 182.67 445.00 594.00 855.22 446.93 1022.19 411.76 915.71 555.98 923.13 646.65 1060.01 617.10
00002871 00000052 801.70 182.45 445.67 594.39 852.97 448.42 1020.94 412.54 915.70 556.45 921.88 646.93 1059.16 616.78
00002872 00000053 800.28 182.77 446.28 593.72 850.74 449.94 1018.81 413.22 912.92 557.22 918.77 647.44 1057.04 616.60
00002873 00000054 797.18 183.41 448.35 593.19 848.16 452.71 1016.53 414.73 910.11 557.21 916.03 648.39 1055.33 616.47
00002874 00000055 795.67 180.51 447.26 597.58 846.30 452.31 1015.54 415.52 907.91 558.02 913.25 649.11 1053.16 618.22
00002875 00000056 795.34 182.73 445.22 595.81 845.07 453.80 1012.77 418.15 906.58 560.78 911.47 651.74 1048.46 621.86
00002876 00000057 794.38 183.32 443.81 596.92 844.11 454.29 1011.04 418.97 904.07 562.04 911.52 652.77 1047.70 623.12
00002877 00000058 794.26 184.26 440.64 596.85 844.39 454.35 1010.26 418.01 902.71 561.22 913.09 652.75 1049.23 622.12
00002878 00000059 792.96 184.96 441.79 599.80 844.96 454.73 1009.46 417.33 902.19 560.60 915.01 653.16 1049.46 621.76
00002879 00000060 791.78 185.26 442.06 600.78 844.42 452.69 1008.61 414.34 901.45 559.36 916.84 652.82 1050.87 620.49
00002880 00000061 791.67 190.12 441.67 596.42 844.46 452.63 1007.57 412.70 901.39 557.18 917.67 652.18 1049.97 618.52
00002881 00000062 791.72 189.03 440.43 595.52 843.51 450.55 1006.81 411.07 899.36 555.69 915.75 649.90 1049.09 616.53
00002882 00000063 791.60 189.07 438.93 593.03 841.55 449.69 1004.96 408.52 896.32 552.53 913.37 649.61 1045.69 614.86
00002883 00000064 790.72 189.09 439.01 589.95 840.08 448.51 1003.94 406.94 894.70 549.60 911.19 648.39 1043.39 613.30
00002884 00000065 789.15 186.47 441.55 590.34 838.38 448.22 1003.46 406.69 893.63 549.46 907.84 647.75 1041.85 612.56
00002885 00000066 788.74 186.00 439.35 588.11 834.81 448.36 1001.53 405.44 891.17 550.94 903.83 647.59 1041.62 611.05
00002886 00000067 788.19 187.31 439.03 585.89 832.68 449.77 998.15 405.34 889.31 551.62 903.22 648.52 1039.58 610.64
00002887 00000068 787.51 187.33 427.67 586.52 832.18 449.97 991.11 405.49 883.00 555.13 901.91 648.73 1033.02 610.02
00002888 00000069 784.67 185.10 427.01 588.12 828.43 450.15 986.82 406.84 879.01 557.21 899.61 649.21 1030.65 611.54
00002889 00000070 782.06 186.23 426.66 587.84 826.09 450.66 983.56 407.98 876.77 558.07 898.42 649.35 1027.14 612.34
00002890 00000071 782.10 186.65 426.53 586.28 825.55 450.70 982.10 408.79 875.63 557.55 897.60 648.72 1024.24 612.51
00002891 00000072 782.26 185.82 426.97 586.98 825.37 450.13 982.50 408.12 875.50 557.15 897.02 648.91 1024.33 612.61
00002892 00000073 782.01 184.70 427.19 588.38 825.78 449.48 982.98 407.52 876.19 556.77 897.65 648.45 1025.02 612.17
00002893 00000074 781.09 185.07 427.12 588.49 825.24 447.83 984.15 406.60 876.41 557.00 896.81 648.79 1025.50 613.22
00002894 00000075 780.05 184.97 426.31 586.56 824.75 447.12 983.93 406.27 876.41 556.83 896.52 648.18 1025.25 612.98
00002895 00000076 778.09 185.05 427.03 585.72 823.55 444.90 982.96 404.87 875.02 555.89 895.93 647.30 1024.61 612.81
00002896 00000077 777.30 185.64 427.33 583.99 822.27 443.03 981.85 403.49 873.73 554.25 894.39 646.60 1022.24 612.67
00002897 00000078 776.89 185.68 428.37 582.70 821.62 442.17 981.38 402.91 872.38 553.66 893.68 646.29 1021.34 612.59
00002898 00000079 776.58 182.68 428.54 582.17 821.82 441.76 981.54 402.44 872.66 552.28 893.84 645.20 1021.87 611.37
00002899 00000080 777.95 183.53 426.53 576.82 822.27 442.34 983.73 402.07 875.00 551.88 893.70 645.22 1023.58 610.65
00002900 00000081 777.22 187.49 431.60 579.60 825.22 440.23 983.05 403.68 870.55 544.25 894.04 641.98 1029.20 609.96
00002901 00000082 781.17 182.80 427.20 575.08 824.34 442.89 988.84 400.96 878.85 550.11 894.76 643.92 1026.31 607.95
00002902 00000083 778.03 187.98 431.39 576.72 826.19 439.47 985.01 401.72 872.75 543.23 895.27 641.32 1030.98 608.36
00002903 00000084 779.16 188.52 430.82 574.49 827.07 439.22 986.18 401.31 873.23 542.52 895.27 640.52 1031.45 607.36
00002904 00000085 780.08 188.43 429.37 575.47 828.17 439.18 986.55 401.63 874.20 542.52 895.66 640.42 1031.46 607.61
00002905 00000086 782.55 188.55 427.94 576.16 829.45 440.15 987.81 402.06 874.78 542.47 896.44 641.00 1032.71 607.82
00002906 00000087 785.11 185.06 436.21 572.68 828.97 445.74 997.78 404.53 890.77 548.28 898.28 643.88 1037.77 608.51
00002907 00000088 785.62 183.60 437.68 574.46 830.48 447.06 999.56 405.91 892.04 548.87 899.15 644.17 1038.92 609.05
00002908 00000089 787.07 183.67 438.18 577.54 831.76 448.36 1000.65 406.50 892.88 549.43 899.67 645.26 1040.74 609.62
00002909 00000090 786.95 186.31 439.45 580.73 832.29 449.66 1002.29 407.63 892.45 549.75 898.58 646.56 1041.92 610.72
00002910 00000091 788.34 184.62 438.24 590.48 835.55 449.84 1003.76 408.27 893.30 549.65 901.34 647.06 1043.11 611.65
00002911 00000092 789.20 185.10 438.39 592.32 837.71 450.16 1004.23 408.71 894.92 550.10 904.86 647.72 1044.24 612.45
00002912 00000093 789.72 185.64 438.87 589.90 838.12 448.82 1005.83 409.15 896.19 549.83 904.54 646.98 1044.38 613.30
00002913 00000094 790.05 187.85 438.75 586.00 839.35 447.24 1007.13 408.77 898.27 548.81 904.59 645.04 1044.06 612.47
00002914 00000095 789.79 186.45 439.13 584.62 839.21 446.07 1008.51 409.02 899.64 548.50 903.50 643.69 1043.34 612.26
00002915 00000096 790.61 186.67 437.54 582.63 841.25 444.82 1008.55 407.72 902.68 546.07 906.90 640.82 1045.85 609.28
00002916 00000097 791.04 185.43 438.07 591.06 842.71 447.45 1010.85 409.53 902.83 544.05 906.98 642.31 1048.20 610.03
00002917 00000098 790.11 184.98 438.75 591.62 844.09 448.23 1013.33 409.39 907.09 544.06 909.51 641.65 1053.33 608.69
00002918 00000099 791.22 184.02 437.57 590.56 843.21 447.61 1012.97 408.91 906.61 545.84 908.11 641.83 1053.52 608.97
00002919 00000100 790.46 184.09 438.16 586.10 841.52 445.89 1012.53 408.26 905.76 547.40 905.43 640.26 1053.11 608.36
00002920 00000101 790.05 185.54 438.24 583.05 841.05 445.24 1012.73 409.08 905.37 548.94 905.14 639.43 1052.65 608.64
00002921 00000102 791.58 185.34 436.72 584.39 841.81 445.98 1013.49 409.51 904.74 548.94 905.55 640.94 1052.19 609.88
00002922 00000103 791.72 183.67 436.95 588.65 841.97 448.16 1013.89 410.89 904.57 550.39 906.02 643.46 1051.91 611.90
00002923 00000104 791.89 182.90 437.79 590.45 841.71 449.54 1013.15 411.65 903.86 551.55 905.55 644.91 1051.05 612.78
00002924 00000105 793.41 183.66 435.73 590.18 841.73 450.40 1012.62 412.40 902.82 551.87 904.54 644.97 1050.72 612.75
00002925 00000106 790.83 185.31 437.13 589.02 842.09 448.45 1012.53 412.33 903.12 549.62 904.58 642.94 1050.58 612.21
00002926 00000107 791.01 185.22 437.01 588.94 842.47 448.35 1011.46 411.86 903.40 550.98 906.80 643.62 1050.42 612.23
00002927 00000108 800.22 185.90 427.61 583.19 843.19 445.03 1012.59 410.13 903.96 550.11 910.28 642.02 1051.95 612.09
00002928 00000109 802.56 187.08 426.09 578.06 842.37 443.43 1012.94 409.04 905.14 549.58 909.04 640.31 1050.90 611.06
00002929 00000110 802.96 189.49 425.08 575.27 842.77 442.82 1011.28 408.27 902.90 550.35 908.74 640.44 1049.44 611.12
00002930 00000111 798.76 187.68 427.77 576.81 840.36 443.88 1006.65 407.93 900.38 552.54 907.57 642.46 1047.27 611.44
00002931 00000112 794.48 193.08 419.27 570.67 839.88 449.62 1001.94 408.44 897.01 552.34 903.08 644.40 1038.62 608.39
00002932 00000113 789.06 193.71 426.30 574.51 834.74 448.99 995.67 410.85 889.54 558.70 900.37 645.12 1035.96 611.55
00002933 00000114 788.60 193.71 417.04 572.71 827.81 449.30 991.35 414.23 885.97 564.64 894.99 645.79 1030.69 615.17
00002934 00000115 780.60 192.96 434.80 575.79 827.02 451.26 991.34 416.11 886.77 563.66 894.75 647.43 1032.90 615.87
00002935 00000116 772.91 200.58 428.76 573.17 822.93 446.66 979.47 419.73 872.68 560.68 892.22 646.56 1024.68 622.90
00002936 00000117 770.58 199.24 429.64 576.87 820.62 449.57 978.92 420.57 871.47 560.50 890.14 648.53 1024.92 623.05
00002937 00000118 770.05 198.89 428.25 575.95 819.99 451.30 978.84 421.79 870.86 560.90 889.61 647.52 1024.96 621.64
00002938 00000119 777.39 196.82 428.01 571.61 822.97 456.18 985.22 421.03 885.41 566.57 891.51 651.15 1026.54 619.32
00002939 00000120 776.52 197.74 430.08 573.89 822.81 455.16 984.22 420.59 883.09 566.77 891.46 650.99 1026.62 619.45
00002940 00000121 774.41 196.73 424.15 572.37 819.17 456.26 976.21 420.64 873.36 568.30 892.73 648.76 1020.03 617.91
00002941 00000122 775.25 199.49 429.91 570.91 821.65 456.19 981.66 419.60 880.56 564.02 890.99 651.73 1023.27 618.52
00002942 00000123 773.97 198.51 430.06 571.50 821.36 456.37 981.03 419.80 880.36 563.68 890.20 651.32 1022.86 618.10
00002943 00000124 772.61 196.17 430.14 576.35 820.85 455.37 981.52 419.44 879.95 563.00 888.59 650.67 1023.66 617.85
00002944 00000125 772.58 194.00 428.69 578.94 820.96 455.63 981.59 418.93 879.76 562.28 888.05 651.15 1023.26 617.67
00002945 00000126 772.04 194.66 428.54 579.99 820.62 454.80 980.96 417.94 878.55 561.73 887.28 650.74 1023.01 617.00
00002946 00000127 769.46 190.77 425.10 587.24 817.83 455.41 970.77 417.93 869.83 564.59 890.56 648.08 1016.67 615.69
00002947 00000128 769.06 192.12 425.48 592.77 819.89 456.46 969.92 416.30 870.82 563.01 896.86 649.70 1020.06 614.81
00002948 00000129 768.14 197.62 427.68 591.93 821.26 458.08 968.68 417.14 870.91 562.82 899.95 650.96 1020.94 615.26
00002949 00000130 766.67 197.94 428.40 589.99 819.99 458.35 968.01 418.63 871.04 563.63 899.55 650.98 1019.22 616.31
00002950 00000131 766.16 199.42 427.46 587.32 819.39 459.86 967.30 419.46 871.53 563.94 898.86 651.18 1018.59 616.06
00002951 00000132 764.72 199.50 428.43 587.48 818.79 459.93 966.88 420.16 871.33 564.22 898.50 651.35 1018.03 616.71
00002952 00000133 763.20 199.92 429.69 586.87 817.95 459.96 967.12 420.98 871.28 564.76 897.10 651.97 1016.53 618.06
00002953 00000134 761.75 200.75 430.08 584.05 816.83 459.63 967.54 421.46 871.12 565.17 895.03 651.91 1015.45 618.82
00002954 00000135 761.16 200.72 429.55 582.24 816.04 459.98 967.08 422.42 870.90 565.48 893.32 651.61 1013.85 619.16
00002955 00000136 759.83 202.07 429.70 577.92 813.89 459.89 966.95 422.73 870.21 566.47 890.01 651.16 1013.46 619.18
00002956 00000137 760.00 199.86 429.89 578.16 812.86 459.50 966.58 422.80 869.02 566.54 887.48 650.16 1012.77 618.62
00002957 00000138 759.21 200.32 430.62 580.09 812.83 459.36 966.90 422.57 869.41 566.77 888.46 650.92 1013.23 619.23
00002958 00000139 760.32 195.13 431.02 588.62 814.77 460.08 966.99 422.47 870.07 566.89 891.32 652.77 1014.15 620.40
00002959 00000140 761.19 196.23 430.26 588.92 816.48 458.87 969.45 422.20 872.43 568.27 894.00 652.88 1017.43 621.17
00002960 00000141 762.54 199.45 431.18 586.59 818.65 458.76 972.97 422.26 874.47 567.36 894.36 651.86 1020.88 620.23
00002961 00000142 763.12 195.92 429.27 588.27 817.50 456.50 975.88 421.03 874.64 565.08 890.08 649.82 1019.96 619.25
00002962 00000143 764.48 192.65 427.52 589.93 817.38 456.50 975.98 419.79 874.64 563.34 888.47 648.90 1019.26 617.45
00002963 00000144 763.41 189.42 428.02 593.66 816.91 456.32 975.97 418.64 875.26 563.05 888.47 648.80 1019.99 616.50
00002964 00000145 762.06 188.86 429.25 595.27 816.49 457.23 974.81 419.42 875.18 563.08 889.09 648.64 1019.27 616.26
00002965 00000146 759.84 189.26 431.58 595.02 815.13 458.41 974.27 419.55 874.81 562.60 887.27 649.64 1017.85 616.51
00002966 00000147 756.62 188.68 432.88 593.51 812.52 458.11 973.40 419.34 874.56 563.58 883.66 647.57 1017.47 614.55
00002967 00000148 755.23 188.47 432.53 592.43 810.78 458.08 971.71 420.24 873.79 564.81 882.10 647.43 1015.52 615.24
00002968 00000149 753.99 186.18 433.19 595.24 809.79 457.96 970.09 420.93 872.50 564.91 881.60 647.35 1014.25 615.78
00002969 00000150 752.37 190.19 434.16 593.01 808.68 459.09 969.35 421.36 871.61 564.48 880.85 648.36 1014.41 616.14
00002970 00000151 751.57 190.63 434.77 593.04 806.91 459.59 967.26 421.00 869.71 565.26 879.56 648.79 1014.23 615.81
00002971 00000152 749.72 190.68 436.18 595.22 805.27 459.58 966.39 421.05 868.23 566.20 878.06 649.42 1014.40 616.46
00002972 00000153 746.63 192.42 438.70 596.12 802.02 459.66 964.62 421.19 866.45 569.60 876.53 651.43 1013.56 618.46
00002973 00000154 744.24 192.56 441.97 598.29 800.51 460.68 963.83 422.28 865.24 571.03 875.83 653.47 1011.01 620.56
00002974 00000155 742.61 191.71 442.60 599.16 797.51 461.21 961.03 421.36 861.96 569.78 872.01 653.98 1008.47 619.93
00002975 00000156 739.72 192.60 443.63 598.31 794.05 462.55 959.90 421.07 860.42 569.33 867.02 653.51 1008.11 618.10
00002976 00000157 736.89 195.39 442.41 593.85 791.05 463.75 956.76 422.20 858.23 570.00 864.10 652.88 1005.84 617.33
00002977 00000158 732.72 196.75 443.00 588.52 786.81 465.26 954.53 423.58 856.71 571.62 859.90 652.99 1004.10 617.36
00002978 00000159 730.50 197.58 442.09 587.09 784.61 467.65 954.06 425.21 857.08 573.79 857.77 653.26 1003.58 617.09
00002979 00000160 729.66 197.62 441.46 588.44 782.49 468.98 952.42 426.61 854.65 576.01 855.30 654.22 1002.27 618.17
00002980 00000161 729.44 199.60 441.46 587.38 780.64 471.03 950.85 427.69 851.99 577.35 853.02 656.58 1000.21 619.73
00002981 00000162 727.60 200.97 440.88 586.93 779.07 470.20 949.46 428.97 849.82 579.28 850.89 656.46 998.40 621.35
00002982 00000163 726.80 200.26 440.01 590.20 778.44 470.45 947.84 428.62 847.82 578.51 850.61 657.81 997.79 622.18
00002983 00000164 725.38 199.11 440.48 593.09 778.25 470.58 946.10 429.50 846.26 578.93 849.77 656.97 997.54 621.82
00002984 00000165 724.55 199.09 441.01 593.86 778.15 470.20 944.64 429.47 844.40 578.40 849.97 656.96 996.72 621.97
00002985 00000166 722.93 197.62 441.57 596.86 777.80 469.55 943.96 428.61 843.57 577.31 849.63 656.87 996.27 621.66
00002986 00000167 722.21 198.61 439.59 598.03 777.40 468.45 943.02 428.30 842.42 577.23 848.78 657.43 995.17 622.76
00002987 00000168 721.79 199.29 438.01 597.90 776.75 467.85 941.62 427.03 841.88 577.27 849.09 657.67 995.57 622.32
