Video ID: 	48w2zDDAaic
H: 	1080
W: 	1920
FPS: 	25.0

FRAME INDEX X0 Y0 W H [Landmarks (5 Points)]

00001576 00000000 523.27 162.51 446.96 618.27 719.00 432.29 892.75 387.52 881.12 516.18 794.45 655.32 926.87 618.13
00001577 DELETE   521.74 167.78 449.06 618.04 721.43 435.66 894.80 390.52 883.35 514.22 797.77 658.78 927.93 618.38
00001578 DELETE   520.63 167.83 445.26 616.67 709.99 438.11 886.62 396.18 866.55 518.43 777.10 656.52 914.90 622.30
00001579 DELETE   515.47 162.62 445.83 622.15 694.87 436.36 877.73 392.41 851.34 522.51 764.10 656.11 909.58 620.20
00001580 00000004 508.97 161.04 447.41 624.92 680.68 432.36 868.43 386.59 839.66 524.67 756.79 655.07 905.85 617.19
00001581 00000005 501.78 157.22 451.35 635.04 670.64 431.84 859.20 382.64 829.88 526.11 747.49 656.76 899.52 615.82
00001582 00000006 495.52 156.30 457.46 648.54 658.64 431.71 851.31 380.53 818.29 523.82 735.94 659.20 896.42 616.73
00001583 00000007 490.51 155.77 459.74 656.52 649.86 432.96 843.15 381.69 807.25 522.72 728.79 661.91 892.43 620.10
00001584 00000008 486.13 156.77 461.96 653.81 645.27 434.14 837.98 382.54 801.24 522.80 726.83 662.21 889.42 620.42
00001585 00000009 483.16 158.87 462.86 641.69 645.49 436.08 836.60 384.99 799.32 522.54 732.58 662.19 885.81 620.64
00001586 00000010 482.38 157.98 463.41 643.66 644.33 437.62 833.37 383.69 799.31 521.78 736.35 665.80 886.59 622.15
00001587 00000011 481.09 156.26 462.83 645.53 644.22 438.11 830.02 383.18 799.77 517.51 738.52 665.44 885.68 621.20
00001588 00000012 481.48 153.20 462.85 642.84 644.35 435.56 829.96 378.69 800.39 512.54 739.78 661.38 886.87 615.52
00001589 00000013 480.67 152.93 464.18 641.94 643.39 433.29 828.78 375.91 800.20 508.79 737.69 659.27 886.36 613.28
00001590 00000014 479.16 151.75 464.70 645.12 640.66 432.84 826.28 375.33 798.17 508.12 732.04 657.31 885.29 611.13
00001591 00000015 475.23 153.71 463.74 637.78 636.75 435.71 823.67 377.67 793.83 512.40 729.12 656.39 881.57 609.65
00001592 00000016 473.75 156.54 464.13 632.26 635.42 439.37 823.37 380.51 792.90 516.57 727.67 656.71 880.37 609.20
00001593 00000017 471.49 159.04 468.12 629.48 633.97 442.12 821.84 381.18 791.74 517.34 728.78 657.51 880.36 608.14
00001594 00000018 469.81 158.10 470.22 632.68 632.66 442.93 820.04 381.08 791.50 518.04 729.05 659.51 880.72 609.35
00001595 00000019 467.55 154.56 470.51 633.30 633.12 440.61 816.99 379.16 791.37 514.68 729.86 657.87 877.36 608.16
00001596 00000020 467.40 151.66 470.45 633.24 632.13 436.76 816.25 376.34 790.28 508.05 728.69 654.09 876.69 605.60
00001597 00000021 469.34 149.08 467.91 635.34 633.36 433.82 816.01 373.80 791.26 503.69 728.89 652.18 876.12 604.22
00001598 00000022 469.43 151.23 468.41 632.79 633.89 434.58 816.47 374.64 791.96 505.50 730.52 652.98 877.18 605.09
00001599 00000023 469.71 152.97 468.31 633.27 633.92 436.25 816.77 376.35 791.74 507.85 731.31 655.05 877.63 607.03
00001600 00000024 469.07 154.17 465.94 636.96 634.17 435.80 816.29 377.60 791.76 509.91 731.90 658.54 875.49 611.75
00001601 00000025 469.79 154.21 464.47 638.74 635.84 437.42 817.32 379.17 793.46 511.14 734.12 660.48 876.66 613.40
00001602 00000026 471.11 153.85 463.96 640.62 636.45 438.66 818.32 378.71 794.33 512.91 736.66 662.53 878.33 613.96
00001603 00000027 470.94 156.94 462.60 640.16 636.97 440.10 820.70 380.31 796.01 515.39 738.23 666.81 878.67 618.02
00001604 00000028 469.24 158.38 466.99 645.03 636.50 442.66 821.16 383.86 794.26 518.44 737.39 670.94 877.46 622.83
00001605 00000029 470.61 157.57 466.70 655.97 636.08 444.21 819.67 384.65 794.39 519.83 734.85 673.42 879.68 624.60
00001606 00000030 472.00 157.30 468.90 653.57 636.09 444.64 820.80 384.91 795.23 518.97 730.82 667.30 883.54 618.60
00001607 00000031 473.90 157.82 468.01 644.43 637.56 444.88 824.09 384.08 795.61 519.21 733.40 665.65 884.33 616.26
00001608 00000032 473.63 157.99 467.85 637.60 637.36 442.99 825.09 381.34 796.59 518.01 734.88 663.72 885.10 613.66
00001609 00000033 474.90 155.91 464.95 638.54 637.85 441.45 822.84 379.13 797.03 515.10 735.02 660.80 884.69 610.42
00001610 00000034 472.49 152.14 467.30 640.36 635.99 439.09 819.11 377.48 794.20 511.70 731.88 658.12 881.14 608.55
00001611 00000035 471.49 151.94 468.04 638.34 635.76 438.98 818.22 377.89 793.88 510.33 732.08 656.76 880.65 607.67
00001612 00000036 472.31 153.23 465.31 634.19 635.62 439.63 818.30 378.97 792.78 512.46 730.60 654.93 879.49 606.05
00001613 00000037 471.77 157.13 465.55 629.05 636.46 441.63 821.56 380.24 795.31 517.22 732.11 657.14 880.85 607.39
00001614 00000038 472.97 155.51 465.83 631.52 636.55 444.07 821.95 381.62 795.26 518.67 733.40 659.08 882.84 608.46
00001615 00000039 473.41 155.92 466.15 635.55 636.59 443.90 821.93 380.11 796.64 518.20 734.46 659.91 885.64 607.94
00001616 00000040 475.81 156.34 464.14 638.85 638.03 443.56 822.83 379.72 798.13 518.45 735.21 659.06 888.75 606.88
00001617 00000041 477.33 157.20 463.18 640.03 638.74 444.58 825.04 380.16 799.41 519.33 736.93 661.93 890.49 609.12
00001618 00000042 477.42 158.94 464.85 641.19 639.36 443.92 826.88 381.09 799.77 520.12 735.47 662.34 890.34 610.77
00001619 00000043 477.89 158.14 464.79 646.61 640.19 443.96 826.16 382.31 799.59 520.79 735.01 663.75 888.78 613.28
00001620 00000044 477.18 158.72 469.89 657.05 641.48 445.18 826.66 384.16 801.19 521.41 738.12 668.86 891.81 618.95
00001621 00000045 477.80 162.09 471.42 659.11 640.69 445.30 827.35 383.00 801.61 522.88 735.73 669.02 896.16 617.92
00001622 00000046 478.33 162.12 469.51 653.90 642.11 445.72 828.46 385.17 801.32 522.65 736.58 669.27 892.71 620.00
00001623 00000047 480.14 164.24 465.42 645.96 644.97 444.65 831.15 386.27 803.35 521.81 741.07 669.68 890.56 622.31
00001624 00000048 488.25 163.31 455.74 635.21 659.80 450.92 844.26 398.81 816.11 518.84 747.23 663.11 891.99 621.70
00001625 DELETE   494.01 168.93 452.31 623.57 668.36 454.60 847.95 403.60 822.47 519.31 752.75 660.79 893.06 620.71
00001626 DELETE   497.91 166.41 452.84 625.62 676.71 452.23 852.76 400.47 831.21 520.83 758.52 661.97 896.20 620.88
00001627 DELETE   505.80 163.92 448.27 622.65 685.93 446.68 862.53 399.36 842.02 517.70 766.04 660.23 903.84 622.34
00001628 00000052 512.90 163.38 446.12 621.21 695.64 437.43 875.11 395.41 851.75 516.89 770.93 656.82 908.92 622.91
00001629 00000053 520.20 167.67 441.45 618.31 706.76 432.83 883.23 391.63 865.96 513.49 785.27 657.31 919.24 623.49
00001630 00000054 526.34 166.09 444.16 623.32 722.89 428.10 895.64 383.03 887.04 507.60 804.92 661.95 933.28 621.59
00001631 00000055 531.57 167.25 446.25 618.84 730.78 427.64 904.58 382.99 894.86 508.26 809.15 658.58 940.27 618.75
00001632 00000056 538.15 162.32 445.98 620.82 739.57 427.77 913.65 382.08 904.87 509.14 815.09 656.08 947.01 615.51
00001633 00000057 542.72 163.46 444.92 619.35 746.57 426.77 919.21 382.21 913.06 511.95 821.25 657.61 951.36 618.21
00001634 DELETE   550.45 155.55 444.95 634.97 748.17 433.10 921.68 388.20 913.22 517.13 823.27 657.19 958.27 620.09
00001635 00000059 553.54 156.25 446.06 633.97 754.89 431.38 927.44 387.37 919.66 520.90 823.15 656.76 959.13 621.05
00001636 00000060 555.19 156.38 446.79 645.42 757.58 429.22 931.45 388.68 923.39 521.50 819.20 657.98 960.24 624.94
00001637 00000061 556.83 159.82 447.18 642.00 759.07 426.04 934.04 387.84 925.03 522.89 821.34 657.00 962.35 625.59
00001638 00000062 558.66 160.11 445.85 634.52 762.23 423.05 937.61 387.72 925.76 523.34 824.63 654.82 962.89 625.69
00001639 00000063 557.61 159.72 449.20 635.04 761.71 422.52 938.88 388.10 925.74 522.91 820.97 652.23 962.37 623.84
00001640 00000064 556.08 158.99 450.03 639.34 759.87 422.08 937.48 387.93 925.94 522.91 816.14 651.90 960.58 623.88
00001641 00000065 556.84 157.93 450.34 635.83 758.97 421.04 937.80 388.23 920.97 522.43 817.89 650.83 960.47 623.71
00001642 00000066 556.53 156.75 450.03 634.23 757.26 418.49 936.94 386.90 918.69 520.53 819.94 650.96 960.45 624.64
00001643 00000067 554.88 155.73 449.78 635.74 755.01 417.53 934.37 387.78 915.23 520.01 817.71 652.52 956.43 627.81
00001644 00000068 553.58 157.71 450.31 634.85 753.31 416.18 933.65 387.32 912.96 520.49 814.75 652.77 954.51 628.87
00001645 00000069 553.29 154.86 449.01 640.13 751.69 414.94 932.00 387.73 909.96 520.12 810.85 652.78 951.20 630.13
00001646 00000070 553.21 154.86 445.66 647.83 747.03 413.53 926.35 390.40 903.11 520.62 803.62 654.07 945.62 634.65
00001647 00000071 551.89 152.28 446.05 644.09 743.52 413.62 925.01 392.10 897.18 519.63 799.47 651.24 942.32 633.17
00001648 00000072 550.96 151.47 445.21 639.84 738.54 411.17 926.57 393.01 891.92 516.68 793.19 646.76 940.22 631.15
00001649 00000073 550.75 150.55 443.83 641.29 735.61 408.37 924.20 394.14 886.86 513.38 786.33 644.13 935.22 631.90
00001650 00000074 550.63 151.83 443.54 638.91 733.49 407.00 924.20 394.85 883.43 513.15 781.63 642.09 932.01 631.76
00001651 00000075 551.36 148.86 444.05 639.07 734.28 405.60 927.59 394.46 883.31 513.73 779.89 639.84 933.18 630.11
00001652 00000076 551.78 146.09 447.01 643.90 737.49 404.14 928.96 395.38 884.96 515.45 780.13 638.96 932.99 631.07
00001653 00000077 553.22 144.77 448.42 646.67 742.06 402.95 931.18 394.80 889.33 516.99 785.26 642.24 932.68 634.92
00001654 00000078 555.07 146.52 447.79 646.95 745.03 404.73 933.00 397.05 891.57 519.62 789.54 646.17 933.13 639.32
00001655 00000079 557.52 148.79 447.03 646.72 747.88 406.68 933.22 399.13 893.68 523.69 790.60 648.56 933.31 641.98
00001656 00000080 558.54 148.75 448.15 653.75 749.51 407.33 934.24 400.80 894.20 527.63 788.74 650.65 932.68 644.96
00001657 00000081 557.98 149.33 452.15 658.19 752.66 407.68 937.43 401.37 898.15 531.10 790.02 654.48 934.28 649.02
00001658 00000082 559.89 148.42 455.10 661.19 757.11 406.78 943.06 402.92 903.78 530.89 793.00 654.65 939.42 651.14
00001659 00000083 562.92 147.67 454.20 662.40 763.88 406.05 949.03 404.12 910.70 530.81 797.66 655.60 942.34 653.69
00001660 00000084 570.22 146.03 451.26 657.89 772.05 408.60 955.70 406.57 918.67 532.05 804.25 651.70 949.54 649.42
00001661 00000085 575.83 147.37 449.29 650.35 783.19 409.55 963.04 414.18 925.83 535.26 810.57 649.41 952.55 652.56
00001662 00000086 582.90 148.12 444.15 651.90 792.39 410.78 967.04 413.27 934.44 534.92 817.88 649.76 955.70 651.24
00001663 00000087 592.57 144.11 438.27 662.65 802.98 406.18 976.67 416.22 944.02 528.65 821.82 644.95 962.00 652.15
00001664 00000088 593.75 149.75 447.39 665.18 812.06 399.82 993.47 416.29 959.54 526.91 823.57 645.50 973.59 659.17
00001665 00000089 605.47 152.23 445.48 672.69 820.48 398.09 997.86 413.05 968.19 527.54 824.66 646.62 974.94 659.92
00001666 00000090 614.00 139.70 445.98 688.16 829.38 395.03 1003.77 412.04 970.50 527.54 827.76 642.84 977.82 657.62
00001667 00000091 618.48 126.89 445.15 682.27 838.98 386.73 1014.29 410.46 975.79 521.27 839.47 630.61 982.80 649.48
00001668 00000092 625.85 120.39 443.06 671.13 849.90 376.52 1026.06 410.35 986.19 512.66 849.23 618.16 989.72 644.69
00001669 00000093 629.15 120.21 445.44 667.31 857.19 371.57 1031.59 411.60 993.48 507.51 849.48 609.17 991.12 641.18
00001670 00000094 633.07 113.69 445.22 675.83 860.13 362.77 1030.16 402.30 996.31 498.47 850.42 603.55 988.49 635.22
00001671 00000095 634.58 110.24 446.02 677.55 861.10 355.36 1034.82 395.39 999.50 491.43 847.41 597.04 991.30 629.22
00001672 00000096 640.21 107.28 442.49 675.17 863.43 344.78 1037.46 391.04 999.29 479.87 851.34 590.01 993.14 626.69
00001673 00000097 641.19 106.60 449.83 672.15 866.87 346.90 1034.46 383.19 1003.49 473.90 863.09 585.46 1000.92 616.02
00001674 00000098 641.58 106.63 451.68 658.67 867.72 347.69 1038.02 383.06 1006.02 470.56 866.47 578.94 1006.87 608.57
00001675 00000099 645.59 105.20 447.93 654.25 869.09 348.46 1040.51 384.76 1007.10 471.30 867.97 578.85 1008.67 609.32
00001676 00000100 648.71 108.62 447.57 654.60 870.72 350.39 1042.75 388.41 1007.89 474.67 868.13 584.20 1007.58 616.21
00001677 00000101 652.79 115.68 445.74 649.00 871.74 355.15 1042.40 391.12 1005.62 480.32 870.31 590.00 1004.92 620.62
00001678 00000102 654.28 116.98 445.05 650.17 873.00 359.61 1043.70 395.09 1006.61 488.45 868.39 594.66 1002.95 625.07
00001679 00000103 656.50 121.53 445.70 647.71 874.61 363.50 1044.87 399.05 1006.54 491.28 870.37 598.46 1003.02 628.86
00001680 00000104 654.68 122.92 446.79 654.42 876.81 368.41 1048.06 409.87 1008.15 496.66 870.43 603.00 1003.19 636.18
00001681 00000105 657.09 125.42 448.11 658.01 879.59 371.60 1048.45 413.90 1008.07 500.80 869.40 604.88 1002.29 639.04
00001682 00000106 658.43 124.34 448.37 656.21 877.56 374.30 1050.87 415.26 1008.38 501.02 873.75 606.26 1008.16 638.90
00001683 00000107 661.79 125.51 450.72 649.93 876.61 365.94 1052.69 408.49 1009.24 500.75 875.98 605.14 1007.81 640.28
00001684 00000108 661.72 126.41 450.31 651.57 875.62 365.66 1051.61 409.20 1006.76 500.48 873.30 604.71 1005.41 640.66
00001685 00000109 654.11 126.48 450.93 654.93 875.02 374.32 1047.62 418.42 1001.89 502.89 864.91 605.46 1001.60 641.04
00001686 00000110 648.54 128.97 452.45 654.71 872.49 375.45 1045.15 424.47 998.33 509.41 857.46 609.79 992.48 649.82
00001687 00000111 651.51 129.32 454.42 654.58 869.34 376.70 1045.31 421.22 996.71 509.99 860.12 613.21 994.16 651.00
00001688 00000112 641.86 129.16 454.44 665.85 866.69 377.12 1038.65 424.45 989.86 515.00 852.51 618.52 985.28 657.03
00001689 00000113 639.98 127.33 455.75 671.20 863.72 374.93 1036.95 422.68 987.81 512.89 848.08 617.84 984.06 656.74
00001690 00000114 635.11 124.14 455.96 665.16 858.59 372.80 1035.98 419.34 984.73 510.35 845.85 611.17 985.67 648.74
00001691 00000115 636.39 122.71 455.43 657.21 854.18 372.92 1034.32 411.99 986.55 502.02 852.40 609.02 988.87 641.94
00001692 00000116 633.29 122.77 456.38 661.02 849.11 371.35 1029.67 410.93 979.72 501.12 845.75 608.76 984.38 642.14
00001693 00000117 630.19 124.83 455.77 657.30 842.96 371.22 1023.29 411.09 971.08 500.61 840.58 609.19 975.53 643.06
00001694 00000118 626.99 126.04 455.15 655.26 837.06 373.39 1018.88 408.82 963.98 499.49 838.18 610.03 971.76 640.05
00001695 00000119 623.16 129.52 450.53 655.70 836.74 371.53 1010.61 414.01 952.92 503.58 828.39 608.56 961.51 643.00
00001696 00000120 619.34 130.21 453.15 659.58 832.04 374.94 1008.16 416.29 949.72 508.94 822.74 614.16 959.72 648.08
00001697 00000121 620.21 129.23 449.77 662.05 825.33 383.58 1005.11 415.93 952.02 509.16 827.84 626.06 965.37 652.44
00001698 00000122 614.29 132.14 452.29 665.42 822.67 378.26 1002.75 417.78 943.97 515.49 809.06 622.70 952.99 655.77
00001699 00000123 612.69 134.33 453.52 663.99 822.16 377.22 1001.51 418.54 942.66 513.61 809.13 622.08 951.70 656.70
00001700 00000124 614.18 128.56 454.49 667.38 819.52 381.66 1005.25 413.09 951.64 508.65 821.85 623.89 968.88 649.17
00001701 00000125 613.86 126.61 455.23 665.64 818.28 377.62 1006.02 409.10 952.82 501.40 820.69 618.74 970.38 644.11
00001702 00000126 613.14 122.79 454.94 671.16 819.01 372.67 1007.81 405.84 957.08 493.69 816.62 612.82 972.09 639.72
00001703 00000127 612.14 119.07 454.75 672.03 820.56 371.10 1006.82 405.96 958.35 489.45 815.28 607.17 970.88 635.43
00001704 00000128 612.64 120.07 453.65 665.96 818.63 372.32 1005.21 405.44 956.59 490.82 817.26 607.07 971.38 633.74
00001705 00000129 612.15 122.87 455.22 661.91 816.58 375.35 1003.73 407.10 952.95 496.14 818.66 611.66 969.32 637.23
00001706 00000130 612.31 126.27 454.74 659.84 815.80 377.32 1001.45 410.06 949.24 500.04 816.42 615.18 964.14 641.74
00001707 00000131 611.84 127.63 454.39 660.97 814.99 377.77 999.55 410.59 945.80 503.92 812.31 616.92 959.42 643.82
00001708 00000132 612.22 130.11 452.79 656.67 812.97 380.28 999.47 412.19 944.31 507.28 812.91 619.07 961.13 645.00
00001709 00000133 611.47 129.85 453.99 655.26 812.14 380.97 999.84 412.32 944.75 506.01 815.41 617.64 964.68 642.72
00001710 00000134 611.18 128.75 454.56 654.66 811.35 380.24 1000.11 411.29 945.13 505.07 815.29 616.90 965.06 641.79
00001711 00000135 612.50 129.01 453.30 652.13 811.82 380.31 999.70 410.52 945.05 504.88 817.45 617.43 965.07 641.61
00001712 00000136 612.57 129.29 453.62 651.05 811.83 379.83 999.41 410.17 944.68 504.71 818.00 617.88 964.10 642.20
00001713 00000137 612.32 126.38 453.47 652.68 811.76 377.90 999.44 408.63 944.63 502.30 818.01 615.43 963.84 639.94
00001714 00000138 610.92 125.83 453.74 652.85 810.26 378.01 998.74 408.25 944.58 501.33 817.05 613.89 964.03 637.82
00001715 00000139 610.61 127.38 452.96 648.01 808.09 380.19 997.55 409.90 942.32 503.53 815.65 615.23 963.47 638.60
00001716 00000140 610.18 130.31 452.79 644.51 806.67 381.70 996.68 411.13 940.03 505.53 815.18 617.26 962.92 640.52
00001717 00000141 608.97 129.76 453.75 645.99 805.32 381.00 995.57 410.93 937.76 505.81 813.23 617.55 961.41 641.26
00001718 00000142 606.81 129.66 454.24 644.81 803.39 379.17 994.62 408.60 937.00 504.64 812.01 616.58 960.79 639.82
00001719 00000143 604.67 128.74 455.38 648.35 802.75 378.08 992.84 408.16 936.47 502.75 810.45 615.69 959.27 639.50
00001720 00000144 603.53 127.97 455.99 647.22 800.73 378.57 991.51 407.73 935.14 502.14 809.74 615.32 958.77 638.25
00001721 00000145 603.73 128.64 454.97 645.48 800.43 378.43 991.04 407.21 934.88 502.19 810.33 615.66 958.59 638.24
00001722 00000146 603.39 128.09 455.04 648.17 801.80 376.96 990.45 406.46 935.56 500.29 810.85 614.70 957.49 637.95
00001723 00000147 603.21 126.88 455.41 651.77 802.31 377.38 989.81 407.80 934.99 501.07 809.56 615.83 954.45 640.02
00001724 00000148 604.51 128.59 454.04 653.88 803.13 379.48 989.79 410.14 933.96 506.06 809.03 620.31 952.27 644.98
00001725 00000149 603.96 129.83 453.58 655.19 803.92 380.74 988.32 411.12 933.02 508.98 809.77 623.17 950.08 647.72
00001726 00000150 604.20 129.36 454.45 659.87 805.29 380.58 988.05 410.55 934.26 508.11 810.51 624.15 949.72 648.37
00001727 00000151 603.75 128.04 454.62 661.03 806.22 379.26 988.26 409.36 935.09 505.72 811.03 622.81 949.62 647.14
00001728 00000152 603.16 128.50 453.84 658.95 804.64 378.79 987.58 408.44 933.94 504.83 810.96 621.15 950.43 644.86
00001729 00000153 603.28 128.92 452.77 653.72 803.72 379.77 987.08 408.76 932.22 505.33 811.26 616.89 953.16 639.63
00001730 00000154 602.63 128.56 452.21 654.05 803.84 380.44 986.97 409.69 932.01 506.00 811.81 617.27 953.15 640.18
00001731 00000155 602.08 127.85 451.96 657.93 804.35 380.61 985.75 410.32 931.05 507.05 811.63 619.36 950.90 642.67
00001732 00000156 600.48 126.12 452.21 664.64 803.80 381.46 982.53 411.28 929.17 507.80 808.80 620.72 947.48 644.19
00001733 00000157 598.23 126.27 452.27 668.05 802.97 383.19 979.66 413.21 927.05 511.50 805.58 622.24 944.43 645.95
00001734 00000158 597.51 127.27 451.46 666.56 801.44 384.10 978.82 413.95 925.31 513.62 804.21 623.96 942.30 647.63
00001735 00000159 597.27 126.07 451.95 666.98 798.05 383.65 979.69 412.32 924.83 513.74 802.87 625.05 944.41 647.67
00001736 00000160 597.91 126.05 451.88 660.98 795.40 381.16 981.52 411.61 923.58 513.00 800.19 622.25 944.79 646.21
00001737 00000161 597.91 126.31 453.09 660.55 796.91 380.57 982.42 412.81 925.33 510.30 798.54 620.17 944.70 645.87
00001738 00000162 597.75 127.45 453.26 663.91 799.67 379.17 982.15 413.06 926.51 509.76 796.24 621.11 941.87 648.62
00001739 00000163 598.22 127.58 452.62 665.58 800.11 379.17 981.40 412.95 926.49 509.95 795.08 620.92 941.60 648.36
00001740 00000164 597.82 126.55 452.52 664.69 799.51 379.95 981.26 413.79 926.39 510.63 794.72 620.01 942.25 647.48
00001741 00000165 598.94 125.88 451.13 664.30 799.14 381.10 980.66 413.44 925.95 512.36 796.74 621.06 943.08 647.11
00001742 00000166 598.65 125.96 450.46 663.03 798.37 381.47 980.76 413.82 925.32 513.21 797.23 621.84 942.36 647.89
00001743 00000167 597.66 125.86 450.80 663.11 798.24 382.87 980.21 414.21 925.17 515.57 797.62 622.78 942.40 647.94
00001744 00000168 596.74 126.42 450.60 667.10 797.77 383.70 978.50 414.19 924.58 517.41 797.06 624.82 942.71 649.17
00001745 00000169 595.20 129.80 451.69 668.63 798.13 384.43 977.66 415.62 924.14 520.60 794.56 626.46 941.48 651.49
