Video ID: 	37HjZE8hdaA
H: 	1080
W: 	1920
FPS: 	29.97002997002997

FRAME INDEX X0 Y0 W H [Landmarks (5 Points)]

00007944 00000000 754.41 114.85 493.08 685.76 854.41 372.24 940.44 353.22 763.26 452.01 817.14 620.69 885.12 603.23
00007945 00000001 750.69 118.77 506.68 678.36 857.74 366.55 952.06 346.03 768.43 436.95 812.60 608.01 887.39 590.42
00007946 DELETE   749.81 116.53 521.61 683.50 869.45 359.99 958.19 338.95 767.66 430.23 809.73 607.39 878.58 589.50
00007947 00000003 747.67 114.18 520.83 679.78 872.54 358.24 960.42 337.37 770.54 425.84 804.50 603.54 871.20 586.12
00007948 00000004 752.07 112.02 520.62 681.06 876.49 357.67 959.96 338.78 770.80 428.60 806.92 604.02 870.29 587.80
00007949 00000005 752.67 109.36 526.13 690.88 869.76 359.63 962.01 342.22 768.83 435.25 806.38 611.59 876.05 596.77
00007950 00000006 756.35 110.85 523.30 690.42 862.85 367.30 951.61 349.65 765.42 449.87 813.65 621.67 880.72 606.14
00007951 DELETE   760.64 110.09 505.22 687.68 847.00 386.10 941.95 362.58 765.39 467.80 822.85 629.55 896.79 609.42
00007952 00000008 763.96 108.99 500.37 696.13 848.29 395.81 942.76 376.61 769.96 482.18 827.83 637.52 902.66 620.87
00007953 00000009 764.47 116.75 497.18 696.53 844.85 403.15 943.19 378.57 772.70 486.28 825.17 648.66 899.39 628.05
00007954 00000010 771.74 107.63 520.01 705.64 856.57 399.73 957.07 371.02 779.49 478.91 833.11 644.42 911.76 620.25
00007955 DELETE   783.31 118.33 519.15 691.28 882.25 387.07 971.55 358.44 789.24 466.25 843.56 645.39 908.34 620.27
00007956 DELETE   792.63 116.77 515.32 681.11 893.45 383.07 983.72 352.93 796.43 447.35 845.16 625.49 917.71 600.39
00007957 00000013 794.42 108.17 518.35 693.55 892.94 381.60 987.16 347.63 796.15 442.34 841.32 632.16 915.13 604.19
00007958 00000014 797.84 114.88 519.61 686.81 890.81 385.21 990.56 350.08 799.41 443.17 844.07 627.66 923.62 599.19
00007959 DELETE   792.69 117.78 519.81 700.17 881.00 394.83 982.64 361.51 798.55 464.32 846.11 639.94 929.61 612.38
00007960 00000016 797.15 115.16 518.98 707.33 879.01 406.14 979.19 373.29 796.71 478.78 851.67 649.96 936.25 622.07
00007961 00000017 799.08 112.21 509.14 705.40 868.34 418.41 974.47 383.36 800.27 495.18 855.72 657.86 939.83 628.69
00007962 00000018 806.81 111.91 506.32 703.60 876.19 418.38 983.27 383.93 808.62 494.58 861.94 656.99 946.46 628.50
00007963 00000019 819.27 116.84 492.93 691.95 887.08 413.06 987.89 377.46 817.68 486.27 872.03 650.17 953.47 620.65
00007964 00000020 821.91 117.85 493.29 684.49 892.98 408.89 992.54 374.30 822.76 479.97 876.45 645.12 955.08 616.18
00007965 00000021 817.62 118.14 487.88 683.86 885.75 406.43 1001.93 369.62 822.39 480.42 873.38 652.40 963.93 621.81
00007966 00000022 822.32 107.16 492.70 708.38 893.50 415.49 992.20 380.51 819.35 483.92 879.67 652.86 960.51 623.21
00007967 00000023 815.87 111.25 491.70 728.94 886.10 420.79 985.27 389.38 813.55 495.57 873.06 668.20 953.15 641.03
00007968 00000024 805.71 121.64 504.07 726.11 877.58 431.91 979.28 401.01 810.29 510.05 873.10 675.19 954.55 648.57
00007969 00000025 793.84 134.60 501.58 714.17 867.08 438.99 977.73 399.85 806.66 517.04 865.00 690.31 952.82 655.83
00007970 00000026 800.36 127.66 503.42 712.22 867.89 438.48 973.71 409.86 805.80 517.27 867.16 671.92 949.88 647.64
00007971 00000027 802.36 125.12 503.73 707.62 866.48 438.66 977.25 403.98 811.77 514.28 870.61 675.99 952.64 646.88
00007972 00000028 808.68 127.38 501.78 708.98 876.66 432.02 982.01 396.94 815.49 508.35 874.36 675.22 954.08 645.44
00007973 00000029 814.54 122.07 494.83 714.46 884.38 421.89 984.79 391.82 814.88 499.51 875.72 665.88 957.35 639.71
00007974 00000030 811.81 123.46 494.82 719.99 886.11 420.45 986.46 390.15 813.47 498.90 873.30 668.82 955.02 642.44
00007975 00000031 802.26 130.58 493.22 720.38 881.91 423.65 988.92 387.09 813.42 503.14 869.49 680.49 955.39 647.79
00007976 00000032 795.47 137.31 504.28 722.49 871.44 435.26 979.24 391.31 804.49 513.74 866.56 691.83 954.00 653.11
00007977 00000033 793.72 148.31 513.76 702.68 864.84 434.00 978.89 401.02 800.92 517.94 863.18 694.83 950.65 664.87
00007978 00000034 795.06 146.26 498.10 708.66 858.12 438.96 972.80 402.98 795.77 518.59 864.66 694.15 957.94 661.52
00007979 00000035 789.52 136.54 506.25 730.02 852.24 444.36 966.22 405.98 798.77 518.35 873.29 677.93 970.30 644.07
00007980 00000036 790.20 133.74 493.15 731.01 858.33 440.75 960.88 396.39 801.67 511.12 883.47 678.31 974.21 638.92
00007981 00000037 790.34 130.56 499.94 730.96 858.54 435.28 965.16 391.34 802.76 506.73 880.44 673.58 976.04 634.79
00007982 00000038 793.03 138.14 506.28 729.40 853.78 435.98 979.86 389.61 805.39 500.37 873.06 688.00 979.69 647.92
00007983 00000039 791.93 129.27 501.08 732.50 857.45 439.56 964.09 393.09 800.97 509.65 883.69 675.78 981.90 634.68
00007984 00000040 785.19 145.82 501.59 719.61 842.29 453.26 959.51 402.90 794.72 520.91 877.10 686.27 980.10 641.90
00007985 00000041 776.06 151.53 495.34 723.23 832.62 456.32 945.52 410.72 784.34 527.53 866.04 690.47 966.74 649.68
00007986 00000042 768.78 143.70 500.45 729.66 824.31 455.04 941.39 416.41 774.58 530.91 858.26 686.76 959.88 651.78
00007987 00000043 765.43 142.32 493.51 720.58 822.71 452.17 944.96 414.49 777.66 523.00 847.63 676.02 953.07 642.66
00007988 DELETE   769.01 134.23 488.90 705.69 823.63 443.48 948.52 407.84 780.11 513.15 841.68 671.45 942.70 640.57
00007989 00000045 776.93 121.30 493.99 694.41 840.40 425.61 952.83 396.82 780.86 497.41 842.87 650.69 934.93 625.66
00007990 00000046 784.89 121.55 490.25 694.25 854.08 416.94 960.95 390.62 790.57 491.56 849.94 643.28 940.45 619.85
00007991 00000047 782.40 119.69 503.91 711.56 860.10 417.08 964.22 390.19 790.72 493.73 850.24 652.35 937.49 628.50
00007992 00000048 779.30 125.52 508.59 717.52 857.01 421.23 959.89 391.57 785.97 501.23 849.52 665.41 930.98 639.01
00007993 00000049 770.55 123.08 511.84 732.42 848.05 426.40 954.97 403.84 772.88 507.60 833.70 669.71 917.10 650.05
00007994 00000050 765.32 131.23 512.10 733.24 836.08 433.70 950.27 412.75 766.60 518.40 825.75 681.20 918.70 662.46
00007995 00000051 763.64 137.51 513.23 724.57 832.01 440.48 945.80 415.25 761.14 521.86 821.87 687.43 913.82 665.97
00007996 00000052 761.12 133.32 520.20 742.26 839.28 434.66 944.30 414.46 757.75 521.03 824.94 688.31 911.75 669.66
00007997 00000053 765.36 137.75 511.35 730.40 833.12 443.06 945.87 407.75 768.56 519.74 832.26 688.82 919.20 658.28
00007998 00000054 763.00 138.18 525.42 726.02 834.69 433.82 947.17 406.48 760.46 514.88 825.96 681.90 916.54 657.61
00007999 00000055 764.44 139.79 510.15 720.71 838.54 431.72 949.72 406.79 768.92 513.87 831.25 676.61 921.46 654.40
00008000 00000056 767.43 140.02 494.13 716.45 829.34 436.76 944.78 402.25 775.55 516.95 838.89 680.22 930.81 649.84
00008001 00000057 762.72 136.32 494.38 722.13 827.85 439.43 936.25 407.27 765.92 520.49 833.55 678.71 921.74 650.30
00008002 00000058 761.69 140.03 494.73 716.77 820.32 451.38 931.10 414.45 762.27 530.94 831.74 691.22 915.35 659.30
00008003 00000059 757.69 150.75 480.53 697.90 812.81 456.78 920.56 420.35 754.57 537.96 825.36 691.32 908.35 659.18
00008004 00000060 752.79 154.91 497.51 700.83 811.22 455.57 918.59 418.15 751.50 541.19 824.37 701.16 904.29 667.86
00008005 00000061 754.18 154.01 488.17 702.27 819.05 450.07 919.68 412.61 750.92 532.68 827.23 692.52 903.75 658.74
00008006 00000062 754.05 140.20 489.06 729.60 820.14 447.69 922.84 404.83 755.05 526.49 830.61 694.32 912.62 656.42
00008007 00000063 752.52 134.98 506.17 734.98 821.98 444.51 925.46 404.57 755.94 523.37 830.29 690.92 913.62 655.89
00008008 00000064 752.34 136.53 499.48 714.19 814.16 442.38 925.04 404.78 753.95 523.98 822.74 685.59 908.91 652.97
00008009 00000065 749.98 142.21 488.76 703.00 815.29 442.00 922.86 406.85 752.92 525.49 822.43 682.87 904.97 651.41
00008010 00000066 753.41 149.72 492.69 697.25 812.05 448.23 915.40 421.41 749.87 532.63 818.10 683.14 898.43 659.76
00008011 00000067 746.14 149.94 490.21 711.90 807.90 451.49 911.63 420.30 744.32 542.33 818.39 696.11 900.07 667.29
00008012 00000068 745.46 152.06 497.36 725.94 808.14 457.18 908.81 420.13 742.77 546.15 817.35 706.11 897.61 672.98
00008013 00000069 744.74 154.33 494.00 716.77 806.84 458.05 909.04 418.92 743.18 543.59 817.58 704.63 898.30 669.65
00008014 00000070 743.94 154.54 491.97 715.37 806.26 455.35 909.59 416.59 743.29 540.94 819.57 702.53 902.98 667.35
00008015 00000071 743.56 152.76 491.92 729.80 808.33 451.54 913.38 414.21 743.93 537.93 818.70 702.35 906.00 668.07
00008016 00000072 735.39 148.01 501.12 741.08 804.62 458.66 923.08 415.16 744.01 535.18 813.08 720.61 907.92 682.91
00008017 00000073 736.27 147.96 505.36 744.26 809.62 452.61 924.95 411.96 746.18 531.51 815.55 717.57 907.06 682.35
00008018 00000074 738.55 148.57 504.75 740.12 811.43 448.74 925.05 410.08 747.79 524.97 812.89 710.48 905.43 677.01
00008019 00000075 742.18 137.08 519.83 745.07 812.59 449.07 932.86 409.35 750.45 516.40 809.12 706.88 908.36 673.21
00008020 00000076 754.01 131.83 504.96 738.35 819.22 445.38 935.11 402.92 758.61 509.54 822.82 688.08 919.41 651.25
00008021 00000077 756.88 137.38 507.98 728.66 820.00 441.06 950.73 404.33 765.08 505.46 818.11 685.41 924.62 654.70
00008022 00000078 768.72 133.27 498.86 723.28 828.34 442.81 957.32 391.71 782.02 497.26 834.85 684.11 941.52 640.93
00008023 00000079 779.32 136.86 498.69 707.54 830.66 441.74 970.66 389.36 792.65 495.62 839.53 683.17 952.18 639.26
00008024 00000080 787.96 132.15 495.99 691.63 830.38 438.89 980.82 388.26 802.63 495.29 842.92 675.39 962.26 633.91
00008025 00000081 785.26 133.30 491.87 687.23 825.82 442.17 984.25 387.50 810.42 496.17 845.91 678.85 969.28 634.27
00008026 00000082 779.51 136.74 496.31 697.92 823.64 448.20 979.76 391.55 807.33 502.07 848.54 685.22 973.45 638.10
00008027 00000083 777.73 147.69 492.72 714.73 823.15 463.48 977.72 400.74 804.18 513.32 851.69 700.34 978.56 648.57
00008028 00000084 770.64 154.80 493.89 718.31 816.04 469.54 976.14 406.70 801.86 518.67 844.72 708.43 975.37 657.31
00008029 00000085 768.66 159.31 490.67 717.66 811.21 474.09 969.13 409.99 795.56 520.81 842.01 713.31 971.21 660.84
00008030 00000086 769.65 163.91 490.67 710.51 811.50 473.02 964.75 410.94 791.27 521.76 838.89 709.67 966.31 658.81
00008031 00000087 770.79 163.69 488.74 698.02 809.77 473.05 959.98 412.32 785.21 523.67 832.44 704.53 959.87 655.19
00008032 00000088 767.17 161.12 491.18 689.87 806.88 468.53 958.35 412.11 782.03 520.40 826.94 697.14 953.37 651.70
00008033 00000089 763.50 160.03 493.53 693.00 801.21 470.56 955.56 415.07 783.41 525.30 826.77 697.97 955.78 653.27
00008034 00000090 764.43 153.13 492.82 710.04 807.26 478.23 954.69 414.43 786.54 525.10 834.47 703.32 960.94 649.03
00008035 00000091 750.94 166.75 489.16 725.85 790.46 491.35 943.87 426.80 774.00 549.52 829.18 734.18 955.20 681.34
00008036 00000092 745.59 159.87 504.19 756.87 792.85 497.48 932.80 431.34 764.58 561.86 831.49 750.12 951.30 695.50
00008037 00000093 739.51 164.53 494.11 759.47 788.62 505.45 929.30 436.98 761.25 569.29 828.35 758.60 948.77 700.88
00008038 00000094 748.72 167.18 498.53 743.99 799.83 496.84 928.77 442.63 761.72 561.49 822.53 740.86 928.08 695.84
00008039 00000095 749.41 168.51 490.90 708.94 797.40 492.27 929.06 441.41 762.11 553.15 814.66 723.98 919.25 682.86
00008040 00000096 753.96 172.32 490.70 697.20 802.04 481.48 930.40 434.65 761.61 543.58 814.26 713.17 916.25 675.26
00008041 00000097 754.97 165.20 493.22 710.33 804.54 476.21 931.46 429.25 761.71 541.81 816.73 712.75 916.54 674.45
00008042 00000098 752.04 166.21 491.99 717.44 804.03 478.63 930.45 431.04 764.30 543.33 818.82 716.54 920.18 677.62
00008043 00000099 752.97 168.80 494.87 716.39 806.62 485.93 930.85 442.46 763.06 551.37 817.25 721.64 916.33 685.68
00008044 00000100 748.22 160.73 499.08 743.25 803.24 490.19 922.82 447.62 754.39 561.57 817.81 734.36 912.60 698.37
00008045 00000101 741.01 170.57 502.04 759.48 799.24 497.54 919.67 448.18 752.27 566.33 818.68 752.30 915.94 710.11
00008046 00000102 735.60 169.70 496.08 766.61 793.89 498.46 923.28 442.04 746.92 569.11 808.72 762.07 919.62 714.02
00008047 00000103 737.61 167.65 496.42 754.15 795.25 489.06 925.16 439.61 748.55 563.65 810.92 747.47 922.29 705.12
00008048 00000104 747.29 166.08 491.06 744.04 804.25 484.39 919.44 438.12 751.99 556.01 820.87 729.86 920.69 690.57
00008049 00000105 741.19 169.45 490.29 725.24 799.41 480.59 915.45 434.36 745.26 551.83 809.66 723.07 912.48 682.71
00008050 00000106 743.61 169.19 487.46 699.39 797.05 473.87 916.76 435.96 743.35 553.55 806.10 710.54 907.57 676.94
00008051 00000107 739.00 175.25 488.98 700.15 792.05 478.22 911.01 440.95 738.32 561.97 803.46 715.85 907.61 682.73
00008052 00000108 740.72 170.95 504.19 745.96 800.55 483.71 913.76 444.67 743.76 564.51 809.00 735.42 907.06 701.72
00008053 00000109 741.41 176.36 507.19 760.63 804.26 491.06 913.18 445.73 745.86 566.39 820.20 747.15 918.39 707.67
00008054 00000110 731.56 172.17 511.58 762.04 794.21 495.94 920.88 444.86 744.93 573.48 813.69 755.69 924.48 711.09
00008055 00000111 733.58 177.14 515.62 746.59 792.59 494.59 922.62 444.12 744.38 573.14 809.71 753.33 920.98 709.95
00008056 00000112 735.62 173.11 510.86 732.66 793.20 489.22 924.77 443.98 743.06 567.99 800.39 745.10 907.45 707.27
00008057 00000113 736.77 174.97 513.45 723.24 796.54 484.94 926.23 443.58 741.64 565.80 797.55 740.84 901.59 706.46
00008058 00000114 744.90 170.68 507.71 736.30 805.12 485.36 914.53 448.56 743.69 566.24 810.91 735.02 900.71 703.23
00008059 00000115 741.32 169.93 505.58 755.30 804.96 490.67 911.40 448.79 744.49 567.42 815.80 745.12 906.23 708.77
00008060 00000116 729.97 170.66 508.29 761.76 791.49 498.12 918.49 444.07 742.71 572.27 805.44 761.09 913.30 714.86
00008061 00000117 736.30 173.45 512.44 740.85 790.31 500.06 914.75 455.27 743.10 573.40 809.58 746.70 911.91 708.52
00008062 00000118 727.58 190.04 501.38 690.37 780.71 495.81 905.64 458.97 740.78 583.05 805.32 733.12 906.96 701.53
00008063 00000119 736.12 178.26 502.43 719.86 785.44 499.70 912.23 457.03 742.44 574.83 802.66 740.02 905.54 704.21
00008064 00000120 732.96 174.84 508.21 737.24 785.98 500.28 909.90 450.17 742.73 574.00 809.32 747.98 912.62 705.63
00008065 00000121 731.30 177.79 504.94 754.34 787.64 502.02 910.52 450.79 743.67 571.62 811.65 756.24 912.60 712.44
00008066 00000122 725.86 179.53 514.17 748.23 791.34 494.10 905.37 451.83 729.58 573.79 802.80 760.97 893.89 724.03
CROP_BBOX: 328 0 1605 1080
