Video ID: 	R5EnPBkpnME
H: 	1080
W: 	1920
FPS: 	24.0

FRAME INDEX X0 Y0 W H [Landmarks (5 Points)]

00001516 00000000 741.42 126.61 434.37 645.69 928.23 397.66 1103.82 390.31 1070.95 483.21 984.37 622.80 1113.25 615.34
00001517 DELETE   738.58 125.90 437.26 640.08 924.53 391.49 1103.69 388.28 1065.10 475.39 975.45 613.01 1106.96 608.78
00001518 DELETE   731.43 125.54 443.79 639.46 919.37 384.55 1103.13 387.48 1058.87 466.77 964.83 605.36 1100.71 605.92
00001519 DELETE   721.56 128.06 451.70 633.58 911.36 377.19 1102.69 384.92 1048.93 460.32 948.57 597.01 1090.17 601.46
00001520 00000004 712.71 108.44 458.26 643.53 900.24 370.40 1093.37 378.86 1033.03 454.18 927.64 588.39 1076.37 596.06
00001521 DELETE   701.54 110.72 465.00 639.33 889.00 354.85 1084.41 371.84 1018.13 445.62 905.20 571.43 1067.03 585.69
00001522 DELETE   701.20 100.13 458.56 642.98 883.65 342.83 1077.84 367.22 1004.35 436.20 885.41 559.57 1050.69 580.43
00001523 00000007 698.68 92.43 461.02 647.75 881.32 328.55 1075.51 364.11 996.43 425.01 870.32 546.86 1037.37 576.65
00001524 00000008 693.54 96.29 471.46 641.65 881.01 319.76 1077.79 365.41 1007.45 409.33 868.19 532.96 1041.92 569.06
00001525 00000009 696.07 98.33 468.75 632.13 882.42 313.74 1081.53 362.81 1010.40 404.40 866.56 527.90 1042.23 567.24
00001526 00000010 696.87 96.11 467.93 622.47 882.05 310.65 1083.40 360.41 1012.12 400.79 866.35 523.95 1042.58 564.26
00001527 00000011 698.76 81.34 463.82 632.36 886.13 310.66 1082.53 353.00 1012.31 398.04 867.90 522.25 1040.09 557.63
00001528 00000012 696.37 76.24 462.31 630.23 879.28 304.06 1078.87 346.33 1007.35 387.65 863.47 516.36 1035.93 551.87
00001529 00000013 691.47 80.55 464.06 622.10 871.37 299.62 1073.47 344.47 997.74 379.96 855.44 510.83 1029.68 548.17
00001530 00000014 687.42 76.56 461.41 622.83 864.10 296.13 1070.08 343.92 992.50 375.20 848.63 508.95 1026.25 548.69
00001531 00000015 685.19 79.16 458.44 615.49 861.11 294.83 1064.37 343.75 985.61 374.69 842.94 506.37 1017.34 547.29
00001532 00000016 681.48 79.71 456.95 611.14 856.29 294.70 1058.25 342.56 978.94 375.18 837.09 504.00 1012.06 544.01
00001533 00000017 678.09 80.10 456.55 611.34 853.58 294.08 1055.14 341.99 976.26 375.03 833.38 503.50 1008.31 543.54
00001534 00000018 674.92 81.55 458.44 616.16 852.53 295.33 1053.31 344.18 975.18 379.09 830.15 505.98 1005.91 546.90
00001535 00000019 674.91 82.24 454.92 618.57 849.11 298.07 1049.09 345.75 970.70 383.20 828.05 509.45 1002.37 549.56
00001536 00000020 674.41 88.08 455.49 616.45 846.27 301.15 1044.98 345.04 965.30 392.78 826.11 514.19 996.94 551.41
00001537 00000021 673.11 91.80 455.58 614.32 846.35 304.60 1045.12 347.57 965.28 397.67 826.24 516.53 997.39 552.89
00001538 00000022 675.07 85.12 454.00 630.50 844.70 300.52 1044.58 348.87 965.09 397.74 820.30 519.30 995.60 560.16
00001539 00000023 674.61 82.38 456.18 636.51 841.90 298.19 1045.24 348.12 963.60 396.38 816.56 521.23 994.90 563.80
00001540 00000024 672.60 83.09 456.68 642.06 841.46 297.17 1044.55 347.40 964.62 395.10 816.72 521.30 998.05 563.78
00001541 00000025 673.47 87.50 456.65 642.59 844.80 298.17 1046.84 350.61 966.13 398.90 818.56 524.84 997.41 569.13
00001542 00000026 674.03 83.09 458.50 649.67 849.61 302.56 1050.52 358.98 971.06 402.85 822.21 526.99 1000.36 574.33
00001543 00000027 676.87 86.66 457.38 651.88 851.03 306.24 1051.94 363.50 973.39 405.32 823.93 531.00 1002.99 579.16
00001544 00000028 680.98 90.93 456.45 650.18 852.92 307.32 1051.59 361.65 974.42 407.98 825.25 533.33 1004.58 579.24
00001545 00000029 684.85 88.15 454.65 651.77 858.43 311.62 1050.85 361.39 975.25 410.71 831.08 534.04 1005.23 576.05
00001546 00000030 684.50 89.90 454.94 648.22 860.94 312.07 1052.46 366.83 975.54 411.53 830.48 533.31 1002.01 579.57
00001547 00000031 684.20 90.60 456.05 641.13 860.16 315.48 1055.77 367.15 978.29 413.10 832.94 533.66 1006.68 577.31
00001548 00000032 683.28 91.36 458.34 635.52 861.71 319.55 1059.87 370.26 981.05 412.08 837.43 532.97 1010.94 575.52
00001549 00000033 685.94 91.12 460.17 636.32 864.29 319.52 1063.65 370.81 983.14 412.40 840.04 532.18 1015.40 574.85
00001550 00000034 687.45 90.30 459.24 634.74 864.97 319.21 1063.68 368.70 982.77 412.11 843.31 532.11 1016.16 573.22
00001551 00000035 688.41 91.40 460.00 633.07 864.68 318.09 1064.39 368.36 982.24 410.52 842.38 530.94 1016.62 572.62
00001552 00000036 689.92 89.97 460.00 630.35 864.59 316.87 1064.83 366.91 982.23 407.98 842.90 528.83 1017.29 570.22
00001553 00000037 690.05 87.21 458.98 629.81 862.15 315.42 1063.30 362.98 979.93 406.62 842.46 527.32 1017.92 566.67
00001554 00000038 689.70 82.89 459.39 632.55 859.60 314.27 1061.54 362.96 977.73 404.62 841.26 526.12 1015.86 566.36
00001555 00000039 690.51 82.63 460.90 633.36 857.02 313.81 1061.17 360.42 974.75 403.20 840.53 527.40 1016.22 565.80
00001556 00000040 691.90 82.24 459.84 631.20 855.90 313.88 1061.00 359.98 972.53 401.13 840.70 528.13 1014.26 566.30
00001557 00000041 693.04 80.71 460.55 630.93 856.95 313.47 1061.91 359.58 972.89 401.46 842.13 527.43 1015.17 565.52
00001558 00000042 694.80 79.87 461.54 630.24 857.20 314.60 1065.12 359.31 975.12 399.71 843.42 528.47 1018.27 565.52
00001559 00000043 697.84 82.89 462.45 621.15 860.24 315.60 1069.73 361.27 978.62 398.23 847.60 526.72 1023.25 564.41
00001560 00000044 700.33 86.09 459.83 617.36 863.05 316.08 1072.28 361.92 982.13 399.14 849.68 526.34 1026.14 564.40
00001561 00000045 703.89 88.49 458.39 617.35 866.02 315.94 1076.40 361.42 987.53 399.37 851.98 527.28 1030.03 565.26
00001562 00000046 705.56 89.05 458.74 621.17 869.34 316.33 1077.70 361.95 990.14 399.85 853.76 527.27 1031.21 565.33
00001563 00000047 708.32 88.28 457.19 622.64 873.65 318.10 1079.63 363.03 994.82 400.53 858.47 527.73 1033.64 565.23
00001564 00000048 709.63 86.25 457.18 627.99 873.63 321.73 1078.29 364.03 992.96 401.19 860.82 531.04 1033.28 566.26
00001565 00000049 707.56 97.93 460.48 623.56 878.06 325.97 1073.32 365.03 982.28 412.75 860.31 536.00 1020.73 568.94
00001566 00000050 707.76 86.06 458.69 636.22 876.68 323.37 1074.09 365.05 991.07 406.63 859.39 535.54 1026.17 570.54
00001567 00000051 703.11 81.06 462.75 644.53 868.30 321.59 1066.32 363.78 980.80 407.17 851.09 536.11 1019.04 570.92
00001568 00000052 700.20 79.05 460.36 645.78 863.97 318.73 1057.99 361.60 970.58 410.41 846.31 536.96 1007.59 572.51
00001569 00000053 699.51 79.80 455.74 644.09 866.93 318.99 1055.28 359.34 969.60 410.75 852.45 537.28 1006.44 570.76
00001570 00000054 698.86 82.03 456.98 643.49 866.80 316.44 1055.23 358.63 968.21 408.46 849.93 535.47 1003.72 570.47
00001571 00000055 699.53 80.64 455.05 644.13 867.77 315.85 1055.96 357.35 971.22 408.69 852.01 535.15 1006.06 569.62
00001572 00000056 697.77 81.60 456.04 641.58 865.79 316.21 1055.81 358.26 970.97 408.68 850.09 534.99 1005.41 569.94
00001573 00000057 699.05 82.43 454.13 640.64 863.45 315.16 1054.17 355.50 968.47 407.83 848.70 538.09 1002.93 571.82
00001574 00000058 700.19 85.55 454.54 641.88 864.02 310.57 1054.75 353.38 966.21 407.40 846.47 535.92 1004.20 571.31
00001575 00000059 696.65 82.84 457.90 639.04 862.27 311.15 1056.04 355.29 966.92 407.80 842.99 530.69 1006.13 567.23
00001576 00000060 692.84 79.89 461.00 644.59 857.26 311.57 1056.16 358.22 965.06 404.69 835.15 528.24 1006.07 566.85
00001577 00000061 689.47 78.65 458.89 640.14 853.60 310.82 1053.42 357.43 963.12 403.72 831.32 523.50 1005.99 561.89
00001578 00000062 686.37 77.27 457.37 639.52 848.31 313.92 1047.52 358.18 957.60 406.68 829.70 525.34 1002.23 561.67
00001579 00000063 685.83 80.93 455.76 637.96 847.78 319.75 1048.54 363.15 960.08 411.37 828.84 528.61 1005.24 564.32
00001580 00000064 685.83 84.02 452.72 637.89 843.74 326.66 1047.24 364.65 959.80 416.86 830.70 537.62 1008.69 569.05
00001581 00000065 689.06 87.45 450.67 634.11 848.79 336.08 1047.97 360.56 966.47 432.21 853.98 553.77 1017.02 574.05
00001582 00000066 687.78 81.92 449.44 637.96 850.61 338.28 1045.52 353.49 976.69 428.25 871.38 555.92 1028.57 568.21
00001583 DELETE   683.66 77.28 445.86 627.05 848.87 331.16 1044.57 344.63 979.17 414.44 872.31 542.83 1032.74 553.51
00001584 00000068 676.57 78.67 443.86 617.52 833.56 325.19 1030.89 336.00 962.58 404.55 860.57 536.72 1020.29 545.07
00001585 00000069 666.63 72.02 442.78 625.67 820.43 319.01 1016.45 330.80 947.61 395.41 842.45 531.69 1004.32 541.11
00001586 00000070 660.75 74.10 443.41 620.48 812.88 316.38 1011.26 325.46 942.10 387.63 838.92 527.55 1004.72 534.25
00001587 00000071 657.23 75.14 443.83 630.07 807.45 314.80 1013.14 322.88 941.43 389.27 825.52 526.37 1009.16 532.70
00001588 00000072 656.90 81.83 442.81 621.11 808.04 316.73 1009.11 323.64 938.19 391.03 831.08 527.92 1006.10 532.99
00001589 00000073 653.04 80.69 442.49 635.86 807.46 317.59 1004.99 328.29 935.40 400.67 822.85 534.31 996.08 543.41
00001590 00000074 650.68 82.96 444.83 636.43 804.08 315.64 1005.63 331.59 932.50 401.17 814.42 534.99 993.24 548.57
00001591 00000075 648.94 82.85 445.41 635.84 801.47 316.00 1004.38 335.00 928.72 402.60 809.15 533.91 990.41 549.45
00001592 00000076 647.08 82.45 448.28 635.34 802.13 318.09 1006.29 337.57 929.06 404.96 807.94 531.91 992.22 548.43
00001593 00000077 646.60 81.65 448.90 634.85 801.67 319.32 1008.41 337.40 929.83 406.45 807.81 531.50 995.28 547.00
00001594 00000078 648.91 84.47 446.91 635.12 804.25 321.12 1008.48 338.55 931.24 407.65 811.04 534.76 995.17 549.50
00001595 00000079 648.45 87.45 450.12 637.16 805.67 324.65 1009.02 339.23 933.92 409.50 815.65 540.15 997.39 552.35
00001596 00000080 650.62 91.21 446.80 635.27 806.94 325.75 1006.26 341.16 932.32 410.41 819.05 544.85 992.44 557.80
00001597 00000081 648.44 92.58 450.81 646.58 805.25 324.64 1003.20 338.84 930.58 412.15 816.96 549.56 990.24 561.82
00001598 00000082 647.69 93.97 453.73 651.41 805.39 325.36 1005.36 339.48 933.40 414.44 817.43 553.36 993.68 565.59
00001599 00000083 648.66 93.21 453.72 649.66 805.71 325.32 1007.08 339.29 934.06 415.03 816.88 552.51 994.38 564.84
00001600 00000084 650.89 91.39 451.06 645.12 806.47 325.89 1008.68 339.46 934.68 414.72 818.62 550.29 996.16 562.31
00001601 00000085 651.07 88.57 450.86 642.81 805.92 324.67 1010.90 337.96 936.76 414.90 816.54 547.24 998.87 558.95
00001602 00000086 652.34 86.94 450.97 637.16 807.26 325.55 1012.63 339.08 937.16 414.60 819.28 546.65 998.60 558.45
00001603 00000087 652.69 87.26 452.55 632.18 808.74 326.58 1015.34 340.93 937.79 415.26 820.25 546.45 998.50 558.95
00001604 00000088 653.23 88.71 452.76 624.68 810.35 326.90 1016.97 341.60 938.90 414.93 822.48 544.44 998.61 557.23
00001605 00000089 653.14 88.52 452.97 626.02 810.30 328.25 1017.09 341.71 939.76 414.56 823.43 545.53 1000.03 557.32
00001606 00000090 653.96 88.67 451.82 623.81 809.65 328.47 1016.85 341.53 939.37 414.70 824.07 545.46 1000.31 557.00
00001607 00000091 654.40 88.47 450.21 624.65 808.93 328.63 1015.98 341.24 938.88 415.35 823.71 545.99 1000.32 557.43
00001608 00000092 654.53 88.42 449.41 624.30 808.99 329.57 1014.20 341.38 937.77 414.90 824.40 546.46 998.74 557.28
00001609 00000093 653.16 89.66 449.93 626.63 808.59 329.71 1012.51 340.27 937.26 414.16 826.07 546.79 999.84 556.36
00001610 00000094 653.94 89.11 448.58 628.83 809.20 330.64 1010.33 340.82 936.72 414.00 829.47 548.87 998.24 557.98
00001611 00000095 653.55 88.73 448.70 631.89 810.51 331.74 1009.04 341.29 937.91 414.53 832.29 551.30 997.25 559.82
00001612 00000096 653.57 92.47 450.76 629.65 810.01 332.55 1013.24 345.29 938.67 415.80 829.52 553.40 998.79 564.64
00001613 00000097 653.20 96.23 449.78 626.66 808.57 337.43 1012.00 349.25 937.60 416.58 830.60 554.88 999.33 565.65
00001614 00000098 650.13 93.52 454.56 646.14 811.61 345.86 1007.48 349.64 940.26 422.60 839.75 566.04 1001.79 569.99
00001615 00000099 652.76 95.77 452.71 644.51 818.45 349.83 1006.00 348.80 944.36 423.37 856.10 571.98 1002.85 572.16
00001616 00000100 654.60 96.45 453.03 643.25 820.20 346.48 1010.21 347.29 946.54 422.45 855.16 570.03 1005.19 571.64
00001617 00000101 654.20 92.72 451.35 642.31 817.62 346.11 1006.89 344.75 945.06 420.75 853.47 566.44 1005.67 566.06
00001618 00000102 654.70 92.76 449.01 631.46 813.39 343.48 1008.20 342.86 942.59 421.09 848.28 560.09 1007.39 560.04
00001619 00000103 654.32 94.30 446.99 624.90 811.44 341.58 1007.75 343.10 938.56 422.17 844.12 557.09 1003.57 558.73
00001620 00000104 656.00 93.43 445.47 622.24 808.98 338.97 1007.83 342.09 934.97 424.31 840.20 554.80 1001.31 558.05
00001621 00000105 655.68 95.24 447.10 616.60 808.05 338.19 1014.91 341.70 937.46 426.98 835.51 552.90 1006.59 556.58
00001622 00000106 657.10 96.50 446.83 609.73 808.83 338.54 1016.97 341.73 939.01 426.93 836.22 550.29 1009.32 553.67
00001623 00000107 657.64 97.57 447.45 608.89 809.32 339.41 1018.87 342.42 940.69 426.48 836.57 550.12 1011.95 553.43
00001624 00000108 658.32 96.63 447.94 608.96 810.43 339.65 1019.45 342.98 941.51 426.17 837.77 549.78 1012.67 553.37
00001625 00000109 659.52 96.63 447.68 608.70 811.26 339.17 1020.34 342.38 942.58 426.48 838.89 550.16 1013.51 553.72
00001626 00000110 659.32 96.56 448.12 609.04 811.78 339.49 1020.30 342.68 943.25 426.56 839.18 550.12 1013.95 553.58
00001627 00000111 659.22 96.81 448.48 610.47 811.27 339.27 1019.16 342.21 942.05 426.21 839.45 550.33 1013.60 553.38
00001628 00000112 657.37 93.50 448.14 626.28 810.88 339.58 1012.55 342.27 939.62 425.42 839.43 555.05 1008.00 557.93
00001629 00000113 655.82 93.73 449.09 632.93 810.57 339.36 1011.09 342.85 939.62 425.77 838.02 557.73 1006.38 561.33
00001630 00000114 657.66 93.00 447.71 632.62 810.49 340.28 1012.77 342.82 940.05 424.86 837.02 558.45 1007.45 561.33
00001631 00000115 658.93 92.51 446.98 628.04 810.32 341.04 1017.25 343.73 941.02 426.50 833.74 556.01 1010.51 559.23
00001632 00000116 656.23 90.72 447.50 634.24 808.86 345.62 1014.53 346.56 938.85 427.69 829.29 555.74 1009.26 558.17
00001633 00000117 655.05 91.72 447.82 628.64 808.33 345.90 1015.59 346.42 939.25 425.38 829.68 554.50 1008.65 556.80
00001634 00000118 653.56 93.95 448.14 620.81 807.35 341.67 1016.63 343.47 940.48 422.37 832.13 552.80 1009.18 555.62
00001635 00000119 658.13 89.59 441.55 618.58 808.93 340.57 1012.72 343.29 937.58 422.60 836.18 550.85 1005.67 554.65
00001636 00000120 655.40 94.40 442.70 618.05 808.64 342.27 1003.96 341.18 934.99 421.01 844.65 556.71 1000.46 556.42
00001637 00000121 654.93 93.05 441.94 617.23 807.07 342.29 1001.07 341.07 932.97 421.22 843.61 555.97 998.61 555.43
00001638 00000122 654.42 94.69 442.07 614.72 804.48 341.34 1000.39 339.64 931.54 420.81 840.44 554.21 999.38 553.58
00001639 00000123 654.21 90.48 440.67 620.66 804.35 341.96 999.67 338.12 932.59 418.65 838.13 551.69 1000.96 549.32
00001640 00000124 653.19 89.16 441.61 624.62 804.36 342.86 998.37 337.13 934.16 418.26 841.78 553.57 1003.27 549.48
00001641 00000125 651.50 87.90 442.65 626.76 806.52 344.56 994.82 336.89 935.54 415.89 849.44 556.02 1001.12 550.06
00001642 00000126 650.03 87.36 443.86 632.84 808.74 345.44 990.85 335.43 937.89 413.29 855.91 560.61 1000.24 552.80
00001643 00000127 650.60 88.17 443.55 631.37 810.79 345.22 989.90 334.45 939.58 411.58 860.75 561.78 1000.79 553.59
00001644 00000128 650.49 91.78 442.82 632.27 811.29 343.02 989.77 333.95 939.16 411.56 859.37 561.83 999.12 554.95
00001645 00000129 650.15 90.27 446.87 636.37 809.56 340.37 994.46 331.88 939.82 412.85 852.81 557.59 1006.14 551.16
00001646 00000130 649.94 89.78 447.37 646.54 809.37 337.87 1001.18 332.48 945.17 414.13 846.84 558.72 1011.09 555.22
CROP_BBOX: 270 0 1417 1055
