Video ID: 	WwN0Vgo4SkI
H: 	1080
W: 	1920
FPS: 	25.0

FRAME INDEX X0 Y0 W H [Landmarks (5 Points)]

00000958 00000000 864.72 126.72 409.20 678.78 899.54 386.30 1040.64 407.72 887.75 511.02 914.51 618.90 1025.42 636.77
00000959 DELETE   868.90 120.55 408.88 671.86 898.18 387.04 1044.45 409.22 885.58 512.13 907.82 614.60 1023.17 633.35
00000960 00000002 869.65 119.84 411.67 673.27 898.97 385.86 1043.13 407.60 885.77 514.11 910.39 613.28 1025.03 631.54
00000961 00000003 872.26 118.27 414.69 669.61 900.99 386.01 1046.35 400.84 886.86 506.48 910.33 612.74 1024.43 625.62
00000962 00000004 865.16 125.28 424.68 649.97 904.51 384.28 1052.16 396.97 899.13 494.51 916.57 603.42 1027.77 614.82
00000963 00000005 865.22 118.92 433.84 655.61 906.32 379.06 1062.58 391.97 910.46 492.78 915.04 603.42 1037.24 615.14
00000964 00000006 871.39 114.12 432.71 659.50 916.49 375.86 1071.76 389.97 918.78 489.27 923.25 599.30 1048.83 611.83
00000965 00000007 877.69 114.87 429.76 656.79 922.43 374.40 1081.64 388.23 926.25 488.84 928.81 594.81 1064.09 606.14
00000966 00000008 888.54 97.73 422.87 676.78 927.41 370.62 1081.54 379.02 930.86 479.99 937.78 591.13 1070.59 596.86
00000967 00000009 893.01 107.94 431.65 661.41 937.39 369.08 1099.44 377.55 940.29 473.44 948.98 595.73 1075.50 603.24
00000968 00000010 899.25 93.37 437.93 677.40 940.63 369.58 1099.78 377.42 943.06 468.35 954.76 597.54 1075.53 604.81
00000969 00000011 901.52 92.57 436.69 676.59 947.06 368.42 1103.66 376.90 946.28 463.55 956.87 595.94 1072.53 603.96
00000970 00000012 901.45 88.69 434.56 678.33 948.58 363.88 1107.35 375.02 948.22 460.07 954.73 593.10 1071.26 603.69
00000971 00000013 901.03 88.06 435.50 676.11 947.29 362.71 1108.01 373.35 948.72 457.55 951.73 592.54 1068.01 602.85
00000972 00000014 898.49 83.07 441.28 683.80 944.59 360.84 1109.04 370.77 947.49 455.71 947.53 591.88 1070.08 601.95
00000973 00000015 897.41 79.99 443.43 688.57 947.32 354.95 1110.43 364.87 948.61 451.76 949.91 589.01 1073.48 599.02
00000974 00000016 895.01 80.49 442.42 690.84 945.84 350.22 1110.21 363.15 945.38 449.95 946.48 585.78 1075.40 598.18
00000975 00000017 891.65 78.59 446.70 690.65 943.39 348.34 1108.42 362.88 942.29 447.61 942.79 583.60 1072.10 597.35
00000976 00000018 884.10 71.87 448.68 695.57 939.27 347.82 1105.69 361.78 939.40 442.75 936.29 583.00 1060.59 596.45
00000977 00000019 875.43 70.75 451.77 689.45 932.86 347.13 1100.78 360.53 934.06 441.73 928.83 580.15 1051.75 592.75
00000978 00000020 871.49 83.69 453.25 671.65 929.77 342.32 1103.20 354.84 932.87 447.79 922.35 581.24 1048.18 593.99
00000979 00000021 871.08 83.58 451.43 670.12 929.99 343.95 1099.11 356.00 928.92 448.21 919.50 582.78 1040.08 595.03
00000980 00000022 870.89 82.53 452.19 681.34 934.07 344.27 1097.69 355.40 930.29 447.24 925.26 587.40 1037.92 598.78
00000981 00000023 871.33 70.24 450.98 696.17 932.16 349.80 1093.42 358.19 930.85 439.79 927.41 587.09 1039.24 595.12
00000982 00000024 866.63 70.22 459.58 690.82 934.63 352.12 1095.30 366.16 936.70 438.27 929.83 577.67 1043.62 590.29
00000983 DELETE   869.17 70.99 461.43 685.05 937.91 348.67 1104.46 364.76 942.72 437.19 931.80 571.63 1054.22 586.35
00000984 00000026 875.40 71.17 456.40 679.25 942.86 341.03 1114.92 361.02 949.17 435.94 930.81 565.27 1061.28 583.68
00000985 00000027 878.27 68.73 459.26 683.89 948.04 333.44 1123.41 355.42 955.00 433.28 932.74 563.77 1065.79 584.04
00000986 00000028 879.75 68.00 461.96 684.94 951.21 331.00 1127.61 351.30 958.92 430.14 933.58 563.96 1063.31 583.01
00000987 00000029 881.80 66.05 462.22 677.73 950.16 332.21 1126.85 352.91 959.57 432.66 933.59 562.29 1062.47 581.65
00000988 00000030 883.50 67.27 462.90 680.60 950.57 333.13 1128.92 352.89 961.17 434.34 933.90 565.75 1063.72 584.48
00000989 00000031 883.96 72.84 466.26 682.51 955.42 334.15 1132.46 352.03 965.60 433.30 940.44 567.17 1069.98 584.30
00000990 00000032 883.23 74.03 465.03 681.69 953.06 333.18 1133.67 352.24 965.96 436.47 938.70 569.37 1075.00 587.45
00000991 00000033 879.66 76.28 467.88 679.35 951.71 332.33 1133.61 354.24 965.53 437.99 936.04 566.74 1077.11 587.10
00000992 00000034 876.46 77.56 470.92 686.38 948.20 332.08 1134.56 354.65 963.32 439.83 932.86 570.31 1082.15 590.94
00000993 00000035 873.87 77.78 471.45 693.86 945.87 333.32 1133.66 356.18 961.42 440.15 930.05 572.73 1082.71 593.49
00000994 00000036 871.66 78.84 468.63 688.70 943.71 333.47 1133.97 360.60 961.49 442.87 926.44 569.02 1083.26 593.18
00000995 00000037 869.63 82.47 470.82 686.13 942.76 334.95 1134.18 364.35 961.25 444.60 925.45 570.26 1080.56 596.32
00000996 00000038 869.28 84.58 471.07 688.90 943.17 336.56 1133.56 366.99 960.28 445.40 925.58 572.69 1079.17 599.63
00000997 00000039 869.85 90.23 467.35 682.51 945.47 337.07 1133.36 370.57 962.10 447.98 926.33 570.81 1077.90 600.25
00000998 00000040 870.99 94.92 465.43 682.29 947.26 340.00 1133.04 373.64 962.55 449.55 927.92 575.23 1074.10 604.96
00000999 00000041 869.53 104.38 469.14 676.57 954.13 342.63 1137.75 374.95 968.92 456.24 930.38 581.69 1066.50 611.30
00001000 00000042 873.30 105.00 469.01 673.03 956.70 345.95 1137.34 374.68 971.02 454.61 934.27 583.98 1063.55 610.99
00001001 00000043 876.93 105.18 467.84 671.73 959.19 343.56 1138.77 373.75 974.33 454.50 935.33 583.63 1062.76 612.02
00001002 00000044 876.79 103.50 467.40 672.29 960.31 340.51 1139.12 372.38 975.07 452.65 934.97 581.03 1061.17 610.86
00001003 00000045 875.78 100.97 468.89 675.15 960.99 339.24 1139.53 370.03 974.95 449.75 935.43 580.78 1059.83 609.85
00001004 00000046 875.34 99.56 470.13 677.88 961.99 337.19 1141.62 368.73 975.56 448.87 936.17 577.90 1064.39 607.44
00001005 00000047 874.19 98.34 470.87 681.95 961.32 335.59 1142.86 368.64 975.30 450.20 935.24 576.33 1070.38 606.82
00001006 00000048 872.53 98.49 472.85 683.65 958.50 337.17 1142.68 369.79 973.87 451.82 933.70 578.20 1072.69 608.17
00001007 00000049 871.73 98.46 474.58 684.31 957.04 338.82 1141.44 370.88 972.62 452.97 933.18 580.62 1071.77 610.12
00001008 00000050 872.18 99.87 472.24 680.38 956.55 339.98 1139.40 370.07 971.82 452.25 933.48 581.19 1068.28 609.31
00001009 00000051 871.61 100.78 472.18 679.40 957.03 340.47 1138.26 369.91 971.65 451.60 933.91 581.53 1064.87 609.22
00001010 00000052 869.99 101.63 473.45 682.00 956.52 341.29 1137.20 370.01 970.46 451.94 933.28 584.74 1061.06 611.99
00001011 00000053 869.74 102.66 473.30 682.69 954.39 344.07 1134.86 371.29 968.46 454.22 932.97 588.43 1058.60 614.41
00001012 00000054 867.14 102.10 475.92 684.05 951.82 345.22 1133.20 371.99 964.31 453.93 929.79 588.56 1056.78 614.17
00001013 00000055 864.19 103.73 476.14 680.17 949.54 349.69 1130.28 374.71 962.80 455.68 929.52 589.09 1055.15 613.02
00001014 DELETE   860.68 94.85 475.22 686.48 944.39 367.07 1122.71 390.55 957.16 450.05 928.22 590.48 1053.43 611.87
00001015 DELETE   853.70 96.22 475.75 683.19 940.54 366.39 1122.60 391.15 957.93 449.30 925.17 586.74 1055.37 609.15
00001016 00000058 853.65 97.12 471.27 680.19 939.52 363.73 1121.91 389.82 959.86 450.65 924.25 583.20 1057.83 606.69
00001017 00000059 847.73 109.40 483.98 671.34 938.92 357.39 1126.60 378.34 961.91 456.57 923.49 585.61 1062.82 604.98
00001018 00000060 844.31 106.61 484.29 674.48 933.96 354.36 1127.51 373.68 962.57 456.84 920.25 585.66 1069.30 603.54
00001019 00000061 841.26 105.17 484.24 674.62 931.80 351.42 1128.15 369.24 964.12 455.61 920.05 585.26 1070.13 601.90
00001020 00000062 839.84 103.15 483.85 669.99 928.61 349.92 1127.01 364.72 963.97 451.47 918.60 582.95 1069.03 597.36
00001021 00000063 837.69 97.07 486.69 670.50 924.16 350.04 1124.55 360.64 961.99 450.71 919.11 581.59 1072.44 592.57
00001022 00000064 833.64 95.01 488.28 667.79 922.11 347.69 1124.04 358.46 963.44 447.29 917.03 577.75 1070.44 589.05
00001023 00000065 833.10 92.45 486.03 662.81 921.07 345.85 1122.95 356.42 963.03 444.35 916.77 573.11 1070.04 584.26
00001024 00000066 831.61 90.11 486.67 663.72 918.65 345.95 1123.02 355.89 962.38 444.49 915.31 573.31 1071.60 583.91
00001025 00000067 830.01 93.57 485.90 661.26 917.58 349.59 1121.66 358.60 963.23 448.42 916.04 575.34 1071.30 584.99
00001026 00000068 830.94 84.80 479.73 668.64 914.35 350.13 1119.24 360.78 964.08 447.78 917.55 577.39 1074.00 586.60
00001027 00000069 830.46 87.30 478.99 667.59 912.02 352.44 1117.96 361.23 962.31 449.26 916.64 579.89 1074.16 587.47
00001028 00000070 837.42 97.37 468.13 662.66 908.37 353.67 1118.43 358.97 963.95 450.92 913.16 581.64 1078.33 586.67
00001029 00000071 830.62 98.91 485.73 663.67 917.53 354.99 1122.86 361.36 963.92 452.62 917.72 582.24 1074.71 589.73
00001030 00000072 833.34 99.73 485.13 666.18 920.40 354.80 1126.78 360.99 969.38 453.91 921.03 584.19 1080.09 591.46
00001031 00000073 839.85 102.89 478.90 673.73 927.97 356.58 1130.06 364.43 972.88 458.13 926.41 589.83 1081.52 598.13
00001032 00000074 843.26 104.74 478.03 682.56 932.35 354.63 1132.67 364.48 975.20 459.39 929.91 592.68 1083.93 602.48
00001033 00000075 845.21 104.06 478.37 681.62 933.65 353.51 1134.15 364.07 976.06 458.64 930.37 591.60 1085.88 602.02
00001034 00000076 848.59 103.73 477.16 679.33 934.91 354.14 1135.75 364.42 977.25 458.48 931.10 591.23 1088.16 601.56
00001035 00000077 851.93 104.09 477.07 678.61 937.59 355.98 1137.55 365.68 979.54 458.95 933.66 592.12 1091.35 602.01
00001036 00000078 856.02 103.12 475.72 674.00 939.35 356.82 1137.67 366.24 980.95 459.72 936.48 589.00 1096.71 598.66
00001037 00000079 858.17 101.51 476.36 671.17 939.73 358.87 1138.85 366.37 983.35 460.10 938.33 588.32 1101.76 596.38
00001038 00000080 862.27 101.02 475.73 667.30 943.81 358.47 1141.41 365.79 988.10 460.15 943.78 585.34 1108.00 593.20
00001039 00000081 869.38 101.25 472.89 668.55 949.58 355.78 1144.88 365.70 990.32 459.00 949.29 582.95 1113.06 592.86
00001040 00000082 877.77 87.66 468.81 684.90 950.72 352.39 1144.82 362.11 988.05 452.72 948.51 584.63 1102.76 594.69
00001041 00000083 882.27 102.59 465.83 669.19 961.91 352.21 1152.71 363.33 998.81 450.35 957.67 582.77 1103.32 594.53
00001042 00000084 887.46 105.96 461.77 667.04 964.61 356.24 1152.56 363.97 1001.43 451.04 963.07 587.61 1099.91 596.71
00001043 00000085 888.42 109.11 463.61 667.87 966.81 357.77 1154.39 365.99 1004.40 453.07 964.98 590.66 1097.88 600.40
00001044 00000086 891.72 109.67 462.65 668.79 969.67 358.21 1156.11 366.24 1007.07 453.46 967.36 593.64 1094.94 603.67
00001045 00000087 896.22 110.69 462.67 665.87 972.46 356.79 1160.23 364.56 1012.82 453.16 972.11 593.31 1100.24 603.00
00001046 00000088 902.61 107.46 458.78 660.93 975.38 355.97 1163.58 363.33 1016.06 452.73 977.60 589.34 1107.12 598.65
00001047 00000089 906.77 106.21 457.33 654.27 978.71 355.43 1166.16 361.82 1019.37 452.19 983.03 585.14 1112.89 593.58
00001048 00000090 909.58 87.97 459.86 672.14 975.30 350.29 1163.99 356.00 1016.10 449.83 980.50 586.76 1111.65 593.93
00001049 00000091 910.19 87.30 459.50 670.56 976.39 348.99 1164.04 354.02 1016.95 448.36 982.18 584.03 1111.84 590.59
00001050 00000092 903.18 101.39 471.55 658.08 985.32 353.99 1173.87 358.57 1017.66 450.96 987.49 586.18 1117.36 592.62
00001051 00000093 903.73 99.88 473.08 663.32 986.04 355.04 1174.12 358.88 1017.71 452.69 988.84 588.92 1117.67 594.75
00001052 00000094 903.88 101.27 471.68 666.78 987.83 356.79 1174.65 360.72 1019.39 455.19 991.30 593.66 1117.23 599.48
00001053 00000095 907.00 106.33 468.78 664.77 987.59 356.89 1175.69 361.67 1019.31 456.60 990.82 594.66 1120.34 601.14
00001054 00000096 907.47 105.12 467.25 663.54 987.87 354.13 1175.29 361.57 1018.16 455.78 988.95 589.45 1122.77 598.00
00001055 00000097 907.97 104.06 463.88 663.50 986.61 353.84 1173.82 362.07 1014.28 454.83 985.44 589.00 1121.58 598.21
00001056 00000098 905.47 105.41 461.63 661.01 983.94 355.13 1170.92 363.09 1011.38 456.84 982.77 590.32 1120.54 599.34
00001057 00000099 901.81 107.19 461.01 659.63 979.77 357.45 1165.31 363.70 1006.63 457.73 980.07 591.97 1116.69 599.53
00001058 00000100 904.65 104.18 450.44 660.77 970.95 356.32 1156.58 362.19 1007.39 453.76 975.76 588.28 1113.29 595.70
00001059 00000101 901.72 102.77 448.48 668.76 967.75 357.04 1154.75 362.79 1003.99 455.51 972.93 590.37 1116.12 597.34
00001060 00000102 896.06 103.47 454.33 674.79 962.80 348.19 1154.94 358.71 999.29 461.00 965.15 590.98 1118.48 600.89
00001061 DELETE   897.22 94.94 449.79 678.95 960.09 366.89 1140.84 374.92 985.98 457.16 961.35 589.39 1106.24 597.73
00001062 DELETE   890.97 91.73 456.84 676.33 952.82 372.37 1136.64 377.02 980.60 456.47 955.56 590.15 1102.48 595.89
00001063 00000105 891.09 91.25 453.01 675.10 950.97 370.25 1139.61 375.52 983.08 458.45 953.81 588.96 1106.37 595.30
00001064 00000106 895.59 92.68 451.52 676.15 954.32 366.65 1138.88 371.86 984.52 458.50 958.17 589.86 1106.25 596.01
00001065 00000107 899.39 101.59 452.39 672.50 966.49 363.00 1150.45 368.28 997.47 460.62 970.88 591.35 1114.20 597.87
00001066 00000108 902.60 103.23 453.68 667.72 967.83 364.73 1152.73 369.56 1000.70 461.59 973.67 592.92 1114.75 599.06
00001067 00000109 904.22 105.53 453.79 665.32 968.08 366.90 1152.87 370.98 1001.78 463.31 973.89 594.41 1113.92 600.02
00001068 00000110 905.15 104.85 453.62 666.24 968.66 366.66 1153.71 371.07 1001.79 463.77 974.63 594.78 1114.36 600.57
00001069 00000111 904.80 102.68 453.91 669.16 969.08 362.57 1152.72 369.27 999.72 461.65 974.43 591.68 1114.57 599.27
00001070 00000112 902.80 98.73 452.12 670.60 967.05 358.13 1151.28 366.19 997.50 458.71 970.53 587.34 1112.27 596.26
00001071 00000113 899.71 94.86 454.31 675.54 963.69 354.55 1148.70 362.17 991.70 454.52 965.51 586.72 1111.42 595.35
00001072 00000114 898.67 91.84 456.02 685.97 963.73 348.13 1147.36 357.62 986.76 450.24 965.19 586.24 1113.23 596.21
00001073 00000115 897.89 89.82 457.60 690.82 964.63 345.38 1146.20 354.03 986.85 446.92 966.08 587.69 1105.22 597.38
00001074 00000116 896.95 73.79 459.30 698.09 958.02 345.48 1136.24 353.01 978.50 445.08 956.84 584.86 1090.97 593.22
00001075 00000117 892.65 72.53 458.36 695.41 953.31 344.34 1133.50 354.41 973.43 446.43 949.00 581.14 1088.30 591.72
00001076 00000118 889.28 73.37 458.03 691.59 950.41 346.04 1130.76 354.60 971.40 446.80 947.43 581.21 1086.22 590.57
00001077 00000119 885.69 76.88 461.01 693.38 948.64 347.32 1130.05 353.70 969.06 445.62 946.09 584.11 1085.33 591.64
00001078 00000120 883.12 77.47 459.75 692.29 951.55 345.25 1130.35 352.39 973.69 442.86 948.16 582.63 1080.11 591.02
00001079 00000121 887.80 72.88 460.99 700.10 957.66 341.22 1133.95 348.27 976.73 436.97 951.87 580.59 1081.45 589.02
00001080 00000122 889.38 68.47 464.80 698.68 961.14 338.53 1137.90 345.50 979.98 433.59 954.28 575.88 1083.65 584.23
00001081 00000123 887.76 62.29 466.12 699.34 960.59 336.61 1139.73 342.94 980.80 431.50 953.87 572.78 1086.53 580.56
00001082 00000124 886.84 57.61 468.71 698.86 959.25 333.06 1140.19 339.30 978.98 427.99 951.95 568.79 1087.63 576.40
00001083 00000125 885.37 54.55 469.21 697.93 958.05 329.97 1140.65 337.57 978.93 426.43 950.79 565.06 1088.21 573.84
00001084 00000126 882.13 52.66 472.04 699.74 957.01 328.34 1140.39 337.47 977.67 425.40 948.73 563.35 1086.87 573.38
00001085 00000127 878.58 54.54 474.41 703.43 953.76 331.41 1137.55 339.49 974.80 427.44 945.53 568.99 1083.74 578.14
00001086 00000128 878.67 57.45 472.81 707.23 951.96 335.12 1135.93 341.62 972.24 429.65 943.36 574.59 1081.65 582.57
00001087 00000129 880.16 61.19 472.60 706.54 952.77 338.41 1134.90 346.27 972.68 433.67 944.36 577.09 1081.61 586.13
00001088 00000130 886.91 69.01 468.80 697.60 956.49 346.12 1132.98 356.44 971.47 436.54 948.48 576.75 1082.83 587.70
00001089 00000131 890.48 70.74 472.60 694.83 960.31 348.63 1136.55 360.92 973.97 438.17 952.42 576.11 1087.88 588.21
00001090 DELETE   896.32 69.43 466.73 694.37 964.27 344.92 1141.07 359.06 977.84 437.74 954.68 573.85 1092.02 587.56
00001091 00000133 900.89 64.95 467.53 696.24 964.43 337.22 1141.55 349.21 979.70 437.31 957.20 573.28 1095.95 585.10
00001092 00000134 904.93 62.37 468.48 694.90 967.68 332.16 1145.01 344.35 984.23 437.39 961.65 569.98 1101.67 581.61
00001093 00000135 910.07 65.15 466.28 687.94 971.78 329.78 1147.23 346.06 988.86 439.47 965.97 564.52 1106.52 579.31
00001094 00000136 913.48 68.86 464.07 682.77 975.15 328.68 1150.83 349.11 990.92 441.54 968.84 562.10 1111.49 580.07
00001095 00000137 909.36 81.29 472.45 675.94 978.93 336.63 1164.98 352.37 992.49 448.24 976.35 574.65 1127.50 589.18
00001096 00000138 913.27 83.77 468.04 679.96 983.96 337.71 1166.61 353.83 994.26 448.21 978.86 579.67 1123.54 594.65
00001097 00000139 913.84 85.44 466.81 680.26 986.08 338.47 1167.17 355.18 994.64 448.15 978.69 580.94 1118.85 596.78
00001098 00000140 915.15 85.74 465.38 679.16 988.17 337.50 1166.77 355.06 994.34 446.92 978.84 580.48 1114.58 597.24
00001099 00000141 916.40 85.03 465.14 677.65 988.91 336.78 1167.24 354.50 994.31 446.15 978.99 579.16 1111.88 596.24
00001100 00000142 919.49 84.39 462.94 673.68 989.73 335.26 1167.70 354.10 994.48 445.58 979.08 577.39 1111.15 595.37
00001101 00000143 922.58 84.89 461.61 671.39 992.52 334.19 1170.54 354.51 997.72 445.59 980.68 575.70 1111.79 595.05
00001102 00000144 925.09 83.24 463.03 674.23 994.82 333.54 1173.92 353.82 1000.50 444.94 983.00 576.18 1114.47 595.53
00001103 00000145 927.41 80.38 466.52 684.28 997.77 330.96 1177.80 351.25 1003.21 443.97 985.65 578.39 1117.74 597.81
00001104 00000146 930.48 79.43 465.75 689.17 1002.12 329.33 1180.48 350.55 1005.81 442.89 989.13 579.22 1120.29 599.33
00001105 00000147 932.59 76.31 465.32 692.61 1004.43 328.28 1182.61 349.25 1008.27 441.86 990.90 579.01 1118.74 599.04
00001106 00000148 935.07 77.46 466.21 688.52 1008.59 328.45 1186.93 349.40 1013.81 440.09 994.57 576.92 1120.53 597.15
00001107 00000149 941.88 74.19 462.10 692.15 1011.57 335.78 1186.89 359.01 1019.01 440.92 1000.97 575.17 1126.43 596.49
00001108 00000150 940.37 88.00 471.38 672.72 1014.82 332.20 1193.70 353.74 1026.06 442.79 999.84 575.10 1124.07 596.19
00001109 00000151 947.92 75.73 464.01 686.21 1014.28 337.40 1192.98 360.67 1024.99 444.32 1003.05 577.24 1128.95 598.87
00001110 00000152 952.85 77.22 458.62 686.67 1015.13 337.55 1195.45 361.04 1027.01 445.93 1004.27 580.41 1131.20 602.43
00001111 00000153 953.97 78.64 459.25 689.08 1018.91 338.27 1197.11 361.51 1030.39 445.75 1007.95 581.08 1133.72 602.82
00001112 00000154 955.46 87.87 457.66 681.60 1023.39 350.26 1195.32 375.45 1031.54 446.52 1010.95 580.08 1135.05 603.11
00001113 00000155 955.38 86.75 459.47 684.14 1021.13 357.96 1194.07 377.62 1029.50 446.71 1013.33 583.91 1139.57 602.14
00001114 DELETE   956.03 85.67 458.19 684.66 1022.28 352.84 1197.42 372.15 1031.77 442.98 1012.49 580.81 1142.24 598.92
00001115 DELETE   956.60 80.11 458.18 688.33 1023.76 349.38 1198.35 366.87 1033.86 441.66 1013.39 579.38 1142.70 596.32
00001116 00000158 955.60 79.52 458.10 686.84 1024.88 347.14 1198.19 363.17 1035.30 439.99 1014.32 577.30 1142.20 593.01
00001117 00000159 951.23 75.44 461.33 688.69 1022.59 346.11 1198.65 359.26 1036.21 438.90 1013.90 576.68 1142.38 590.05
00001118 00000160 941.50 88.75 473.81 667.55 1017.60 344.77 1201.47 350.45 1040.09 436.15 1012.77 576.83 1140.98 585.02
00001119 00000161 938.08 74.45 463.38 678.95 1007.35 347.81 1187.34 356.20 1027.42 438.46 1003.66 575.68 1134.54 584.56
00001120 00000162 930.55 72.12 463.27 675.34 999.85 343.77 1181.93 354.75 1021.98 437.86 996.76 570.97 1132.07 581.52
00001121 00000163 930.02 70.14 449.74 669.11 986.84 337.72 1166.65 349.95 1016.95 440.57 984.17 566.09 1117.04 578.03
00001122 00000164 922.59 73.84 450.65 668.58 976.12 342.08 1154.06 350.68 1003.59 443.89 978.02 570.83 1109.73 579.96
00001123 00000165 911.51 74.55 454.18 671.57 966.94 346.21 1143.54 351.56 995.04 446.01 970.55 577.46 1100.01 584.01
00001124 00000166 905.99 81.42 453.88 671.11 958.49 352.34 1135.91 356.34 985.28 450.85 962.96 585.26 1092.91 590.81
00001125 00000167 901.30 86.80 452.74 664.86 955.49 358.10 1132.65 362.65 981.98 454.41 960.89 588.62 1086.55 594.68
00001126 00000168 900.58 87.31 451.03 663.86 953.77 359.44 1131.51 364.13 980.63 456.52 959.60 589.99 1084.72 596.22
