Video ID: 	-DAYumxBvzw
H: 	2160
W: 	3840
FPS: 	23.976023976023978

FRAME INDEX X0 Y0 W H [Landmarks (5 Points)]

00001493 00000000 1239.92 316.84 683.49 941.30 1364.68 744.35 1641.44 677.70 1491.60 894.51 1474.44 1044.33 1702.04 989.78
00001494 00000001 1243.70 300.39 674.41 936.36 1362.27 709.63 1649.92 653.28 1490.45 861.64 1456.26 1016.84 1690.22 970.16
00001495 00000002 1232.00 286.94 673.07 919.70 1359.62 694.98 1654.68 645.58 1495.94 846.43 1445.93 996.77 1680.26 956.56
00001496 00000003 1223.59 281.24 673.63 907.96 1351.15 688.73 1648.48 642.69 1486.34 840.68 1437.89 991.78 1661.97 955.38
00001497 DELETE   1208.72 281.01 673.39 908.11 1334.05 691.82 1621.08 641.23 1464.60 834.55 1427.60 995.58 1637.16 956.90
00001498 00000005 1194.11 289.77 669.01 906.65 1314.52 695.53 1590.99 644.88 1437.08 837.30 1407.83 997.69 1610.99 958.92
00001499 DELETE   1165.99 295.40 680.37 920.66 1285.16 697.70 1560.38 646.53 1402.26 843.92 1380.46 1002.15 1590.89 961.63
00001500 DELETE   1132.77 285.89 682.99 933.50 1246.52 712.98 1528.27 651.01 1372.90 856.77 1360.97 1008.44 1577.74 955.37
00001501 DELETE   1104.07 277.92 692.73 951.08 1223.99 713.91 1505.08 644.79 1349.24 861.99 1341.64 1018.25 1560.85 963.54
00001502 00000009 1093.35 287.70 684.84 936.44 1211.61 715.25 1489.16 648.58 1333.90 866.87 1324.96 1017.13 1542.51 963.05
00001503 00000010 1085.47 294.99 680.23 918.27 1203.02 716.53 1487.89 653.67 1331.41 868.72 1308.85 1019.92 1531.13 968.83
00001504 00000011 1077.56 298.31 684.71 921.12 1197.71 729.25 1476.13 666.72 1322.32 885.36 1306.07 1033.61 1519.45 982.84
00001505 00000012 1065.24 297.10 692.75 938.30 1186.20 739.88 1457.79 672.96 1310.94 889.25 1295.13 1050.60 1508.26 999.04
00001506 00000013 1052.72 303.30 698.12 943.58 1174.17 743.02 1447.33 675.38 1298.04 893.19 1282.55 1059.67 1496.82 1007.32
00001507 00000014 1041.11 303.97 705.83 946.55 1162.28 740.32 1437.56 674.60 1284.24 895.14 1268.75 1058.33 1487.58 1006.56
00001508 00000015 1034.78 310.27 708.06 935.19 1153.55 739.01 1430.79 674.47 1275.29 895.09 1259.65 1055.44 1479.25 1004.36
00001509 00000016 1034.34 315.46 704.20 929.46 1151.05 740.11 1428.90 676.38 1272.56 897.67 1252.88 1054.12 1478.22 1003.42
00001510 00000017 1034.16 315.54 703.08 929.76 1150.17 740.90 1427.00 677.25 1271.08 898.23 1252.56 1055.36 1474.93 1004.97
00001511 00000018 1035.34 309.64 706.01 932.45 1151.33 736.76 1428.73 672.04 1274.33 897.57 1254.55 1053.15 1478.11 1001.78
00001512 00000019 1041.42 295.13 699.11 935.03 1159.40 731.20 1436.22 665.19 1287.46 893.09 1265.89 1048.94 1483.35 996.63
00001513 00000020 1049.66 290.89 698.33 920.66 1174.89 727.65 1453.18 660.22 1309.79 885.73 1285.07 1043.34 1501.07 989.93
00001514 00000021 1069.56 280.86 687.51 917.67 1195.83 723.67 1466.19 653.43 1325.90 874.47 1315.78 1031.98 1511.85 977.46
00001515 00000022 1093.51 285.57 686.52 915.40 1218.90 717.95 1500.17 654.49 1350.28 875.12 1336.91 1023.13 1543.41 972.09
00001516 DELETE   1112.18 289.24 694.03 910.24 1241.21 728.67 1514.47 660.92 1370.97 874.68 1362.54 1023.64 1571.86 970.46
00001517 00000024 1139.36 293.40 691.74 914.59 1265.77 737.31 1530.21 664.87 1389.30 878.05 1387.95 1022.97 1611.04 966.73
00001518 00000025 1161.10 311.62 702.84 907.90 1292.06 735.23 1548.16 659.10 1407.85 882.28 1414.53 1029.99 1635.08 968.73
00001519 00000026 1172.60 311.37 708.29 904.20 1309.19 744.82 1561.32 658.78 1432.30 881.67 1441.96 1032.12 1658.14 963.13
00001520 00000027 1185.53 317.71 708.79 898.60 1328.82 751.78 1574.39 657.67 1454.48 882.49 1474.00 1034.82 1681.56 958.46
00001521 00000028 1199.53 318.53 702.54 900.52 1345.97 764.58 1595.27 661.68 1477.72 888.95 1496.36 1040.80 1705.00 957.27
00001522 DELETE   1210.68 315.68 698.15 912.35 1354.76 762.08 1622.86 669.68 1497.80 895.98 1501.46 1043.20 1716.38 968.14
00001523 00000030 1218.17 309.77 710.77 925.59 1366.14 768.08 1638.89 674.29 1516.96 903.08 1516.14 1052.34 1733.93 977.14
00001524 00000031 1223.03 307.23 720.76 935.36 1378.92 766.79 1651.86 673.26 1534.75 899.39 1528.52 1052.67 1750.17 977.69
00001525 00000032 1225.64 315.33 724.78 920.30 1388.90 763.97 1663.46 671.39 1551.03 898.25 1541.92 1054.28 1760.97 980.91
00001526 00000033 1235.40 314.36 721.16 917.99 1396.39 763.89 1669.19 669.40 1556.76 895.15 1549.25 1054.18 1766.88 979.73
00001527 00000034 1242.14 310.27 717.41 919.63 1401.37 762.72 1671.46 668.12 1558.69 895.34 1554.44 1054.45 1768.71 980.10
00001528 00000035 1247.28 311.64 713.45 919.47 1403.47 762.92 1673.07 668.28 1558.99 895.57 1557.03 1056.42 1768.98 982.20
00001529 00000036 1248.43 308.94 712.47 927.22 1403.96 764.65 1673.98 670.89 1560.07 898.05 1558.70 1061.15 1767.72 988.05
00001530 00000037 1247.08 309.07 714.40 928.97 1402.47 765.78 1673.93 672.74 1559.53 899.92 1556.09 1063.59 1766.05 991.08
00001531 00000038 1243.35 312.83 715.77 927.88 1398.87 766.75 1672.40 673.48 1558.22 899.94 1552.40 1066.06 1762.19 993.47
00001532 00000039 1240.00 304.43 715.06 940.18 1394.93 764.69 1670.61 672.50 1554.78 899.38 1547.04 1065.74 1757.28 993.87
00001533 00000040 1234.80 298.98 711.49 942.78 1392.36 760.99 1664.96 669.35 1551.55 896.78 1544.82 1061.28 1750.27 989.66
00001534 00000041 1232.80 293.61 707.54 945.63 1387.93 759.17 1657.85 664.70 1544.50 894.81 1543.45 1059.33 1745.60 985.28
00001535 00000042 1234.59 295.97 695.44 945.28 1384.99 759.13 1643.68 663.58 1534.97 897.17 1534.60 1056.63 1739.28 984.37
00001536 00000043 1232.58 290.59 690.47 950.21 1379.70 757.34 1639.58 663.39 1528.17 899.89 1527.54 1056.85 1732.68 985.24
00001537 00000044 1226.56 290.72 692.27 950.88 1373.23 756.84 1634.57 664.20 1519.16 899.11 1520.80 1058.82 1724.46 988.24
00001538 00000045 1164.03 359.68 676.25 894.94 1273.82 743.01 1551.11 695.38 1385.54 919.12 1360.91 1055.95 1590.72 1015.67
00001539 00000046 1165.46 364.52 675.17 893.16 1274.95 745.08 1552.74 697.09 1386.40 920.04 1360.78 1058.02 1591.63 1017.60
00001540 00000047 1166.73 364.60 674.45 891.62 1276.44 746.27 1554.65 697.63 1389.37 920.74 1363.54 1059.70 1593.28 1018.96
00001541 00000048 1167.80 362.76 675.80 895.65 1278.37 744.40 1556.77 696.02 1390.49 918.13 1364.23 1059.28 1595.50 1018.82
00001542 00000049 1166.73 351.96 676.28 904.99 1277.57 739.66 1556.01 692.09 1389.23 913.53 1363.82 1053.86 1595.59 1013.78
00001543 00000050 1165.70 344.17 677.12 913.43 1275.85 733.90 1553.38 686.53 1386.13 906.12 1363.35 1047.89 1592.39 1007.96
00001544 00000051 1166.22 336.97 674.63 916.83 1275.48 726.60 1549.25 681.25 1382.56 902.01 1361.45 1040.59 1588.62 1002.43
00001545 00000052 1166.98 332.63 675.85 913.99 1277.27 721.13 1547.21 676.63 1383.16 898.63 1363.29 1034.94 1593.26 998.15
00001546 00000053 1162.43 331.79 675.78 912.33 1268.62 720.81 1542.53 675.43 1374.70 897.58 1355.77 1032.52 1584.13 994.43
00001547 00000054 1161.60 329.27 672.37 905.99 1263.30 719.30 1535.48 677.20 1366.07 898.04 1349.53 1029.44 1574.61 994.34
00001548 00000055 1159.86 333.26 664.71 896.03 1254.44 719.25 1523.98 679.36 1351.15 898.25 1339.76 1028.24 1561.80 994.94
00001549 00000056 1157.51 327.97 665.45 897.21 1248.76 713.68 1515.24 676.80 1339.57 895.34 1332.86 1024.40 1550.89 993.75
00001550 00000057 1148.81 310.41 680.82 910.92 1244.89 706.60 1515.29 670.87 1336.02 883.83 1331.14 1018.22 1547.88 989.32
00001551 00000058 1164.31 306.17 664.47 910.79 1258.80 695.41 1526.03 659.25 1353.37 874.98 1344.23 1010.84 1551.19 980.81
00001552 00000059 1177.49 297.24 669.34 913.31 1274.87 684.74 1544.32 645.74 1371.67 860.02 1359.19 1000.45 1572.64 968.63
00001553 00000060 1189.09 293.89 669.94 908.62 1292.89 686.90 1561.73 645.67 1394.53 855.67 1369.58 992.40 1597.84 958.91
00001554 00000061 1199.27 286.05 673.05 926.87 1301.53 676.67 1579.66 637.97 1404.98 846.94 1381.12 997.82 1603.99 966.49
00001555 00000062 1209.62 295.78 671.67 922.60 1312.87 683.70 1595.17 643.90 1421.61 849.71 1392.97 1009.49 1612.43 977.85
00001556 00000063 1211.33 295.69 675.09 932.15 1320.39 689.35 1602.33 650.90 1430.43 856.99 1399.66 1018.42 1616.20 987.89
00001557 00000064 1213.43 293.40 675.93 931.40 1325.53 693.67 1609.10 656.68 1439.89 863.61 1404.73 1025.80 1617.12 996.69
00001558 00000065 1218.81 293.22 676.38 928.24 1330.91 691.93 1619.22 657.85 1446.34 861.74 1404.44 1024.86 1624.00 998.20
00001559 00000066 1219.20 288.34 678.00 928.94 1332.53 687.15 1623.93 654.65 1449.98 857.44 1407.47 1021.86 1621.02 996.68
00001560 00000067 1221.77 289.99 674.98 924.66 1337.43 684.11 1627.54 652.85 1455.01 853.53 1412.91 1019.57 1619.84 995.58
00001561 00000068 1233.00 297.53 658.26 921.00 1352.81 693.63 1630.90 661.46 1460.41 859.07 1424.37 1017.10 1637.55 991.27
00001562 00000069 1236.78 307.76 661.82 930.04 1357.18 698.30 1641.02 666.90 1469.01 873.67 1427.15 1022.21 1651.44 995.37
00001563 00000070 1247.39 318.97 659.46 917.66 1365.67 705.16 1648.17 677.07 1475.87 884.66 1433.06 1031.12 1660.94 1006.82
00001564 00000071 1251.96 326.88 661.21 909.58 1371.25 711.36 1657.82 685.37 1486.85 886.81 1433.27 1033.60 1666.85 1011.84
00001565 00000072 1258.53 330.78 658.62 912.02 1379.00 712.59 1663.42 690.27 1493.09 888.58 1435.83 1032.58 1670.31 1013.78
00001566 00000073 1261.40 331.24 655.52 917.47 1381.55 710.91 1663.61 688.75 1493.01 885.95 1438.16 1031.42 1672.25 1012.53
00001567 00000074 1260.61 328.51 657.41 922.10 1379.61 708.55 1660.31 683.35 1489.36 883.22 1439.44 1033.94 1671.24 1012.47
00001568 00000075 1255.73 327.66 660.47 915.09 1374.51 708.77 1659.20 682.03 1488.47 883.26 1435.64 1029.86 1668.61 1007.46
00001569 00000076 1252.72 324.39 659.40 914.26 1369.56 711.54 1655.96 685.27 1485.02 886.71 1430.57 1032.63 1661.96 1010.76
00001570 00000077 1247.96 324.80 658.86 908.83 1364.23 723.44 1654.62 695.73 1483.79 896.23 1430.33 1045.95 1658.47 1023.53
00001571 00000078 1256.23 326.28 657.88 915.80 1364.96 733.55 1653.03 706.51 1481.34 912.97 1445.77 1061.78 1654.57 1040.27
00001572 00000079 1250.17 347.16 662.22 918.06 1374.08 758.69 1652.47 721.78 1495.14 931.00 1466.48 1083.32 1662.15 1054.13
00001573 00000080 1258.92 363.99 649.59 893.92 1373.72 764.05 1658.22 737.24 1494.54 950.11 1449.39 1087.64 1664.74 1065.81
00001574 00000081 1261.23 370.75 644.93 867.65 1375.32 765.59 1660.68 748.31 1496.49 956.24 1442.92 1084.23 1650.03 1070.46
00001575 00000082 1258.85 371.20 648.24 904.16 1376.70 764.56 1661.86 744.84 1494.23 953.21 1439.35 1089.25 1654.85 1073.30
00001576 00000083 1250.94 362.13 654.86 901.74 1365.25 757.90 1652.19 733.27 1483.81 944.92 1432.56 1074.62 1655.59 1054.10
00001577 00000084 1242.36 354.42 646.72 890.53 1357.45 753.41 1645.89 725.02 1480.80 935.38 1425.60 1068.53 1650.38 1044.94
00001578 00000085 1236.44 339.53 650.45 901.23 1353.35 742.60 1640.63 711.05 1479.79 914.53 1422.91 1059.36 1652.35 1035.06
00001579 00000086 1232.27 329.79 653.56 925.50 1354.28 739.40 1638.00 701.00 1475.86 899.47 1426.58 1056.43 1651.09 1027.87
00001580 00000087 1234.33 324.24 655.57 903.16 1354.22 732.05 1636.28 696.29 1477.61 894.07 1428.40 1046.32 1646.66 1019.62
00001581 00000088 1238.16 323.49 648.35 911.90 1358.03 732.99 1640.45 694.61 1481.61 893.63 1433.47 1048.40 1652.71 1019.22
00001582 00000089 1240.17 323.37 648.70 908.19 1359.00 734.28 1643.32 697.30 1485.26 897.21 1434.90 1046.85 1653.32 1018.73
00001583 00000090 1236.72 326.02 652.04 911.67 1359.29 737.90 1648.95 703.43 1489.28 902.70 1429.35 1051.58 1660.88 1025.04
00001584 00000091 1240.05 333.29 644.55 909.33 1352.26 740.61 1637.50 709.40 1475.33 914.26 1425.65 1053.31 1653.85 1029.55
00001585 00000092 1242.84 340.91 648.60 905.31 1354.05 748.92 1639.39 717.46 1476.47 926.83 1424.69 1058.53 1654.57 1034.98
00001586 00000093 1244.77 364.47 652.64 873.95 1364.64 759.68 1651.13 732.60 1487.09 940.41 1433.00 1068.05 1656.49 1045.98
00001587 DELETE   1253.18 386.92 653.40 878.38 1370.63 777.47 1664.81 756.82 1497.63 953.76 1440.34 1085.41 1667.72 1069.62
00001588 00000095 1261.59 402.26 654.50 888.45 1382.14 809.73 1680.40 795.97 1519.78 995.41 1456.03 1126.74 1662.66 1116.00
00001589 00000096 1272.15 424.58 662.19 882.46 1398.12 826.04 1686.68 812.22 1534.08 1003.88 1470.80 1139.86 1670.60 1128.13
00001590 00000097 1285.80 459.34 650.24 844.65 1403.75 837.61 1695.62 829.46 1535.62 1013.20 1460.42 1132.50 1656.65 1127.57
00001591 00000098 1296.34 456.48 643.14 881.80 1410.90 846.03 1708.81 834.16 1549.14 1027.57 1469.81 1161.61 1670.31 1153.15
00001592 00000099 1310.97 461.70 628.53 855.90 1423.77 847.06 1709.61 834.60 1558.88 1026.44 1480.57 1154.63 1676.19 1145.72
00001593 00000100 1310.74 464.25 625.98 856.89 1426.63 851.44 1709.42 835.40 1567.40 1032.58 1489.28 1164.43 1685.22 1152.10
00001594 00000101 1304.24 468.96 631.74 855.02 1425.13 856.06 1712.05 835.72 1573.72 1043.29 1496.45 1180.23 1693.02 1164.00
00001595 00000102 1305.17 482.37 627.95 816.65 1424.14 854.64 1705.61 842.01 1564.57 1037.20 1486.24 1160.35 1673.52 1151.25
00001596 00000103 1302.84 493.80 626.81 795.48 1420.14 858.70 1706.57 846.45 1561.47 1042.15 1487.12 1157.45 1673.69 1148.21
00001597 00000104 1299.32 500.17 615.65 788.87 1423.56 867.25 1706.04 846.11 1571.76 1040.94 1495.75 1167.79 1677.49 1151.62
00001598 00000105 1296.66 514.68 616.01 785.55 1425.43 873.96 1709.66 847.88 1582.28 1042.52 1503.61 1175.59 1686.51 1154.73
00001599 00000106 1297.19 533.48 623.86 793.27 1439.01 877.54 1714.89 859.86 1575.97 1049.76 1509.77 1179.89 1692.52 1165.74
00001600 00000107 1297.27 557.73 621.03 774.35 1428.42 887.92 1710.43 870.83 1574.56 1042.36 1496.58 1181.25 1685.96 1169.05
00001601 00000108 1292.44 569.75 625.63 765.25 1424.90 890.62 1706.58 871.66 1569.89 1041.10 1495.21 1181.41 1684.71 1167.66
00001602 00000109 1285.94 563.96 627.81 790.23 1420.86 896.63 1701.07 880.22 1561.78 1051.54 1489.97 1194.82 1680.81 1182.02
00001603 00000110 1282.35 562.77 634.21 768.72 1415.57 888.57 1702.30 872.08 1565.65 1043.70 1484.50 1182.33 1675.02 1170.53
00001604 00000111 1281.92 555.91 636.86 770.40 1415.94 882.94 1703.47 864.24 1566.26 1036.49 1489.02 1175.85 1677.96 1161.92
00001605 00000112 1280.34 546.70 634.49 767.17 1419.83 878.31 1705.63 858.17 1570.98 1032.80 1493.73 1168.13 1679.99 1153.08
00001606 00000113 1275.11 546.92 655.65 781.68 1421.07 877.03 1710.52 856.51 1569.08 1021.44 1491.88 1161.19 1678.77 1146.81
00001607 00000114 1273.51 551.99 652.28 771.83 1417.11 879.24 1710.13 860.29 1569.03 1020.76 1487.14 1159.78 1675.52 1146.55
00001608 00000115 1272.96 548.81 654.61 785.84 1414.74 877.53 1708.43 855.26 1567.49 1020.96 1488.81 1164.13 1678.43 1147.93
00001609 00000116 1272.59 541.89 651.32 785.60 1416.58 876.02 1708.31 851.84 1569.41 1020.36 1491.78 1162.70 1680.04 1144.69
00001610 00000117 1270.10 537.64 657.89 788.01 1416.06 873.44 1709.99 848.44 1568.37 1022.76 1493.39 1162.92 1683.16 1144.26
00001611 00000118 1272.10 537.99 654.89 776.29 1419.03 871.54 1711.42 849.41 1569.23 1022.60 1493.26 1156.17 1680.55 1139.72
00001612 00000119 1271.76 533.97 652.88 772.38 1419.20 869.56 1711.85 848.79 1570.04 1020.48 1493.58 1151.33 1679.46 1135.80
00001613 00000120 1272.74 534.04 648.54 768.65 1419.36 866.01 1709.42 846.33 1569.94 1016.84 1493.03 1147.13 1677.42 1132.35
00001614 00000121 1270.75 523.53 655.76 778.56 1420.93 867.76 1716.59 850.16 1573.68 1016.67 1493.23 1148.04 1681.02 1135.36
00001615 00000122 1274.91 527.47 646.59 762.79 1419.26 861.48 1712.40 846.06 1568.94 1011.46 1489.66 1141.31 1676.23 1130.40
00001616 00000123 1274.73 525.42 642.30 761.96 1414.78 854.37 1708.93 840.73 1563.12 1003.23 1485.74 1134.31 1672.00 1124.68
00001617 00000124 1277.92 512.73 636.29 770.54 1409.68 845.45 1705.97 835.37 1553.69 1003.63 1478.43 1131.45 1666.27 1124.67
00001618 00000125 1275.70 484.48 645.28 795.44 1402.74 835.03 1695.60 827.30 1536.89 1006.32 1474.45 1139.22 1667.89 1132.07
00001619 00000126 1273.70 457.32 650.18 810.54 1401.61 820.75 1698.03 808.22 1549.05 1000.33 1470.53 1125.33 1668.21 1116.83
00001620 00000127 1287.48 420.43 629.44 842.16 1398.87 806.04 1695.29 789.30 1543.16 991.82 1469.38 1127.38 1667.09 1114.92
00001621 00000128 1275.75 391.39 642.19 869.86 1398.42 788.40 1692.70 773.29 1541.58 976.46 1466.24 1121.49 1668.70 1110.21
00001622 00000129 1270.59 358.83 648.43 894.50 1391.39 777.30 1685.02 753.20 1532.53 965.29 1463.72 1112.83 1661.05 1094.51
00001623 00000130 1268.93 334.30 654.64 924.03 1384.85 746.20 1687.56 727.17 1522.92 934.64 1457.34 1085.39 1668.51 1070.93
00001624 00000131 1233.12 318.77 682.15 933.93 1378.08 725.13 1692.19 709.22 1524.61 905.65 1441.00 1048.01 1674.32 1035.21
00001625 00000132 1249.05 299.39 669.62 942.73 1385.42 712.45 1694.67 694.44 1529.54 886.58 1439.29 1021.56 1689.48 1007.96
00001626 DELETE   1262.27 282.31 662.91 934.61 1395.79 688.69 1695.49 670.79 1533.17 861.11 1446.70 995.88 1695.68 981.11
00001627 00000134 1254.77 274.09 668.40 917.44 1393.04 667.90 1700.31 648.50 1535.05 831.44 1449.18 978.24 1690.79 963.30
00001628 00000135 1256.85 252.88 669.22 927.85 1399.01 648.92 1699.25 631.24 1537.90 810.62 1447.10 961.11 1697.58 946.88
00001629 00000136 1260.53 233.22 667.33 925.99 1398.79 634.38 1696.29 610.98 1535.41 795.69 1452.46 943.91 1702.08 924.89
00001630 00000137 1268.71 215.07 658.12 908.92 1397.43 624.53 1697.37 597.53 1533.45 782.97 1456.42 932.99 1701.29 912.47
00001631 00000138 1276.20 211.19 647.87 895.50 1395.17 615.62 1694.92 584.60 1528.70 767.12 1456.57 925.61 1697.34 902.56
00001632 00000139 1280.03 210.63 642.13 887.35 1393.15 609.85 1689.64 575.58 1523.79 756.70 1455.14 921.34 1692.19 895.87
00001633 00000140 1272.57 212.01 648.47 886.82 1390.11 607.32 1686.55 573.52 1521.25 754.19 1454.73 917.86 1686.53 892.44
00001634 00000141 1271.72 218.03 645.84 880.61 1387.72 606.87 1682.22 574.40 1517.01 754.92 1451.54 916.70 1682.53 892.05
00001635 00000142 1268.16 213.28 645.63 888.01 1391.00 608.71 1676.80 575.81 1517.53 756.15 1447.86 915.85 1681.28 891.62
00001636 00000143 1265.84 211.65 646.85 889.02 1388.49 609.14 1675.74 577.60 1515.52 759.26 1445.37 916.51 1679.64 893.20
00001637 00000144 1265.02 210.03 646.57 890.40 1388.11 610.01 1676.93 580.34 1515.68 760.43 1444.79 917.31 1677.35 895.55
00001638 00000145 1265.36 211.43 644.00 888.31 1387.73 609.49 1677.12 580.04 1515.25 759.23 1443.57 917.94 1676.25 896.40
00001639 00000146 1262.35 213.45 645.00 886.21 1386.36 609.83 1676.26 580.84 1513.35 758.48 1442.92 918.92 1674.03 897.84
00001640 00000147 1261.42 215.28 642.88 887.08 1385.32 609.57 1673.88 581.83 1510.95 759.46 1439.00 915.78 1670.99 895.60
00001641 00000148 1258.55 215.80 642.56 890.95 1383.59 609.10 1672.57 581.90 1508.84 758.66 1436.15 912.06 1667.64 892.28
00001642 00000149 1256.65 216.26 641.07 892.45 1383.42 608.40 1670.97 582.21 1507.93 757.43 1434.34 911.09 1664.18 892.09
00001643 00000150 1253.61 215.52 642.01 892.18 1380.77 607.37 1669.60 579.66 1506.39 752.53 1433.94 911.66 1662.36 891.81
00001644 00000151 1251.05 213.08 643.54 894.36 1378.27 603.84 1669.12 575.42 1504.48 744.48 1433.57 913.29 1657.89 893.55
00001645 00000152 1248.21 208.47 648.33 896.87 1377.59 596.19 1666.53 567.52 1503.82 737.19 1435.19 908.21 1654.60 887.89
00001646 00000153 1244.96 204.93 651.04 895.67 1373.23 586.82 1665.76 558.49 1499.63 725.85 1429.30 898.22 1655.66 877.98
00001647 00000154 1241.75 195.83 651.20 896.51 1368.44 572.58 1657.03 545.11 1489.74 715.91 1422.21 883.11 1647.96 863.05
00001648 00000155 1233.17 177.17 651.54 910.91 1355.35 565.84 1651.54 536.53 1481.55 706.82 1408.35 877.13 1639.41 856.81
00001649 00000156 1222.72 175.40 656.67 908.55 1342.30 563.25 1635.03 527.71 1465.25 694.76 1400.74 873.99 1626.62 849.62
00001650 00000157 1212.97 165.98 661.26 907.06 1330.47 561.28 1622.23 519.34 1450.98 684.80 1397.58 871.70 1617.07 842.80
00001651 00000158 1205.00 159.46 665.08 914.74 1321.38 559.00 1613.54 514.36 1441.51 681.67 1390.57 870.45 1609.91 839.16
00001652 00000159 1203.72 163.59 659.74 898.23 1317.65 561.90 1608.05 514.57 1439.60 685.84 1387.95 870.89 1607.98 837.30
00001653 00000160 1204.60 171.93 661.70 900.89 1316.44 566.29 1607.45 515.39 1439.13 692.04 1390.13 878.42 1614.40 842.07
