Video ID: 	gNmV80DJiLY
H: 	1080
W: 	1920
FPS: 	25.0

FRAME INDEX X0 Y0 W H [Landmarks (5 Points)]

00052655 00000000 608.34 167.35 423.01 574.03 727.37 410.20 914.29 421.41 814.87 535.29 736.07 603.73 881.57 614.21
00052656 00000001 609.87 167.73 422.49 581.57 731.15 407.20 921.16 422.69 823.39 530.26 740.12 609.06 889.10 621.66
00052657 00000002 611.72 168.45 423.30 580.35 734.77 409.05 923.28 420.56 828.71 532.94 746.30 612.03 891.73 621.71
00052658 00000003 613.27 164.92 424.01 586.05 738.60 409.33 925.62 420.37 833.25 533.75 752.62 613.73 893.78 623.03
00052659 00000004 618.36 166.00 420.95 587.05 754.13 414.97 933.76 426.25 846.93 533.36 764.69 616.03 900.47 625.40
00052660 DELETE   623.04 164.10 423.07 595.58 767.91 418.49 946.06 426.89 864.88 536.74 777.56 620.97 915.94 627.85
00052661 DELETE   631.70 163.59 419.14 597.89 779.98 418.83 958.86 426.46 879.99 536.37 788.56 620.90 934.62 627.10
00052662 DELETE   636.93 168.59 419.11 599.30 796.84 422.22 974.20 430.08 901.63 541.71 802.25 625.94 948.04 632.32
00052663 00000008 643.25 167.09 417.26 601.55 807.61 422.46 982.03 431.01 911.36 544.60 815.27 630.22 953.70 636.70
00052664 00000009 647.02 169.77 416.65 599.59 810.78 421.75 985.42 431.27 914.33 545.99 818.38 631.86 956.00 639.11
00052665 00000010 648.26 168.20 418.74 600.71 810.62 421.24 986.38 433.29 911.27 550.10 816.13 633.69 952.36 643.07
00052666 00000011 647.68 167.22 420.33 599.94 808.26 421.55 983.29 436.14 905.39 553.69 810.57 632.47 946.85 644.07
00052667 00000012 652.38 170.95 419.82 599.71 805.88 417.28 992.90 436.49 906.60 550.59 798.78 624.31 944.50 642.10
00052668 00000013 653.61 173.38 421.35 596.86 809.92 419.34 997.55 436.16 913.77 552.84 804.46 626.65 952.15 642.48
00052669 00000014 655.16 176.53 420.15 597.13 814.55 420.87 999.44 436.99 919.37 554.14 809.32 626.41 958.49 641.67
00052670 00000015 656.14 177.16 421.18 597.89 815.89 423.16 1000.34 439.06 921.10 554.25 810.58 625.29 960.92 640.23
00052671 00000016 655.85 174.93 422.02 600.13 818.00 422.24 1000.58 439.34 921.57 554.14 810.60 624.28 958.43 640.27
00052672 00000017 655.90 175.51 421.81 596.22 816.55 420.19 1002.09 436.62 923.44 552.14 807.78 622.04 960.56 637.45
00052673 00000018 656.32 175.65 419.80 590.52 816.56 419.35 1003.00 435.11 924.55 550.85 808.07 620.08 961.93 634.86
00052674 00000019 656.26 176.22 420.61 591.58 817.55 419.31 1002.66 434.88 924.93 550.74 809.54 619.36 962.48 634.01
00052675 00000020 655.76 174.59 421.08 597.49 817.68 419.56 1001.20 435.65 923.57 551.67 810.71 621.68 960.71 636.80
00052676 00000021 655.36 174.18 421.02 601.01 816.40 421.05 999.33 438.36 920.25 553.44 806.51 621.63 956.85 637.88
00052677 00000022 655.33 173.41 420.47 601.30 815.24 421.37 998.72 437.81 919.57 552.63 806.73 622.31 957.34 637.71
00052678 00000023 655.22 172.61 420.67 604.18 814.50 421.25 999.13 437.41 920.33 552.30 807.31 623.38 959.44 638.46
00052679 00000024 655.64 171.86 420.26 600.13 814.21 421.01 1000.47 435.59 920.97 552.12 810.52 625.25 961.35 638.95
00052680 00000025 654.57 170.36 419.55 599.67 812.14 419.82 998.94 433.58 918.67 551.62 809.86 625.57 959.53 638.52
00052681 00000026 651.82 172.57 420.03 595.54 808.91 419.78 996.45 432.56 915.81 549.74 808.05 625.66 957.01 637.86
00052682 00000027 648.02 167.69 421.18 599.77 809.60 422.10 987.32 432.21 911.43 554.35 814.81 634.09 953.20 642.05
00052683 00000028 646.91 170.76 420.48 597.97 808.02 421.10 985.12 431.47 909.67 553.99 813.13 634.09 950.45 642.36
00052684 00000029 645.52 170.10 420.25 597.03 801.42 420.67 980.41 430.93 902.81 550.27 805.89 631.46 946.28 640.01
00052685 00000030 642.14 165.99 421.34 599.51 795.76 418.48 976.28 431.22 897.10 545.08 798.90 627.43 942.73 637.89
00052686 00000031 641.02 165.35 419.16 596.25 791.86 416.29 972.31 428.25 893.17 537.85 795.87 622.39 941.70 632.27
00052687 00000032 639.55 162.83 418.18 599.27 791.01 416.24 969.12 426.81 891.67 536.33 797.63 623.87 938.33 632.36
00052688 00000033 638.76 165.26 417.84 596.32 788.89 415.94 968.09 425.83 889.65 536.06 796.55 624.34 937.24 632.19
00052689 00000034 637.99 162.76 418.35 598.46 786.74 415.08 965.97 424.54 887.31 534.71 794.50 623.41 935.79 630.87
00052690 00000035 637.61 163.00 417.80 598.14 785.83 414.95 965.82 424.17 886.59 535.10 793.01 622.86 936.08 630.26
00052691 00000036 638.68 162.51 416.80 597.69 785.56 415.25 966.63 424.60 886.79 535.05 792.77 622.23 937.85 629.76
00052692 00000037 639.14 162.73 416.45 596.74 785.66 415.10 966.92 424.96 886.83 534.70 792.21 621.57 938.00 629.62
00052693 00000038 639.48 163.08 416.72 597.52 787.23 414.62 967.61 424.97 887.67 534.28 792.45 620.80 938.12 629.34
00052694 00000039 639.27 163.03 416.86 596.42 787.90 414.89 968.27 425.68 888.68 533.70 792.26 618.91 939.10 627.87
00052695 00000040 639.29 162.70 416.49 594.03 788.80 414.90 969.40 425.61 890.38 533.65 792.67 615.50 941.96 624.56
00052696 00000041 638.94 162.41 416.78 593.18 789.06 415.30 969.74 425.69 891.31 534.50 793.68 615.61 942.12 624.32
00052697 00000042 639.39 162.34 416.18 593.17 790.28 415.87 969.87 425.39 892.60 534.96 795.40 616.47 941.98 624.42
00052698 00000043 639.21 161.94 416.49 593.24 791.24 416.05 970.93 425.09 894.27 534.85 797.04 617.43 943.64 624.92
00052699 00000044 639.34 162.72 416.25 594.78 791.83 416.09 971.83 425.35 894.86 534.99 796.70 617.76 944.66 625.45
00052700 00000045 638.72 162.47 417.32 596.25 791.74 415.59 970.35 425.61 893.43 535.57 795.61 617.88 941.71 626.24
00052701 00000046 637.39 163.26 418.33 597.79 792.07 416.05 970.39 426.18 894.56 536.26 794.90 618.56 941.90 627.05
00052702 00000047 637.18 163.74 417.92 597.85 793.40 417.49 972.98 426.65 897.76 537.95 797.46 619.17 946.51 626.66
00052703 00000048 637.82 161.05 417.34 600.61 793.95 417.93 973.25 425.92 898.67 537.90 800.80 620.62 948.39 626.89
00052704 00000049 637.41 161.04 416.94 598.25 792.54 416.74 972.06 424.87 897.22 537.24 799.49 620.38 945.48 626.85
00052705 00000050 637.22 160.33 417.63 597.38 792.11 414.95 971.13 423.83 895.49 535.40 798.53 619.16 942.87 626.21
00052706 00000051 639.38 158.75 416.16 595.02 791.87 414.11 970.28 423.66 894.35 533.63 799.08 617.37 942.54 624.91
00052707 00000052 640.52 159.04 415.82 593.14 793.05 413.29 971.83 423.61 895.72 532.71 800.00 616.11 944.03 624.27
00052708 00000053 641.66 155.98 415.28 594.30 793.93 413.03 972.07 424.52 896.51 533.12 801.12 615.70 944.25 624.69
00052709 00000054 643.49 158.36 414.11 591.29 795.06 412.70 973.34 423.82 897.64 533.22 801.91 615.43 945.85 624.21
00052710 00000055 644.76 156.88 413.99 591.70 797.28 411.63 974.90 423.93 899.71 533.86 802.80 614.49 947.06 624.26
00052711 00000056 646.84 157.36 413.31 588.37 799.25 410.78 975.96 422.96 901.37 534.64 804.51 613.34 946.83 623.17
00052712 00000057 647.51 157.73 413.42 587.41 799.94 411.08 976.65 423.06 901.73 534.75 804.49 612.72 947.42 622.55
00052713 00000058 647.26 158.81 413.88 586.93 800.88 410.87 977.36 422.97 902.65 534.90 804.79 612.53 947.59 622.49
00052714 00000059 647.61 159.62 413.92 588.14 802.13 411.41 978.35 423.40 903.64 535.29 805.17 612.95 948.42 622.90
00052715 00000060 647.77 157.80 413.87 590.08 801.08 412.42 978.07 424.34 902.39 535.14 804.07 613.01 948.73 622.89
00052716 00000061 647.42 157.89 414.11 591.08 801.51 412.55 977.94 424.58 902.52 534.97 804.42 613.35 948.64 623.30
00052717 00000062 646.99 159.70 414.08 590.31 802.34 412.12 976.71 423.69 903.18 535.37 805.33 613.86 946.83 623.41
00052718 00000063 646.65 158.66 413.99 590.04 801.58 411.52 976.55 423.12 902.86 535.27 803.75 611.92 947.29 621.63
00052719 00000064 646.63 159.28 413.58 589.09 800.33 412.20 975.52 424.18 901.14 534.57 802.13 610.35 947.96 620.37
00052720 00000065 647.61 159.40 412.87 587.16 799.69 413.68 976.48 425.65 900.84 534.38 802.76 611.35 949.19 621.32
00052721 00000066 647.94 158.38 413.08 589.33 801.47 413.76 977.47 425.79 902.03 535.49 804.76 613.14 948.26 623.03
00052722 00000067 646.97 158.25 414.40 591.10 802.32 414.66 978.94 426.51 903.37 536.12 804.87 613.88 949.12 623.62
00052723 00000068 647.24 160.57 414.17 592.19 802.82 415.88 979.66 427.61 904.18 537.55 805.37 615.86 950.20 625.45
00052724 00000069 647.82 161.66 415.12 592.80 806.24 422.79 981.37 430.02 908.79 541.24 808.02 619.82 951.14 625.83
00052725 00000070 647.32 160.74 414.98 595.53 806.56 422.39 982.33 430.31 909.83 543.38 807.59 621.08 951.65 627.69
00052726 00000071 647.66 163.48 413.21 597.33 807.44 420.85 985.00 430.83 911.88 543.94 807.14 621.27 954.53 629.57
00052727 00000072 648.02 165.50 411.84 594.68 807.16 421.03 985.78 428.95 913.49 543.36 807.01 619.75 957.62 626.48
00052728 00000073 646.31 161.66 412.92 594.35 803.99 419.15 985.39 426.89 911.80 542.21 806.07 617.60 958.41 624.10
00052729 00000074 644.91 162.05 413.95 595.78 803.07 418.11 983.54 427.08 909.91 541.84 804.06 618.72 954.23 626.21
00052730 00000075 640.96 162.26 417.30 600.40 802.10 417.34 980.56 429.06 906.09 540.74 799.10 619.05 947.28 629.03
00052731 00000076 640.43 163.31 417.16 598.62 799.99 416.98 977.52 429.80 902.12 539.38 796.94 617.22 945.41 628.18
00052732 00000077 641.35 162.80 416.28 591.18 798.11 416.02 977.36 429.01 900.06 537.13 796.59 612.87 946.46 624.09
00052733 00000078 641.10 161.69 416.31 589.31 796.53 414.52 975.02 426.97 898.72 534.86 796.67 611.31 945.78 621.94
00052734 00000079 640.95 156.90 417.03 595.55 797.69 411.37 973.58 425.49 898.20 532.01 797.74 610.26 943.60 621.92
00052735 00000080 641.17 157.84 417.99 595.93 798.63 408.52 973.14 423.59 897.55 530.60 796.28 608.88 941.24 621.44
00052736 00000081 642.05 157.19 416.60 597.81 798.89 409.31 971.38 424.76 897.86 529.56 797.07 608.80 941.08 621.60
00052737 00000082 642.56 159.12 416.10 597.19 800.08 411.34 973.19 425.97 899.77 532.71 798.61 612.06 941.69 624.10
00052738 00000083 643.39 159.89 416.06 596.04 800.66 411.75 974.59 426.09 900.77 533.63 799.17 612.65 942.83 624.45
00052739 00000084 644.33 159.26 414.16 593.52 799.55 410.53 973.44 424.65 900.17 531.18 799.37 610.47 944.02 622.12
00052740 00000085 644.86 160.41 413.42 588.36 798.23 407.95 974.05 421.90 899.86 526.91 799.02 607.44 945.39 619.09
00052741 00000086 643.54 160.16 413.65 584.65 796.33 406.50 974.15 420.24 899.49 524.53 798.54 605.08 946.43 616.58
00052742 00000087 644.31 159.76 412.77 582.20 795.05 406.14 973.61 419.45 898.95 523.10 798.44 603.42 947.47 614.55
00052743 00000088 644.38 161.02 412.39 581.53 795.91 405.67 973.82 418.44 899.88 522.80 799.13 603.02 947.87 613.74
00052744 00000089 644.46 159.67 411.30 583.44 796.57 405.63 974.42 417.77 901.93 522.55 799.99 603.51 948.30 613.68
00052745 00000090 645.11 160.24 411.21 584.08 798.57 404.46 975.65 417.69 903.59 522.91 799.95 602.65 947.96 613.89
00052746 00000091 645.90 158.36 412.33 584.89 800.77 404.57 976.74 417.71 904.70 524.68 801.91 602.49 948.43 613.56
00052747 00000092 645.33 157.44 414.21 587.47 802.48 403.34 978.22 416.38 907.14 524.77 802.77 602.52 949.33 613.48
00052748 00000093 645.53 155.65 414.30 588.89 802.29 402.94 978.18 416.63 906.97 524.33 802.21 601.53 949.96 612.99
00052749 00000094 644.84 155.76 414.92 589.03 801.43 402.79 977.43 416.75 905.29 524.26 800.48 601.20 948.94 612.99
00052750 00000095 645.50 157.42 413.68 586.45 799.57 404.02 975.90 418.25 902.70 523.47 799.33 601.48 948.39 613.58
00052751 00000096 644.71 158.13 413.45 586.42 796.83 405.11 973.84 419.86 899.56 522.77 797.19 602.12 946.77 614.65
00052752 00000097 645.01 158.81 412.98 585.83 796.20 406.57 973.81 421.16 898.84 523.93 797.35 603.52 946.88 615.87
00052753 00000098 643.99 158.60 414.43 586.08 795.68 406.46 973.23 421.37 897.63 524.34 795.67 602.64 945.96 615.33
00052754 00000099 641.61 158.84 417.22 587.39 794.45 406.71 971.28 422.76 894.93 524.27 791.98 600.93 943.04 614.70
00052755 00000100 637.60 161.35 421.63 585.80 791.22 405.28 966.81 422.32 888.76 522.82 787.02 600.56 935.39 615.16
00052756 00000101 635.68 158.32 425.59 589.27 790.30 404.11 966.34 423.58 886.77 523.44 783.45 599.81 932.10 616.44
00052757 00000102 638.44 156.96 424.32 589.68 789.60 403.95 966.06 423.72 885.52 521.94 784.07 600.41 932.38 617.13
00052758 00000103 641.50 156.66 422.32 588.28 791.32 403.03 967.30 422.99 885.91 522.25 786.02 599.97 933.41 616.76
00052759 00000104 642.95 158.76 421.76 584.39 792.56 402.18 969.79 422.33 888.18 521.97 786.67 597.90 936.28 614.96
00052760 00000105 644.70 155.58 421.71 588.02 796.11 400.40 973.32 422.00 894.13 520.89 788.22 595.08 940.65 613.45
00052761 00000106 647.35 153.31 421.16 589.25 800.80 399.98 977.17 421.65 898.88 522.92 791.90 594.81 943.35 613.11
00052762 00000107 648.65 153.48 420.29 591.02 803.28 399.46 978.24 421.65 900.37 523.70 793.40 595.27 943.34 614.04
00052763 00000108 646.37 153.00 422.36 593.76 802.95 400.92 977.53 422.77 899.72 525.27 791.98 596.23 942.60 614.70
00052764 00000109 643.74 156.10 422.82 593.50 801.87 402.44 975.28 423.21 898.10 526.53 791.20 597.71 940.50 615.34
00052765 00000110 643.33 158.19 421.44 587.54 798.18 402.33 972.70 422.55 894.50 524.07 791.47 597.96 939.54 615.15
00052766 00000111 644.73 157.18 419.94 581.87 795.76 402.39 972.83 421.75 894.17 524.78 791.53 596.90 942.37 613.25
00052767 00000112 645.36 157.29 419.04 581.59 796.19 402.02 972.57 421.19 894.00 523.55 793.16 597.27 942.21 613.35
00052768 00000113 645.04 157.82 418.89 583.92 797.34 402.32 972.22 421.18 894.58 523.98 794.21 598.92 940.43 614.72
00052769 00000114 645.98 158.11 417.51 583.19 796.66 403.41 972.46 421.16 894.80 524.43 796.26 601.91 940.84 616.75
00052770 00000115 647.55 158.61 416.17 583.03 796.62 405.36 973.04 421.40 895.62 526.21 798.56 605.36 941.94 618.70
00052771 00000116 647.33 158.71 417.32 585.25 797.08 406.94 974.72 422.72 896.71 529.72 798.95 608.13 943.73 621.27
00052772 00000117 646.00 158.76 418.88 589.77 798.29 407.78 975.98 423.63 898.47 531.04 800.05 610.56 944.28 623.55
00052773 00000118 645.72 158.97 419.25 593.21 799.87 408.86 976.10 424.86 898.84 533.29 800.58 612.57 943.35 625.67
00052774 00000119 646.83 159.30 418.09 590.45 799.43 410.09 976.72 426.35 898.06 535.24 799.39 612.19 944.12 625.63
CROP_BBOX: 406 0 1279 901
