Video ID: 	u8-OSmzeqYI
H: 	1080
W: 	1920
FPS: 	23.976023976023978

FRAME INDEX X0 Y0 W H [Landmarks (5 Points)]

00002159 00000000 530.97 131.07 367.62 530.13 632.16 354.60 801.85 360.45 717.01 457.42 650.89 535.26 791.79 541.57
00002160 00000001 535.23 133.11 363.93 534.28 636.10 359.20 804.17 367.08 719.19 460.61 651.81 536.16 795.47 543.77
00002161 DELETE   538.08 135.44 362.88 537.21 640.96 365.43 808.85 373.07 724.02 462.16 653.96 537.67 800.31 544.99
00002162 DELETE   544.73 139.87 356.91 538.50 644.41 366.34 810.95 373.67 725.36 460.60 656.08 542.21 800.00 549.45
00002163 DELETE   546.78 138.25 356.06 553.87 644.82 362.88 811.56 367.22 724.20 458.43 652.26 547.30 799.48 552.05
00002164 00000005 547.38 139.35 357.61 556.08 645.30 361.36 812.73 366.82 725.48 459.29 651.01 549.70 797.94 555.61
00002165 00000006 542.49 135.01 366.04 549.95 645.83 360.12 813.87 370.10 727.91 461.22 655.73 543.65 799.53 553.22
00002166 00000007 540.31 132.73 368.08 537.76 642.60 360.99 814.53 372.44 725.65 466.40 657.39 543.79 797.46 554.56
00002167 00000008 538.40 131.44 368.74 533.33 640.49 360.26 813.95 371.97 723.85 466.56 656.40 543.20 796.13 554.14
00002168 00000009 535.92 134.91 369.54 531.15 639.58 360.32 812.38 371.35 722.53 465.93 656.52 544.55 794.16 555.02
00002169 00000010 534.99 135.05 369.97 533.02 638.95 360.26 812.38 371.92 722.34 466.53 654.40 544.33 793.94 555.32
00002170 00000011 532.98 135.27 369.70 534.89 637.89 359.89 811.15 371.11 722.45 466.27 654.31 545.33 793.31 555.89
00002171 00000012 531.55 136.40 369.07 534.17 636.95 361.20 807.65 369.10 722.98 467.05 656.92 549.55 789.33 557.45
00002172 00000013 528.12 137.34 369.27 527.28 635.28 362.16 804.09 368.24 721.96 467.75 659.44 552.22 783.51 558.76
00002173 00000014 527.53 136.30 370.06 528.89 634.52 364.03 804.65 369.36 722.84 469.60 660.01 553.92 785.20 559.60
00002174 00000015 526.99 137.22 370.08 528.00 634.18 365.26 803.75 369.60 722.90 471.04 661.08 554.48 785.74 559.23
00002175 00000016 526.76 136.33 370.69 531.17 634.31 366.30 805.57 370.02 724.22 472.52 661.60 556.35 788.30 560.44
00002176 00000017 528.51 138.48 369.42 535.55 636.00 367.56 806.88 370.75 726.75 474.00 664.01 560.69 789.60 564.38
00002177 00000018 529.74 139.97 369.36 535.90 636.67 368.47 807.40 370.88 727.51 474.66 665.23 562.47 790.36 565.56
00002178 00000019 530.92 140.28 369.75 537.47 637.58 369.22 809.44 371.90 728.11 475.77 664.42 563.24 792.12 566.60
00002179 00000020 534.39 140.25 368.11 537.83 640.11 369.56 810.76 373.20 729.07 477.79 664.99 563.00 792.54 567.16
00002180 00000021 536.02 140.75 370.28 537.74 642.31 369.97 813.94 374.58 731.42 478.76 665.76 562.22 795.24 567.15
00002181 00000022 538.19 141.88 370.00 536.63 644.48 369.07 815.63 375.03 732.90 479.57 666.31 560.37 797.16 566.44
00002182 00000023 540.58 143.30 369.70 536.92 647.11 369.20 816.24 375.65 734.27 478.39 666.70 559.75 797.11 566.27
00002183 00000024 543.62 145.00 367.77 538.17 650.23 368.30 815.56 373.67 736.40 476.39 669.09 561.03 794.70 566.83
00002184 00000025 543.53 143.45 368.78 542.01 653.11 366.57 815.96 371.98 738.30 473.46 670.84 560.13 795.23 565.90
00002185 00000026 546.00 143.07 366.99 546.41 655.54 366.02 816.83 371.43 740.56 472.50 671.29 559.59 797.06 565.32
00002186 00000027 548.54 143.50 365.94 546.83 656.85 368.42 818.52 372.74 742.56 473.57 672.39 560.08 800.13 564.80
00002187 00000028 549.87 145.68 364.96 545.37 658.85 369.09 819.46 373.03 744.14 474.27 674.27 560.70 801.38 565.11
00002188 00000029 551.76 146.98 364.11 544.73 660.08 369.41 820.44 373.28 745.55 474.52 675.65 561.04 802.92 565.33
00002189 00000030 548.67 136.98 371.00 550.92 663.65 363.37 824.79 381.11 747.00 467.15 677.66 550.86 801.94 566.74
00002190 00000031 549.20 140.31 370.34 544.71 665.02 362.64 826.06 379.64 748.98 467.98 681.64 552.53 802.34 567.82
00002191 00000032 550.93 139.67 368.94 540.77 666.81 361.84 826.26 377.68 750.93 466.95 686.29 553.22 802.01 567.56
00002192 00000033 552.67 136.63 367.32 544.17 667.76 360.12 825.23 373.83 753.54 463.18 690.41 556.59 799.78 569.30
00002193 00000034 553.59 137.47 365.86 541.38 667.25 357.98 824.49 369.71 753.65 459.71 690.92 557.29 798.16 568.25
00002194 00000035 553.83 136.75 367.11 535.86 668.10 357.46 825.63 368.39 754.11 460.54 692.44 555.67 798.76 565.86
00002195 00000036 551.78 137.87 370.38 533.15 669.37 359.41 826.87 373.03 754.04 462.58 689.29 551.04 800.63 563.41
00002196 00000037 552.97 139.68 370.76 534.79 670.44 361.62 830.07 375.54 756.39 467.60 690.77 553.78 804.13 566.37
00002197 00000038 554.03 140.99 370.62 537.90 670.72 364.08 831.31 378.55 756.89 471.80 689.98 554.84 806.30 567.98
00002198 00000039 554.79 141.46 369.53 541.25 670.35 365.97 831.59 380.97 756.49 474.22 688.16 555.72 806.76 569.42
00002199 00000040 554.39 142.40 368.58 540.71 669.09 366.04 828.95 380.52 755.56 475.78 689.16 556.35 806.45 569.54
00002200 00000041 553.52 142.48 368.53 540.83 667.47 364.94 829.39 379.64 754.22 475.76 687.41 556.79 806.40 570.12
00002201 00000042 552.81 142.23 368.62 541.42 664.93 364.57 828.37 379.38 751.45 475.45 684.30 556.51 805.98 569.89
00002202 00000043 551.06 141.91 369.12 542.23 661.52 364.10 825.90 379.70 747.09 475.42 679.79 554.48 804.66 568.36
00002203 00000044 551.20 147.87 363.18 539.97 654.83 371.34 819.87 372.67 742.62 482.88 675.78 562.89 804.65 564.77
00002204 00000045 546.41 145.28 364.96 539.35 649.59 371.67 815.49 373.12 736.87 479.13 669.50 560.12 800.29 562.47
00002205 00000046 541.63 140.62 367.61 545.88 644.28 369.83 808.52 370.96 729.82 476.70 666.19 560.18 795.31 562.33
00002206 00000047 538.19 139.23 369.58 543.97 640.90 368.27 804.36 370.18 725.03 474.48 663.76 559.17 789.35 562.30
00002207 00000048 536.51 135.65 370.48 544.10 638.85 366.63 804.53 370.78 721.85 473.62 659.99 556.13 787.90 561.10
00002208 00000049 536.07 135.31 370.65 541.38 635.98 365.25 805.25 368.50 718.66 470.66 658.28 553.53 791.71 557.53
00002209 00000050 536.73 133.04 370.41 545.09 636.56 363.11 805.17 367.20 719.27 468.73 657.07 551.40 791.87 556.16
00002210 00000051 539.78 132.23 367.50 549.57 637.19 359.84 805.16 363.42 718.74 464.11 657.75 549.77 794.35 554.11
00002211 00000052 540.56 129.91 365.83 551.60 636.11 356.02 804.99 359.63 715.68 459.27 654.83 547.52 792.27 552.11
00002212 00000053 538.17 125.29 368.59 549.67 636.01 352.75 805.44 356.05 717.62 455.72 657.44 544.45 794.12 548.80
00002213 00000054 536.62 122.88 370.55 542.80 635.12 352.33 804.97 353.15 718.73 455.04 660.70 544.70 793.77 546.95
00002214 00000055 535.72 119.41 372.60 538.99 635.06 350.51 803.88 349.97 719.23 453.91 663.32 543.74 791.72 544.87
00002215 00000056 536.13 118.99 372.57 535.96 635.75 348.83 803.05 350.86 719.45 452.77 661.76 538.36 790.83 541.65
00002216 00000057 536.21 120.22 373.11 530.83 635.46 347.73 804.07 349.85 719.19 451.11 662.00 536.48 792.69 539.75
00002217 00000058 536.29 120.69 372.57 529.24 635.73 347.57 803.95 349.49 719.69 451.04 662.22 535.65 792.75 538.75
00002218 00000059 536.15 121.85 372.67 527.88 635.55 347.28 804.79 349.01 719.66 449.81 661.91 536.37 792.96 539.37
00002219 00000060 535.23 121.43 373.34 527.44 635.82 348.78 805.49 349.79 720.51 451.02 662.12 537.34 793.55 539.80
00002220 00000061 533.64 120.95 372.75 527.91 633.63 349.68 804.70 351.22 719.44 452.10 659.32 536.59 794.43 539.46
00002221 00000062 532.31 120.10 372.11 526.88 633.07 350.44 804.15 352.96 719.52 453.02 658.91 536.40 793.36 540.18
00002222 00000063 530.65 120.84 371.99 529.06 630.67 350.90 804.27 354.11 717.01 452.59 656.00 537.27 794.15 541.46
00002223 00000064 530.64 122.15 371.64 528.92 629.99 352.59 802.49 354.46 716.33 454.60 657.36 539.75 793.25 542.78
00002224 00000065 529.41 124.52 372.70 529.74 629.53 354.38 802.20 355.70 715.44 455.66 656.35 543.24 790.62 545.83
00002225 00000066 529.83 125.64 372.41 533.96 630.70 355.46 801.97 355.35 717.18 457.72 659.14 547.53 790.05 549.00
00002226 00000067 530.34 125.87 373.11 536.25 632.46 356.66 802.75 356.85 718.05 457.37 660.02 546.85 792.37 548.56
00002227 00000068 532.26 127.71 373.27 535.94 634.72 358.28 805.32 358.58 720.34 459.32 661.29 548.29 793.89 550.08
00002228 00000069 533.27 129.79 372.86 533.34 636.41 359.27 807.33 361.11 721.36 460.73 660.83 548.47 793.89 551.53
00002229 00000070 533.78 132.68 373.27 531.96 637.53 361.38 809.58 363.59 723.29 464.54 661.68 550.63 795.63 553.93
00002230 00000071 533.99 134.19 372.54 533.10 638.09 363.93 810.94 366.32 724.54 467.72 662.36 553.21 796.93 556.53
00002231 00000072 533.84 138.34 372.18 532.75 638.71 365.50 812.53 367.43 725.63 469.09 661.75 556.11 796.46 559.13
00002232 00000073 533.54 137.63 372.06 533.72 638.03 365.73 811.96 367.23 725.28 469.72 661.55 556.20 796.70 558.82
00002233 00000074 533.58 137.39 372.16 532.18 637.96 365.55 811.80 367.20 724.78 469.80 661.44 555.64 796.10 558.41
00002234 00000075 534.46 136.13 371.36 531.03 637.79 365.04 811.19 367.23 723.97 468.79 661.24 553.81 796.10 556.95
00002235 00000076 533.03 134.92 371.95 530.93 637.37 363.84 810.19 366.67 724.00 467.77 661.28 551.93 795.79 555.61
00002236 00000077 533.73 134.27 371.31 530.77 636.90 363.14 808.29 366.06 722.32 466.54 660.64 551.17 793.46 554.96
00002237 00000078 534.84 129.00 371.43 535.21 635.35 362.15 810.04 365.12 722.06 468.89 660.81 553.10 795.42 556.76
00002238 DELETE   533.14 127.69 371.34 538.08 633.93 361.59 807.97 364.30 721.48 469.21 660.35 553.35 794.35 556.70
00002239 00000080 531.85 126.92 371.47 533.27 632.69 362.14 805.85 362.62 719.76 468.73 661.37 554.73 792.95 556.24
00002240 00000081 531.58 126.83 371.44 536.32 633.07 362.65 804.88 362.09 720.03 469.38 662.50 557.42 791.19 558.11
00002241 00000082 530.59 128.93 371.62 537.87 633.04 362.69 804.31 362.70 719.59 468.76 661.80 557.55 789.72 558.88
00002242 00000083 531.39 130.27 369.93 539.72 633.39 364.06 804.61 363.54 719.69 470.26 661.77 558.68 790.80 559.64
00002243 00000084 531.10 134.51 369.96 538.84 634.44 364.17 805.83 366.00 721.05 470.19 659.91 557.60 790.70 560.51
00002244 00000085 530.28 136.44 369.85 538.07 634.40 364.99 805.76 366.86 721.41 471.32 660.00 558.82 790.25 561.81
00002245 00000086 529.42 138.40 370.18 538.22 634.52 365.63 806.41 367.16 722.40 472.62 660.49 560.43 790.95 563.05
00002246 00000087 529.43 142.31 369.30 536.29 636.24 370.04 805.90 372.25 724.01 474.90 660.79 561.30 790.88 564.32
00002247 00000088 529.52 145.40 368.10 532.13 638.35 375.26 807.21 378.85 725.68 475.72 660.40 560.42 791.65 564.41
00002248 00000089 528.86 141.01 369.29 531.88 636.86 372.22 807.46 375.33 724.88 475.54 660.95 559.10 792.48 562.62
00002249 00000090 529.08 138.03 370.04 532.22 636.33 368.30 807.38 370.38 724.49 472.91 661.75 557.43 792.73 560.16
00002250 00000091 528.76 136.56 369.84 530.28 635.05 366.59 806.23 368.63 723.11 471.91 661.43 556.28 791.63 559.04
00002251 00000092 528.38 135.74 370.42 529.72 634.21 365.05 806.02 367.64 722.23 470.29 660.28 554.48 791.54 557.80
00002252 00000093 528.30 135.15 370.38 527.97 633.64 364.32 805.86 367.40 721.79 469.51 659.18 552.71 791.56 556.48
00002253 00000094 528.99 135.30 370.14 526.82 634.04 363.99 806.34 367.36 721.53 469.65 658.90 552.00 791.54 556.01
00002254 00000095 529.90 134.68 370.40 528.01 634.33 364.29 806.20 367.27 721.34 469.98 659.93 552.66 791.93 556.32
00002255 00000096 530.35 133.77 370.76 529.13 634.78 364.98 806.18 366.90 721.72 470.64 660.78 554.04 791.38 556.86
00002256 00000097 530.57 135.33 371.81 533.19 636.41 365.86 806.20 367.63 723.45 471.76 662.13 557.45 789.49 560.35
00002257 00000098 530.46 139.27 370.01 530.55 636.95 369.04 807.61 371.72 724.61 474.43 662.31 559.09 790.77 562.52
00002258 DELETE   530.58 147.29 367.01 529.70 638.85 382.40 806.00 387.02 724.90 483.01 660.75 563.46 789.03 568.31
00002259 DELETE   532.67 150.29 362.70 530.10 637.49 388.73 802.10 391.65 721.62 488.85 659.08 566.65 785.95 570.07
00002260 DELETE   531.78 151.19 362.72 528.91 637.36 386.73 802.68 390.76 722.74 490.71 659.94 568.46 784.38 572.81
00002261 00000102 532.57 147.84 364.29 531.97 637.78 383.04 803.55 388.30 723.82 490.93 661.89 567.88 785.29 572.93
00002262 00000103 533.41 142.29 366.78 537.89 638.63 377.75 806.64 382.32 725.90 486.58 663.83 565.86 788.95 570.24
00002263 00000104 537.72 140.40 366.82 536.95 641.37 373.73 810.09 375.76 729.12 480.85 666.06 562.50 793.57 565.07
00002264 00000105 538.65 133.96 369.39 534.82 643.18 368.52 811.73 370.58 730.98 477.20 668.44 557.89 795.89 560.64
00002265 00000106 541.00 129.50 369.69 532.52 644.00 365.40 813.50 368.60 729.86 470.66 667.75 552.39 797.13 556.23
00002266 00000107 541.62 129.97 369.78 528.01 643.91 361.58 813.31 366.14 728.79 467.34 666.75 548.48 795.62 553.56
00002267 00000108 540.96 127.64 369.55 534.09 642.43 360.89 811.60 365.48 725.98 464.04 663.76 548.31 793.93 553.68
00002268 00000109 539.53 128.54 369.03 540.43 641.02 358.54 810.69 364.37 724.47 461.87 660.69 546.72 795.05 553.19
00002269 00000110 539.09 126.09 368.86 541.69 638.40 357.11 808.76 361.27 721.02 459.49 658.42 547.55 792.00 552.88
00002270 00000111 537.82 125.62 369.87 541.49 637.52 354.58 807.47 358.91 720.12 457.10 658.49 545.32 791.88 550.70
00002271 00000112 538.20 124.10 369.91 535.38 637.47 353.99 806.90 356.49 720.47 456.69 661.38 543.93 792.87 547.65
00002272 00000113 539.34 124.38 371.14 531.76 639.88 351.29 806.60 353.80 723.70 454.54 664.57 541.25 791.44 544.97
00002273 00000114 540.41 123.25 371.62 524.54 640.81 350.15 807.97 352.23 724.87 452.25 667.04 539.25 792.27 542.46
00002274 00000115 541.58 120.36 372.55 526.03 641.49 348.75 810.09 351.55 725.27 451.00 666.59 536.86 794.67 540.56
00002275 00000116 542.48 120.25 372.27 526.81 642.40 348.00 810.81 350.74 726.08 449.12 667.28 536.23 795.62 539.87
00002276 00000117 542.44 119.96 371.54 524.00 641.15 347.58 811.09 351.41 724.64 449.16 666.18 535.69 795.21 540.28
CROP_BBOX: 322 0 1129 810
