Video ID: 	WSGW-7gHS6A
H: 	1080
W: 	1920
FPS: 	25.0

FRAME INDEX X0 Y0 W H [Landmarks (5 Points)]

00005538 00000000 501.16 139.46 526.10 788.22 735.60 431.49 957.23 450.70 900.37 590.32 752.87 726.77 936.02 739.90
00005539 00000001 505.00 136.49 527.83 801.28 745.52 430.50 961.27 453.18 907.02 592.16 749.83 725.68 936.87 742.33
00005540 00000002 505.27 139.38 529.03 795.62 742.48 429.63 959.31 452.62 901.18 593.80 741.76 719.07 934.51 736.29
00005541 00000003 503.21 141.95 530.24 785.76 736.43 425.69 951.84 450.60 888.62 589.87 728.19 710.65 922.79 730.00
00005542 00000004 503.34 146.85 526.32 777.00 729.78 420.02 944.98 444.36 876.64 588.78 715.72 706.12 912.91 725.66
00005543 00000005 506.55 142.10 523.42 791.76 732.31 414.07 946.18 436.48 880.97 580.67 715.76 709.26 912.53 727.22
00005544 DELETE   516.60 129.67 522.87 800.32 743.15 409.43 958.05 434.76 890.57 571.15 728.84 707.52 919.53 727.61
00005545 DELETE   532.83 116.50 518.81 801.66 754.99 413.47 971.85 433.04 915.12 564.99 751.05 695.89 944.35 711.41
00005546 00000008 549.79 112.50 509.91 778.88 769.74 410.88 981.86 426.46 928.12 559.75 773.14 687.34 957.72 699.36
00005547 00000009 549.20 118.26 518.60 774.44 774.10 399.65 996.76 418.96 932.28 555.49 782.49 684.75 974.55 698.82
00005548 00000010 554.06 122.98 520.17 770.97 781.98 394.91 998.91 413.44 934.53 552.22 788.39 679.50 974.65 693.34
00005549 00000011 556.93 119.74 519.25 767.51 784.69 390.97 999.60 408.68 934.92 549.71 788.28 673.79 973.58 687.25
00005550 00000012 558.21 118.37 519.62 761.39 785.67 388.33 1001.52 406.20 936.41 544.91 786.06 667.62 974.42 681.48
00005551 00000013 563.22 115.33 522.50 759.81 789.31 385.38 1007.49 403.00 939.33 541.78 787.58 663.46 978.89 677.38
00005552 00000014 573.04 106.91 515.56 768.94 797.02 379.58 1010.86 405.86 952.51 544.50 784.77 661.21 984.92 682.51
00005553 00000015 579.02 106.43 512.02 779.13 800.20 380.68 1013.00 406.33 956.41 544.65 788.35 664.78 989.18 685.44
00005554 00000016 573.61 113.40 513.42 776.74 796.05 384.23 1008.20 401.38 945.71 546.77 783.74 673.06 981.74 686.18
00005555 00000017 568.11 111.76 516.81 779.11 787.43 386.83 1005.71 403.60 936.28 551.39 782.50 680.02 975.42 692.79
00005556 00000018 568.40 106.87 512.99 775.00 784.21 389.54 1001.05 412.07 934.21 551.39 778.22 676.32 968.31 694.03
00005557 00000019 567.64 104.80 513.00 774.56 776.48 390.86 1001.92 411.60 932.00 544.79 786.38 680.96 969.20 696.58
00005558 00000020 571.02 107.58 513.31 782.57 789.21 392.73 1005.42 415.10 943.19 550.72 785.76 679.57 977.73 696.84
00005559 00000021 573.40 118.29 515.98 779.90 798.03 390.93 1013.88 409.75 948.50 553.39 792.81 685.91 982.13 700.26
00005560 00000022 571.77 118.50 517.78 784.85 797.91 391.84 1011.63 409.21 949.11 554.17 790.27 687.75 981.65 701.13
00005561 00000023 563.49 115.33 520.27 781.08 788.85 392.30 1004.52 409.29 937.17 553.78 790.64 689.33 972.02 702.10
00005562 00000024 558.39 115.42 518.62 768.34 778.57 392.86 1003.37 410.48 934.90 548.05 794.93 685.39 978.72 698.28
00005563 00000025 567.47 106.33 513.50 782.76 778.61 394.57 1002.23 411.20 937.04 543.74 796.12 686.52 975.74 698.44
00005564 00000026 562.17 120.55 519.53 788.67 792.01 393.06 1004.40 409.16 945.60 550.74 792.54 696.33 975.20 708.55
00005565 00000027 561.92 121.64 518.07 803.94 792.53 394.68 1001.51 409.50 949.21 557.63 781.00 700.09 974.17 711.62
00005566 00000028 557.66 122.34 517.26 800.81 785.67 399.82 994.74 412.31 939.56 560.86 776.86 701.64 968.59 711.52
00005567 00000029 547.52 122.34 521.57 791.17 774.43 399.80 990.59 416.84 928.09 553.64 784.32 694.33 966.47 707.30
00005568 00000030 543.00 114.04 521.01 788.80 765.88 402.33 988.54 418.83 922.01 558.22 781.31 695.51 964.18 707.09
00005569 00000031 542.87 112.32 520.72 790.31 767.06 403.06 989.71 418.58 924.32 559.90 786.01 697.53 966.65 708.12
00005570 00000032 543.88 116.55 521.64 792.63 772.77 403.09 990.97 417.17 931.97 555.94 794.37 699.85 971.06 709.66
00005571 00000033 545.20 117.89 523.62 795.52 776.04 401.97 990.75 415.46 934.09 552.48 797.14 697.95 972.62 707.70
00005572 00000034 543.73 117.47 523.21 797.96 775.38 400.53 988.46 415.47 932.33 549.04 792.49 695.88 969.65 706.88
00005573 00000035 543.81 117.22 523.29 798.17 774.71 400.55 987.36 416.66 930.58 548.36 787.75 693.88 968.39 705.94
00005574 00000036 544.62 118.18 522.13 790.88 773.12 401.07 988.00 416.11 928.30 551.53 785.19 690.75 968.45 701.72
00005575 00000037 546.25 118.41 521.37 783.43 773.46 401.60 989.36 415.49 929.57 552.92 785.14 686.77 971.16 696.54
00005576 00000038 547.94 117.94 521.11 778.30 774.28 401.75 990.73 414.41 930.65 553.04 785.21 683.24 973.19 691.88
00005577 00000039 547.11 116.08 520.44 775.51 772.41 402.04 988.83 414.14 927.90 553.93 783.26 681.64 971.26 689.76
00005578 00000040 545.82 114.88 519.78 773.88 769.74 402.36 987.28 416.26 922.42 556.54 778.21 680.62 967.47 690.10
00005579 00000041 545.90 117.32 519.49 768.81 767.82 402.85 987.33 417.07 919.71 558.37 776.11 679.81 966.95 689.46
00005580 00000042 547.04 118.33 518.65 766.87 767.68 403.35 987.00 417.11 919.71 558.95 771.86 678.27 966.74 687.81
00005581 00000043 547.98 116.13 517.76 768.47 766.91 404.11 986.79 417.73 918.90 559.29 769.74 677.71 966.57 687.17
00005582 00000044 547.44 115.33 517.32 768.60 766.43 404.00 986.37 418.06 918.21 560.68 766.38 676.68 965.36 686.76
00005583 00000045 547.83 118.14 516.79 764.87 765.68 403.51 986.49 418.18 916.84 561.32 763.03 675.29 964.16 685.96
00005584 00000046 548.19 116.30 517.00 767.11 766.67 404.35 986.31 418.40 918.16 562.10 760.54 673.41 963.97 683.88
00005585 00000047 548.75 116.74 517.61 766.70 766.78 404.05 986.15 418.09 917.64 562.46 759.31 672.32 963.25 682.86
00005586 00000048 548.23 115.79 518.36 769.37 766.83 403.88 986.63 417.60 917.94 562.51 758.51 671.15 964.37 681.42
00005587 00000049 547.53 116.53 518.25 768.54 765.57 402.85 986.36 415.14 917.85 561.73 756.81 669.26 965.17 678.36
00005588 00000050 546.48 115.65 518.99 769.74 764.56 402.22 985.78 413.91 916.83 561.34 756.14 668.44 965.17 676.93
00005589 00000051 545.78 115.73 519.00 770.57 764.25 402.10 985.63 413.71 916.98 561.17 755.75 668.62 965.34 676.99
00005590 00000052 544.85 115.26 518.33 772.76 763.28 400.92 983.66 412.99 915.41 560.23 754.31 669.02 962.86 677.64
00005591 00000053 543.60 113.53 519.49 774.29 761.57 400.77 982.07 412.56 913.40 559.46 753.94 669.61 961.47 677.71
00005592 00000054 544.62 113.99 518.80 775.05 762.84 400.94 982.44 412.20 915.18 559.02 755.17 669.60 962.79 677.38
00005593 00000055 544.32 114.71 519.44 775.66 763.22 401.23 982.73 413.16 915.43 559.20 755.07 669.83 962.83 678.19
00005594 00000056 545.26 115.17 518.17 777.07 765.17 400.64 982.81 412.88 916.45 560.01 755.63 670.24 962.39 678.94
00005595 00000057 545.12 115.56 518.81 777.75 765.99 400.85 983.42 413.43 917.31 559.92 756.46 670.27 962.84 679.27
00005596 00000058 545.08 116.75 518.94 777.63 766.45 401.23 983.35 414.11 917.66 560.57 755.31 669.34 962.74 678.62
00005597 00000059 546.01 118.73 518.02 775.85 766.67 402.30 983.82 414.94 917.38 561.98 754.84 670.04 963.18 679.28
00005598 00000060 544.29 117.85 517.96 777.30 766.60 404.92 979.62 418.29 916.53 562.83 754.04 671.24 958.63 681.12
00005599 00000061 546.97 115.34 514.47 789.61 773.73 408.99 980.17 422.30 919.81 561.40 754.64 674.98 954.90 685.46
00005600 00000062 545.27 108.36 516.97 791.37 773.00 402.14 980.38 423.36 919.00 556.50 744.89 667.63 945.73 684.72
00005601 00000063 545.83 108.48 523.75 782.15 770.55 394.47 982.45 426.90 908.39 549.18 737.14 657.99 938.44 684.34
00005602 00000064 549.58 98.48 531.11 781.98 775.46 381.63 989.11 428.15 906.86 543.44 732.34 645.83 934.62 685.23
00005603 00000065 552.75 105.76 532.83 761.84 780.10 376.09 994.01 425.24 910.27 542.77 730.85 637.07 937.37 678.59
00005604 00000066 560.10 109.30 532.33 757.70 792.31 369.89 1001.87 427.05 919.97 539.38 738.82 635.15 939.74 683.14
00005605 00000067 572.79 105.29 526.74 766.51 806.64 368.06 1011.29 430.00 930.38 540.73 757.36 640.73 947.84 691.75
00005606 00000068 592.05 93.35 525.68 779.90 816.26 377.94 1029.50 427.38 950.64 537.54 786.37 649.57 972.82 689.64
00005607 DELETE   602.50 99.81 532.20 771.96 834.47 380.31 1046.38 431.66 971.21 537.67 803.12 649.37 988.04 691.62
00005608 DELETE   607.33 103.53 533.86 767.80 858.36 371.89 1065.39 428.20 996.26 546.02 816.32 648.33 1002.98 694.73
00005609 DELETE   616.95 104.50 525.81 766.23 879.63 371.24 1074.64 428.06 1019.46 547.32 830.58 644.84 1014.45 691.78
00005610 00000072 625.49 100.36 527.61 772.42 892.74 365.30 1085.87 424.94 1033.96 541.41 841.01 639.70 1022.64 688.85
00005611 00000073 631.32 101.82 526.39 769.29 898.56 363.25 1092.49 422.19 1041.97 535.61 847.19 635.17 1032.04 683.82
00005612 00000074 633.99 97.77 528.31 771.81 899.10 359.82 1094.51 417.25 1042.91 529.80 848.29 633.19 1034.39 680.64
00005613 00000075 634.80 99.31 529.13 771.03 899.70 357.80 1093.75 416.77 1041.74 527.93 849.45 632.27 1033.92 680.83
00005614 00000076 635.33 96.60 529.88 775.18 897.84 356.72 1094.43 414.21 1042.17 526.04 847.07 633.33 1035.08 680.77
00005615 00000077 634.91 94.33 530.80 775.94 897.52 357.27 1095.26 414.96 1042.71 527.08 845.22 632.55 1035.91 680.21
00005616 00000078 636.52 92.24 531.72 774.98 899.05 357.20 1097.13 413.63 1044.04 527.82 846.65 631.95 1037.93 678.63
00005617 00000079 638.98 92.32 531.09 771.36 901.57 356.53 1099.87 412.21 1047.48 527.96 852.02 631.41 1041.76 677.44
00005618 00000080 639.76 91.84 531.45 771.07 903.87 356.79 1101.95 409.87 1050.87 529.50 857.13 632.62 1045.82 676.52
00005619 00000081 641.26 92.30 531.71 773.57 904.07 357.96 1102.24 410.39 1051.00 527.11 861.43 634.59 1047.96 677.69
00005620 00000082 642.89 93.82 529.16 779.36 903.38 359.39 1101.95 410.40 1051.56 524.41 865.31 640.68 1048.88 682.27
00005621 00000083 637.16 95.76 528.82 788.80 891.78 370.06 1094.33 413.60 1046.04 523.68 863.39 651.94 1048.18 687.13
00005622 00000084 637.76 99.49 521.56 792.27 893.47 375.92 1086.32 423.92 1037.95 531.24 861.72 654.31 1033.09 693.62
00005623 DELETE   625.67 111.57 525.87 770.26 874.20 379.11 1074.82 419.83 1013.20 527.60 857.07 662.34 1022.07 694.84
00005624 DELETE   615.82 100.00 522.41 780.84 851.10 379.19 1059.54 414.11 990.31 536.35 846.98 666.39 1013.12 693.99
00005625 DELETE   615.79 93.83 526.24 781.71 827.93 391.75 1047.72 419.21 968.04 545.12 823.82 669.45 1002.44 692.39
00005626 00000088 610.40 100.59 531.83 778.13 823.87 388.80 1042.17 422.87 956.11 547.93 811.80 665.48 991.85 693.72
00005627 00000089 603.79 96.83 531.65 788.61 813.79 383.75 1034.54 418.51 948.95 541.91 801.64 665.62 986.47 694.01
00005628 00000090 592.69 103.55 534.20 785.63 811.68 386.38 1029.08 418.91 948.78 543.98 797.96 663.52 981.26 690.80
00005629 00000091 591.38 101.02 533.42 784.34 808.90 382.85 1027.38 414.64 946.83 539.24 793.78 657.02 980.44 683.68
00005630 00000092 589.49 101.82 531.98 781.49 806.04 382.17 1026.37 412.69 945.80 539.55 792.18 656.59 981.40 682.22
00005631 00000093 588.28 101.55 529.56 773.34 800.61 382.90 1025.02 412.76 942.90 539.69 790.41 658.45 980.62 683.14
00005632 00000094 590.78 94.55 523.33 782.79 804.75 375.07 1023.63 417.27 938.44 545.77 779.96 655.90 977.34 689.82
00005633 00000095 594.36 89.00 517.52 798.84 797.80 377.09 1019.76 408.76 937.47 537.19 784.43 660.81 979.85 685.94
00005634 00000096 588.86 95.99 520.87 780.19 800.33 371.82 1019.47 414.17 934.65 541.11 774.07 652.01 974.03 686.40
00005635 00000097 586.90 95.75 519.76 780.80 800.79 370.14 1016.96 411.52 935.79 537.02 773.69 651.47 971.75 685.14
00005636 00000098 583.44 100.40 521.21 773.83 793.41 381.98 1013.73 407.67 936.22 536.65 783.80 655.51 973.08 677.24
00005637 00000099 582.74 102.65 521.72 774.08 792.90 382.71 1012.01 408.25 934.67 538.11 782.38 655.80 972.24 677.47
00005638 00000100 583.22 102.75 521.33 773.97 792.55 382.44 1012.60 407.55 934.25 538.61 782.58 655.52 972.41 676.85
00005639 00000101 581.42 100.20 521.17 774.85 789.92 381.67 1011.15 406.02 932.04 537.97 781.96 654.87 972.80 675.42
00005640 00000102 580.46 102.05 521.74 769.99 790.07 383.41 1009.73 407.92 930.42 540.01 781.85 655.22 971.21 675.87
00005641 00000103 584.35 97.01 515.36 776.48 796.30 375.47 1010.37 410.81 930.90 544.88 783.44 656.54 972.22 684.81
00005642 00000104 582.08 94.92 514.53 774.31 797.58 374.91 1007.23 410.22 928.95 547.76 792.25 657.29 967.95 685.48
00005643 00000105 579.21 94.42 516.23 771.84 796.49 375.05 1006.97 409.86 929.21 548.84 793.32 657.65 967.07 685.58
00005644 00000106 574.09 93.59 518.69 770.35 793.92 373.04 1004.91 409.02 927.80 547.57 790.29 657.38 962.49 686.38
00005645 00000107 570.66 94.38 519.88 769.70 787.93 372.31 1001.87 407.64 923.53 545.86 782.84 657.53 959.16 686.19
00005646 00000108 570.50 95.61 520.69 769.89 786.42 372.89 1002.43 408.37 922.72 544.67 778.37 656.74 959.75 685.47
00005647 00000109 569.13 95.09 522.08 772.69 786.02 373.92 1002.40 409.08 923.09 544.77 774.32 657.62 959.37 686.23
00005648 00000110 563.96 104.81 523.75 768.67 783.93 377.39 1000.51 401.16 922.63 536.98 783.52 665.65 963.85 684.04
00005649 00000111 563.07 102.56 524.51 774.27 783.16 377.24 999.30 399.65 922.42 535.90 780.88 665.11 963.45 682.51
00005650 00000112 562.21 100.58 523.62 780.66 783.29 377.83 997.60 400.41 923.15 538.14 773.59 663.62 963.00 681.43
00005651 00000113 561.97 98.70 524.00 782.30 782.29 378.06 997.48 400.67 922.13 537.97 772.61 662.17 963.70 679.91
00005652 00000114 561.23 97.94 523.94 784.04 781.50 378.44 996.52 399.97 921.51 537.60 772.15 663.02 962.76 679.97
00005653 00000115 561.39 101.07 522.78 780.25 781.38 378.38 995.44 399.61 920.85 538.36 772.17 662.73 962.19 679.49
00005654 00000116 560.64 101.35 523.86 779.03 780.99 378.33 995.26 400.01 920.41 536.53 772.23 660.88 962.20 677.95
00005655 00000117 560.94 96.58 522.56 782.40 779.69 378.15 994.99 398.36 920.58 535.08 771.78 660.17 963.28 675.99
00005656 00000118 560.53 97.08 523.24 780.25 779.25 377.32 994.98 397.50 920.84 532.97 772.20 659.29 963.61 675.11
00005657 00000119 562.60 91.35 522.30 786.32 781.14 373.38 998.43 401.17 926.37 536.86 767.27 658.96 963.65 681.56
00005658 00000120 559.56 98.01 526.65 785.14 781.73 377.86 997.55 400.11 925.88 528.53 777.27 659.10 965.90 675.93
00005659 00000121 558.78 95.60 523.99 784.55 780.99 380.09 995.48 398.46 924.83 536.22 774.02 661.73 966.73 675.92
00005660 00000122 559.71 98.33 522.58 783.87 780.27 381.28 995.65 397.09 925.69 537.79 775.48 664.47 968.19 676.47
00005661 00000123 561.51 103.32 524.45 785.88 781.80 388.16 997.43 401.18 933.56 539.86 783.74 669.13 969.87 680.31
00005662 00000124 558.99 106.49 525.59 788.52 781.88 388.85 996.92 402.49 934.00 540.80 781.18 671.37 969.49 683.11
00005663 00000125 557.53 104.90 525.24 793.64 780.95 389.54 995.53 405.16 931.68 543.35 777.66 673.86 968.15 687.37
00005664 00000126 556.60 104.94 524.32 796.21 776.11 394.73 990.74 408.43 925.11 548.19 774.70 677.15 966.33 688.94
00005665 00000127 553.80 99.80 526.51 804.16 771.07 393.46 985.38 405.82 916.69 553.19 761.43 680.23 961.86 690.23
00005666 00000128 552.78 102.56 525.39 801.05 766.69 396.24 982.79 407.46 913.64 555.43 760.05 682.42 962.24 691.42
00005667 00000129 552.56 111.66 521.53 790.50 762.03 396.52 979.73 407.16 908.54 554.68 757.78 682.95 960.07 691.58
00005668 00000130 552.74 122.23 517.45 787.52 762.06 400.53 981.03 416.07 905.86 545.08 760.11 681.41 950.83 693.19
00005669 00000131 550.70 115.31 517.83 791.43 754.55 397.52 970.71 405.67 900.13 550.33 748.24 682.95 955.03 690.11
CROP_BBOX: 69 0 1399 1080
