Video ID: 	FIljDDQJsTw
H: 	1080
W: 	1920
FPS: 	30.0

FRAME INDEX X0 Y0 W H [Landmarks (5 Points)]

00085667 00000000 955.21 186.31 427.61 612.10 1042.93 451.67 1238.95 419.49 1142.56 534.32 1097.67 669.99 1247.21 644.40
00085668 DELETE   954.96 185.67 427.85 612.44 1042.76 451.28 1239.13 419.39 1142.54 534.05 1097.14 669.81 1246.94 644.46
00085669 DELETE   952.40 189.26 429.39 620.52 1040.72 458.46 1236.91 426.97 1140.40 541.83 1093.95 676.68 1244.36 651.79
00085670 DELETE   949.31 197.93 429.64 621.00 1040.27 464.81 1233.32 435.31 1138.45 550.46 1095.50 683.51 1240.01 660.53
00085671 00000004 944.87 207.89 431.13 617.04 1032.62 475.19 1228.76 445.29 1130.93 562.91 1087.94 692.80 1231.73 669.60
00085672 00000005 943.59 207.66 431.44 619.52 1029.26 478.90 1227.29 448.83 1128.78 568.12 1085.20 697.38 1230.49 673.86
00085673 00000006 943.73 207.74 431.51 619.33 1029.36 478.93 1227.40 449.07 1128.64 568.24 1085.13 697.31 1230.38 673.97
00085674 00000007 942.07 209.45 431.41 615.15 1025.89 480.88 1224.96 449.61 1125.71 569.18 1084.22 699.58 1229.29 674.99
00085675 00000008 940.15 210.52 431.15 613.54 1022.99 480.46 1222.36 449.15 1122.63 568.99 1081.25 699.07 1227.87 674.48
00085676 00000009 936.31 215.43 427.38 606.40 1018.51 483.32 1214.34 449.96 1117.57 575.13 1078.33 696.14 1233.70 668.58
00085677 00000010 932.51 216.10 430.31 605.58 1017.03 480.68 1213.31 447.90 1117.31 572.61 1077.02 693.09 1233.51 665.76
00085678 00000011 932.52 216.47 430.26 605.62 1016.83 480.75 1213.45 447.75 1117.32 572.76 1076.92 693.28 1233.92 665.76
00085679 00000012 932.41 215.21 429.02 604.88 1015.63 479.22 1210.31 447.29 1113.75 571.90 1073.47 690.63 1230.52 663.91
00085680 00000013 930.11 213.58 434.25 604.93 1012.00 478.51 1208.51 445.26 1110.80 571.76 1070.91 688.53 1232.42 660.32
00085681 00000014 928.08 209.58 433.08 606.58 1007.64 480.06 1200.74 443.55 1104.57 571.46 1066.45 685.16 1230.82 654.10
00085682 00000015 926.34 208.72 434.18 605.54 1005.45 480.35 1197.91 442.39 1102.12 570.79 1064.50 684.44 1229.63 651.94
00085683 00000016 926.62 208.60 433.85 605.48 1005.53 480.36 1197.87 442.46 1102.14 570.71 1064.34 684.39 1229.28 651.97
00085684 00000017 925.51 207.17 433.83 606.55 1004.38 480.39 1196.53 441.91 1100.81 569.49 1063.26 683.11 1228.76 650.27
00085685 00000018 925.46 205.29 434.03 608.13 1003.89 481.36 1194.70 441.95 1099.01 568.67 1062.40 682.00 1227.67 648.57
00085686 00000019 924.47 206.21 434.78 605.80 1002.60 479.24 1193.63 439.92 1097.73 567.94 1061.45 679.95 1226.60 646.62
00085687 00000020 924.92 206.04 434.33 605.28 1002.13 479.93 1193.38 439.80 1097.40 567.59 1061.51 680.28 1227.36 646.31
00085688 00000021 925.02 206.16 434.29 605.20 1002.15 480.07 1193.50 440.03 1097.29 567.77 1061.29 680.29 1227.36 646.37
00085689 00000022 925.08 205.90 434.10 605.41 1002.13 479.83 1193.38 439.76 1097.15 567.83 1061.18 680.03 1227.61 646.07
00085690 00000023 925.22 205.63 434.13 605.35 1002.01 480.08 1192.94 439.90 1096.46 567.65 1061.16 679.78 1227.42 645.70
00085691 00000024 924.99 205.28 433.70 607.92 1001.71 479.63 1192.59 439.89 1095.52 566.90 1060.11 680.01 1226.67 646.37
00085692 00000025 924.67 204.67 433.30 608.06 1001.25 478.95 1192.02 439.00 1095.09 565.92 1060.14 680.10 1226.54 646.26
00085693 00000026 924.62 204.71 433.51 608.03 1001.29 478.82 1192.09 438.84 1095.11 565.82 1060.14 680.05 1226.47 646.19
00085694 00000027 924.95 203.61 434.01 609.19 1001.11 478.48 1192.84 438.57 1094.45 565.37 1059.48 680.89 1225.80 647.06
00085695 00000028 924.83 203.60 432.35 610.20 1001.29 478.63 1192.52 438.72 1094.44 565.48 1060.56 682.49 1224.97 648.82
00085696 00000029 926.03 201.01 430.18 611.26 1001.44 477.66 1191.95 437.73 1093.76 564.03 1060.74 683.16 1221.95 650.10
00085697 00000030 926.18 200.48 429.17 610.88 1001.49 476.37 1191.54 437.08 1093.70 562.02 1060.25 681.57 1221.44 648.98
00085698 00000031 926.20 200.40 429.30 611.07 1001.50 476.27 1191.60 437.03 1093.64 561.98 1060.36 681.60 1221.45 649.03
00085699 00000032 926.01 200.40 429.83 610.85 1001.30 475.27 1191.45 436.71 1093.94 561.92 1060.94 681.46 1220.36 649.49
00085700 00000033 926.12 197.61 429.74 613.87 1000.43 474.94 1190.74 435.54 1091.81 560.43 1059.18 681.30 1219.52 648.75
00085701 00000034 924.56 186.71 436.21 622.99 1005.50 466.59 1198.86 431.81 1093.35 550.17 1054.09 674.54 1209.36 645.70
00085702 00000035 923.54 194.00 430.00 615.05 997.39 470.95 1188.69 432.41 1088.24 554.49 1055.45 679.31 1213.38 647.75
00085703 00000036 923.55 191.27 432.73 617.63 998.53 465.57 1189.58 429.22 1082.87 553.29 1054.07 674.62 1207.35 644.35
00085704 00000037 923.38 191.50 431.68 617.31 998.34 465.40 1187.99 429.23 1082.12 553.09 1053.46 673.80 1206.07 643.75
00085705 00000038 922.32 194.42 430.52 613.04 995.87 470.40 1186.67 432.48 1086.85 554.21 1053.78 678.66 1211.14 647.59
00085706 00000039 922.40 190.64 433.18 615.79 997.44 464.32 1186.76 429.07 1080.86 552.68 1052.67 672.78 1204.72 643.41
00085707 00000040 921.88 191.82 433.88 614.74 996.72 464.89 1186.78 429.36 1080.45 552.94 1051.66 672.89 1204.88 643.22
00085708 00000041 921.86 192.13 433.76 614.28 996.61 464.94 1186.46 429.49 1080.45 553.05 1051.64 672.79 1204.78 643.16
00085709 00000042 922.42 190.78 433.02 614.97 996.77 464.63 1186.55 429.58 1079.95 553.18 1051.23 672.63 1204.44 643.23
00085710 00000043 921.40 191.84 433.89 614.46 996.23 464.60 1185.95 429.13 1079.55 553.01 1051.25 672.31 1204.79 642.54
00085711 00000044 920.76 191.05 433.39 613.75 995.50 465.45 1185.42 429.33 1079.22 552.34 1051.10 672.33 1204.77 641.90
00085712 00000045 921.00 189.71 432.71 614.71 995.87 465.00 1184.87 428.92 1078.95 552.09 1050.89 671.53 1204.25 641.22
00085713 00000046 920.26 189.95 433.31 614.64 995.73 464.84 1184.81 428.78 1079.17 552.05 1050.85 671.59 1204.32 641.32
00085714 00000047 919.78 189.05 433.97 614.78 995.14 464.85 1184.50 428.35 1078.60 551.63 1050.90 671.57 1204.11 640.89
00085715 00000048 918.68 189.76 434.91 614.05 995.14 464.30 1183.69 428.30 1078.34 550.87 1050.60 671.21 1202.66 641.02
00085716 00000049 918.96 188.66 434.90 618.61 995.38 463.92 1183.80 427.49 1079.04 550.87 1050.61 672.05 1203.18 641.58
00085717 00000050 919.33 189.06 434.60 619.26 995.46 463.85 1184.51 427.18 1079.68 550.29 1050.97 672.39 1204.06 641.71
00085718 00000051 919.28 189.09 434.56 619.32 995.50 463.84 1184.43 427.14 1079.67 550.25 1050.92 672.33 1204.00 641.62
00085719 00000052 922.23 187.64 432.04 619.85 998.91 466.74 1187.89 430.53 1081.98 550.41 1054.15 673.12 1206.21 642.76
00085720 00000053 925.61 185.35 433.14 622.84 1009.66 468.66 1202.56 431.92 1095.94 541.17 1057.52 673.40 1210.80 643.14
00085721 00000054 928.74 181.77 432.10 622.73 1013.29 462.01 1209.49 426.31 1102.77 533.49 1060.75 668.81 1216.01 639.46
00085722 00000055 930.16 180.49 432.84 625.51 1013.82 456.85 1211.12 420.95 1105.32 530.47 1060.60 666.05 1220.71 636.38
00085723 00000056 930.35 180.86 431.80 625.22 1014.17 456.98 1211.31 421.42 1105.81 531.01 1061.00 666.22 1220.35 636.87
00085724 00000057 933.66 175.46 433.23 630.89 1016.53 450.39 1212.06 413.88 1107.27 524.67 1065.28 664.58 1223.09 634.68
00085725 DELETE   933.46 170.56 437.94 634.55 1018.69 445.87 1217.20 409.50 1111.34 517.00 1068.90 662.83 1225.26 633.27
00085726 00000059 943.78 161.46 432.68 619.58 1024.31 432.31 1221.49 397.87 1119.02 503.91 1074.24 643.52 1226.35 615.35
00085727 00000060 947.81 160.14 428.40 612.53 1026.42 426.58 1225.05 390.01 1123.99 496.90 1080.36 637.86 1232.64 607.72
00085728 00000061 947.38 160.21 428.35 611.89 1026.55 426.25 1225.42 389.95 1124.43 497.11 1080.55 637.69 1232.91 607.77
00085729 00000062 946.74 157.55 429.24 613.40 1026.77 421.09 1229.84 382.33 1126.55 488.61 1080.99 634.91 1236.88 602.73
00085730 00000063 948.14 157.08 427.98 608.24 1030.12 417.20 1232.83 377.17 1128.83 479.99 1085.37 630.36 1241.15 596.75
00085731 00000064 950.06 156.96 427.08 599.81 1032.15 414.73 1232.43 374.19 1130.89 475.12 1087.79 625.61 1242.65 591.42
00085732 00000065 951.18 156.67 426.44 600.93 1032.90 413.65 1234.09 374.17 1131.90 474.09 1086.29 624.81 1243.90 591.43
00085733 00000066 951.09 156.92 426.52 600.67 1032.88 413.63 1233.80 374.22 1131.82 474.20 1086.28 624.73 1243.54 591.44
00085734 00000067 951.41 156.36 425.54 603.30 1034.07 413.70 1234.35 374.87 1132.82 474.06 1087.60 625.52 1245.00 592.66
00085735 00000068 952.76 156.77 425.46 605.21 1034.72 414.75 1236.32 375.02 1131.83 474.79 1088.43 627.06 1248.39 593.45
00085736 00000069 957.15 157.45 423.31 609.34 1037.49 417.63 1239.71 378.77 1133.39 481.38 1089.43 628.21 1254.99 595.13
00085737 00000070 957.82 157.86 425.32 615.79 1037.99 419.65 1241.48 382.18 1134.39 488.49 1087.92 631.24 1257.74 599.54
00085738 00000071 957.38 157.20 425.76 616.51 1037.58 419.66 1241.54 381.89 1134.45 488.45 1087.70 631.59 1257.61 599.66
00085739 00000072 957.66 160.58 425.98 615.49 1037.56 423.25 1244.25 387.29 1136.43 496.52 1087.09 633.79 1261.24 603.39
00085740 00000073 959.26 166.28 423.74 613.56 1042.42 426.54 1245.49 393.18 1141.33 502.37 1089.76 636.32 1260.08 608.75
00085741 00000074 957.12 176.31 429.28 609.09 1043.64 432.74 1243.79 403.10 1142.42 515.18 1093.25 645.67 1256.24 621.25
00085742 00000075 957.65 179.94 431.47 608.23 1044.44 438.64 1244.37 408.70 1142.25 520.21 1093.19 650.19 1256.88 625.54
00085743 00000076 958.06 180.08 431.21 607.83 1044.68 438.06 1244.61 408.52 1142.17 520.52 1093.42 650.00 1256.80 625.67
00085744 00000077 961.72 181.62 429.69 610.58 1045.07 442.53 1244.79 411.97 1141.13 527.34 1094.28 656.88 1257.32 631.55
00085745 00000078 961.53 184.67 429.98 609.04 1044.87 445.96 1247.20 415.36 1142.24 530.72 1093.94 660.64 1258.54 635.18
00085746 00000079 959.40 189.52 433.85 607.99 1045.76 453.36 1248.28 423.65 1142.50 539.18 1094.24 667.11 1257.14 642.46
00085747 00000080 958.81 189.11 434.97 611.25 1045.59 455.93 1248.36 425.54 1142.59 541.79 1094.68 670.14 1257.84 644.77
00085748 00000081 959.23 188.55 434.40 611.18 1045.80 455.77 1248.40 425.42 1142.38 541.89 1094.95 669.90 1257.91 644.56
00085749 00000082 958.15 189.11 434.93 611.42 1044.55 457.64 1248.04 426.80 1141.28 542.94 1093.59 671.46 1257.31 645.81
00085750 00000083 957.37 189.33 434.32 612.88 1043.53 458.61 1246.65 427.70 1140.33 543.68 1092.56 672.46 1256.18 646.79
00085751 00000084 955.27 191.00 434.23 611.20 1041.15 459.99 1244.90 427.91 1139.11 544.83 1091.21 673.44 1255.30 646.90
00085752 00000085 955.43 191.23 434.04 610.80 1040.71 457.96 1244.88 426.14 1138.86 544.97 1091.58 673.17 1255.47 646.76
00085753 00000086 955.21 191.33 434.26 611.06 1040.73 457.93 1244.80 426.15 1138.85 545.11 1091.61 673.09 1255.59 646.69
00085754 00000087 955.23 191.65 432.83 609.37 1039.34 456.73 1243.98 425.14 1138.29 543.23 1089.70 671.54 1254.66 645.40
00085755 00000088 955.20 191.07 431.80 608.19 1038.91 455.32 1243.62 423.57 1138.25 542.76 1089.34 669.71 1255.09 643.46
00085756 00000089 954.23 190.55 432.57 606.55 1038.08 452.29 1242.58 420.56 1138.69 539.80 1088.52 666.27 1255.16 640.03
00085757 00000090 953.88 187.42 432.39 606.47 1036.40 450.95 1241.03 418.59 1138.01 538.92 1087.47 663.42 1255.82 636.67
00085758 00000091 954.10 187.32 432.34 606.45 1036.42 450.94 1241.04 418.73 1137.75 539.10 1087.28 663.35 1255.64 636.73
00085759 00000092 953.11 186.81 433.43 607.50 1035.68 450.64 1240.68 418.29 1138.11 538.62 1087.23 663.47 1255.86 636.69
00085760 00000093 953.28 185.60 433.05 608.53 1035.55 450.11 1240.30 417.64 1138.56 536.99 1085.67 662.25 1255.82 635.36
00085761 00000094 953.85 185.18 432.85 608.33 1036.14 449.67 1241.38 417.28 1139.35 536.65 1087.10 663.08 1255.94 636.22
00085762 00000095 952.92 187.50 433.97 606.98 1037.03 450.59 1240.53 418.18 1139.89 537.25 1089.35 664.14 1254.79 637.38
00085763 00000096 953.01 187.44 433.93 607.16 1037.17 450.70 1240.67 418.25 1140.19 537.25 1089.32 664.17 1254.87 637.39
00085764 00000097 952.62 187.07 433.79 608.20 1037.10 450.85 1240.78 418.18 1140.30 537.98 1089.75 664.92 1255.08 637.98
00085765 00000098 951.86 187.91 434.49 608.64 1036.31 451.82 1240.32 418.03 1140.06 538.41 1090.44 666.79 1255.10 639.01
00085766 00000099 952.49 184.84 432.47 614.78 1036.84 451.99 1240.27 418.54 1139.36 538.87 1090.49 670.91 1251.19 643.71
00085767 00000100 951.42 184.71 432.47 616.62 1038.24 451.48 1239.96 418.51 1140.91 538.01 1092.82 672.22 1249.84 645.59
00085768 00000101 951.47 184.78 432.14 616.83 1038.24 451.54 1239.80 418.49 1140.90 538.07 1092.85 672.19 1249.87 645.51
00085769 00000102 951.65 184.25 431.27 619.16 1038.83 451.25 1240.05 418.35 1142.00 538.23 1093.95 673.74 1249.85 647.27
00085770 00000103 951.67 183.75 431.21 622.10 1038.36 452.35 1239.26 418.46 1141.05 537.15 1093.66 675.37 1249.63 648.07
00085771 00000104 951.28 183.52 432.73 625.84 1038.15 450.82 1236.30 415.69 1140.22 535.52 1094.38 672.75 1250.50 644.44
00085772 00000105 951.47 182.70 432.82 623.04 1037.60 448.84 1236.46 414.28 1140.41 534.46 1093.85 670.10 1250.77 642.24
00085773 00000106 951.47 182.62 432.80 623.13 1037.61 448.84 1236.46 414.30 1140.39 534.39 1093.83 670.09 1250.77 642.24
00085774 00000107 952.56 182.84 433.64 618.13 1037.50 447.23 1237.28 412.57 1140.95 533.05 1094.56 667.09 1253.22 638.92
00085775 00000108 951.53 183.58 434.79 614.07 1036.61 444.42 1237.10 410.50 1141.18 532.39 1093.61 663.53 1254.30 635.90
00085776 00000109 951.60 182.70 434.65 612.74 1036.04 441.17 1236.53 408.23 1140.11 530.44 1091.76 659.89 1252.64 633.25
00085777 00000110 952.26 181.09 433.30 615.08 1037.69 444.17 1236.59 410.88 1140.27 527.59 1090.96 660.20 1251.94 633.20
00085778 00000111 952.22 181.31 433.33 614.58 1037.63 444.34 1236.59 410.94 1140.45 527.73 1091.04 660.35 1251.93 633.27
00085779 00000112 950.29 186.22 433.68 605.63 1036.11 445.19 1236.20 409.05 1139.70 521.58 1090.60 656.72 1252.60 627.53
00085780 00000113 951.72 178.45 433.65 609.28 1037.95 439.25 1236.15 406.56 1138.67 515.34 1091.58 651.42 1249.69 624.76
00085781 00000114 951.12 165.70 427.72 606.08 1030.78 429.68 1233.14 391.09 1133.38 503.24 1089.72 639.11 1252.57 606.75
00085782 00000115 948.95 158.90 427.39 607.19 1026.16 422.57 1230.92 381.45 1128.90 496.52 1086.83 634.97 1249.49 600.35
00085783 00000116 948.98 158.84 427.59 606.91 1026.08 422.77 1230.83 381.40 1128.58 496.43 1086.93 634.97 1249.56 600.09
00085784 00000117 944.55 160.69 428.53 598.42 1028.96 422.87 1222.48 382.76 1125.68 494.82 1090.04 628.13 1244.33 594.38
00085785 00000118 942.45 154.76 429.38 600.92 1027.57 418.08 1218.66 375.32 1125.38 489.53 1091.55 624.00 1244.00 588.05
00085786 00000119 938.31 150.58 429.10 600.60 1024.52 413.00 1213.66 366.87 1123.55 480.65 1089.82 618.81 1243.61 580.03
00085787 00000120 936.94 148.89 427.94 603.13 1022.84 410.02 1215.22 364.74 1122.76 475.36 1085.77 616.72 1243.17 578.72
00085788 00000121 936.95 149.21 428.26 602.74 1022.89 409.96 1215.12 364.68 1122.80 475.44 1085.97 616.55 1243.20 578.55
00085789 00000122 937.57 148.15 426.52 600.70 1023.08 406.13 1217.52 361.54 1123.40 470.97 1084.39 614.51 1243.40 577.22
00085790 00000123 939.05 146.70 424.47 605.29 1024.65 403.41 1215.48 359.38 1121.03 466.02 1083.30 614.29 1235.54 577.86
00085791 00000124 940.06 145.95 424.49 606.58 1022.18 401.88 1218.94 354.55 1119.94 464.06 1078.85 613.22 1241.75 573.63
00085792 00000125 940.25 146.00 425.83 604.55 1022.50 400.84 1220.24 353.82 1119.84 462.51 1077.64 610.21 1243.79 570.74
00085793 00000126 940.24 145.73 426.00 605.06 1022.39 400.87 1220.47 353.86 1119.84 462.65 1077.60 610.44 1244.12 570.93
00085794 00000127 940.36 144.50 426.23 603.67 1021.51 400.41 1220.76 354.05 1118.70 463.15 1075.34 608.61 1244.32 569.52
00085795 00000128 940.22 144.73 426.98 602.75 1021.40 400.39 1221.21 354.45 1118.35 462.86 1074.57 607.19 1245.30 568.26
00085796 00000129 940.72 144.42 426.77 599.18 1020.93 400.17 1220.82 353.93 1118.01 461.50 1074.46 605.39 1245.27 566.21
00085797 00000130 940.44 144.29 427.61 597.63 1021.05 400.27 1220.72 354.31 1118.12 461.49 1075.05 604.81 1244.90 565.87
00085798 00000131 940.44 144.30 427.61 597.63 1021.05 400.27 1220.72 354.31 1118.12 461.50 1075.05 604.81 1244.90 565.87
00085799 00000132 940.59 143.51 427.52 596.27 1020.66 399.92 1220.27 354.02 1117.74 460.63 1074.68 604.18 1244.37 565.42
00085800 00000133 940.49 143.96 427.72 594.07 1020.33 399.86 1219.89 353.65 1117.81 460.51 1074.65 603.24 1244.40 564.20
00085801 00000134 939.22 143.67 425.79 590.08 1019.40 398.35 1218.52 352.99 1117.70 457.28 1073.41 600.49 1243.51 562.34
00085802 00000135 939.23 144.12 426.63 588.94 1019.86 398.80 1218.10 352.34 1117.60 457.19 1074.84 600.70 1243.26 561.51
00085803 00000136 939.10 144.45 426.81 588.85 1019.90 398.81 1218.09 352.29 1117.63 457.14 1074.94 600.75 1243.34 561.49
00085804 00000137 938.98 145.04 426.44 587.12 1019.89 398.69 1217.59 352.67 1117.42 455.97 1075.13 600.26 1242.04 561.43
00085805 00000138 938.64 145.07 426.66 587.09 1019.12 398.52 1217.52 353.41 1115.96 456.55 1073.97 600.64 1241.17 562.50
00085806 00000139 939.35 147.21 425.59 587.52 1019.52 401.36 1215.71 356.81 1114.63 457.70 1072.99 602.10 1238.28 564.76
00085807 00000140 939.55 146.94 425.04 589.82 1021.06 402.51 1216.06 360.75 1114.86 459.33 1072.44 602.88 1235.97 567.76
00085808 00000141 939.31 146.74 425.36 590.51 1021.01 402.50 1216.19 360.70 1114.90 459.39 1072.23 602.92 1236.17 567.75
00085809 00000142 939.53 146.88 425.26 591.72 1021.22 402.76 1217.75 361.54 1115.49 461.50 1072.04 604.91 1236.33 570.29
00085810 00000143 939.62 147.91 424.77 592.54 1021.30 404.54 1217.18 364.00 1115.71 466.18 1072.80 607.83 1236.01 573.57
00085811 00000144 939.70 149.26 426.62 600.71 1022.04 412.69 1215.86 371.25 1116.70 476.63 1076.56 616.84 1236.80 582.25
00085812 00000145 940.78 151.68 427.02 601.55 1023.09 416.18 1215.10 376.15 1116.33 484.58 1079.40 621.25 1235.50 587.90
00085813 00000146 940.84 151.87 426.95 601.48 1023.08 416.08 1215.18 376.06 1116.36 484.49 1079.19 621.11 1235.57 587.82
00085814 00000147 942.92 156.55 426.94 595.29 1025.85 420.55 1217.58 385.32 1115.97 493.17 1079.27 622.11 1234.61 592.36
00085815 00000148 944.33 160.38 427.65 594.23 1025.02 424.99 1218.22 392.61 1113.64 500.85 1078.28 625.53 1234.52 597.87
00085816 00000149 945.48 166.78 432.63 607.11 1019.45 431.74 1222.11 395.36 1115.98 514.84 1075.75 643.15 1240.26 612.08
00085817 00000150 943.41 171.93 436.59 615.56 1022.29 441.08 1219.21 405.12 1118.46 521.14 1078.07 652.76 1236.28 622.81
00085818 00000151 943.43 172.06 436.66 615.53 1022.22 441.39 1219.28 405.26 1118.17 521.09 1077.71 652.85 1236.27 622.77
00085819 00000152 943.45 175.03 435.97 616.86 1021.79 444.49 1218.65 410.48 1118.18 528.15 1074.77 657.50 1233.52 629.57
00085820 00000153 943.03 177.47 434.78 617.07 1023.49 449.87 1217.62 416.36 1118.14 536.72 1076.54 662.82 1230.85 635.76
00085821 00000154 939.51 181.16 435.19 624.65 1021.25 462.33 1217.49 427.78 1116.86 549.53 1075.10 675.46 1230.60 647.61
00085822 00000155 939.24 184.27 432.98 629.69 1020.61 466.15 1217.93 431.80 1115.60 552.06 1074.15 681.17 1229.17 653.67
00085823 00000156 938.90 184.70 433.40 629.20 1020.44 466.29 1217.86 431.79 1115.46 552.33 1074.22 681.42 1229.01 653.81
00085824 00000157 936.47 189.16 432.86 627.57 1019.24 467.48 1215.67 434.29 1113.83 555.24 1072.44 681.63 1226.91 655.03
00085825 00000158 934.68 191.01 432.76 625.70 1018.43 468.20 1214.60 436.42 1111.81 556.63 1070.55 681.51 1224.43 656.07
00085826 00000159 931.76 193.41 432.38 619.39 1016.85 470.46 1209.37 438.64 1107.82 556.48 1068.36 678.59 1219.55 652.94
00085827 00000160 932.85 205.43 424.45 603.86 1010.61 476.48 1198.46 439.31 1103.71 564.71 1070.92 682.46 1224.23 651.72
00085828 00000161 932.78 204.96 425.16 604.38 1010.72 476.49 1198.54 439.34 1103.66 564.67 1071.02 682.45 1224.29 651.68
00085829 00000162 930.63 205.47 425.92 603.47 1008.10 476.64 1195.70 438.92 1101.07 564.55 1068.46 681.84 1222.98 650.71
00085830 00000163 928.25 205.18 427.90 602.61 1005.95 475.55 1194.85 438.55 1098.77 563.82 1065.45 679.86 1221.78 649.13
