Video ID: 	x7aXa7MbY4c
H: 	1080
W: 	1920
FPS: 	25.0

FRAME INDEX X0 Y0 W H [Landmarks (5 Points)]

00002041 00000000 745.43 217.61 480.95 764.28 853.04 490.23 1089.74 478.72 963.40 632.45 897.87 795.18 1058.22 785.55
00002042 DELETE   741.39 217.95 481.10 757.02 849.67 485.65 1086.58 480.56 955.74 627.17 885.46 786.54 1044.76 782.31
00002043 00000002 736.97 198.53 480.19 761.95 838.51 478.42 1077.58 476.81 939.50 622.92 862.36 769.70 1042.19 768.31
00002044 00000003 736.60 196.37 484.82 761.31 833.27 482.92 1073.22 478.58 933.46 627.42 861.52 769.36 1048.06 765.26
00002045 00000004 737.46 201.56 487.57 754.34 831.79 492.84 1072.66 485.30 934.96 634.55 863.52 767.06 1058.13 759.81
00002046 00000005 729.64 202.53 491.89 741.62 822.69 491.57 1064.26 483.01 926.61 633.20 854.21 754.52 1055.36 746.07
00002047 00000006 727.44 191.27 489.56 740.68 813.93 486.53 1057.44 476.33 907.01 616.40 831.72 741.62 1051.55 732.95
00002048 00000007 725.00 181.90 489.35 743.63 811.76 480.74 1055.88 471.81 904.81 607.40 826.27 733.73 1048.14 726.22
00002049 00000008 724.61 179.05 486.51 739.91 813.95 474.00 1055.23 468.90 904.85 599.96 824.56 724.64 1044.41 720.35
00002050 DELETE   725.49 176.83 484.97 737.78 814.09 477.26 1050.52 468.72 903.21 597.13 824.50 719.74 1045.11 712.27
00002051 DELETE   723.21 178.86 486.27 735.24 812.69 483.88 1046.42 470.29 900.95 597.24 824.03 719.24 1048.48 707.02
00002052 DELETE   720.48 179.43 488.05 744.87 808.69 481.26 1046.61 465.06 900.69 601.36 825.40 722.77 1054.07 708.17
00002053 00000012 715.00 189.39 486.34 746.19 809.99 480.86 1044.11 465.05 906.29 612.12 835.15 734.67 1054.89 720.33
00002054 00000013 713.24 187.74 488.88 740.86 805.29 485.28 1046.83 470.44 903.14 610.24 826.52 732.73 1053.35 719.18
00002055 00000014 714.38 189.22 489.08 732.33 805.19 485.60 1045.90 469.80 903.73 610.29 829.11 731.11 1052.72 716.90
00002056 00000015 714.57 186.69 491.60 731.21 804.75 483.70 1046.76 467.79 905.22 607.98 829.24 731.09 1049.67 717.10
00002057 00000016 719.29 187.96 485.27 727.20 802.98 477.30 1045.48 465.44 908.96 610.69 831.70 733.14 1041.97 723.62
00002058 00000017 721.85 187.79 486.74 726.53 803.85 478.60 1048.18 465.09 910.50 610.48 832.92 735.33 1041.58 724.83
00002059 00000018 722.86 190.79 489.88 727.55 807.84 484.42 1052.55 467.38 917.41 614.14 842.62 743.02 1047.31 729.59
00002060 00000019 725.71 195.35 493.51 726.01 811.45 486.70 1057.14 468.13 923.38 619.65 852.97 750.15 1053.47 735.54
00002061 00000020 730.42 197.46 495.61 729.59 817.51 489.02 1062.19 468.82 928.17 620.52 861.92 756.95 1058.49 740.82
00002062 00000021 729.57 197.03 502.64 734.40 823.18 491.29 1065.12 469.86 932.16 618.38 869.48 757.15 1062.68 737.65
00002063 00000022 731.32 199.21 500.01 731.09 824.50 492.44 1064.18 470.86 931.46 615.57 867.17 751.67 1064.27 731.77
00002064 00000023 733.99 198.03 494.19 723.75 820.46 489.33 1063.07 471.93 925.98 615.88 855.84 742.67 1066.59 728.24
00002065 00000024 733.05 198.50 495.99 721.68 819.75 489.48 1062.70 471.34 926.04 615.43 855.19 738.22 1070.75 723.04
00002066 00000025 733.77 199.76 495.13 716.96 821.54 489.99 1064.07 471.84 928.46 616.34 855.72 734.96 1073.68 719.34
00002067 00000026 733.85 200.45 495.69 715.08 823.59 491.48 1065.12 472.07 931.92 616.58 858.91 734.11 1077.10 717.34
00002068 00000027 735.50 198.91 495.36 715.16 824.36 490.50 1066.85 469.83 933.92 615.36 861.26 733.75 1080.01 716.00
00002069 00000028 733.47 199.22 497.06 714.28 824.83 489.72 1067.34 469.30 936.10 613.86 861.33 732.59 1080.32 714.97
00002070 00000029 732.02 199.11 497.58 712.40 823.71 489.46 1065.61 467.47 935.82 611.26 860.91 730.00 1080.74 711.04
00002071 00000030 730.48 200.53 498.48 710.60 821.28 489.07 1063.31 466.69 933.56 611.46 859.38 729.90 1078.77 710.75
00002072 00000031 729.77 199.04 496.18 711.84 820.94 488.24 1062.97 466.75 934.06 610.85 857.76 729.44 1077.33 711.08
00002073 00000032 729.80 200.33 496.37 710.83 824.54 488.63 1066.05 468.54 938.38 611.03 860.47 728.93 1081.07 711.50
00002074 00000033 734.86 199.59 492.68 716.09 833.33 487.14 1074.08 466.60 948.53 612.36 868.36 730.78 1090.45 713.02
00002075 00000034 743.63 206.11 490.12 716.54 850.85 488.87 1089.16 466.77 972.30 612.48 887.05 736.26 1105.05 716.87
00002076 00000035 750.79 198.54 486.84 731.46 858.35 484.78 1097.53 466.79 978.65 617.08 892.97 744.09 1106.06 728.92
00002077 DELETE   753.04 206.47 482.68 726.66 851.20 483.96 1093.16 471.02 967.15 621.60 888.65 756.47 1087.73 745.14
00002078 DELETE   749.38 199.96 481.26 730.12 838.11 482.11 1080.85 478.80 939.94 623.04 864.14 753.72 1060.73 750.88
00002079 00000038 751.32 193.52 475.51 736.50 831.52 476.65 1073.58 481.23 922.75 622.41 846.06 750.27 1045.64 754.10
00002080 00000039 751.80 193.28 476.43 732.61 832.62 475.25 1073.91 481.06 921.80 619.46 845.30 745.63 1046.07 750.35
00002081 DELETE   755.50 196.40 476.76 725.97 838.48 477.10 1080.98 480.34 931.65 619.45 852.91 743.84 1055.83 746.21
00002082 DELETE   759.89 199.43 475.72 722.35 848.42 480.18 1088.90 481.37 948.02 623.92 870.10 744.01 1072.70 743.92
00002083 DELETE   762.38 202.84 475.22 723.68 855.40 480.60 1095.32 481.51 960.04 625.05 878.33 745.75 1081.24 745.18
00002084 00000043 762.00 206.89 473.29 727.29 856.92 481.52 1093.49 488.21 956.32 626.89 872.40 746.95 1073.43 751.20
00002085 00000044 759.34 210.64 475.23 726.27 858.33 483.64 1095.79 499.53 950.02 633.77 865.49 749.53 1059.68 761.15
00002086 DELETE   760.08 208.73 473.41 731.45 861.90 480.41 1103.41 497.37 959.35 631.14 867.63 754.04 1062.76 766.50
00002087 00000046 766.69 208.58 470.97 733.92 869.82 477.34 1107.25 494.65 973.86 630.25 877.92 753.55 1074.98 766.87
00002088 00000047 768.50 209.68 469.45 732.45 872.84 476.42 1109.56 492.14 979.06 629.92 884.28 753.81 1078.09 765.60
00002089 00000048 764.88 208.96 470.16 732.26 866.14 476.83 1102.94 491.33 968.84 629.11 876.88 753.69 1071.59 764.85
00002090 00000049 761.25 208.22 472.57 732.90 859.37 478.22 1099.09 490.55 961.57 627.35 869.11 752.83 1068.16 762.44
00002091 00000050 762.24 208.49 472.69 737.91 860.21 481.62 1099.16 491.31 963.19 626.93 871.30 754.56 1075.74 761.67
00002092 DELETE   760.11 211.24 475.45 727.29 865.83 489.85 1103.00 496.92 974.17 627.17 879.06 748.26 1086.91 752.84
00002093 DELETE   761.93 211.17 471.82 718.95 868.60 496.29 1110.53 500.78 981.88 629.53 878.91 742.24 1099.08 744.98
00002094 00000053 759.59 214.40 476.15 711.38 870.07 493.59 1114.11 495.17 989.36 630.33 882.36 738.49 1107.49 738.99
00002095 00000054 756.04 212.64 478.78 712.45 867.64 491.24 1112.37 493.61 990.13 629.81 880.91 739.06 1104.81 740.06
00002096 00000055 754.09 215.41 476.20 712.97 863.04 490.77 1108.18 492.94 985.50 631.80 877.71 744.96 1099.65 745.90
00002097 00000056 747.19 216.29 477.73 718.49 855.73 490.07 1100.68 493.16 974.46 633.49 873.48 751.51 1086.18 751.86
00002098 DELETE   737.41 212.21 477.41 722.64 845.13 487.57 1087.16 493.21 958.91 633.38 860.56 747.61 1071.80 750.15
00002099 00000058 730.37 207.53 481.36 730.20 840.81 485.37 1081.53 496.25 948.07 635.51 851.57 747.51 1056.40 754.86
00002100 00000059 727.95 212.35 481.87 726.60 838.64 484.71 1080.21 493.58 945.98 632.47 849.35 744.64 1059.61 750.23
00002101 00000060 722.85 206.98 485.82 734.59 837.31 483.28 1076.63 488.95 945.10 626.73 847.73 740.03 1062.24 742.69
00002102 00000061 717.57 203.99 488.32 739.58 827.42 486.84 1066.07 488.88 932.96 627.40 840.70 738.05 1055.56 737.86
00002103 00000062 706.94 199.13 489.37 738.83 812.57 484.44 1058.36 491.32 911.27 624.41 815.22 734.72 1048.55 739.71
00002104 00000063 706.28 198.37 489.11 738.36 811.55 484.31 1057.84 492.28 910.99 623.73 813.58 732.09 1048.78 737.85
00002105 00000064 714.74 199.57 484.96 733.34 820.86 483.33 1063.20 489.09 930.81 624.99 828.48 731.24 1058.89 735.38
00002106 00000065 719.62 201.98 486.57 725.21 831.13 481.27 1078.42 486.19 946.21 619.76 838.89 727.94 1072.24 731.16
00002107 00000066 720.14 204.08 487.19 718.99 835.62 479.34 1081.47 482.85 951.92 616.54 844.46 725.32 1076.14 727.40
00002108 00000067 717.33 202.26 488.28 719.48 829.05 480.19 1073.53 481.96 943.01 615.72 839.29 724.36 1071.11 724.87
00002109 00000068 711.66 196.20 486.66 722.52 819.95 477.75 1060.64 483.43 928.74 615.84 828.78 721.27 1057.03 724.89
00002110 00000069 708.53 194.52 485.53 723.47 811.32 474.95 1053.15 480.25 918.35 619.91 822.27 721.29 1050.15 724.57
00002111 00000070 707.79 194.89 486.44 721.80 808.80 474.81 1048.93 478.03 913.86 618.01 820.65 720.11 1047.44 721.60
00002112 00000071 707.97 191.48 486.28 724.54 810.74 474.04 1049.52 476.81 915.77 616.46 824.18 718.79 1050.58 719.70
00002113 00000072 709.12 191.88 487.38 722.68 810.02 475.20 1050.71 475.73 917.35 617.25 826.99 719.66 1053.04 718.81
00002114 00000073 713.50 193.25 487.51 723.99 810.54 476.67 1051.80 475.02 919.12 619.70 830.04 725.57 1053.10 723.42
00002115 00000074 717.71 195.84 486.27 720.41 809.63 478.88 1053.98 476.08 918.02 622.70 833.02 732.37 1049.34 729.75
00002116 00000075 720.69 194.38 485.69 722.32 811.66 480.63 1055.84 476.09 920.40 622.62 836.75 735.02 1050.56 731.07
00002117 00000076 722.66 194.69 486.07 721.39 813.86 480.08 1057.79 474.37 923.80 620.32 840.56 735.51 1052.52 730.72
00002118 00000077 724.79 193.89 485.79 720.09 816.62 480.17 1062.00 475.19 927.50 619.21 842.41 735.13 1055.61 730.85
00002119 00000078 725.60 195.65 486.41 719.90 816.53 480.72 1062.39 474.89 927.45 619.69 842.62 735.79 1057.74 730.78
00002120 00000079 726.85 198.04 485.11 717.12 815.22 483.36 1059.63 476.03 924.80 622.28 842.66 737.03 1057.13 730.69
00002121 00000080 727.39 197.94 485.11 716.85 813.10 485.61 1057.14 476.71 921.37 624.05 842.08 737.59 1055.86 729.95
00002122 00000081 728.80 197.63 485.57 716.74 815.08 485.95 1059.57 476.93 923.27 623.06 844.51 737.50 1058.26 729.58
00002123 00000082 728.62 200.15 485.94 713.66 816.50 485.00 1061.23 476.52 925.69 621.60 845.49 735.00 1061.90 727.42
00002124 00000083 728.62 200.63 487.19 713.59 818.78 486.57 1064.65 477.23 930.06 621.90 849.03 734.95 1067.14 726.53
00002125 00000084 728.53 200.27 489.49 714.09 821.37 487.48 1067.09 476.64 934.26 621.61 852.27 734.39 1072.16 724.63
00002126 00000085 730.02 199.72 488.46 715.03 821.88 487.98 1066.66 476.29 934.22 620.93 852.36 733.23 1073.65 722.69
00002127 00000086 731.15 199.10 485.70 714.10 821.90 486.80 1065.09 476.47 931.64 619.69 850.71 730.97 1071.31 721.54
00002128 00000087 730.27 199.27 486.74 713.39 820.21 485.27 1064.49 476.28 929.46 619.28 849.44 730.19 1069.72 721.96
00002129 00000088 731.07 198.15 487.20 716.04 820.25 485.87 1063.76 476.87 927.88 619.39 848.21 730.18 1068.67 721.91
00002130 00000089 730.43 198.35 488.07 717.34 819.83 487.46 1063.53 477.70 928.63 621.57 849.28 732.64 1069.43 723.77
00002131 00000090 730.34 201.04 489.16 718.77 822.87 489.83 1067.01 479.92 933.37 625.62 851.21 735.07 1073.36 726.01
00002132 00000091 730.40 201.72 490.69 720.61 825.64 492.23 1070.89 480.80 938.22 628.18 853.28 737.20 1078.10 726.93
00002133 00000092 729.99 202.99 492.06 721.43 827.00 493.98 1072.07 482.63 940.65 631.09 854.37 738.01 1080.22 727.83
00002134 00000093 729.07 204.20 491.08 722.90 824.15 495.10 1070.51 483.69 937.11 634.60 852.45 740.67 1078.21 730.60
00002135 00000094 728.16 204.12 490.60 724.20 821.29 496.90 1067.03 485.79 932.90 635.43 849.12 742.37 1074.41 732.57
00002136 00000095 728.45 203.91 490.49 725.29 821.12 497.18 1066.63 487.28 931.03 636.05 847.63 743.15 1071.96 734.26
00002137 00000096 726.39 204.98 491.57 724.04 818.91 497.28 1064.35 487.37 928.92 635.80 846.10 742.70 1071.76 733.82
00002138 00000097 725.84 202.86 490.56 724.46 817.19 500.62 1061.65 491.39 926.34 636.37 844.10 742.54 1069.75 734.14
00002139 00000098 724.66 202.21 490.97 724.13 817.12 503.03 1061.12 492.81 927.83 635.98 844.17 743.05 1069.65 733.90
00002140 00000099 724.06 202.84 491.45 724.25 817.48 503.51 1061.60 493.25 929.11 636.06 844.72 742.99 1070.49 733.80
00002141 00000100 725.71 202.75 490.54 722.88 819.51 503.37 1063.74 493.94 931.43 635.98 846.11 743.16 1070.50 734.71
00002142 00000101 725.80 202.41 489.71 722.89 818.62 503.49 1063.04 493.93 929.72 635.82 845.02 744.23 1068.57 735.71
00002143 00000102 728.10 203.09 487.91 721.33 819.66 501.47 1064.23 494.07 928.09 635.25 844.60 745.06 1065.82 738.24
00002144 00000103 728.00 202.96 486.14 720.63 816.90 501.16 1061.57 493.44 925.38 637.13 842.40 745.67 1063.55 738.69
00002145 00000104 727.95 203.83 486.47 717.60 814.94 500.71 1060.64 493.13 922.21 637.70 841.85 746.69 1060.47 740.01
00002146 00000105 729.47 201.99 486.61 720.14 814.38 500.69 1060.32 493.34 920.60 638.20 842.13 749.48 1058.81 743.11
00002147 00000106 730.08 203.44 484.57 718.59 812.65 502.07 1057.84 494.04 918.36 638.77 841.67 752.89 1054.37 745.90
00002148 00000107 729.20 202.81 483.91 720.86 809.79 501.37 1052.25 492.58 915.84 640.88 842.94 756.01 1049.39 748.53
00002149 00000108 727.04 204.83 484.57 715.21 812.28 504.10 1052.34 494.22 906.86 636.89 839.07 755.66 1043.22 747.35
00002150 00000109 727.42 204.39 484.87 718.08 812.84 503.37 1052.34 494.17 906.07 635.70 838.34 754.58 1042.36 746.86
00002151 00000110 729.75 202.73 484.06 719.87 814.02 504.21 1054.01 494.75 906.32 635.11 839.14 754.55 1043.47 746.70
00002152 00000111 730.49 201.96 485.79 721.76 815.70 504.42 1055.98 494.46 908.30 633.07 840.46 754.34 1045.04 746.15
00002153 00000112 732.06 202.18 483.66 726.30 814.98 504.68 1054.13 492.78 906.68 631.82 840.13 758.21 1043.65 748.49
00002154 00000113 733.34 203.36 480.19 731.71 815.14 501.73 1052.41 490.76 903.74 634.12 843.47 766.43 1037.36 757.89
00002155 00000114 735.32 206.99 477.35 729.12 812.34 502.68 1051.21 492.37 898.28 634.70 839.86 771.36 1029.59 763.78
00002156 00000115 737.24 205.33 474.83 729.45 812.07 501.20 1049.94 491.73 896.82 634.21 838.62 769.25 1027.62 762.53
00002157 00000116 737.75 204.57 474.75 728.63 813.34 499.94 1049.00 492.98 894.77 633.00 835.83 764.15 1025.60 759.42
00002158 DELETE   740.32 201.33 475.59 730.08 816.10 508.02 1055.53 499.99 901.58 633.29 835.99 764.64 1033.21 759.12
00002159 DELETE   744.95 202.41 473.73 727.48 823.20 506.75 1061.70 497.91 912.26 632.93 843.20 762.98 1042.19 756.56
00002160 00000119 747.07 200.10 473.35 741.06 827.51 497.44 1068.14 489.44 918.71 629.95 849.32 764.97 1047.00 759.01
00002161 00000120 742.72 200.35 482.74 740.55 830.55 491.74 1069.56 490.62 924.77 634.01 856.99 760.74 1049.10 758.74
00002162 00000121 744.34 205.50 482.77 724.68 830.59 489.43 1072.84 488.36 928.12 632.72 854.30 750.73 1058.47 747.99
00002163 00000122 746.68 209.11 477.89 713.57 832.78 489.09 1075.75 488.87 931.63 631.49 853.75 744.76 1062.47 742.37
00002164 00000123 746.51 206.29 478.28 720.79 832.30 486.62 1074.51 483.96 931.40 630.10 854.34 745.14 1065.88 740.62
00002165 00000124 743.87 202.27 480.74 737.86 833.25 482.99 1069.50 477.98 929.47 624.85 853.66 742.36 1066.73 736.09
00002166 00000125 742.22 200.01 480.60 758.59 832.88 477.85 1067.70 480.06 917.46 621.83 843.50 748.64 1062.69 749.15
00002167 00000126 735.98 187.39 486.45 764.40 826.25 476.70 1058.25 473.74 913.39 617.18 842.73 742.34 1053.34 738.33
00002168 00000127 735.72 186.00 484.01 761.98 825.18 472.88 1058.85 473.94 905.71 614.55 834.76 738.78 1044.80 739.07
00002169 00000128 736.82 176.80 484.93 763.77 819.17 471.64 1066.88 472.10 906.49 611.41 828.64 738.81 1049.55 739.76
00002170 00000129 738.29 179.98 486.50 755.99 825.06 472.16 1061.75 471.88 913.02 613.52 839.97 737.34 1046.95 736.18
00002171 00000130 740.04 181.44 488.66 754.70 830.20 471.52 1065.69 473.80 918.19 612.53 844.36 736.37 1047.92 737.16
00002172 00000131 741.66 182.16 487.44 750.86 831.74 472.29 1068.91 474.14 922.71 612.69 848.08 741.32 1047.18 741.97
00002173 00000132 741.24 182.08 487.09 749.78 827.48 472.13 1066.30 474.90 915.02 613.25 841.09 740.89 1043.97 742.35
00002174 00000133 740.47 178.17 480.20 750.37 821.40 467.18 1064.21 475.36 909.65 610.54 830.20 736.88 1035.36 744.57
00002175 00000134 737.98 177.22 478.74 746.68 822.31 465.49 1060.55 475.93 907.20 605.78 825.25 727.99 1031.12 737.55
00002176 00000135 735.23 178.38 480.69 746.13 821.57 464.92 1058.53 475.92 905.57 603.29 822.18 726.70 1027.70 736.60
00002177 00000136 734.24 177.26 481.51 751.10 818.55 464.99 1063.76 474.92 899.73 600.17 814.61 723.54 1038.33 732.66
00002178 00000137 733.03 177.61 483.01 754.07 820.23 463.49 1064.54 473.26 901.85 597.89 815.50 722.12 1044.95 730.55
00002179 00000138 732.38 177.80 485.95 755.38 820.91 462.40 1066.33 471.79 904.10 598.04 815.85 717.81 1052.18 725.34
00002180 00000139 733.32 177.76 484.43 752.68 820.37 463.72 1067.40 471.68 906.63 601.21 816.75 716.49 1055.61 722.59
00002181 00000140 731.78 180.19 485.29 746.23 824.49 465.69 1064.91 473.58 918.05 605.34 825.08 716.05 1056.84 722.10
00002182 00000141 729.11 178.74 484.95 746.42 823.35 466.32 1064.16 473.80 919.25 605.48 823.69 715.80 1056.20 721.41
00002183 00000142 726.78 177.97 486.53 742.75 820.96 461.89 1062.27 470.50 915.55 604.35 822.49 713.81 1052.58 720.43
00002184 00000143 721.11 175.06 487.65 741.63 811.30 465.05 1058.39 472.82 901.58 601.52 808.37 710.69 1049.13 716.88
00002185 00000144 713.40 176.02 491.28 743.54 805.74 464.98 1050.71 474.04 894.06 603.09 802.44 709.74 1041.90 716.96
00002186 00000145 710.67 175.52 492.35 744.64 802.92 464.71 1047.26 475.63 888.89 605.21 798.85 709.28 1037.37 718.25
00002187 00000146 709.93 176.02 490.61 745.53 802.75 466.32 1045.15 478.21 886.44 608.07 798.14 710.97 1034.27 720.78
00002188 00000147 711.57 179.56 490.75 742.64 802.28 468.35 1044.49 479.02 886.41 611.61 798.89 713.46 1034.26 722.29
00002189 00000148 713.55 181.42 489.68 738.65 802.55 470.00 1044.98 480.56 886.27 612.33 801.43 714.72 1035.19 723.45
00002190 00000149 711.24 181.29 490.53 738.86 801.09 471.20 1044.56 479.67 887.76 612.96 801.68 716.78 1035.01 723.73
00002191 00000150 709.93 179.66 491.78 740.25 800.07 472.05 1043.33 478.36 886.73 610.67 801.59 717.13 1034.59 722.28
00002192 00000151 708.26 179.61 492.55 741.60 798.20 470.82 1041.47 476.41 884.62 610.02 800.83 716.76 1033.45 721.32
00002193 00000152 707.87 176.94 492.23 743.76 796.98 468.52 1041.93 474.31 884.56 611.41 800.45 716.12 1033.52 720.99
00002194 00000153 708.61 178.96 494.00 742.45 798.18 469.24 1042.11 473.18 887.34 611.67 803.01 715.64 1036.49 718.78
00002195 00000154 709.57 179.09 494.51 742.86 800.25 470.18 1046.56 470.82 894.48 612.83 808.34 717.92 1043.16 717.98
00002196 00000155 712.53 178.23 495.54 743.29 804.48 472.10 1054.40 471.34 902.09 613.12 812.05 718.78 1052.21 717.37
00002197 00000156 718.21 179.92 494.97 740.01 809.92 474.30 1062.44 470.21 912.96 613.21 820.46 721.33 1063.12 717.00
00002198 00000157 724.62 181.44 492.02 738.23 819.52 471.57 1066.34 469.42 927.95 613.56 834.15 719.76 1067.73 717.42
00002199 00000158 725.04 181.93 492.80 734.77 820.47 471.33 1066.99 468.76 928.93 612.79 835.55 719.02 1067.98 716.32
00002200 00000159 727.92 182.04 490.89 732.78 821.12 469.82 1067.32 467.91 926.26 610.19 835.23 716.63 1067.76 714.43
00002201 00000160 726.68 176.86 493.96 739.56 817.64 470.33 1069.97 468.22 919.41 607.89 827.90 718.06 1070.26 715.21
00002202 00000161 731.99 175.85 491.00 752.12 820.22 468.51 1070.99 468.56 916.44 609.63 828.98 722.86 1068.43 721.92
00002203 00000162 744.80 178.88 483.27 761.60 826.57 468.92 1072.53 467.93 915.21 609.54 836.82 739.92 1061.46 739.38
00002204 00000163 743.35 173.65 491.74 769.25 830.82 466.78 1063.22 470.70 910.76 608.43 845.75 743.75 1042.30 746.49
00002205 00000164 753.49 171.79 486.75 774.18 831.31 461.33 1060.29 469.42 897.13 605.79 838.68 740.63 1026.71 748.20
00002206 00000165 755.18 164.90 483.71 768.40 829.37 456.85 1061.39 470.25 896.03 603.34 834.89 734.24 1026.62 746.21
00002207 DELETE   754.86 164.70 498.25 760.02 840.60 452.49 1068.85 469.41 889.55 595.65 835.59 723.71 1025.59 739.04
00002208 00000167 764.04 164.24 478.08 750.38 840.27 446.77 1063.52 476.35 892.47 600.56 831.36 714.36 1021.17 738.66
