Video ID: 	LK6GNcPz_XQ
H: 	1080
W: 	1920
FPS: 	60.0

FRAME INDEX X0 Y0 W H [Landmarks (5 Points)]

00010227 00000000 721.33 130.68 428.61 572.78 793.95 321.62 989.84 344.25 836.52 435.10 787.24 543.21 942.65 562.05
00010228 00000001 719.90 132.38 429.26 565.88 795.02 316.73 988.28 341.17 836.37 433.87 786.86 538.32 939.05 558.75
00010229 00000002 719.55 128.88 427.03 564.86 794.43 312.42 986.57 336.31 835.85 429.49 786.73 535.16 938.01 555.26
00010230 00000003 719.10 124.98 424.86 561.99 793.65 312.09 983.93 338.46 833.33 428.57 782.92 531.80 934.49 553.99
00010231 00000004 716.97 123.38 426.30 564.66 791.73 310.43 984.24 338.02 832.57 428.08 780.45 530.83 934.04 553.92
00010232 00000005 715.85 123.67 426.44 563.15 789.44 309.89 982.29 337.67 830.04 427.39 778.99 530.74 932.69 553.83
00010233 DELETE   714.78 126.09 424.37 558.62 788.27 310.71 979.86 338.92 828.98 427.85 777.27 530.99 929.45 554.33
00010234 00000007 713.52 127.95 422.06 557.44 785.30 312.39 976.09 339.12 827.49 427.57 776.06 533.11 928.60 555.22
00010235 00000008 711.92 126.54 421.03 558.89 784.52 313.07 973.79 339.60 826.28 428.65 775.03 534.26 925.64 556.10
00010236 00000009 710.48 131.09 418.11 551.97 781.49 316.15 967.28 339.85 823.02 430.01 774.91 535.53 922.52 554.86
00010237 00000010 708.50 132.03 417.38 550.25 780.02 316.68 964.71 339.20 821.61 429.61 775.26 536.50 921.30 554.74
00010238 00000011 705.60 137.26 418.20 545.13 777.56 316.78 962.17 338.47 820.20 430.48 773.06 537.53 918.00 555.14
00010239 00000012 704.71 137.79 417.17 545.74 776.23 317.34 960.06 337.87 818.71 429.87 771.92 538.03 915.88 554.75
00010240 00000013 703.66 138.25 417.34 543.81 775.33 315.85 959.23 337.28 817.79 430.10 769.68 537.42 912.98 554.87
00010241 00000014 702.21 138.68 416.07 544.48 773.44 315.54 956.45 336.78 815.59 429.54 768.32 537.98 911.17 555.27
00010242 00000015 700.22 132.91 416.66 551.24 771.51 315.20 954.32 336.05 813.40 428.84 765.91 538.52 908.62 555.69
00010243 00000016 697.01 133.50 418.94 549.64 769.48 316.13 952.73 335.91 812.57 428.42 764.96 538.68 908.22 554.88
00010244 00000017 694.55 130.76 418.10 551.47 767.77 317.09 950.35 335.46 811.33 427.42 763.43 537.09 907.56 552.18
00010245 00000018 693.35 134.08 415.21 549.42 766.30 317.27 949.01 334.54 811.36 427.04 762.53 537.78 906.51 551.96
00010246 00000019 692.17 130.32 413.50 555.10 764.88 317.29 945.83 334.42 808.16 425.99 760.50 536.14 903.33 550.36
00010247 00000020 690.70 129.82 413.08 557.14 763.40 316.63 944.03 334.18 806.02 426.42 758.44 535.74 901.80 550.26
00010248 00000021 689.54 129.18 412.37 554.89 760.09 317.00 939.68 334.32 801.45 425.90 754.35 534.89 896.69 549.26
00010249 00000022 687.13 130.30 411.21 555.47 757.39 315.85 937.37 333.12 798.87 425.94 751.71 534.58 894.58 548.79
00010250 00000023 684.60 123.27 412.10 561.44 754.33 316.31 934.44 332.66 795.28 425.17 746.45 534.16 890.94 547.83
00010251 00000024 681.78 121.36 413.80 563.03 752.53 315.65 932.58 332.46 792.82 425.86 743.88 533.73 888.00 547.80
00010252 00000025 678.76 122.69 415.73 559.86 745.70 302.85 935.38 329.93 783.98 421.59 737.99 533.38 883.75 555.56
00010253 00000026 676.94 123.15 415.38 560.77 744.05 303.12 934.15 329.87 782.90 421.11 736.04 533.29 882.87 555.38
00010254 00000027 676.00 123.36 414.01 559.64 742.84 303.27 931.93 330.02 781.84 420.98 735.41 533.09 881.54 555.22
00010255 00000028 675.61 124.97 411.89 557.12 741.57 302.84 930.51 331.58 780.25 420.99 733.27 531.28 880.41 555.22
00010256 00000029 675.03 122.84 412.51 558.80 740.26 302.79 929.49 331.68 778.44 421.15 732.21 531.06 879.95 555.25
00010257 00000030 674.75 121.67 413.35 560.68 740.35 302.43 929.58 332.66 777.52 421.18 731.16 529.93 879.55 555.11
00010258 00000031 674.23 125.09 412.88 556.40 739.72 302.17 928.25 332.14 775.93 421.17 730.68 529.51 877.76 554.60
00010259 00000032 673.69 126.52 413.30 554.79 739.58 302.00 928.02 331.20 775.57 420.64 730.55 530.27 877.33 554.74
00010260 00000033 673.46 127.04 411.98 551.94 738.42 301.37 926.92 329.30 775.03 419.66 729.93 530.19 875.98 553.78
00010261 00000034 673.62 125.01 415.39 557.75 741.60 306.92 923.86 328.96 771.19 417.31 729.08 529.91 870.86 548.17
00010262 00000035 673.56 120.25 414.43 559.36 740.64 305.96 922.92 327.71 769.83 416.02 728.05 529.20 869.14 547.35
00010263 00000036 673.95 124.46 413.48 554.50 740.61 305.57 922.53 327.55 769.98 415.66 727.80 528.24 868.62 546.50
00010264 00000037 674.78 124.64 411.48 550.50 740.68 304.47 922.06 327.08 769.49 415.83 727.48 526.01 867.79 544.89
00010265 00000038 674.49 126.03 411.52 548.98 740.35 304.86 922.08 326.91 769.88 415.71 727.34 526.30 867.38 544.75
00010266 00000039 674.27 122.47 410.92 552.28 741.10 304.61 922.18 326.96 769.75 414.77 727.04 525.80 866.21 544.59
00010267 00000040 674.98 121.60 410.72 552.56 741.24 304.86 922.24 327.11 769.45 414.15 726.81 525.62 866.21 544.35
00010268 00000041 674.82 122.76 410.37 550.36 742.10 304.74 922.25 327.07 770.09 413.34 726.69 524.87 864.84 543.71
00010269 00000042 674.98 121.90 409.93 551.84 742.19 304.81 922.31 327.36 769.91 412.75 726.66 525.23 864.11 544.22
00010270 00000043 674.97 123.38 409.49 549.14 742.58 305.03 921.48 328.76 769.08 412.39 726.68 523.96 861.98 543.74
00010271 00000044 675.93 126.74 407.42 544.30 742.28 306.25 918.95 329.12 768.47 411.24 727.05 524.44 859.76 543.39
00010272 00000045 676.34 132.67 407.64 537.98 742.74 309.00 917.43 332.15 767.48 408.77 726.56 522.61 857.59 541.61
00010273 00000046 674.89 130.15 407.72 540.64 743.64 310.83 918.19 335.17 767.96 408.52 726.17 521.86 857.29 541.92
00010274 00000047 676.15 130.55 406.61 535.84 744.18 309.50 918.59 334.71 767.75 407.87 725.03 520.79 856.35 541.71
00010275 00000048 676.05 131.19 406.74 534.19 744.14 309.73 918.66 334.80 767.95 407.29 724.59 519.54 856.76 540.42
00010276 00000049 675.86 128.07 408.48 535.35 745.85 308.68 920.83 334.02 769.58 405.49 723.77 518.06 857.31 539.32
00010277 00000050 676.95 126.43 407.38 533.82 746.08 308.64 921.49 333.05 770.84 404.80 724.30 517.29 858.80 537.83
00010278 00000051 678.12 121.51 407.65 535.46 747.86 307.25 923.60 332.78 772.01 403.78 724.32 514.59 860.15 536.11
00010279 00000052 679.13 117.01 407.08 540.44 747.99 306.61 924.09 333.04 771.67 404.07 723.74 514.78 859.63 537.16
00010280 00000053 679.80 115.44 406.85 543.66 749.05 305.15 926.63 332.56 773.09 404.55 725.27 515.99 858.88 539.31
00010281 00000054 679.80 113.19 407.73 545.90 749.19 304.11 927.85 331.11 773.75 404.58 725.61 515.76 860.60 538.78
00010282 00000055 681.99 111.30 408.94 546.19 749.48 302.11 930.10 328.79 775.33 405.20 726.67 516.31 862.34 539.22
00010283 00000056 682.85 105.11 407.48 551.90 749.47 300.61 932.86 326.91 777.99 405.07 727.51 517.69 864.85 540.48
00010284 00000057 685.11 109.16 408.72 546.71 751.85 298.95 934.40 324.59 780.24 404.18 729.73 516.89 866.27 539.23
00010285 00000058 683.14 103.09 410.57 553.57 750.13 299.05 936.81 325.00 783.75 405.32 730.64 516.81 868.67 540.29
00010286 00000059 684.46 109.63 412.38 546.17 752.45 297.81 939.50 324.25 785.63 406.12 732.57 516.69 869.48 540.24
00010287 00000060 685.06 103.80 414.31 556.02 753.99 298.96 939.07 325.00 784.77 407.33 735.50 518.32 869.62 541.27
00010288 00000061 692.07 107.33 410.29 558.46 755.37 300.81 935.03 324.37 780.11 406.84 735.40 523.42 867.27 544.31
00010289 00000062 695.25 113.22 408.36 553.59 757.34 301.50 934.77 326.08 780.11 406.71 737.59 523.15 866.59 544.70
00010290 00000063 698.20 114.60 408.50 553.87 758.80 302.67 936.88 327.71 780.35 407.37 739.69 522.69 872.29 544.50
00010291 00000064 699.89 115.10 407.12 548.61 759.55 301.98 938.35 327.28 783.10 406.50 741.39 521.62 873.59 543.38
00010292 00000065 701.33 117.53 408.30 545.00 759.26 302.64 940.94 326.92 786.98 408.90 743.10 524.25 878.22 544.97
00010293 00000066 702.34 108.67 410.68 553.56 764.97 309.41 944.08 329.38 798.26 408.73 746.06 527.32 885.15 543.84
00010294 00000067 701.35 107.22 415.19 565.48 767.55 309.31 947.15 329.02 800.67 407.32 749.83 528.11 888.65 544.71
00010295 00000068 702.26 108.09 415.42 564.24 769.31 310.15 949.53 329.74 803.26 408.50 750.97 528.37 889.65 545.03
00010296 00000069 704.22 112.92 414.82 561.17 772.48 311.10 951.33 331.23 804.31 408.32 753.53 529.06 890.21 546.05
00010297 00000070 705.86 115.82 412.96 559.69 775.44 313.52 952.11 337.61 806.92 408.45 755.39 529.47 888.95 549.26
00010298 DELETE   707.08 124.38 413.10 560.35 783.44 309.78 960.62 341.90 808.33 407.32 761.09 527.93 892.69 554.22
00010299 DELETE   709.20 120.90 411.71 561.37 777.55 316.83 955.89 340.98 808.91 410.21 759.08 533.85 895.95 553.73
00010300 DELETE   711.37 123.82 411.14 563.05 779.17 317.37 958.83 340.65 810.47 411.94 762.00 536.77 900.13 556.06
00010301 00000074 714.23 119.99 410.01 566.68 781.92 317.00 960.40 341.88 812.11 414.89 764.42 536.75 901.38 557.40
00010302 DELETE   716.05 119.00 410.59 571.85 784.33 316.92 962.38 342.00 812.66 416.38 766.61 537.44 904.96 558.52
00010303 00000076 716.69 117.48 412.24 573.80 785.63 316.88 964.97 341.13 815.27 416.56 769.40 538.56 908.37 559.15
00010304 00000077 717.71 118.55 415.30 575.85 787.86 316.44 970.60 340.98 819.12 420.26 772.24 540.68 912.00 561.69
00010305 00000078 719.04 121.18 416.84 576.64 789.67 315.60 972.76 339.64 822.13 422.09 776.40 541.66 915.66 562.36
00010306 00000079 721.76 127.30 415.91 574.97 791.53 314.36 975.19 337.20 824.63 422.98 780.45 543.10 919.48 563.35
00010307 00000080 723.73 124.96 415.88 580.11 793.13 313.88 978.18 336.94 826.10 423.84 782.68 544.86 921.99 565.54
00010308 00000081 726.23 126.33 414.61 582.59 796.22 315.80 984.05 338.68 829.31 424.85 783.23 546.77 925.26 567.62
00010309 00000082 727.39 128.76 414.08 580.85 798.67 316.53 985.62 340.13 831.85 425.39 785.54 545.84 926.85 567.28
00010310 00000083 729.38 128.57 415.41 580.97 800.86 315.78 987.98 340.38 833.09 425.78 787.05 544.46 929.25 566.49
00010311 00000084 730.14 126.52 416.78 581.60 801.97 316.39 990.89 340.19 835.32 425.51 787.98 544.54 931.88 565.87
00010312 00000085 732.27 129.19 417.35 576.11 802.40 316.91 993.11 340.30 836.46 426.08 788.72 546.10 932.80 566.89
00010313 00000086 734.05 131.73 417.51 571.80 803.12 316.89 994.22 339.58 837.80 426.65 791.07 547.70 933.42 567.77
00010314 00000087 735.91 128.91 417.55 570.88 803.68 317.54 995.98 338.99 837.80 426.78 791.75 547.73 934.61 566.51
00010315 00000088 737.85 136.91 418.42 562.65 810.72 314.60 996.23 339.96 840.31 423.27 793.71 546.51 928.92 567.27
00010316 00000089 739.99 135.65 418.46 559.30 813.27 314.16 999.07 339.23 843.38 421.39 793.84 543.72 929.14 564.47
00010317 00000090 741.62 133.68 418.78 560.43 815.09 314.09 1001.27 340.24 845.60 422.01 794.38 541.97 931.15 563.79
00010318 00000091 744.83 134.36 416.80 564.95 818.09 320.44 998.82 343.16 856.09 422.96 798.22 543.99 937.65 563.83
00010319 00000092 744.18 130.46 420.32 564.13 818.60 312.89 1003.82 343.05 847.19 422.82 795.73 537.81 935.91 563.27
00010320 00000093 746.04 130.90 419.02 563.40 820.93 314.51 1005.17 344.48 849.69 420.06 797.65 537.17 937.78 562.56
00010321 00000094 748.59 139.61 417.05 555.04 824.14 317.33 1006.72 349.53 851.80 421.17 800.10 535.74 939.28 562.86
00010322 00000095 750.54 141.80 416.45 552.64 825.50 316.47 1007.28 350.49 853.51 423.89 802.52 535.39 940.54 563.85
00010323 DELETE   753.09 143.33 418.15 552.93 830.02 319.74 1015.94 353.36 862.00 422.86 810.55 538.20 946.62 565.63
00010324 DELETE   754.38 142.02 418.20 555.93 832.06 319.29 1019.69 353.15 865.98 422.12 813.08 538.31 948.69 566.01
00010325 00000098 756.29 139.91 418.00 557.93 834.81 320.21 1022.36 353.43 869.73 421.14 815.82 537.68 950.82 564.84
00010326 DELETE   765.39 137.57 410.74 560.44 840.60 324.30 1014.73 350.68 873.26 424.20 817.15 537.85 949.98 560.04
00010327 DELETE   767.31 137.73 408.52 561.58 842.27 323.43 1015.13 349.91 873.23 422.30 818.87 537.25 951.99 559.58
00010328 00000101 769.25 136.63 408.34 564.63 844.29 321.46 1017.61 348.88 874.59 420.64 819.44 536.92 952.82 560.17
00010329 00000102 770.51 135.45 408.65 567.51 845.85 319.03 1020.13 348.75 875.82 419.68 819.96 535.14 956.42 560.41
00010330 00000103 772.00 136.87 411.33 566.65 848.45 317.75 1023.23 347.77 877.84 417.69 821.53 535.72 957.96 561.21
00010331 00000104 773.17 138.66 412.71 565.10 850.29 316.53 1025.51 346.09 879.50 417.07 823.80 536.48 959.89 561.63
00010332 00000105 774.64 139.92 413.29 564.83 850.65 314.94 1028.81 344.15 881.69 419.17 826.51 538.55 963.68 563.48
00010333 00000106 774.88 142.00 414.53 563.22 850.98 314.62 1030.65 343.55 883.35 420.17 827.40 539.69 965.46 564.53
00010334 00000107 775.19 142.59 414.40 561.85 850.91 314.37 1032.99 343.73 884.67 419.00 827.82 540.76 967.79 565.85
00010335 00000108 776.87 137.41 414.44 567.20 852.23 313.68 1033.22 344.21 885.27 417.59 828.62 540.06 968.23 566.21
00010336 00000109 777.45 136.81 414.32 568.18 852.43 313.37 1033.63 344.09 885.61 417.20 828.82 539.95 968.96 566.23
00010337 00000110 777.20 135.98 414.63 569.38 851.63 312.74 1033.59 343.35 885.76 416.80 829.00 540.07 970.59 566.22
00010338 00000111 777.90 135.35 414.28 569.67 852.21 313.40 1033.77 343.75 885.31 415.91 828.75 540.26 970.58 566.22
00010339 00000112 777.91 134.89 414.28 569.38 851.73 313.59 1034.30 343.87 885.23 415.34 828.23 540.48 971.16 566.29
00010340 00000113 777.46 134.08 416.30 568.94 851.61 313.71 1033.76 343.21 885.19 414.32 828.87 539.16 971.38 564.33
00010341 00000114 778.15 132.72 415.43 569.53 851.81 313.44 1034.06 343.04 885.13 413.93 828.47 538.61 971.37 563.83
00010342 00000115 776.69 130.20 416.22 569.82 851.08 313.46 1034.73 343.42 885.72 412.04 827.70 538.73 971.10 564.13
00010343 00000116 777.56 129.65 416.85 569.41 851.14 312.75 1035.00 342.88 885.19 411.01 826.95 537.88 970.51 563.38
00010344 00000117 778.50 129.30 417.13 570.07 850.90 311.93 1034.11 341.34 885.41 410.42 828.04 537.58 971.68 562.66
00010345 00000118 778.37 128.21 417.25 569.00 851.69 311.68 1033.69 341.81 885.89 410.15 828.50 536.10 970.60 561.79
00010346 00000119 778.48 134.40 417.36 562.50 853.10 314.91 1030.18 345.62 883.78 409.04 827.95 534.45 969.28 560.22
00010347 00000120 778.85 138.20 415.64 558.03 854.32 317.83 1028.12 348.03 882.81 409.38 827.94 533.91 967.26 559.05
00010348 00000121 779.32 135.08 414.68 560.53 852.90 317.53 1026.88 346.44 881.38 409.30 827.58 534.07 966.03 558.28
00010349 00000122 778.60 133.58 415.43 560.67 851.61 317.69 1026.59 345.33 881.65 409.80 828.17 534.00 967.41 557.22
00010350 00000123 778.40 134.81 414.83 558.52 851.20 318.60 1025.64 344.68 881.01 410.72 828.40 534.55 966.55 556.57
00010351 00000124 778.54 134.68 413.15 558.22 851.07 318.73 1024.31 344.35 880.56 411.78 828.90 534.17 965.45 555.84
00010352 00000125 778.68 136.59 412.37 555.71 849.60 320.68 1020.67 344.96 876.81 413.18 828.11 534.85 964.21 555.23
00010353 00000126 778.82 137.40 411.62 556.42 848.51 321.05 1019.40 344.06 875.57 413.39 829.32 535.78 964.94 555.28
00010354 00000127 776.18 134.44 412.84 559.87 844.41 321.09 1016.79 341.62 872.87 414.49 828.29 537.88 963.65 555.39
00010355 00000128 774.71 130.71 413.62 561.25 842.34 320.89 1016.82 341.03 872.09 416.85 828.04 539.57 962.50 556.82
00010356 00000129 773.42 131.20 413.68 564.29 839.88 320.90 1015.16 338.59 871.19 418.72 828.43 541.33 963.18 556.75
00010357 00000130 772.75 132.94 414.17 560.80 837.95 320.27 1015.20 336.75 871.32 421.45 829.44 542.48 965.06 556.90
00010358 00000131 771.41 130.96 414.92 560.74 836.80 319.17 1015.78 334.95 872.96 423.30 829.43 543.60 965.62 557.42
00010359 00000132 770.60 130.97 416.04 561.39 835.81 319.13 1014.88 333.48 873.17 422.76 829.11 544.21 965.25 556.96
00010360 00000133 769.90 129.12 416.14 560.55 835.28 318.87 1014.03 331.84 873.90 422.61 830.35 544.15 965.42 555.71
00010361 00000134 770.20 129.24 415.25 560.14 834.94 317.52 1014.13 330.29 874.09 422.36 830.35 544.09 964.73 555.51
00010362 00000135 769.79 125.46 414.14 558.38 834.50 317.19 1013.04 329.18 874.35 421.80 831.19 542.79 964.12 553.42
00010363 00000136 769.56 123.04 413.97 556.59 833.93 317.89 1012.60 328.43 874.77 421.40 830.65 542.61 962.39 552.07
00010364 00000137 770.09 122.94 411.49 550.86 833.37 317.46 1012.26 326.57 875.15 420.71 830.21 541.91 962.11 550.24
00010365 00000138 771.09 122.98 410.62 549.47 834.04 316.96 1012.68 326.74 874.87 420.66 830.04 540.57 961.62 549.48
00010366 00000139 768.19 115.29 416.64 558.41 833.73 308.17 1020.50 322.61 873.72 416.53 834.21 539.76 962.39 552.22
00010367 00000140 768.92 114.30 415.65 557.13 833.47 306.48 1021.01 321.58 874.20 416.36 833.68 538.46 964.30 551.36
00010368 00000141 767.68 111.90 416.11 557.82 833.04 305.84 1021.76 321.42 874.48 414.17 832.93 536.34 964.99 549.72
00010369 00000142 769.91 116.72 413.55 549.12 833.23 303.98 1022.19 320.33 874.95 413.97 832.47 534.96 966.16 548.87
00010370 00000143 770.24 115.83 412.82 544.68 831.18 303.92 1021.40 319.05 874.77 414.14 832.39 534.04 967.28 547.08
00010371 00000144 770.11 110.91 412.38 548.09 829.98 305.29 1021.21 319.90 875.37 414.22 832.09 533.72 969.35 546.67
00010372 00000145 768.75 111.16 414.16 546.81 829.21 310.05 1019.25 322.19 875.83 412.38 832.90 533.25 969.10 543.97
00010373 00000146 768.36 114.57 412.58 541.98 829.95 312.11 1018.64 323.85 875.48 410.89 833.18 532.06 968.05 542.29
00010374 00000147 767.46 111.07 412.47 545.95 828.66 312.56 1017.50 322.71 874.43 410.43 833.56 532.55 968.57 541.53
00010375 00000148 767.45 110.47 412.27 545.15 828.00 312.07 1017.32 322.29 873.79 411.34 833.63 532.32 969.51 541.23
00010376 00000149 768.01 114.05 411.20 540.58 827.75 309.80 1018.98 320.52 873.90 411.29 833.73 532.28 970.30 541.59
00010377 00000150 768.08 112.92 411.09 541.26 827.49 308.04 1020.71 318.87 873.79 412.00 832.93 532.58 970.16 542.23
00010378 00000151 769.01 116.16 410.89 538.39 828.33 304.82 1023.24 317.06 876.00 412.30 833.74 532.62 971.32 543.39
00010379 00000152 768.57 115.63 411.41 539.23 828.11 303.16 1024.85 316.02 877.46 412.43 833.85 533.09 971.88 544.39
00010380 00000153 769.84 115.88 411.58 540.27 829.83 301.90 1026.12 315.31 879.04 413.62 836.13 534.82 972.36 546.50
00010381 00000154 769.31 117.97 412.13 538.19 830.53 302.43 1026.64 315.52 880.10 413.09 836.00 535.24 971.78 546.71
00010382 00000155 769.14 114.15 413.64 542.65 831.57 301.87 1027.66 316.56 881.46 414.09 836.14 534.77 972.92 547.58
00010383 00000156 768.26 108.47 415.33 550.62 830.66 303.00 1027.01 317.28 879.36 414.43 835.77 536.27 972.01 548.80
00010384 00000157 770.11 112.81 414.33 545.94 832.86 302.86 1027.27 317.14 881.04 414.99 837.11 536.78 972.62 549.12
00010385 00000158 770.77 114.71 414.20 546.30 833.97 302.15 1027.92 316.42 881.71 415.13 838.99 537.15 973.39 549.41
00010386 00000159 770.77 115.23 413.78 546.85 833.93 302.52 1027.27 316.75 880.54 415.41 839.29 538.11 971.22 550.17
00010387 00000160 770.57 115.50 414.62 548.53 834.78 302.82 1027.60 317.50 880.54 415.68 839.30 538.21 970.75 550.62
00010388 00000161 770.57 113.38 416.38 552.16 834.45 303.77 1027.10 317.82 880.42 416.47 839.66 539.49 970.70 551.45
00010389 00000162 770.88 115.27 416.67 551.46 834.58 304.07 1026.85 318.06 880.08 417.19 840.30 539.82 970.92 551.60
00010390 00000163 770.98 113.78 417.53 552.52 834.47 305.22 1026.97 318.53 880.01 417.57 840.02 540.12 970.66 551.43
00010391 00000164 770.03 113.42 418.76 555.57 834.32 305.80 1027.39 318.94 880.91 418.15 840.07 540.97 971.89 552.10
00010392 00000165 772.60 119.68 414.84 548.93 833.55 315.66 1020.10 322.33 880.53 420.17 834.06 543.42 973.05 549.29
00010393 00000166 772.22 119.47 416.34 550.07 833.05 315.73 1020.08 322.43 879.87 420.89 834.14 543.98 973.56 549.81
00010394 00000167 772.07 123.86 418.03 549.40 833.80 315.91 1019.85 323.71 879.26 421.13 834.50 543.34 973.15 550.16
00010395 00000168 772.96 121.32 417.19 551.60 833.57 316.39 1018.97 324.01 877.81 421.28 833.38 543.25 972.74 549.97
00010396 00000169 774.24 124.92 418.23 553.76 834.36 316.43 1019.99 324.43 877.17 420.33 833.34 544.73 975.44 551.91
