Video ID: 	4xuEdgSdgYs
H: 	2160
W: 	3840
FPS: 	24.0

FRAME INDEX X0 Y0 W H [Landmarks (5 Points)]

00011236 00000000 1822.87 374.22 438.70 667.92 1887.64 668.11 2066.55 683.67 1930.71 813.44 1911.14 898.94 2043.40 910.44
00011237 00000001 1817.25 374.45 442.40 672.54 1885.23 673.47 2066.62 690.22 1931.44 820.47 1906.25 902.38 2042.49 914.83
00011238 00000002 1811.63 371.32 446.45 678.55 1882.64 675.98 2065.40 694.47 1930.33 824.67 1902.22 905.10 2039.44 918.94
00011239 DELETE   1807.62 375.76 448.18 677.44 1879.10 679.17 2065.41 698.23 1929.17 828.10 1898.33 907.69 2038.51 921.74
00011240 00000004 1801.96 389.39 450.98 670.12 1874.41 687.31 2063.24 707.63 1927.09 832.26 1892.35 912.67 2033.22 927.92
00011241 00000005 1795.88 399.28 459.85 665.29 1872.78 690.38 2054.50 708.18 1920.93 835.35 1892.22 911.51 2030.34 923.26
00011242 00000006 1795.71 401.11 459.05 663.77 1872.44 692.47 2053.14 710.18 1919.85 837.63 1893.00 912.90 2029.91 924.36
00011243 00000007 1794.77 401.70 460.04 662.68 1872.69 692.89 2053.30 710.38 1920.44 838.35 1894.11 913.44 2029.69 924.77
00011244 00000008 1800.12 392.21 451.90 668.19 1873.92 691.21 2062.69 709.60 1928.56 833.92 1893.79 914.94 2033.65 928.72
00011245 00000009 1801.01 390.01 452.84 666.82 1874.74 687.91 2066.49 708.09 1930.57 833.51 1894.19 914.16 2034.36 929.16
00011246 00000010 1801.40 387.15 455.35 664.71 1875.91 684.63 2071.88 707.34 1933.18 835.07 1894.24 910.56 2038.23 927.35
00011247 00000011 1802.30 381.24 454.82 666.28 1876.63 683.65 2075.48 706.24 1935.99 835.61 1894.77 909.14 2040.53 926.13
00011248 00000012 1812.57 375.57 446.09 663.07 1885.58 673.08 2078.54 696.55 1941.39 827.87 1903.31 903.58 2042.48 921.10
00011249 00000013 1817.68 376.35 443.55 658.69 1889.31 667.15 2079.77 691.60 1941.76 822.21 1906.87 898.60 2044.39 916.80
00011250 00000014 1822.16 378.65 441.26 654.44 1892.52 657.81 2080.48 683.55 1940.60 810.77 1908.73 893.37 2043.29 912.37
00011251 DELETE   1828.33 363.40 435.57 662.39 1896.42 649.58 2075.09 673.17 1936.01 789.39 1908.54 881.38 2040.17 899.21
00011252 DELETE   1830.57 329.57 443.22 680.99 1901.95 613.54 2066.17 644.89 1914.10 757.93 1892.92 848.71 2023.26 872.47
00011253 DELETE   1828.90 312.31 450.42 688.35 1903.71 600.05 2062.77 635.62 1910.14 744.01 1886.82 834.18 2010.02 861.05
00011254 00000018 1833.38 303.61 446.93 685.16 1906.30 587.60 2063.29 627.92 1906.70 736.09 1884.12 826.81 2002.08 857.16
00011255 DELETE   1839.29 308.61 441.10 676.26 1909.85 582.68 2062.90 624.80 1906.96 730.43 1884.95 821.79 2001.21 853.37
00011256 00000020 1845.90 306.70 438.35 670.43 1912.16 576.71 2064.17 619.49 1909.35 721.84 1887.48 813.73 2000.95 846.15
00011257 00000021 1847.95 306.67 438.80 668.10 1913.11 574.17 2064.66 616.25 1909.73 717.66 1887.18 810.26 2000.48 842.32
00011258 00000022 1848.64 306.00 439.68 666.78 1913.08 572.80 2064.01 611.94 1909.13 711.98 1885.11 808.85 1997.22 838.97
00011259 00000023 1856.01 300.83 435.33 671.36 1907.21 569.56 2063.12 606.25 1904.44 707.45 1884.42 812.23 1999.22 838.54
00011260 00000024 1856.23 295.35 435.44 681.27 1907.47 569.00 2059.70 603.50 1900.93 703.84 1882.23 812.66 1992.23 837.18
00011261 00000025 1858.33 295.37 435.19 683.27 1908.50 569.79 2060.15 605.04 1901.77 705.53 1883.77 813.38 1993.65 838.40
00011262 00000026 1851.10 302.77 441.61 676.69 1914.50 572.63 2062.71 608.80 1909.02 710.59 1885.46 811.59 1992.70 839.19
00011263 00000027 1856.52 308.52 443.27 668.18 1919.73 574.87 2067.59 612.20 1915.60 715.20 1893.72 815.94 1999.93 843.95
00011264 00000028 1863.81 307.76 443.89 679.36 1930.42 581.14 2076.26 622.14 1926.30 725.88 1904.77 823.66 2010.46 854.07
00011265 00000029 1866.00 309.21 446.83 682.35 1933.34 584.31 2077.55 625.54 1930.09 729.89 1909.62 826.11 2014.04 856.64
00011266 00000030 1868.76 303.62 446.14 690.23 1935.64 584.15 2079.85 626.48 1932.62 731.21 1912.35 825.98 2016.76 857.24
00011267 00000031 1870.42 304.88 445.12 690.92 1937.41 584.46 2080.60 627.81 1932.58 732.06 1913.69 825.71 2017.32 857.66
00011268 00000032 1865.07 306.90 434.21 690.60 1924.25 588.26 2066.89 633.58 1916.30 737.35 1902.42 826.82 2008.74 860.42
00011269 00000033 1853.80 308.66 435.67 695.19 1911.89 595.27 2049.01 633.05 1896.18 741.38 1892.02 833.79 1998.63 860.98
00011270 00000034 1828.67 309.53 442.55 703.58 1888.90 600.02 2026.25 631.65 1867.15 741.60 1873.53 845.86 1980.46 867.71
00011271 00000035 1809.01 308.84 436.27 715.94 1868.22 600.67 2007.08 629.26 1848.00 741.01 1856.15 855.65 1962.45 876.35
00011272 00000036 1786.85 295.67 433.12 710.14 1845.85 588.67 1982.29 621.69 1826.14 722.63 1831.34 838.97 1931.87 861.75
00011273 DELETE   1785.79 293.10 433.25 688.95 1844.29 572.77 1981.76 603.59 1822.38 699.36 1822.46 819.03 1926.28 842.14
00011274 DELETE   1792.76 292.49 426.26 668.40 1847.69 557.84 1988.33 585.21 1828.91 681.14 1824.56 802.06 1933.39 824.32
00011275 DELETE   1797.42 288.12 432.50 656.74 1858.36 550.46 2000.45 573.28 1841.66 668.32 1834.55 790.05 1944.76 809.49
00011276 00000040 1835.87 281.89 430.38 661.83 1898.56 539.89 2036.77 563.52 1877.63 659.78 1871.37 779.30 1975.80 795.08
00011277 00000041 1857.03 281.84 424.11 666.30 1915.76 536.50 2054.03 561.39 1896.56 657.51 1886.36 782.10 1988.62 798.81
00011278 00000042 1864.40 268.68 426.72 689.77 1922.37 537.07 2064.21 564.70 1906.51 660.12 1892.39 787.97 1997.42 807.23
00011279 00000043 1862.92 269.89 428.45 693.14 1921.40 539.56 2064.92 567.60 1903.18 665.33 1891.49 793.61 1999.70 813.04
00011280 00000044 1842.48 303.07 419.50 671.10 1895.59 555.74 2038.50 580.86 1878.62 679.19 1870.29 808.21 1978.13 825.41
00011281 00000045 1816.89 289.74 426.00 683.61 1872.99 559.03 2016.47 587.38 1857.11 685.43 1849.05 807.91 1951.48 831.41
00011282 00000046 1795.35 285.45 426.99 684.96 1850.20 567.01 1992.29 592.59 1833.41 692.39 1822.43 816.81 1922.34 837.01
00011283 00000047 1775.66 293.41 428.89 678.01 1834.04 573.21 1969.62 600.80 1815.28 700.94 1809.58 820.30 1905.68 840.83
00011284 00000048 1754.54 294.71 438.85 687.44 1820.73 584.31 1952.94 614.96 1800.16 716.89 1800.33 830.14 1895.20 851.61
00011285 00000049 1757.59 297.42 438.62 688.23 1823.66 587.54 1955.47 615.44 1803.87 718.08 1803.77 833.38 1898.15 852.84
00011286 00000050 1768.25 295.37 435.70 691.01 1830.60 586.57 1963.36 614.33 1808.27 716.13 1808.85 833.96 1903.03 853.11
00011287 00000051 1781.11 301.37 429.66 682.61 1839.46 585.43 1973.63 612.74 1817.47 712.59 1814.44 831.97 1910.78 851.38
00011288 00000052 1792.64 297.28 433.94 686.81 1854.83 578.59 1991.59 609.59 1833.92 710.22 1827.01 825.96 1923.62 849.28
00011289 00000053 1800.31 303.34 442.22 685.42 1867.00 576.08 2003.84 613.63 1843.28 710.18 1837.32 823.09 1933.11 851.55
00011290 00000054 1814.91 303.73 438.01 686.12 1881.69 576.59 2013.06 617.94 1850.41 710.90 1849.59 819.93 1943.96 851.08
00011291 00000055 1824.31 304.23 436.13 684.97 1891.83 572.63 2021.45 618.78 1860.62 708.50 1858.86 816.71 1951.69 851.27
00011292 00000056 1856.16 305.72 424.33 678.94 1906.93 576.18 2041.51 615.73 1882.61 704.26 1873.83 816.77 1971.59 845.46
00011293 00000057 1848.83 307.53 436.88 682.09 1913.40 572.76 2043.80 611.56 1886.47 702.44 1877.25 815.20 1972.65 843.87
00011294 00000058 1851.66 308.96 436.86 678.06 1915.36 570.86 2048.09 610.72 1889.91 699.01 1879.12 812.30 1975.90 841.85
00011295 00000059 1863.63 305.89 427.24 675.88 1914.98 571.40 2052.69 609.77 1892.19 697.98 1881.74 812.47 1982.86 840.22
00011296 00000060 1864.80 307.54 427.75 671.64 1916.64 569.47 2055.92 609.39 1894.34 698.45 1883.38 810.90 1985.73 839.73
00011297 DELETE   1856.55 308.35 436.92 674.63 1920.37 569.36 2057.51 610.23 1896.61 697.84 1884.37 808.38 1984.56 838.90
00011298 00000062 1857.55 309.00 437.01 673.03 1921.24 570.41 2059.13 611.42 1898.37 699.79 1885.29 809.23 1986.14 839.82
00011299 00000063 1865.65 307.78 430.52 668.55 1917.26 571.66 2059.51 612.48 1896.81 702.75 1885.11 810.74 1990.42 840.32
00011300 00000064 1863.98 306.97 431.68 668.47 1916.75 571.49 2058.42 611.65 1895.44 701.28 1884.02 809.32 1989.65 838.21
00011301 00000065 1864.87 305.55 429.43 670.34 1916.20 569.37 2057.42 609.28 1895.25 698.60 1883.13 809.39 1987.51 838.12
00011302 00000066 1864.58 303.09 425.83 670.01 1915.05 566.73 2054.76 605.03 1894.09 694.81 1883.29 805.95 1986.38 833.22
00011303 00000067 1861.09 302.93 427.36 667.72 1912.30 563.75 2051.57 598.84 1891.10 691.03 1881.12 804.01 1986.46 828.72
00011304 DELETE   1851.69 303.29 423.58 659.30 1903.07 557.05 2044.09 589.51 1880.33 684.05 1874.64 798.51 1983.89 820.87
00011305 00000069 1849.77 301.84 420.46 662.33 1901.30 557.11 2040.63 587.44 1879.44 682.60 1874.53 798.69 1982.80 819.50
00011306 DELETE   1847.70 306.12 419.62 658.13 1895.45 564.86 2036.42 593.23 1877.56 681.72 1873.10 801.48 1980.29 820.89
00011307 DELETE   1843.35 303.07 417.56 658.87 1891.88 563.82 2033.55 590.28 1877.23 679.56 1870.60 799.17 1978.81 817.49
00011308 00000072 1827.49 286.74 427.99 663.96 1883.46 556.23 2025.04 576.02 1865.95 669.16 1864.17 792.49 1970.36 805.18
00011309 DELETE   1820.39 276.58 429.89 671.24 1875.03 552.17 2018.93 568.68 1858.98 666.02 1857.91 790.63 1965.70 801.26
00011310 00000074 1815.58 275.63 427.48 670.97 1869.66 551.17 2010.55 566.65 1853.44 665.08 1853.57 791.29 1957.22 801.16
00011311 00000075 1807.39 269.40 424.55 677.51 1861.53 552.26 1999.05 559.53 1854.24 662.87 1849.51 796.83 1951.70 805.18
00011312 00000076 1799.74 277.46 424.09 679.95 1852.63 554.62 1988.64 558.63 1843.12 662.45 1843.50 802.38 1942.10 808.29
00011313 00000077 1794.54 278.30 427.50 678.22 1848.46 552.30 1984.80 555.96 1839.03 661.35 1839.70 800.95 1938.01 806.54
00011314 00000078 1791.90 278.77 427.69 673.28 1845.19 549.48 1982.86 554.63 1836.07 656.89 1834.82 796.19 1933.44 803.12
00011315 00000079 1788.10 278.28 430.91 667.09 1841.54 547.35 1979.05 552.67 1831.43 652.97 1829.21 791.59 1927.73 798.85
00011316 00000080 1774.95 278.25 433.52 653.88 1835.42 543.54 1970.86 551.14 1816.92 651.38 1814.69 778.01 1924.08 782.54
00011317 00000081 1772.95 278.80 433.30 651.37 1833.87 543.58 1970.55 550.05 1816.76 649.03 1813.46 776.84 1924.10 780.73
00011318 00000082 1770.80 272.85 432.18 656.54 1831.95 544.01 1970.68 548.83 1817.96 650.16 1813.90 777.49 1926.09 780.44
00011319 00000083 1766.56 271.67 434.13 657.97 1828.21 544.54 1965.74 545.76 1814.24 648.74 1812.02 776.93 1921.73 777.28
00011320 00000084 1748.00 278.21 430.55 663.53 1802.71 546.24 1932.78 545.10 1780.42 653.46 1788.46 786.47 1887.47 784.42
00011321 00000085 1746.07 291.60 418.07 648.92 1795.37 549.77 1924.22 547.30 1775.71 654.59 1782.67 789.04 1876.89 788.44
00011322 00000086 1742.07 288.82 429.20 647.29 1797.84 546.71 1921.58 549.18 1770.55 655.72 1781.91 783.19 1874.32 783.43
00011323 00000087 1744.44 283.34 430.64 644.75 1798.50 544.65 1932.77 543.02 1783.46 650.84 1787.20 780.25 1889.81 778.02
00011324 00000088 1751.31 283.98 427.17 655.16 1804.33 549.56 1938.63 539.51 1788.80 650.04 1800.34 787.69 1908.10 779.57
00011325 00000089 1747.52 288.81 426.84 650.67 1797.91 549.20 1929.29 540.65 1780.69 651.25 1793.86 786.68 1897.55 779.36
00011326 00000090 1745.56 282.98 425.30 647.69 1793.60 547.19 1925.95 539.89 1776.89 647.30 1786.28 779.94 1890.45 773.37
00011327 00000091 1745.50 287.10 429.87 638.96 1795.94 547.78 1930.22 539.53 1783.13 646.13 1790.40 775.73 1899.42 768.71
00011328 DELETE   1752.93 281.91 431.20 660.54 1810.20 556.86 1945.22 540.80 1801.36 657.51 1813.39 791.09 1925.31 778.99
00011329 00000093 1752.18 287.03 426.81 659.50 1806.47 560.66 1938.01 543.34 1793.06 660.51 1810.05 796.13 1918.48 782.67
00011330 00000094 1750.66 309.67 415.15 637.29 1794.80 566.75 1926.46 549.16 1787.84 662.95 1803.32 796.86 1906.40 785.35
00011331 00000095 1744.66 306.36 413.06 638.85 1785.70 567.65 1914.63 550.53 1774.70 663.30 1794.38 795.95 1891.92 784.78
00011332 00000096 1739.29 303.91 419.25 644.14 1782.19 568.30 1913.79 548.03 1776.69 662.69 1792.45 797.22 1893.33 784.17
00011333 00000097 1737.31 294.56 423.44 656.34 1784.01 570.25 1919.21 545.18 1783.57 662.76 1797.70 800.30 1901.96 783.59
00011334 00000098 1738.01 298.31 424.36 652.35 1776.93 569.60 1918.93 542.30 1785.88 665.32 1794.23 799.81 1902.82 781.53
00011335 DELETE   1733.83 297.56 422.69 647.07 1776.51 572.15 1912.42 543.94 1780.15 664.18 1794.74 799.60 1898.89 780.54
00011336 00000100 1725.25 313.57 415.45 631.21 1766.24 572.28 1889.54 545.42 1755.21 664.13 1778.99 800.48 1877.47 778.20
00011337 00000101 1720.80 312.83 418.80 638.16 1763.33 575.65 1887.58 546.47 1753.90 665.42 1780.11 803.86 1878.44 780.18
00011338 00000102 1718.63 312.47 422.01 648.69 1759.51 581.83 1896.19 548.88 1763.45 672.10 1785.95 806.42 1889.26 783.33
00011339 00000103 1720.70 310.01 424.35 644.95 1762.74 582.07 1900.38 550.61 1767.21 669.51 1792.35 806.85 1896.32 784.55
00011340 00000104 1722.09 309.92 419.64 638.43 1764.87 580.93 1890.67 551.89 1756.97 668.40 1781.74 805.45 1882.95 782.15
00011341 00000105 1722.87 308.79 419.82 635.18 1764.27 581.37 1889.87 553.04 1755.77 669.09 1780.30 803.36 1881.45 780.52
00011342 00000106 1723.75 307.99 419.00 633.16 1764.49 580.23 1893.03 552.52 1758.45 669.13 1780.75 803.13 1885.53 780.76
00011343 00000107 1725.26 310.04 419.79 638.39 1765.64 584.00 1900.34 551.76 1768.51 673.33 1786.02 805.15 1890.32 783.03
00011344 00000108 1730.70 312.51 420.52 646.00 1768.58 588.34 1902.98 553.92 1771.73 677.55 1790.00 813.34 1892.37 789.46
00011345 00000109 1733.18 315.03 420.33 644.04 1770.91 587.99 1905.22 554.77 1773.33 678.00 1790.22 814.12 1892.99 791.03
00011346 00000110 1733.27 314.41 424.08 639.04 1773.92 589.21 1907.55 556.25 1773.21 674.43 1795.45 813.86 1895.66 791.20
00011347 00000111 1735.53 313.61 423.32 641.16 1776.35 588.88 1909.91 556.91 1774.87 675.19 1797.08 814.65 1897.47 792.60
00011348 00000112 1739.79 321.62 420.19 641.42 1778.62 590.91 1913.18 560.79 1780.64 683.08 1795.70 819.20 1900.19 798.35
00011349 00000113 1741.15 322.72 420.48 641.40 1780.15 591.03 1914.60 561.55 1781.92 684.18 1797.02 820.21 1901.78 799.80
00011350 00000114 1742.60 323.66 420.80 641.01 1781.11 591.29 1915.82 562.06 1783.08 683.83 1797.86 820.23 1902.50 800.06
00011351 00000115 1744.06 320.82 420.65 644.11 1782.17 591.54 1917.17 561.83 1783.73 682.83 1797.98 820.49 1902.46 800.07
00011352 00000116 1746.09 325.02 419.31 642.59 1784.21 592.00 1918.80 562.56 1785.57 683.67 1799.14 821.96 1903.10 801.61
00011353 00000117 1746.22 325.82 418.72 643.61 1784.54 593.37 1918.89 563.37 1786.00 684.53 1798.82 823.91 1902.16 803.14
00011354 00000118 1745.36 326.95 419.13 643.73 1784.31 593.73 1918.82 563.80 1786.06 684.75 1798.45 824.36 1901.57 803.61
00011355 00000119 1744.45 328.06 418.91 643.01 1783.98 593.79 1918.65 564.10 1786.15 684.82 1797.83 824.70 1900.90 804.13
00011356 00000120 1744.53 328.19 417.00 645.03 1784.20 594.25 1918.68 565.57 1786.53 686.14 1798.43 825.12 1901.00 805.12
00011357 00000121 1745.99 329.83 416.41 644.13 1784.99 593.94 1919.77 566.11 1787.18 686.97 1798.77 826.09 1901.36 806.59
00011358 00000122 1747.16 329.11 416.46 645.51 1786.08 593.19 1920.60 566.21 1787.97 687.61 1799.25 826.49 1901.69 807.55
00011359 00000123 1748.64 328.58 413.77 646.71 1788.11 593.02 1922.45 567.16 1788.65 688.18 1800.18 826.41 1903.14 808.13
00011360 00000124 1749.84 326.33 414.87 648.30 1789.70 591.89 1925.28 566.58 1791.00 686.81 1800.76 825.29 1904.83 807.48
00011361 00000125 1750.23 325.09 416.71 651.01 1790.70 591.98 1926.95 567.05 1792.29 686.61 1801.55 825.24 1906.61 807.71
00011362 00000126 1750.79 323.55 417.24 653.86 1791.15 591.13 1928.19 567.57 1793.06 687.01 1802.49 825.04 1907.76 808.47
00011363 00000127 1750.63 323.69 417.06 654.89 1791.41 591.14 1928.54 568.67 1793.30 687.58 1802.43 824.86 1907.78 809.06
00011364 00000128 1750.18 323.64 419.76 654.06 1791.98 590.25 1929.97 566.93 1793.10 682.84 1801.07 822.36 1907.77 806.21
00011365 00000129 1751.97 320.51 420.06 658.15 1793.83 589.87 1932.90 566.58 1796.66 682.33 1804.28 822.66 1910.85 806.51
00011366 00000130 1755.50 318.68 421.19 660.82 1796.76 591.02 1936.35 569.93 1799.49 687.93 1808.33 824.81 1914.58 810.13
00011367 00000131 1755.60 320.98 423.04 659.34 1797.62 592.87 1938.53 571.86 1801.46 690.52 1809.81 827.29 1917.13 812.80
00011368 00000132 1759.61 317.82 423.95 649.10 1804.41 588.01 1938.71 572.89 1799.32 681.82 1820.63 821.30 1921.12 810.05
00011369 00000133 1763.65 319.71 423.88 647.74 1808.64 591.23 1942.80 576.59 1802.67 681.77 1821.90 822.27 1922.62 811.61
00011370 DELETE   1761.57 326.11 427.59 652.21 1802.98 597.60 1946.28 576.50 1808.50 687.89 1813.36 827.69 1924.34 813.32
00011371 00000135 1761.37 313.22 432.04 654.41 1808.31 592.05 1948.15 575.14 1807.42 684.38 1824.25 825.79 1927.87 813.74
00011372 00000136 1759.53 315.57 431.90 664.40 1809.53 595.46 1945.96 574.05 1809.76 690.18 1819.76 830.87 1927.50 815.86
00011373 00000137 1760.94 313.58 431.64 667.06 1810.65 595.68 1947.07 574.36 1810.60 690.93 1821.37 831.45 1928.90 816.42
00011374 00000138 1763.05 313.88 431.06 669.18 1812.35 596.43 1947.99 575.69 1813.31 692.98 1823.18 833.02 1930.09 818.43
00011375 00000139 1763.76 315.82 432.66 669.60 1813.73 596.74 1949.48 576.30 1813.23 694.85 1823.83 834.42 1931.46 819.82
00011376 00000140 1767.03 319.90 432.48 670.11 1817.36 599.87 1952.33 579.22 1816.09 697.02 1827.19 837.27 1934.65 822.46
00011377 00000141 1769.07 322.25 431.41 668.86 1819.75 601.37 1954.05 581.44 1816.37 698.84 1828.11 839.25 1935.97 824.84
00011378 00000142 1768.95 326.17 431.99 667.94 1820.82 603.19 1954.23 583.28 1816.22 700.98 1828.52 841.82 1937.38 827.41
00011379 00000143 1769.23 326.00 431.32 670.68 1820.72 605.12 1954.71 585.59 1816.68 702.13 1828.78 842.91 1938.61 828.75
00011380 00000144 1771.46 329.13 432.87 675.94 1822.41 607.62 1956.65 590.52 1816.83 705.71 1829.79 846.37 1940.34 834.02
00011381 00000145 1771.75 329.05 432.18 679.65 1822.88 609.40 1956.64 593.12 1818.00 707.21 1830.37 848.15 1940.66 836.51
00011382 00000146 1771.14 328.91 432.07 682.01 1822.77 611.63 1956.40 594.68 1817.72 708.72 1831.12 849.94 1940.17 837.74
00011383 00000147 1771.58 328.23 432.13 685.08 1823.48 613.60 1957.23 596.15 1817.58 711.68 1832.17 853.18 1940.39 840.51
00011384 00000148 1771.50 331.60 432.22 685.27 1824.53 615.60 1958.21 598.65 1818.39 716.01 1832.36 857.22 1941.16 844.90
00011385 00000149 1772.02 335.38 432.11 683.42 1826.84 618.38 1959.09 601.93 1821.03 720.47 1833.88 860.08 1941.44 848.10
00011386 00000150 1771.68 336.18 431.96 684.27 1826.68 620.32 1959.10 604.00 1821.54 722.60 1833.90 861.93 1941.69 850.00
00011387 00000151 1773.27 336.18 431.40 687.37 1827.65 621.36 1959.66 605.49 1821.62 724.53 1835.00 863.96 1942.61 852.34
00011388 00000152 1775.04 342.06 426.29 684.65 1828.21 627.62 1959.32 612.37 1822.17 730.39 1836.67 868.40 1944.14 856.94
00011389 00000153 1774.91 348.46 427.09 675.04 1827.40 630.57 1959.17 617.11 1822.36 733.07 1835.51 867.91 1944.67 857.63
00011390 00000154 1775.17 348.67 429.64 672.37 1826.58 634.92 1960.46 622.44 1821.61 736.26 1834.18 868.88 1945.19 859.17
00011391 00000155 1772.28 345.01 432.89 676.01 1824.32 635.98 1959.50 624.22 1820.75 738.04 1830.60 869.26 1944.12 859.98
00011392 00000156 1770.10 343.04 432.48 681.99 1822.00 640.82 1958.59 626.98 1818.14 741.80 1829.89 874.99 1944.28 864.26
00011393 00000157 1770.82 342.24 430.45 684.31 1822.28 642.18 1959.06 627.52 1817.48 743.72 1830.19 879.22 1944.58 867.87
00011394 00000158 1770.81 347.57 429.31 682.25 1821.42 643.32 1958.20 628.59 1817.24 745.35 1830.60 881.30 1943.97 869.80
00011395 00000159 1770.52 348.15 428.67 682.84 1820.60 643.52 1958.02 629.11 1816.94 746.74 1829.98 882.76 1943.46 871.47
00011396 00000160 1771.01 349.92 427.13 681.59 1820.93 644.13 1957.98 629.97 1816.87 747.90 1830.40 883.80 1943.57 872.70
00011397 00000161 1771.02 349.91 427.59 681.83 1821.24 644.60 1958.58 630.05 1817.06 747.41 1830.47 883.96 1943.61 872.57
00011398 00000162 1771.60 354.14 427.19 676.79 1821.90 644.73 1959.27 630.41 1818.02 748.08 1831.40 883.73 1944.47 872.43
