Video ID: 	iOExAgDQNrY
H: 	1080
W: 	1920
FPS: 	25.0

FRAME INDEX X0 Y0 W H [Landmarks (5 Points)]

00047518 00000000 368.39 173.27 455.41 680.61 437.03 437.29 562.59 446.27 389.91 531.44 434.69 667.32 545.21 673.08
00047519 00000001 369.47 168.47 455.85 686.60 425.41 442.29 566.22 446.74 392.84 530.01 433.84 668.82 558.86 670.90
00047520 00000002 368.78 165.57 459.69 684.84 419.97 442.26 571.00 443.90 395.59 529.11 431.46 667.81 564.25 667.89
00047521 00000003 364.80 167.75 462.15 678.29 414.96 443.83 567.50 443.71 390.98 529.06 424.33 669.69 557.29 668.39
00047522 DELETE   352.77 176.83 457.00 664.78 404.23 445.95 551.67 446.71 373.83 529.66 404.02 671.66 528.74 670.69
00047523 DELETE   342.13 175.63 448.00 664.85 401.91 444.31 529.78 443.85 356.81 531.88 398.66 671.45 505.36 668.51
00047524 00000006 335.42 164.52 445.57 682.08 394.91 446.49 516.36 443.28 345.57 532.35 391.05 675.24 493.29 670.11
00047525 00000007 332.12 164.82 443.44 680.65 390.52 445.39 510.75 438.79 339.12 532.65 388.39 675.08 490.25 666.86
00047526 00000008 333.29 163.59 445.58 678.44 391.19 442.22 514.04 436.81 342.71 530.39 390.38 673.10 493.84 665.81
00047527 00000009 333.39 162.60 452.16 681.84 382.56 440.22 514.25 442.20 348.91 533.74 384.81 677.53 489.63 679.04
00047528 00000010 331.53 161.42 450.53 684.60 381.55 440.57 512.68 441.94 346.00 533.81 383.22 678.63 486.89 679.75
00047529 00000011 332.49 160.59 451.46 684.78 381.67 440.89 512.41 441.31 346.69 533.88 384.54 678.89 487.71 679.22
00047530 00000012 331.96 161.89 450.72 682.62 379.52 441.84 511.45 440.64 345.53 533.78 382.85 679.44 487.02 678.52
00047531 00000013 333.00 160.87 450.76 681.53 380.34 439.64 512.63 438.49 346.02 531.89 383.14 676.50 488.19 675.55
00047532 00000014 335.23 156.38 451.74 684.82 382.76 437.35 513.37 436.40 347.60 529.19 383.75 673.59 487.32 672.92
00047533 00000015 334.69 155.36 451.22 685.06 383.69 435.19 513.50 433.95 347.06 525.87 382.05 670.85 485.45 670.00
00047534 00000016 335.53 155.51 450.30 683.83 385.61 434.37 513.95 432.86 347.54 524.13 382.28 669.25 484.64 668.18
00047535 00000017 334.73 155.76 451.28 683.82 385.29 435.14 512.53 433.58 346.05 524.59 381.73 669.45 482.74 668.30
00047536 00000018 333.73 156.74 451.28 683.21 386.25 434.52 512.29 432.60 345.41 522.89 382.08 668.30 482.96 666.80
00047537 00000019 334.39 158.28 450.95 682.66 387.33 435.99 511.59 432.18 345.25 523.30 384.64 669.65 485.14 666.41
00047538 DELETE   336.08 162.28 445.79 678.61 387.27 441.06 506.67 434.97 343.60 528.49 389.02 671.58 487.86 666.38
00047539 00000021 336.14 165.59 442.79 678.93 385.65 451.09 500.79 443.56 341.99 538.16 392.91 679.70 486.83 673.19
00047540 00000022 332.79 170.90 435.87 680.51 397.68 458.17 493.37 442.94 334.41 543.21 400.24 682.39 487.94 666.14
00047541 00000023 327.12 182.62 450.19 684.85 396.09 466.96 493.57 462.61 333.29 559.13 391.53 691.26 478.04 686.76
00047542 DELETE   308.57 177.68 451.57 692.79 384.21 454.76 481.20 456.31 316.52 540.40 373.63 687.35 449.55 687.22
00047543 00000025 288.30 183.65 458.85 685.91 385.44 441.30 465.54 449.30 299.82 541.25 356.38 681.96 420.93 685.48
00047544 00000026 272.24 171.33 452.37 691.33 371.26 442.37 443.56 440.30 281.64 531.96 340.36 682.72 397.72 678.10
00047545 00000027 274.99 176.82 441.76 689.93 370.89 441.47 430.90 447.26 280.50 549.67 341.64 688.54 392.07 692.60
00047546 00000028 286.47 188.54 439.98 683.37 371.23 449.39 435.28 457.82 286.76 564.49 355.98 696.11 408.00 701.48
00047547 DELETE   295.49 189.03 447.35 683.29 390.44 453.11 449.85 461.88 293.66 565.91 369.88 697.10 419.00 700.34
00047548 DELETE   315.20 188.27 446.69 674.83 396.86 455.65 467.57 457.38 308.58 560.66 374.30 695.40 431.10 694.18
00047549 DELETE   320.66 182.07 448.45 680.11 408.27 445.21 485.28 446.19 325.40 547.64 383.60 688.49 447.66 688.18
00047550 00000032 325.14 169.82 441.83 696.47 413.35 433.46 496.01 434.08 338.39 533.44 391.51 684.44 460.37 684.27
00047551 00000033 325.83 165.86 446.43 706.71 410.19 435.97 491.90 435.29 333.76 525.45 396.26 682.66 462.89 680.08
00047552 00000034 326.80 168.45 444.10 704.85 405.51 438.00 493.15 436.14 333.54 527.75 396.70 685.45 467.99 681.95
00047553 00000035 328.57 174.22 444.35 696.33 401.94 442.81 493.42 439.40 334.45 532.89 397.88 687.28 472.09 682.61
00047554 00000036 332.33 170.95 447.79 696.65 399.58 446.33 503.59 446.77 341.30 536.27 397.56 685.47 482.29 684.39
00047555 00000037 333.24 168.67 446.20 689.67 396.60 453.07 510.39 440.32 340.75 533.94 396.07 681.04 495.25 667.46
00047556 00000038 334.08 169.81 446.35 689.50 393.57 455.93 510.62 442.08 341.82 536.28 394.36 685.36 495.09 671.14
00047557 00000039 331.79 169.61 448.38 686.53 389.93 456.18 512.36 443.42 342.02 538.20 388.55 687.59 490.74 674.83
00047558 00000040 331.39 169.20 447.73 677.60 388.16 454.95 514.46 441.90 342.18 534.08 382.06 684.95 485.24 672.55
00047559 00000041 331.76 164.23 446.62 672.80 389.23 445.44 519.00 437.50 342.26 525.57 376.05 675.67 481.05 667.73
00047560 00000042 332.24 157.83 451.26 676.55 380.49 437.52 515.89 439.13 343.01 523.58 368.74 672.12 470.91 673.89
00047561 00000043 329.24 151.48 451.04 685.28 382.01 430.16 515.27 433.81 340.11 517.72 368.26 666.03 472.60 669.30
00047562 00000044 328.60 150.00 453.09 694.06 381.40 429.21 517.03 429.05 340.41 514.01 370.39 667.60 477.54 667.55
00047563 00000045 329.40 147.41 451.31 692.15 380.49 428.61 516.44 427.75 340.72 513.35 371.78 663.99 480.01 663.49
00047564 00000046 329.20 144.92 450.58 687.42 378.42 425.66 516.48 427.20 341.81 512.04 369.90 657.95 479.85 659.64
00047565 00000047 328.07 144.34 449.75 684.78 376.84 425.30 514.87 427.32 339.31 511.31 366.55 656.06 476.95 658.14
00047566 00000048 326.33 144.46 451.83 684.73 377.88 425.45 514.77 426.32 339.29 509.55 365.03 657.14 472.19 658.28
00047567 00000049 325.78 142.82 450.12 683.32 376.61 425.99 513.78 426.88 339.57 509.40 362.76 656.97 468.24 658.26
00047568 00000050 325.02 141.37 449.10 678.58 376.64 424.03 511.02 426.82 338.19 507.79 359.75 652.79 461.41 655.73
00047569 00000051 325.36 149.02 444.94 670.30 387.94 426.12 514.45 419.29 333.75 504.21 361.61 655.26 462.82 647.86
00047570 00000052 322.86 141.54 450.38 688.15 381.14 426.09 506.69 425.99 332.36 507.88 361.18 657.00 457.54 657.15
00047571 00000053 321.48 145.23 450.60 690.47 381.73 428.60 506.99 427.29 332.14 509.60 364.47 660.24 461.16 659.24
00047572 00000054 323.57 146.92 450.65 690.75 379.70 431.28 508.90 428.16 333.37 511.71 365.81 664.26 465.06 661.91
00047573 00000055 324.57 148.34 450.29 690.60 378.26 433.84 509.51 429.66 333.49 514.01 366.69 666.18 468.58 662.96
00047574 00000056 323.84 148.57 450.24 688.70 376.51 434.62 509.31 430.40 333.46 514.70 365.34 666.73 467.91 663.60
00047575 00000057 324.64 148.92 448.20 686.95 374.95 433.98 509.16 430.32 332.54 514.54 362.99 666.47 466.41 663.89
00047576 00000058 323.79 148.67 450.35 684.46 375.76 432.43 509.77 428.62 333.45 512.08 362.89 663.18 466.31 660.52
00047577 00000059 321.71 146.47 450.04 682.72 373.59 429.78 511.06 425.38 335.20 507.72 360.83 659.43 466.69 656.44
00047578 00000060 321.82 141.21 453.75 684.52 372.19 428.39 508.87 420.18 332.88 504.05 358.83 656.35 464.41 650.30
00047579 00000061 319.94 139.62 457.29 684.26 372.23 426.03 508.34 417.58 330.60 500.09 356.95 652.55 462.66 646.26
00047580 00000062 318.95 139.74 458.11 683.76 372.09 427.12 506.85 418.06 329.35 500.43 356.03 653.14 461.55 646.29
00047581 00000063 318.53 142.24 453.13 683.61 370.36 431.89 504.56 423.71 328.32 506.02 357.09 657.75 460.84 651.48
00047582 00000064 318.03 148.27 452.89 681.56 368.36 439.36 502.41 428.70 324.08 513.08 357.54 665.79 461.44 657.28
00047583 00000065 316.36 150.81 453.37 678.49 366.63 441.09 499.29 430.11 321.22 514.47 355.84 665.51 458.74 656.58
00047584 00000066 313.53 147.39 454.03 677.47 367.09 436.16 498.27 425.78 321.37 507.15 352.87 658.80 454.24 650.32
00047585 00000067 312.69 140.61 456.13 679.70 366.21 428.35 500.65 420.19 321.70 500.18 349.39 650.15 455.13 643.83
00047586 00000068 315.51 139.87 457.24 675.87 366.10 428.11 502.09 416.97 323.03 498.27 347.99 650.98 454.49 642.37
00047587 00000069 316.50 139.02 456.52 677.73 368.45 425.90 504.03 416.81 325.33 498.31 349.78 650.69 455.39 643.76
00047588 00000070 317.95 142.93 455.20 675.96 369.16 430.65 503.84 420.74 326.99 503.66 353.49 655.65 457.93 648.02
00047589 00000071 318.83 145.13 454.54 677.55 367.70 435.71 502.23 424.60 326.10 508.76 356.62 659.98 460.72 651.18
00047590 00000072 317.02 145.67 453.95 675.07 366.56 435.78 500.63 423.87 325.41 506.61 354.68 658.40 458.06 649.02
00047591 00000073 317.29 142.29 455.65 674.70 368.95 428.56 502.36 418.43 324.27 501.08 352.06 651.84 457.33 644.02
00047592 DELETE   318.20 138.20 457.96 676.66 368.75 425.51 504.72 415.60 326.55 498.40 351.22 649.67 457.49 642.18
00047593 00000075 322.13 140.02 454.07 676.33 371.01 424.77 508.51 415.10 330.69 498.34 354.45 650.44 460.96 643.34
00047594 00000076 325.67 143.40 451.75 673.80 373.29 426.94 508.52 416.66 333.56 501.58 358.20 652.43 461.93 644.94
00047595 00000077 326.55 145.16 452.84 674.31 373.34 429.91 508.76 418.65 334.77 504.07 360.11 655.33 464.04 646.95
00047596 00000078 326.87 145.45 450.88 673.69 373.79 430.19 508.33 419.36 335.19 504.40 360.88 655.49 463.33 647.51
00047597 00000079 327.87 146.52 450.55 670.76 372.54 427.97 511.05 417.78 336.43 502.83 359.73 653.69 465.50 646.36
00047598 00000080 328.50 144.05 453.93 672.53 375.10 425.09 512.63 415.09 336.21 499.98 358.96 651.34 464.28 644.10
00047599 00000081 329.45 144.13 452.48 671.40 375.86 425.17 514.62 414.38 337.92 499.44 359.48 651.82 464.56 644.00
00047600 00000082 330.30 142.61 453.83 673.63 377.40 425.95 515.26 414.67 338.20 500.02 361.06 652.58 465.14 644.32
00047601 00000083 330.98 143.54 452.98 673.47 376.93 427.01 515.42 415.39 338.47 500.76 361.17 653.28 465.63 644.74
00047602 00000084 331.15 144.25 453.04 674.14 376.43 427.97 515.37 415.94 339.09 501.74 361.73 654.11 466.87 645.29
00047603 DELETE   331.59 143.98 452.45 673.59 375.71 427.74 515.60 415.78 339.52 501.68 361.34 653.98 467.03 645.27
00047604 00000086 331.88 144.02 451.49 672.80 375.74 427.96 515.58 415.63 339.45 501.37 361.36 654.06 466.51 645.09
00047605 00000087 331.75 143.88 452.60 673.83 375.58 428.65 515.39 415.86 339.62 501.79 361.79 654.84 466.75 645.44
00047606 00000088 331.62 143.93 451.70 673.26 375.67 428.58 515.17 415.77 339.56 501.62 361.54 654.62 466.32 645.22
00047607 00000089 332.05 144.51 450.64 673.42 376.48 428.18 515.02 415.78 340.33 501.79 362.23 654.61 466.05 645.58
00047608 00000090 332.70 144.21 450.89 673.25 376.38 428.59 514.58 415.86 340.53 502.52 362.30 655.21 465.85 645.94
00047609 00000091 332.32 144.13 449.28 673.99 376.45 428.04 515.02 416.16 341.46 502.44 362.17 654.80 465.84 646.31
00047610 00000092 332.32 144.23 450.33 674.31 376.78 428.04 514.32 415.67 340.21 502.46 361.73 655.47 464.75 646.50
00047611 00000093 332.51 144.67 450.05 675.08 377.54 427.56 514.32 415.42 340.08 503.08 361.29 656.29 464.00 647.46
00047612 00000094 333.87 147.11 448.84 673.25 379.11 428.86 514.27 415.81 342.11 503.89 362.86 658.08 462.87 648.48
00047613 00000095 334.45 147.10 447.79 675.55 380.00 428.29 515.08 416.72 343.43 504.85 363.68 658.66 463.15 650.29
00047614 00000096 334.04 145.98 450.86 682.02 381.68 428.50 515.96 416.51 343.23 505.35 365.26 661.02 464.77 652.15
00047615 00000097 334.96 147.42 450.98 682.86 381.81 427.27 517.53 415.65 344.29 505.43 365.14 660.48 467.30 652.06
00047616 00000098 336.25 145.42 453.27 689.62 383.12 427.78 518.65 413.71 343.92 505.03 367.90 663.21 470.37 652.71
00047617 00000099 333.85 162.49 458.31 674.83 390.55 428.50 528.77 413.35 351.59 506.27 379.09 666.39 475.11 656.73
00047618 00000100 334.61 161.48 459.15 680.00 389.63 429.88 529.35 413.76 351.58 507.87 381.25 668.39 480.96 657.66
00047619 00000101 335.66 161.35 458.48 682.90 390.42 430.40 530.60 413.93 352.14 508.60 382.88 669.82 484.73 658.65
00047620 00000102 336.97 161.00 457.90 682.81 387.80 432.23 530.68 414.37 352.12 509.86 383.33 668.59 488.88 656.14
00047621 00000103 339.57 158.84 456.25 686.62 388.81 430.87 531.17 413.84 351.20 510.96 384.88 668.94 492.68 657.00
00047622 00000104 339.27 159.57 456.68 685.39 388.76 430.82 531.38 415.17 351.60 511.62 384.42 668.39 493.19 657.57
00047623 00000105 339.32 160.13 457.14 684.54 388.49 429.94 533.32 415.22 353.56 511.66 383.83 668.42 493.19 658.47
00047624 00000106 339.80 159.81 454.43 685.25 388.37 429.47 533.96 414.42 353.86 511.71 385.24 667.51 497.11 657.24
00047625 00000107 343.88 145.91 451.32 700.18 390.39 425.91 527.32 412.65 349.76 507.68 380.45 663.29 491.83 653.12
00047626 00000108 346.03 143.07 451.82 703.79 390.91 426.48 529.28 411.59 351.33 506.89 381.73 663.60 494.06 652.21
00047627 00000109 346.20 143.30 451.44 703.77 391.66 427.28 530.09 412.60 353.23 506.74 382.06 663.37 493.95 652.28
00047628 00000110 347.61 144.99 452.67 702.03 393.81 427.21 531.15 411.63 354.12 505.81 383.46 662.87 495.23 651.00
00047629 00000111 347.85 143.42 451.49 703.02 394.54 427.68 531.32 411.45 354.14 505.71 384.45 663.37 495.65 650.95
00047630 00000112 348.62 141.83 450.54 703.69 395.15 426.61 531.35 410.43 354.61 505.10 385.24 662.55 495.93 650.21
00047631 00000113 349.10 140.51 452.61 705.80 396.92 427.66 530.96 410.06 353.68 504.98 385.64 663.13 494.72 649.52
00047632 00000114 349.35 138.27 452.36 707.78 396.08 428.65 531.66 409.65 355.36 504.98 385.89 664.39 494.75 649.79
00047633 00000115 345.00 161.63 459.13 680.03 407.72 433.35 537.41 418.19 353.13 512.30 392.62 662.16 499.95 649.16
00047634 00000116 345.29 163.04 459.67 681.32 410.70 432.52 537.57 419.60 353.19 512.46 393.23 662.05 497.67 650.76
00047635 00000117 345.34 163.99 462.44 682.08 411.31 435.57 539.86 421.18 354.34 512.59 392.77 664.59 497.78 652.15
00047636 00000118 347.23 163.36 460.01 683.84 414.42 433.92 540.19 421.38 355.58 512.71 396.87 662.27 501.18 651.23
00047637 00000119 347.83 161.34 459.60 684.74 415.75 432.75 540.65 420.19 356.87 512.31 398.75 661.58 501.75 650.45
00047638 00000120 348.41 161.68 461.17 686.14 416.70 433.80 541.20 420.66 357.65 512.13 400.39 661.79 503.76 650.32
00047639 00000121 348.87 161.32 459.88 687.29 417.90 433.45 541.27 420.92 358.81 512.05 402.00 661.22 504.78 650.12
00047640 00000122 348.44 162.17 461.15 687.19 416.40 435.10 541.44 421.43 359.25 513.35 402.47 662.46 507.47 650.34
00047641 00000123 347.86 164.02 461.54 684.18 416.06 435.97 540.91 421.76 358.51 513.25 401.50 662.43 506.03 649.93
00047642 00000124 347.60 165.62 461.35 682.87 415.26 435.90 541.08 421.61 358.22 513.47 401.06 662.86 506.56 650.36
00047643 00000125 346.18 170.16 461.78 675.93 411.72 436.44 540.94 421.62 357.27 513.71 399.46 663.29 507.44 650.29
00047644 00000126 349.41 147.46 453.39 702.20 394.95 431.47 530.92 414.20 355.61 509.82 388.97 666.21 499.89 652.69
00047645 00000127 346.57 150.30 455.83 699.27 396.36 432.24 520.51 416.55 347.46 513.84 390.80 665.48 496.17 652.32
00047646 00000128 343.53 150.12 454.84 698.09 394.52 434.72 518.57 421.09 344.32 515.49 389.17 666.00 493.72 654.45
00047647 00000129 342.92 150.49 456.07 696.20 391.46 433.64 517.43 419.30 343.59 515.91 387.00 664.72 493.38 652.81
00047648 00000130 342.92 151.57 454.53 693.85 389.87 431.27 519.25 418.27 346.18 514.93 387.68 662.10 497.00 651.45
00047649 00000131 344.12 148.57 455.43 695.81 390.50 431.68 519.10 417.24 347.08 515.09 389.36 662.59 497.84 650.68
00047650 00000132 344.18 152.20 455.50 692.92 389.95 432.52 520.41 417.21 348.02 514.86 389.32 662.98 499.34 650.31
00047651 00000133 344.15 149.78 454.76 694.07 389.69 431.67 519.92 415.80 347.96 514.68 389.08 662.63 499.00 649.60
00047652 00000134 343.32 149.51 456.10 694.75 387.59 433.09 520.08 415.86 347.79 514.47 387.56 663.27 498.79 649.24
00047653 00000135 343.48 150.62 456.38 693.51 387.62 431.87 521.20 414.56 347.50 513.51 387.11 663.14 499.07 649.05
00047654 00000136 341.92 153.02 456.57 693.13 386.92 434.20 518.92 415.75 346.15 514.69 387.42 664.06 499.72 648.83
00047655 00000137 339.81 154.86 455.66 691.41 383.82 434.69 516.67 417.33 343.77 515.89 385.19 665.10 497.51 650.88
00047656 00000138 339.51 155.08 454.83 689.68 382.51 436.03 515.27 419.04 342.47 517.63 385.70 664.85 498.29 650.80
00047657 00000139 339.93 154.45 454.72 693.40 381.70 437.38 514.31 417.84 341.69 517.75 385.88 667.06 498.97 650.98
00047658 00000140 338.66 154.02 455.90 698.02 380.58 439.21 512.08 417.96 339.38 518.53 386.36 668.89 500.96 651.14
00047659 00000141 338.06 156.00 455.78 698.00 379.59 439.92 511.05 419.26 337.29 520.14 385.94 670.22 501.59 652.81
00047660 00000142 337.36 156.14 455.76 697.30 377.48 441.47 509.28 419.18 334.73 520.62 384.63 669.90 502.39 651.11
00047661 00000143 335.97 157.75 454.38 694.24 375.47 443.37 508.89 420.32 332.98 521.14 383.22 671.41 501.10 652.15
00047662 00000144 335.20 156.70 454.56 692.60 374.04 443.56 507.80 420.54 332.57 521.29 382.03 670.37 499.96 651.25
00047663 00000145 334.78 156.73 454.73 691.61 374.52 443.29 507.41 420.52 331.59 520.76 381.67 670.41 499.08 651.40
00047664 00000146 335.40 155.78 455.21 691.91 374.86 443.12 507.84 420.17 332.71 520.95 381.58 670.62 498.60 651.56
00047665 00000147 335.18 156.16 454.07 690.55 374.88 443.06 507.98 420.40 332.42 521.08 381.14 670.76 497.83 651.93
00047666 00000148 335.81 158.09 452.36 686.49 376.08 441.79 507.64 421.21 333.05 521.18 381.50 669.39 496.98 652.24
00047667 00000149 334.86 157.92 452.76 684.92 376.61 440.71 507.79 420.81 333.51 520.63 379.74 669.12 493.63 652.67
00047668 00000150 335.21 156.43 453.56 685.23 376.88 441.38 507.38 420.67 332.00 520.47 379.98 669.13 493.76 651.94
00047669 00000151 334.85 156.20 453.78 685.66 376.64 441.53 506.91 420.86 331.97 520.64 380.61 668.88 494.40 651.69
CROP_BBOX: 51 0 1107 1024
