Video ID: 	kb4PUvZ3vr8
H: 	1080
W: 	1920
FPS: 	25.0

FRAME INDEX X0 Y0 W H [Landmarks (5 Points)]

00000218 00000000 676.41 313.32 398.20 523.01 754.52 528.99 922.95 532.59 819.41 650.24 800.40 707.12 927.38 709.97
00000219 DELETE   673.96 303.87 398.95 526.55 748.67 529.04 920.96 532.55 818.85 659.46 791.60 711.82 920.38 713.51
00000220 00000002 673.92 304.37 397.75 513.95 747.21 529.11 921.28 536.68 816.26 657.54 785.79 704.07 914.99 710.03
00000221 00000003 677.84 301.77 396.75 514.99 750.24 529.00 926.74 536.82 819.71 665.85 788.86 705.20 921.44 710.97
00000222 DELETE   689.03 306.78 398.26 526.35 759.80 519.66 931.77 531.54 821.52 656.84 804.96 706.62 932.48 715.98
00000223 DELETE   694.54 292.67 404.57 546.51 767.62 509.45 941.39 521.93 833.58 665.56 824.27 719.18 948.62 729.62
00000224 DELETE   697.08 291.28 411.77 545.79 778.32 513.34 952.79 521.61 847.14 649.87 827.99 715.46 953.41 722.69
00000225 00000007 714.01 281.92 409.60 550.81 787.83 505.62 963.74 512.44 855.88 653.65 843.14 711.74 974.20 715.95
00000226 DELETE   724.25 269.96 407.35 559.07 800.19 504.35 979.19 509.67 873.20 651.42 849.76 707.37 987.17 710.80
00000227 00000009 743.90 265.46 403.85 562.67 814.15 500.30 1004.52 511.03 895.96 655.81 853.82 696.42 1003.98 704.68
00000228 00000010 752.01 265.36 410.00 563.26 833.24 494.92 1020.01 507.38 909.07 644.22 866.51 697.73 1011.58 708.14
00000229 00000011 758.51 255.51 417.05 567.81 846.23 492.73 1034.33 503.74 927.30 640.91 878.53 695.40 1024.67 704.84
00000230 00000012 769.05 253.63 417.26 568.37 855.47 490.48 1047.17 502.02 934.88 638.53 883.10 695.51 1033.93 704.99
00000231 00000013 780.57 239.93 418.13 578.47 864.81 485.06 1055.26 498.70 940.00 634.91 888.99 693.89 1040.52 704.46
00000232 00000014 787.82 233.73 418.89 577.50 873.59 478.55 1063.76 489.24 950.97 628.88 898.70 688.56 1050.52 696.71
00000233 00000015 793.87 225.32 422.81 585.67 880.82 472.54 1070.94 485.50 955.40 623.63 900.19 681.93 1053.34 691.84
00000234 00000016 797.93 218.25 422.65 591.05 879.64 469.06 1070.69 483.42 950.10 620.19 897.06 680.36 1052.23 691.10
00000235 00000017 802.58 216.87 419.14 593.85 867.32 456.22 1071.24 478.50 935.97 620.64 880.45 677.32 1033.18 696.25
00000236 00000018 801.45 212.56 417.65 600.57 860.95 449.45 1062.30 476.29 921.13 610.23 871.94 674.36 1020.38 696.49
00000237 00000019 795.80 202.97 420.17 615.53 857.02 444.87 1055.46 470.42 912.08 598.70 865.11 670.72 1014.02 692.23
00000238 00000020 792.61 201.82 420.28 620.31 853.10 440.45 1047.31 466.91 904.47 596.15 861.87 669.39 1008.53 691.57
00000239 00000021 789.19 202.02 418.75 620.83 847.32 439.28 1039.71 467.89 895.41 594.40 854.98 669.42 1000.88 693.04
00000240 00000022 783.48 203.26 420.25 619.91 840.25 439.84 1032.88 467.67 887.15 595.58 849.94 671.67 993.45 694.62
00000241 00000023 775.85 207.07 415.93 615.26 831.25 440.84 1013.39 470.92 876.99 600.36 843.64 672.78 975.95 698.54
00000242 00000024 769.85 207.90 417.04 616.77 823.48 445.41 1006.63 474.03 867.56 603.98 836.68 677.80 969.74 702.47
00000243 00000025 768.37 206.08 412.12 616.60 819.86 452.53 1000.26 473.93 867.65 606.53 836.85 684.89 970.29 703.58
00000244 00000026 767.76 212.17 410.20 612.39 815.86 455.45 995.06 477.78 861.51 614.44 832.61 689.50 967.09 708.93
00000245 00000027 765.57 217.99 409.86 608.71 811.98 462.67 991.19 484.33 859.02 618.23 828.28 694.60 962.04 713.47
00000246 00000028 766.18 219.21 408.03 611.98 812.54 465.70 992.11 487.64 859.33 619.31 828.44 696.04 963.51 715.18
00000247 00000029 767.61 219.86 407.63 611.32 813.37 464.75 994.41 485.70 861.68 621.35 832.21 696.95 967.29 715.33
00000248 00000030 769.90 218.54 406.68 609.72 815.24 461.68 995.63 481.79 863.80 621.65 834.27 694.64 969.57 712.29
00000249 00000031 772.42 220.44 406.33 608.51 817.39 462.45 998.73 480.40 867.36 619.51 837.67 694.04 974.36 710.08
00000250 00000032 775.34 217.83 406.75 617.09 821.19 461.75 1004.70 476.64 872.27 613.44 842.17 694.21 980.82 707.90
00000251 00000033 779.17 211.55 407.14 621.71 826.78 458.38 1010.06 472.82 876.17 605.91 847.95 689.22 985.66 702.38
00000252 00000034 780.78 206.85 408.84 620.35 830.84 455.68 1013.11 471.07 879.90 602.12 853.27 684.53 988.99 698.14
00000253 00000035 783.46 214.49 413.85 605.14 837.09 454.10 1023.93 470.44 883.67 596.00 853.08 681.44 990.40 694.42
00000254 00000036 786.20 212.63 411.57 602.35 838.40 450.57 1024.83 468.91 882.27 593.39 851.45 678.03 987.18 692.91
00000255 00000037 787.96 210.98 410.56 601.82 839.26 448.61 1024.36 465.73 881.43 588.10 851.74 676.36 984.88 690.41
00000256 00000038 786.98 208.53 407.82 608.48 838.87 446.21 1022.72 460.21 879.20 581.79 850.69 678.05 982.79 689.56
00000257 00000039 788.94 207.04 397.37 617.64 836.82 437.32 1010.57 457.18 874.11 578.32 849.36 671.22 973.97 688.78
00000258 00000040 789.12 205.75 394.58 615.06 836.72 434.72 1009.06 454.59 871.51 573.74 847.71 667.58 971.17 685.15
00000259 00000041 788.93 201.10 393.66 612.28 837.65 431.24 1009.14 450.86 872.37 569.05 847.41 662.76 972.10 680.02
00000260 00000042 788.06 195.11 393.69 608.62 835.05 428.13 1008.35 446.94 870.85 565.99 843.14 658.01 972.30 674.68
00000261 00000043 785.72 193.78 393.46 602.69 832.06 426.25 1006.73 445.52 868.29 564.17 838.67 655.04 969.04 672.09
00000262 00000044 785.34 193.35 390.84 596.46 830.29 424.24 1004.58 442.91 866.60 561.87 837.41 654.64 965.90 671.00
00000263 00000045 779.63 197.36 396.27 585.52 836.31 424.16 1004.53 441.95 866.59 550.88 842.09 647.09 968.06 661.58
00000264 00000046 778.50 196.27 396.51 587.97 835.45 422.92 1003.04 441.37 864.40 549.52 839.65 645.08 966.35 660.08
00000265 00000047 779.39 192.40 392.75 605.41 826.20 421.06 1000.81 441.39 861.52 556.38 829.34 649.93 959.17 668.12
00000266 00000048 776.06 193.21 393.82 611.57 825.25 421.02 1000.98 442.79 859.28 556.47 826.10 649.54 960.36 668.80
00000267 00000049 776.88 197.77 393.73 606.83 824.12 426.45 1002.12 451.39 859.23 554.61 823.31 647.44 957.82 669.32
00000268 00000050 776.61 202.22 392.58 599.07 826.86 429.15 1003.66 456.84 861.79 553.46 822.80 645.25 957.35 669.05
00000269 00000051 770.25 199.89 403.68 598.43 839.34 432.54 1007.18 458.64 869.45 550.17 832.60 641.02 965.96 662.83
00000270 00000052 777.12 203.26 394.26 598.60 835.18 430.94 1012.77 462.70 872.17 557.79 825.31 644.90 960.78 672.33
00000271 00000053 778.36 203.34 394.57 601.87 841.23 429.46 1019.01 464.42 879.94 560.29 828.17 644.13 964.95 674.42
00000272 00000054 778.45 206.45 396.66 603.20 848.29 428.43 1025.83 467.20 888.71 563.53 832.17 642.44 970.63 675.90
00000273 00000055 778.43 206.83 399.33 605.62 853.03 426.90 1031.19 469.57 893.97 565.89 834.62 641.98 973.85 678.75
00000274 00000056 780.01 208.69 404.06 606.79 860.88 427.77 1038.90 470.71 904.52 566.53 841.47 642.25 980.86 679.38
00000275 00000057 781.64 208.24 409.66 609.56 868.52 429.49 1048.79 473.19 916.40 570.28 846.66 642.28 989.02 680.09
00000276 00000058 780.40 208.64 416.04 610.21 873.83 429.18 1055.73 473.87 926.91 573.00 851.16 641.35 996.45 679.91
00000277 00000059 780.30 207.12 416.79 614.57 876.61 431.24 1058.70 475.28 932.86 576.84 853.87 642.43 1001.75 680.42
00000278 00000060 781.93 208.15 417.57 614.16 880.66 433.64 1064.30 477.93 940.10 577.43 858.20 644.15 1006.85 682.16
00000279 00000061 781.80 209.77 419.02 613.70 883.36 434.71 1069.68 477.64 946.30 579.22 862.56 646.17 1012.23 683.01
00000280 00000062 781.61 210.62 419.40 611.84 884.84 435.92 1072.85 477.56 950.48 581.41 864.28 647.67 1015.28 683.58
00000281 00000063 782.17 213.62 418.51 610.33 885.89 440.47 1074.45 479.72 953.36 585.69 867.84 651.75 1018.59 685.83
00000282 00000064 780.44 217.62 415.74 605.65 887.86 449.93 1066.64 477.05 956.22 582.36 875.75 662.48 1023.52 684.57
00000283 00000065 780.56 219.84 413.41 604.19 887.83 453.04 1065.67 476.98 957.56 584.65 878.06 665.24 1025.87 684.79
00000284 00000066 778.86 221.52 410.95 602.78 885.48 455.22 1063.53 477.27 957.28 587.66 878.26 666.82 1026.31 684.84
00000285 00000067 777.47 222.85 410.66 601.65 883.42 455.87 1062.38 476.96 956.54 588.42 878.87 668.00 1026.53 685.17
00000286 00000068 776.23 223.12 410.57 600.48 881.14 456.62 1060.85 477.15 955.03 589.69 877.62 668.62 1025.73 685.33
00000287 00000069 773.68 223.02 411.22 600.73 877.79 458.06 1060.11 477.14 954.19 590.98 876.36 670.92 1025.25 686.40
00000288 00000070 769.86 224.00 410.43 600.19 873.71 458.71 1058.57 479.30 951.77 593.34 872.20 670.93 1022.97 687.89
00000289 00000071 763.49 224.56 415.92 596.54 867.03 460.55 1055.25 483.07 942.73 598.14 862.77 664.72 1018.69 684.50
00000290 00000072 760.16 223.02 416.95 593.64 864.38 462.95 1054.13 484.16 941.31 598.71 859.92 664.24 1016.15 683.06
00000291 00000073 757.32 223.99 417.79 591.13 863.38 464.31 1052.99 485.42 940.37 598.32 859.08 663.67 1013.82 682.45
00000292 00000074 755.53 226.00 417.18 587.58 861.33 466.66 1051.93 485.97 940.74 599.90 859.20 665.19 1013.78 682.41
00000293 00000075 754.41 227.48 415.84 586.95 860.03 468.28 1051.05 486.69 940.45 600.34 858.74 665.57 1013.71 681.99
00000294 00000076 753.56 227.29 416.73 588.54 859.84 467.84 1049.99 485.84 940.37 599.68 859.24 665.41 1013.30 681.46
00000295 00000077 753.03 226.74 416.79 590.55 859.25 468.83 1049.91 486.02 941.19 600.08 858.80 666.94 1013.13 682.36
00000296 00000078 753.95 226.90 415.81 591.15 859.08 468.40 1049.56 485.45 940.43 599.70 859.08 668.17 1012.88 683.45
00000297 00000079 756.58 221.24 417.76 604.97 857.46 465.16 1049.82 479.51 935.83 600.72 861.23 672.07 1016.45 685.69
00000298 00000080 757.08 220.89 419.72 609.44 859.48 464.24 1051.94 479.09 937.20 599.78 863.98 672.92 1016.76 687.04
00000299 00000081 759.30 221.18 415.45 608.90 863.26 460.75 1052.42 479.71 946.38 596.21 865.64 674.16 1017.08 690.06
00000300 00000082 758.75 218.22 421.72 610.02 862.90 459.26 1055.96 478.40 939.27 597.47 863.14 667.29 1017.57 684.89
00000301 00000083 759.86 219.10 417.91 600.09 865.28 456.63 1055.72 477.59 944.12 593.96 862.54 664.23 1017.34 682.87
00000302 00000084 760.99 212.15 421.28 610.66 866.16 454.16 1060.54 474.63 944.35 594.23 865.06 663.17 1019.78 681.56
00000303 00000085 760.81 211.92 421.68 612.45 867.24 452.53 1060.77 473.72 944.91 593.22 865.84 662.55 1019.30 681.63
00000304 00000086 761.72 209.30 420.99 614.71 867.95 451.49 1061.67 472.53 946.27 590.97 865.99 661.27 1019.98 680.22
00000305 00000087 758.82 210.02 419.04 607.06 865.15 451.22 1056.09 473.06 945.50 586.00 861.05 658.28 1018.72 677.36
00000306 00000088 758.49 207.13 417.59 609.81 857.96 452.48 1050.17 470.20 934.18 584.19 859.82 659.60 1014.75 675.61
00000307 00000089 753.37 206.23 419.48 605.97 847.28 439.02 1038.78 462.81 917.59 580.83 849.23 655.55 996.53 676.78
00000308 00000090 749.75 201.91 418.04 605.18 831.85 431.95 1024.03 456.06 893.45 574.55 834.39 653.44 978.34 674.48
00000309 00000091 743.74 197.79 417.05 597.95 817.19 428.93 1010.34 452.24 877.62 569.20 822.22 650.87 963.30 670.58
00000310 00000092 741.91 192.97 415.31 598.13 806.34 424.27 996.21 446.93 861.68 562.33 810.76 646.64 950.82 665.89
00000311 00000093 740.52 187.90 415.04 611.23 802.42 423.42 988.23 445.08 852.01 561.08 805.74 645.74 946.20 664.48
00000312 00000094 738.95 185.91 416.06 619.26 799.39 424.19 981.38 442.97 843.97 555.93 804.22 647.64 940.15 664.08
00000313 00000095 737.44 183.10 415.73 621.93 797.94 424.20 974.61 442.03 838.62 555.96 805.69 648.13 936.72 663.53
00000314 00000096 737.19 183.21 415.05 618.36 796.73 423.99 970.42 442.06 834.44 554.91 805.58 645.89 935.58 661.24
00000315 00000097 737.01 183.81 415.33 612.03 794.70 422.70 967.96 440.21 832.16 554.54 804.29 644.28 933.72 659.10
00000316 00000098 737.11 185.85 415.67 605.29 793.87 423.03 967.08 440.70 831.51 553.94 803.99 642.96 932.49 657.80
00000317 00000099 737.09 187.43 415.91 603.84 792.71 424.85 966.36 441.88 830.84 554.43 803.08 644.25 932.58 658.49
00000318 00000100 736.13 187.64 415.70 607.09 791.88 425.46 964.35 441.92 829.75 554.35 802.35 645.87 931.16 659.65
00000319 00000101 734.15 188.82 416.36 610.93 790.59 426.79 963.14 441.48 828.91 555.22 802.67 648.84 931.52 661.11
00000320 00000102 737.99 184.17 407.29 616.24 788.95 422.10 956.27 436.50 825.98 555.72 806.40 645.90 933.12 658.27
00000321 00000103 731.59 188.46 414.30 616.01 787.35 427.50 957.26 437.77 824.91 553.76 803.33 652.86 928.45 661.26
00000322 00000104 725.87 182.66 415.73 606.55 782.47 426.02 953.21 436.59 822.44 552.72 800.29 649.59 923.26 657.82
00000323 00000105 725.64 177.77 412.39 610.61 782.15 424.89 952.32 433.41 821.11 548.70 798.81 649.37 919.67 656.17
00000324 00000106 723.70 179.35 413.76 612.68 780.70 421.61 951.33 429.88 819.87 548.58 799.65 647.01 923.05 653.51
00000325 00000107 721.67 179.29 414.74 604.38 778.28 420.82 949.27 428.33 818.50 549.31 798.08 641.83 926.12 647.58
00000326 00000108 723.12 173.09 402.09 605.85 769.66 414.37 944.56 423.53 815.00 553.36 793.00 639.66 926.24 648.15
00000327 00000109 721.93 173.16 401.55 609.28 769.55 414.53 944.39 422.95 815.07 552.75 792.75 641.21 924.39 649.40
00000328 00000110 722.29 172.76 399.98 610.76 767.24 416.40 939.74 423.75 810.28 554.05 790.03 644.26 920.16 651.61
00000329 00000111 721.45 173.45 399.04 611.05 764.87 416.37 936.91 423.19 806.98 554.28 787.60 644.60 916.63 651.67
00000330 00000112 720.52 176.35 399.06 606.19 763.68 415.50 936.12 421.84 805.49 553.17 787.35 644.54 915.86 651.05
00000331 00000113 720.01 172.15 397.92 607.39 762.12 415.40 934.30 420.76 804.08 551.48 786.37 643.96 914.97 649.61
00000332 00000114 719.20 171.75 397.47 606.74 760.59 414.17 932.89 419.90 802.33 550.91 784.14 642.52 914.18 648.45
00000333 00000115 718.26 168.89 399.42 611.24 759.79 413.14 933.68 417.92 801.55 547.62 782.08 641.75 913.66 647.13
00000334 00000116 717.37 166.69 399.67 614.25 758.81 411.69 932.95 417.20 799.76 546.65 780.02 640.54 912.01 646.65
00000335 00000117 714.31 165.77 402.57 617.72 756.39 411.96 930.90 417.27 796.77 547.49 777.68 641.27 911.04 647.19
00000336 00000118 715.52 164.96 402.71 618.12 758.05 412.29 932.42 416.94 798.26 546.96 780.26 641.57 913.69 646.90
00000337 00000119 716.68 165.24 402.66 616.54 760.57 412.65 937.13 416.12 804.33 544.94 783.93 641.72 917.25 646.01
00000338 00000120 717.75 165.36 406.65 613.91 764.27 411.87 940.88 414.18 809.39 542.37 788.60 639.48 920.27 642.74
00000339 00000121 718.87 163.11 408.00 613.62 765.07 410.65 942.37 412.01 811.29 539.58 789.14 636.98 922.50 639.38
00000340 00000122 719.90 158.14 412.05 618.28 767.02 408.20 945.37 408.76 813.94 536.00 791.27 633.30 927.73 634.80
00000341 00000123 719.85 157.06 414.47 621.34 768.24 408.53 946.24 407.43 814.43 534.01 793.53 632.85 930.02 632.85
00000342 00000124 721.55 155.49 416.40 625.91 769.92 409.53 948.25 406.63 816.08 534.01 797.39 635.87 932.70 634.14
00000343 00000125 721.56 155.54 417.82 625.46 768.21 409.09 948.94 405.14 816.75 535.53 797.96 639.21 932.06 636.70
00000344 00000126 717.45 158.67 427.45 618.96 774.70 413.33 954.31 408.97 820.30 534.40 804.23 642.72 933.60 639.02
00000345 00000127 719.39 159.87 427.00 618.35 775.49 414.89 955.24 410.45 822.83 536.55 806.06 645.03 935.24 641.27
00000346 00000128 721.28 159.79 430.62 624.16 777.05 418.02 958.04 412.72 825.34 540.80 808.05 648.11 942.07 643.70
00000347 00000129 722.40 163.73 432.72 634.89 782.58 419.29 964.55 416.97 830.38 543.20 810.62 648.42 946.83 646.62
00000348 00000130 724.46 168.64 437.26 637.64 786.52 424.63 971.68 422.36 837.08 550.56 816.08 652.29 954.30 650.99
00000349 00000131 730.57 171.27 434.15 638.34 791.60 425.81 978.41 426.11 843.36 558.19 819.06 656.40 958.89 657.45
00000350 00000132 737.04 170.14 433.08 641.32 797.78 425.90 982.53 427.46 847.18 560.50 825.07 657.26 964.71 659.31
00000351 00000133 741.77 169.37 434.37 641.42 803.37 426.25 985.48 428.34 851.65 561.02 830.93 656.45 969.27 658.96
00000352 00000134 748.20 169.77 433.78 640.75 808.31 426.91 987.50 426.98 854.15 564.18 839.12 658.84 976.00 659.70
00000353 00000135 755.02 172.67 432.66 640.85 813.94 423.99 994.57 426.01 858.35 568.34 846.16 658.75 984.84 661.22
00000354 00000136 759.45 168.33 434.26 645.04 816.43 420.70 1002.87 424.04 864.73 570.30 850.60 658.54 993.58 662.34
00000355 00000137 767.45 165.16 430.11 646.56 819.83 420.01 1007.74 422.58 870.76 569.70 853.97 658.65 998.81 661.87
00000356 00000138 769.87 164.50 430.72 645.49 822.41 419.06 1010.90 421.92 874.40 568.62 855.99 657.28 1001.06 660.83
00000357 00000139 768.55 161.52 430.93 644.55 822.61 416.47 1011.36 420.15 875.10 566.44 855.76 653.75 1000.90 658.00
00000358 00000140 767.05 158.37 428.58 644.93 819.96 413.77 1008.04 417.78 871.73 565.34 853.08 652.40 997.26 656.96
00000359 00000141 765.30 157.57 427.18 641.07 817.04 412.04 1005.51 415.97 868.55 563.62 850.27 650.31 994.62 654.79
00000360 00000142 763.36 161.13 426.91 632.27 814.11 411.59 1002.79 414.22 865.45 561.66 846.88 648.69 991.15 652.11
00000361 00000143 760.93 157.40 425.16 632.31 812.88 411.23 1000.06 410.75 863.75 554.76 845.95 647.10 990.09 647.78
00000362 00000144 756.93 152.82 424.82 635.79 811.40 410.88 994.30 408.24 859.79 544.39 838.64 642.50 981.13 641.61
00000363 00000145 750.46 148.14 424.53 632.83 803.49 411.78 986.60 404.92 853.62 538.91 833.34 642.15 973.64 637.46
00000364 00000146 743.36 145.42 426.09 626.06 798.28 406.24 983.04 399.38 848.38 532.67 828.59 638.39 966.53 633.51
00000365 00000147 738.05 142.66 428.99 629.77 793.59 401.08 978.44 392.47 844.37 523.13 823.62 635.70 959.66 629.34
00000366 00000148 730.80 141.37 431.09 635.11 788.63 398.86 973.62 391.22 837.69 520.17 818.22 630.19 955.36 624.39
00000367 00000149 725.61 140.35 431.01 635.94 784.88 395.73 968.85 387.68 831.91 514.85 814.37 628.86 951.04 622.45
00000368 00000150 721.58 146.55 431.39 618.06 777.79 392.16 963.29 385.28 825.72 511.95 807.34 625.15 941.93 619.33
00000369 00000151 723.83 146.59 414.08 617.34 775.67 390.93 948.08 384.87 812.13 508.21 799.82 621.41 943.64 615.24
00000370 00000152 721.06 147.68 411.32 613.08 774.56 387.64 947.40 382.62 812.02 507.26 797.86 619.14 940.55 614.16
00000371 00000153 721.83 144.48 408.04 611.16 777.60 385.58 947.75 382.04 814.66 504.04 797.89 614.09 937.63 610.70
00000372 00000154 720.43 140.33 416.98 609.56 778.16 383.55 956.15 376.44 820.80 494.58 803.72 610.93 931.73 605.12
00000373 00000155 719.03 138.36 415.18 606.98 776.46 382.08 953.56 374.80 820.19 493.18 803.73 605.96 933.13 599.87
00000374 00000156 718.89 141.85 404.80 594.88 774.80 379.59 946.46 375.99 816.04 493.95 795.55 597.48 939.81 594.01
00000375 00000157 718.16 140.21 412.84 588.61 773.57 380.45 951.38 373.33 820.44 492.04 801.56 596.21 935.38 589.67
00000376 00000158 714.85 142.85 407.13 590.36 771.14 382.37 946.48 372.74 816.97 491.13 798.89 602.08 927.09 593.92
00000377 00000159 709.02 144.56 406.79 598.72 770.60 385.80 943.90 378.06 807.87 494.29 795.72 606.97 918.78 601.40
00000378 00000160 710.25 152.11 396.39 592.47 767.09 380.57 934.67 377.00 804.78 490.28 784.65 604.81 914.21 602.92
00000379 00000161 708.04 149.98 407.12 596.46 769.85 387.74 942.03 380.43 805.49 493.25 793.87 608.98 914.86 603.70
00000380 00000162 708.68 142.46 402.55 600.99 762.53 384.60 935.65 379.49 804.21 495.42 787.02 607.11 915.22 603.85
00000381 00000163 705.67 144.65 403.08 604.10 756.45 385.60 930.14 384.41 796.00 503.90 777.65 611.40 907.21 611.55
00000382 00000164 702.85 150.93 404.27 604.48 752.51 389.98 925.55 387.53 791.08 505.05 773.23 617.76 898.23 617.18
00000383 00000165 703.88 155.38 401.25 600.43 750.41 395.52 923.88 394.36 788.46 510.45 766.66 622.78 893.51 623.43
00000384 00000166 702.32 158.63 400.08 593.05 748.51 398.24 923.99 398.95 789.50 515.02 764.18 625.86 892.98 627.79
00000385 00000167 700.50 160.98 401.42 596.63 746.54 401.63 921.63 401.23 788.12 519.84 765.04 629.99 891.66 630.94
00000386 00000168 698.96 165.87 403.55 600.07 746.69 406.00 919.95 405.25 787.45 524.31 766.71 634.74 890.85 635.40
00000387 00000169 700.24 169.64 403.42 604.22 746.28 409.17 921.12 410.67 785.98 531.04 765.46 638.33 894.88 640.95
