Video ID: 	6FsHzRib3hs
H: 	1080
W: 	1920
FPS: 	25.0

FRAME INDEX X0 Y0 W H [Landmarks (5 Points)]

00023196 00000000 1063.05 246.20 363.39 531.63 1117.39 451.21 1275.83 465.75 1143.66 545.80 1107.47 642.97 1234.04 655.33
00023197 DELETE   1060.99 247.03 360.38 535.75 1113.99 457.38 1267.06 469.87 1138.59 551.22 1107.26 649.04 1227.83 659.70
00023198 00000002 1058.03 250.36 361.42 530.63 1110.54 457.69 1265.54 471.68 1133.30 554.75 1104.96 648.97 1228.60 660.57
00023199 00000003 1055.55 253.27 363.42 526.49 1102.89 452.22 1265.38 471.46 1129.32 558.38 1098.06 648.68 1231.09 666.16
00023200 00000004 1052.09 249.64 368.45 531.63 1101.45 451.01 1264.98 467.33 1129.68 557.44 1100.36 650.45 1232.90 665.49
00023201 00000005 1051.70 249.43 369.87 534.69 1101.43 447.70 1265.46 463.94 1131.16 554.96 1100.54 647.70 1236.68 662.70
00023202 00000006 1050.72 248.12 372.03 533.53 1099.36 443.88 1263.96 457.96 1134.12 552.56 1101.34 644.75 1240.79 658.19
00023203 00000007 1052.62 246.40 370.30 523.88 1099.19 442.24 1264.08 453.17 1135.10 546.43 1102.32 642.11 1241.55 653.23
00023204 00000008 1056.28 244.09 365.35 514.44 1103.27 435.23 1265.82 446.63 1136.78 536.74 1103.83 631.31 1242.02 643.26
00023205 00000009 1059.28 237.37 361.48 512.07 1107.74 427.07 1267.78 438.38 1141.26 528.72 1109.79 621.68 1244.72 633.14
00023206 DELETE   1064.13 233.51 356.75 510.87 1108.80 418.65 1271.47 431.70 1143.08 518.53 1107.25 613.84 1240.62 624.12
00023207 DELETE   1066.03 228.50 358.07 513.71 1112.22 419.30 1271.84 427.55 1142.70 511.15 1112.48 611.39 1243.61 617.69
00023208 DELETE   1068.94 222.72 356.71 514.61 1117.04 419.25 1273.32 423.86 1144.75 502.41 1118.18 608.09 1246.71 611.47
00023209 00000013 1070.20 214.66 360.55 514.28 1121.27 414.99 1278.18 417.57 1149.10 491.03 1120.97 599.46 1249.56 601.55
00023210 DELETE   1072.72 209.16 359.15 503.17 1123.22 410.19 1279.91 411.85 1153.34 485.59 1122.86 589.42 1253.47 591.12
00023211 00000015 1076.51 203.96 358.69 499.07 1122.83 408.73 1279.36 408.62 1151.37 479.84 1120.28 583.67 1253.08 584.03
00023212 00000016 1079.16 201.53 356.73 496.56 1123.14 405.70 1278.94 405.38 1150.42 477.21 1118.86 581.08 1250.24 581.43
00023213 00000017 1079.24 203.34 356.59 494.09 1123.82 402.64 1281.32 404.20 1151.76 475.17 1118.62 578.08 1253.11 579.94
00023214 00000018 1079.20 203.98 357.85 492.72 1123.88 399.89 1282.04 403.50 1150.51 474.23 1117.13 576.21 1253.57 579.72
00023215 00000019 1078.05 203.26 358.74 494.02 1124.62 398.91 1281.58 405.24 1149.76 474.06 1114.68 573.72 1250.56 579.54
00023216 00000020 1077.69 205.29 356.74 494.26 1125.14 398.90 1283.22 409.09 1150.09 475.67 1113.34 571.68 1249.76 580.60
00023217 00000021 1078.59 206.70 354.71 493.57 1125.77 399.44 1283.26 412.75 1149.76 478.38 1113.64 571.60 1247.54 582.90
00023218 00000022 1078.04 205.76 355.14 502.46 1127.41 401.99 1284.23 417.18 1151.95 481.57 1113.30 577.03 1242.91 589.95
00023219 00000023 1076.62 209.50 357.50 507.00 1128.84 405.61 1286.76 423.31 1154.83 489.84 1112.44 584.97 1241.42 599.97
00023220 DELETE   1077.42 218.76 358.81 514.08 1131.06 401.20 1293.78 429.25 1159.82 508.68 1114.05 593.90 1255.31 616.52
00023221 DELETE   1076.69 224.34 358.93 521.88 1133.54 408.12 1295.89 436.39 1162.77 517.88 1116.70 603.20 1259.98 625.55
00023222 DELETE   1074.30 236.06 362.20 530.76 1130.55 416.86 1297.17 442.77 1161.62 524.56 1116.95 615.00 1259.55 635.95
00023223 00000027 1079.08 240.83 357.50 529.57 1138.14 427.77 1293.67 449.46 1173.14 528.10 1127.12 621.60 1263.80 640.07
00023224 00000028 1074.53 239.75 360.27 528.42 1135.60 433.06 1294.41 456.06 1173.26 535.06 1120.29 625.16 1262.05 644.23
00023225 00000029 1068.12 246.54 365.17 514.94 1123.09 426.85 1292.99 455.54 1155.04 536.93 1108.69 623.48 1261.12 648.44
00023226 00000030 1064.09 246.74 367.49 513.44 1119.97 428.25 1289.88 455.04 1154.17 537.97 1107.22 621.47 1262.10 644.80
00023227 00000031 1060.02 247.29 368.59 515.26 1115.95 432.15 1285.41 454.13 1153.98 539.50 1108.00 623.17 1264.39 642.67
00023228 00000032 1057.44 248.91 371.36 518.44 1111.56 436.34 1279.77 454.53 1148.98 544.28 1107.87 627.40 1263.16 643.87
00023229 00000033 1053.47 250.28 370.93 521.93 1105.76 441.11 1274.61 456.79 1146.56 551.50 1104.66 631.37 1259.55 646.06
00023230 00000034 1050.21 249.92 371.73 529.61 1101.38 442.53 1269.41 460.41 1140.03 556.01 1101.59 635.62 1250.81 652.20
00023231 00000035 1047.39 247.48 368.55 535.81 1097.54 448.95 1265.30 464.15 1137.23 562.53 1101.55 643.47 1245.64 657.48
00023232 00000036 1044.44 254.57 367.32 535.53 1093.37 454.72 1257.57 470.80 1129.83 566.63 1098.45 647.08 1240.05 661.27
00023233 00000037 1041.81 257.23 369.26 539.39 1090.65 459.25 1254.42 473.25 1126.14 567.38 1095.76 650.25 1240.91 662.26
00023234 00000038 1039.94 262.08 371.84 533.12 1088.74 461.39 1253.89 474.08 1125.14 567.61 1094.75 652.25 1241.62 663.46
00023235 00000039 1040.16 263.10 368.91 524.86 1087.19 461.55 1250.67 473.98 1124.41 567.24 1092.73 646.60 1240.49 657.85
00023236 00000040 1038.72 257.01 367.57 526.24 1087.08 457.65 1248.68 470.46 1124.44 565.17 1093.21 641.63 1236.80 653.30
00023237 00000041 1037.22 253.20 368.22 529.47 1085.25 454.78 1248.86 465.20 1124.10 561.05 1092.43 641.91 1235.74 651.79
00023238 00000042 1036.66 251.68 369.99 531.68 1085.14 452.02 1250.28 461.09 1123.81 557.07 1092.64 644.28 1235.46 653.23
00023239 00000043 1036.27 248.56 371.09 533.24 1081.82 449.15 1250.37 454.01 1126.66 556.05 1092.89 645.86 1239.17 651.77
00023240 00000044 1037.69 249.00 371.47 528.77 1081.83 447.27 1250.53 450.19 1128.85 553.31 1094.28 644.18 1241.50 648.70
00023241 00000045 1036.82 245.54 371.86 529.33 1082.12 446.57 1251.52 446.03 1132.09 547.61 1095.18 642.71 1241.58 644.47
00023242 00000046 1038.78 243.31 370.42 525.85 1081.94 444.95 1250.10 441.79 1131.00 542.69 1097.50 638.75 1243.95 638.55
00023243 00000047 1039.95 237.75 368.53 525.33 1086.50 440.97 1251.46 438.23 1135.62 539.09 1102.11 632.98 1245.45 633.00
00023244 00000048 1042.90 235.62 365.78 519.45 1088.98 436.44 1252.60 435.49 1136.58 536.11 1104.38 626.32 1247.63 627.62
00023245 00000049 1045.96 235.82 362.88 509.03 1093.57 431.61 1255.59 432.90 1137.52 531.13 1106.95 619.53 1248.41 622.61
00023246 00000050 1049.81 235.96 361.57 503.38 1096.11 426.85 1258.84 431.17 1138.16 527.65 1105.16 615.04 1248.89 620.45
00023247 00000051 1054.64 234.77 360.75 503.45 1102.33 421.33 1264.73 432.05 1136.11 519.50 1101.83 606.29 1244.03 614.17
00023248 00000052 1055.25 234.06 361.45 500.73 1101.42 421.22 1266.89 433.37 1139.88 516.27 1103.79 604.61 1247.96 615.36
00023249 00000053 1056.85 230.36 362.25 498.90 1105.05 417.36 1263.14 426.78 1135.29 510.66 1101.52 598.52 1242.10 605.48
00023250 00000054 1059.77 225.20 361.26 503.20 1108.02 413.89 1264.65 423.10 1137.23 505.63 1104.03 595.16 1242.54 602.08
00023251 00000055 1061.92 220.54 361.48 506.38 1112.01 409.88 1267.88 420.30 1140.84 499.85 1105.45 589.29 1249.31 597.15
00023252 00000056 1064.12 218.83 361.15 505.51 1115.67 409.37 1271.43 419.45 1144.18 495.01 1107.66 586.00 1252.34 593.62
00023253 00000057 1066.71 217.31 360.52 508.59 1118.33 410.18 1274.83 419.56 1146.64 495.09 1111.73 587.31 1258.07 594.19
00023254 00000058 1069.11 218.34 362.25 510.51 1119.79 409.41 1277.49 419.96 1147.85 498.33 1113.96 589.54 1263.18 597.18
00023255 00000059 1070.90 220.25 361.12 516.15 1120.40 410.69 1280.13 422.40 1148.50 505.12 1116.88 594.58 1266.01 603.04
00023256 00000060 1072.26 222.29 359.81 518.09 1120.58 414.64 1281.67 425.31 1148.86 510.96 1118.54 598.90 1267.51 606.52
00023257 00000061 1071.69 226.56 361.52 518.99 1120.54 416.18 1282.29 426.88 1149.87 515.58 1118.81 601.19 1269.11 608.84
00023258 00000062 1071.37 229.31 362.47 518.62 1119.28 417.62 1281.16 427.69 1149.19 519.75 1119.30 604.17 1268.78 611.32
00023259 00000063 1070.59 231.26 363.06 516.82 1118.70 419.06 1281.23 428.81 1151.19 523.18 1119.18 606.03 1269.52 613.03
00023260 00000064 1069.02 232.72 364.97 516.33 1116.88 420.90 1279.76 429.94 1150.18 524.92 1118.42 608.50 1269.67 614.98
00023261 00000065 1068.56 235.63 365.60 516.30 1115.61 423.72 1279.63 432.19 1149.84 526.20 1117.10 610.27 1269.84 616.33
00023262 00000066 1066.07 238.80 368.04 515.92 1114.75 425.04 1280.48 434.03 1150.46 528.68 1115.95 610.37 1270.77 616.89
00023263 00000067 1064.57 242.18 369.63 514.73 1113.75 427.09 1280.62 434.54 1151.08 529.60 1115.45 611.83 1270.86 617.17
00023264 00000068 1062.55 248.83 367.40 501.49 1115.05 430.49 1277.09 438.27 1152.13 532.20 1118.44 610.31 1273.76 617.74
00023265 00000069 1062.23 251.18 367.96 499.04 1114.21 430.41 1277.47 439.89 1152.10 533.74 1116.72 609.12 1274.09 617.89
00023266 00000070 1061.25 250.24 368.28 497.78 1112.86 430.86 1277.01 440.09 1151.55 534.24 1114.92 609.12 1273.41 617.77
00023267 00000071 1060.89 247.95 368.00 498.00 1112.64 430.74 1276.69 439.44 1151.81 534.08 1114.46 608.35 1273.31 616.55
00023268 00000072 1060.86 245.61 366.22 496.64 1111.74 429.36 1275.02 438.22 1151.18 532.70 1112.69 606.69 1271.52 615.08
00023269 00000073 1060.51 241.14 366.02 498.83 1111.25 428.54 1272.80 436.90 1150.05 530.63 1112.16 605.61 1268.69 613.74
00023270 00000074 1059.53 239.21 366.63 502.77 1109.34 428.26 1271.69 434.48 1149.89 530.63 1113.62 607.96 1269.68 614.28
00023271 00000075 1056.20 238.07 368.70 515.67 1109.22 429.38 1269.38 432.43 1150.57 530.65 1117.84 611.16 1267.32 615.23
00023272 00000076 1054.13 237.91 369.32 521.17 1108.60 430.28 1268.36 433.11 1151.07 532.41 1119.49 613.99 1266.82 617.86
00023273 00000077 1052.50 242.19 368.99 517.17 1105.63 431.37 1265.44 434.15 1149.05 535.58 1118.63 616.17 1264.01 620.09
00023274 00000078 1052.00 243.03 368.99 516.28 1100.84 435.32 1262.99 436.91 1144.34 538.85 1114.24 622.47 1260.99 625.54
00023275 00000079 1053.17 246.16 366.55 513.91 1101.28 441.57 1263.57 443.50 1146.36 542.10 1113.09 623.72 1261.66 626.52
00023276 00000080 1054.02 248.38 366.15 510.16 1101.34 448.37 1262.90 449.15 1145.41 543.65 1111.28 628.23 1258.55 630.35
00023277 00000081 1054.17 248.92 366.48 508.32 1102.56 444.87 1263.37 447.44 1145.06 541.67 1112.24 626.15 1257.35 629.76
00023278 00000082 1054.66 242.72 366.28 511.82 1105.07 438.11 1265.34 443.82 1146.57 538.49 1113.98 621.09 1256.88 627.46
00023279 00000083 1057.08 236.75 366.46 513.97 1109.44 431.30 1267.74 438.59 1147.29 532.53 1116.02 615.91 1256.54 623.65
00023280 00000084 1059.28 233.98 365.33 513.34 1111.24 426.95 1270.11 435.77 1146.95 528.18 1115.87 613.71 1257.24 622.74
00023281 00000085 1060.90 236.24 365.93 511.29 1113.10 423.12 1272.97 436.77 1146.69 526.68 1113.00 610.50 1256.84 623.45
00023282 00000086 1061.68 240.37 365.35 509.76 1114.41 426.40 1273.87 441.94 1145.98 528.42 1112.54 613.44 1255.63 628.09
00023283 00000087 1060.83 244.39 366.63 511.47 1114.59 430.81 1276.42 448.92 1146.26 531.50 1109.22 618.38 1256.00 634.96
00023284 00000088 1061.55 247.92 367.35 516.54 1113.63 434.65 1277.75 456.14 1142.64 538.56 1104.71 625.61 1254.02 644.92
00023285 00000089 1059.53 250.78 368.84 519.48 1111.99 436.46 1278.75 459.63 1142.99 545.61 1104.44 632.45 1253.47 652.85
00023286 00000090 1058.78 252.21 369.44 519.02 1110.15 439.81 1278.03 461.35 1141.96 549.17 1104.57 635.83 1253.69 654.79
00023287 00000091 1056.24 253.56 371.50 520.45 1107.40 442.98 1276.72 460.33 1143.11 550.43 1105.50 638.80 1255.58 654.21
00023288 00000092 1052.35 247.73 373.57 526.34 1103.76 445.13 1273.60 457.85 1143.27 551.52 1105.12 641.22 1254.84 653.04
00023289 00000093 1049.84 247.11 373.84 526.29 1099.28 448.69 1270.05 456.44 1142.70 554.02 1104.77 643.73 1254.99 651.60
00023290 00000094 1045.99 244.56 374.99 534.55 1093.31 451.76 1264.70 455.33 1140.72 557.59 1102.63 647.09 1253.17 651.75
00023291 00000095 1042.31 249.42 374.46 529.04 1087.94 456.35 1259.33 457.57 1136.05 561.81 1100.05 649.95 1249.48 652.80
00023292 00000096 1040.31 252.45 372.15 526.65 1083.77 457.62 1252.80 459.01 1128.83 563.36 1097.21 650.77 1245.14 653.88
00023293 00000097 1039.28 255.06 367.89 521.99 1080.88 459.23 1247.38 462.70 1123.44 564.39 1092.69 650.25 1237.63 655.23
00023294 00000098 1038.46 254.57 366.36 520.67 1081.28 456.70 1245.62 465.02 1120.93 564.69 1091.33 647.39 1231.88 656.11
00023295 00000099 1039.17 254.80 364.54 519.36 1081.88 455.19 1244.23 465.46 1118.57 563.44 1090.11 646.75 1228.36 657.08
00023296 00000100 1039.82 252.63 364.59 523.60 1083.42 453.46 1246.19 464.98 1119.38 563.09 1091.35 645.95 1229.37 657.19
00023297 00000101 1041.86 253.90 364.00 526.05 1086.08 453.77 1248.09 466.58 1120.66 564.40 1093.11 646.22 1231.23 658.47
00023298 00000102 1045.37 257.21 364.10 520.54 1088.07 457.78 1249.87 469.80 1122.26 567.39 1095.39 647.99 1234.40 659.48
00023299 00000103 1045.29 261.22 366.79 515.53 1088.92 460.47 1251.16 471.05 1124.33 570.48 1098.02 649.58 1237.72 659.86
00023300 00000104 1043.37 263.23 370.81 513.02 1087.75 462.89 1251.91 469.85 1127.33 572.91 1101.59 650.87 1243.20 658.09
00023301 00000105 1041.79 261.41 370.29 513.34 1086.24 463.34 1250.70 467.72 1128.17 571.60 1102.64 651.47 1243.51 656.49
00023302 00000106 1041.25 261.15 366.47 510.77 1082.92 462.80 1246.21 466.30 1125.18 570.25 1100.48 649.94 1240.03 654.19
00023303 00000107 1040.23 257.71 364.63 510.18 1079.97 459.80 1241.90 464.90 1120.77 569.22 1097.83 648.86 1233.97 654.44
00023304 00000108 1040.53 256.84 362.66 508.70 1078.60 457.48 1240.68 464.13 1117.94 566.79 1095.54 647.26 1231.57 654.15
00023305 00000109 1041.17 254.46 362.67 511.74 1080.52 452.75 1242.36 464.27 1117.72 566.42 1093.62 645.15 1227.39 656.25
00023306 00000110 1042.70 254.36 363.25 512.83 1083.52 450.32 1245.14 464.37 1117.86 564.29 1093.02 643.34 1227.22 656.57
00023307 00000111 1045.14 252.35 362.91 516.34 1088.40 448.21 1249.57 464.05 1119.43 560.70 1092.50 641.36 1226.86 656.17
00023308 00000112 1047.02 250.98 363.35 518.53 1091.55 445.99 1252.74 463.71 1119.91 559.82 1093.40 640.52 1228.75 656.86
00023309 00000113 1046.78 251.10 364.10 518.39 1091.94 446.65 1253.55 462.55 1121.09 558.75 1094.33 641.87 1228.32 656.79
00023310 00000114 1045.80 253.01 364.71 517.04 1090.90 446.04 1254.08 461.14 1122.37 558.53 1094.23 643.08 1227.60 657.39
00023311 00000115 1042.77 251.14 366.45 521.93 1087.17 447.03 1251.57 457.74 1122.64 558.51 1095.69 647.56 1226.86 658.34
00023312 00000116 1038.71 253.69 369.19 520.61 1082.66 450.99 1246.89 456.22 1121.57 559.02 1098.06 650.09 1228.31 656.22
00023313 00000117 1036.56 253.65 368.41 520.28 1078.94 452.31 1243.63 455.22 1121.05 561.01 1098.83 652.01 1228.55 656.16
00023314 00000118 1036.39 251.92 367.17 521.74 1078.42 454.07 1242.33 456.29 1120.12 561.48 1098.54 652.51 1229.20 655.95
00023315 00000119 1037.53 254.70 368.14 519.91 1079.80 453.86 1242.80 458.52 1118.19 562.40 1097.68 651.58 1228.00 657.11
00023316 00000120 1038.21 251.28 370.02 526.30 1081.67 452.71 1245.84 457.22 1119.15 560.48 1099.65 651.83 1229.66 657.16
00023317 00000121 1040.25 251.57 370.79 530.42 1083.17 451.86 1248.29 457.93 1119.50 560.64 1099.69 653.34 1233.26 659.93
00023318 00000122 1042.76 252.56 370.51 528.91 1087.07 450.90 1251.03 458.47 1121.50 559.58 1100.38 651.72 1234.50 659.68
00023319 00000123 1044.22 252.87 370.17 522.24 1088.29 449.33 1251.72 458.85 1121.17 558.50 1098.84 647.58 1233.93 657.00
00023320 00000124 1045.45 252.45 368.67 518.54 1086.81 447.82 1251.34 458.84 1120.87 559.09 1094.51 644.45 1233.74 655.33
00023321 00000125 1044.98 251.95 367.55 517.09 1085.50 447.73 1251.16 458.15 1122.15 560.42 1094.75 644.85 1234.23 655.18
00023322 00000126 1044.26 254.76 366.66 512.20 1083.81 448.63 1249.83 456.45 1122.01 560.29 1096.30 646.23 1234.09 654.46
00023323 00000127 1043.46 257.47 367.42 509.56 1083.16 449.73 1248.66 456.06 1122.16 560.22 1096.57 646.06 1234.35 653.13
00023324 00000128 1042.37 257.01 368.85 511.50 1081.74 449.13 1248.70 453.81 1121.91 558.66 1096.92 647.32 1234.82 652.94
00023325 00000129 1041.22 254.69 370.40 517.37 1081.72 446.52 1249.15 450.05 1121.49 554.71 1097.79 648.15 1234.24 653.10
00023326 00000130 1040.25 252.54 370.87 521.61 1084.22 442.74 1251.16 446.46 1124.77 547.91 1097.37 646.59 1232.96 651.88
CROP_BBOX: 796 0 1663 942
