Video ID: 	4pG1f3-n7pA
H: 	1080
W: 	1920
FPS: 	25.0

FRAME INDEX X0 Y0 W H [Landmarks (5 Points)]

00003050 00000000 867.29 206.16 429.43 572.96 981.38 421.93 1171.19 413.07 1081.66 508.85 1011.24 632.53 1163.12 622.79
00003051 00000001 870.40 206.10 431.54 575.08 983.02 422.91 1173.54 413.20 1083.48 509.84 1013.48 634.56 1165.11 623.96
00003052 00000002 872.25 204.59 432.54 578.19 984.44 422.84 1176.11 413.10 1085.50 513.32 1015.67 637.67 1165.95 627.00
00003053 00000003 870.14 204.01 432.90 581.49 987.59 412.83 1176.88 414.52 1085.15 518.38 1015.40 632.30 1165.20 635.08
00003054 00000004 871.13 203.40 433.48 583.59 989.03 414.02 1177.65 415.37 1087.12 519.98 1017.57 633.52 1165.95 636.13
00003055 00000005 870.99 205.15 433.89 584.49 988.78 414.37 1176.35 415.95 1085.80 521.33 1017.57 635.23 1164.58 638.23
00003056 00000006 874.67 217.45 428.79 577.50 990.03 419.92 1174.10 413.37 1090.65 520.65 1020.43 639.23 1163.18 633.02
00003057 00000007 872.48 217.65 430.03 580.43 987.58 421.40 1171.68 415.54 1087.02 523.49 1017.05 640.87 1161.22 635.30
00003058 00000008 868.24 209.14 437.21 592.74 981.31 429.47 1172.05 419.71 1081.99 526.70 1014.26 649.64 1163.38 638.73
00003059 00000009 866.85 212.15 437.47 593.88 978.93 431.21 1170.11 420.43 1078.53 530.03 1013.38 653.31 1161.83 641.60
00003060 00000010 863.24 211.66 438.63 595.56 975.95 432.72 1166.03 422.63 1076.04 534.02 1012.82 656.00 1158.34 645.02
00003061 DELETE   859.92 215.85 437.38 591.46 971.76 435.64 1161.28 425.15 1070.14 536.58 1008.96 656.54 1155.56 645.42
00003062 DELETE   855.57 216.09 440.30 589.31 966.58 437.58 1156.18 425.51 1065.58 538.34 1005.95 656.06 1153.18 643.59
00003063 00000013 853.93 218.71 437.31 583.16 963.54 439.09 1151.46 426.70 1062.45 542.00 1003.51 655.52 1150.69 642.93
00003064 00000014 851.65 221.76 436.06 579.10 959.29 439.34 1146.16 426.92 1057.44 542.30 999.83 654.88 1147.49 642.28
00003065 00000015 846.65 225.14 435.70 576.70 954.31 440.51 1139.25 426.29 1053.71 544.17 995.98 654.87 1143.43 640.99
00003066 00000016 842.60 227.31 433.23 575.43 950.26 443.37 1132.94 428.20 1050.52 547.81 992.16 653.40 1141.61 639.09
00003067 00000017 837.06 229.92 433.96 576.31 944.68 446.03 1127.94 429.36 1045.86 547.55 988.64 655.05 1136.93 639.65
00003068 00000018 835.69 235.68 430.83 571.58 940.60 444.21 1122.96 428.95 1037.81 547.70 984.02 654.84 1130.07 641.17
00003069 00000019 829.92 233.75 431.15 573.41 933.58 444.80 1116.59 430.39 1032.12 550.94 978.78 655.40 1124.26 642.47
00003070 00000020 826.19 231.40 429.95 573.90 929.25 445.78 1113.01 429.98 1028.89 550.00 973.45 654.20 1121.25 640.28
00003071 00000021 822.44 229.54 428.95 572.84 925.41 444.56 1108.27 430.03 1024.29 550.63 966.78 652.06 1114.76 639.38
00003072 00000022 816.13 225.46 431.51 575.94 918.20 443.18 1104.00 429.14 1018.27 551.23 959.12 652.41 1109.87 640.68
00003073 00000023 811.29 224.49 431.25 577.15 911.69 439.62 1101.46 426.94 1011.51 546.62 951.88 651.36 1104.29 640.50
00003074 00000024 806.44 222.32 429.78 579.48 908.68 439.42 1096.72 426.10 1008.30 542.96 948.62 650.77 1101.00 639.57
00003075 00000025 799.76 215.13 434.91 580.85 900.92 445.03 1093.49 427.54 998.25 545.74 940.49 653.73 1100.47 636.17
00003076 00000026 793.13 214.77 438.53 579.51 896.85 445.33 1087.46 428.39 994.11 547.63 936.57 652.86 1093.65 636.19
00003077 00000027 787.29 217.53 438.21 578.38 890.78 445.46 1082.42 429.45 988.63 549.07 929.45 652.69 1088.86 636.98
00003078 00000028 782.60 218.07 439.64 581.48 887.24 443.59 1077.36 429.33 985.62 547.83 927.42 654.87 1081.85 640.55
00003079 00000029 777.53 222.37 439.17 583.91 882.97 442.76 1069.49 429.01 979.82 547.99 924.16 657.36 1073.30 643.83
00003080 00000030 773.92 225.64 436.35 580.40 878.11 444.33 1061.60 429.97 975.17 550.16 920.22 657.18 1067.62 643.42
00003081 00000031 766.23 223.23 435.92 583.46 871.79 444.27 1057.34 429.33 972.24 549.48 914.70 655.48 1063.82 641.60
00003082 00000032 764.45 229.12 430.18 576.46 868.21 444.16 1053.12 431.02 966.71 550.66 908.69 653.35 1059.33 641.34
00003083 00000033 762.35 230.22 430.24 575.79 865.62 446.05 1049.57 433.50 963.96 553.55 905.61 653.75 1056.27 642.22
00003084 00000034 758.67 230.45 429.84 574.10 862.88 447.98 1047.46 434.94 961.88 555.45 903.53 654.29 1056.11 642.38
00003085 00000035 754.62 230.24 430.83 573.04 859.19 448.02 1045.44 435.73 958.73 556.69 899.13 653.67 1052.42 642.62
00003086 00000036 752.10 229.80 430.64 571.53 857.47 448.45 1043.43 436.12 957.70 555.35 895.31 650.86 1051.02 639.83
00003087 00000037 750.26 231.02 431.06 569.74 855.10 446.71 1041.58 435.23 954.58 553.75 891.27 649.16 1047.80 638.84
00003088 00000038 748.78 230.25 430.44 571.09 854.40 447.35 1038.72 436.43 953.29 554.46 889.37 648.74 1045.53 639.04
00003089 00000039 748.21 230.36 430.09 571.27 853.60 446.12 1037.16 435.61 951.85 554.00 888.47 648.07 1042.95 638.71
00003090 00000040 747.68 230.77 428.05 570.54 850.60 444.77 1035.74 433.61 949.41 553.28 886.37 648.96 1040.87 639.24
00003091 00000041 747.22 228.70 426.39 577.46 849.76 443.35 1034.32 432.68 948.64 551.24 887.27 650.93 1039.92 641.55
00003092 00000042 745.08 230.26 427.79 577.61 849.14 442.96 1032.75 432.96 946.98 551.39 887.03 652.56 1036.65 643.72
00003093 00000043 744.73 229.55 427.37 579.79 847.99 443.50 1032.60 433.18 946.75 552.21 886.03 654.53 1035.59 645.50
00003094 00000044 744.45 229.33 428.40 585.57 847.72 445.05 1032.83 434.06 946.79 553.66 885.54 658.43 1037.56 648.79
00003095 00000045 744.31 230.90 429.48 588.21 849.40 445.15 1033.72 435.17 947.59 555.88 886.81 660.00 1038.61 651.00
00003096 00000046 744.11 231.34 429.55 586.84 849.44 447.17 1035.87 437.61 948.89 558.88 885.51 661.86 1038.72 653.42
00003097 00000047 743.73 233.49 428.11 576.60 849.61 449.98 1039.10 441.80 948.28 560.57 880.76 658.93 1039.52 651.91
00003098 00000048 743.70 234.86 429.01 576.85 849.75 449.61 1039.13 440.64 949.60 559.97 882.30 659.50 1040.63 651.76
00003099 00000049 744.00 235.37 428.96 580.39 850.46 448.20 1038.27 439.94 949.50 559.54 883.56 660.74 1038.09 653.55
00003100 00000050 744.07 234.56 428.84 575.74 850.01 450.10 1039.26 440.87 950.09 559.52 883.89 658.79 1040.61 650.73
00003101 00000051 744.67 234.36 427.16 572.50 850.74 450.43 1040.31 442.28 950.23 559.46 882.53 656.55 1040.58 649.61
00003102 00000052 745.33 235.07 426.14 571.90 851.21 450.65 1040.09 442.75 950.63 559.45 881.95 655.82 1040.87 649.11
00003103 00000053 743.38 232.70 428.48 576.21 850.90 450.26 1038.89 443.74 950.26 561.02 880.98 655.82 1039.34 650.06
00003104 00000054 742.61 232.92 429.05 578.33 849.02 450.17 1037.50 442.46 949.02 560.80 881.02 656.86 1038.85 650.01
00003105 00000055 743.33 231.86 428.37 578.68 848.60 450.95 1036.27 442.97 948.18 562.08 881.05 656.78 1037.61 649.68
00003106 00000056 742.21 232.92 428.59 577.88 848.81 450.01 1035.63 443.14 947.72 560.70 880.14 656.67 1034.36 650.69
00003107 00000057 742.08 232.56 427.64 576.62 849.07 450.30 1035.38 444.28 946.82 561.56 879.93 658.55 1031.30 653.58
00003108 00000058 741.75 230.66 427.99 580.19 849.40 449.45 1036.05 443.86 947.49 561.57 879.85 658.70 1031.76 653.99
00003109 00000059 740.89 231.37 429.70 583.21 847.32 449.60 1035.36 441.94 947.20 561.91 880.32 660.68 1034.30 654.00
00003110 00000060 739.31 230.29 431.23 586.90 846.37 448.73 1034.92 440.93 946.45 561.49 880.12 662.17 1034.01 655.21
00003111 00000061 738.75 232.43 433.08 585.68 844.96 448.02 1035.47 439.90 945.36 560.02 879.31 663.14 1033.78 655.81
00003112 00000062 739.41 232.07 431.95 583.83 845.25 448.63 1035.28 440.91 944.62 560.13 878.22 662.57 1032.73 655.73
00003113 00000063 740.59 231.44 430.64 581.56 846.76 449.70 1037.08 442.40 945.87 561.34 878.43 660.47 1036.43 653.95
00003114 00000064 741.58 233.27 431.99 579.51 847.92 451.21 1039.26 443.68 947.24 562.49 880.14 660.59 1038.28 653.84
00003115 00000065 744.19 232.43 430.32 584.51 848.80 452.27 1040.01 443.37 949.14 563.56 882.06 664.36 1041.22 656.40
00003116 00000066 744.66 232.63 430.12 586.33 850.60 451.81 1041.36 442.86 951.74 564.29 884.88 666.05 1041.42 658.10
00003117 00000067 745.06 232.29 430.60 584.98 851.14 452.53 1042.93 443.87 952.36 563.80 884.79 664.32 1042.66 656.64
00003118 00000068 745.72 230.99 430.49 583.82 852.73 452.46 1043.93 445.16 953.59 562.64 884.93 661.72 1043.69 655.13
00003119 00000069 745.47 231.24 431.40 584.25 853.57 451.88 1043.81 444.72 954.47 562.49 886.84 661.22 1044.02 654.72
00003120 00000070 747.15 230.70 429.56 585.71 855.38 450.55 1045.18 444.54 955.95 562.06 886.41 661.76 1045.24 656.26
00003121 00000071 747.85 231.03 430.47 588.50 855.32 448.59 1046.25 441.09 957.24 561.79 889.89 664.79 1046.06 657.92
00003122 00000072 747.79 231.61 431.58 590.60 856.07 448.16 1047.21 441.27 958.26 561.41 890.99 666.37 1044.91 660.05
00003123 00000073 747.60 231.28 432.30 589.22 857.00 449.24 1048.95 443.40 959.67 561.58 891.09 664.78 1047.74 659.18
00003124 00000074 748.26 232.10 430.88 581.77 859.00 448.81 1050.92 444.10 961.18 560.37 891.75 659.90 1048.35 655.32
00003125 00000075 747.70 230.83 431.28 581.76 859.83 448.75 1051.63 444.24 962.92 560.65 892.00 658.59 1049.36 654.21
00003126 00000076 748.01 229.20 430.36 584.70 860.48 448.65 1051.55 444.36 964.04 560.29 892.31 659.07 1049.41 654.87
00003127 00000077 747.70 228.72 430.71 587.63 860.80 448.34 1050.47 442.97 965.54 559.35 894.78 659.68 1050.34 654.41
00003128 00000078 748.03 227.35 430.83 591.33 860.60 447.96 1050.15 441.49 966.20 559.21 896.00 661.63 1049.65 655.35
00003129 00000079 747.92 227.11 430.37 592.60 859.85 448.22 1049.88 441.81 965.62 559.75 895.34 662.77 1050.03 656.51
00003130 00000080 747.93 228.17 429.50 590.82 859.30 448.01 1050.75 442.38 965.19 559.17 893.43 661.98 1049.60 656.42
00003131 00000081 747.37 228.33 429.90 589.03 858.33 448.21 1050.20 442.56 963.39 559.01 892.25 661.22 1049.52 655.69
00003132 00000082 746.08 228.03 430.31 590.61 858.23 447.87 1050.48 442.98 963.18 559.26 890.75 662.84 1047.92 658.07
00003133 00000083 745.23 228.87 430.99 591.38 856.18 447.58 1049.15 441.09 961.30 559.81 889.84 663.44 1047.55 657.30
00003134 00000084 744.19 230.33 432.06 588.73 855.76 448.03 1048.20 442.12 960.00 559.15 888.95 660.63 1048.30 654.97
00003135 00000085 745.08 231.50 429.18 584.95 855.17 448.02 1047.61 442.76 958.60 559.05 887.48 659.90 1047.00 654.94
00003136 00000086 743.81 231.76 428.87 581.78 854.23 449.70 1045.72 444.68 956.52 558.92 883.48 658.00 1046.15 653.29
00003137 00000087 741.71 230.56 430.36 586.62 852.04 449.68 1043.84 442.54 955.99 558.74 883.24 661.51 1046.95 655.02
00003138 00000088 741.99 231.58 430.07 588.85 852.23 448.87 1043.34 441.61 955.46 560.20 885.79 664.76 1043.89 658.25
00003139 00000089 740.91 232.23 430.00 587.07 852.35 447.70 1042.64 441.14 954.48 559.27 884.42 664.15 1039.84 658.39
00003140 00000090 740.37 231.84 430.29 586.64 850.64 449.09 1041.75 441.33 953.00 558.99 884.20 664.83 1040.65 657.93
00003141 00000091 740.40 232.57 429.18 582.22 850.18 448.26 1041.37 440.26 951.92 557.97 882.92 661.90 1040.98 654.82
00003142 00000092 741.04 229.90 427.55 580.45 851.07 448.41 1042.52 441.40 953.03 557.83 882.48 660.35 1040.69 654.07
00003143 00000093 740.58 230.64 428.66 581.77 849.75 449.01 1041.95 441.59 951.64 559.33 881.39 660.52 1041.43 653.82
00003144 00000094 741.20 232.25 429.76 584.33 848.79 450.04 1041.17 441.71 950.92 561.31 881.33 662.84 1041.92 655.35
00003145 00000095 740.90 232.42 430.04 585.13 850.53 451.55 1040.51 445.05 950.94 562.25 881.01 661.88 1040.68 655.95
00003146 00000096 739.17 232.36 431.86 582.86 849.57 451.55 1039.33 444.93 949.49 562.29 880.28 659.34 1039.74 653.24
00003147 00000097 739.05 235.27 432.68 577.28 849.82 451.85 1039.79 445.77 949.17 561.81 878.31 656.40 1039.21 650.83
00003148 00000098 740.72 232.92 431.21 580.40 851.15 453.10 1040.77 447.07 950.47 563.29 879.67 657.98 1040.71 652.44
00003149 00000099 743.41 232.61 429.49 583.42 852.47 453.78 1043.62 446.66 954.31 564.07 882.55 663.07 1044.20 656.57
00003150 00000100 744.84 232.12 430.88 585.26 856.28 452.92 1049.50 447.93 959.70 564.93 886.01 664.06 1048.99 659.11
00003151 DELETE   746.29 231.21 431.42 586.52 860.41 452.43 1054.11 449.62 965.36 563.14 888.52 662.96 1053.17 659.72
00003152 00000102 751.01 232.54 430.06 583.23 867.52 453.53 1058.18 450.24 973.04 561.94 896.08 660.63 1058.80 656.92
CROP_BBOX: 566 0 1478 973
