Video ID: 	35Qe9Z2jFnY
H: 	1080
W: 	1920
FPS: 	25.0

FRAME INDEX X0 Y0 W H [Landmarks (5 Points)]

00004562 00000000 350.69 258.96 468.41 619.63 511.66 528.08 688.00 460.62 661.69 587.15 595.59 723.97 760.27 665.74
00004563 00000001 348.27 257.78 463.17 615.39 509.26 527.04 685.36 461.56 658.02 583.53 593.01 723.82 753.17 667.51
00004564 00000002 346.62 253.98 462.58 616.05 507.96 527.45 685.70 461.61 658.62 584.83 593.46 727.05 752.07 670.79
00004565 00000003 346.11 255.14 463.38 615.16 509.15 528.24 684.11 460.62 661.53 584.71 598.95 727.29 756.17 669.54
00004566 00000004 345.10 261.01 468.21 613.08 511.92 529.29 683.31 457.44 667.09 583.17 603.53 727.24 760.74 665.85
00004567 00000005 344.22 261.50 468.33 611.81 516.28 530.43 684.37 457.50 673.95 583.35 605.81 727.34 760.62 665.47
00004568 00000006 342.36 261.47 469.73 613.71 516.37 534.74 684.22 456.05 677.21 583.98 609.19 731.50 762.17 665.08
00004569 00000007 338.24 261.42 470.43 614.21 511.95 542.96 678.32 460.15 673.36 590.35 606.48 735.39 758.48 666.68
00004570 DELETE   332.53 251.37 465.08 636.31 486.34 551.44 671.84 472.48 654.71 607.71 600.33 753.56 755.45 688.30
00004571 DELETE   311.89 266.63 474.99 622.67 472.21 555.95 652.11 476.08 631.67 611.40 568.76 751.24 725.20 681.62
00004572 00000010 307.34 272.22 468.90 618.06 461.46 557.83 645.53 479.47 618.61 621.21 558.33 755.28 716.75 687.42
00004573 00000011 305.74 272.52 469.98 620.11 459.91 556.09 641.12 477.12 616.05 617.46 557.58 753.23 716.05 684.90
00004574 00000012 308.88 265.28 473.67 621.95 468.64 553.98 644.98 470.29 626.93 608.23 572.36 753.10 720.92 680.30
00004575 DELETE   316.66 266.13 481.06 623.17 480.75 556.40 661.66 473.75 646.34 604.80 583.85 753.45 740.51 681.37
00004576 00000014 332.06 264.38 468.39 624.97 492.64 563.25 666.51 476.75 657.05 609.41 596.37 756.83 753.41 685.49
00004577 00000015 334.31 268.79 468.35 622.40 494.60 561.14 670.17 477.10 656.86 609.54 593.04 753.78 753.58 684.13
00004578 DELETE   323.78 268.47 473.32 619.59 484.50 552.83 672.17 472.13 650.85 608.96 577.47 752.14 741.41 681.91
00004579 00000017 333.60 260.68 463.25 626.80 492.23 546.17 664.51 471.01 645.61 600.40 584.30 743.93 740.17 680.90
00004580 DELETE   334.69 260.63 469.98 625.69 495.60 542.63 669.33 465.44 651.18 595.91 590.08 741.08 749.41 675.94
00004581 DELETE   339.68 261.51 473.34 622.91 505.52 544.35 677.25 464.53 664.21 595.79 596.61 737.90 757.27 671.07
00004582 00000020 345.79 262.79 468.09 621.33 510.58 543.57 684.88 463.80 670.64 601.00 598.81 739.85 759.75 673.18
00004583 00000021 346.40 262.76 461.45 610.97 510.55 546.72 687.47 468.03 670.89 606.84 598.56 742.27 757.47 677.11
00004584 DELETE   347.69 262.94 467.77 624.62 503.88 547.53 683.31 470.45 660.54 608.76 590.86 744.82 759.11 680.06
00004585 00000023 344.34 263.22 467.86 634.39 499.84 548.15 676.31 477.43 650.84 611.41 581.90 743.58 750.71 683.79
00004586 00000024 342.15 265.39 465.65 627.17 496.41 548.56 674.03 478.47 646.64 612.25 577.68 742.31 745.67 683.02
00004587 00000025 338.47 263.74 465.23 625.69 490.45 545.81 674.00 476.29 642.48 614.10 573.16 743.49 744.53 684.26
00004588 00000026 335.51 264.30 467.46 622.74 488.11 545.51 672.70 473.03 641.98 614.28 573.50 744.41 744.77 682.82
00004589 00000027 335.35 265.00 468.07 621.13 489.57 544.91 674.06 471.52 643.83 613.66 575.88 743.74 745.50 681.28
00004590 00000028 335.74 266.78 470.20 623.39 491.76 546.15 673.16 472.06 645.71 613.32 578.25 744.28 746.15 681.28
00004591 00000029 333.35 265.96 473.23 626.13 491.63 546.49 671.82 471.08 646.25 612.55 576.43 743.55 745.65 679.47
00004592 00000030 332.97 264.57 471.88 625.07 492.66 543.35 672.51 467.34 649.44 607.35 577.76 742.14 746.11 677.70
00004593 00000031 331.37 263.33 474.95 624.62 493.87 539.96 673.00 460.94 653.59 599.71 581.36 739.95 749.32 672.71
00004594 00000032 333.93 257.75 474.14 622.60 496.93 533.82 671.90 453.53 653.44 591.84 587.92 731.48 752.84 662.92
00004595 00000033 338.13 259.67 470.70 618.99 498.49 524.84 673.66 448.00 651.27 583.33 586.37 721.94 752.84 655.88
00004596 00000034 336.51 261.30 474.60 617.23 497.69 518.72 674.18 442.90 649.37 575.56 584.48 716.02 752.74 650.28
00004597 00000035 335.86 241.08 472.26 628.44 487.69 511.23 673.80 442.82 646.96 570.81 581.14 712.88 752.53 655.94
00004598 00000036 335.61 240.65 471.22 623.06 488.53 508.45 672.83 440.96 647.38 563.98 582.27 709.45 751.20 653.38
00004599 00000037 335.31 236.99 474.04 620.65 490.04 507.04 672.68 437.77 647.97 556.88 582.07 704.36 750.02 647.21
00004600 00000038 333.40 233.33 479.38 620.10 489.40 505.36 669.30 434.31 646.01 550.82 583.14 699.94 750.07 640.87
00004601 00000039 333.62 235.27 480.70 614.46 489.79 501.96 667.60 431.60 645.36 544.82 584.01 695.42 749.92 636.71
00004602 00000040 334.65 230.21 476.20 618.63 490.04 498.52 666.31 429.04 645.73 540.91 583.85 695.55 748.30 637.26
00004603 00000041 332.97 227.31 474.87 617.23 487.08 498.04 662.19 428.01 641.41 539.02 582.84 694.23 744.77 635.35
00004604 00000042 332.40 226.00 470.85 614.47 484.70 495.69 661.41 427.70 637.85 538.93 579.30 692.97 740.73 635.51
00004605 00000043 330.37 224.75 468.38 612.63 482.25 495.70 659.71 429.02 635.16 539.18 576.26 693.03 736.47 636.63
00004606 00000044 328.89 223.43 468.76 612.40 479.98 493.51 657.43 427.62 632.33 540.28 574.06 692.83 734.39 636.88
00004607 00000045 328.46 223.53 468.49 612.56 478.22 493.66 655.92 426.54 631.51 540.87 573.30 693.94 734.87 636.80
00004608 00000046 327.56 225.20 466.48 611.10 476.61 493.40 655.56 426.65 630.34 540.21 570.78 693.75 733.54 636.47
00004609 00000047 318.14 230.46 474.83 609.96 476.18 498.89 656.33 427.52 627.57 541.85 568.34 699.57 724.28 635.56
00004610 00000048 317.22 230.74 475.37 610.13 475.15 498.67 655.10 427.42 625.77 541.40 566.67 699.40 722.68 635.55
00004611 00000049 316.95 231.12 473.97 609.31 474.38 497.52 654.22 426.58 624.21 541.97 565.50 699.66 720.42 636.17
00004612 00000050 316.52 232.18 473.69 609.81 473.90 495.83 651.75 426.36 621.32 540.68 563.82 699.40 716.71 637.16
00004613 00000051 316.50 231.12 474.96 611.06 473.22 495.37 650.38 424.30 619.09 539.11 561.51 697.17 716.44 633.80
00004614 00000052 315.47 229.28 473.20 613.18 472.25 494.36 649.53 424.15 619.30 537.46 560.16 695.59 716.32 632.96
00004615 00000053 314.62 229.99 475.34 601.27 461.59 486.08 651.64 418.98 617.50 533.12 556.18 687.87 721.57 628.40
00004616 00000054 313.49 229.86 474.79 600.87 460.74 485.15 648.68 418.83 615.14 532.57 553.03 685.87 717.96 627.21
00004617 00000055 311.90 228.88 474.40 602.25 459.93 485.35 647.94 418.53 614.83 531.50 551.53 685.98 716.59 627.13
00004618 00000056 310.19 229.17 474.52 603.51 458.54 485.28 646.16 417.93 613.49 531.94 550.21 686.42 715.33 627.51
00004619 00000057 308.54 229.15 474.34 603.83 457.53 485.26 645.07 418.05 612.52 533.22 549.15 686.62 714.28 628.08
00004620 00000058 308.36 229.57 473.81 602.62 456.77 485.07 645.72 416.93 612.72 533.47 549.53 687.71 715.36 628.36
00004621 00000059 307.70 230.44 474.60 602.14 456.64 485.57 645.93 417.93 612.73 534.07 548.46 687.90 714.55 629.15
00004622 00000060 307.86 231.33 474.25 600.41 456.70 485.49 646.13 418.01 613.14 534.91 549.08 687.82 715.16 629.11
00004623 00000061 308.28 230.42 471.42 598.23 456.79 485.76 645.93 417.11 613.44 535.48 548.99 686.62 714.89 626.83
00004624 00000062 308.58 231.28 472.27 594.02 456.93 484.99 647.63 414.32 615.00 536.68 549.35 684.15 718.26 622.38
00004625 00000063 308.90 231.22 473.05 592.99 457.17 484.87 649.06 414.86 615.61 538.22 548.67 682.94 719.75 621.67
00004626 00000064 309.24 232.53 473.28 589.68 458.25 485.29 650.02 415.40 616.53 538.93 549.32 681.71 720.14 620.58
00004627 00000065 309.33 232.58 474.42 590.32 459.33 485.85 649.78 417.46 616.31 539.79 549.45 681.03 719.41 621.21
00004628 00000066 309.74 236.87 475.94 584.72 464.11 502.79 651.82 434.41 619.92 539.27 552.34 682.82 719.35 623.81
00004629 00000067 311.27 238.02 472.91 582.46 467.60 508.99 658.37 444.45 624.90 540.32 552.93 684.12 720.94 628.34
00004630 00000068 309.64 235.35 470.99 593.23 465.44 512.95 653.20 446.14 622.68 544.49 552.16 690.23 718.17 632.96
00004631 00000069 309.15 234.97 466.85 599.05 464.95 513.95 647.52 446.38 618.97 549.11 549.48 692.48 712.64 635.03
00004632 00000070 306.67 238.41 468.27 597.83 462.20 514.93 643.79 446.22 614.84 553.07 547.63 694.30 708.67 636.22
00004633 00000071 302.90 239.48 470.07 599.38 458.68 516.95 639.76 446.56 610.99 558.09 544.74 696.98 705.26 638.13
00004634 00000072 300.22 240.59 474.13 603.04 455.30 516.45 640.30 445.23 609.82 559.97 542.04 700.65 707.00 641.03
00004635 00000073 300.77 246.58 470.97 606.55 459.66 518.32 637.26 446.56 612.28 565.75 545.33 707.37 708.25 644.86
00004636 00000074 301.91 249.27 469.73 604.83 459.87 519.84 636.82 447.66 611.26 571.90 543.85 708.85 706.15 646.26
00004637 00000075 303.25 254.17 467.61 599.17 459.62 520.82 638.17 449.82 610.02 577.95 543.41 712.45 704.61 651.07
00004638 00000076 302.44 253.97 469.26 597.63 459.30 523.56 637.73 451.61 609.20 582.04 545.00 715.15 704.03 653.08
00004639 00000077 299.79 254.58 474.40 602.34 458.81 523.84 638.70 450.61 611.31 583.11 541.20 713.49 706.15 650.57
00004640 00000078 298.19 256.75 475.95 606.76 458.36 524.76 638.24 451.23 611.80 585.32 540.14 715.10 707.65 651.85
00004641 00000079 300.11 250.54 468.49 591.97 453.95 522.73 646.97 449.87 613.24 588.66 541.40 716.83 704.23 656.36
00004642 00000080 303.17 252.49 467.35 593.16 454.12 522.27 646.94 453.24 610.72 587.35 531.21 710.24 704.06 653.11
00004643 00000081 303.43 251.93 473.69 609.66 462.24 522.09 638.03 453.82 614.09 580.98 550.67 713.35 710.04 653.33
00004644 00000082 305.63 241.52 483.71 626.92 465.73 519.32 649.97 442.31 622.63 572.80 550.82 712.61 718.71 645.57
00004645 00000083 324.57 230.18 467.30 629.53 477.49 513.89 660.54 447.82 635.28 565.85 566.61 709.04 735.48 654.43
00004646 00000084 334.59 232.84 462.29 628.42 488.88 510.24 670.12 450.17 643.23 561.65 573.15 705.89 738.81 656.81
00004647 DELETE   337.99 232.95 461.09 631.83 496.87 511.57 677.45 453.13 652.22 565.29 577.32 705.70 744.26 657.65
00004648 00000086 343.91 249.90 462.02 624.96 511.47 516.75 683.23 454.85 659.83 567.10 589.87 710.39 749.91 656.37
00004649 00000087 347.98 250.04 460.90 627.86 516.86 515.81 688.66 456.68 665.53 569.95 592.65 709.68 752.34 657.99
00004650 00000088 352.08 240.45 454.41 636.03 512.02 517.61 689.71 463.79 662.25 575.65 585.85 713.87 747.17 669.96
00004651 00000089 349.69 244.13 454.72 605.44 510.13 525.71 694.83 472.88 662.54 577.81 579.65 709.48 743.53 667.40
00004652 DELETE   349.28 240.26 445.00 600.35 509.19 523.97 690.52 469.90 662.18 579.72 584.44 707.35 741.40 663.61
00004653 DELETE   346.41 239.58 447.94 610.42 501.07 519.84 683.29 463.95 655.21 579.32 579.16 708.70 742.24 662.61
00004654 00000092 341.32 240.51 450.56 608.57 494.36 519.63 676.89 461.60 648.54 580.27 575.18 709.86 737.47 661.49
00004655 00000093 322.29 250.92 464.39 604.36 486.74 516.68 672.06 454.22 641.10 578.61 560.19 713.93 722.58 658.52
00004656 00000094 322.98 249.02 462.01 596.75 484.84 519.55 674.43 456.96 641.32 579.66 561.72 714.66 724.10 658.96
00004657 00000095 323.75 247.71 462.83 598.65 485.60 521.22 673.83 457.01 640.48 581.54 563.69 717.50 722.89 660.60
00004658 00000096 323.85 247.94 465.11 598.40 486.63 522.23 674.09 458.81 640.97 583.05 564.65 717.50 723.29 661.33
00004659 00000097 325.73 248.52 457.57 589.79 487.29 525.18 673.88 460.37 642.46 586.45 567.86 718.13 722.76 660.38
00004660 00000098 327.92 252.71 455.00 591.60 486.39 527.14 672.69 461.91 641.48 589.64 566.09 720.37 724.05 662.37
00004661 00000099 329.35 250.19 451.18 593.23 489.44 535.54 671.89 468.24 643.33 592.94 567.21 720.95 724.91 661.38
00004662 00000100 342.27 248.12 444.54 594.03 491.63 542.12 677.07 479.79 642.15 587.33 573.11 717.55 732.34 667.48
00004663 00000101 342.40 248.48 445.25 593.66 493.99 537.47 676.41 474.82 646.65 588.58 579.97 717.41 736.56 666.47
00004664 00000102 343.35 251.29 446.12 595.35 493.40 533.67 677.60 471.30 647.73 591.05 581.02 718.69 739.36 667.27
00004665 00000103 341.34 253.20 448.86 600.66 491.96 534.14 676.48 470.18 649.44 594.87 583.26 723.16 743.46 670.13
00004666 00000104 340.32 254.36 451.87 599.75 492.76 537.38 678.75 473.34 650.98 600.33 587.88 728.77 744.92 675.98
00004667 00000105 341.20 256.84 449.10 596.59 492.45 540.58 679.70 477.57 649.56 605.71 585.18 729.56 742.30 677.85
00004668 00000106 330.67 266.77 455.44 588.87 491.27 543.75 678.46 474.18 650.56 610.78 572.46 738.00 730.58 676.87
00004669 00000107 328.95 268.14 454.24 593.34 490.62 543.45 675.69 473.59 649.60 612.60 572.81 740.19 729.04 678.76
00004670 00000108 328.55 266.60 455.90 595.34 489.23 544.59 675.52 472.09 649.40 613.84 571.85 740.76 730.80 677.24
00004671 00000109 327.11 266.72 456.69 601.83 486.59 545.06 673.13 473.07 646.16 614.02 570.00 741.43 730.17 678.23
00004672 00000110 325.80 268.84 458.93 602.11 484.57 544.56 672.52 472.24 644.62 613.59 567.56 740.99 730.51 677.65
00004673 00000111 324.86 269.42 458.68 593.04 482.73 545.18 672.54 471.53 643.52 614.34 569.31 743.02 729.89 678.24
00004674 00000112 324.82 268.54 458.28 585.18 483.29 546.23 675.14 472.16 644.88 614.33 570.39 742.46 730.13 677.45
00004675 00000113 322.79 264.82 468.33 607.24 482.66 550.64 676.01 468.21 649.82 616.22 566.91 743.94 738.54 672.25
00004676 00000114 329.34 268.94 471.41 615.33 481.96 552.60 675.29 470.24 649.71 618.36 562.73 746.51 752.09 677.18
00004677 00000115 334.63 268.90 469.34 611.74 490.50 562.43 676.30 477.56 658.16 616.64 576.53 745.10 753.43 674.43
00004678 00000116 335.64 271.80 473.48 624.06 494.26 564.33 675.12 480.80 659.16 620.20 574.84 746.88 753.44 677.10
00004679 00000117 334.23 276.17 478.97 621.04 494.65 570.77 672.34 482.38 662.15 627.50 583.33 754.36 760.50 680.80
00004680 00000118 336.60 274.36 481.52 635.09 492.56 573.33 675.13 482.34 661.37 633.32 577.13 760.30 762.24 684.52
00004681 00000119 336.90 280.33 475.67 637.13 491.16 575.61 676.24 486.93 659.53 639.15 572.27 766.32 760.36 692.27
CROP_BBOX: 24 0 1013 1070
