Video ID: 	mBkKdWTu1ro
H: 	1080
W: 	1920
FPS: 	29.97002997002997

FRAME INDEX X0 Y0 W H [Landmarks (5 Points)]

00001162 00000000 474.78 197.42 556.51 763.94 652.90 493.57 913.72 484.27 818.15 650.01 678.78 764.05 911.24 754.07
00001163 00000001 473.81 192.65 559.39 769.93 649.95 494.99 912.30 484.36 814.96 653.80 682.54 769.42 909.47 758.11
00001164 00000002 473.74 192.89 559.60 769.48 649.93 494.78 912.39 484.46 814.90 653.68 682.45 769.19 909.26 758.15
00001165 00000003 473.22 192.68 560.27 769.01 647.83 494.81 912.08 482.65 814.39 653.30 686.71 773.31 909.27 760.53
00001166 00000004 470.39 187.71 562.54 773.73 644.80 493.96 908.12 478.53 812.50 650.25 689.37 775.23 907.78 759.50
00001167 00000005 466.92 182.04 564.86 778.36 639.30 493.34 902.71 476.51 806.50 646.83 689.45 775.26 906.11 757.84
00001168 00000006 462.59 182.26 564.74 777.56 635.09 493.55 896.54 474.72 802.72 645.94 688.51 776.03 900.67 757.07
00001169 00000007 462.67 182.65 564.64 777.22 635.05 493.52 896.37 474.54 802.73 645.83 688.53 776.12 900.73 757.04
00001170 00000008 458.07 182.96 566.95 775.43 625.70 495.45 888.64 473.41 793.09 648.62 685.36 778.23 894.55 756.86
00001171 00000009 446.21 172.31 567.87 783.67 616.99 493.76 878.26 467.95 786.71 650.41 679.01 780.13 885.46 755.47
00001172 00000010 442.32 183.86 561.12 784.72 605.54 495.91 863.90 464.73 778.17 643.15 675.76 786.77 879.93 760.63
00001173 00000011 435.60 178.50 564.18 792.12 598.88 495.26 861.86 465.40 772.01 648.00 664.92 786.20 877.16 760.90
00001174 00000012 435.74 178.39 564.33 792.22 598.93 495.24 861.83 465.56 771.82 648.06 664.86 786.13 877.02 760.98
00001175 00000013 434.42 179.46 562.45 793.33 598.36 495.04 859.53 467.46 768.33 648.43 659.59 785.17 871.81 761.80
00001176 00000014 438.47 185.52 560.32 789.28 604.02 494.12 858.96 469.50 770.62 640.22 664.82 784.68 870.22 764.07
00001177 DELETE   448.85 184.11 553.67 787.16 618.85 499.71 869.05 478.51 781.23 634.38 665.77 776.86 880.08 758.91
00001178 00000016 457.17 180.56 554.92 781.79 631.10 498.76 886.35 480.26 798.12 634.29 672.81 771.02 892.76 755.49
00001179 DELETE   456.95 181.63 555.08 780.61 631.05 498.68 886.32 480.13 798.24 634.25 672.81 770.92 892.72 755.34
00001180 DELETE   469.68 179.75 551.60 769.49 648.60 493.18 901.06 475.89 815.65 623.82 688.99 763.52 901.98 749.73
00001181 00000019 471.19 190.78 559.99 754.83 668.87 481.17 920.56 465.66 842.18 624.91 706.35 758.48 915.26 743.18
00001182 00000020 477.47 173.78 552.50 776.82 681.06 476.98 924.10 457.09 861.31 619.66 711.78 757.89 928.87 741.38
00001183 00000021 480.76 164.77 551.31 788.86 691.49 472.46 929.64 456.34 874.34 614.27 717.82 756.36 935.78 742.56
00001184 00000022 480.80 164.00 551.19 790.27 691.60 472.55 929.55 456.42 874.36 614.35 717.81 756.53 935.79 742.73
00001185 00000023 481.61 165.08 550.20 795.86 694.26 468.73 931.00 455.68 876.24 612.19 715.39 756.58 933.92 745.57
00001186 00000024 480.12 162.13 550.48 799.41 692.21 465.91 929.61 454.93 871.62 610.94 712.76 755.82 929.19 746.63
00001187 00000025 476.58 160.99 556.27 796.64 683.76 462.74 929.78 452.05 862.49 614.86 713.63 758.63 923.48 749.32
00001188 00000026 473.78 159.10 559.41 796.01 680.08 463.11 927.24 454.39 855.72 619.48 717.31 760.75 917.11 752.83
00001189 00000027 473.92 159.84 559.43 795.20 679.92 463.12 927.30 454.19 855.64 619.31 717.29 760.77 917.33 752.66
00001190 00000028 476.24 159.57 558.22 794.14 680.48 463.92 929.16 455.21 855.51 621.40 719.62 761.38 920.32 753.25
00001191 00000029 478.69 161.10 557.72 792.37 686.02 460.45 933.95 456.01 860.71 621.08 722.21 759.48 920.22 754.77
00001192 00000030 483.67 160.05 555.52 802.51 697.68 460.80 938.29 456.58 871.49 619.52 730.21 762.57 926.51 757.97
00001193 00000031 490.48 164.17 554.87 808.34 707.99 454.71 948.06 457.20 882.32 611.87 723.04 755.94 935.11 757.07
00001194 00000032 490.68 165.20 554.56 807.50 707.86 454.75 947.74 457.22 882.04 611.63 723.19 755.89 935.31 756.97
00001195 00000033 496.91 168.15 556.23 801.35 714.39 452.48 954.72 458.72 890.59 605.79 720.23 747.02 941.99 751.44
00001196 00000034 501.17 172.88 554.83 788.12 714.83 451.28 958.53 456.57 891.53 604.50 718.30 738.21 948.52 741.97
00001197 00000035 503.08 170.36 554.26 785.77 716.73 454.38 961.90 459.16 893.76 609.40 719.79 739.01 949.70 742.41
00001198 00000036 506.33 168.24 553.41 783.33 718.65 458.01 963.31 459.25 896.45 614.73 723.15 737.82 954.22 738.67
00001199 00000037 506.38 168.48 553.56 783.20 718.41 458.05 963.02 459.07 896.30 614.40 723.01 737.90 954.08 738.61
00001200 00000038 508.24 166.64 555.24 784.39 721.43 460.88 966.23 460.08 899.01 617.32 727.56 740.61 956.28 739.75
00001201 00000039 510.65 169.67 557.13 782.89 722.07 464.84 968.74 464.10 899.84 619.82 729.98 743.24 959.72 742.30
00001202 00000040 511.02 169.64 558.22 784.96 723.72 466.93 970.34 467.03 901.60 621.00 728.34 744.46 959.26 744.35
00001203 00000041 511.83 168.71 557.24 787.83 726.73 465.95 971.35 467.75 903.64 620.72 730.09 745.86 957.39 747.21
00001204 00000042 512.17 169.71 556.94 786.71 726.70 466.02 971.27 467.73 903.37 620.80 730.18 745.63 957.34 746.90
00001205 00000043 512.83 167.96 555.75 789.75 729.11 463.45 971.72 466.84 904.92 620.06 730.88 747.15 954.24 749.93
00001206 00000044 513.26 170.24 553.36 788.37 731.75 461.04 971.46 466.71 906.27 619.42 732.12 747.70 951.94 752.39
00001207 00000045 515.26 164.37 554.29 793.35 734.79 459.79 974.44 465.42 907.27 620.56 738.14 751.39 949.87 755.95
00001208 00000046 515.22 163.79 554.64 788.93 736.18 459.45 974.64 465.14 905.41 621.08 746.54 752.77 948.67 757.01
00001209 00000047 515.65 164.55 554.53 788.07 736.33 459.43 974.79 465.24 905.27 621.15 746.68 752.71 948.78 757.05
00001210 00000048 515.38 165.35 556.29 786.13 737.54 458.98 976.41 464.78 906.52 623.06 750.88 753.79 950.14 757.97
00001211 00000049 516.46 164.17 554.97 788.51 736.88 456.70 977.63 464.09 905.88 621.90 750.65 754.09 951.31 759.48
00001212 00000050 514.82 165.96 552.76 782.85 737.78 455.52 977.51 462.94 907.40 620.04 752.52 752.45 950.23 757.56
00001213 00000051 514.21 165.67 551.22 781.10 736.86 454.37 976.57 461.18 906.86 617.30 754.23 752.33 949.66 756.79
00001214 00000052 514.22 165.90 550.78 781.17 736.84 454.35 976.34 460.80 906.94 617.29 754.17 752.48 949.59 756.65
00001215 00000053 514.81 164.76 548.53 788.68 737.85 452.49 974.46 459.79 906.52 614.00 756.98 755.97 947.24 760.83
00001216 00000054 511.51 162.18 549.86 793.77 734.73 450.99 972.48 458.22 904.75 613.95 754.63 757.47 944.05 762.12
00001217 00000055 505.11 165.05 550.82 786.16 726.08 450.40 968.66 453.17 904.17 611.67 748.87 751.81 950.91 752.63
00001218 00000056 494.77 148.90 557.82 793.68 717.38 444.41 964.47 444.19 899.05 602.91 746.96 745.36 951.02 743.32
00001219 00000057 494.94 149.02 557.61 793.72 717.28 444.24 964.30 443.83 898.88 602.77 747.41 745.58 950.85 743.39
00001220 00000058 485.89 139.02 560.81 798.54 707.82 440.91 954.04 440.08 888.35 594.22 742.18 742.57 940.09 739.70
00001221 00000059 486.48 134.76 546.02 792.97 693.43 443.40 942.71 429.32 883.11 581.86 732.71 733.78 942.36 720.59
00001222 00000060 481.79 132.16 546.77 792.86 688.39 441.43 937.83 424.48 878.99 581.27 723.70 728.66 938.39 713.52
00001223 00000061 472.44 137.58 554.32 785.30 695.13 438.27 933.47 431.08 874.00 586.73 714.06 725.32 927.12 718.65
00001224 00000062 478.61 130.38 547.77 801.04 687.62 440.59 935.98 425.01 877.52 578.52 715.42 726.16 936.00 712.14
00001225 00000063 471.76 137.13 554.06 794.50 697.16 435.85 930.90 429.21 874.19 585.75 705.80 721.67 923.15 716.30
00001226 00000064 472.23 142.03 552.92 792.39 698.98 438.67 931.30 431.24 877.07 587.85 702.31 718.82 924.74 713.02
00001227 00000065 473.88 150.96 550.27 781.43 701.18 441.00 932.62 434.28 878.48 591.14 703.25 716.35 926.09 711.13
00001228 00000066 476.13 154.71 552.87 780.69 704.79 444.25 939.41 437.74 886.31 593.28 706.93 719.90 932.65 714.65
00001229 00000067 476.19 154.17 553.04 781.14 704.84 443.99 939.54 437.87 886.04 593.40 706.89 719.67 932.59 714.74
00001230 00000068 481.07 167.03 553.56 775.04 710.93 449.45 945.84 444.39 894.20 602.55 709.61 726.76 936.41 722.93
00001231 00000069 485.66 159.63 555.72 793.09 716.18 463.16 952.80 456.80 901.20 618.71 724.21 743.64 943.64 738.27
00001232 00000070 490.01 150.68 555.74 809.49 721.57 474.91 959.62 468.64 907.93 626.77 735.18 761.54 945.64 755.82
00001233 00000071 493.57 158.62 556.96 803.82 721.26 480.33 961.01 472.88 905.60 634.13 736.73 767.90 944.17 761.35
00001234 00000072 493.36 157.55 556.48 804.99 721.33 480.51 960.93 472.56 906.12 634.50 737.16 768.41 944.34 761.42
00001235 00000073 498.96 163.57 555.32 799.34 724.93 474.08 964.35 472.48 905.64 628.43 737.98 764.06 944.25 762.22
00001236 00000074 502.44 165.30 557.48 797.19 728.71 462.13 967.95 466.39 905.53 620.82 740.12 756.65 948.44 759.39
00001237 00000075 508.91 164.51 556.37 797.16 739.28 454.04 976.17 466.82 912.96 616.36 734.75 746.17 950.32 756.37
00001238 00000076 517.21 165.22 562.08 787.50 751.65 444.73 989.43 464.37 922.55 611.08 737.67 736.42 956.41 752.58
00001239 00000077 517.00 164.53 561.98 788.27 751.77 444.77 989.38 464.40 922.66 611.36 737.62 736.47 956.36 752.63
00001240 00000078 518.56 140.32 568.80 796.90 765.63 439.93 1007.71 460.77 934.01 602.17 754.29 732.36 962.81 747.48
00001241 00000079 524.67 150.12 572.78 785.95 778.61 438.20 1017.23 461.86 947.95 597.95 769.50 729.01 969.65 747.11
00001242 00000080 530.30 159.20 565.11 774.09 785.56 435.13 1022.21 463.04 954.93 592.00 780.23 726.10 974.82 748.21
00001243 00000081 543.78 142.35 562.47 811.38 787.10 428.07 1026.77 450.55 967.93 588.24 779.27 726.94 985.59 744.66
00001244 00000082 543.53 143.63 562.73 810.37 787.12 428.18 1026.86 450.98 967.95 588.22 779.15 726.98 985.64 744.94
00001245 00000083 548.70 131.56 558.56 821.43 791.03 422.33 1027.06 445.61 968.39 583.92 784.08 724.46 985.74 742.87
00001246 00000084 549.04 120.72 563.10 830.07 788.88 419.55 1027.91 442.93 965.64 579.72 784.61 721.60 990.47 739.79
00001247 00000085 552.27 118.08 562.21 829.52 787.44 419.41 1030.07 441.90 963.65 579.84 786.10 721.68 993.40 739.05
00001248 00000086 555.30 122.94 560.83 824.29 787.54 420.60 1032.58 442.19 963.78 581.48 788.69 724.78 995.15 741.41
00001249 00000087 555.24 123.71 560.70 824.11 787.36 420.86 1032.31 442.46 963.78 581.26 789.13 725.23 995.38 741.81
00001250 00000088 549.15 141.55 566.47 795.69 790.17 421.94 1037.08 445.44 963.06 590.66 792.84 729.88 993.76 747.73
00001251 00000089 561.73 135.94 555.27 804.71 790.92 427.16 1037.35 444.65 968.22 586.40 797.87 729.05 1002.95 742.28
00001252 00000090 556.42 142.48 565.83 788.43 794.34 426.68 1042.91 448.19 966.71 593.28 796.10 730.35 1001.34 746.60
00001253 00000091 558.71 143.99 566.55 787.15 796.17 428.01 1043.94 447.99 967.11 594.33 795.85 730.06 1002.51 745.12
00001254 00000092 558.73 143.10 566.87 788.23 796.44 427.90 1044.23 447.91 967.43 594.15 795.73 729.98 1002.54 745.08
00001255 00000093 566.83 145.74 556.73 791.62 794.42 431.37 1042.68 448.89 970.08 591.08 792.20 725.96 1006.17 739.69
00001256 00000094 565.64 148.84 558.08 785.65 792.85 432.69 1041.90 449.23 970.67 591.34 789.81 723.37 1007.80 736.12
00001257 00000095 563.60 150.16 557.94 782.19 790.40 432.18 1041.00 450.26 970.07 590.56 786.67 721.65 1006.93 735.49
00001258 00000096 561.17 150.97 558.67 782.05 789.41 431.76 1038.53 451.57 968.90 589.01 783.83 718.86 1004.32 734.17
00001259 00000097 561.87 150.77 557.70 783.20 789.18 431.61 1038.41 451.69 968.13 588.20 783.79 718.75 1004.56 734.24
00001260 00000098 558.90 148.71 555.98 788.09 786.41 431.62 1032.73 449.27 966.18 587.26 780.45 716.90 1001.71 730.56
00001261 00000099 550.35 148.97 566.09 780.95 789.43 430.38 1027.58 451.26 958.35 589.95 771.06 715.25 989.00 732.79
00001262 00000100 549.77 133.87 560.24 806.42 779.47 436.52 1022.90 448.05 957.62 585.03 770.21 715.98 992.72 724.88
00001263 00000101 543.61 129.66 562.42 810.01 773.00 438.37 1018.27 445.07 951.60 587.91 765.54 718.08 986.90 723.28
00001264 00000102 543.26 130.04 562.80 809.97 773.19 438.23 1018.29 445.47 951.72 587.66 765.41 717.98 986.52 723.63
CROP_BBOX: 180 0 1379 1080
