Video ID: 	Z8h6CzjWeTo
H: 	1080
W: 	1920
FPS: 	25.0

FRAME INDEX X0 Y0 W H [Landmarks (5 Points)]

00007925 00000000 195.14 298.31 530.32 684.45 291.57 593.51 486.94 581.57 367.38 760.31 382.53 827.15 536.25 815.28
00007926 00000001 184.32 305.74 528.58 689.17 282.43 613.74 468.77 598.48 354.31 775.50 378.06 842.77 523.31 827.57
00007927 00000002 178.01 321.56 527.36 669.95 274.81 625.13 450.64 607.00 343.59 796.27 382.96 851.27 516.37 833.24
00007928 DELETE   169.27 333.85 527.41 658.50 265.07 635.72 445.09 615.83 340.05 812.65 381.68 860.87 515.58 841.11
00007929 00000004 163.26 339.35 524.41 650.23 258.10 639.80 446.91 621.93 342.74 819.61 376.77 866.74 509.90 849.62
00007930 00000005 159.55 341.08 519.90 649.11 252.77 643.81 451.53 629.33 341.89 820.35 361.92 875.84 493.47 861.84
00007931 00000006 157.50 336.55 518.05 657.48 253.05 644.96 451.88 632.15 342.13 818.95 359.23 877.97 485.95 865.51
00007932 00000007 155.26 336.17 520.15 650.50 250.40 646.25 451.53 632.44 340.58 819.30 357.19 875.92 485.29 862.45
00007933 00000008 157.94 337.82 519.23 648.83 250.68 646.17 449.70 632.39 339.42 823.32 362.73 873.51 492.32 860.02
00007934 DELETE   160.45 343.22 515.78 631.98 253.89 644.84 454.67 630.00 344.37 821.41 365.62 868.03 496.81 853.69
00007935 00000010 159.98 358.37 512.94 607.33 260.73 657.90 458.42 631.75 359.92 818.25 379.02 854.87 525.99 832.70
00007936 DELETE   162.53 361.49 521.60 605.16 264.40 657.37 460.29 627.47 363.05 814.84 378.33 850.18 532.82 825.05
00007937 00000012 180.49 343.33 518.03 642.94 275.73 648.76 467.10 625.25 362.50 823.59 389.46 871.67 529.59 849.55
00007938 00000013 189.73 333.84 518.87 651.26 286.98 636.87 474.47 618.98 367.62 808.58 393.51 859.68 534.93 842.22
00007939 00000014 189.04 331.02 533.66 662.03 298.82 621.22 490.55 609.80 384.65 790.85 405.02 844.93 546.41 832.81
00007940 00000015 212.06 298.86 519.97 685.44 309.21 612.07 505.25 595.57 391.33 779.87 404.55 845.84 555.65 829.95
00007941 DELETE   228.40 276.74 518.92 694.42 325.28 590.53 524.25 579.15 404.87 761.63 410.88 825.96 557.30 814.32
00007942 00000017 242.47 267.92 515.66 692.41 340.38 576.53 545.69 563.82 422.39 742.81 418.92 814.26 567.71 801.83
00007943 00000018 251.84 255.82 512.08 698.82 342.07 562.02 556.60 545.63 433.37 725.65 421.15 808.50 577.62 794.80
00007944 00000019 252.57 256.65 523.11 694.46 351.76 550.82 562.68 531.88 443.13 715.35 434.61 808.39 581.42 791.37
00007945 00000020 260.58 249.69 522.60 699.04 362.36 539.12 571.84 515.23 457.53 693.38 446.95 795.91 596.47 775.68
00007946 00000021 262.28 236.18 524.04 702.75 366.57 532.36 579.45 506.95 466.78 686.40 449.00 787.44 602.77 766.11
00007947 00000022 266.84 231.75 524.47 688.86 376.72 526.58 598.87 499.28 483.74 676.90 452.20 774.85 615.53 752.60
00007948 00000023 270.60 229.20 525.47 678.10 387.72 517.67 611.09 487.64 501.47 671.64 467.05 765.25 631.80 741.12
00007949 00000024 280.99 219.07 518.22 690.59 403.74 510.01 625.47 473.73 527.66 654.36 486.75 759.34 656.17 729.74
00007950 00000025 284.20 200.28 522.86 711.12 417.46 493.17 637.23 453.31 548.05 636.86 504.24 752.95 668.04 719.44
00007951 00000026 295.24 194.56 515.03 703.67 431.17 481.10 651.47 441.35 565.30 617.24 511.64 739.91 675.62 705.34
00007952 00000027 304.69 184.77 505.60 701.34 438.45 473.12 659.23 434.90 574.36 603.33 516.58 730.71 679.86 697.50
00007953 00000028 319.51 170.03 493.59 715.98 446.73 467.33 669.87 431.43 579.24 602.38 520.20 719.57 695.61 689.67
00007954 00000029 323.23 168.28 493.15 716.87 449.67 462.85 674.57 426.64 584.54 599.94 525.07 718.27 702.84 688.27
00007955 00000030 325.20 169.09 493.93 715.23 453.37 462.35 679.16 425.13 589.71 597.87 530.71 719.04 708.20 688.33
00007956 00000031 328.89 166.47 493.59 717.45 456.68 463.26 682.85 425.35 593.66 600.53 534.18 719.71 713.21 688.55
00007957 00000032 336.60 168.94 492.80 712.40 462.81 464.31 688.64 427.28 598.53 602.35 537.90 719.57 716.69 689.23
00007958 00000033 343.73 175.62 487.02 700.36 476.75 467.26 694.80 431.73 616.48 599.38 547.71 715.78 717.53 685.65
00007959 00000034 354.97 176.10 488.84 714.15 495.36 462.48 710.09 431.00 633.82 601.15 563.50 721.44 730.41 693.80
00007960 00000035 364.87 176.27 488.68 726.24 512.14 459.05 728.90 432.70 652.18 601.99 572.41 724.09 743.51 700.12
00007961 00000036 377.01 171.35 489.89 730.28 527.34 457.80 747.64 432.01 669.20 602.66 584.54 725.79 756.05 702.27
00007962 00000037 393.46 174.89 484.24 717.91 547.59 459.86 767.35 437.01 688.76 602.32 596.44 720.21 771.27 699.45
00007963 00000038 409.17 173.00 474.59 714.71 560.19 455.68 771.74 437.55 697.44 602.74 607.82 711.65 779.84 695.65
00007964 00000039 419.84 180.41 473.52 706.59 572.58 456.50 786.42 438.00 712.90 605.79 622.69 715.73 791.86 699.31
00007965 00000040 429.05 182.28 474.87 704.38 584.68 459.64 797.20 440.90 727.58 611.11 635.00 718.49 802.64 702.02
00007966 00000041 435.88 184.37 475.16 700.70 593.21 464.35 803.69 443.28 737.39 613.24 642.88 720.46 809.90 701.94
00007967 00000042 439.60 185.50 476.82 696.12 598.15 464.74 810.64 443.07 744.53 612.27 648.61 721.13 814.55 701.84
00007968 00000043 444.33 183.48 477.45 699.46 601.89 464.78 815.88 442.82 748.88 610.97 651.52 721.93 818.73 702.31
00007969 00000044 447.34 179.53 478.41 709.07 604.53 460.91 819.44 439.69 750.64 606.31 652.51 722.43 821.11 703.36
00007970 00000045 448.67 178.94 479.78 714.05 604.59 457.19 821.17 437.23 749.39 602.92 651.05 721.97 821.49 703.87
00007971 00000046 449.49 176.77 478.70 713.66 602.62 455.25 819.47 435.24 747.12 600.54 649.41 719.96 819.54 701.72
00007972 00000047 447.64 176.92 478.20 706.55 600.25 455.37 815.60 434.80 744.20 600.28 648.73 717.78 816.92 699.04
00007973 00000048 444.04 174.71 479.25 702.81 596.91 456.75 812.88 435.66 741.89 602.42 648.11 716.50 814.44 697.27
00007974 00000049 441.93 176.03 480.49 702.04 595.62 457.29 810.72 436.55 739.93 603.40 647.89 717.36 812.75 698.51
00007975 00000050 441.29 177.14 480.64 702.38 595.38 458.27 812.09 437.10 741.45 606.15 649.62 721.49 813.31 702.28
00007976 00000051 443.92 175.46 481.80 703.99 603.11 451.10 822.86 437.09 747.22 604.56 648.34 718.24 813.84 704.68
00007977 00000052 456.92 178.03 475.26 699.92 624.58 445.55 840.72 444.32 761.53 600.10 651.03 710.11 819.34 707.86
00007978 DELETE   475.88 170.41 475.22 718.10 647.05 447.55 863.87 452.43 778.34 597.43 659.10 706.26 826.33 712.13
00007979 DELETE   488.68 173.84 483.27 724.88 679.67 448.31 889.39 464.46 811.66 602.35 685.27 713.66 845.26 728.16
00007980 00000055 492.56 173.98 487.73 732.46 696.86 452.91 901.96 471.58 828.39 610.98 695.74 717.19 858.85 733.52
00007981 00000056 494.47 175.96 484.24 725.84 703.38 448.46 903.52 464.62 836.34 611.91 705.73 717.12 867.38 729.02
00007982 00000057 494.79 170.36 486.53 721.98 694.48 456.21 899.90 462.27 828.54 606.16 700.56 711.09 865.45 716.70
00007983 DELETE   491.38 168.94 482.81 722.18 683.13 459.67 890.25 458.72 818.20 600.54 694.41 709.25 861.98 709.28
00007984 00000059 487.37 174.74 472.07 719.65 660.35 459.12 872.59 454.20 797.35 598.55 678.90 709.04 850.26 706.29
00007985 00000060 476.76 168.86 472.64 726.25 639.82 456.56 855.03 449.81 773.47 598.29 665.10 710.73 835.99 706.56
00007986 00000061 465.32 172.65 478.59 707.88 634.01 449.53 844.67 445.75 765.95 595.68 661.51 710.76 822.50 706.05
00007987 00000062 460.14 168.27 478.59 709.47 624.27 440.74 839.74 439.70 756.27 588.54 651.79 705.11 815.14 702.63
00007988 00000063 457.87 164.41 478.74 720.79 624.83 434.85 834.76 436.65 752.54 580.11 649.29 701.00 808.09 700.97
00007989 00000064 457.95 156.02 476.60 729.81 625.63 430.50 833.99 432.16 752.76 573.91 647.24 695.82 810.22 695.40
00007990 00000065 459.22 152.33 474.66 721.47 624.60 426.93 834.70 427.59 754.57 569.13 647.59 687.74 812.34 686.50
00007991 00000066 467.32 140.46 472.14 706.87 624.55 422.26 838.14 427.18 749.79 568.55 642.37 671.52 811.13 676.61
00007992 00000067 466.08 139.00 472.88 703.92 623.73 419.59 837.82 424.89 749.88 565.59 641.20 668.18 811.17 673.51
00007993 00000068 457.59 139.89 477.39 706.39 622.78 420.76 832.49 422.09 750.54 560.81 645.44 673.13 812.63 673.48
00007994 00000069 454.18 144.75 478.42 707.38 614.57 417.17 828.58 414.19 748.26 558.98 645.93 675.72 806.89 670.79
00007995 00000070 454.09 146.29 476.12 705.78 610.52 416.62 825.37 412.39 744.09 557.88 644.12 675.56 805.89 669.52
00007996 00000071 453.76 146.56 474.63 708.35 608.51 417.31 822.73 412.18 741.45 557.73 642.56 676.25 805.50 669.34
00007997 00000072 452.48 144.37 474.02 715.46 606.75 416.01 820.32 410.41 739.59 554.90 641.07 677.60 804.08 670.14
00007998 00000073 452.29 144.36 472.00 715.74 605.16 415.65 818.79 410.13 737.74 554.38 638.92 678.36 802.94 671.08
00007999 00000074 450.29 148.69 472.28 710.33 602.60 416.23 816.75 411.20 734.88 556.86 637.80 679.19 800.41 672.22
00008000 00000075 448.98 150.84 472.98 708.30 599.53 418.31 814.01 413.07 731.05 560.75 634.89 680.83 797.48 673.88
00008001 00000076 446.79 152.43 473.32 707.46 595.89 420.95 811.70 417.10 728.52 564.32 631.68 683.64 794.83 678.08
00008002 00000077 445.33 153.74 475.29 707.55 592.83 423.23 810.46 420.03 725.75 566.38 628.97 686.53 793.05 681.68
00008003 00000078 444.32 157.59 474.44 705.81 591.60 424.39 809.01 422.83 723.53 568.06 626.70 687.85 790.93 684.46
00008004 00000079 443.29 160.67 473.57 704.10 589.36 425.89 806.48 424.27 720.71 568.23 624.17 688.42 789.58 685.05
00008005 00000080 441.50 160.92 474.28 705.92 587.88 426.77 806.13 425.60 719.42 569.09 622.62 689.32 787.77 686.40
00008006 00000081 440.48 163.43 473.45 705.96 586.19 427.13 804.71 426.27 717.30 570.59 620.23 690.74 786.35 688.24
00008007 00000082 438.83 164.71 474.73 706.90 585.14 427.60 803.43 427.79 715.53 571.83 617.97 691.63 784.26 690.00
00008008 00000083 439.38 165.19 474.59 707.95 584.78 427.70 803.68 428.12 714.97 572.41 616.69 692.39 784.27 690.96
00008009 00000084 438.81 165.58 474.43 709.01 584.14 427.93 803.49 428.72 714.16 572.67 615.24 692.94 783.97 691.86
00008010 00000085 438.65 165.83 474.55 709.44 583.93 427.84 803.08 428.65 713.45 572.68 614.26 692.96 783.21 691.89
00008011 00000086 437.89 166.01 475.11 710.01 583.43 427.77 803.11 429.02 712.88 573.04 613.22 692.89 783.23 692.17
00008012 00000087 437.50 166.16 474.69 711.02 581.22 428.31 801.94 429.22 710.33 573.99 609.93 693.30 782.56 692.43
00008013 00000088 435.95 167.88 475.09 711.23 578.10 429.27 799.13 430.26 706.21 574.93 606.22 693.33 780.00 692.58
00008014 00000089 430.52 167.20 480.63 713.75 572.44 430.04 792.56 431.17 695.25 579.93 598.65 693.08 772.31 692.45
00008015 00000090 427.60 165.82 482.36 717.86 564.98 431.63 781.26 437.66 676.38 584.10 581.02 690.62 753.34 694.82
00008016 00000091 421.34 176.22 488.83 706.80 550.75 431.38 767.83 443.01 644.67 586.59 561.98 686.08 735.10 696.32
00008017 00000092 417.34 178.21 489.09 700.71 537.99 438.59 754.46 454.93 623.24 595.52 545.70 689.62 715.66 704.66
00008018 00000093 416.69 178.66 490.75 701.86 534.80 444.67 752.69 461.78 620.96 602.62 542.93 696.53 712.88 712.31
00008019 00000094 420.42 182.13 489.99 701.89 543.47 450.81 763.94 467.24 636.64 612.12 554.38 702.37 726.19 717.20
00008020 00000095 427.35 184.70 482.44 708.24 556.03 459.06 776.57 470.48 660.96 623.55 569.85 711.69 744.95 721.60
00008021 00000096 427.53 189.29 484.52 714.07 565.95 462.44 786.09 461.67 682.99 622.97 587.93 720.06 765.40 719.38
00008022 00000097 428.99 193.68 484.57 713.15 573.32 461.74 792.07 456.98 696.35 618.83 598.50 720.41 778.28 716.11
00008023 00000098 430.27 192.58 485.69 712.10 575.22 461.46 793.89 456.39 699.17 617.77 601.20 719.46 780.59 714.94
00008024 00000099 428.34 194.33 484.46 705.51 572.19 461.95 791.24 459.42 693.39 619.98 594.50 716.54 774.29 714.34
00008025 00000100 425.37 189.06 483.27 707.95 565.70 461.00 786.45 463.55 682.76 621.26 583.07 714.17 762.17 716.32
00008026 00000101 427.68 182.23 485.72 718.95 560.02 455.70 781.82 464.39 668.50 620.77 576.04 714.67 756.77 722.91
00008027 00000102 429.18 179.67 484.32 721.50 557.72 452.43 779.90 463.70 662.83 616.33 569.24 712.29 750.21 722.76
00008028 00000103 430.26 190.22 478.85 700.29 560.74 449.42 777.05 466.97 659.28 611.46 570.80 700.67 744.54 716.24
00008029 00000104 432.18 189.77 481.86 707.12 565.11 445.82 780.54 466.01 662.56 611.13 571.82 700.53 746.58 718.48
00008030 00000105 433.54 186.83 487.40 713.28 570.98 444.37 787.79 463.29 672.12 607.99 577.74 700.38 754.99 717.04
00008031 00000106 438.13 181.17 487.61 713.38 579.80 438.53 801.25 453.21 688.40 604.45 586.53 702.29 762.60 713.86
00008032 00000107 441.50 178.19 486.96 706.62 591.66 439.85 809.30 451.66 706.87 601.53 604.27 699.68 776.77 708.43
00008033 00000108 443.59 176.98 486.76 704.30 601.56 441.21 817.94 450.00 724.65 601.75 616.19 697.53 789.87 703.53
00008034 00000109 445.89 177.19 487.10 702.49 602.77 441.40 821.26 447.16 729.74 598.78 619.47 696.18 795.28 699.54
00008035 00000110 448.15 177.17 482.66 700.56 600.62 436.29 816.52 446.68 719.65 594.59 613.34 692.26 786.67 699.51
00008036 00000111 442.84 179.15 483.90 697.94 586.33 430.60 807.19 447.04 697.90 591.10 596.18 689.20 770.76 701.49
00008037 00000112 441.19 172.33 479.71 701.93 572.94 428.54 791.31 447.99 674.58 588.33 575.59 683.06 750.74 698.80
00008038 00000113 435.96 163.33 482.49 708.72 563.66 423.19 777.38 446.44 655.36 586.83 561.73 675.22 733.68 694.35
00008039 00000114 431.08 162.40 482.50 700.85 554.42 417.18 771.15 448.47 634.97 579.59 543.50 663.94 722.21 691.74
00008040 00000115 435.78 147.81 483.22 730.47 561.64 410.83 773.66 447.45 637.04 574.44 550.85 661.37 725.69 692.43
00008041 00000116 441.80 141.46 487.40 736.88 572.97 408.46 786.41 441.85 655.53 574.14 565.15 658.68 739.41 686.89
00008042 00000117 448.16 144.98 483.37 730.86 591.48 403.25 807.37 434.57 687.39 564.94 578.59 657.93 760.14 681.66
00008043 00000118 455.27 147.04 483.03 723.99 610.91 405.73 826.24 433.10 717.89 562.81 598.46 653.52 786.70 673.82
00008044 00000119 462.12 135.79 479.73 720.81 622.13 402.67 833.54 427.02 737.51 559.64 610.24 645.86 804.55 666.76
00008045 00000120 464.82 133.06 479.00 720.96 625.84 402.09 836.71 426.13 742.22 557.75 613.97 644.12 809.09 664.64
00008046 00000121 462.65 142.34 477.12 718.41 623.03 411.81 831.79 434.96 732.06 555.39 607.15 644.32 798.98 661.50
00008047 00000122 463.97 146.29 469.32 707.50 607.08 410.71 814.25 441.61 700.67 554.37 588.45 638.36 778.52 661.68
00008048 00000123 456.07 142.18 470.36 699.83 576.03 402.45 787.38 434.38 657.28 548.27 561.96 634.22 744.68 658.88
00008049 00000124 440.40 128.97 469.72 703.95 548.53 387.61 753.09 427.11 608.67 532.74 523.23 621.38 711.11 655.57
00008050 00000125 434.07 123.36 471.76 715.20 535.89 380.83 736.30 424.48 580.05 525.75 505.83 617.61 694.00 655.41
00008051 00000126 427.49 119.16 475.42 718.80 527.13 374.38 730.62 417.93 569.99 519.89 497.57 613.15 690.71 650.57
00008052 00000127 429.95 116.69 475.35 716.96 529.15 374.56 732.25 413.21 573.73 516.94 504.15 613.40 692.74 646.92
00008053 00000128 440.97 119.57 471.27 705.45 538.58 375.60 738.96 408.25 590.51 518.01 517.91 609.75 703.54 638.53
00008054 00000129 444.94 119.73 466.58 702.68 546.37 379.02 751.08 404.16 611.15 518.25 531.94 612.70 722.21 634.74
00008055 00000130 443.10 115.06 469.73 698.49 549.62 375.84 756.93 398.51 622.30 515.86 539.88 607.29 731.59 626.86
00008056 00000131 441.80 111.17 464.13 694.01 543.60 372.04 749.26 394.46 613.46 510.10 535.34 605.27 719.19 625.15
00008057 00000132 430.00 107.27 468.40 697.28 523.21 373.58 726.31 394.66 581.51 506.98 516.86 609.17 689.91 628.09
00008058 00000133 420.93 102.03 465.37 707.46 506.86 373.92 707.91 399.93 556.64 503.68 499.35 606.04 672.27 629.01
00008059 00000134 416.07 102.66 468.80 708.13 505.32 374.09 706.14 401.21 555.56 505.27 498.22 608.57 665.35 632.65
00008060 00000135 415.57 109.45 482.59 703.77 529.62 372.69 736.70 389.92 599.38 510.11 527.31 615.80 690.08 631.95
00008061 00000136 434.06 111.29 481.58 717.69 570.78 372.89 784.07 390.14 673.49 515.48 581.04 619.90 744.07 633.22
00008062 00000137 449.80 111.72 482.35 724.28 607.53 379.85 824.14 395.05 727.99 522.94 617.49 630.43 790.77 640.52
00008063 00000138 459.86 118.31 482.98 730.29 634.04 387.42 844.96 399.86 760.52 532.18 637.25 636.50 817.04 645.34
00008064 00000139 470.13 130.81 479.12 720.15 644.13 395.61 849.22 407.04 772.06 545.72 642.96 640.48 820.78 650.59
00008065 00000140 474.40 139.84 473.44 717.00 647.18 401.43 850.57 411.70 774.20 556.09 643.26 645.68 820.79 654.92
00008066 00000141 477.21 143.69 470.24 719.81 646.55 405.84 848.74 418.25 772.96 560.67 637.72 646.10 819.95 657.29
00008067 00000142 478.05 144.58 470.65 729.41 646.11 406.14 848.61 422.45 768.52 563.54 631.61 646.84 817.16 661.38
00008068 00000143 471.31 144.56 476.34 729.81 642.24 406.45 844.03 428.65 759.89 565.10 623.68 643.31 811.66 662.58
00008069 00000144 469.34 144.18 477.76 725.12 635.69 408.29 841.90 432.42 750.89 568.18 615.75 639.53 809.20 660.25
00008070 00000145 469.65 144.08 479.40 721.20 634.78 408.64 842.98 431.47 750.18 570.95 618.00 638.93 812.45 658.48
00008071 00000146 475.68 145.07 476.82 717.36 639.73 410.52 845.43 429.32 756.49 568.19 628.41 640.42 818.50 656.62
00008072 00000147 480.41 146.49 473.78 715.54 643.48 412.34 850.51 427.47 762.71 567.76 634.26 642.78 825.11 655.60
00008073 00000148 478.31 147.72 474.09 715.70 641.90 412.95 849.09 429.74 760.62 569.77 631.60 642.37 823.40 656.51
00008074 00000149 474.97 147.20 475.38 718.95 636.64 415.34 845.06 434.08 754.36 574.26 623.74 643.08 819.52 659.03
00008075 00000150 471.99 151.61 475.82 717.20 632.36 419.36 841.46 438.29 749.02 578.29 617.81 645.98 816.73 661.84
00008076 00000151 471.42 154.95 473.90 719.72 630.99 421.09 840.37 440.10 747.77 580.35 615.01 647.71 816.06 663.37
00008077 00000152 470.17 157.12 473.94 717.61 630.35 422.52 839.59 440.34 748.04 581.13 614.03 648.29 816.23 662.97
00008078 00000153 460.50 146.31 475.75 719.48 625.26 421.29 834.94 439.51 743.58 578.97 610.40 648.83 817.34 664.43
00008079 00000154 455.95 146.47 476.67 717.83 615.50 424.47 828.54 440.84 732.17 583.88 603.44 652.53 809.00 666.62
00008080 00000155 446.30 160.22 477.53 717.94 604.34 429.37 813.95 442.65 721.49 588.54 595.67 665.12 794.70 674.40
00008081 00000156 436.31 169.68 477.53 709.20 584.31 437.29 794.98 449.24 695.71 597.85 585.58 677.78 771.54 686.25
00008082 DELETE   423.09 168.99 481.33 725.29 552.52 448.91 772.59 457.46 657.88 608.83 559.29 697.12 748.95 705.26
00008083 DELETE   400.91 180.74 486.12 721.66 530.94 453.41 747.32 467.61 635.61 619.96 545.91 707.70 721.31 719.47
00008084 00000159 396.51 191.56 479.79 718.40 510.86 464.11 728.13 471.28 612.88 626.14 536.37 725.64 702.54 732.46
00008085 00000160 381.42 187.89 485.27 714.67 491.66 463.24 714.29 461.73 597.63 621.84 530.45 732.96 694.34 731.92
00008086 00000161 374.95 172.52 485.40 719.74 493.26 452.92 716.36 443.70 609.15 601.52 540.19 723.46 702.42 715.43
00008087 00000162 377.29 159.75 472.37 720.43 511.51 438.38 722.39 428.95 626.44 576.49 556.10 705.67 707.76 696.75
00008088 DELETE   382.13 144.66 473.88 717.28 525.34 426.17 735.12 417.95 642.98 550.01 565.54 682.60 721.40 674.14
00008089 00000164 386.19 135.66 479.61 701.82 529.19 412.97 745.68 396.73 656.82 531.09 575.93 663.58 742.56 647.32
00008090 00000165 388.77 121.50 474.71 700.36 535.88 401.16 747.40 387.34 664.73 516.90 578.50 651.23 749.77 638.23
00008091 00000166 391.97 116.17 472.21 703.98 535.01 393.49 749.50 377.16 666.10 507.65 580.36 646.09 755.83 631.01
00008092 00000167 390.58 110.99 477.41 718.64 535.49 389.93 749.80 372.39 668.06 504.91 582.12 643.91 759.96 627.36
00008093 00000168 401.85 101.80 469.20 733.70 542.28 385.70 750.82 371.93 668.26 505.37 573.02 635.14 765.50 623.00
00008094 00000169 411.60 102.75 466.21 716.19 556.51 379.48 765.65 369.22 686.32 501.83 583.98 626.15 773.73 616.52
00008095 00000170 423.52 100.70 464.26 701.06 569.17 369.48 779.78 361.26 704.46 492.14 599.70 613.76 787.24 605.19
