Video ID: 	C4A2FagQYQc
H: 	2160
W: 	3840
FPS: 	23.976023976023978

FRAME INDEX X0 Y0 W H [Landmarks (5 Points)]

00007560 00000000 2469.50 407.94 551.18 844.52 2598.56 714.60 2856.11 741.47 2699.15 924.99 2573.30 988.07 2836.41 1012.67
00007561 00000001 2466.22 411.97 557.28 829.71 2593.96 726.26 2853.55 753.48 2691.44 927.50 2576.85 981.36 2846.17 1000.23
00007562 00000002 2461.86 410.00 559.16 818.76 2589.80 723.61 2850.16 749.96 2686.85 923.30 2572.73 974.44 2844.88 991.93
00007563 DELETE   2456.13 400.22 561.49 814.19 2581.43 700.73 2852.99 728.36 2681.00 907.29 2553.11 958.64 2841.77 981.39
00007564 00000004 2448.47 390.46 566.60 814.97 2574.38 694.86 2842.40 721.59 2671.44 900.10 2548.43 950.12 2832.08 972.36
00007565 00000005 2440.30 375.46 569.20 827.79 2575.26 689.87 2831.48 719.01 2664.75 889.62 2559.21 946.83 2824.88 966.20
00007566 00000006 2437.02 371.20 573.08 837.11 2571.71 688.67 2829.93 715.13 2663.60 887.90 2558.94 949.49 2824.90 966.76
00007567 00000007 2435.01 368.16 574.98 843.31 2570.59 688.54 2830.07 713.65 2664.72 888.92 2558.86 951.81 2825.05 968.07
00007568 00000008 2433.19 367.42 576.64 846.07 2569.40 688.10 2830.31 712.88 2664.68 890.65 2557.79 953.73 2825.04 969.77
00007569 00000009 2430.37 366.43 579.54 850.39 2567.30 688.61 2829.14 712.77 2663.24 890.70 2556.61 956.06 2823.50 971.84
00007570 00000010 2426.46 363.54 580.13 855.09 2561.42 689.26 2824.59 710.97 2658.58 891.11 2552.90 959.90 2819.24 974.13
00007571 00000011 2424.62 378.22 577.69 832.33 2554.31 696.59 2819.37 708.18 2657.77 890.80 2543.25 964.26 2815.62 974.90
00007572 00000012 2427.04 360.32 565.37 852.70 2549.32 694.12 2807.68 705.76 2651.19 884.29 2551.94 965.43 2811.46 972.75
00007573 00000013 2421.98 357.20 567.80 854.41 2541.55 698.29 2800.49 707.57 2641.98 883.44 2549.05 971.90 2802.26 978.07
00007574 00000014 2413.51 352.60 572.94 854.86 2535.46 705.46 2797.23 716.14 2637.69 884.52 2544.89 979.99 2788.12 988.90
00007575 00000015 2405.84 348.83 575.90 857.54 2528.28 701.87 2794.72 707.33 2634.90 877.00 2542.23 989.09 2777.07 995.41
00007576 00000016 2402.59 338.16 572.99 870.20 2521.83 692.69 2791.45 693.73 2630.98 867.85 2541.03 991.71 2768.26 994.83
00007577 00000017 2395.48 323.81 571.58 892.70 2518.32 686.69 2784.78 681.62 2629.28 863.24 2540.28 1005.20 2762.72 1001.98
00007578 00000018 2389.25 322.50 571.06 885.26 2511.25 681.20 2778.11 672.97 2623.10 854.33 2537.50 1000.71 2761.37 994.99
00007579 00000019 2379.10 321.67 577.99 870.58 2504.49 675.24 2770.75 665.82 2615.97 847.08 2539.26 987.17 2755.36 981.40
00007580 00000020 2371.42 316.05 582.58 865.51 2499.18 671.88 2762.05 659.76 2611.33 841.56 2538.11 983.89 2750.45 975.99
00007581 00000021 2365.56 313.08 582.39 861.83 2494.13 668.38 2756.16 653.82 2608.56 838.35 2536.98 979.56 2748.04 969.38
00007582 00000022 2360.35 314.36 582.72 857.73 2489.62 665.60 2749.49 650.57 2603.26 832.02 2529.48 972.60 2743.77 962.42
00007583 00000023 2359.27 310.83 576.74 869.17 2486.45 662.87 2745.55 647.60 2599.05 822.61 2522.19 969.85 2741.67 957.39
00007584 00000024 2357.95 311.33 576.38 871.91 2485.30 664.51 2742.96 648.37 2596.45 824.93 2520.42 971.83 2742.01 958.53
00007585 00000025 2358.21 312.03 576.46 873.00 2484.61 668.72 2741.33 651.37 2596.05 828.59 2520.59 974.84 2741.06 960.86
00007586 00000026 2362.40 310.64 574.03 876.49 2487.35 675.22 2742.76 656.71 2598.60 835.28 2523.41 979.06 2742.10 964.34
00007587 00000027 2361.48 320.21 583.40 862.44 2491.23 686.62 2748.20 670.47 2602.10 843.56 2530.38 978.61 2744.84 967.96
00007588 00000028 2366.32 327.39 575.32 856.73 2493.34 699.19 2751.48 680.41 2605.31 844.20 2529.57 981.93 2748.99 968.38
00007589 00000029 2367.54 324.60 575.50 864.02 2493.19 699.44 2754.49 680.69 2608.17 847.84 2527.14 982.17 2754.13 968.44
00007590 00000030 2368.67 322.33 574.74 865.28 2492.90 695.86 2756.98 677.81 2610.29 848.87 2523.04 978.52 2758.12 965.15
00007591 00000031 2368.04 319.03 574.12 867.84 2493.32 690.19 2755.85 671.42 2609.29 846.76 2524.85 979.45 2757.18 965.15
00007592 00000032 2368.91 319.58 570.39 864.91 2494.52 687.32 2753.21 666.54 2609.87 847.89 2530.55 982.10 2754.97 965.57
00007593 00000033 2367.71 310.83 573.22 886.00 2495.20 681.69 2753.52 665.56 2612.54 849.88 2526.70 977.79 2757.07 963.39
00007594 00000034 2367.33 312.36 574.08 885.17 2495.37 681.81 2752.31 665.35 2612.99 852.35 2527.58 979.67 2757.17 964.85
00007595 00000035 2365.24 312.76 574.31 884.98 2493.84 682.83 2750.31 665.32 2612.13 854.74 2527.52 983.96 2753.82 968.53
00007596 00000036 2364.15 313.94 575.37 878.62 2491.97 683.77 2748.65 666.49 2608.84 854.89 2527.13 984.09 2751.24 969.08
00007597 00000037 2360.47 314.71 577.69 877.87 2488.54 686.71 2747.18 667.73 2607.50 854.37 2522.13 986.12 2751.84 970.31
00007598 00000038 2357.00 319.45 578.25 881.21 2488.39 699.16 2741.26 681.71 2599.92 855.41 2514.71 983.78 2747.50 970.18
00007599 00000039 2349.20 323.47 579.53 888.67 2479.05 707.18 2732.47 689.44 2590.80 862.53 2504.87 987.34 2741.95 973.53
00007600 00000040 2342.23 331.73 578.70 897.15 2471.47 709.58 2722.40 693.83 2578.44 874.53 2497.57 997.10 2736.24 983.75
00007601 00000041 2336.67 348.49 582.78 863.28 2458.26 718.45 2714.78 697.17 2571.14 881.78 2498.89 1000.61 2728.50 982.30
00007602 00000042 2335.69 352.21 580.28 849.72 2455.11 717.45 2714.49 698.57 2569.80 886.14 2491.26 994.72 2728.17 978.09
00007603 00000043 2334.42 351.70 580.67 852.54 2452.66 716.95 2712.57 696.13 2567.74 886.01 2492.25 999.49 2726.50 981.33
00007604 00000044 2335.10 347.77 577.57 862.51 2451.87 715.98 2710.60 692.56 2566.03 884.44 2496.28 1012.32 2720.17 992.49
00007605 00000045 2335.75 346.61 576.55 864.36 2450.50 712.57 2709.70 689.69 2563.39 881.59 2492.79 1010.97 2717.56 991.96
00007606 00000046 2335.80 343.95 575.62 865.35 2448.74 709.25 2705.59 685.62 2558.46 876.06 2491.82 1008.49 2712.62 988.95
00007607 00000047 2340.78 341.95 571.80 880.06 2451.79 706.75 2700.25 685.76 2554.31 879.05 2492.12 993.60 2724.92 977.18
00007608 00000048 2343.25 354.23 563.78 877.66 2453.51 708.49 2699.84 694.61 2551.29 878.22 2481.90 979.00 2733.29 964.78
00007609 00000049 2334.72 363.41 567.63 865.89 2443.84 716.20 2700.42 699.74 2548.53 886.91 2466.32 974.33 2732.61 958.28
00007610 00000050 2338.16 356.05 564.99 864.16 2446.88 708.86 2701.67 700.05 2548.72 886.87 2470.43 966.22 2738.27 953.58
00007611 00000051 2338.24 349.07 565.27 869.49 2445.49 705.35 2699.50 694.16 2548.00 884.58 2470.92 963.76 2740.08 948.92
00007612 00000052 2337.65 343.81 567.79 872.80 2447.06 700.37 2699.61 685.15 2551.16 875.73 2475.52 962.05 2742.05 944.32
00007613 00000053 2339.14 339.11 569.82 874.36 2448.89 696.48 2703.18 681.51 2553.62 870.93 2476.86 959.16 2743.72 941.94
00007614 00000054 2344.12 336.49 569.55 873.56 2454.43 693.79 2709.44 677.47 2562.00 868.56 2482.54 958.13 2747.61 940.58
00007615 00000055 2348.87 333.51 570.92 876.10 2463.35 693.86 2713.66 676.72 2570.13 870.32 2491.31 958.45 2753.38 940.42
00007616 00000056 2350.19 332.87 574.47 880.29 2468.66 697.58 2719.41 679.88 2578.55 873.27 2496.85 962.24 2758.05 944.14
00007617 00000057 2350.65 334.00 576.95 887.49 2476.46 698.80 2728.94 677.11 2595.00 877.86 2500.38 971.64 2766.09 949.56
00007618 DELETE   2358.46 338.74 580.63 873.10 2488.81 702.54 2746.80 680.89 2616.20 883.29 2512.23 972.44 2781.95 950.48
00007619 00000059 2363.40 345.37 585.17 861.65 2495.67 703.73 2768.68 680.33 2633.74 886.90 2526.01 977.79 2802.21 954.12
00007620 00000060 2368.18 345.32 584.60 872.95 2505.75 704.11 2772.54 677.62 2642.32 883.06 2540.12 989.60 2799.90 965.79
00007621 00000061 2375.05 340.96 576.01 879.72 2514.91 708.67 2773.48 677.16 2645.86 875.42 2554.25 1016.81 2784.52 990.73
00007622 00000062 2372.72 336.72 575.93 882.76 2517.21 708.58 2777.68 678.63 2653.99 870.98 2556.59 1020.57 2784.00 995.10
00007623 00000063 2370.41 336.49 574.67 886.81 2518.16 709.68 2775.94 679.20 2657.53 869.82 2561.66 1025.67 2779.22 999.40
00007624 00000064 2362.31 338.07 581.15 887.19 2513.66 713.16 2771.85 680.78 2654.99 873.27 2562.49 1031.12 2776.85 1003.07
00007625 00000065 2355.12 336.55 584.71 896.86 2505.31 716.10 2765.66 684.56 2644.29 879.32 2555.21 1027.25 2774.58 1000.01
00007626 00000066 2348.71 345.36 586.42 904.10 2499.14 723.26 2755.47 689.25 2639.29 889.34 2545.58 1020.77 2782.43 991.04
00007627 00000067 2344.46 351.27 588.33 908.85 2493.05 729.48 2753.39 693.07 2640.87 894.81 2538.13 1024.79 2787.63 993.15
00007628 00000068 2343.41 350.64 586.87 898.97 2492.67 730.98 2751.53 691.18 2640.91 892.64 2545.09 1030.02 2785.14 995.43
00007629 00000069 2343.22 339.18 583.40 894.56 2496.04 725.31 2750.66 685.99 2640.00 887.17 2552.97 1021.67 2779.50 987.27
00007630 00000070 2343.24 330.16 580.02 885.12 2495.76 717.90 2751.88 677.69 2639.54 874.77 2553.76 1014.46 2775.25 979.92
00007631 00000071 2341.28 316.63 583.17 889.18 2492.97 706.63 2751.48 661.97 2640.89 856.21 2558.06 1005.96 2777.01 969.06
00007632 00000072 2339.07 315.92 584.15 888.35 2497.26 685.23 2749.69 643.26 2639.04 837.64 2552.39 989.42 2775.42 953.17
00007633 DELETE   2340.10 302.80 584.90 898.43 2497.94 677.90 2748.71 639.17 2635.00 813.18 2554.01 971.04 2778.25 937.67
00007634 00000074 2338.07 312.64 591.59 902.66 2484.75 671.09 2743.62 631.82 2630.17 794.38 2548.40 960.02 2778.17 929.74
00007635 00000075 2334.10 315.01 579.69 901.30 2481.69 687.46 2733.25 642.69 2623.33 810.39 2532.02 966.81 2778.69 931.96
00007636 00000076 2325.04 314.22 585.55 886.28 2474.35 692.48 2729.35 642.89 2623.82 826.46 2526.57 961.74 2780.96 920.84
00007637 DELETE   2324.50 302.37 586.84 867.69 2473.06 679.69 2738.81 626.30 2637.12 820.35 2524.15 945.41 2790.68 900.75
00007638 DELETE   2327.45 285.58 585.58 850.59 2474.91 657.55 2735.85 599.70 2642.05 795.80 2518.65 923.78 2794.15 874.87
00007639 DELETE   2328.97 268.00 586.65 841.85 2476.72 643.11 2740.37 579.44 2647.91 767.45 2521.01 899.88 2796.98 848.48
00007640 00000080 2327.01 260.23 583.05 828.76 2476.71 626.82 2733.99 553.87 2643.67 747.02 2515.00 881.65 2798.07 817.40
00007641 00000081 2319.67 257.32 583.05 830.58 2468.38 622.84 2727.84 557.73 2637.01 739.00 2512.38 876.31 2787.68 821.32
00007642 00000082 2316.04 259.06 579.97 831.71 2462.88 623.29 2718.94 560.44 2626.20 740.23 2507.25 876.57 2779.67 823.22
00007643 00000083 2315.70 256.39 587.22 834.81 2467.43 630.19 2726.07 562.23 2635.60 743.13 2512.72 879.15 2788.48 821.60
00007644 DELETE   2331.27 261.51 577.85 819.91 2488.07 621.42 2744.43 557.98 2652.74 736.48 2522.68 868.21 2803.86 811.60
00007645 00000085 2341.82 255.34 572.90 815.83 2497.57 617.89 2752.19 559.29 2660.41 725.54 2529.22 859.14 2808.62 807.28
00007646 DELETE   2333.60 250.79 568.73 821.74 2488.13 601.57 2741.31 550.08 2645.01 709.21 2515.66 855.32 2796.80 809.01
00007647 DELETE   2322.86 250.22 567.08 826.35 2468.81 598.11 2718.38 544.77 2618.23 707.85 2508.81 860.97 2775.71 814.55
00007648 00000088 2318.62 254.02 567.70 823.18 2463.64 595.50 2712.41 544.04 2611.57 707.07 2515.22 867.76 2764.48 824.38
00007649 00000089 2322.62 255.40 568.40 816.67 2470.91 591.51 2715.32 542.40 2616.12 699.70 2536.45 868.39 2758.48 828.08
00007650 00000090 2325.42 253.86 568.05 816.49 2473.62 593.87 2717.24 542.95 2620.82 699.89 2545.94 869.95 2762.38 828.26
00007651 00000091 2323.50 254.46 571.47 818.99 2471.45 598.13 2715.11 546.68 2619.25 708.98 2541.68 876.14 2761.38 834.06
00007652 00000092 2318.56 261.48 576.23 822.69 2470.57 604.97 2714.66 554.78 2619.81 721.83 2541.86 889.23 2757.22 848.03
00007653 00000093 2314.82 261.51 584.14 835.39 2473.04 614.99 2718.07 564.15 2624.04 733.87 2541.99 898.38 2761.99 856.92
00007654 00000094 2316.86 269.35 587.25 836.37 2479.58 624.79 2725.20 577.88 2629.69 741.49 2541.43 900.12 2767.25 861.90
00007655 00000095 2318.09 271.66 583.02 842.94 2485.01 638.63 2726.78 590.45 2636.94 753.34 2544.95 910.42 2768.10 871.83
00007656 DELETE   2309.13 267.24 584.95 849.94 2471.66 650.73 2716.98 597.09 2624.34 765.65 2537.61 919.65 2758.93 877.93
00007657 DELETE   2290.49 274.36 583.76 840.91 2437.59 662.37 2688.36 600.73 2592.86 780.06 2515.02 927.69 2742.55 879.78
00007658 DELETE   2271.23 291.57 591.14 838.59 2422.72 670.99 2670.60 608.00 2567.79 789.07 2498.50 931.97 2726.09 881.74
00007659 00000099 2250.61 286.95 600.64 845.58 2400.39 669.58 2649.52 599.43 2551.43 787.34 2485.16 932.59 2714.51 876.70
00007660 00000100 2247.24 278.73 600.42 853.90 2399.36 666.74 2645.10 590.51 2552.14 779.81 2483.53 932.47 2716.27 869.83
00007661 DELETE   2254.05 279.89 600.65 854.40 2406.45 668.31 2654.59 591.38 2561.92 784.93 2485.63 936.49 2729.01 871.55
00007662 DELETE   2261.04 295.45 601.87 859.21 2411.70 678.09 2665.65 604.15 2571.64 808.01 2495.53 949.18 2738.07 887.39
00007663 DELETE   2265.39 303.75 600.13 898.84 2423.09 691.11 2670.68 622.84 2575.01 827.82 2505.79 972.01 2737.20 911.82
00007664 00000104 2267.08 310.33 599.13 921.71 2425.80 702.47 2669.58 634.77 2575.35 842.82 2508.05 993.21 2736.29 934.51
00007665 00000105 2264.46 313.11 603.33 909.00 2424.26 703.34 2670.40 638.67 2573.45 848.74 2508.02 996.40 2732.54 941.11
00007666 00000106 2264.10 311.18 600.95 899.66 2422.63 702.98 2669.92 639.52 2570.70 848.56 2505.69 993.42 2728.05 939.43
00007667 00000107 2261.26 310.80 599.79 898.03 2421.03 708.54 2667.54 646.15 2570.10 857.82 2502.77 995.34 2724.64 942.31
00007668 00000108 2264.11 315.78 599.13 891.23 2415.57 719.23 2668.24 657.69 2564.31 866.04 2507.35 1003.35 2720.69 951.29
00007669 00000109 2263.81 326.30 596.94 883.78 2411.65 722.77 2663.63 663.16 2560.17 876.81 2497.96 1009.01 2716.07 957.56
00007670 00000110 2264.71 330.87 594.54 877.19 2410.21 723.62 2660.23 664.09 2555.93 871.51 2494.96 1008.02 2712.53 957.35
00007671 00000111 2262.04 325.86 599.60 874.42 2410.88 723.34 2661.40 663.78 2558.04 867.11 2492.94 997.81 2717.67 946.99
00007672 00000112 2267.40 330.13 596.12 864.18 2417.33 731.54 2670.53 675.45 2563.01 864.50 2485.87 990.65 2718.89 945.75
00007673 00000113 2270.86 337.42 597.71 864.90 2421.11 736.98 2672.50 683.17 2562.89 872.01 2485.76 993.58 2722.73 949.34
00007674 00000114 2274.45 344.09 594.09 860.25 2421.19 733.15 2674.04 682.61 2561.74 881.01 2486.46 992.91 2727.65 949.31
00007675 00000115 2273.91 352.06 593.42 858.20 2420.04 734.46 2671.92 686.06 2557.06 886.19 2490.00 993.47 2723.16 948.44
00007676 00000116 2273.24 351.07 597.06 865.01 2418.28 732.97 2671.58 683.14 2556.77 889.78 2490.19 996.09 2726.55 949.37
00007677 00000117 2279.37 350.32 593.91 869.80 2421.31 733.76 2671.84 684.70 2555.19 892.60 2491.62 1000.79 2725.36 955.13
00007678 00000118 2288.22 354.45 581.32 860.26 2423.09 735.62 2675.84 688.88 2560.88 898.20 2485.06 1008.54 2723.91 967.78
00007679 00000119 2291.12 354.41 587.07 857.26 2427.47 735.85 2685.54 690.30 2566.80 894.28 2489.54 1014.66 2723.62 975.80
00007680 00000120 2298.65 354.78 585.27 853.05 2432.21 733.74 2693.13 690.16 2571.77 897.01 2492.06 1019.97 2728.13 982.77
00007681 00000121 2303.15 355.79 588.59 868.84 2438.15 731.73 2697.73 690.31 2574.45 896.62 2497.81 1022.94 2730.30 987.08
00007682 00000122 2310.61 363.51 586.67 871.45 2442.43 731.22 2702.69 692.68 2575.77 897.86 2497.98 1020.59 2736.48 986.43
00007683 00000123 2314.31 363.01 586.72 875.56 2446.52 730.02 2707.17 692.70 2579.10 897.94 2500.84 1020.72 2739.80 987.59
00007684 00000124 2316.49 355.87 586.07 885.43 2450.89 726.39 2708.49 689.62 2580.34 891.78 2506.77 1021.69 2739.15 989.90
00007685 00000125 2317.59 338.53 586.34 908.04 2456.34 717.72 2711.32 683.99 2582.22 883.46 2505.15 1023.71 2738.42 995.17
00007686 00000126 2320.96 337.58 580.74 906.76 2461.22 714.98 2710.81 687.37 2577.65 868.07 2505.16 1023.05 2723.88 1001.86
CROP_BBOX: 1951 0 3364 1462
