Video ID: 	8fiTlBH2NGY
H: 	2160
W: 	3840
FPS: 	23.976023976023978

FRAME INDEX X0 Y0 W H [Landmarks (5 Points)]

00000016 00000000 917.12 201.43 793.68 1226.71 1159.21 717.75 1512.07 683.30 1401.07 919.51 1251.32 1128.41 1558.72 1099.92
00000017 00000001 911.57 198.51 795.56 1257.41 1157.25 722.52 1501.65 686.69 1392.48 919.18 1244.97 1130.69 1552.50 1101.65
00000018 00000002 914.13 228.74 799.95 1243.58 1164.80 722.63 1506.23 691.65 1402.51 912.01 1235.53 1119.93 1557.59 1090.50
00000019 00000003 919.76 232.62 805.52 1245.58 1172.86 730.51 1514.87 692.55 1413.57 912.73 1244.99 1121.45 1579.37 1085.52
00000020 00000004 925.08 236.00 812.17 1237.82 1182.36 735.89 1525.26 692.54 1427.03 914.09 1254.08 1120.25 1590.16 1079.44
00000021 00000005 934.83 239.98 810.41 1229.63 1192.16 736.07 1536.37 685.78 1438.96 911.39 1270.17 1120.27 1601.20 1073.28
00000022 00000006 940.42 237.16 810.81 1232.93 1198.54 739.62 1546.21 683.75 1448.54 915.83 1283.92 1126.57 1610.76 1074.45
00000023 00000007 944.22 239.41 813.63 1230.90 1202.68 745.33 1555.33 686.97 1455.02 917.05 1290.51 1132.54 1617.64 1078.86
00000024 00000008 951.42 238.57 812.25 1237.20 1208.35 746.72 1565.19 688.63 1460.46 921.52 1293.39 1137.78 1622.93 1084.59
00000025 00000009 959.08 233.75 810.82 1241.38 1214.47 750.02 1570.31 693.03 1463.99 926.81 1301.04 1144.71 1624.52 1091.96
00000026 00000010 965.02 234.56 813.14 1243.84 1220.88 752.68 1577.15 698.44 1470.28 939.86 1304.99 1150.18 1627.83 1099.81
00000027 00000011 969.96 239.93 811.27 1242.84 1224.77 758.43 1579.04 706.18 1472.02 950.83 1311.19 1162.84 1626.57 1114.44
00000028 00000012 972.87 243.12 806.76 1246.53 1224.72 770.89 1575.88 716.72 1472.20 961.45 1314.72 1177.19 1620.50 1127.98
00000029 00000013 973.40 247.59 804.10 1244.38 1222.20 773.71 1576.15 724.66 1471.74 971.89 1308.02 1180.20 1617.27 1135.93
00000030 00000014 970.01 248.50 803.93 1240.27 1216.91 772.77 1571.41 725.00 1463.71 972.12 1303.30 1179.23 1611.07 1135.74
00000031 00000015 965.22 245.54 799.79 1236.72 1210.38 770.50 1563.02 719.37 1456.37 971.22 1296.80 1177.59 1600.39 1131.74
00000032 00000016 956.24 244.08 799.31 1228.11 1200.62 758.63 1552.08 720.18 1442.75 964.96 1281.29 1166.99 1579.23 1131.96
00000033 00000017 946.94 243.92 794.21 1230.30 1188.62 753.66 1533.20 728.75 1423.50 962.00 1258.65 1160.16 1556.96 1136.99
00000034 00000018 935.56 246.63 786.64 1225.86 1175.04 744.24 1520.35 728.60 1408.89 960.29 1236.40 1151.79 1539.56 1136.74
00000035 00000019 908.67 244.87 797.97 1208.75 1146.82 754.52 1504.58 722.72 1386.80 962.12 1216.19 1153.49 1530.61 1123.74
00000036 DELETE   892.17 246.07 797.29 1212.75 1125.60 752.73 1475.25 713.59 1357.15 949.78 1204.69 1160.60 1506.31 1123.29
00000037 DELETE   869.04 248.81 800.82 1226.10 1096.93 758.11 1445.71 707.37 1322.70 949.33 1188.38 1176.82 1475.76 1130.28
00000038 00000022 840.50 266.77 814.60 1235.31 1065.26 759.34 1409.13 704.48 1281.39 942.07 1166.20 1185.27 1453.73 1135.33
00000039 00000023 834.63 274.41 819.65 1240.53 1050.84 776.14 1402.11 714.54 1266.82 956.65 1153.00 1193.07 1462.62 1136.42
00000040 00000024 854.01 289.11 808.29 1227.25 1073.08 789.57 1424.39 733.65 1296.34 983.40 1170.67 1199.67 1479.86 1148.29
00000041 00000025 868.97 279.61 802.85 1231.58 1089.53 805.93 1436.95 752.85 1315.93 992.30 1185.78 1201.62 1493.16 1153.59
00000042 00000026 875.03 290.58 800.55 1216.54 1100.14 820.42 1439.93 769.76 1323.34 986.75 1196.20 1202.99 1496.82 1156.34
00000043 00000027 879.45 280.03 802.53 1237.01 1104.13 803.71 1454.81 760.17 1328.94 990.63 1195.24 1204.31 1501.70 1164.23
00000044 00000028 883.81 269.10 801.63 1244.36 1108.79 791.60 1457.29 746.37 1334.39 987.79 1201.77 1200.11 1503.68 1158.74
00000045 00000029 884.26 266.09 804.08 1240.87 1113.54 786.69 1458.22 743.55 1339.21 985.27 1204.59 1190.32 1505.83 1150.19
00000046 00000030 884.52 259.07 805.17 1237.71 1112.64 786.38 1454.92 742.83 1335.03 983.23 1201.06 1182.09 1504.26 1141.50
00000047 00000031 886.51 264.42 800.90 1232.12 1110.33 784.94 1451.63 740.21 1329.09 984.20 1198.49 1183.44 1499.29 1141.99
00000048 00000032 883.96 264.03 803.04 1221.24 1105.79 785.80 1448.06 742.61 1323.56 984.21 1194.01 1180.14 1493.75 1140.50
00000049 00000033 882.05 262.68 804.64 1220.41 1105.98 784.04 1444.86 744.88 1319.95 987.71 1188.74 1173.83 1488.45 1137.65
00000050 00000034 882.09 265.86 804.66 1222.09 1108.42 785.88 1449.38 745.88 1324.09 991.32 1191.18 1177.75 1492.64 1140.59
00000051 00000035 883.62 268.81 802.86 1216.91 1107.79 790.77 1451.80 747.04 1326.38 994.89 1197.83 1184.82 1495.82 1144.40
00000052 00000036 881.40 269.65 801.55 1222.43 1108.65 793.99 1450.85 754.36 1323.68 1004.18 1196.45 1191.99 1487.43 1154.67
00000053 00000037 878.07 271.44 801.48 1225.47 1109.72 795.47 1451.25 759.07 1323.66 1016.21 1205.01 1211.12 1475.64 1175.89
00000054 00000038 875.05 279.91 804.73 1214.92 1104.92 804.51 1450.04 762.95 1321.80 1038.53 1212.67 1231.10 1472.40 1191.77
00000055 00000039 874.32 280.29 801.40 1214.79 1103.60 807.08 1447.97 763.54 1322.42 1047.28 1214.10 1239.25 1467.46 1199.19
00000056 00000040 872.86 284.12 803.65 1232.88 1104.22 813.13 1444.03 768.03 1319.54 1040.41 1210.76 1240.17 1472.59 1198.47
00000057 00000041 875.68 285.80 806.22 1252.17 1100.57 813.10 1452.26 768.62 1316.53 1031.40 1191.89 1230.75 1490.78 1188.95
00000058 00000042 869.10 288.35 812.92 1245.74 1095.45 819.19 1445.11 773.91 1310.89 1034.49 1182.78 1220.83 1490.84 1179.04
00000059 00000043 866.52 293.15 809.25 1232.39 1090.24 832.19 1433.47 786.47 1301.79 1039.64 1171.82 1212.78 1484.41 1171.40
00000060 00000044 866.96 291.77 814.14 1234.05 1090.33 821.22 1436.47 782.09 1298.42 1028.54 1166.23 1203.14 1485.75 1167.25
00000061 00000045 859.03 291.28 824.09 1243.46 1073.80 809.14 1427.63 762.41 1281.54 1027.40 1159.20 1208.52 1482.47 1165.26
00000062 00000046 854.18 278.72 821.45 1249.57 1064.75 810.74 1415.77 763.51 1267.66 1032.01 1160.60 1227.22 1458.52 1183.33
00000063 00000047 853.22 279.56 815.92 1234.46 1059.30 806.29 1409.47 766.59 1256.45 1045.12 1146.52 1221.01 1443.96 1183.66
00000064 00000048 853.78 273.67 812.57 1245.63 1058.91 805.52 1403.10 766.29 1251.02 1045.00 1148.38 1223.21 1437.97 1186.14
00000065 00000049 850.07 270.21 814.94 1252.98 1054.58 810.15 1399.68 767.25 1248.33 1037.86 1147.31 1225.93 1438.06 1186.51
00000066 00000050 848.33 272.49 819.12 1255.56 1053.56 811.55 1399.49 764.61 1251.18 1036.33 1148.73 1222.33 1448.65 1179.49
00000067 00000051 849.81 274.24 816.10 1253.97 1053.64 814.93 1401.91 768.31 1251.03 1040.02 1147.13 1223.66 1449.99 1181.49
00000068 00000052 849.33 276.12 816.07 1247.93 1051.32 818.25 1397.09 770.92 1245.68 1045.72 1142.45 1219.99 1449.38 1178.27
00000069 00000053 849.05 283.20 818.45 1235.45 1050.07 820.12 1396.53 775.02 1244.63 1045.05 1138.63 1218.03 1445.65 1178.61
00000070 00000054 848.58 285.98 818.56 1233.26 1048.88 821.52 1394.77 778.15 1240.23 1046.22 1138.56 1221.59 1440.78 1183.39
00000071 00000055 850.50 287.66 816.85 1231.86 1049.82 825.24 1394.45 779.18 1239.89 1052.59 1139.04 1220.34 1446.21 1179.32
00000072 00000056 853.07 293.04 818.49 1228.56 1053.19 828.71 1397.43 780.79 1244.72 1055.56 1139.62 1217.37 1454.40 1175.33
00000073 00000057 856.46 297.10 817.29 1228.67 1056.91 828.64 1404.09 778.14 1249.47 1057.25 1143.82 1218.01 1464.26 1173.37
00000074 00000058 858.37 294.71 816.60 1237.18 1060.48 830.33 1408.37 781.18 1254.35 1057.62 1146.78 1222.20 1465.45 1178.59
00000075 00000059 859.64 293.89 815.18 1234.01 1064.72 829.60 1412.84 785.80 1258.36 1055.62 1151.30 1228.15 1456.48 1189.24
00000076 00000060 857.34 291.39 817.31 1226.97 1065.04 823.44 1411.94 786.00 1255.97 1055.69 1151.18 1227.25 1444.16 1192.99
00000077 00000061 862.17 288.97 812.33 1231.16 1068.46 827.70 1413.39 794.39 1257.46 1054.01 1150.15 1229.65 1440.10 1199.39
00000078 00000062 859.25 290.33 812.43 1228.11 1067.73 851.27 1406.97 818.27 1256.83 1054.11 1144.97 1229.08 1438.58 1199.55
00000079 00000063 864.19 288.17 808.41 1230.87 1069.60 838.96 1407.53 806.49 1256.49 1053.40 1146.08 1225.97 1437.82 1197.77
00000080 00000064 858.19 286.25 813.97 1236.55 1062.12 825.77 1407.03 784.68 1254.82 1050.23 1146.90 1226.25 1444.52 1189.90
00000081 00000065 860.00 288.63 809.55 1233.37 1067.15 822.36 1409.49 779.99 1257.72 1048.80 1160.20 1233.27 1442.38 1194.41
00000082 00000066 863.12 289.57 813.20 1233.59 1073.03 826.82 1415.93 779.73 1269.15 1044.29 1166.03 1233.58 1450.35 1191.46
00000083 00000067 864.57 293.54 814.20 1213.02 1084.74 838.79 1414.46 789.42 1285.83 1038.16 1185.50 1223.44 1460.79 1179.49
00000084 00000068 860.46 295.67 814.38 1196.09 1080.13 847.76 1407.18 794.92 1281.83 1031.71 1181.51 1213.62 1459.51 1166.40
00000085 00000069 864.09 291.87 813.51 1188.89 1082.84 826.77 1412.73 773.97 1285.05 1014.97 1182.36 1198.97 1463.28 1151.99
00000086 00000070 865.89 278.55 817.51 1200.67 1090.63 801.91 1421.97 757.71 1294.87 1007.10 1181.18 1185.57 1466.87 1145.60
00000087 00000071 867.95 266.22 815.73 1210.88 1092.20 791.98 1426.60 751.11 1295.65 1000.30 1176.76 1178.56 1466.91 1140.76
00000088 00000072 869.57 264.93 816.48 1212.82 1093.11 790.35 1428.65 751.83 1295.49 999.24 1174.74 1175.59 1468.98 1139.55
00000089 00000073 871.72 264.84 814.60 1216.22 1092.34 790.87 1429.29 753.13 1294.54 1003.53 1173.56 1177.09 1471.62 1141.92
00000090 00000074 873.41 267.82 812.31 1218.28 1091.50 794.48 1429.49 756.13 1291.07 1006.05 1171.95 1180.12 1472.94 1144.77
00000091 00000075 874.80 272.69 810.74 1209.93 1088.11 800.30 1427.91 758.98 1285.13 1007.72 1169.98 1182.35 1471.72 1144.93
00000092 00000076 876.09 282.73 809.29 1195.40 1086.81 801.02 1428.75 759.63 1281.92 1007.93 1167.93 1181.59 1470.88 1144.51
00000093 00000077 875.55 283.27 810.77 1196.70 1087.25 800.12 1428.86 761.07 1281.37 1009.00 1166.66 1181.13 1470.16 1146.01
00000094 00000078 874.03 279.67 810.78 1195.53 1087.82 798.35 1427.06 763.49 1280.14 1012.64 1166.22 1181.31 1462.32 1149.58
00000095 00000079 872.44 279.82 810.25 1197.98 1086.30 797.80 1423.18 766.82 1275.16 1014.20 1162.41 1182.48 1454.98 1153.96
00000096 00000080 873.73 281.05 806.94 1212.69 1087.61 801.64 1423.92 765.46 1277.22 1015.09 1169.42 1192.44 1461.07 1159.32
00000097 00000081 877.59 282.52 806.50 1226.36 1089.42 807.62 1428.42 768.67 1281.51 1024.86 1175.72 1204.33 1469.43 1168.60
00000098 00000082 880.43 281.90 803.24 1234.17 1093.16 807.86 1432.89 771.10 1285.30 1028.37 1174.97 1205.28 1473.65 1171.11
00000099 00000083 879.64 286.44 805.03 1228.07 1095.54 800.21 1434.74 764.95 1288.89 1019.76 1179.14 1203.53 1471.35 1170.46
00000100 00000084 880.76 278.05 803.49 1227.50 1095.27 796.90 1435.21 762.79 1288.92 1014.12 1182.69 1203.27 1468.19 1170.51
00000101 00000085 883.83 261.53 802.33 1234.34 1094.74 795.32 1436.52 762.20 1289.31 1011.75 1182.85 1201.88 1466.21 1169.91
00000102 00000086 880.79 258.77 800.96 1230.04 1095.07 809.24 1427.21 779.23 1285.85 1007.97 1177.15 1198.08 1453.29 1170.62
00000103 00000087 881.85 256.67 800.53 1226.61 1092.11 813.73 1423.66 790.55 1280.15 1003.10 1170.34 1194.05 1447.38 1172.42
00000104 00000088 874.01 264.58 807.59 1221.12 1086.64 814.67 1420.77 779.97 1280.40 1007.84 1172.88 1197.65 1454.52 1166.08
00000105 00000089 879.86 273.04 804.13 1225.02 1090.72 801.20 1426.29 766.15 1281.01 1009.88 1172.63 1193.03 1465.20 1160.03
00000106 00000090 879.13 272.14 803.66 1233.66 1085.90 803.18 1426.49 761.27 1277.70 1010.39 1175.09 1204.04 1467.18 1164.97
00000107 00000091 879.56 274.80 804.28 1228.68 1086.25 803.23 1427.38 764.42 1276.44 1014.16 1172.50 1203.04 1464.28 1166.82
00000108 00000092 880.44 273.70 804.19 1224.23 1088.67 802.73 1428.47 767.07 1277.85 1014.19 1172.66 1199.53 1462.51 1166.12
00000109 00000093 883.68 275.83 802.87 1219.95 1091.91 802.39 1431.11 766.81 1281.29 1014.67 1177.11 1199.80 1464.94 1166.37
00000110 00000094 882.02 273.09 805.04 1221.71 1092.29 800.24 1432.78 766.43 1283.09 1016.50 1175.57 1197.09 1465.83 1165.12
00000111 00000095 878.53 274.42 809.22 1219.07 1093.60 798.69 1432.80 765.68 1285.26 1012.83 1171.26 1189.50 1467.78 1158.61
00000112 00000096 882.23 276.91 804.45 1213.52 1091.54 798.04 1435.51 760.37 1285.52 1010.02 1168.55 1185.02 1475.79 1150.46
00000113 00000097 879.68 274.70 806.50 1213.98 1088.12 799.00 1431.78 761.27 1281.33 1007.95 1163.43 1182.48 1473.46 1148.03
00000114 00000098 875.57 272.51 808.38 1216.03 1083.63 798.96 1425.83 758.02 1278.28 1005.12 1161.45 1181.91 1471.40 1144.83
00000115 00000099 873.30 272.52 810.16 1211.56 1078.60 800.41 1421.29 755.23 1274.28 1007.67 1160.83 1181.97 1472.09 1141.33
00000116 00000100 872.29 269.07 809.80 1217.53 1078.35 800.99 1419.22 755.87 1274.00 1007.46 1159.88 1181.35 1471.20 1140.76
00000117 00000101 871.81 273.09 811.05 1215.23 1078.03 798.92 1419.62 754.96 1274.30 1006.42 1158.78 1180.70 1472.05 1141.04
00000118 00000102 872.29 271.71 811.24 1214.49 1082.00 797.21 1421.63 757.26 1277.72 1008.03 1155.64 1172.35 1473.71 1136.35
00000119 00000103 872.49 275.17 813.38 1211.21 1079.16 793.27 1422.50 757.23 1275.44 1012.04 1139.46 1157.60 1475.94 1125.35
00000120 00000104 875.14 273.89 809.12 1211.83 1078.24 788.17 1424.12 751.77 1276.15 1014.89 1128.65 1138.48 1487.78 1106.02
00000121 00000105 876.20 271.33 810.33 1214.66 1074.85 789.07 1423.21 750.91 1273.98 1019.23 1121.38 1129.22 1496.32 1095.10
00000122 00000106 877.19 271.83 809.09 1211.23 1072.68 789.68 1422.12 752.77 1269.30 1023.69 1114.96 1122.74 1498.18 1089.91
00000123 00000107 876.32 271.79 810.94 1214.39 1068.86 788.75 1419.26 751.14 1263.73 1022.74 1110.50 1122.00 1497.21 1088.25
00000124 00000108 874.85 265.77 810.79 1217.22 1063.43 791.39 1413.63 753.86 1256.27 1020.16 1108.61 1124.38 1493.34 1090.03
00000125 00000109 874.01 265.00 811.78 1219.11 1060.00 791.79 1411.91 754.13 1251.96 1020.36 1108.61 1129.09 1490.77 1094.42
00000126 00000110 872.10 263.44 812.75 1222.60 1057.15 792.34 1409.59 754.45 1247.22 1018.39 1108.81 1134.73 1485.27 1099.69
00000127 00000111 874.48 261.43 810.73 1225.50 1056.54 791.00 1407.83 753.34 1243.12 1016.06 1109.18 1137.29 1480.99 1102.55
00000128 00000112 874.68 259.43 811.15 1231.09 1057.19 787.11 1407.49 754.61 1239.90 1011.57 1110.44 1144.92 1469.93 1114.48
00000129 00000113 877.46 252.48 807.44 1239.94 1058.12 783.82 1407.21 757.33 1230.70 1006.35 1114.50 1162.36 1450.26 1137.06
00000130 00000114 881.72 248.76 796.64 1246.19 1058.16 781.02 1404.56 757.36 1224.26 1001.84 1125.21 1192.70 1417.88 1170.09
00000131 00000115 885.26 246.98 789.21 1247.02 1057.35 779.64 1400.82 761.38 1217.97 1002.29 1116.41 1198.32 1401.23 1179.95
00000132 00000116 889.99 245.32 784.96 1248.34 1058.08 780.31 1402.18 767.05 1213.86 1000.27 1108.32 1194.17 1401.05 1180.18
00000133 00000117 894.14 249.66 783.74 1241.74 1061.12 780.39 1407.40 770.50 1214.44 1002.62 1108.21 1194.13 1402.19 1182.84
00000134 00000118 895.60 254.86 786.04 1241.32 1063.39 780.93 1411.73 776.62 1212.30 1007.60 1107.86 1198.46 1401.67 1191.50
00000135 00000119 896.93 249.29 785.70 1246.77 1065.29 784.64 1421.13 788.03 1211.90 1014.10 1107.04 1204.63 1402.56 1204.27
00000136 00000120 901.97 247.78 788.03 1251.04 1077.08 790.52 1432.48 802.59 1217.72 1029.18 1112.78 1209.82 1402.53 1216.26
00000137 00000121 905.57 261.41 794.99 1236.53 1085.07 793.24 1446.06 810.06 1226.21 1038.87 1117.72 1210.41 1411.79 1220.82
00000138 00000122 908.87 259.73 793.48 1239.97 1086.83 795.28 1449.18 810.12 1232.03 1043.31 1123.59 1214.84 1417.65 1223.19
00000139 00000123 904.61 260.36 793.57 1239.32 1084.19 796.34 1441.65 808.20 1229.41 1042.65 1123.41 1214.56 1413.00 1220.61
00000140 00000124 906.12 258.53 788.31 1242.27 1082.28 801.82 1431.51 810.81 1225.13 1046.91 1127.41 1218.97 1406.87 1222.50
00000141 00000125 912.93 259.43 780.00 1243.86 1086.67 827.16 1425.05 842.41 1225.85 1047.53 1131.03 1219.59 1405.70 1228.42
00000142 00000126 914.90 265.12 780.51 1236.88 1088.64 832.06 1428.51 843.23 1232.90 1055.50 1137.63 1225.71 1410.53 1231.23
00000143 00000127 919.09 272.26 779.45 1225.80 1097.39 824.21 1442.41 832.64 1247.43 1051.41 1150.27 1224.08 1424.96 1227.13
00000144 DELETE   927.33 263.67 783.05 1237.29 1109.15 815.64 1461.34 818.66 1270.00 1045.38 1161.40 1220.41 1447.05 1218.55
00000145 DELETE   938.26 239.99 781.90 1267.12 1138.19 789.00 1487.17 800.75 1317.07 1026.33 1178.52 1200.72 1462.96 1209.28
00000146 00000130 946.83 244.89 783.97 1258.71 1151.27 783.68 1499.17 795.01 1334.40 1020.45 1193.87 1191.88 1475.29 1199.98
00000147 00000131 961.68 241.44 781.63 1252.34 1165.97 773.38 1508.28 782.06 1349.48 1007.09 1212.34 1178.97 1486.72 1184.43
00000148 00000132 954.16 218.59 802.26 1262.26 1169.58 758.22 1527.23 765.19 1351.92 995.75 1214.00 1157.00 1516.57 1164.09
00000149 00000133 964.26 206.98 795.97 1261.79 1184.61 736.73 1539.61 752.41 1365.18 976.83 1223.45 1141.94 1522.89 1156.38
00000150 00000134 974.54 224.15 786.08 1242.29 1199.53 726.92 1535.73 737.01 1389.80 953.92 1245.97 1142.78 1502.71 1149.92
00000151 00000135 980.05 218.97 786.91 1229.92 1205.24 716.99 1547.01 730.23 1399.72 940.99 1246.73 1131.92 1513.31 1140.83
00000152 00000136 983.21 218.07 783.01 1226.22 1216.29 708.41 1558.83 724.39 1414.91 931.53 1253.94 1125.08 1518.37 1136.31
00000153 00000137 984.29 219.87 777.86 1230.62 1223.09 707.28 1561.77 720.83 1423.38 926.34 1264.77 1129.75 1518.77 1139.29
00000154 00000138 985.14 216.67 771.04 1232.71 1218.52 708.72 1560.62 719.03 1425.04 923.34 1263.32 1132.72 1524.09 1139.34
00000155 00000139 967.60 194.74 782.06 1239.90 1212.55 709.93 1559.79 720.81 1419.01 920.13 1257.90 1121.80 1546.12 1131.58
00000156 00000140 962.40 196.22 783.60 1227.90 1210.01 711.24 1558.94 712.34 1423.87 914.98 1265.72 1121.07 1550.24 1122.48
00000157 00000141 960.68 200.15 779.81 1214.65 1211.96 708.56 1553.97 702.84 1427.21 905.85 1278.05 1118.47 1552.62 1114.10
00000158 00000142 956.47 203.54 779.97 1214.88 1209.65 706.64 1550.36 696.15 1428.75 903.65 1284.88 1125.18 1550.86 1117.43
00000159 00000143 958.90 202.42 776.95 1210.76 1206.92 706.37 1549.33 692.94 1428.00 903.53 1283.59 1122.32 1555.79 1111.36
00000160 00000144 958.92 200.21 776.08 1203.35 1208.95 704.67 1551.24 687.35 1434.00 896.68 1285.74 1111.91 1564.07 1097.50
00000161 00000145 960.35 200.73 778.39 1195.00 1212.03 702.77 1557.48 684.24 1441.93 886.61 1287.25 1103.25 1572.52 1087.71
00000162 00000146 960.72 199.51 779.66 1200.95 1214.17 701.69 1557.41 684.22 1443.36 882.87 1285.43 1099.66 1573.86 1084.57
00000163 00000147 960.03 203.84 777.85 1205.04 1213.91 706.36 1552.91 683.77 1444.16 883.56 1287.65 1095.53 1585.67 1075.17
00000164 00000148 960.70 233.10 788.84 1189.50 1213.43 714.89 1560.71 676.62 1446.71 884.42 1288.03 1093.54 1598.80 1056.50
00000165 00000149 964.01 239.01 789.26 1177.80 1213.63 722.23 1559.32 681.10 1444.56 898.49 1286.02 1093.99 1599.20 1054.96
00000166 00000150 973.12 237.31 787.13 1177.64 1219.24 725.97 1565.34 678.44 1452.28 898.99 1297.62 1101.18 1608.75 1056.76
00000167 00000151 985.41 230.23 778.95 1185.84 1230.25 725.77 1574.26 680.62 1462.01 894.83 1311.28 1108.75 1611.63 1066.08
00000168 00000152 985.96 227.10 780.66 1193.20 1234.38 725.36 1578.49 681.95 1466.95 894.36 1317.40 1114.94 1612.49 1073.70
00000169 00000153 978.95 233.55 781.64 1193.54 1229.51 727.47 1570.80 681.97 1462.75 895.50 1314.98 1116.92 1607.17 1073.94
00000170 00000154 970.39 236.22 787.16 1200.40 1221.53 724.62 1565.94 679.85 1457.08 899.03 1309.51 1121.95 1599.69 1079.59
00000171 00000155 965.81 239.04 785.29 1191.63 1216.81 725.10 1560.66 683.23 1449.54 903.47 1302.12 1118.89 1588.73 1079.44
00000172 00000156 963.16 237.50 787.00 1192.18 1214.13 726.98 1557.66 688.72 1445.45 902.53 1293.27 1114.28 1588.81 1077.61
00000173 00000157 961.23 235.77 786.22 1195.69 1210.52 727.24 1553.47 693.68 1438.49 902.40 1284.80 1111.85 1582.62 1079.26
00000174 00000158 959.62 237.73 785.37 1198.22 1208.10 729.70 1548.25 696.70 1436.92 903.06 1280.84 1112.91 1581.66 1080.94
