Video ID: 	HVPjoEN1a8k
H: 	1080
W: 	1920
FPS: 	23.976023976023978

FRAME INDEX X0 Y0 W H [Landmarks (5 Points)]

00001094 00000000 694.35 157.03 449.93 642.59 800.48 421.20 1016.55 415.23 909.51 531.45 832.97 647.01 1015.58 640.46
00001095 00000001 693.09 159.21 449.59 648.29 794.27 426.23 1011.33 417.59 903.64 538.77 829.76 655.10 1011.46 646.09
00001096 00000002 692.91 159.64 448.44 655.61 792.55 426.13 1009.19 416.62 901.22 539.46 827.28 658.12 1009.53 648.63
00001097 00000003 695.13 156.26 450.18 659.88 795.25 424.82 1012.58 412.88 905.69 537.18 834.14 660.81 1014.18 649.23
00001098 00000004 698.60 154.01 444.59 642.61 804.43 426.84 1018.20 413.76 917.67 535.21 846.65 655.92 1018.45 643.76
00001099 00000005 702.66 148.54 440.10 640.11 816.65 424.52 1029.59 407.27 936.89 525.76 861.19 648.77 1036.21 633.14
00001100 DELETE   706.98 147.03 447.70 639.94 826.90 422.26 1041.56 400.15 953.73 519.77 878.24 649.66 1052.90 629.60
00001101 00000007 714.00 148.65 449.10 635.93 837.65 420.47 1052.13 396.10 966.07 514.04 892.17 650.98 1061.12 629.13
00001102 DELETE   721.03 151.22 443.17 637.13 842.34 419.08 1054.72 398.69 967.37 515.60 890.78 642.76 1061.50 626.79
00001103 00000009 721.36 153.59 441.24 640.51 842.89 422.24 1052.32 401.26 967.17 516.11 893.81 649.45 1056.79 633.36
00001104 00000010 721.77 151.14 437.92 641.39 838.25 422.59 1051.16 403.34 960.69 521.67 886.23 649.87 1052.88 635.21
00001105 00000011 714.21 151.86 442.93 643.49 834.63 428.51 1043.85 405.63 957.36 530.52 887.96 662.41 1050.85 642.48
00001106 00000012 713.73 156.33 440.15 641.93 829.86 432.68 1039.78 410.50 951.23 538.50 881.35 666.26 1045.48 646.87
00001107 00000013 712.02 154.80 437.24 645.84 826.54 435.41 1035.23 415.05 944.97 543.85 876.56 669.83 1038.86 651.91
00001108 00000014 713.59 159.27 433.27 646.00 825.83 436.62 1033.05 419.77 941.21 547.20 873.34 673.57 1033.44 658.53
00001109 00000015 713.98 161.25 432.85 646.47 826.63 436.64 1033.21 422.12 940.25 549.54 872.19 673.88 1031.93 660.71
00001110 00000016 717.04 162.97 433.10 647.54 829.85 437.25 1036.88 422.38 944.05 551.47 873.50 673.83 1034.86 660.31
00001111 00000017 728.45 159.72 432.55 639.93 830.89 432.46 1049.14 418.25 948.33 544.48 869.84 661.64 1041.72 650.75
00001112 00000018 731.88 160.45 431.43 638.92 834.99 433.24 1051.70 420.55 952.07 544.89 872.90 660.31 1045.16 650.54
00001113 00000019 734.48 161.32 430.76 637.60 838.23 432.41 1054.87 420.99 955.36 543.82 875.11 660.44 1046.59 651.71
00001114 00000020 736.19 160.35 429.63 641.76 841.24 431.68 1055.20 421.27 958.00 543.11 876.85 662.03 1045.37 654.17
00001115 00000021 737.86 162.95 426.62 641.93 845.08 429.53 1056.04 419.43 960.96 540.32 882.10 663.33 1044.57 655.80
00001116 00000022 738.78 158.88 428.06 650.55 847.17 424.71 1057.12 414.90 962.91 533.41 885.02 660.94 1048.48 653.40
00001117 00000023 736.96 154.55 429.53 654.20 848.49 415.32 1058.64 409.84 961.82 523.64 882.32 653.62 1047.61 649.64
00001118 00000024 738.48 145.91 428.31 656.77 849.12 402.45 1061.65 398.54 963.83 514.67 881.19 646.72 1046.24 643.80
00001119 00000025 739.81 137.70 429.28 648.69 850.61 392.27 1063.96 394.25 960.52 499.09 874.34 631.24 1039.19 632.63
00001120 00000026 730.42 127.19 430.58 629.60 846.60 385.37 1060.45 389.63 952.23 489.95 868.95 617.07 1035.17 620.16
00001121 00000027 730.10 126.64 429.23 618.44 843.47 380.31 1056.96 387.77 946.34 478.65 861.64 603.35 1032.10 608.63
00001122 00000028 728.37 124.77 426.15 618.26 841.07 375.00 1052.25 390.33 938.17 477.94 852.69 601.08 1019.29 613.20
00001123 00000029 734.07 137.64 438.24 628.45 846.15 380.37 1051.89 397.33 934.78 485.85 847.04 605.10 996.09 620.30
00001124 00000030 735.14 142.59 437.12 628.93 845.03 384.91 1051.88 406.53 929.22 496.96 839.98 609.03 997.46 627.15
00001125 00000031 738.22 148.87 433.15 638.17 844.20 393.48 1050.84 416.50 925.23 511.49 838.26 620.53 997.84 639.86
00001126 00000032 737.78 157.06 439.39 649.07 845.44 399.31 1054.92 424.49 925.51 520.43 834.63 634.51 997.95 656.25
00001127 00000033 740.72 162.21 445.77 638.62 848.77 404.18 1057.15 432.50 927.51 527.31 838.61 633.41 1002.29 657.23
00001128 00000034 741.93 165.89 444.91 623.46 851.61 405.43 1067.07 435.00 937.14 534.23 845.08 630.74 1019.32 655.01
00001129 00000035 743.91 166.53 445.63 620.95 857.00 405.48 1076.56 433.93 947.33 535.33 853.11 632.14 1032.94 655.25
00001130 00000036 744.79 164.93 436.03 626.28 860.70 404.25 1081.48 430.06 958.60 530.57 859.97 634.34 1040.85 655.60
00001131 00000037 743.33 164.85 436.52 626.63 861.80 401.30 1079.70 428.01 959.32 528.35 859.94 632.04 1035.98 654.40
00001132 00000038 741.42 161.23 437.78 630.91 859.41 400.67 1076.37 429.36 953.33 528.49 853.94 630.70 1029.50 654.63
00001133 00000039 738.49 161.60 436.95 633.67 855.20 404.13 1065.40 433.61 943.04 531.33 848.63 633.94 1010.33 659.04
00001134 00000040 738.55 164.95 436.21 630.44 855.46 404.64 1062.90 440.50 937.60 539.16 842.44 631.84 1003.08 662.31
00001135 00000041 737.35 166.66 439.64 634.75 858.34 406.99 1064.11 446.53 937.71 542.26 838.66 634.68 997.99 668.60
00001136 00000042 739.17 170.10 436.93 635.22 861.27 409.29 1068.46 449.84 942.83 543.90 838.66 642.35 995.94 677.56
00001137 00000043 741.44 171.14 430.01 640.58 863.34 410.78 1070.66 450.04 946.29 544.63 841.64 649.08 996.28 683.52
00001138 00000044 742.34 170.93 431.83 639.34 862.85 409.88 1071.74 447.63 947.57 543.84 843.48 649.62 999.08 682.75
00001139 00000045 740.84 168.31 431.42 633.98 858.42 410.41 1068.69 445.14 945.29 542.68 843.47 647.17 998.53 677.78
00001140 00000046 738.05 163.13 428.59 635.21 856.14 412.29 1063.04 443.07 943.94 543.16 845.35 645.38 996.73 672.81
00001141 00000047 735.21 164.12 428.87 631.45 854.57 412.02 1061.28 440.65 944.23 543.87 845.52 639.98 1000.48 665.67
00001142 00000048 732.77 161.84 433.07 633.17 854.19 412.24 1062.21 440.36 946.17 544.25 846.94 637.56 1005.48 662.56
00001143 00000049 730.93 164.54 433.37 629.95 852.43 412.13 1063.03 439.71 946.83 544.40 846.20 635.85 1009.44 660.09
00001144 00000050 728.75 162.94 435.96 630.72 851.05 413.57 1064.14 440.01 947.54 545.04 844.37 635.58 1014.15 658.48
00001145 00000051 728.40 162.79 436.45 632.85 851.14 414.96 1064.37 441.53 947.58 546.56 845.14 636.30 1015.19 659.33
00001146 00000052 731.19 161.37 436.50 638.88 851.90 416.66 1065.05 440.65 949.78 547.37 848.41 641.25 1018.65 662.03
00001147 00000053 733.62 162.25 432.40 640.01 854.47 416.88 1065.09 439.05 952.83 545.74 854.32 644.46 1018.74 663.93
00001148 00000054 734.99 159.95 435.12 640.98 856.79 415.68 1067.12 438.10 955.78 545.11 857.30 643.81 1021.55 663.39
00001149 00000055 734.65 160.75 437.11 638.10 856.64 415.46 1068.35 437.79 956.23 545.00 858.02 644.06 1022.28 663.56
00001150 00000056 734.05 161.24 438.30 634.81 856.61 415.61 1069.02 437.94 956.22 545.15 857.34 643.35 1021.06 662.95
00001151 00000057 734.02 161.06 432.06 631.85 856.39 415.82 1068.35 438.05 956.48 544.38 855.53 643.00 1017.85 662.72
00001152 00000058 733.54 161.79 430.42 628.45 855.53 416.98 1068.28 437.68 956.01 544.74 855.94 645.42 1016.26 663.93
00001153 00000059 724.00 158.02 431.63 635.80 852.79 422.57 1057.35 437.36 955.18 554.13 865.41 661.35 1015.66 673.60
00001154 00000060 723.23 158.19 432.21 633.04 850.81 423.21 1056.10 436.48 952.81 553.22 865.29 662.11 1014.72 672.99
00001155 00000061 722.01 157.42 434.54 632.75 849.00 423.53 1056.03 435.77 951.64 553.41 864.71 662.49 1016.04 672.30
00001156 00000062 721.49 157.16 436.72 631.84 847.10 424.54 1055.97 436.48 949.47 553.63 862.77 662.54 1015.89 671.99
00001157 00000063 720.37 158.38 434.41 630.80 845.66 425.36 1054.88 436.36 949.24 554.76 862.54 663.19 1016.58 671.86
00001158 00000064 719.95 158.01 436.04 631.97 844.57 427.01 1055.20 438.23 948.16 556.38 861.52 664.70 1016.62 673.45
00001159 00000065 719.68 160.14 435.44 630.65 843.75 429.35 1054.53 439.79 947.41 557.71 861.03 666.26 1016.82 674.45
00001160 00000066 720.14 160.25 436.37 632.51 843.15 430.31 1054.20 440.21 945.96 558.13 860.58 667.67 1016.67 675.43
00001161 00000067 721.02 161.17 437.34 632.42 843.96 431.15 1054.22 440.46 946.59 558.91 862.06 668.38 1016.72 675.77
00001162 00000068 732.58 165.69 429.19 621.99 848.37 427.01 1063.48 438.67 952.36 549.02 857.23 655.53 1017.18 666.43
00001163 00000069 733.09 165.79 429.05 621.23 849.03 426.87 1062.94 436.78 953.64 548.69 860.33 655.33 1018.02 664.84
00001164 00000070 734.81 163.66 426.31 624.84 849.64 426.76 1062.34 435.93 955.20 549.11 862.82 655.18 1019.03 664.18
00001165 00000071 735.58 164.62 428.81 622.60 850.00 432.33 1063.20 441.97 951.76 548.55 862.75 656.01 1020.30 664.97
00001166 00000072 725.77 161.96 429.76 637.95 846.66 437.26 1055.49 439.13 950.22 557.09 870.53 672.27 1024.95 673.15
00001167 00000073 725.34 162.08 431.47 639.18 846.12 434.17 1055.25 435.20 950.72 555.41 871.87 671.79 1025.58 672.11
00001168 00000074 736.66 164.09 432.33 627.13 849.57 427.36 1062.55 436.21 952.28 544.11 865.22 656.24 1019.88 664.84
00001169 00000075 737.71 161.71 430.70 629.00 849.42 424.83 1061.07 432.75 952.38 541.54 866.70 655.44 1020.08 663.17
00001170 00000076 736.56 159.96 428.09 630.90 849.08 422.86 1060.37 428.55 954.89 539.05 869.92 655.36 1021.78 661.21
00001171 00000077 737.92 157.88 425.59 633.14 850.38 421.51 1061.44 426.46 957.29 535.35 872.06 654.76 1025.93 659.74
00001172 00000078 738.58 157.86 426.91 634.50 851.03 417.36 1062.24 422.60 958.35 529.55 872.70 653.04 1027.52 658.22
00001173 00000079 740.00 154.89 427.88 639.63 851.91 411.90 1063.61 417.52 959.37 523.07 873.05 649.55 1030.08 654.71
00001174 00000080 740.08 150.65 428.58 646.07 855.36 405.36 1065.10 411.55 963.68 517.33 877.28 646.29 1031.46 652.09
00001175 00000081 741.75 144.33 426.79 652.32 860.14 398.62 1068.66 404.20 971.64 510.56 884.04 643.08 1038.73 647.93
00001176 00000082 745.71 141.82 427.22 653.78 866.92 393.12 1075.15 399.91 980.52 503.51 891.15 639.01 1044.38 644.77
00001177 00000083 750.44 140.65 422.08 652.25 872.39 392.87 1083.84 398.77 990.42 499.61 900.45 639.03 1055.45 643.73
00001178 00000084 750.86 142.31 420.58 654.91 877.02 395.26 1085.28 401.40 997.54 504.83 906.73 643.09 1061.21 647.94
00001179 00000085 749.68 149.00 426.17 654.89 875.55 404.71 1083.80 407.54 998.42 516.39 911.90 654.67 1064.34 657.02
00001180 00000086 750.38 158.04 423.14 654.80 872.59 417.17 1080.14 418.34 992.84 529.20 910.75 666.87 1061.43 668.06
00001181 00000087 749.70 162.00 422.63 647.62 868.75 422.35 1079.87 422.92 987.06 536.93 904.87 669.96 1057.68 670.75
00001182 00000088 744.05 158.64 429.91 643.12 863.58 419.06 1081.48 421.26 983.85 533.15 894.03 655.36 1062.28 656.94
00001183 00000089 739.80 155.66 434.94 645.10 856.54 413.38 1071.99 414.11 973.21 526.10 887.72 650.71 1053.22 651.50
00001184 00000090 736.16 155.16 427.70 647.44 853.00 412.87 1062.96 412.28 967.40 521.09 883.47 650.63 1041.05 650.91
00001185 00000091 723.93 156.56 437.46 643.09 842.56 418.69 1058.75 407.57 963.72 528.07 878.59 659.73 1038.51 648.84
00001186 00000092 726.74 159.82 435.19 638.01 839.70 418.88 1057.40 415.89 954.01 531.34 869.18 651.01 1037.49 649.25
00001187 00000093 715.00 158.59 444.20 643.00 832.54 428.80 1051.21 419.73 952.44 542.87 869.94 667.55 1035.47 657.38
00001188 00000094 712.60 159.26 443.44 643.10 830.66 430.43 1047.72 419.13 951.70 544.14 871.11 669.26 1034.27 657.14
00001189 00000095 711.18 159.27 441.16 642.74 828.10 430.94 1044.77 417.44 950.39 544.51 871.83 669.35 1034.80 655.34
00001190 00000096 711.16 163.56 441.27 640.98 831.00 434.05 1039.83 422.23 946.61 550.57 872.85 668.75 1034.95 657.59
00001191 00000097 708.86 164.04 441.36 641.28 827.22 437.19 1037.21 425.17 943.01 554.20 868.34 669.39 1033.58 657.87
00001192 00000098 705.17 165.64 446.34 644.94 823.18 440.94 1035.99 428.83 940.30 557.95 864.52 672.69 1033.58 660.93
00001193 00000099 705.47 166.37 447.53 654.57 821.12 443.66 1036.57 431.47 938.92 562.48 861.75 679.21 1033.67 667.34
00001194 00000100 704.30 165.90 448.56 659.22 819.85 445.56 1035.72 433.10 937.38 566.74 859.60 681.47 1033.19 669.38
00001195 00000101 704.90 166.86 447.87 657.66 818.89 447.52 1035.69 434.46 936.33 569.11 858.52 683.09 1032.96 670.61
00001196 00000102 704.05 167.26 446.74 652.31 818.22 448.49 1035.39 435.54 935.90 569.98 858.38 682.67 1032.23 670.22
00001197 00000103 703.73 167.30 446.92 648.19 818.37 448.95 1035.41 435.62 936.06 569.89 859.70 682.10 1032.25 669.26
00001198 00000104 703.74 167.65 447.56 645.11 818.54 448.46 1036.47 435.34 936.18 569.41 860.43 681.66 1032.24 668.99
00001199 00000105 703.75 166.45 448.18 645.50 818.70 447.77 1037.07 434.71 936.67 568.68 861.10 681.44 1032.46 668.84
00001200 00000106 704.62 165.81 446.30 648.03 819.88 446.17 1037.72 433.52 938.17 567.84 862.83 681.89 1033.54 669.54
00001201 00000107 705.26 165.91 445.71 648.11 821.07 445.92 1038.92 433.72 939.33 567.17 863.69 682.29 1033.65 670.38
00001202 00000108 706.15 166.01 446.73 648.92 821.95 445.51 1039.65 433.68 939.79 566.14 864.26 682.39 1033.55 670.87
00001203 00000109 707.99 166.45 444.73 650.44 822.58 445.43 1040.09 434.52 939.15 565.61 864.30 683.54 1033.33 672.87
00001204 00000110 709.16 165.44 444.32 653.52 823.96 444.58 1040.83 433.84 940.54 565.25 865.49 684.47 1033.54 674.02
00001205 00000111 708.03 166.73 444.17 648.43 821.51 440.77 1042.08 428.31 943.32 555.99 866.96 683.79 1033.62 670.01
00001206 00000112 711.34 164.61 437.40 656.32 825.95 436.54 1043.49 425.28 946.57 553.38 866.90 681.56 1033.58 669.29
00001207 00000113 713.08 160.77 433.79 669.30 828.56 429.57 1045.12 416.45 948.72 540.82 867.42 679.42 1031.09 666.15
00001208 00000114 713.17 157.13 433.55 676.94 832.49 418.32 1047.33 404.08 951.82 528.99 872.18 673.32 1029.50 659.32
00001209 00000115 713.29 151.74 434.64 669.26 830.81 412.11 1047.98 394.80 951.09 519.43 871.58 664.12 1030.62 647.38
00001210 00000116 717.13 145.44 440.60 653.58 831.27 409.62 1053.41 393.29 951.12 513.18 872.54 653.76 1037.07 637.54
00001211 00000117 723.04 141.23 431.28 636.88 831.33 403.41 1056.03 395.08 948.00 511.30 867.59 642.54 1047.46 634.02
00001212 00000118 723.01 140.10 434.17 631.18 829.29 403.84 1056.73 395.75 945.51 512.75 864.18 636.67 1051.10 628.69
00001213 00000119 722.52 143.39 433.53 625.49 830.17 406.07 1056.39 400.10 944.33 515.89 862.72 636.41 1047.99 630.18
00001214 00000120 723.28 148.30 431.47 629.47 832.71 413.62 1053.37 408.28 945.25 523.91 864.25 645.42 1041.33 640.02
00001215 00000121 720.02 156.53 436.99 647.62 831.57 420.65 1052.60 415.86 946.24 533.96 861.09 660.23 1030.46 654.05
00001216 00000122 720.12 159.10 433.55 669.08 836.06 426.52 1053.64 428.20 947.26 548.67 856.87 674.85 1023.83 674.16
00001217 00000123 721.20 159.40 436.61 667.66 836.14 428.37 1055.12 432.83 945.41 553.87 854.58 677.28 1022.00 679.16
00001218 00000124 719.87 160.50 439.52 654.25 835.11 425.18 1054.06 429.98 944.71 549.24 855.09 670.32 1021.28 672.13
00001219 00000125 728.56 157.73 435.52 643.64 840.15 415.53 1055.89 423.92 944.47 533.59 853.54 648.79 1019.46 656.84
00001220 00000126 729.82 155.01 433.62 638.12 840.20 408.61 1058.70 419.20 944.21 525.73 851.41 640.54 1022.15 649.97
00001221 00000127 724.53 148.17 436.93 639.32 841.49 407.49 1056.18 415.98 945.63 526.74 859.02 645.86 1025.62 652.18
CROP_BBOX: 444 0 1437 975
