Video ID: 	riCRQ852vQA
H: 	2160
W: 	3840
FPS: 	23.976023976023978

FRAME INDEX X0 Y0 W H [Landmarks (5 Points)]

00003133 00000000 1758.83 340.83 578.82 905.26 1831.96 671.06 2051.64 686.81 1824.06 844.69 1819.23 1008.28 2003.93 1020.00
00003134 00000001 1750.21 337.59 579.12 892.12 1826.59 670.55 2040.71 691.96 1819.27 841.58 1804.20 1004.08 1972.23 1020.66
00003135 00000002 1738.51 336.35 576.49 887.81 1816.96 662.31 2020.52 690.38 1796.91 841.38 1786.05 1006.21 1935.99 1028.59
00003136 00000003 1736.12 351.04 578.71 872.58 1816.28 662.87 2007.20 689.15 1786.24 844.75 1783.81 1010.59 1934.15 1029.91
00003137 00000004 1737.09 354.90 576.53 874.60 1811.28 668.09 2005.28 688.95 1787.10 850.11 1789.38 1013.51 1947.05 1028.98
00003138 00000005 1737.28 356.12 569.92 888.00 1808.01 666.22 2005.56 683.93 1782.72 839.16 1788.55 1019.77 1949.47 1033.52
00003139 DELETE   1724.32 368.25 576.48 891.22 1801.12 656.12 1995.43 679.05 1767.08 827.51 1780.13 1011.93 1942.86 1029.65
00003140 DELETE   1703.66 360.56 602.93 897.98 1790.23 643.77 1990.46 674.94 1749.56 822.83 1772.08 994.26 1922.69 1020.06
00003141 00000008 1697.29 366.05 610.23 894.74 1794.69 641.51 1982.53 672.81 1733.77 818.65 1757.08 1002.39 1908.98 1024.39
00003142 00000009 1704.19 376.77 599.99 860.24 1788.86 647.11 1989.34 674.55 1744.14 821.22 1766.29 984.06 1922.43 1003.70
00003143 00000010 1703.40 389.21 594.08 841.34 1785.92 650.79 1990.52 675.80 1747.16 823.01 1763.19 983.18 1926.97 1000.76
00003144 00000011 1696.32 393.04 598.47 838.07 1781.80 650.86 1983.92 675.68 1740.88 823.65 1758.45 984.10 1917.78 1001.54
00003145 00000012 1696.40 406.91 586.65 825.53 1783.43 653.47 1973.69 686.70 1740.78 825.70 1749.54 990.70 1890.61 1013.37
00003146 00000013 1695.03 412.59 588.85 819.90 1780.82 655.24 1971.64 691.00 1735.89 827.76 1745.39 992.54 1888.39 1016.98
00003147 00000014 1703.07 388.79 596.27 858.66 1770.78 658.40 1977.12 688.46 1740.20 835.92 1751.28 993.90 1918.73 1019.16
00003148 00000015 1703.50 391.62 590.82 857.61 1766.33 665.21 1975.97 688.96 1742.89 845.02 1751.70 999.39 1923.30 1020.15
00003149 DELETE   1690.86 394.91 587.20 840.48 1772.44 672.77 1963.24 697.77 1731.38 844.30 1744.01 1007.49 1888.49 1024.22
00003150 DELETE   1683.77 386.92 580.56 859.44 1775.85 674.83 1953.20 702.66 1717.34 847.07 1737.66 1016.28 1877.96 1035.24
00003151 00000018 1680.61 393.94 583.35 875.64 1778.49 675.82 1953.67 707.19 1721.79 852.53 1742.10 1029.41 1880.74 1051.04
00003152 DELETE   1683.12 376.39 591.65 894.07 1777.37 676.58 1959.14 703.57 1725.62 855.02 1745.29 1035.82 1886.78 1054.13
00003153 00000020 1687.40 371.65 601.56 908.04 1763.59 680.62 1968.15 700.08 1729.41 848.69 1748.66 1026.92 1898.88 1043.11
00003154 00000021 1683.79 376.82 598.28 884.19 1764.66 667.66 1964.11 700.89 1731.06 840.63 1740.46 1007.95 1886.02 1034.89
00003155 00000022 1682.95 391.02 589.91 852.53 1775.69 667.47 1956.47 696.74 1723.68 834.21 1736.78 1005.48 1867.46 1026.14
00003156 00000023 1688.95 395.00 587.83 828.62 1776.58 662.24 1961.75 694.14 1732.81 830.93 1738.03 996.49 1869.73 1019.26
00003157 00000024 1694.23 379.76 602.06 877.83 1770.97 661.68 1971.71 691.19 1741.41 835.69 1749.66 1004.84 1891.24 1029.48
00003158 00000025 1691.33 377.83 605.34 901.96 1770.95 659.80 1976.84 688.65 1738.72 834.39 1759.10 1014.81 1904.84 1037.98
00003159 00000026 1684.60 387.38 589.27 923.58 1781.63 654.72 1956.35 679.03 1711.68 831.45 1751.09 1038.35 1901.34 1054.83
00003160 00000027 1675.04 385.57 584.06 950.72 1782.56 652.63 1949.06 685.09 1702.94 839.21 1755.15 1042.19 1908.83 1064.54
00003161 00000028 1678.52 391.05 576.37 949.04 1778.68 672.20 1960.87 708.97 1715.17 862.02 1771.51 1055.15 1929.90 1080.40
00003162 00000029 1693.76 384.42 581.05 939.07 1772.65 688.07 1971.23 711.90 1728.36 868.57 1768.89 1053.87 1937.90 1070.00
00003163 00000030 1692.19 371.56 595.79 920.52 1756.26 691.96 1974.58 709.29 1736.83 861.52 1752.76 1028.34 1928.98 1043.33
00003164 00000031 1683.66 379.47 583.19 885.30 1765.64 681.15 1954.67 710.68 1722.10 858.22 1741.17 1015.51 1899.28 1035.70
00003165 00000032 1677.14 391.67 579.55 862.80 1768.10 675.41 1948.67 711.08 1712.83 854.32 1732.64 1014.62 1886.24 1039.19
00003166 00000033 1678.74 392.56 585.27 864.75 1768.85 678.12 1950.73 711.83 1718.92 856.47 1736.76 1016.85 1888.40 1039.89
00003167 00000034 1688.05 388.43 586.62 873.55 1766.91 681.32 1958.54 713.01 1724.09 865.41 1742.21 1016.51 1907.27 1037.81
00003168 00000035 1691.47 378.27 584.12 878.67 1766.15 686.12 1961.30 715.90 1729.89 869.51 1742.61 1020.15 1908.09 1040.00
00003169 00000036 1681.21 370.10 585.92 888.38 1766.07 686.28 1951.16 724.08 1721.37 864.50 1736.84 1017.11 1889.05 1042.91
00003170 00000037 1674.50 380.73 582.01 871.46 1763.71 684.48 1940.15 728.17 1706.31 868.03 1728.05 1021.16 1875.47 1051.30
00003171 00000038 1671.80 375.01 589.44 900.25 1765.25 688.78 1944.03 726.84 1710.58 864.04 1725.85 1032.19 1871.13 1058.85
00003172 00000039 1684.87 365.79 585.95 932.84 1769.09 692.78 1959.90 721.39 1726.34 874.66 1751.83 1059.62 1903.82 1078.52
00003173 00000040 1695.77 353.68 579.11 972.75 1771.40 692.03 1976.78 712.53 1737.63 874.74 1763.76 1073.53 1931.28 1088.25
00003174 00000041 1696.90 354.63 580.06 953.04 1768.37 689.65 1977.28 713.69 1738.52 869.07 1754.07 1056.22 1921.65 1073.37
00003175 00000042 1690.34 365.80 586.70 922.11 1768.73 687.32 1966.81 718.22 1728.07 861.24 1738.44 1038.22 1897.38 1059.86
00003176 00000043 1690.27 367.16 582.84 905.16 1772.35 684.59 1961.72 718.81 1725.07 858.02 1738.58 1026.48 1891.58 1050.19
00003177 00000044 1699.79 371.22 581.19 888.57 1774.01 680.66 1969.41 714.91 1733.95 860.24 1743.65 1022.92 1894.96 1046.99
00003178 00000045 1711.05 370.80 582.00 881.11 1779.02 686.31 1982.54 714.48 1748.88 866.52 1756.75 1025.78 1919.28 1044.71
00003179 00000046 1711.58 369.94 578.72 880.42 1781.20 684.97 1986.97 714.96 1753.65 863.85 1759.43 1021.22 1924.05 1041.89
00003180 00000047 1703.10 351.06 599.46 906.03 1771.49 683.50 1981.25 709.37 1742.43 856.36 1751.11 1020.17 1907.82 1041.97
00003181 DELETE   1688.36 352.25 597.80 929.23 1773.22 685.00 1974.22 713.55 1729.50 848.75 1748.24 1028.95 1894.09 1051.96
00003182 00000049 1695.21 358.84 580.39 958.68 1787.47 659.88 1972.03 694.59 1718.15 835.91 1750.69 1044.52 1904.20 1068.54
00003183 00000050 1711.89 351.34 568.35 975.97 1790.70 657.17 1988.52 685.26 1736.98 844.44 1770.63 1055.39 1934.15 1074.77
00003184 DELETE   1721.88 355.65 577.96 972.75 1796.25 669.51 2004.17 683.39 1758.55 842.44 1788.11 1060.98 1965.27 1071.30
00003185 00000052 1729.43 352.99 573.67 964.35 1802.66 661.90 2013.32 680.96 1773.23 840.30 1791.07 1050.89 1968.98 1064.85
00003186 00000053 1726.27 349.21 572.63 944.21 1807.83 653.71 2004.63 675.27 1765.62 828.42 1783.50 1036.23 1944.31 1052.54
00003187 00000054 1719.29 340.82 578.47 939.97 1809.66 649.90 1997.17 676.98 1753.57 824.32 1776.85 1022.00 1935.56 1041.65
00003188 00000055 1721.19 342.09 579.48 923.21 1812.86 649.95 1994.86 672.62 1756.75 822.83 1781.62 1017.96 1935.95 1034.17
00003189 00000056 1733.88 339.58 576.56 915.27 1813.67 649.52 2002.28 667.81 1771.96 822.92 1794.51 1013.68 1953.93 1026.33
00003190 DELETE   1735.87 330.99 579.19 926.21 1816.75 644.63 2017.11 663.64 1779.41 821.52 1799.84 1005.69 1962.79 1020.98
00003191 00000058 1740.16 329.16 577.73 927.87 1819.75 643.85 2019.12 660.53 1780.93 817.40 1804.65 1006.15 1964.49 1019.73
00003192 00000059 1737.21 326.50 584.39 928.93 1819.50 641.25 2018.83 658.15 1777.37 812.64 1800.55 1003.48 1961.44 1017.07
00003193 00000060 1738.38 326.65 586.28 927.14 1822.97 636.32 2013.77 656.28 1775.35 808.95 1802.28 1006.84 1964.13 1020.44
00003194 00000061 1737.50 320.47 589.88 938.60 1819.38 634.50 2020.69 651.79 1776.15 808.66 1801.94 1002.06 1967.92 1015.44
00003195 00000062 1740.07 316.88 580.08 940.59 1819.49 635.19 2022.71 650.44 1778.26 809.30 1805.44 1003.55 1972.65 1015.40
00003196 00000063 1739.69 316.09 579.18 939.94 1819.94 634.16 2020.10 649.65 1776.81 809.59 1806.14 1001.49 1972.49 1013.87
00003197 00000064 1729.25 322.28 584.01 943.33 1814.89 636.32 2012.40 651.30 1768.45 811.16 1799.61 1004.16 1965.94 1016.48
00003198 00000065 1729.42 326.86 579.63 945.27 1816.24 640.03 2004.52 658.57 1766.82 808.89 1795.62 1008.37 1965.47 1020.77
00003199 DELETE   1745.04 327.13 576.04 966.47 1815.23 643.07 2018.94 659.93 1784.35 820.51 1809.64 1018.14 1997.77 1029.51
00003200 DELETE   1761.84 326.60 573.65 988.98 1824.65 654.71 2043.49 663.83 1817.41 837.23 1831.81 1029.78 2036.42 1035.95
00003201 DELETE   1764.54 330.53 582.66 998.71 1832.85 669.59 2068.45 667.61 1846.23 854.68 1847.56 1052.67 2072.75 1050.49
00003202 00000069 1759.64 334.66 588.77 982.39 1829.05 674.70 2070.20 673.42 1851.09 859.22 1846.00 1051.94 2066.06 1050.01
00003203 DELETE   1757.33 359.36 569.29 915.17 1816.94 681.53 2040.75 693.00 1828.74 870.70 1830.70 1043.44 2020.75 1051.11
00003204 DELETE   1721.35 354.26 590.01 908.45 1795.77 689.31 2020.84 707.36 1802.51 871.15 1789.56 1021.13 1989.21 1035.99
00003205 00000072 1712.15 354.59 594.21 910.08 1784.73 687.46 1998.99 709.12 1765.81 868.95 1772.47 1027.98 1966.33 1043.23
00003206 DELETE   1717.90 361.15 588.90 897.22 1786.94 690.78 2005.93 711.63 1781.21 869.87 1780.04 1027.80 1968.26 1043.15
00003207 DELETE   1726.11 358.69 589.84 916.19 1795.71 690.51 2026.65 707.77 1808.32 885.29 1797.89 1045.30 2002.59 1057.84
00003208 00000075 1736.09 364.36 575.31 912.92 1800.05 691.87 2023.64 707.88 1805.16 883.04 1804.41 1052.23 2003.78 1063.21
00003209 DELETE   1717.09 359.86 586.79 929.74 1787.05 688.90 2006.64 705.56 1778.01 869.34 1785.00 1053.46 1968.23 1066.09
00003210 00000077 1714.74 348.85 580.91 951.84 1783.67 689.90 1991.39 710.51 1749.60 869.98 1774.75 1059.82 1949.96 1074.01
00003211 00000078 1713.12 359.50 584.54 949.19 1788.32 685.37 1997.77 705.21 1752.22 859.99 1777.45 1057.65 1952.43 1072.33
00003212 DELETE   1727.46 356.45 582.80 945.18 1793.35 684.33 2011.96 702.68 1781.08 864.46 1792.79 1055.58 1972.98 1069.30
00003213 DELETE   1748.36 369.69 565.23 910.76 1808.61 682.96 2026.47 699.11 1802.88 866.40 1815.23 1049.78 1997.34 1061.49
00003214 00000081 1742.78 362.22 573.24 917.83 1809.03 677.39 2034.56 693.45 1812.46 863.37 1810.26 1040.14 1995.27 1053.50
00003215 00000082 1743.76 356.84 571.01 915.82 1809.95 663.91 2030.92 686.85 1806.05 854.70 1803.50 1028.68 1981.36 1047.17
00003216 DELETE   1747.31 345.62 574.29 919.39 1810.79 658.92 2028.21 680.73 1801.65 847.30 1804.58 1019.51 1980.35 1037.04
00003217 00000084 1752.87 342.51 572.24 925.53 1817.04 656.65 2033.56 677.30 1806.05 846.74 1812.97 1016.73 1994.16 1032.65
00003218 00000085 1757.06 344.70 570.82 923.96 1822.84 656.40 2037.96 673.89 1809.27 843.16 1817.31 1015.10 1999.36 1028.47
00003219 00000086 1760.12 333.02 572.73 934.32 1826.65 654.05 2039.68 672.30 1812.24 841.76 1820.37 1010.58 2002.68 1024.00
00003220 00000087 1761.56 339.89 570.16 924.95 1829.35 652.62 2042.01 669.83 1813.18 839.16 1821.73 1009.79 2003.93 1022.45
00003221 00000088 1763.78 332.52 568.06 931.00 1830.68 652.72 2042.71 667.22 1812.09 837.11 1823.92 1009.88 2004.78 1020.21
00003222 00000089 1764.33 326.41 576.02 937.51 1830.87 654.61 2045.13 667.52 1812.93 836.20 1824.46 1011.48 2008.45 1020.41
00003223 00000090 1764.19 323.64 574.37 937.54 1832.37 653.94 2047.12 666.01 1814.65 834.69 1824.92 1010.51 2010.27 1018.97
00003224 00000091 1764.69 326.64 573.98 934.88 1831.47 653.16 2043.64 663.15 1812.72 834.97 1825.49 1012.38 2008.42 1019.37
00003225 00000092 1763.97 325.10 573.86 934.63 1830.75 650.69 2041.53 660.68 1811.35 833.10 1825.42 1009.99 2008.06 1016.96
00003226 00000093 1764.15 322.44 575.11 934.64 1830.86 650.72 2040.42 660.02 1811.30 833.35 1825.61 1009.20 2006.89 1015.67
00003227 00000094 1765.31 323.27 575.14 933.36 1830.85 650.26 2041.51 658.19 1812.67 832.86 1827.34 1010.47 2008.77 1015.86
00003228 00000095 1765.71 326.17 571.88 927.35 1829.46 648.89 2037.67 657.11 1810.59 830.58 1826.43 1008.55 2004.82 1014.39
00003229 DELETE   1753.79 320.72 574.87 926.68 1822.70 645.23 2028.64 653.88 1797.78 822.65 1816.88 1002.14 1992.54 1008.86
00003230 DELETE   1736.79 320.65 582.90 925.90 1815.58 643.70 2013.87 656.38 1777.07 814.91 1802.19 996.90 1968.27 1007.07
00003231 DELETE   1716.91 320.21 594.59 926.42 1815.32 642.58 2000.32 656.45 1755.04 802.32 1787.32 991.21 1946.61 1003.00
00003232 00000099 1714.91 323.46 590.46 920.97 1827.63 642.87 1986.21 659.38 1743.67 799.01 1787.51 992.63 1932.10 1003.30
00003233 00000100 1716.08 322.52 591.30 921.30 1827.54 641.79 1989.81 657.30 1745.89 793.17 1786.08 991.53 1931.13 1001.78
00003234 DELETE   1727.44 313.05 585.78 931.12 1825.49 637.77 2003.29 651.71 1761.33 793.65 1792.73 987.69 1943.74 999.22
00003235 DELETE   1742.59 307.84 582.81 934.37 1829.20 636.13 2015.47 650.03 1778.10 799.39 1805.16 989.38 1962.37 1000.08
00003236 00000103 1749.57 313.14 581.99 927.40 1839.31 634.26 2022.71 652.27 1786.95 797.92 1814.83 992.59 1975.15 1004.51
00003237 00000104 1755.74 310.48 574.48 932.77 1838.79 634.07 2030.17 645.38 1792.12 796.35 1817.95 990.75 1978.79 999.13
00003238 00000105 1761.56 310.44 572.31 932.79 1843.58 634.17 2032.88 643.04 1795.90 796.50 1823.19 991.35 1982.72 997.62
00003239 00000106 1766.30 307.40 571.60 933.42 1847.67 635.22 2037.00 643.09 1800.62 797.17 1827.43 989.98 1987.83 995.36
00003240 00000107 1770.91 308.08 571.71 936.06 1851.31 636.78 2043.35 644.86 1808.77 799.77 1830.57 989.65 1996.40 995.30
00003241 00000108 1772.65 310.61 573.48 933.57 1854.61 637.19 2046.77 644.36 1811.22 799.71 1831.84 989.99 1999.58 994.84
00003242 00000109 1774.64 307.22 573.61 935.13 1856.82 637.48 2049.59 645.75 1811.70 800.20 1833.19 989.48 2001.46 995.10
00003243 00000110 1776.13 312.08 573.01 930.46 1858.48 635.12 2053.44 645.71 1813.76 799.43 1833.75 990.08 2002.72 997.36
00003244 00000111 1778.92 310.46 576.44 928.09 1860.52 634.63 2056.71 645.08 1815.69 800.02 1835.51 990.46 2004.74 997.52
00003245 00000112 1781.81 319.38 575.89 917.44 1861.57 634.86 2062.18 646.98 1820.36 801.52 1835.64 989.35 2010.84 997.54
00003246 00000113 1783.26 322.92 573.40 911.69 1861.85 635.73 2065.89 648.60 1824.97 802.04 1835.37 987.96 2013.30 996.72
00003247 00000114 1784.50 322.09 573.80 908.43 1861.78 637.92 2067.44 650.74 1826.80 802.87 1836.03 987.26 2014.48 996.02
00003248 00000115 1785.64 318.11 573.56 910.30 1862.37 638.45 2068.45 652.07 1828.84 801.98 1835.11 985.05 2013.15 994.51
00003249 00000116 1787.66 318.99 572.56 904.45 1862.73 636.68 2070.75 652.97 1832.74 803.75 1835.53 981.34 2016.20 992.68
00003250 00000117 1790.55 312.15 571.61 911.28 1862.10 636.77 2071.46 652.64 1837.07 805.21 1838.15 980.73 2020.81 992.10
00003251 00000118 1788.98 310.72 572.75 914.09 1859.59 638.02 2071.23 652.03 1836.41 806.72 1838.73 982.06 2023.69 991.82
00003252 00000119 1788.55 315.65 569.47 907.15 1857.80 640.70 2067.24 652.77 1834.74 808.68 1839.87 982.35 2022.18 990.60
00003253 00000120 1785.56 314.25 567.90 909.02 1853.55 644.10 2062.27 655.12 1831.19 813.43 1836.67 983.82 2016.76 991.12
00003254 00000121 1786.25 317.20 565.56 907.72 1852.75 647.64 2062.57 656.22 1836.27 815.78 1839.72 986.72 2020.86 992.49
00003255 00000122 1788.72 317.02 569.57 919.27 1851.81 651.71 2069.07 659.50 1845.33 820.86 1843.54 991.09 2035.84 996.06
00003256 00000123 1791.21 323.15 568.27 928.21 1852.37 655.69 2072.14 659.40 1853.98 828.70 1852.38 1004.56 2048.01 1007.02
00003257 00000124 1788.42 321.68 567.72 934.52 1850.70 652.74 2069.15 656.90 1849.95 829.44 1851.22 1006.83 2043.79 1009.93
00003258 00000125 1784.21 316.30 571.78 938.36 1847.99 651.17 2064.72 653.86 1841.48 826.02 1846.37 1005.23 2039.04 1007.05
00003259 00000126 1783.20 316.75 574.31 936.11 1845.63 651.17 2064.53 651.43 1842.04 824.59 1845.73 1005.74 2039.68 1005.70
00003260 00000127 1784.19 313.49 573.16 943.51 1845.36 652.59 2067.97 651.20 1849.46 825.60 1850.02 1007.62 2049.45 1006.58
00003261 00000128 1787.29 321.50 575.05 953.17 1850.72 657.32 2077.88 649.30 1862.09 823.81 1860.84 1015.76 2070.65 1008.83
00003262 DELETE   1789.70 318.02 574.14 962.14 1853.88 663.59 2090.49 644.70 1883.91 816.44 1870.90 1022.34 2091.11 1006.53
00003263 DELETE   1794.11 315.02 582.00 971.98 1862.64 673.49 2105.82 637.77 1912.91 816.93 1892.68 1026.93 2126.66 997.17
00003264 DELETE   1782.48 324.95 603.06 953.06 1861.56 686.12 2113.00 631.08 1926.42 817.56 1914.67 1035.63 2155.74 989.49
00003265 00000132 1791.60 337.88 581.52 933.47 1866.89 692.47 2120.89 625.28 1942.99 827.12 1923.98 1038.32 2167.23 983.09
00003266 DELETE   1767.26 338.36 589.40 942.51 1844.96 706.40 2100.48 630.56 1928.79 838.15 1912.89 1057.49 2169.24 994.43
00003267 DELETE   1732.07 351.26 590.12 963.47 1808.84 716.80 2066.01 644.39 1890.61 858.07 1892.73 1078.13 2136.47 1016.64
00003268 DELETE   1714.62 353.52 585.11 980.98 1782.34 734.67 2025.45 663.60 1842.33 881.13 1863.88 1101.77 2097.50 1045.20
00003269 00000136 1699.21 358.24 593.60 1011.61 1772.93 749.10 2009.36 672.06 1827.44 897.09 1859.73 1117.00 2086.16 1054.46
00003270 DELETE   1679.54 378.49 613.22 990.31 1768.55 772.08 2023.83 684.29 1861.86 919.00 1874.60 1130.10 2108.32 1059.15
00003271 00000138 1666.45 404.95 645.61 953.98 1772.45 777.22 2036.45 693.11 1883.36 937.61 1897.74 1141.13 2133.83 1065.16
00003272 DELETE   1654.46 394.75 637.09 962.09 1760.58 804.14 2029.30 705.75 1890.56 951.91 1883.99 1144.43 2125.68 1065.30
00003273 DELETE   1648.81 404.26 630.62 937.64 1751.82 797.54 2009.66 726.73 1861.53 961.65 1847.47 1146.47 2081.14 1089.20
00003274 00000141 1644.95 397.37 623.50 932.64 1741.73 786.44 2007.98 728.17 1847.90 961.76 1820.35 1124.92 2066.36 1078.68
00003275 00000142 1647.10 388.52 623.27 926.77 1742.18 779.35 2011.70 721.44 1854.67 955.82 1818.18 1119.67 2067.69 1074.07
00003276 00000143 1651.12 393.51 626.15 930.64 1746.94 782.40 2016.24 719.94 1862.52 961.48 1836.02 1122.30 2082.54 1072.20
00003277 00000144 1651.92 397.38 629.32 939.32 1750.00 785.08 2019.77 724.38 1863.87 969.13 1842.95 1128.98 2083.75 1080.56
00003278 00000145 1652.95 396.23 625.00 951.40 1750.43 784.12 2016.13 728.63 1854.54 970.71 1838.06 1131.51 2074.75 1087.20
00003279 00000146 1657.05 393.11 619.22 958.21 1752.61 782.26 2018.55 727.11 1855.54 968.42 1836.21 1131.86 2074.25 1087.88
00003280 00000147 1663.94 391.23 618.20 957.76 1759.29 782.35 2023.79 721.58 1862.11 961.11 1846.61 1127.59 2090.08 1079.46
00003281 00000148 1668.40 383.46 617.25 960.78 1764.66 778.82 2032.29 712.14 1875.97 954.18 1854.06 1128.83 2097.87 1076.91
00003282 00000149 1675.17 382.25 617.41 956.46 1768.38 770.61 2035.15 705.43 1873.96 943.51 1851.15 1121.05 2098.07 1069.77
00003283 00000150 1677.97 375.49 617.34 951.79 1770.37 763.41 2036.34 700.58 1873.78 934.69 1848.03 1113.38 2096.08 1064.26
00003284 00000151 1683.09 374.83 613.58 951.23 1773.64 758.87 2035.96 697.22 1870.15 928.03 1847.76 1106.97 2094.44 1058.54
00003285 00000152 1688.15 370.48 613.89 942.10 1778.15 754.63 2040.06 693.50 1876.88 920.08 1851.55 1099.40 2095.84 1052.03
00003286 00000153 1693.46 371.75 610.03 930.46 1782.28 752.53 2042.81 689.87 1882.73 916.84 1858.41 1097.58 2102.18 1049.15
00003287 00000154 1696.01 374.54 612.13 917.54 1785.00 748.87 2045.70 687.69 1886.89 911.84 1861.02 1095.50 2104.21 1048.55
00003288 00000155 1694.37 383.09 613.18 898.42 1783.81 747.86 2047.05 689.44 1883.32 911.81 1863.36 1088.19 2102.95 1040.02
00003289 00000156 1697.65 380.51 609.12 896.37 1786.82 745.75 2046.86 688.47 1883.79 908.99 1864.94 1084.55 2101.54 1037.30
00003290 00000157 1699.33 376.86 609.03 888.84 1789.94 743.33 2047.96 688.40 1885.83 908.88 1864.19 1082.37 2100.39 1037.19
00003291 00000158 1702.51 374.53 609.72 889.57 1792.50 744.99 2049.89 688.75 1888.02 908.21 1867.77 1083.48 2102.56 1037.68
00003292 00000159 1707.36 370.57 611.31 893.21 1797.20 743.08 2055.10 688.44 1893.39 908.63 1870.26 1084.49 2107.32 1040.17
