Video ID: 	-K1N3VahOqI
H: 	2160
W: 	3840
FPS: 	23.976023976023978

FRAME INDEX X0 Y0 W H [Landmarks (5 Points)]

00004902 00000000 2115.34 481.40 444.44 568.28 2174.46 642.13 2352.19 632.30 2213.26 770.52 2188.04 878.68 2350.04 868.01
00004903 DELETE   2115.82 478.78 443.60 572.00 2174.63 642.89 2352.47 632.31 2213.39 770.08 2188.47 881.67 2349.94 870.82
00004904 00000002 2114.36 482.31 447.14 566.76 2172.95 642.70 2351.91 630.41 2213.58 765.91 2187.36 879.18 2349.35 867.23
00004905 00000003 2117.31 478.93 442.91 563.44 2171.83 640.19 2353.78 625.24 2213.74 764.90 2189.13 875.30 2350.68 865.08
00004906 00000004 2117.26 479.61 443.34 566.15 2171.31 640.22 2353.29 625.88 2212.64 766.62 2190.05 876.68 2350.92 866.63
00004907 00000005 2114.73 481.83 445.84 568.13 2173.61 642.13 2351.89 631.49 2212.72 767.77 2186.35 879.38 2348.59 868.55
00004908 00000006 2113.72 481.08 445.70 568.44 2173.66 641.95 2352.32 632.08 2212.53 767.70 2186.19 879.29 2348.26 868.97
00004909 00000007 2113.08 481.95 447.78 565.48 2173.00 640.59 2352.29 630.01 2213.04 765.53 2187.13 877.24 2348.79 866.43
00004910 00000008 2118.14 479.18 442.71 564.20 2168.59 638.49 2358.20 634.15 2215.32 765.35 2185.82 869.37 2350.15 864.13
00004911 00000009 2117.35 478.96 443.74 565.59 2168.47 638.79 2358.38 635.06 2214.87 766.28 2186.12 869.23 2350.55 864.44
00004912 00000010 2113.36 481.55 446.98 565.47 2174.57 640.51 2353.14 631.18 2213.68 767.29 2187.77 875.07 2351.14 864.81
00004913 00000011 2113.66 481.63 447.15 565.18 2174.95 640.79 2353.07 632.78 2213.28 768.56 2188.12 874.73 2352.11 865.39
00004914 00000012 2113.56 479.69 447.29 567.03 2174.81 640.90 2352.83 633.03 2213.29 768.96 2187.93 874.67 2352.32 865.45
00004915 00000013 2112.77 479.86 447.89 566.91 2174.55 640.87 2352.94 632.34 2213.53 767.76 2187.68 874.62 2352.31 864.93
00004916 00000014 2112.99 480.03 447.26 564.73 2174.82 640.34 2352.74 631.30 2214.10 767.44 2187.27 873.77 2351.54 863.73
00004917 00000015 2113.14 479.40 446.67 563.66 2174.39 640.82 2352.56 631.15 2213.97 768.07 2186.88 873.22 2352.46 862.64
00004918 00000016 2117.01 477.67 442.66 562.29 2168.20 638.49 2358.44 635.10 2215.45 767.24 2185.06 866.83 2352.37 862.07
00004919 00000017 2117.28 477.54 442.47 561.20 2168.17 638.52 2358.00 634.41 2215.22 766.30 2185.17 866.86 2352.75 861.53
00004920 00000018 2117.17 476.66 442.46 562.03 2168.24 638.29 2357.83 634.27 2215.18 766.19 2185.21 866.58 2352.86 861.25
00004921 00000019 2117.07 477.20 442.34 561.75 2167.94 638.64 2357.74 634.27 2215.03 766.15 2185.11 866.88 2352.85 861.29
00004922 00000020 2112.96 479.38 446.65 561.40 2173.80 641.35 2351.80 630.04 2213.70 767.75 2186.69 873.66 2353.37 861.89
00004923 00000021 2112.82 479.92 446.87 560.62 2173.68 641.12 2351.88 629.61 2213.68 767.64 2186.79 873.90 2353.77 861.95
00004924 00000022 2116.87 477.79 443.17 561.65 2167.64 638.62 2357.35 633.24 2214.84 765.52 2185.21 867.99 2353.00 861.63
00004925 00000023 2112.07 480.83 448.14 561.22 2172.61 641.20 2351.25 628.46 2212.80 765.90 2186.34 874.95 2353.34 862.24
00004926 00000024 2112.11 481.34 447.72 560.60 2172.65 641.25 2350.94 628.40 2212.79 765.69 2186.33 875.17 2352.83 862.38
00004927 00000025 2112.10 481.43 447.90 560.42 2172.57 641.35 2350.77 628.24 2212.73 765.71 2186.37 875.30 2352.76 862.38
00004928 00000026 2112.08 481.30 448.52 560.73 2172.06 641.33 2351.11 628.08 2212.59 765.90 2185.88 875.34 2353.44 862.29
00004929 00000027 2112.01 481.34 448.61 560.59 2172.12 641.43 2351.33 628.18 2212.61 765.49 2186.07 875.20 2353.48 862.21
00004930 00000028 2116.68 480.39 444.28 560.12 2166.97 639.32 2356.81 632.81 2214.57 764.73 2185.36 868.55 2353.41 861.36
00004931 00000029 2117.59 478.26 443.51 562.24 2167.42 638.66 2356.87 632.18 2214.45 763.95 2185.84 868.17 2352.88 860.97
00004932 00000030 2113.91 480.91 447.11 560.56 2174.18 640.92 2351.63 627.76 2213.71 764.59 2187.47 874.60 2352.96 861.82
00004933 00000031 2117.96 478.46 442.93 560.99 2168.65 637.72 2357.25 632.15 2215.08 762.81 2186.68 866.08 2352.80 859.62
00004934 00000032 2118.93 477.81 442.39 561.76 2169.77 637.33 2357.10 631.86 2215.13 762.65 2187.18 865.77 2352.65 859.41
00004935 00000033 2119.07 479.14 442.78 559.45 2170.90 636.52 2357.70 630.53 2215.97 762.28 2187.67 865.97 2352.49 859.28
00004936 00000034 2120.41 477.89 441.46 561.38 2171.48 636.14 2357.80 629.38 2216.47 761.62 2188.03 866.11 2352.46 858.80
00004937 00000035 2118.97 482.28 439.74 553.74 2179.03 633.32 2350.70 622.54 2210.84 751.86 2187.62 866.88 2353.11 857.37
00004938 00000036 2121.72 475.58 440.18 562.69 2172.38 635.23 2358.35 627.92 2217.13 760.63 2188.25 866.38 2353.45 858.59
00004939 00000037 2119.67 480.33 439.06 555.01 2179.30 633.38 2350.86 621.68 2211.42 750.94 2188.19 867.52 2354.26 857.41
00004940 00000038 2119.61 479.99 438.84 555.53 2179.37 633.52 2350.76 621.62 2211.58 750.44 2188.25 867.49 2353.70 857.26
00004941 00000039 2120.27 478.99 438.33 556.62 2179.37 634.11 2351.10 620.76 2211.74 748.75 2188.25 868.21 2353.72 856.85
00004942 00000040 2121.18 471.84 440.31 567.37 2171.59 635.50 2358.18 626.37 2217.89 756.67 2189.38 866.75 2352.53 857.77
00004943 00000041 2120.63 472.55 440.19 565.48 2171.52 634.44 2358.08 625.25 2217.45 755.15 2189.08 866.34 2351.55 857.33
00004944 00000042 2121.19 473.45 440.08 565.06 2171.88 634.46 2357.68 625.06 2217.10 753.87 2189.78 865.59 2350.96 856.46
00004945 00000043 2120.74 471.42 440.02 566.41 2170.98 633.68 2356.95 624.13 2216.31 752.80 2189.49 865.14 2349.94 855.88
00004946 00000044 2121.01 471.49 439.61 566.25 2170.96 633.63 2356.66 623.80 2216.37 752.39 2189.40 864.93 2349.40 855.50
00004947 00000045 2121.39 469.81 438.73 567.81 2171.25 633.03 2356.59 623.70 2216.91 752.31 2189.73 864.97 2348.43 855.94
00004948 00000046 2121.72 470.33 438.94 567.47 2171.40 632.38 2356.04 623.14 2216.29 752.46 2189.60 865.40 2347.47 856.41
00004949 00000047 2120.92 469.27 439.41 568.44 2170.39 631.44 2355.86 622.42 2215.87 751.80 2188.92 865.31 2346.88 856.42
00004950 00000048 2120.51 468.18 439.80 569.46 2169.86 631.07 2355.85 621.68 2215.75 750.92 2188.33 865.07 2346.80 856.01
00004951 00000049 2120.46 468.23 438.88 568.39 2170.13 630.69 2355.69 621.26 2216.11 750.69 2188.28 864.76 2346.73 855.61
00004952 00000050 2120.53 466.47 438.62 569.23 2170.20 630.52 2356.06 621.16 2216.67 750.60 2188.60 864.41 2347.49 855.24
00004953 00000051 2120.66 466.18 438.63 569.30 2170.19 630.95 2356.29 621.23 2217.06 750.64 2188.99 864.70 2347.77 855.27
00004954 00000052 2121.11 465.82 438.37 570.19 2170.41 630.92 2356.49 621.24 2217.15 750.42 2188.96 864.57 2347.74 855.18
00004955 00000053 2120.89 465.73 438.29 569.36 2170.68 630.57 2356.67 621.30 2217.24 750.83 2189.05 864.43 2348.17 855.30
00004956 00000054 2120.84 465.51 438.07 568.70 2171.02 630.67 2357.10 621.46 2217.70 750.70 2189.14 864.09 2348.53 855.03
00004957 00000055 2120.90 465.74 437.84 568.57 2171.09 630.95 2357.20 621.74 2217.86 751.19 2189.27 864.19 2348.42 855.14
00004958 00000056 2120.62 466.06 438.61 568.61 2171.33 631.14 2357.59 621.97 2218.31 750.98 2189.21 864.10 2348.72 855.15
00004959 00000057 2121.65 465.84 438.09 568.44 2172.03 630.72 2357.94 622.02 2218.39 750.81 2189.36 864.00 2348.59 855.46
00004960 00000058 2121.50 465.80 438.49 568.95 2171.68 631.07 2357.55 621.73 2218.25 750.63 2189.60 864.07 2348.33 855.04
00004961 00000059 2121.67 466.46 438.55 568.37 2171.91 631.14 2357.38 621.59 2218.26 750.65 2189.90 864.17 2348.01 855.02
00004962 00000060 2121.33 465.73 438.68 568.38 2172.01 630.67 2357.81 621.34 2218.83 750.15 2189.53 863.79 2347.73 854.86
00004963 00000061 2121.66 465.66 438.64 568.43 2172.39 630.50 2357.97 621.28 2219.08 750.16 2190.00 863.48 2347.65 854.58
00004964 00000062 2121.45 465.27 438.41 568.49 2172.49 630.23 2358.16 621.25 2218.89 749.68 2190.10 863.29 2347.47 854.61
00004965 00000063 2121.58 464.46 438.24 569.58 2172.64 629.81 2358.08 620.63 2219.46 749.01 2190.44 862.97 2347.68 853.99
00004966 00000064 2121.32 462.42 438.77 571.72 2172.64 629.78 2358.47 620.43 2220.03 748.41 2190.88 863.14 2347.48 854.03
00004967 00000065 2121.11 462.80 439.29 570.54 2172.59 629.55 2358.57 620.01 2220.29 748.40 2190.85 862.81 2347.60 853.63
00004968 00000066 2121.64 461.23 438.75 572.05 2172.60 629.07 2358.93 619.53 2220.30 748.10 2190.75 863.12 2348.03 853.81
00004969 00000067 2121.18 462.26 439.15 570.54 2172.42 629.09 2358.68 619.22 2220.47 748.13 2190.88 862.63 2347.90 853.16
00004970 00000068 2121.52 461.70 438.59 570.72 2172.65 628.55 2358.51 618.98 2220.40 747.94 2190.83 861.97 2348.26 852.66
00004971 00000069 2121.32 461.68 438.72 570.71 2172.57 628.49 2358.32 618.78 2220.18 747.98 2190.99 862.03 2348.28 852.53
00004972 00000070 2120.54 461.22 439.25 570.65 2172.15 628.45 2358.36 618.82 2220.21 747.55 2190.74 861.75 2347.89 852.39
00004973 00000071 2120.10 461.25 439.44 570.99 2171.94 628.13 2358.41 618.74 2219.89 747.07 2190.24 861.61 2347.42 852.52
00004974 00000072 2119.71 460.24 439.35 572.42 2171.57 627.87 2357.93 618.82 2219.27 746.96 2189.55 861.05 2347.03 852.28
00004975 00000073 2119.65 458.75 439.70 573.77 2171.07 627.11 2357.98 617.97 2219.06 746.05 2188.89 861.15 2346.71 852.43
00004976 00000074 2119.34 458.39 440.00 574.27 2170.98 626.79 2358.08 617.85 2218.95 746.01 2188.50 861.07 2346.71 852.51
00004977 00000075 2120.12 457.64 439.68 574.36 2171.32 626.27 2358.24 617.40 2218.98 745.61 2188.46 860.64 2346.74 852.16
00004978 00000076 2119.80 458.44 440.44 572.50 2170.79 626.11 2358.25 616.45 2219.05 744.94 2188.08 860.47 2347.17 851.43
00004979 00000077 2120.59 457.74 440.89 572.61 2171.53 625.78 2358.54 615.42 2219.81 744.61 2188.84 860.62 2347.69 851.03
00004980 00000078 2120.49 457.20 441.08 573.84 2171.62 626.14 2358.53 614.96 2219.93 744.14 2190.11 860.94 2348.02 850.57
00004981 00000079 2121.51 456.19 440.43 573.59 2172.83 626.21 2359.81 614.98 2221.34 743.40 2191.15 860.54 2348.75 850.16
00004982 00000080 2122.63 456.51 439.71 573.07 2173.97 626.12 2360.89 615.04 2221.84 742.91 2191.59 860.57 2348.85 850.40
00004983 00000081 2122.88 456.39 440.06 571.88 2174.02 625.82 2360.19 614.37 2221.57 742.50 2191.29 859.73 2348.62 849.36
00004984 00000082 2122.84 456.98 440.48 571.48 2173.85 626.23 2359.74 614.41 2221.05 742.10 2191.22 860.02 2348.44 849.50
00004985 00000083 2122.49 457.26 440.93 570.87 2173.65 625.95 2359.37 613.91 2220.72 741.47 2191.41 859.61 2348.38 848.95
00004986 00000084 2122.35 456.15 442.72 576.15 2174.03 626.22 2357.93 614.28 2220.11 741.68 2193.25 860.39 2347.53 849.73
00004987 00000085 2128.12 453.13 441.21 588.64 2177.46 624.94 2356.70 614.56 2219.71 741.67 2194.03 864.61 2340.52 855.62
00004988 00000086 2127.67 452.82 446.35 591.74 2174.14 641.08 2361.59 624.26 2223.66 740.81 2195.74 871.42 2343.01 859.40
00004989 00000087 2129.05 459.00 443.94 588.26 2176.07 643.66 2363.77 624.69 2227.63 741.67 2199.47 872.50 2348.91 858.34
00004990 00000088 2127.78 463.65 444.24 588.13 2177.15 646.89 2367.32 625.37 2232.16 744.63 2205.06 875.10 2359.90 857.88
00004991 00000089 2121.88 481.19 447.41 575.83 2182.23 651.13 2367.40 620.92 2230.97 744.82 2210.58 880.16 2369.31 856.05
00004992 00000090 2120.16 488.71 444.55 574.59 2178.58 658.95 2363.83 623.99 2226.94 752.41 2209.32 886.33 2370.97 857.81
00004993 DELETE   2116.97 488.55 443.06 583.99 2172.24 659.05 2353.31 626.58 2215.87 765.39 2206.44 889.97 2365.36 862.44
00004994 DELETE   2113.02 484.63 439.22 588.26 2164.44 658.53 2345.38 626.82 2206.19 767.73 2196.76 892.52 2354.56 865.87
00004995 DELETE   2111.28 480.43 437.40 588.37 2161.43 654.14 2340.86 626.22 2202.12 766.81 2188.00 892.45 2344.97 869.84
00004996 00000094 2108.14 473.36 439.43 578.43 2151.88 653.57 2335.24 634.62 2200.33 766.95 2184.92 883.69 2333.00 867.45
00004997 DELETE   2105.58 472.43 441.65 573.65 2150.70 647.02 2335.09 631.59 2198.90 764.96 2181.36 879.40 2330.33 865.78
00004998 00000096 2103.44 468.11 442.33 577.69 2149.64 647.23 2333.89 630.55 2198.87 763.89 2181.58 880.43 2329.42 866.05
00004999 00000097 2103.27 468.95 442.20 577.95 2149.21 648.87 2333.27 629.72 2198.92 764.12 2183.39 881.69 2331.14 865.23
00005000 00000098 2102.38 473.10 443.42 575.01 2148.58 646.94 2332.81 628.07 2197.10 764.86 2182.60 882.26 2332.70 865.70
00005001 00000099 2100.36 473.01 444.25 572.75 2146.57 646.01 2331.71 627.94 2195.50 765.62 2180.14 882.08 2330.34 866.21
00005002 00000100 2100.47 472.92 447.22 578.26 2150.62 649.20 2330.32 625.19 2197.37 766.89 2181.19 889.48 2333.06 868.59
00005003 00000101 2099.96 473.02 447.87 584.69 2148.65 650.77 2327.54 625.90 2194.53 766.02 2181.36 890.84 2332.60 869.17
00005004 00000102 2097.99 473.41 449.72 589.96 2148.66 650.41 2326.43 627.03 2192.32 766.40 2181.98 895.47 2329.23 875.16
00005005 00000103 2097.57 470.82 451.34 594.25 2148.45 650.96 2325.85 627.66 2191.42 767.26 2182.46 896.43 2330.56 876.03
00005006 00000104 2098.64 472.66 448.64 590.13 2148.11 650.85 2325.65 627.96 2191.18 767.92 2181.70 895.28 2330.04 875.12
00005007 00000105 2099.17 473.31 444.14 579.12 2143.88 648.51 2327.56 632.74 2188.58 767.88 2176.07 883.58 2325.47 869.68
00005008 00000106 2099.66 470.94 443.87 579.00 2143.83 648.84 2327.52 634.00 2188.95 767.73 2173.84 884.04 2321.23 871.61
00005009 00000107 2101.48 468.30 447.33 585.50 2150.37 649.34 2327.95 630.00 2192.75 766.59 2176.81 890.37 2324.72 873.79
00005010 00000108 2102.08 469.47 448.24 584.79 2152.68 647.45 2328.41 628.71 2193.75 765.32 2179.15 889.17 2326.49 872.95
00005011 00000109 2104.81 474.36 447.94 584.61 2157.01 644.49 2329.92 626.14 2194.23 760.48 2180.60 890.96 2323.64 875.51
00005012 00000110 2104.86 473.11 449.22 590.48 2158.31 643.31 2330.55 625.31 2194.05 761.80 2182.06 891.16 2329.10 875.38
00005013 00000111 2105.48 469.14 448.83 595.22 2159.83 642.98 2332.21 626.20 2194.56 762.13 2184.02 889.62 2330.49 874.75
00005014 00000112 2107.72 469.15 446.92 591.31 2161.30 640.61 2332.74 626.43 2193.28 762.27 2181.32 884.86 2328.87 872.06
00005015 00000113 2113.29 464.36 439.31 585.56 2156.51 643.43 2337.11 633.60 2197.51 763.46 2181.03 880.14 2324.72 871.70
00005016 00000114 2113.13 464.06 438.62 582.00 2156.21 641.42 2337.78 633.36 2196.40 763.74 2178.16 878.02 2324.26 870.95
00005017 00000115 2113.71 466.86 438.24 578.21 2157.02 640.80 2338.04 633.19 2196.54 763.89 2178.22 877.79 2323.71 871.15
00005018 00000116 2114.42 465.54 438.20 578.91 2157.49 639.91 2337.75 632.56 2196.71 763.00 2177.99 877.28 2323.02 870.91
00005019 00000117 2115.06 468.11 437.94 582.63 2158.01 641.24 2337.83 631.76 2197.04 761.29 2180.40 878.10 2325.73 869.87
00005020 00000118 2109.24 468.98 445.72 592.20 2163.94 639.03 2333.50 625.64 2195.54 759.32 2181.71 887.31 2327.19 875.65
00005021 00000119 2108.96 468.39 445.93 595.84 2162.87 641.55 2331.66 627.60 2194.50 760.84 2183.57 888.49 2327.52 876.03
00005022 00000120 2107.19 470.27 447.85 595.88 2158.70 646.07 2329.49 630.24 2193.75 765.22 2183.30 890.93 2329.57 876.59
00005023 00000121 2105.11 465.29 449.14 598.77 2155.91 647.71 2328.81 633.86 2191.81 770.17 2180.46 891.81 2329.15 878.94
00005024 00000122 2105.62 467.77 447.25 590.51 2149.81 651.58 2332.06 640.19 2191.59 773.73 2179.81 888.41 2325.75 878.29
00005025 00000123 2105.45 470.26 445.94 581.61 2149.05 652.12 2331.57 641.26 2190.97 774.66 2178.88 886.68 2326.20 877.09
00005026 00000124 2104.34 467.26 447.03 584.87 2147.81 653.50 2331.73 641.21 2190.84 775.71 2178.83 888.56 2327.40 877.80
00005027 00000125 2103.47 463.71 447.31 588.47 2146.67 655.13 2330.77 642.14 2190.05 777.28 2178.51 890.10 2327.14 878.77
00005028 00000126 2103.24 464.22 446.80 588.80 2146.29 655.22 2330.04 642.07 2189.37 777.64 2177.95 890.48 2326.51 878.93
00005029 00000127 2103.41 466.28 446.42 586.86 2146.95 654.36 2330.00 642.65 2188.98 778.84 2177.51 889.86 2326.04 879.31
00005030 00000128 2103.10 466.27 446.98 587.08 2146.54 654.68 2329.89 642.47 2189.31 778.27 2177.57 890.20 2325.45 879.38
00005031 00000129 2102.84 466.09 447.74 588.44 2147.03 654.61 2330.50 642.52 2189.94 778.48 2177.62 890.70 2325.34 879.99
00005032 00000130 2101.26 462.53 451.75 593.03 2151.22 652.80 2328.58 638.78 2190.22 777.79 2177.32 894.85 2329.14 881.68
00005033 00000131 2103.09 463.39 447.89 590.33 2147.25 654.94 2330.75 643.04 2190.37 779.09 2178.08 891.19 2324.81 880.78
00005034 00000132 2101.45 462.24 451.99 591.73 2152.25 652.67 2329.16 638.50 2191.83 777.46 2177.15 895.31 2328.90 882.24
00005035 00000133 2104.00 466.18 447.22 585.94 2148.08 652.18 2331.99 641.47 2190.66 776.62 2176.92 888.57 2324.82 879.18
00005036 00000134 2105.11 466.91 447.44 586.97 2148.77 650.83 2332.95 640.76 2191.55 775.38 2177.21 887.82 2325.65 878.85
00005037 00000135 2108.26 468.10 445.28 592.43 2150.62 650.90 2332.88 639.37 2193.36 770.66 2177.03 890.00 2321.50 880.53
00005038 00000136 2104.44 467.24 451.04 605.03 2155.96 647.85 2329.99 632.46 2192.87 769.48 2180.83 897.33 2331.37 883.24
00005039 00000137 2105.42 472.05 451.76 606.15 2158.95 646.76 2331.73 630.11 2193.87 768.48 2184.74 897.50 2336.97 881.83
00005040 00000138 2113.07 484.40 441.75 604.34 2163.14 645.62 2340.86 627.99 2195.56 765.67 2187.47 892.27 2344.75 878.64
00005041 00000139 2116.34 488.86 439.51 598.24 2167.05 643.09 2344.68 626.88 2198.69 764.06 2189.79 889.37 2347.06 876.97
00005042 00000140 2120.03 489.22 436.22 587.71 2169.64 641.54 2344.80 627.81 2199.64 762.78 2188.94 885.51 2342.69 875.52
00005043 00000141 2122.96 479.91 437.41 579.62 2168.17 640.43 2342.59 635.73 2204.27 760.39 2185.01 874.09 2329.34 869.84
00005044 00000142 2125.56 478.21 435.89 559.96 2169.59 639.27 2348.38 633.07 2212.28 757.88 2186.51 867.05 2335.37 861.90
00005045 00000143 2126.18 472.72 437.56 561.61 2171.33 635.78 2351.43 629.55 2214.66 754.70 2186.74 863.42 2339.93 857.87
00005046 00000144 2129.48 467.35 437.40 568.04 2174.29 635.86 2352.29 628.67 2215.94 753.63 2190.49 865.56 2339.87 859.44
00005047 00000145 2134.48 460.58 435.38 571.68 2178.98 638.40 2360.52 634.73 2223.15 755.34 2191.53 864.51 2342.15 861.21
00005048 00000146 2139.48 460.92 432.77 573.55 2181.88 639.61 2366.96 635.66 2228.78 755.61 2194.95 865.20 2345.22 862.07
00005049 00000147 2139.14 471.36 439.21 572.12 2192.82 641.07 2362.85 631.61 2230.33 754.29 2199.40 871.26 2349.29 864.01
00005050 00000148 2143.45 473.67 438.40 581.51 2199.15 639.08 2367.15 630.65 2234.43 752.56 2205.12 873.25 2359.02 866.37
00005051 00000149 2146.04 480.25 439.06 583.68 2196.08 634.91 2373.76 625.68 2230.61 754.61 2208.64 875.96 2366.00 872.87
00005052 00000150 2146.58 481.04 439.75 583.51 2198.28 633.30 2377.50 625.27 2234.09 753.40 2210.65 874.76 2369.02 872.63
00005053 00000151 2147.22 483.27 440.18 573.87 2200.26 631.94 2379.18 624.48 2236.25 750.66 2211.09 869.48 2366.60 868.53
00005054 00000152 2146.39 482.03 441.77 557.30 2203.38 637.11 2375.25 630.84 2243.26 749.07 2210.35 865.11 2363.83 860.26
00005055 00000153 2147.95 475.64 442.87 552.56 2203.69 634.56 2376.44 627.37 2244.24 748.31 2212.67 860.62 2366.69 854.82
00005056 00000154 2149.10 468.86 444.95 557.60 2203.98 632.81 2378.81 625.83 2245.36 746.23 2213.82 860.34 2367.27 855.19
00005057 DELETE   2150.30 466.13 445.40 565.26 2207.59 630.02 2381.85 625.56 2246.41 743.84 2213.48 860.71 2364.01 857.28
00005058 00000156 2151.95 458.70 446.08 574.24 2208.46 630.21 2384.42 626.29 2248.57 742.76 2215.20 860.98 2364.77 858.14
00005059 00000157 2151.70 459.29 447.92 575.30 2209.33 630.78 2387.02 627.83 2251.56 742.73 2215.91 859.70 2364.87 857.52
00005060 00000158 2152.74 459.67 448.99 577.92 2212.15 631.41 2389.59 629.15 2254.04 741.51 2218.89 862.49 2366.60 861.15
00005061 00000159 2154.95 458.41 446.25 575.60 2212.43 633.50 2391.04 629.31 2255.69 743.38 2219.26 863.36 2372.18 860.17
00005062 DELETE   2154.81 460.01 448.90 578.98 2214.49 633.33 2393.20 630.22 2257.43 744.22 2219.33 865.28 2372.97 862.82
00005063 00000161 2154.86 461.86 448.76 580.41 2216.59 634.36 2395.13 630.61 2259.19 742.84 2221.20 864.46 2377.55 861.71
00005064 00000162 2157.29 469.52 446.73 587.92 2215.91 629.23 2404.33 626.43 2258.35 747.49 2224.73 872.30 2383.35 876.06
