Video ID: 	DHt3OgN0LnM
H: 	1080
W: 	1920
FPS: 	25.0

FRAME INDEX X0 Y0 W H [Landmarks (5 Points)]

00003421 00000000 761.53 103.96 533.20 694.79 843.31 365.73 1082.09 365.80 891.24 431.78 826.71 591.48 1054.46 590.62
00003422 00000001 768.40 89.32 529.67 705.86 845.48 356.66 1083.25 353.87 889.90 420.79 828.29 581.34 1063.38 578.92
00003423 00000002 770.70 88.79 529.85 703.00 848.14 357.05 1085.91 352.49 892.69 420.25 831.57 580.34 1067.01 576.70
00003424 00000003 773.12 84.42 525.51 709.09 851.46 355.96 1084.29 353.76 893.66 423.81 835.01 580.21 1063.39 578.28
00003425 00000004 776.64 94.20 519.26 698.71 853.59 360.64 1079.06 360.10 893.01 435.13 840.14 585.67 1049.61 585.11
00003426 00000005 771.39 105.38 524.63 703.32 853.08 363.66 1078.18 371.75 896.17 453.27 843.82 597.52 1039.53 604.95
00003427 00000006 775.85 106.12 521.93 707.50 857.24 370.66 1072.95 375.80 895.34 463.91 850.57 610.83 1032.82 616.44
00003428 00000007 782.47 111.80 516.56 709.76 860.68 379.80 1073.78 382.28 898.65 474.37 857.29 624.29 1032.53 627.99
00003429 00000008 788.00 111.02 514.62 728.45 865.57 388.56 1079.17 389.49 900.17 487.02 858.62 640.72 1033.66 643.37
00003430 DELETE   785.45 133.96 520.60 760.76 855.52 408.97 1081.38 408.38 897.60 518.96 856.39 681.19 1044.53 682.37
00003431 DELETE   778.11 154.27 519.66 767.62 851.95 429.55 1077.22 431.67 898.58 548.81 855.68 701.60 1062.48 703.73
00003432 00000011 774.72 165.91 515.77 765.30 847.51 448.52 1068.27 450.44 892.64 573.75 849.71 707.65 1070.55 708.94
00003433 00000012 769.60 174.28 523.17 760.97 845.01 459.39 1066.78 463.65 893.35 589.39 846.92 705.35 1081.60 707.31
00003434 00000013 771.10 184.53 523.69 747.64 845.36 464.11 1068.53 467.61 895.85 593.14 846.02 702.91 1087.05 703.70
00003435 00000014 775.32 186.96 520.70 742.51 849.38 464.56 1071.74 470.71 900.20 594.71 846.40 698.80 1090.18 701.70
00003436 00000015 778.88 188.04 516.30 731.26 852.08 462.06 1073.14 471.20 902.77 593.24 849.08 694.51 1087.92 700.22
00003437 00000016 779.67 186.29 515.65 720.58 854.97 460.30 1074.82 473.01 906.01 591.21 853.08 690.07 1082.46 699.34
00003438 00000017 782.80 185.49 514.03 721.23 857.56 458.61 1076.18 475.74 905.81 590.48 853.57 694.12 1071.41 708.14
00003439 00000018 786.58 180.12 513.67 731.82 860.58 454.93 1079.57 474.44 905.81 589.86 857.23 704.16 1056.31 721.35
00003440 00000019 790.57 170.83 509.22 733.85 862.50 448.71 1081.94 467.07 907.76 583.83 859.28 703.79 1045.66 720.92
00003441 00000020 792.98 163.02 509.88 730.97 862.39 440.80 1081.37 456.94 903.73 571.29 859.56 700.97 1039.30 716.37
00003442 00000021 792.23 159.54 512.23 731.20 859.53 438.35 1077.41 450.58 900.01 562.10 856.74 699.92 1032.96 712.11
00003443 00000022 789.03 157.47 511.85 729.42 857.46 432.94 1074.02 446.66 896.78 553.73 853.35 690.76 1029.80 704.23
00003444 00000023 788.42 157.69 512.02 720.73 853.42 428.61 1072.46 438.94 894.46 545.35 849.94 686.44 1029.77 697.16
00003445 00000024 786.13 155.92 513.29 718.16 850.41 424.88 1072.57 433.94 891.16 539.87 847.53 680.63 1036.82 690.00
00003446 00000025 788.02 151.20 507.58 711.36 850.63 418.56 1073.65 427.12 893.21 536.32 848.08 670.39 1048.75 679.22
00003447 00000026 795.11 148.57 504.68 708.06 854.32 418.00 1077.31 423.15 898.50 534.24 853.64 663.93 1058.77 670.29
00003448 00000027 800.77 149.60 508.36 709.15 864.45 416.17 1086.01 426.88 908.73 533.36 859.12 661.64 1059.63 672.61
00003449 00000028 808.40 149.80 508.80 706.64 870.27 426.07 1094.00 434.81 919.01 532.83 866.56 669.96 1056.55 679.48
00003450 00000029 816.37 149.33 506.31 713.81 878.34 421.98 1104.26 436.64 925.57 534.51 869.72 670.28 1057.00 684.85
00003451 00000030 812.02 155.71 516.41 712.06 890.98 417.97 1115.43 436.50 938.57 529.44 879.03 672.50 1060.11 690.16
00003452 00000031 816.54 155.43 512.81 707.54 898.25 413.18 1124.66 433.98 946.07 522.25 883.09 667.15 1062.45 686.94
00003453 00000032 815.52 152.94 515.09 696.22 901.72 401.58 1133.34 430.41 953.78 512.74 880.86 654.35 1062.84 681.14
00003454 00000033 816.28 148.02 514.01 694.36 908.88 389.25 1141.02 426.31 964.62 505.94 881.07 642.00 1061.70 675.77
00003455 00000034 818.85 148.56 513.23 688.62 916.58 384.59 1145.20 425.18 970.31 498.68 883.97 635.06 1058.22 671.93
00003456 00000035 820.54 146.17 517.41 695.18 923.04 380.32 1148.94 424.27 971.93 492.84 885.24 631.40 1057.10 671.39
00003457 00000036 822.07 143.38 520.09 706.08 929.23 377.23 1153.92 422.76 975.25 485.49 887.16 630.05 1060.22 671.62
00003458 00000037 818.52 137.32 528.26 734.53 934.47 373.81 1159.06 417.75 974.13 477.88 887.00 635.18 1062.90 675.50
00003459 00000038 813.28 135.27 532.47 745.14 932.68 370.43 1162.92 417.62 972.17 472.13 879.46 632.40 1066.31 675.31
00003460 00000039 807.56 136.63 536.76 744.55 932.46 367.33 1163.08 420.31 967.52 469.49 871.82 627.37 1062.95 675.17
00003461 00000040 805.15 141.25 539.85 736.61 929.25 370.23 1164.24 427.20 965.99 474.19 864.01 627.56 1063.01 678.57
00003462 00000041 808.29 144.68 538.15 731.70 927.01 369.93 1161.04 434.34 960.56 482.46 864.62 626.63 1063.22 682.95
00003463 00000042 802.22 145.61 541.67 722.35 925.84 370.30 1160.05 436.68 963.32 479.26 858.03 621.34 1057.40 680.26
00003464 00000043 796.49 149.04 539.66 711.26 924.34 366.75 1144.43 444.86 944.67 481.21 854.86 610.76 1036.59 678.89
00003465 00000044 790.97 139.94 537.82 703.83 919.84 365.29 1133.91 444.95 927.04 485.15 846.90 608.39 1014.80 675.66
00003466 00000045 784.59 147.80 542.25 697.49 917.30 371.33 1128.56 446.61 919.32 486.41 840.93 613.27 1002.20 677.21
00003467 00000046 775.10 160.41 546.03 697.41 910.11 372.05 1120.67 460.15 915.93 497.61 836.31 611.87 1001.61 688.18
00003468 00000047 765.39 159.96 551.22 703.69 902.36 374.23 1114.88 465.23 910.45 505.09 825.84 615.77 990.95 694.46
00003469 00000048 761.87 161.03 549.17 702.41 899.20 372.84 1111.73 463.87 908.09 502.84 819.12 615.99 984.09 694.90
00003470 00000049 759.60 158.10 547.59 696.55 895.34 366.61 1108.53 462.51 905.40 495.76 814.51 604.57 984.27 687.60
00003471 00000050 752.85 150.95 549.13 699.72 889.85 361.75 1105.89 452.35 905.63 483.74 809.73 601.42 984.53 680.88
00003472 00000051 741.52 145.00 558.00 704.19 880.88 355.42 1101.59 447.81 899.04 475.52 798.95 594.91 981.03 675.96
00003473 00000052 727.10 140.24 565.88 709.19 864.61 354.32 1093.94 435.99 889.65 466.70 788.00 597.55 980.82 669.47
00003474 00000053 721.59 134.66 562.13 709.06 855.67 350.13 1084.22 428.22 880.94 462.50 783.57 593.52 978.44 661.78
00003475 00000054 713.27 132.68 558.53 702.18 849.07 347.73 1073.42 431.67 858.12 469.43 773.39 590.86 966.10 660.99
00003476 00000055 704.13 129.37 559.30 705.98 830.01 352.64 1062.48 427.81 851.67 462.81 760.80 593.70 964.17 658.87
00003477 00000056 697.36 125.17 556.70 724.93 820.71 351.39 1052.62 419.90 839.98 463.37 753.03 603.53 956.61 663.38
00003478 00000057 692.48 130.97 550.62 729.35 815.31 354.02 1045.40 421.75 833.91 468.61 746.68 609.11 952.73 668.51
00003479 00000058 691.49 129.70 541.30 725.81 805.71 351.49 1039.08 416.52 828.38 466.70 740.77 606.78 951.99 663.92
00003480 00000059 691.73 124.62 540.48 724.47 810.93 349.56 1037.14 413.40 823.92 470.23 742.63 604.37 948.70 658.03
00003481 00000060 697.65 125.68 541.56 717.01 816.51 351.01 1041.89 414.86 829.15 473.63 750.41 603.60 954.44 657.13
00003482 00000061 702.67 123.61 541.33 718.57 820.17 355.32 1045.35 416.68 833.12 473.80 754.67 606.65 952.84 658.56
00003483 00000062 710.15 127.16 539.77 713.93 829.12 356.32 1052.03 416.58 837.99 474.76 761.31 611.59 944.08 663.19
00003484 00000063 711.14 131.52 542.27 724.54 832.57 353.55 1045.95 415.50 838.50 473.27 768.95 618.18 944.28 671.97
00003485 00000064 726.41 136.05 531.22 712.68 841.02 361.02 1058.88 417.12 850.39 475.74 775.58 618.51 945.04 667.16
00003486 00000065 734.60 136.97 525.86 709.10 847.45 359.90 1061.04 416.00 854.00 472.65 783.86 614.36 950.36 662.97
00003487 00000066 737.64 135.89 522.12 703.38 848.15 357.82 1061.35 416.06 856.90 472.43 785.70 608.03 955.62 658.39
00003488 00000067 737.22 139.97 523.69 689.46 844.60 358.99 1063.56 416.72 869.29 465.48 789.38 602.05 962.96 652.79
00003489 00000068 736.81 140.70 523.61 687.65 841.15 365.48 1063.96 417.24 873.01 469.06 793.45 606.81 969.94 652.82
00003490 00000069 733.42 145.03 529.12 689.34 838.27 377.89 1067.93 424.24 880.83 476.69 795.90 619.71 977.78 661.49
00003491 00000070 733.68 149.60 533.49 702.86 842.03 384.15 1075.35 426.60 885.46 483.96 800.79 629.48 989.11 667.99
00003492 00000071 737.83 148.84 529.43 707.47 840.28 383.80 1076.26 422.18 884.06 487.87 802.00 635.90 998.17 670.55
00003493 00000072 740.84 149.92 524.25 712.62 840.88 386.71 1074.81 421.19 882.00 492.75 804.75 641.94 1002.26 673.05
00003494 00000073 741.95 152.42 522.44 712.26 841.91 387.79 1073.83 425.77 883.86 501.43 807.51 643.40 1001.54 677.25
00003495 00000074 746.55 152.66 516.71 704.31 841.15 389.66 1071.44 429.48 883.66 508.16 808.69 642.09 999.35 677.38
00003496 00000075 746.40 155.27 517.74 704.30 841.25 392.91 1070.82 430.63 884.13 511.65 811.07 646.52 998.49 680.13
00003497 00000076 744.48 160.77 522.19 704.79 835.07 412.04 1065.93 442.86 880.38 518.00 810.00 659.05 1000.31 686.61
00003498 00000077 739.63 162.92 525.31 707.18 834.08 414.69 1064.19 445.42 878.95 519.05 808.79 659.80 1001.97 686.97
00003499 00000078 742.55 159.61 516.59 711.46 830.10 413.40 1061.54 445.00 875.48 522.74 807.16 659.12 999.69 686.58
00003500 00000079 738.97 161.59 514.93 713.11 828.13 414.93 1059.63 446.76 875.51 525.49 805.32 659.07 999.72 686.69
00003501 00000080 737.16 163.97 514.82 717.37 828.72 417.98 1057.66 449.60 874.82 534.78 805.85 665.96 997.72 693.58
00003502 00000081 737.41 171.48 510.81 713.49 829.97 427.15 1059.33 461.60 881.97 550.22 806.79 673.64 999.37 703.69
00003503 00000082 738.70 176.91 510.55 713.29 831.88 434.46 1064.95 468.75 888.79 557.80 808.98 684.77 1003.71 715.00
00003504 00000083 741.72 181.63 511.93 717.91 837.44 445.47 1075.72 476.18 899.84 567.03 816.11 697.39 1014.68 724.73
00003505 00000084 748.40 185.24 514.74 724.49 845.64 449.84 1084.44 482.56 908.56 577.46 826.19 703.62 1025.35 732.49
00003506 00000085 752.02 201.19 519.22 713.65 851.05 459.19 1095.41 492.81 924.18 587.10 832.92 712.62 1039.51 742.65
00003507 00000086 758.64 200.65 522.51 713.10 860.77 468.37 1101.89 495.48 934.80 599.57 845.25 718.62 1050.75 742.65
00003508 00000087 761.22 205.14 522.78 714.87 864.30 477.35 1107.56 502.80 943.60 610.83 852.72 726.43 1060.58 749.02
00003509 00000088 762.70 209.46 525.08 716.33 867.13 482.91 1115.90 510.78 951.32 622.96 856.99 734.37 1070.62 758.76
00003510 00000089 761.87 211.32 529.95 718.97 869.71 486.82 1122.83 515.66 958.71 631.23 860.27 740.88 1076.94 766.02
00003511 00000090 762.73 215.87 530.97 713.68 874.63 487.00 1129.60 514.83 968.22 628.71 866.50 740.49 1084.67 764.36
00003512 00000091 764.07 209.80 534.36 720.37 881.21 482.94 1137.01 509.22 976.84 624.72 873.09 737.32 1093.40 759.57
00003513 00000092 769.25 203.04 533.92 726.49 887.72 477.02 1142.44 502.26 983.03 616.44 878.99 731.02 1098.40 752.40
00003514 00000093 776.58 196.08 531.75 735.27 894.86 473.17 1149.79 495.07 990.43 610.17 886.47 729.66 1108.57 748.08
00003515 00000094 790.08 197.45 526.11 735.83 904.55 472.91 1157.37 491.81 996.83 605.62 894.42 729.20 1117.96 745.40
00003516 00000095 798.60 191.62 528.16 744.85 913.62 468.63 1166.69 485.84 1006.31 601.70 903.88 729.46 1129.36 744.25
00003517 00000096 808.51 191.49 523.56 744.17 921.95 466.92 1171.45 483.45 1011.70 596.69 911.54 726.07 1134.52 740.26
00003518 00000097 808.61 184.88 531.28 750.84 926.76 462.66 1176.60 480.13 1016.97 593.87 916.96 723.14 1140.67 737.81
00003519 00000098 809.29 180.55 537.73 763.85 930.70 460.10 1179.32 486.25 1022.85 591.12 917.43 720.41 1145.09 742.53
00003520 00000099 812.96 180.67 536.98 765.97 931.82 461.41 1179.00 487.67 1020.21 592.54 918.27 721.35 1145.23 743.54
00003521 00000100 811.79 180.36 536.76 769.67 927.32 464.27 1173.08 490.43 1012.53 591.91 914.60 721.86 1142.48 744.13
00003522 00000101 810.05 182.00 534.41 770.11 915.12 469.62 1158.41 490.38 993.70 592.83 906.52 727.89 1132.15 746.05
00003523 00000102 806.73 179.26 528.46 769.36 900.56 468.22 1143.92 486.36 975.42 593.99 895.79 729.51 1122.70 745.41
00003524 00000103 808.29 192.72 516.86 761.93 894.90 475.34 1134.54 489.61 957.51 603.52 888.15 735.10 1102.59 747.41
00003525 00000104 797.62 199.42 523.95 757.21 883.36 477.13 1119.90 489.07 943.24 603.36 877.08 734.83 1095.15 745.22
00003526 00000105 791.61 202.20 522.20 757.29 873.87 481.51 1109.26 494.71 931.53 611.34 869.09 737.77 1090.94 748.95
00003527 00000106 781.21 208.61 518.86 754.38 860.90 493.76 1093.70 503.81 919.48 618.68 858.78 744.67 1085.13 752.77
00003528 00000107 770.79 208.17 519.22 755.54 847.46 497.26 1077.33 508.96 904.42 629.54 850.27 744.07 1075.22 753.10
00003529 DELETE   761.28 206.55 525.87 750.68 831.85 505.60 1069.85 510.90 895.81 635.66 843.40 749.09 1073.27 751.82
00003530 00000109 754.75 213.62 525.85 744.38 823.76 511.91 1057.74 517.36 884.89 646.90 838.64 754.79 1061.30 757.38
00003531 00000110 740.98 223.93 531.09 738.79 820.08 511.92 1047.13 525.50 876.38 658.66 827.18 761.37 1034.39 772.97
00003532 00000111 744.76 229.84 521.62 752.14 809.72 515.70 1032.66 532.67 856.43 667.77 819.92 774.66 1010.78 789.77
00003533 00000112 738.16 226.14 521.60 761.67 799.69 521.95 1022.37 537.27 844.15 673.97 810.05 785.44 998.77 799.33
00003534 00000113 718.78 226.63 532.92 763.38 784.41 526.98 1009.80 538.56 831.87 679.29 797.94 792.38 991.27 802.90
00003535 00000114 709.33 237.96 529.11 752.72 773.94 538.76 997.18 543.00 823.23 680.25 789.17 793.44 985.94 797.97
00003536 00000115 697.73 239.77 533.03 752.12 767.01 540.72 989.49 547.23 816.18 686.52 784.63 796.99 978.89 803.43
00003537 00000116 688.02 252.03 537.69 742.01 758.69 544.66 982.47 550.77 810.96 696.12 780.00 807.36 965.06 814.10
00003538 00000117 683.62 261.35 532.25 734.83 751.42 546.82 978.46 555.31 805.96 704.58 772.63 815.12 952.65 824.36
00003539 00000118 677.59 262.68 528.48 734.55 743.79 545.42 970.73 557.32 798.37 708.04 763.30 819.30 940.83 831.29
00003540 00000119 670.86 257.41 528.05 742.27 735.60 549.43 961.33 558.20 788.88 711.71 759.39 823.51 938.31 832.72
00003541 00000120 664.39 253.36 528.96 745.25 727.64 549.08 950.74 556.35 778.43 711.58 753.82 822.02 933.98 829.97
00003542 00000121 664.53 247.78 520.46 754.05 723.59 549.30 938.32 558.63 768.47 705.62 742.80 807.27 928.93 814.90
00003543 00000122 655.64 253.65 527.55 746.66 719.05 551.13 935.96 559.03 766.74 708.10 740.85 804.41 935.91 810.03
00003544 00000123 652.37 257.11 529.06 743.98 717.00 553.40 934.18 559.14 765.26 708.54 739.51 801.86 942.00 804.99
00003545 00000124 649.00 260.20 528.17 742.79 714.44 555.23 931.69 558.73 764.97 711.74 738.50 799.84 948.82 800.43
00003546 00000125 644.53 259.71 531.60 744.02 712.00 556.68 932.15 557.60 767.03 711.73 736.16 799.40 951.90 797.65
00003547 00000126 643.49 254.79 532.70 741.10 712.40 552.27 933.93 550.05 770.39 707.39 736.34 793.93 950.78 789.98
00003548 00000127 644.63 248.49 528.79 744.52 713.19 547.63 934.16 544.27 771.46 700.47 735.19 791.61 946.98 787.23
00003549 00000128 644.36 240.65 534.84 748.93 714.47 540.73 937.31 535.74 775.99 695.98 741.36 791.39 945.19 786.28
CROP_BBOX: 340 0 1653 1080
