Video ID: 	1vYEVO9838Y
H: 	1080
W: 	1920
FPS: 	30.0

FRAME INDEX X0 Y0 W H [Landmarks (5 Points)]

00000420 00000000 652.29 214.07 432.08 619.81 680.46 434.28 852.53 451.47 687.78 590.92 704.41 675.02 844.23 688.22
00000421 DELETE   653.38 213.24 432.24 623.18 682.08 434.82 853.28 451.91 688.83 592.08 706.74 676.49 846.64 689.38
00000422 00000002 653.60 215.43 434.11 621.21 682.25 436.29 854.63 452.35 690.72 592.20 707.11 677.18 848.66 689.03
00000423 DELETE   653.73 209.58 436.21 628.08 683.50 435.67 855.96 450.26 692.87 591.04 710.60 678.50 851.43 689.10
00000424 DELETE   654.73 204.59 436.07 635.56 683.49 437.20 856.85 450.07 694.62 589.86 710.90 682.90 849.89 692.53
00000425 00000005 657.92 205.95 433.01 634.04 683.75 440.28 857.28 449.66 697.36 589.67 712.90 688.82 849.00 695.76
00000426 DELETE   658.30 207.63 434.39 632.41 695.87 435.26 856.46 448.02 699.09 592.55 727.19 687.04 856.65 695.30
00000427 DELETE   658.77 215.95 435.44 623.37 696.30 437.86 858.46 450.36 699.86 591.79 727.66 686.49 858.72 694.23
00000428 DELETE   661.12 215.84 435.11 628.17 690.72 447.94 863.16 455.13 703.04 589.41 719.50 689.62 857.64 693.60
00000429 00000009 657.73 220.37 439.73 626.76 699.05 442.87 861.91 454.45 705.11 596.48 732.31 693.05 862.64 699.72
00000430 DELETE   661.77 220.82 439.55 631.27 694.61 448.90 869.96 458.67 708.54 594.39 722.44 689.80 869.45 695.11
00000431 00000011 657.11 224.32 445.92 625.87 700.82 446.60 879.24 459.86 719.80 603.80 730.56 687.29 879.67 697.68
00000432 DELETE   654.61 222.44 452.64 632.27 705.24 447.64 885.89 461.26 730.30 605.22 734.05 686.21 889.08 697.05
00000433 DELETE   657.82 226.08 451.58 631.32 709.83 450.50 893.18 461.48 738.84 608.54 738.05 685.17 902.36 693.96
00000434 00000014 657.95 220.93 452.21 635.49 712.04 453.28 894.11 456.77 743.77 603.01 743.30 684.88 908.46 687.40
00000435 DELETE   653.80 219.35 454.72 634.20 710.05 450.44 892.00 452.30 742.68 597.93 742.74 682.43 908.22 683.23
00000436 00000016 651.86 220.93 450.79 636.07 705.82 446.52 884.70 448.91 735.30 594.94 739.91 680.09 904.94 680.82
00000437 00000017 644.28 222.01 457.58 644.66 696.65 443.85 882.83 446.22 729.77 593.53 731.37 681.12 905.33 680.09
00000438 00000018 638.03 222.96 454.69 642.09 691.28 444.56 879.73 445.50 727.75 592.75 726.20 679.35 902.23 677.15
00000439 00000019 633.25 221.40 456.46 641.34 686.32 448.19 878.45 447.16 727.18 594.96 723.60 680.19 897.81 676.32
00000440 00000020 628.38 224.58 460.79 637.27 681.87 451.33 877.23 447.09 728.21 598.35 721.28 682.69 896.73 676.53
00000441 00000021 624.16 223.62 459.80 636.05 676.27 453.46 875.70 447.17 727.22 602.70 717.26 688.75 890.42 681.72
00000442 00000022 622.04 220.03 458.21 641.31 670.03 455.28 868.56 448.50 718.86 605.09 711.23 695.83 883.13 689.01
00000443 00000023 621.87 223.59 455.14 635.95 667.67 458.42 864.55 451.70 714.44 607.44 706.57 698.38 876.95 692.06
00000444 00000024 620.98 222.06 456.36 640.68 667.75 459.42 862.59 452.55 712.15 608.23 706.32 700.64 875.09 694.35
00000445 00000025 620.39 223.66 457.91 642.39 667.24 459.82 862.86 452.45 710.85 609.72 706.67 703.22 878.14 696.48
00000446 00000026 619.52 225.51 459.93 648.37 667.57 462.91 861.78 454.31 708.04 612.01 706.08 707.44 877.91 699.76
00000447 00000027 621.20 227.07 454.88 643.19 665.93 467.01 858.83 459.84 705.52 616.64 704.34 709.03 871.32 703.04
00000448 00000028 623.06 232.67 449.66 630.96 662.37 467.62 857.42 465.24 705.33 621.89 697.90 711.46 861.81 709.93
00000449 00000029 623.70 238.58 452.24 627.29 660.96 469.71 856.61 468.44 703.57 627.35 698.84 713.80 861.13 713.10
00000450 00000030 622.57 243.62 454.29 623.85 660.52 470.28 859.02 471.61 706.47 633.82 701.34 716.48 862.28 717.97
00000451 00000031 622.40 240.62 455.34 630.66 660.38 471.99 860.76 471.68 708.81 636.21 702.40 719.37 864.98 719.52
00000452 00000032 622.53 243.04 454.83 626.75 660.00 471.27 859.62 472.27 706.88 634.82 700.43 719.15 861.17 720.45
00000453 00000033 621.30 242.50 453.50 627.23 659.76 469.92 857.95 472.63 704.93 632.92 697.26 717.27 856.87 720.19
00000454 00000034 621.31 241.88 451.68 630.94 659.95 470.38 856.74 471.77 703.10 631.00 696.63 718.19 855.95 720.23
00000455 00000035 622.92 241.23 450.97 631.27 660.45 469.65 858.03 471.04 704.08 629.99 696.47 719.41 854.08 721.51
00000456 00000036 621.54 239.58 453.04 633.22 658.80 468.96 856.98 470.66 705.09 630.21 694.48 720.17 851.46 722.60
00000457 00000037 620.68 236.83 451.57 633.16 657.58 469.70 854.86 471.07 703.66 630.38 693.16 720.19 849.67 722.44
00000458 00000038 620.62 234.23 449.22 636.70 657.91 469.68 852.40 471.61 703.40 631.09 692.86 719.69 848.42 722.49
00000459 00000039 618.83 243.35 451.62 630.75 657.45 472.73 849.02 474.08 698.76 634.07 693.06 720.16 850.39 722.11
00000460 00000040 618.99 247.98 449.20 628.06 656.99 474.44 846.19 473.73 694.83 634.45 693.32 720.08 853.65 720.04
00000461 00000041 615.55 245.63 454.37 640.15 657.88 476.32 846.58 473.05 693.64 635.46 696.14 721.00 860.87 718.46
00000462 00000042 614.31 246.54 454.71 639.83 658.51 476.22 848.63 471.69 696.77 636.70 698.46 721.87 863.55 718.35
00000463 00000043 614.21 244.29 455.05 637.30 657.60 477.38 847.56 471.26 697.13 636.11 699.38 721.44 863.03 716.76
00000464 00000044 612.20 246.01 451.96 630.13 653.71 478.84 842.84 473.27 693.81 637.39 694.48 720.61 857.47 716.50
00000465 00000045 610.14 245.14 449.52 628.18 649.14 478.13 837.29 474.03 688.96 638.95 686.53 720.98 849.76 718.26
00000466 00000046 611.33 245.05 446.49 629.64 648.47 477.51 834.60 474.42 685.42 638.49 684.23 722.79 844.70 721.11
00000467 00000047 609.85 244.84 448.20 635.77 649.14 478.92 833.56 477.11 684.89 640.83 686.12 724.04 846.01 723.21
00000468 00000048 607.57 250.10 449.91 631.78 648.95 482.09 834.21 477.59 685.70 643.30 688.85 725.64 851.78 722.37
00000469 00000049 606.35 250.65 454.29 637.55 649.84 483.21 837.18 477.01 687.02 642.98 690.69 726.85 857.19 721.95
00000470 00000050 606.42 250.33 455.68 640.21 651.21 483.64 839.12 476.64 690.03 644.14 692.92 726.34 861.48 720.74
00000471 00000051 610.13 251.52 453.41 639.03 653.65 481.85 841.32 478.04 691.43 645.10 693.41 724.11 862.52 721.16
00000472 00000052 612.97 255.04 453.47 634.62 655.77 481.49 842.36 479.24 692.17 645.42 696.90 723.38 863.34 721.64
00000473 00000053 614.07 255.97 457.99 637.12 658.72 482.62 844.69 480.89 693.25 647.57 701.38 724.32 867.87 722.60
00000474 00000054 614.21 256.86 460.97 637.38 658.86 482.57 847.66 482.38 694.23 650.61 701.74 725.37 871.11 724.83
00000475 00000055 613.66 256.24 461.20 639.02 659.12 482.71 848.70 482.84 695.60 652.04 702.06 726.35 871.44 726.10
00000476 00000056 613.87 257.01 462.34 636.49 657.76 483.47 848.34 484.61 694.53 653.35 700.89 727.50 870.19 727.97
00000477 00000057 612.68 258.83 462.70 636.90 656.92 483.89 848.79 485.10 694.10 653.88 700.64 729.78 870.15 730.29
00000478 00000058 611.85 255.17 462.23 640.19 653.64 483.69 847.74 484.76 693.86 654.36 696.62 733.66 865.63 734.20
00000479 00000059 612.12 256.95 463.67 639.28 653.80 483.91 849.43 485.17 695.28 655.31 696.91 736.43 864.54 737.18
00000480 00000060 611.86 257.66 464.87 639.31 653.14 483.55 849.79 484.60 695.74 656.46 697.27 737.62 864.66 738.21
00000481 00000061 611.02 258.86 467.83 638.08 652.25 484.14 849.33 485.56 694.07 657.98 697.18 738.41 865.20 739.18
00000482 00000062 610.99 256.38 467.90 642.02 649.86 483.88 846.06 484.69 691.98 659.53 695.87 739.59 863.41 739.95
00000483 00000063 611.05 257.08 469.08 640.98 650.59 483.71 846.75 484.37 691.48 657.67 695.38 737.99 864.04 738.20
00000484 00000064 611.69 257.36 469.21 640.38 651.13 482.05 847.58 483.76 691.16 657.13 696.13 737.18 865.04 738.18
00000485 00000065 613.50 255.28 468.92 642.63 652.44 480.99 848.90 483.36 691.16 656.93 697.43 736.21 866.75 737.75
00000486 00000066 615.06 257.19 469.28 641.28 653.90 481.69 850.21 482.81 692.05 655.92 698.67 734.35 870.47 734.74
00000487 00000067 615.32 256.53 471.17 645.23 656.56 481.08 852.40 481.09 693.08 653.90 701.91 731.35 875.98 730.59
00000488 00000068 615.81 252.15 471.02 649.41 658.56 479.16 853.30 477.77 696.36 648.38 703.43 729.24 876.35 727.31
00000489 00000069 616.91 244.04 470.87 659.87 661.18 478.05 854.99 475.17 697.55 644.46 706.07 727.35 881.19 723.99
00000490 00000070 616.74 242.03 475.42 663.53 662.18 477.67 858.09 472.38 699.52 642.38 708.82 727.19 886.95 721.49
00000491 00000071 617.63 237.61 476.73 668.65 664.90 474.73 861.20 470.58 702.45 639.34 711.04 725.47 888.48 720.61
00000492 00000072 621.73 237.92 475.18 669.02 667.91 474.27 863.79 471.71 705.31 639.64 713.29 724.42 891.68 720.62
00000493 00000073 625.48 238.93 473.28 668.84 671.40 473.31 868.54 471.42 710.48 640.81 716.92 724.20 896.34 720.73
00000494 00000074 627.04 239.31 466.35 661.15 678.71 479.79 876.06 475.28 726.09 640.72 725.28 726.04 903.77 720.70
00000495 00000075 635.29 234.18 464.85 660.56 684.98 482.55 881.17 473.67 733.21 636.55 730.82 721.31 909.31 712.59
00000496 00000076 640.30 240.75 464.79 648.22 689.37 481.22 887.12 469.35 740.76 632.53 735.99 717.49 916.37 706.39
00000497 00000077 645.85 238.73 464.22 647.81 696.00 477.19 891.25 466.96 744.18 629.96 737.64 711.34 920.28 701.71
00000498 00000078 646.97 238.21 465.79 642.67 699.19 473.49 895.94 462.21 749.68 625.94 740.38 703.97 926.66 693.61
00000499 00000079 648.89 229.63 462.53 646.62 703.12 469.87 899.07 459.81 753.16 622.30 741.87 699.46 928.26 690.12
00000500 00000080 653.47 225.17 459.19 644.46 706.66 465.83 902.16 454.79 757.12 617.26 744.46 695.86 931.83 685.58
00000501 00000081 655.49 223.87 456.76 642.19 709.06 462.00 904.90 450.98 762.01 615.26 746.05 692.48 932.71 682.46
00000502 00000082 656.96 223.17 456.89 642.73 710.53 460.75 906.10 449.39 763.85 613.91 747.35 692.54 933.07 682.31
00000503 00000083 658.92 223.30 458.14 646.85 713.23 460.61 907.30 449.96 764.00 612.23 748.03 692.92 933.76 683.28
00000504 00000084 660.50 226.58 457.48 645.88 715.15 460.31 909.66 449.34 765.93 611.85 750.02 692.14 938.28 682.07
00000505 00000085 661.09 227.42 458.89 648.30 716.36 459.77 910.03 449.37 766.89 611.96 750.81 690.79 941.90 680.95
00000506 00000086 662.58 224.21 458.32 650.43 717.78 456.21 910.32 446.82 766.58 609.05 752.86 688.97 943.75 679.75
00000507 00000087 662.85 219.78 459.66 662.50 716.76 455.02 908.99 444.04 763.48 605.43 751.30 690.22 943.52 679.68
00000508 00000088 659.85 215.39 462.23 671.70 712.55 452.29 903.88 444.21 756.51 602.64 748.10 691.67 938.24 683.19
00000509 00000089 655.97 202.64 463.04 685.21 708.49 451.59 894.23 446.74 740.89 600.29 742.08 694.93 922.32 689.56
00000510 DELETE   656.02 219.05 459.90 672.73 704.35 451.19 883.21 448.98 724.49 593.52 735.75 695.69 909.87 692.68
00000511 DELETE   655.44 224.16 456.39 666.59 701.51 450.80 866.55 451.93 708.61 588.96 729.29 694.80 891.48 693.10
00000512 DELETE   655.06 218.15 449.16 652.39 692.15 449.59 858.05 455.01 697.28 591.96 720.83 688.68 874.61 690.66
00000513 00000093 654.57 219.46 442.28 640.41 684.78 449.69 854.38 458.58 691.18 592.98 706.59 684.58 857.66 689.89
00000514 00000094 656.40 215.23 439.11 641.88 680.79 445.97 853.08 460.46 688.52 595.74 699.67 687.03 846.83 697.79
00000515 00000095 657.38 215.35 435.53 642.04 678.70 445.98 850.55 459.14 686.85 592.88 696.36 690.60 838.85 700.87
00000516 00000096 656.78 217.22 434.13 639.72 677.62 445.32 847.45 458.60 685.13 592.33 694.79 690.58 834.52 701.21
00000517 00000097 656.18 214.77 433.68 641.08 678.45 444.58 846.58 458.16 684.44 591.05 695.53 690.43 832.91 701.40
00000518 00000098 657.73 215.35 433.64 641.90 679.05 445.43 846.83 457.96 685.13 590.78 696.39 691.93 833.64 702.01
00000519 00000099 658.67 214.89 433.12 642.71 679.81 444.80 847.55 457.87 684.99 590.77 696.70 692.33 833.66 702.91
00000520 00000100 657.71 212.06 433.29 645.12 679.29 443.69 847.68 457.04 684.80 590.68 696.60 691.91 833.99 702.76
00000521 00000101 657.76 215.42 432.87 641.38 677.89 444.98 847.00 457.63 684.59 590.52 694.52 692.13 832.02 702.44
00000522 00000102 658.36 216.53 434.08 641.77 677.89 446.98 847.84 458.28 684.60 591.15 694.80 694.49 832.68 703.74
00000523 00000103 660.50 218.93 437.34 641.07 679.39 448.45 850.07 459.69 685.89 592.60 697.33 695.49 835.69 704.33
00000524 00000104 661.35 219.20 440.86 643.19 681.89 449.39 851.95 461.15 687.42 594.47 701.58 696.72 841.72 705.39
00000525 00000105 660.22 219.82 443.38 645.03 684.25 450.79 853.73 460.96 689.70 596.18 706.87 697.14 850.82 704.01
00000526 00000106 660.02 218.59 444.12 649.60 684.45 452.84 853.31 462.87 690.86 599.10 708.65 699.80 852.22 706.42
00000527 00000107 660.18 218.96 444.42 649.56 684.26 453.10 854.32 463.44 693.09 600.86 707.66 700.45 851.62 707.39
00000528 00000108 660.90 224.91 445.04 643.69 683.87 454.17 856.60 464.70 695.26 604.90 709.92 702.65 855.72 709.54
00000529 00000109 659.27 224.98 447.73 646.54 683.25 454.86 858.87 465.55 696.40 608.80 711.65 704.59 859.61 711.47
00000530 00000110 658.13 225.49 449.67 647.15 684.94 454.09 860.30 464.79 697.63 608.17 713.14 702.09 862.98 708.68
00000531 00000111 657.16 227.38 452.47 653.62 687.02 453.27 859.89 462.29 695.46 608.26 716.36 704.16 869.22 709.37
00000532 00000112 656.93 226.48 451.26 654.83 689.79 453.60 857.59 462.28 695.40 602.79 719.08 699.84 868.93 704.78
00000533 00000113 654.91 218.56 452.40 666.22 691.04 452.27 855.40 459.49 693.58 599.68 720.88 696.98 872.86 700.44
00000534 00000114 652.57 216.76 452.36 669.75 688.96 451.86 853.83 457.90 692.18 598.42 720.52 697.30 872.65 699.98
00000535 00000115 652.46 219.35 457.40 669.44 691.16 453.31 854.99 459.30 693.23 601.10 723.71 696.45 878.44 698.65
00000536 00000116 654.88 219.69 451.42 664.90 691.97 452.89 853.87 456.32 695.78 607.12 729.89 698.76 885.42 699.21
00000537 00000117 652.77 228.19 464.17 661.49 694.89 457.42 861.86 458.82 701.52 605.62 732.40 699.62 892.58 697.42
00000538 00000118 652.98 225.96 465.19 661.29 696.64 459.53 871.94 458.31 714.00 611.90 738.37 700.95 906.08 698.00
00000539 00000119 655.77 222.31 466.01 663.41 697.80 462.78 876.27 458.33 721.39 612.80 739.78 700.41 912.77 694.76
00000540 00000120 655.96 225.13 467.87 662.22 700.60 460.85 881.57 456.88 728.46 614.01 741.25 700.42 916.85 695.34
00000541 00000121 654.99 224.39 467.21 661.80 700.28 460.43 879.28 456.94 727.24 614.85 741.40 700.83 915.34 696.02
00000542 00000122 652.43 225.93 465.52 652.44 698.31 460.59 876.52 458.81 723.64 612.09 737.88 700.36 903.14 697.85
00000543 00000123 650.01 223.48 462.94 647.35 691.27 457.52 872.19 456.58 717.57 610.63 728.63 702.81 888.54 701.36
00000544 00000124 648.15 220.24 462.36 646.08 686.75 457.45 872.55 456.38 717.47 611.68 723.45 706.17 882.91 704.87
00000545 00000125 646.10 218.82 466.10 652.35 684.90 460.54 874.75 457.28 722.61 613.63 723.35 713.27 882.26 710.55
00000546 00000126 643.69 222.05 466.56 651.31 683.67 464.82 878.71 458.73 727.60 618.07 727.52 719.84 886.42 715.00
00000547 00000127 642.06 225.27 468.62 654.96 681.76 467.01 879.82 460.94 727.88 622.89 727.95 725.57 887.36 720.67
00000548 00000128 637.15 223.24 470.78 660.11 680.27 469.17 877.78 463.49 726.15 625.58 727.42 727.71 886.25 722.98
00000549 00000129 631.87 232.99 471.45 649.54 678.65 473.29 875.93 466.98 724.84 629.90 728.23 728.60 886.97 723.37
00000550 00000130 632.54 240.46 476.01 652.61 674.20 475.18 871.80 467.09 713.86 634.76 724.19 728.41 890.09 720.09
00000551 00000131 627.50 241.28 480.84 657.90 672.62 480.49 871.30 470.78 715.11 640.98 725.40 731.24 894.86 721.63
00000552 00000132 626.66 242.81 481.99 655.86 672.68 484.48 872.15 473.46 717.97 644.37 727.70 734.40 895.69 723.77
00000553 00000133 623.76 244.68 482.17 656.91 668.92 486.82 870.18 475.80 717.25 650.95 726.30 735.74 896.43 725.10
00000554 00000134 619.86 242.98 482.96 657.68 666.23 487.97 868.40 476.93 717.32 653.40 724.37 735.03 896.52 724.41
00000555 00000135 618.24 241.90 482.92 661.32 664.34 488.42 867.87 476.66 716.99 654.52 723.17 736.82 895.51 725.72
00000556 00000136 615.51 243.37 485.29 661.98 661.66 489.04 867.46 476.78 715.31 656.62 721.38 741.08 894.17 729.82
00000557 00000137 611.30 242.83 485.50 660.84 659.54 490.08 866.58 476.87 715.27 657.75 719.84 741.62 893.76 729.70
00000558 00000138 609.55 242.88 486.40 658.99 657.10 489.27 864.42 477.50 712.44 658.40 717.22 742.34 890.19 731.74
00000559 00000139 606.73 244.36 487.85 658.93 653.62 490.97 861.84 478.49 709.88 663.30 715.50 746.29 889.77 735.15
00000560 00000140 606.74 250.35 486.37 652.24 651.92 494.78 859.74 482.21 708.30 667.06 713.50 750.01 886.48 738.86
00000561 00000141 603.86 250.43 485.28 655.66 650.80 496.58 857.56 485.33 707.73 671.07 709.51 751.10 883.89 740.98
00000562 00000142 602.51 251.82 486.92 657.77 650.86 498.40 858.88 490.23 709.55 675.41 708.32 754.04 882.36 746.39
00000563 00000143 601.28 252.43 486.79 665.90 651.99 499.93 859.74 491.42 712.00 678.77 709.15 757.86 883.23 749.95
00000564 00000144 602.95 249.80 485.59 668.51 653.09 501.48 862.09 492.85 714.75 679.81 710.62 759.26 884.60 751.28
00000565 00000145 604.33 255.71 483.23 658.10 654.24 502.78 865.67 493.39 719.86 679.36 712.86 761.84 882.91 753.59
00000566 00000146 603.47 257.81 480.69 651.30 653.51 502.24 867.41 494.75 723.17 679.35 710.97 762.36 878.92 755.91
00000567 00000147 604.61 255.76 479.00 653.73 653.14 499.22 866.68 493.69 720.61 677.93 708.17 762.33 875.42 757.61
00000568 00000148 603.99 256.10 480.01 652.86 652.70 499.23 865.45 494.67 718.08 677.90 706.66 761.37 874.74 757.29
00000569 00000149 601.80 258.72 469.93 647.84 651.87 505.44 861.36 503.98 718.29 675.06 703.66 757.89 869.02 756.27
00000570 00000150 600.50 266.13 467.96 636.87 643.89 513.34 850.80 512.21 703.17 676.67 691.11 757.15 855.64 756.02
00000571 00000151 595.66 262.18 467.26 639.96 636.00 508.61 839.58 511.22 685.04 677.38 682.37 756.30 842.39 758.68
00000572 00000152 599.08 268.99 460.81 632.95 631.41 499.95 829.07 507.92 670.65 675.36 672.68 751.89 831.19 758.47
00000573 00000153 598.60 274.23 456.87 621.70 628.64 493.53 820.26 508.01 658.81 669.70 665.94 746.20 818.19 758.09
00000574 00000154 596.43 267.41 461.93 631.53 624.21 486.96 808.11 512.32 642.41 664.60 659.94 743.54 810.47 764.41
00000575 00000155 600.27 264.76 460.98 634.30 627.15 484.13 805.52 511.07 638.27 660.44 661.24 741.06 808.46 763.17
00000576 00000156 605.73 266.01 455.41 630.69 631.67 482.37 805.39 509.63 639.48 657.63 665.32 738.14 808.21 760.58
00000577 00000157 611.95 268.95 444.66 627.10 636.76 477.85 812.41 501.79 643.30 654.89 664.48 735.57 809.36 754.93
00000578 00000158 615.61 264.45 442.71 632.61 641.32 476.62 816.55 500.53 646.19 653.35 668.74 733.51 815.58 752.64
00000579 00000159 617.55 260.40 452.95 639.02 645.57 479.64 814.13 502.16 643.19 650.48 679.50 735.26 821.19 753.75
00000580 00000160 619.44 252.27 454.95 651.61 650.67 478.78 815.15 500.21 644.34 647.34 684.26 732.85 825.09 750.27
00000581 00000161 620.07 253.61 447.55 657.26 650.63 478.30 821.54 498.89 648.63 649.05 680.54 736.50 828.54 752.99
00000582 00000162 623.98 249.57 447.21 667.23 656.38 479.47 821.10 496.66 649.40 646.93 688.76 739.66 832.24 753.28
00000583 00000163 625.70 252.71 444.75 662.33 656.73 479.30 822.73 496.58 650.61 647.50 688.88 738.86 834.50 752.60
00000584 00000164 626.18 248.56 453.58 657.83 657.04 479.87 818.61 496.37 647.70 646.41 693.06 733.69 834.31 746.41
00000585 00000165 626.32 243.54 449.62 656.76 657.27 477.84 819.64 496.74 649.85 647.02 691.17 730.95 831.93 746.06
00000586 00000166 626.68 242.91 451.36 653.75 657.89 473.85 824.96 496.90 656.73 648.13 690.38 728.24 832.68 746.86
00000587 00000167 628.28 244.97 454.90 651.08 661.09 473.95 832.86 496.90 663.08 646.38 692.07 728.03 837.87 746.43
00000588 00000168 630.65 248.50 459.47 647.14 660.75 473.21 839.45 496.22 666.40 649.48 694.23 730.23 845.26 748.16
00000589 00000169 631.50 252.86 464.78 643.63 661.89 472.88 845.24 496.31 671.63 649.27 695.06 733.34 847.49 751.30
00000590 00000170 637.03 255.28 463.25 643.85 665.99 474.42 850.76 496.71 676.84 649.61 696.40 735.27 850.34 752.25
