Video ID: 	8-jvw2INT7E
H: 	1080
W: 	1920
FPS: 	25.0

FRAME INDEX X0 Y0 W H [Landmarks (5 Points)]

00000624 00000000 963.21 233.04 374.87 538.11 1000.96 432.82 1094.78 454.14 959.20 547.01 1014.21 633.81 1095.42 650.47
00000625 DELETE   951.79 223.63 372.46 551.65 987.97 433.23 1087.16 448.64 958.93 545.31 1006.94 636.78 1086.50 647.05
00000626 00000002 940.95 226.89 385.44 545.73 999.15 434.13 1075.80 448.46 945.51 547.62 1006.56 634.98 1070.43 644.95
00000627 00000003 937.11 227.72 385.56 543.24 996.61 433.15 1073.13 447.97 945.63 547.78 1005.14 634.06 1068.07 644.28
00000628 00000004 936.03 228.23 381.80 540.24 995.69 433.23 1071.29 449.11 945.43 548.51 1004.93 632.05 1066.54 643.03
00000629 00000005 936.79 228.07 377.69 538.94 993.32 434.14 1069.81 449.16 944.12 548.88 1003.51 632.41 1064.81 642.72
00000630 00000006 935.89 227.20 377.65 538.80 991.31 433.60 1068.48 449.25 942.74 549.74 1002.58 631.15 1064.84 642.06
00000631 00000007 934.92 223.48 378.99 541.73 988.15 430.64 1067.64 445.01 941.26 546.66 1001.76 629.79 1066.52 639.43
00000632 00000008 934.23 227.26 380.42 542.82 988.96 432.26 1067.08 446.35 939.21 549.26 1001.91 632.71 1066.90 642.11
00000633 00000009 935.68 230.14 380.95 541.40 988.74 434.00 1066.42 446.97 938.63 551.75 1004.30 634.62 1070.39 643.05
00000634 00000010 936.68 231.16 382.43 535.28 988.12 436.74 1070.00 449.68 942.03 551.40 1004.40 633.62 1072.68 641.96
00000635 00000011 940.00 234.73 378.89 530.53 987.00 438.01 1074.30 451.05 943.04 550.90 1001.60 634.68 1073.55 643.51
00000636 00000012 944.04 238.97 376.95 528.43 988.91 442.30 1075.83 452.11 946.58 552.14 1005.94 638.78 1077.31 645.28
00000637 00000013 954.34 245.63 372.79 520.84 991.27 440.07 1083.14 452.67 955.71 547.50 1009.02 637.06 1087.76 645.48
00000638 00000014 955.94 243.88 371.51 521.73 992.53 437.85 1087.34 449.62 959.25 547.47 1012.75 635.91 1095.55 643.88
00000639 00000015 956.34 238.35 372.99 525.13 991.16 434.82 1091.44 446.54 961.93 545.10 1014.96 632.36 1103.35 640.49
00000640 00000016 959.21 235.48 371.05 525.77 989.87 434.49 1096.46 445.23 965.95 547.14 1017.28 633.04 1109.27 640.77
00000641 00000017 959.76 226.34 372.11 538.36 988.05 435.19 1101.10 442.73 973.55 548.21 1021.04 631.81 1116.37 634.80
00000642 00000018 964.86 224.90 373.51 538.05 988.74 435.10 1109.70 443.03 979.80 549.97 1020.01 632.28 1120.40 635.40
00000643 00000019 969.62 228.50 382.35 532.08 996.77 435.60 1123.72 439.73 987.41 547.65 1024.82 634.05 1122.22 634.12
00000644 00000020 974.15 226.24 384.53 538.55 999.99 436.09 1132.35 439.88 998.33 549.20 1028.92 636.10 1129.21 636.38
00000645 00000021 976.27 226.57 384.42 541.58 1002.88 434.80 1137.31 440.09 1003.82 549.31 1030.58 636.01 1133.11 637.65
00000646 00000022 977.83 228.44 387.02 542.93 1005.33 433.83 1139.97 440.21 1006.45 549.64 1033.30 636.27 1136.44 638.82
00000647 00000023 978.55 228.49 388.47 543.17 1007.66 435.14 1146.32 442.55 1013.91 549.75 1034.02 635.38 1140.02 638.85
00000648 00000024 982.92 231.55 388.61 540.04 1011.25 434.59 1151.14 443.80 1022.98 551.63 1036.74 634.60 1143.69 639.52
00000649 00000025 986.13 229.09 388.11 541.60 1014.70 435.35 1155.21 443.79 1027.88 551.83 1041.18 634.84 1149.12 639.42
00000650 00000026 992.44 227.78 384.27 543.38 1019.11 436.27 1159.12 445.31 1034.16 553.94 1045.79 636.36 1154.76 641.60
00000651 00000027 994.53 228.80 382.81 541.76 1022.62 433.86 1163.85 447.18 1038.84 555.21 1046.80 633.33 1157.16 642.22
00000652 00000028 998.20 228.11 381.90 540.48 1026.80 434.46 1169.56 449.27 1042.89 554.90 1049.12 632.55 1160.11 642.85
00000653 00000029 999.61 225.27 381.58 542.22 1029.67 433.60 1172.20 449.39 1045.90 554.55 1050.54 631.29 1161.83 642.60
00000654 00000030 1000.59 225.71 380.86 541.57 1031.02 433.61 1175.86 449.72 1049.91 555.07 1052.47 633.26 1162.80 644.89
00000655 00000031 1002.38 226.60 380.33 540.43 1031.88 435.21 1176.62 449.84 1050.87 556.64 1055.53 634.89 1167.00 645.19
00000656 00000032 1003.05 224.93 379.45 540.93 1032.54 434.96 1176.88 449.26 1051.07 557.01 1057.41 635.06 1169.89 645.07
00000657 00000033 1002.25 225.92 380.14 542.12 1031.81 435.29 1176.50 449.48 1050.38 558.47 1057.13 635.99 1171.13 645.92
00000658 00000034 1001.34 223.02 380.65 547.09 1032.60 434.37 1177.97 448.33 1050.64 556.80 1056.95 635.75 1172.53 645.68
00000659 00000035 1000.35 224.76 379.59 547.03 1032.19 433.60 1176.64 447.20 1049.95 555.99 1055.98 634.86 1170.88 644.58
00000660 00000036 997.14 226.06 380.82 546.39 1028.20 433.75 1173.52 446.26 1046.75 556.34 1053.80 636.14 1167.54 644.72
00000661 00000037 991.79 226.18 385.70 542.98 1023.42 434.70 1169.19 446.49 1042.45 555.84 1048.94 634.07 1161.85 641.92
00000662 00000038 986.96 226.35 389.00 541.89 1019.37 433.23 1165.61 446.07 1038.14 555.19 1044.09 630.97 1155.45 639.57
00000663 00000039 985.38 225.71 387.38 541.24 1016.53 433.23 1162.03 446.50 1035.95 556.90 1042.58 631.79 1152.10 640.39
00000664 00000040 982.77 227.65 388.93 539.18 1014.73 433.57 1162.12 447.54 1033.91 558.07 1040.36 631.48 1151.81 640.38
00000665 00000041 980.19 232.53 388.36 534.41 1011.92 436.08 1162.04 449.84 1032.63 560.48 1036.45 631.97 1151.12 640.57
00000666 00000042 979.12 232.23 387.64 535.24 1009.37 438.26 1162.13 451.21 1032.82 563.23 1034.94 635.49 1149.96 643.37
00000667 00000043 977.50 231.70 386.81 537.79 1008.01 438.53 1161.79 450.25 1032.21 564.15 1034.54 638.28 1150.34 645.15
00000668 00000044 977.24 232.35 383.40 539.10 1008.69 439.13 1159.03 449.57 1030.80 561.15 1034.98 638.27 1149.02 644.01
00000669 00000045 967.31 220.29 391.41 551.79 1000.04 435.17 1154.54 445.34 1019.70 560.02 1029.38 640.16 1150.65 649.11
00000670 00000046 966.62 221.38 390.80 549.50 998.73 434.95 1154.66 445.65 1020.13 560.87 1028.13 638.82 1151.55 648.26
00000671 00000047 966.26 220.95 389.76 550.12 998.26 435.83 1154.48 447.44 1020.89 562.61 1027.92 638.68 1152.11 648.89
00000672 00000048 965.77 221.76 390.93 550.09 998.83 436.08 1155.16 448.64 1021.51 563.36 1028.19 638.72 1151.67 649.72
00000673 00000049 966.05 221.50 390.06 550.32 999.05 435.63 1154.56 449.38 1021.28 563.17 1027.44 638.52 1149.54 650.65
00000674 00000050 965.61 221.48 389.06 550.21 997.85 435.83 1153.68 451.89 1018.52 564.11 1024.32 638.95 1146.02 653.02
00000675 00000051 964.13 221.81 387.90 549.40 992.96 437.23 1148.96 454.88 1011.84 565.53 1020.13 640.31 1140.11 655.75
00000676 00000052 966.62 234.27 380.22 533.08 997.03 442.47 1146.77 455.02 1012.96 562.65 1017.95 639.09 1132.73 646.15
00000677 00000053 963.97 236.46 378.66 531.34 992.92 443.05 1142.98 455.14 1007.92 563.88 1015.55 640.91 1131.14 647.33
00000678 00000054 959.05 234.38 373.40 534.56 993.62 443.40 1135.54 462.71 1008.97 568.03 1013.03 636.59 1133.67 649.76
00000679 00000055 957.44 232.97 371.55 536.29 990.86 444.89 1130.88 463.42 1004.73 568.15 1008.75 636.83 1129.27 649.54
00000680 00000056 954.76 237.57 369.71 529.54 985.84 447.31 1125.81 462.61 996.33 567.53 1002.25 644.84 1121.34 656.67
00000681 00000057 950.34 239.73 370.19 527.11 981.79 448.86 1120.99 463.92 993.27 569.58 998.85 645.61 1116.63 657.10
00000682 00000058 941.88 237.06 375.37 531.59 972.58 449.87 1116.90 464.29 991.53 573.16 994.91 639.73 1115.90 650.49
00000683 00000059 940.04 236.53 374.21 534.70 969.67 449.30 1108.85 462.49 983.59 569.75 989.18 639.49 1107.59 649.20
00000684 00000060 940.17 236.64 373.59 534.97 969.50 447.79 1106.96 462.70 979.75 568.58 987.17 639.02 1104.40 650.18
00000685 00000061 939.61 236.30 373.51 534.40 969.19 447.94 1108.00 462.33 980.35 567.50 986.09 638.49 1104.79 649.26
00000686 00000062 940.66 238.54 373.60 532.25 970.00 448.72 1109.50 461.64 983.77 569.07 989.31 639.52 1108.38 649.03
00000687 00000063 941.01 237.68 373.90 531.24 972.52 449.54 1114.01 462.80 989.70 571.29 993.63 639.69 1112.88 649.46
00000688 00000064 941.05 237.52 373.77 531.64 972.93 452.02 1116.73 464.62 992.71 572.22 994.85 641.09 1114.28 650.36
00000689 00000065 940.97 236.75 373.15 532.19 972.75 451.25 1116.77 462.92 992.95 571.95 994.80 641.65 1114.20 650.19
00000690 00000066 940.55 237.95 371.76 531.93 972.25 452.57 1114.07 463.11 990.29 571.47 993.70 642.00 1112.69 649.64
00000691 00000067 938.23 233.47 371.94 537.01 970.16 452.07 1111.22 462.33 986.27 570.00 990.05 641.79 1110.05 649.23
00000692 00000068 935.01 231.15 373.49 539.88 967.52 452.65 1108.67 460.42 985.05 567.60 987.24 641.84 1108.71 647.27
00000693 00000069 932.91 226.96 377.30 541.61 963.05 450.89 1107.24 459.04 983.89 563.69 983.08 639.61 1103.69 645.41
00000694 00000070 932.60 231.21 373.60 537.88 959.80 443.61 1104.48 459.35 978.22 558.47 978.27 635.33 1094.23 646.07
00000695 00000071 929.66 228.64 374.61 539.38 958.91 437.21 1103.20 453.52 976.19 554.02 977.08 633.15 1088.37 644.56
00000696 00000072 929.44 231.64 373.58 533.19 956.03 442.68 1095.74 455.79 971.34 552.19 976.61 632.66 1084.27 641.09
00000697 00000073 927.44 230.53 373.56 530.65 953.73 433.92 1094.65 450.59 970.54 549.50 976.12 625.23 1085.51 636.38
00000698 00000074 926.83 222.70 371.66 535.43 954.34 432.52 1094.32 447.29 968.67 545.80 975.48 623.56 1085.70 633.45
00000699 00000075 922.18 229.03 376.19 527.35 952.88 425.09 1095.66 441.32 970.65 545.36 974.43 620.19 1085.00 631.18
00000700 00000076 919.73 231.79 378.72 522.09 952.97 419.04 1096.77 438.44 970.29 542.33 973.47 613.79 1081.93 627.37
00000701 00000077 919.32 228.70 377.83 518.04 950.88 413.93 1095.09 433.09 968.74 537.87 970.96 607.87 1080.37 621.29
00000702 00000078 918.98 219.30 378.58 520.98 950.00 410.03 1095.83 433.25 959.00 537.16 974.36 607.12 1083.07 624.71
00000703 00000079 917.96 218.04 379.35 522.26 949.61 408.94 1096.34 432.87 959.32 536.66 973.69 606.21 1083.69 624.31
00000704 00000080 915.82 218.08 377.76 522.51 949.08 407.26 1097.16 434.60 960.23 539.18 971.07 604.34 1083.85 625.13
00000705 00000081 914.63 230.56 377.78 516.96 951.31 412.67 1095.57 435.48 967.67 539.35 967.65 606.24 1079.34 622.25
00000706 00000082 913.87 232.52 378.72 523.47 948.25 415.16 1092.64 436.41 964.24 542.45 966.75 614.98 1074.98 629.69
00000707 00000083 902.23 224.98 386.30 534.02 942.79 409.30 1087.92 435.60 953.04 544.35 966.07 614.25 1078.68 635.72
00000708 00000084 903.81 235.21 373.51 519.33 939.34 418.63 1083.77 437.98 953.61 545.12 960.22 617.29 1066.94 629.92
00000709 00000085 899.40 232.63 370.82 518.91 933.45 419.29 1075.64 437.85 947.54 545.22 955.96 618.81 1060.36 630.73
00000710 00000086 897.05 233.56 365.58 518.13 930.25 417.24 1072.92 436.04 944.00 541.50 950.76 619.86 1055.58 632.17
00000711 00000087 886.37 223.29 366.91 530.57 919.85 417.97 1066.98 437.06 942.80 545.04 941.61 621.53 1055.62 635.61
00000712 00000088 880.16 226.86 368.33 526.29 912.70 418.86 1062.28 439.01 936.19 546.85 934.02 621.42 1049.70 636.30
00000713 00000089 875.55 231.62 367.98 521.78 907.72 423.79 1056.44 444.34 931.23 551.38 928.18 621.60 1045.45 636.62
00000714 00000090 871.84 227.01 367.80 526.26 902.70 428.24 1049.08 447.28 924.72 553.18 923.75 623.35 1039.35 637.07
00000715 00000091 866.22 228.32 366.94 525.38 894.85 427.89 1040.28 449.22 916.81 555.31 914.63 621.49 1030.60 637.01
00000716 00000092 860.36 230.36 367.84 521.18 890.39 432.52 1033.78 454.92 910.18 552.41 907.72 617.90 1023.75 633.87
00000717 00000093 855.74 230.36 372.01 522.05 885.73 427.84 1028.91 450.72 903.09 547.11 899.26 613.87 1016.17 630.31
00000718 00000094 848.73 228.28 371.83 519.91 879.82 420.75 1024.56 445.34 897.84 543.31 891.99 609.93 1006.40 627.65
00000719 00000095 843.56 228.66 371.10 514.35 873.20 418.02 1014.07 439.27 887.08 539.02 890.70 608.45 998.88 622.94
00000720 00000096 839.67 215.42 368.27 518.17 863.77 411.07 1004.24 435.39 869.34 535.29 890.36 603.50 995.62 622.51
00000721 00000097 837.30 212.51 365.65 516.16 857.53 407.25 999.42 430.78 862.68 527.19 882.61 597.84 991.82 617.07
00000722 00000098 833.25 202.13 369.32 524.36 854.25 406.22 990.78 425.95 853.68 521.60 879.56 595.79 986.11 611.90
00000723 00000099 830.54 204.74 369.66 519.87 849.87 406.63 983.87 424.03 846.70 520.13 876.09 595.31 981.56 609.76
00000724 00000100 828.00 205.68 367.06 519.51 846.88 409.97 971.87 422.59 837.42 521.18 876.48 597.02 976.11 607.37
00000725 00000101 823.63 207.21 367.17 522.00 851.23 414.18 961.42 424.94 838.94 521.92 880.75 603.56 972.77 609.59
00000726 00000102 822.39 204.26 365.98 529.38 849.29 414.84 959.04 426.64 835.13 525.95 877.85 608.70 968.51 615.77
00000727 00000103 821.96 209.48 364.69 527.64 850.22 417.24 957.62 431.85 833.14 532.25 879.83 612.21 967.56 621.30
00000728 00000104 825.19 228.89 363.89 513.39 856.58 424.38 961.65 434.19 829.25 529.92 885.56 618.06 962.97 621.65
00000729 00000105 830.17 237.41 360.99 511.81 861.61 431.37 962.60 441.79 840.34 543.66 897.36 623.84 979.06 627.38
00000730 00000106 835.27 242.66 357.71 510.78 867.88 431.63 964.01 442.41 837.14 541.01 902.11 623.97 977.24 627.50
00000731 00000107 839.49 240.01 370.08 518.52 872.34 441.07 971.97 452.01 845.04 549.23 908.51 624.29 986.03 633.62
00000732 00000108 845.08 239.82 370.38 518.83 884.39 444.90 978.71 453.32 854.32 548.32 919.81 628.24 991.22 635.40
00000733 00000109 851.31 242.78 368.83 517.36 895.23 445.56 984.75 454.35 865.50 553.29 921.44 631.23 992.72 634.51
00000734 00000110 855.85 240.90 371.18 520.32 900.02 447.47 987.18 456.45 867.53 555.96 926.60 634.77 994.93 639.02
00000735 00000111 862.11 236.07 370.60 525.06 909.10 442.42 989.89 455.18 870.33 558.14 934.94 633.86 998.68 641.85
00000736 00000112 868.07 237.86 364.60 520.89 916.64 438.80 990.75 452.88 873.86 559.90 943.73 632.61 1002.64 642.27
00000737 00000113 871.60 237.34 363.17 518.69 921.12 436.67 991.79 449.59 877.96 556.53 947.57 629.92 1006.75 638.51
00000738 00000114 878.73 236.38 360.33 519.01 922.70 435.73 997.89 446.69 884.18 551.92 951.22 629.06 1014.77 636.58
00000739 00000115 882.66 236.37 364.85 517.72 926.44 434.33 1004.74 444.57 889.78 551.12 958.59 631.18 1021.42 637.98
00000740 00000116 886.85 236.91 367.85 518.42 929.34 434.61 1012.60 440.26 895.03 548.15 963.78 632.49 1031.89 635.18
00000741 00000117 896.79 230.24 364.72 524.35 932.85 427.08 1029.89 439.41 906.19 547.28 977.04 624.35 1057.11 629.51
00000742 00000118 905.07 227.33 359.23 520.17 936.15 428.51 1035.04 440.29 914.73 546.37 979.20 622.20 1060.14 626.70
00000743 00000119 910.06 231.08 360.60 513.26 940.28 428.29 1041.22 439.04 920.18 544.29 981.82 621.77 1063.34 624.95
00000744 00000120 911.19 238.61 369.00 510.58 942.39 430.77 1047.38 438.97 920.66 543.94 982.20 623.71 1064.74 625.69
00000745 00000121 913.19 234.12 373.69 517.65 946.30 432.16 1053.75 439.13 927.85 546.06 985.17 625.10 1071.91 626.56
00000746 00000122 917.06 228.70 377.88 528.12 949.34 434.17 1062.33 441.35 939.51 547.88 987.07 623.91 1083.36 625.76
00000747 00000123 927.84 224.43 371.70 531.51 952.80 430.17 1071.38 440.56 949.32 545.37 986.10 621.98 1085.40 626.90
00000748 00000124 932.02 220.42 368.58 532.16 958.79 427.29 1082.05 440.56 958.86 541.17 983.09 619.77 1082.70 628.03
00000749 00000125 936.20 219.30 369.21 528.40 961.63 423.83 1090.19 437.33 965.76 539.14 985.32 616.40 1087.21 625.00
00000750 00000126 939.50 216.52 366.16 526.89 966.02 419.48 1095.63 435.67 969.82 536.01 988.85 613.13 1090.67 623.91
00000751 00000127 939.95 217.18 367.42 520.53 968.08 416.61 1100.75 435.41 975.89 534.79 992.47 607.46 1095.84 620.17
00000752 00000128 943.85 213.87 361.68 522.19 971.19 415.44 1104.31 431.75 978.43 532.91 994.44 608.43 1097.73 619.50
00000753 00000129 945.28 210.56 362.13 522.78 973.22 412.45 1106.03 428.34 979.83 530.39 996.32 607.27 1099.54 618.25
00000754 00000130 946.35 209.80 362.80 524.09 973.46 413.02 1110.45 426.31 983.61 528.70 996.31 608.88 1100.37 618.08
00000755 00000131 945.88 210.09 365.54 524.58 974.35 413.30 1114.83 425.28 987.95 527.48 995.53 609.79 1099.65 618.37
00000756 00000132 949.04 206.10 364.85 528.59 975.78 412.67 1116.57 423.44 989.65 526.41 995.80 611.13 1099.69 618.96
00000757 00000133 950.35 207.08 364.85 530.57 976.93 413.04 1116.26 422.97 990.33 527.11 998.34 613.07 1099.55 620.11
00000758 00000134 950.91 207.93 363.86 530.21 977.65 413.11 1117.12 423.84 991.58 529.28 1001.46 613.44 1103.63 620.98
00000759 00000135 951.00 206.42 362.92 536.17 977.43 413.88 1117.83 423.23 990.59 529.48 1004.09 616.83 1106.92 623.18
00000760 00000136 950.49 207.23 363.44 537.76 978.24 413.99 1118.81 425.21 990.65 531.55 1005.78 616.62 1111.26 624.29
00000761 00000137 950.85 206.17 364.28 537.15 978.66 413.15 1119.28 425.00 992.28 531.56 1006.14 615.72 1111.25 623.99
00000762 00000138 950.68 207.35 364.77 531.93 978.33 413.84 1119.08 424.90 994.03 531.77 1005.85 614.81 1111.33 622.42
00000763 00000139 950.04 208.39 365.70 527.74 977.95 414.76 1118.79 426.23 994.26 532.67 1005.28 612.31 1111.81 620.25
00000764 00000140 950.41 206.99 364.76 528.97 979.07 415.16 1118.58 428.80 994.80 534.04 1005.25 610.54 1112.50 620.15
00000765 00000141 949.36 209.73 366.78 526.27 979.00 416.37 1119.58 431.20 996.68 535.73 1004.32 609.48 1113.33 619.93
00000766 00000142 949.85 211.11 367.74 527.04 980.19 417.13 1120.92 433.92 998.91 536.54 1004.70 608.82 1114.17 620.81
00000767 00000143 950.43 211.89 367.76 525.47 981.13 416.13 1121.97 433.70 1000.26 536.05 1005.05 607.88 1114.48 620.47
00000768 00000144 950.32 211.05 370.08 523.82 980.91 416.07 1121.45 432.23 1000.95 535.81 1005.01 607.35 1114.66 618.87
00000769 00000145 951.32 209.74 372.42 524.30 980.96 414.72 1120.77 429.92 999.64 533.55 1005.92 606.94 1113.86 617.80
00000770 00000146 952.07 205.53 372.58 528.12 979.89 414.81 1120.03 427.43 998.15 531.72 1004.62 608.26 1112.20 617.25
00000771 00000147 952.14 206.05 372.61 527.46 980.35 414.46 1120.23 427.76 998.09 531.77 1004.45 607.52 1112.00 617.07
00000772 00000148 951.60 207.23 373.98 526.84 980.44 414.28 1120.79 428.47 998.51 531.99 1004.86 607.18 1112.71 617.36
00000773 00000149 950.29 210.39 372.87 526.00 980.61 416.07 1121.67 431.10 1000.20 534.01 1004.94 607.79 1113.88 618.54
00000774 00000150 950.26 209.52 372.19 526.50 980.62 416.27 1122.06 431.18 1000.46 533.82 1004.92 607.95 1114.17 618.58
00000775 00000151 950.81 209.12 372.42 527.61 981.10 415.82 1122.90 431.22 1000.42 533.48 1004.87 607.85 1114.38 618.90
00000776 00000152 950.45 205.02 372.85 530.60 980.95 414.08 1123.11 428.48 1000.02 532.04 1004.00 607.63 1114.73 618.13
00000777 00000153 949.17 204.87 372.78 531.08 979.45 414.20 1123.55 428.24 1000.15 532.39 1002.51 607.97 1114.82 618.24
00000778 00000154 949.20 202.31 372.93 533.36 978.87 413.04 1124.13 425.95 999.46 531.18 1002.55 608.02 1117.01 617.36
00000779 00000155 948.10 205.26 373.58 532.06 978.99 413.59 1125.10 427.48 1000.10 531.74 1002.27 607.37 1117.38 617.43
00000780 00000156 946.78 205.31 374.28 532.07 978.24 414.17 1125.19 427.54 1000.15 531.76 1001.84 606.99 1118.11 616.63
00000781 00000157 945.50 204.74 375.28 534.19 976.95 414.35 1125.00 427.99 998.92 532.52 1000.40 607.25 1117.66 617.10
00000782 00000158 946.98 208.03 381.40 530.82 984.69 413.49 1128.79 424.16 995.24 526.31 1004.23 606.97 1117.11 613.54
00000783 00000159 943.90 208.56 375.79 531.40 976.30 414.98 1123.80 428.71 997.98 533.25 999.90 606.72 1116.89 616.62
00000784 00000160 945.73 205.25 381.31 534.34 983.38 412.73 1129.95 423.75 995.35 526.18 1002.83 608.10 1116.26 615.17
00000785 00000161 946.61 203.46 373.86 539.16 978.87 410.40 1128.19 424.82 1000.05 529.83 1000.20 609.83 1115.39 620.67
00000786 00000162 948.98 197.78 373.79 543.74 980.68 406.87 1130.00 422.10 1001.71 529.04 1000.36 609.91 1118.78 621.42
00000787 00000163 949.07 192.57 373.95 549.45 984.44 404.84 1136.27 422.14 1008.45 528.06 1001.84 607.03 1124.11 620.33
00000788 00000164 953.08 192.85 377.76 549.43 997.22 409.32 1144.64 423.39 1011.24 521.08 1009.67 605.27 1126.29 615.08
00000789 00000165 952.81 190.84 379.95 552.31 999.56 409.23 1147.56 423.59 1015.05 519.57 1011.99 604.89 1127.58 614.96
00000790 00000166 954.23 190.72 380.56 554.64 1001.13 409.02 1151.95 422.34 1018.09 519.51 1013.53 606.78 1129.47 616.32
