Video ID: 	-lrX01TqOiU
H: 	2160
W: 	3840
FPS: 	25.0

FRAME INDEX X0 Y0 W H [Landmarks (5 Points)]

00005774 00000000 2355.26 256.50 639.04 888.24 2501.88 619.28 2779.74 604.08 2625.03 732.83 2540.99 918.81 2749.62 911.38
00005775 DELETE   2347.17 252.96 641.69 892.84 2495.06 627.94 2768.99 611.87 2615.74 739.96 2534.61 921.36 2743.36 913.12
00005776 DELETE   2339.76 254.34 645.93 892.43 2490.12 632.74 2763.19 613.73 2611.43 745.64 2532.96 926.50 2742.10 915.71
00005777 DELETE   2333.55 254.47 642.78 895.56 2485.53 632.55 2758.10 613.01 2608.37 746.67 2532.68 930.74 2736.61 919.40
00005778 00000004 2329.34 256.45 643.49 903.47 2481.76 634.50 2753.83 614.04 2605.24 750.97 2529.53 938.13 2734.84 925.96
00005779 DELETE   2328.94 256.48 643.14 909.20 2480.08 637.93 2752.28 616.44 2603.05 760.09 2527.97 944.39 2738.21 931.11
00005780 00000006 2328.97 256.32 641.38 909.44 2477.85 641.25 2751.26 619.52 2604.10 767.39 2526.77 950.54 2739.24 936.68
00005781 00000007 2330.12 244.71 633.65 928.87 2478.50 644.39 2746.45 621.09 2607.84 773.70 2519.41 957.27 2736.12 942.82
00005782 00000008 2328.29 243.87 633.72 929.69 2477.20 646.66 2744.23 622.61 2607.00 775.77 2519.31 958.69 2734.85 943.77
00005783 00000009 2326.78 243.30 636.23 933.39 2476.33 649.40 2743.57 624.85 2606.48 778.07 2517.63 960.24 2735.36 945.11
00005784 00000010 2325.09 244.27 638.26 936.58 2474.27 655.48 2741.76 630.20 2605.39 783.31 2517.31 965.00 2734.55 949.53
00005785 00000011 2324.18 249.70 639.48 933.74 2473.35 660.50 2740.88 634.73 2604.77 791.16 2519.29 971.56 2735.00 955.56
00005786 00000012 2324.15 250.86 639.99 935.83 2472.28 665.09 2741.13 638.27 2605.52 796.29 2520.24 977.13 2736.42 960.38
00005787 00000013 2324.76 251.78 639.96 935.89 2472.83 667.55 2741.67 639.72 2606.92 799.86 2522.15 979.62 2738.33 962.01
00005788 00000014 2326.31 250.90 639.44 936.91 2474.95 669.84 2743.61 641.13 2610.52 801.94 2524.63 980.27 2742.03 961.94
00005789 DELETE   2326.71 260.64 651.92 921.57 2480.02 672.54 2751.76 643.02 2617.40 801.55 2540.22 978.11 2751.29 958.85
00005790 00000016 2327.59 274.39 658.00 919.58 2490.07 685.49 2762.85 654.09 2630.52 798.07 2553.86 981.66 2763.10 961.10
00005791 00000017 2329.84 271.88 664.25 920.44 2498.28 685.08 2771.16 651.90 2640.50 791.17 2563.84 979.37 2772.10 957.11
00005792 00000018 2336.02 269.10 664.83 917.17 2500.57 674.92 2782.23 640.73 2647.31 783.15 2566.79 976.82 2780.75 953.67
00005793 DELETE   2335.92 261.67 661.49 912.38 2498.19 664.32 2779.41 630.16 2645.89 777.49 2560.31 970.04 2781.29 946.34
00005794 DELETE   2334.43 257.35 654.89 907.32 2492.23 651.97 2771.27 621.60 2635.50 770.98 2551.15 961.36 2770.52 940.55
00005795 DELETE   2330.13 257.93 651.90 898.66 2485.58 646.31 2760.90 616.07 2623.66 766.91 2544.90 954.70 2759.65 934.05
00005796 00000022 2326.98 253.77 645.52 892.47 2477.98 641.38 2751.56 616.44 2607.66 763.61 2531.26 945.10 2743.08 928.96
00005797 DELETE   2331.85 249.09 623.10 901.38 2470.95 637.49 2740.83 620.02 2588.36 760.35 2512.32 940.63 2724.96 929.65
00005798 DELETE   2330.41 251.39 617.75 908.60 2466.42 636.38 2729.29 618.94 2576.44 757.94 2506.19 942.12 2716.84 931.54
00005799 00000025 2333.04 251.52 616.94 934.38 2460.57 637.52 2722.04 609.61 2569.92 757.65 2500.65 954.97 2712.14 938.99
00005800 00000026 2331.48 254.54 616.17 938.82 2456.12 639.64 2718.33 612.16 2566.33 760.35 2496.14 959.11 2708.05 943.57
00005801 DELETE   2328.29 247.48 621.75 938.98 2451.00 644.56 2712.85 615.57 2561.90 766.22 2494.97 962.55 2700.89 946.09
00005802 DELETE   2323.46 242.84 624.93 929.51 2446.72 654.43 2709.92 624.40 2559.09 774.15 2492.78 961.89 2699.40 944.46
00005803 00000029 2318.30 241.30 629.17 931.94 2441.12 660.57 2707.31 629.59 2556.53 784.08 2487.02 965.44 2701.99 946.76
00005804 DELETE   2309.44 246.18 634.00 934.87 2433.32 672.44 2701.28 638.37 2553.52 794.36 2486.01 973.44 2701.60 952.04
00005805 00000031 2295.50 256.63 641.07 941.39 2426.48 690.55 2687.83 649.51 2550.93 812.18 2496.70 994.31 2701.00 966.90
00005806 DELETE   2282.77 259.70 648.06 952.09 2418.31 705.85 2680.56 663.12 2542.78 829.79 2491.51 1011.15 2696.76 982.47
00005807 DELETE   2277.07 256.46 640.58 974.06 2411.87 717.89 2671.37 673.11 2534.18 853.93 2483.30 1031.67 2693.28 999.40
00005808 00000034 2265.61 269.52 647.41 967.58 2401.44 728.24 2661.10 683.04 2522.60 866.36 2477.24 1038.74 2685.84 1005.79
00005809 00000035 2261.82 272.14 651.45 967.86 2396.83 731.38 2655.94 687.82 2514.34 871.90 2472.15 1041.16 2679.21 1009.74
00005810 00000036 2258.54 278.15 653.85 962.73 2393.57 731.13 2651.05 688.92 2508.52 872.99 2468.57 1039.77 2674.34 1009.25
00005811 00000037 2256.35 279.46 650.87 956.43 2391.39 731.95 2648.21 690.57 2505.48 872.98 2465.13 1037.84 2669.11 1008.04
00005812 00000038 2254.85 284.49 647.70 945.97 2388.46 732.58 2645.68 691.70 2502.89 872.47 2461.82 1035.50 2665.63 1005.90
00005813 00000039 2253.90 283.55 645.50 942.61 2387.15 731.92 2644.63 692.99 2499.30 871.92 2456.60 1033.35 2662.02 1005.34
00005814 00000040 2252.16 284.50 642.89 939.94 2385.81 731.73 2643.23 692.98 2498.32 871.34 2454.45 1033.69 2659.64 1005.77
00005815 00000041 2251.73 284.85 642.77 940.10 2385.76 731.69 2642.78 693.75 2497.09 871.19 2453.45 1033.56 2657.89 1006.29
00005816 00000042 2254.28 282.05 637.26 945.38 2382.91 730.58 2645.02 686.96 2507.72 872.26 2452.75 1039.54 2660.43 1008.02
00005817 00000043 2251.18 284.90 642.34 940.89 2386.05 733.94 2643.51 695.01 2498.95 871.82 2454.79 1035.61 2658.58 1007.75
00005818 00000044 2252.71 286.28 644.77 942.57 2387.10 735.28 2645.00 696.09 2499.83 873.00 2456.70 1036.87 2660.59 1008.97
00005819 00000045 2255.21 285.91 647.15 945.70 2388.46 736.52 2647.21 697.20 2500.62 874.02 2458.34 1038.52 2662.99 1010.65
00005820 00000046 2257.30 287.63 647.99 947.01 2391.04 735.84 2649.63 697.31 2503.91 875.89 2461.02 1038.80 2666.23 1011.37
00005821 00000047 2259.64 281.52 647.33 950.40 2394.54 736.72 2653.42 698.00 2508.29 875.66 2463.76 1039.60 2668.76 1012.28
00005822 00000048 2261.15 276.64 648.83 954.85 2397.15 736.46 2657.06 698.02 2511.67 876.70 2466.40 1039.26 2672.46 1012.14
00005823 00000049 2263.40 276.63 647.78 956.14 2400.03 738.33 2660.60 700.07 2515.74 877.72 2469.23 1040.53 2675.50 1013.66
00005824 00000050 2268.59 284.84 649.19 951.95 2407.94 749.72 2670.59 711.04 2520.79 876.57 2471.89 1043.59 2678.93 1017.26
00005825 00000051 2270.29 286.43 649.39 951.49 2409.39 750.55 2672.28 712.08 2523.99 876.60 2475.50 1045.54 2680.37 1019.49
00005826 00000052 2270.40 279.93 651.87 961.69 2410.68 746.67 2673.56 708.55 2525.30 879.69 2477.62 1046.77 2682.24 1020.83
00005827 00000053 2271.42 280.03 649.36 966.54 2409.23 743.28 2672.93 705.81 2527.70 882.79 2478.51 1049.44 2684.87 1023.69
00005828 00000054 2271.85 279.96 649.77 968.96 2409.39 740.57 2672.60 703.65 2529.72 884.42 2480.84 1050.65 2686.59 1025.01
00005829 00000055 2272.89 276.88 649.35 971.34 2409.93 737.79 2672.38 701.51 2530.07 884.40 2481.84 1051.49 2686.02 1026.23
00005830 00000056 2273.45 276.47 647.06 971.51 2411.53 737.64 2673.25 700.86 2532.30 882.39 2483.32 1051.22 2687.29 1025.61
00005831 00000057 2272.70 274.06 649.92 975.14 2412.45 736.65 2674.74 699.75 2533.62 879.11 2484.00 1049.86 2688.09 1024.22
00005832 00000058 2273.02 275.23 648.91 972.47 2413.50 735.76 2676.05 698.62 2535.96 875.72 2485.01 1048.62 2688.52 1022.81
00005833 00000059 2273.11 269.48 650.51 979.45 2415.15 733.27 2677.12 695.84 2537.39 872.50 2487.42 1048.43 2689.86 1022.47
00005834 00000060 2274.90 270.69 651.13 981.23 2416.43 729.08 2678.90 692.50 2538.01 867.51 2487.59 1047.46 2690.59 1022.18
00005835 00000061 2277.47 270.55 649.79 986.88 2418.22 724.94 2680.33 688.41 2538.28 862.80 2487.18 1047.04 2693.67 1021.76
00005836 00000062 2280.25 270.32 649.43 992.08 2421.38 719.26 2682.17 682.80 2539.39 857.26 2487.29 1045.73 2698.23 1020.29
00005837 00000063 2283.93 270.61 643.25 994.16 2423.49 713.54 2683.22 678.24 2539.60 850.85 2486.58 1044.90 2697.83 1020.28
00005838 00000064 2293.26 283.88 634.15 984.73 2427.46 711.63 2689.49 682.31 2537.10 844.09 2483.39 1041.10 2693.58 1021.57
00005839 00000065 2299.78 285.34 627.27 976.12 2426.63 708.47 2685.43 685.21 2529.67 834.08 2473.29 1031.84 2678.06 1017.89
00005840 00000066 2303.22 275.39 626.51 947.96 2425.69 694.32 2690.54 685.96 2522.86 827.68 2454.33 1008.00 2654.99 1005.44
00005841 DELETE   2305.48 256.15 628.12 941.51 2426.64 683.88 2690.73 684.19 2509.58 820.02 2441.03 985.97 2637.68 989.77
00005842 DELETE   2311.91 248.99 623.78 943.74 2432.57 672.65 2696.36 678.49 2515.91 816.99 2441.95 979.39 2640.20 987.67
00005843 DELETE   2319.94 247.95 621.84 954.25 2440.93 667.32 2704.65 673.07 2527.52 814.80 2451.75 982.27 2651.81 990.87
00005844 00000070 2330.41 248.13 620.64 964.26 2454.49 666.01 2713.66 674.38 2537.37 818.30 2463.43 987.19 2659.46 997.66
00005845 00000071 2338.11 254.38 614.96 962.73 2462.71 666.70 2719.98 677.08 2547.97 826.38 2472.23 991.35 2664.02 1003.17
00005846 00000072 2339.43 258.01 618.97 960.04 2468.88 671.64 2724.19 683.24 2554.01 835.52 2479.55 993.68 2667.38 1006.22
00005847 00000073 2338.18 270.31 623.59 941.41 2471.86 674.64 2727.28 687.04 2559.22 832.03 2480.43 992.13 2669.50 1005.26
00005848 00000074 2345.58 260.77 621.88 956.26 2477.72 674.20 2737.83 688.97 2563.61 841.62 2488.47 997.80 2675.95 1012.29
00005849 00000075 2348.27 270.00 632.05 944.92 2484.47 676.39 2743.19 688.72 2570.45 838.66 2492.14 997.91 2678.02 1011.31
00005850 00000076 2350.88 272.42 631.59 941.39 2488.55 676.06 2748.48 690.24 2576.00 838.62 2494.23 996.14 2679.89 1011.04
00005851 00000077 2353.18 274.39 631.27 938.17 2492.21 676.60 2753.98 691.26 2581.94 837.58 2498.73 995.12 2685.76 1010.20
00005852 00000078 2354.44 274.45 633.84 939.34 2494.83 678.25 2756.07 692.14 2585.56 837.89 2502.12 996.35 2688.37 1010.72
00005853 00000079 2354.68 272.60 636.62 938.51 2496.24 679.79 2760.86 693.82 2588.32 839.44 2504.68 998.48 2694.35 1012.54
00005854 00000080 2356.10 272.89 636.66 938.94 2497.72 681.05 2761.85 695.02 2589.99 842.86 2507.10 1000.89 2696.50 1014.57
00005855 00000081 2356.85 275.98 637.84 936.44 2498.74 682.17 2762.14 695.84 2590.42 846.09 2508.69 1001.76 2697.98 1015.01
00005856 00000082 2356.66 274.13 638.91 937.66 2499.60 683.38 2763.48 696.16 2592.14 845.70 2511.23 1002.56 2701.29 1014.89
00005857 00000083 2357.56 274.20 638.17 935.90 2500.04 682.66 2764.45 695.73 2592.72 845.53 2512.32 1002.21 2702.53 1014.65
00005858 00000084 2357.68 275.58 638.50 933.00 2500.04 681.38 2765.35 695.15 2593.20 843.01 2511.53 1000.12 2702.30 1013.17
00005859 00000085 2358.11 273.74 638.84 932.51 2499.91 679.40 2765.53 693.19 2592.84 842.18 2511.45 998.05 2702.84 1011.15
00005860 00000086 2357.60 272.39 638.50 932.22 2499.66 678.84 2764.95 692.75 2592.48 841.52 2510.90 996.67 2702.25 1009.87
00005861 00000087 2357.70 270.46 638.82 931.00 2499.21 677.80 2765.23 691.96 2591.43 840.02 2509.68 994.61 2701.66 1008.12
00005862 00000088 2356.61 270.73 639.89 929.81 2499.04 676.54 2765.62 691.54 2590.64 839.45 2508.60 994.44 2701.08 1008.56
00005863 00000089 2355.73 270.48 639.58 930.56 2498.43 677.21 2764.50 691.78 2590.67 839.86 2508.01 995.13 2699.93 1008.98
00005864 00000090 2355.55 271.05 638.84 931.03 2497.88 677.09 2763.38 692.27 2589.66 840.71 2507.08 995.18 2699.06 1009.56
00005865 00000091 2354.40 269.91 639.63 932.66 2497.34 677.72 2762.93 692.45 2589.83 839.80 2506.48 995.91 2698.30 1010.04
00005866 00000092 2354.19 270.29 639.62 931.29 2497.12 677.88 2763.04 692.58 2589.82 841.13 2507.02 996.31 2699.21 1010.33
00005867 00000093 2354.74 270.41 638.48 930.54 2497.53 677.02 2763.08 692.05 2590.03 841.81 2507.31 995.80 2698.81 1010.02
00005868 00000094 2354.28 269.60 639.17 930.36 2497.27 677.26 2764.11 691.98 2590.68 841.27 2507.57 996.15 2700.33 1010.07
00005869 00000095 2356.13 273.27 638.29 925.10 2499.21 684.00 2765.98 697.41 2590.95 840.63 2509.04 995.42 2702.01 1008.18
00005870 00000096 2357.11 280.99 640.54 917.60 2499.60 692.72 2768.67 704.29 2591.57 834.12 2509.98 994.29 2702.44 1005.85
00005871 00000097 2358.07 281.59 640.16 917.11 2501.29 690.42 2769.17 703.14 2591.79 834.83 2510.97 992.79 2702.40 1005.19
00005872 00000098 2358.82 278.67 639.28 920.44 2501.80 686.00 2769.62 699.28 2593.27 834.91 2511.84 992.40 2702.74 1005.16
00005873 00000099 2359.37 273.98 638.62 923.69 2502.57 681.29 2771.04 696.43 2595.16 837.55 2512.62 992.04 2705.31 1005.91
00005874 00000100 2358.30 271.55 639.17 925.45 2502.69 679.10 2770.07 694.51 2596.87 837.37 2512.59 990.76 2707.76 1005.06
00005875 00000101 2358.76 271.00 638.86 926.10 2503.19 677.23 2770.22 692.77 2597.08 837.48 2513.30 990.50 2707.88 1004.85
00005876 00000102 2358.36 270.30 640.15 927.02 2502.97 676.17 2770.86 691.72 2597.33 837.67 2513.37 990.20 2708.60 1004.58
00005877 00000103 2358.56 269.40 640.24 927.52 2503.27 675.51 2770.59 690.95 2597.04 837.90 2513.56 989.90 2708.24 1004.24
00005878 00000104 2357.70 269.10 641.34 927.32 2503.11 674.88 2770.47 690.53 2596.61 837.38 2513.22 989.54 2707.82 1004.08
00005879 00000105 2357.73 269.07 640.23 926.99 2502.51 675.15 2770.25 690.63 2596.51 836.96 2512.28 989.47 2707.81 1003.89
00005880 00000106 2358.00 269.31 640.34 926.90 2502.44 674.47 2769.21 690.17 2595.19 837.09 2511.48 989.19 2706.06 1003.77
00005881 00000107 2357.24 268.88 639.50 926.05 2501.74 674.78 2769.05 690.22 2595.23 836.37 2511.10 989.50 2706.05 1003.87
00005882 00000108 2357.12 269.48 640.00 925.57 2501.04 674.74 2769.07 690.41 2594.40 837.16 2510.41 989.91 2705.68 1004.47
00005883 00000109 2356.82 268.41 640.19 925.24 2501.39 673.76 2767.98 689.48 2593.77 837.23 2510.49 988.90 2704.38 1003.43
00005884 00000110 2356.62 268.70 640.39 925.42 2501.08 672.05 2768.31 687.67 2594.00 835.56 2509.98 988.30 2704.84 1002.79
00005885 00000111 2356.81 265.97 640.48 927.06 2502.17 670.25 2768.44 685.71 2594.73 832.75 2510.68 985.85 2705.23 1000.42
00005886 00000112 2356.54 267.08 639.08 925.71 2502.38 668.22 2769.37 683.61 2596.64 828.77 2510.74 983.61 2706.36 998.31
00005887 00000113 2357.50 264.50 637.05 929.05 2502.99 665.68 2770.84 680.64 2599.62 822.90 2511.03 980.73 2707.49 995.43
00005888 00000114 2357.83 261.79 640.00 931.80 2503.46 662.15 2770.95 675.27 2601.02 820.07 2513.38 978.71 2707.73 992.13
00005889 00000115 2357.98 262.79 638.51 929.94 2504.15 660.73 2772.93 673.45 2605.83 813.45 2515.56 976.56 2709.23 989.97
00005890 00000116 2359.58 270.31 640.47 923.76 2507.30 668.37 2776.84 679.81 2605.95 802.86 2514.86 973.23 2708.75 986.29
00005891 00000117 2358.99 269.72 643.85 927.46 2506.41 668.50 2777.76 679.02 2607.12 800.06 2514.80 973.04 2710.56 985.54
00005892 00000118 2359.45 267.24 642.69 931.97 2507.28 662.65 2780.11 675.15 2609.21 799.98 2514.28 971.69 2712.92 985.82
00005893 00000119 2358.56 265.75 644.02 935.94 2505.41 656.54 2780.71 670.23 2609.42 803.14 2514.05 973.18 2715.92 987.73
00005894 00000120 2357.95 265.65 642.68 932.53 2505.43 655.50 2779.82 670.04 2609.66 809.04 2514.06 972.72 2717.13 987.80
00005895 00000121 2356.51 265.50 643.77 927.74 2507.16 655.84 2781.80 672.26 2611.06 816.01 2514.61 972.48 2719.67 988.69
00005896 00000122 2355.52 264.82 647.44 927.71 2508.82 659.89 2782.52 675.71 2610.64 821.08 2517.27 974.78 2721.80 990.34
00005897 00000123 2355.79 265.26 647.55 921.41 2510.00 659.95 2782.28 676.03 2611.57 822.05 2518.36 971.60 2721.42 987.38
00005898 00000124 2355.95 264.90 647.79 922.38 2510.29 659.04 2781.76 674.16 2613.15 818.78 2519.64 970.43 2718.63 985.71
00005899 00000125 2355.80 263.69 648.50 925.07 2509.22 656.52 2781.74 669.90 2613.75 813.85 2520.48 970.33 2716.19 984.45
00005900 00000126 2353.21 262.50 650.18 924.10 2508.52 654.08 2782.65 666.88 2615.42 808.80 2520.36 968.64 2717.72 982.43
00005901 00000127 2351.21 259.99 652.96 924.18 2507.77 653.10 2783.06 665.90 2615.77 808.70 2520.44 966.11 2719.81 979.94
00005902 00000128 2349.90 259.06 653.59 926.49 2506.82 653.54 2780.75 666.31 2613.71 809.73 2519.76 967.20 2717.18 981.02
00005903 00000129 2348.31 259.80 653.36 927.67 2505.68 656.54 2777.06 669.33 2611.40 812.76 2518.58 969.72 2714.39 983.49
00005904 00000130 2347.74 265.02 653.30 926.06 2504.98 659.63 2776.19 672.09 2609.73 816.22 2518.84 973.15 2713.43 986.55
00005905 00000131 2345.52 266.90 654.45 920.26 2504.38 662.55 2776.85 676.70 2609.26 821.46 2518.18 973.32 2716.33 987.75
00005906 00000132 2346.71 267.08 652.23 916.44 2502.75 661.59 2777.94 678.44 2607.79 822.91 2513.25 971.82 2717.32 987.97
00005907 00000133 2346.63 266.18 651.40 910.89 2502.11 659.46 2775.74 676.34 2606.20 821.40 2513.18 966.39 2715.70 982.73
00005908 00000134 2345.09 264.60 653.85 920.68 2501.37 656.82 2776.01 672.45 2606.50 815.58 2512.19 964.21 2717.47 980.15
00005909 00000135 2344.12 264.14 656.60 929.63 2498.24 654.29 2775.50 664.79 2606.11 807.73 2515.03 974.64 2715.43 986.62
00005910 00000136 2341.92 264.13 655.26 938.21 2495.70 655.37 2775.56 666.58 2604.21 802.62 2507.27 980.07 2711.27 992.61
00005911 00000137 2341.06 276.48 655.37 915.72 2497.48 669.77 2776.57 681.80 2600.62 801.84 2504.01 972.32 2708.70 985.87
00005912 00000138 2340.07 274.47 653.54 908.36 2497.56 668.69 2776.88 682.84 2599.93 801.71 2500.16 965.95 2707.13 981.27
00005913 00000139 2341.18 274.54 651.89 905.79 2497.81 661.28 2778.07 677.85 2600.57 798.81 2499.09 960.59 2706.88 977.89
00005914 00000140 2339.60 271.63 650.70 902.54 2496.72 647.09 2773.97 665.67 2599.57 795.88 2497.41 952.23 2701.41 970.93
00005915 00000141 2337.55 262.43 651.16 901.04 2495.71 638.42 2772.80 655.49 2599.70 789.49 2499.70 946.27 2703.95 963.43
00005916 00000142 2334.95 258.37 652.67 886.42 2496.52 630.28 2774.36 649.95 2608.30 781.52 2502.16 934.89 2704.25 955.35
00005917 00000143 2336.53 259.92 647.78 885.16 2494.76 626.38 2775.70 647.21 2608.11 778.69 2497.63 928.77 2710.86 949.92
00005918 00000144 2336.07 259.46 647.21 887.70 2494.74 624.92 2774.54 646.04 2608.39 777.76 2497.86 928.86 2708.79 950.15
00005919 00000145 2335.93 261.35 646.85 894.49 2494.30 626.79 2771.72 647.17 2607.20 777.80 2499.45 936.92 2700.77 957.85
00005920 00000146 2335.60 258.57 637.94 911.88 2491.53 640.89 2756.32 656.25 2594.30 777.25 2500.04 944.95 2692.37 960.19
00005921 00000147 2334.04 256.40 638.19 911.47 2490.05 639.97 2757.11 656.67 2593.16 777.27 2497.25 944.11 2692.11 960.46
00005922 00000148 2336.74 261.08 641.37 894.78 2493.52 624.54 2771.01 648.53 2605.66 774.80 2494.32 936.16 2697.74 960.00
00005923 00000149 2337.97 261.04 633.05 898.42 2492.69 626.47 2766.82 647.63 2600.79 773.02 2487.77 937.11 2699.79 957.34
00005924 00000150 2334.68 262.74 644.44 914.00 2492.92 618.54 2774.14 642.97 2605.96 767.24 2496.20 937.34 2701.62 961.50
00005925 00000151 2337.01 273.54 644.56 924.61 2489.93 617.41 2778.53 642.27 2604.52 764.88 2494.96 944.70 2707.42 969.48
00005926 00000152 2335.31 272.71 646.47 923.45 2489.12 620.43 2778.78 644.68 2604.69 770.45 2493.09 943.68 2712.56 967.83
00005927 00000153 2332.07 269.02 652.31 921.29 2489.95 624.82 2776.42 648.31 2604.52 777.67 2494.02 943.40 2709.12 966.95
00005928 00000154 2331.85 256.10 641.96 927.17 2487.53 640.40 2758.75 658.73 2592.02 786.59 2487.92 941.74 2702.44 960.23
00005929 00000155 2328.31 258.21 642.33 918.55 2482.04 646.49 2754.65 664.86 2588.60 795.34 2487.12 946.96 2698.78 964.96
00005930 00000156 2326.05 260.39 645.23 919.81 2478.88 651.03 2749.39 669.78 2582.00 801.42 2481.78 950.75 2693.58 969.06
00005931 00000157 2323.55 261.16 645.55 925.19 2478.98 654.48 2745.52 673.44 2580.12 807.10 2483.91 955.88 2688.37 974.50
00005932 00000158 2321.97 259.96 643.81 932.95 2477.27 658.72 2744.98 677.21 2578.96 809.66 2481.79 962.08 2687.35 980.55
00005933 00000159 2323.22 253.46 642.80 943.14 2474.38 660.97 2750.43 678.13 2583.19 817.98 2481.57 974.77 2690.14 992.08
00005934 00000160 2319.71 256.01 639.67 942.36 2472.40 667.03 2748.07 684.02 2581.72 823.27 2480.23 978.28 2689.20 995.39
00005935 00000161 2316.70 257.44 638.20 942.13 2468.74 671.53 2746.03 690.31 2578.32 833.22 2477.57 982.29 2687.68 1000.50
