Video ID: 	nnOLP-bkxnQ
H: 	1080
W: 	1920
FPS: 	25.0

FRAME INDEX X0 Y0 W H [Landmarks (5 Points)]

00005480 00000000 655.55 173.09 452.15 655.42 836.57 429.41 1033.37 449.09 958.30 559.28 840.59 665.81 991.14 682.98
00005481 00000001 654.20 172.12 451.46 653.98 835.89 425.24 1032.16 440.92 960.37 556.12 844.28 664.12 995.57 677.95
00005482 00000002 655.84 168.42 449.10 655.07 839.49 423.63 1033.70 438.30 964.78 556.66 849.98 665.36 996.65 678.41
00005483 00000003 659.19 165.59 446.73 659.31 844.34 421.92 1035.23 437.12 969.21 556.41 853.07 663.74 1000.21 677.24
00005484 00000004 661.53 168.50 443.83 655.14 848.01 423.59 1039.36 439.36 975.88 547.78 855.61 660.45 1006.04 674.65
00005485 00000005 663.73 164.71 445.93 658.02 851.35 420.63 1043.57 434.20 982.42 537.29 859.87 655.65 1012.82 667.76
00005486 00000006 667.41 156.41 442.22 656.77 856.32 412.93 1045.62 428.17 987.44 525.46 864.04 645.76 1016.17 658.74
00005487 00000007 664.03 149.00 446.32 661.92 856.96 406.33 1042.61 424.12 985.70 521.96 862.37 639.71 1013.13 654.46
00005488 00000008 661.59 145.53 447.72 664.42 853.36 400.50 1042.27 421.04 981.07 522.68 855.31 638.89 1008.50 655.84
00005489 00000009 660.94 145.08 448.30 654.31 853.57 394.71 1040.94 416.07 977.30 517.95 853.73 629.05 1005.04 646.15
00005490 00000010 660.18 136.97 448.77 650.43 847.35 383.99 1041.02 403.76 978.53 501.36 853.41 613.38 1014.17 628.63
00005491 00000011 651.38 122.64 455.93 653.93 842.65 372.64 1038.99 388.03 978.00 485.65 856.83 606.03 1009.80 619.49
00005492 00000012 646.17 119.02 450.64 649.14 841.28 366.44 1030.96 380.93 974.85 476.27 856.75 597.93 1003.34 610.78
00005493 00000013 634.44 107.82 453.85 651.64 831.02 353.36 1025.20 369.68 966.92 462.38 846.33 589.33 997.03 603.81
00005494 00000014 629.27 110.18 447.02 642.17 818.01 346.02 1012.66 356.87 962.97 451.93 839.87 586.84 991.54 594.90
00005495 DELETE   620.17 103.95 448.61 643.65 806.53 346.39 999.24 356.15 945.33 443.36 828.53 580.35 981.03 586.91
00005496 00000016 611.12 88.49 449.09 647.56 793.02 340.45 987.60 351.34 927.72 438.10 810.43 567.94 972.77 576.54
00005497 00000017 605.98 83.56 451.70 637.37 780.41 337.45 981.81 345.25 918.67 425.60 801.86 554.45 973.26 560.31
00005498 00000018 600.59 80.85 452.64 636.58 774.87 331.51 974.92 338.42 915.49 415.34 798.20 547.71 970.26 552.78
00005499 00000019 597.55 83.26 449.59 635.90 768.40 330.20 971.69 334.82 911.49 415.96 794.31 551.95 967.07 555.34
00005500 00000020 595.07 83.94 448.35 638.68 771.17 331.93 967.58 337.70 910.10 420.01 798.74 557.25 960.50 561.69
00005501 00000021 599.83 81.11 445.04 648.00 777.36 336.40 972.15 344.01 914.71 424.80 802.31 562.63 963.29 568.79
00005502 00000022 605.65 85.58 446.07 661.14 785.29 343.90 978.82 349.47 925.42 436.11 810.55 573.64 973.88 577.93
00005503 00000023 608.82 105.89 450.90 654.52 793.81 351.32 987.80 355.42 935.35 449.96 823.01 587.96 976.99 589.05
00005504 00000024 616.48 116.53 447.01 654.37 801.81 356.69 996.31 365.61 945.53 456.05 826.44 597.62 982.79 603.33
00005505 00000025 620.54 118.49 447.07 653.75 806.80 360.07 1002.50 369.10 952.54 461.70 831.36 602.37 987.77 608.54
00005506 00000026 624.84 120.63 444.64 647.97 811.54 364.92 1006.37 374.52 956.08 466.29 835.24 603.03 990.11 609.82
00005507 00000027 626.12 123.43 446.11 645.71 813.36 370.39 1007.39 379.20 957.40 472.07 837.71 605.74 991.45 611.88
00005508 00000028 627.71 128.54 446.30 641.18 812.03 374.79 1007.23 382.75 955.40 475.34 835.85 607.07 991.71 612.41
00005509 00000029 630.09 137.52 444.34 632.37 808.95 379.06 1007.10 384.17 952.54 479.10 835.04 609.82 994.05 612.92
00005510 00000030 631.97 139.73 443.38 629.80 807.86 381.58 1007.55 385.43 953.20 480.87 834.64 611.00 995.84 613.14
00005511 00000031 631.76 140.16 443.89 629.73 805.97 382.30 1006.78 386.21 951.82 481.49 832.42 611.04 995.04 613.33
00005512 00000032 629.85 140.46 444.36 631.08 802.53 381.83 1003.75 386.71 946.58 483.21 829.46 612.61 990.90 615.46
00005513 00000033 628.53 140.56 444.43 632.51 798.05 382.23 999.57 388.57 938.11 486.75 825.57 614.87 985.94 618.80
00005514 00000034 623.98 141.46 448.28 633.79 794.71 380.95 995.29 389.24 931.12 487.54 821.32 614.36 980.49 619.68
00005515 00000035 620.16 140.23 449.70 636.12 789.64 381.57 991.38 389.13 925.69 487.30 817.34 616.10 976.68 620.75
00005516 00000036 618.05 138.84 449.50 639.88 785.99 383.08 988.41 390.33 920.17 488.50 811.92 617.13 972.75 621.63
00005517 00000037 614.29 139.66 450.54 642.90 781.50 382.96 984.40 391.34 914.80 491.33 803.95 618.72 967.09 624.36
00005518 00000038 612.53 138.31 449.44 646.11 776.32 384.08 980.30 393.10 909.14 491.46 796.26 619.80 962.81 626.35
00005519 00000039 607.25 136.62 451.09 651.56 769.61 385.25 974.80 393.44 903.78 491.99 788.24 621.15 958.23 627.26
00005520 00000040 603.25 142.54 452.68 647.25 762.50 383.51 969.75 392.67 895.26 493.55 779.53 621.58 952.24 628.72
00005521 00000041 600.35 141.35 454.57 649.37 757.86 383.08 964.51 394.36 888.39 494.27 772.07 620.23 945.33 629.23
00005522 00000042 596.98 143.08 454.15 649.65 752.15 383.86 959.74 395.12 881.49 493.79 765.60 621.11 940.05 630.14
00005523 00000043 593.12 140.96 454.82 653.13 749.05 383.60 956.44 393.92 878.80 493.08 764.11 623.05 936.98 631.37
00005524 00000044 594.48 142.18 452.09 642.82 746.38 384.73 956.56 393.11 875.33 493.49 766.71 621.48 936.41 627.64
00005525 00000045 592.10 140.87 453.00 642.56 742.95 383.63 955.12 392.45 872.53 495.30 763.36 620.19 935.72 626.51
00005526 00000046 590.37 139.76 449.84 641.96 740.86 381.49 949.20 391.20 867.74 490.93 760.48 617.18 928.29 624.45
00005527 00000047 586.61 138.82 452.65 647.44 741.68 379.07 944.68 389.52 865.07 490.05 760.86 616.99 921.63 625.30
00005528 00000048 585.47 137.95 451.92 644.10 740.00 379.28 944.50 390.96 863.40 490.16 758.42 615.99 920.92 625.28
00005529 00000049 586.30 138.24 450.62 639.96 740.26 380.48 943.75 391.43 863.04 490.13 759.62 614.33 920.88 622.80
00005530 00000050 584.95 139.25 451.45 641.77 745.30 381.26 946.19 390.29 869.51 488.76 766.95 614.96 923.58 621.61
00005531 00000051 590.99 139.48 450.01 637.74 753.25 378.73 953.47 386.24 880.53 483.07 780.32 612.98 935.93 617.88
00005532 00000052 600.65 135.41 444.31 638.88 765.46 374.46 960.28 381.52 893.37 474.54 796.34 611.48 945.05 615.38
00005533 00000053 607.71 128.10 436.87 638.31 772.45 370.14 966.38 374.11 904.31 461.76 810.21 606.26 955.70 607.23
00005534 00000054 609.90 118.45 437.77 639.96 779.56 368.89 974.60 370.57 916.15 455.75 818.40 599.94 965.41 598.96
00005535 00000055 609.92 120.43 441.57 629.02 788.36 368.20 980.55 369.86 924.65 452.43 824.35 589.63 972.68 588.69
00005536 00000056 610.75 119.98 442.70 626.06 787.23 365.97 982.41 369.47 923.73 451.00 822.85 587.34 973.01 587.80
00005537 00000057 609.53 119.74 443.83 636.00 780.26 367.01 976.96 370.04 914.35 454.53 815.18 593.19 966.42 593.44
00005538 00000058 605.43 121.03 443.07 649.25 772.88 365.68 970.73 375.41 903.94 463.10 798.05 601.27 950.83 607.36
00005539 00000059 600.24 127.08 444.35 650.24 763.77 366.65 962.37 377.62 893.82 467.94 784.49 604.33 941.52 611.72
00005540 00000060 591.74 129.17 447.73 647.14 750.62 367.84 953.78 378.85 881.86 466.05 773.74 604.80 934.46 612.31
00005541 00000061 583.08 131.12 450.95 642.46 742.17 366.43 947.50 378.34 874.19 465.38 764.83 601.79 930.09 610.20
00005542 00000062 580.95 131.21 449.35 642.20 738.12 364.94 945.21 376.00 869.72 467.54 758.09 599.90 928.51 607.62
00005543 00000063 578.75 129.87 448.71 641.84 736.73 364.09 943.96 375.74 867.89 468.22 756.13 599.13 927.49 607.22
00005544 00000064 577.84 130.98 449.02 641.45 735.50 364.01 943.09 375.08 867.00 468.20 755.14 599.17 928.33 606.70
00005545 00000065 576.54 129.80 448.83 640.58 733.08 363.48 942.30 374.02 865.33 468.53 754.80 599.60 928.48 606.59
00005546 00000066 574.40 130.47 449.07 640.08 732.19 363.16 939.87 374.18 863.17 467.59 753.26 598.42 926.04 605.82
00005547 00000067 574.30 129.99 448.55 640.81 731.71 363.51 938.31 373.70 862.29 468.80 752.94 599.12 924.81 605.91
00005548 00000068 574.41 132.01 448.57 639.65 731.24 364.28 936.72 373.81 861.17 468.46 752.76 600.00 923.92 606.40
00005549 00000069 575.51 133.10 448.65 640.35 731.74 364.75 937.41 374.21 861.79 469.79 753.57 601.65 924.24 608.18
00005550 00000070 577.01 134.24 449.24 641.38 732.59 365.15 939.14 374.36 862.69 471.37 754.25 603.09 925.11 609.47
00005551 00000071 579.76 135.21 448.58 642.59 733.63 364.94 940.82 375.41 863.60 472.56 753.75 605.79 925.76 613.47
00005552 00000072 580.68 136.87 450.36 643.88 734.16 366.17 943.42 378.35 864.82 474.08 752.60 608.35 927.40 617.70
00005553 00000073 583.13 135.98 449.97 644.33 736.07 371.09 946.18 383.37 867.60 475.36 752.96 608.40 931.45 617.99
00005554 00000074 592.67 131.67 447.64 647.69 740.37 376.15 956.57 392.01 875.04 469.15 756.55 607.67 942.38 620.14
00005555 00000075 602.88 131.53 443.34 635.37 752.79 377.75 965.86 389.54 885.84 469.33 774.41 605.35 950.40 614.06
00005556 00000076 607.47 131.48 446.83 634.68 764.98 379.02 969.69 386.69 894.50 473.63 786.92 603.15 954.27 608.12
00005557 00000077 611.85 132.44 447.11 633.56 768.44 374.73 971.74 382.83 897.09 474.47 792.45 603.92 957.04 609.11
00005558 00000078 616.15 135.67 445.83 632.31 773.44 375.28 974.63 382.82 900.23 478.12 799.02 606.73 960.93 611.43
00005559 00000079 617.28 135.57 448.56 646.70 776.30 378.82 979.50 387.15 905.56 483.86 800.07 617.00 961.70 622.67
00005560 00000080 618.99 135.61 449.75 654.31 779.13 385.13 982.51 393.53 907.76 489.28 802.58 623.89 964.19 629.52
00005561 00000081 619.45 142.34 450.13 645.99 780.62 390.75 984.25 396.79 909.66 499.39 806.22 628.77 966.76 632.24
00005562 00000082 619.32 147.26 450.55 644.07 781.42 394.04 983.94 401.21 909.85 504.09 805.88 631.66 964.94 636.28
00005563 00000083 618.23 146.52 450.59 650.68 777.28 395.17 981.06 404.59 903.48 508.26 798.72 637.38 958.18 644.23
00005564 00000084 615.88 147.41 450.60 649.17 766.72 398.33 974.99 407.88 891.91 514.04 784.41 640.05 950.25 647.27
00005565 00000085 609.96 150.15 451.88 645.05 757.97 400.09 968.07 410.07 882.16 517.17 774.53 641.55 940.96 649.48
00005566 00000086 605.16 150.42 454.32 644.97 754.93 399.05 966.55 412.22 878.71 515.94 767.71 638.05 937.26 648.73
00005567 00000087 607.45 147.36 446.19 642.32 764.20 396.90 967.31 406.49 889.47 510.06 782.08 633.65 943.14 640.88
00005568 00000088 607.70 140.44 445.32 638.18 773.06 390.65 973.04 395.00 908.52 493.36 801.17 621.13 960.22 623.47
00005569 00000089 609.34 136.50 443.46 633.98 777.22 383.05 974.82 382.55 915.09 480.10 814.36 611.89 969.90 609.75
00005570 00000090 610.78 133.72 438.79 636.70 784.21 376.99 974.61 376.21 922.93 470.59 826.14 610.39 972.10 607.84
00005571 00000091 613.42 132.23 439.92 633.73 786.49 373.17 978.55 371.58 927.37 467.48 830.58 606.39 978.88 602.87
00005572 00000092 618.99 132.27 440.56 628.55 795.33 377.21 988.24 376.21 937.64 470.99 840.20 609.28 985.13 606.76
00005573 DELETE   626.37 141.16 440.87 617.57 803.28 384.51 997.06 381.96 948.33 478.58 846.50 615.88 992.33 612.24
00005574 DELETE   634.53 136.21 448.61 632.96 814.49 392.62 1005.74 397.09 949.10 486.95 846.02 612.33 1000.08 614.50
00005575 DELETE   644.22 142.34 453.26 647.19 828.31 401.48 1015.99 406.76 958.79 497.90 854.88 626.04 1003.46 629.72
00005576 00000096 651.53 143.31 453.67 660.59 843.16 405.40 1029.95 417.09 975.02 505.32 859.57 634.47 1010.38 643.85
00005577 00000097 669.27 152.51 442.27 664.57 852.19 411.99 1042.34 420.35 985.79 515.79 873.18 649.29 1026.69 656.11
00005578 00000098 678.81 157.51 444.70 667.09 856.93 416.16 1050.49 421.78 991.11 524.92 882.88 657.62 1036.67 662.14
00005579 00000099 685.74 178.37 444.39 649.33 854.64 419.56 1055.73 418.19 993.33 528.03 892.16 665.89 1040.18 662.26
00005580 00000100 688.04 180.85 443.88 652.71 855.15 422.89 1055.36 426.73 990.38 535.71 886.84 670.81 1036.01 671.73
00005581 00000101 690.81 184.48 445.08 650.97 853.55 429.05 1055.17 435.51 986.08 545.86 883.29 675.45 1033.10 678.71
00005582 00000102 690.25 175.73 451.93 657.71 851.47 441.83 1055.25 446.22 979.42 559.63 877.47 680.50 1033.50 683.70
00005583 00000103 697.89 193.44 453.85 652.62 860.47 454.45 1064.61 455.69 990.78 566.61 891.89 694.29 1047.75 693.07
00005584 00000104 704.56 202.80 454.84 659.21 875.96 461.00 1071.89 471.73 996.75 583.46 894.01 700.01 1044.37 708.49
00005585 00000105 707.34 212.21 458.33 672.00 889.67 476.31 1081.47 484.29 1015.09 601.86 907.51 718.81 1059.19 725.31
00005586 00000106 716.16 224.34 457.92 676.97 900.60 494.70 1096.97 506.72 1027.24 626.91 917.25 742.08 1064.36 752.23
00005587 DELETE   729.17 247.35 457.02 680.21 913.47 518.49 1111.46 529.10 1039.55 657.13 931.50 772.06 1074.89 781.36
00005588 DELETE   736.08 265.46 450.16 681.43 925.05 533.32 1114.51 543.45 1053.19 674.66 943.21 791.80 1083.73 798.80
00005589 00000109 739.64 276.88 447.65 683.41 928.06 548.39 1116.76 557.23 1056.70 689.58 941.27 804.29 1085.75 811.08
00005590 00000110 734.36 287.20 451.67 677.88 925.03 551.57 1114.26 561.16 1051.11 697.35 935.72 808.78 1078.93 816.76
00005591 00000111 726.04 285.67 459.00 692.30 919.54 551.68 1110.95 562.90 1046.39 701.49 926.53 813.30 1069.43 822.88
00005592 00000112 722.53 286.50 459.98 695.38 915.60 548.16 1107.75 560.93 1042.71 700.34 921.01 814.96 1062.73 826.17
00005593 00000113 716.44 281.80 459.32 697.74 911.14 546.33 1102.36 559.43 1038.96 696.63 916.21 809.90 1058.66 821.26
00005594 00000114 710.60 284.64 459.35 687.01 906.14 550.81 1095.70 560.58 1033.50 699.88 909.62 805.34 1056.21 814.41
00005595 00000115 702.83 291.10 460.94 673.73 897.98 552.44 1089.80 562.25 1025.44 700.56 902.39 800.04 1053.30 809.18
00005596 00000116 699.15 279.47 459.11 686.45 892.67 552.67 1082.90 564.32 1018.98 698.20 893.96 796.13 1047.11 806.71
00005597 00000117 694.13 275.62 459.21 689.78 888.42 550.60 1077.17 562.91 1014.65 696.59 888.36 793.17 1042.97 804.29
00005598 00000118 690.23 273.31 461.38 684.55 885.68 545.46 1072.03 557.13 1008.74 692.16 885.22 785.30 1040.25 795.63
00005599 00000119 686.94 277.14 455.79 673.70 877.26 547.96 1065.85 549.07 1006.18 688.82 892.29 792.65 1040.42 791.65
CROP_BBOX: 250 0 1511 1080
