Video ID: 	qKsOH3s4S_g
H: 	1080
W: 	1920
FPS: 	23.976023976023978

FRAME INDEX X0 Y0 W H [Landmarks (5 Points)]

00000041 00000000 825.94 223.42 403.98 605.73 878.24 490.39 1049.34 487.46 931.97 604.55 913.85 683.73 1060.05 679.69
00000042 00000001 815.44 234.37 408.56 601.88 871.76 498.07 1035.71 492.91 922.82 608.83 910.88 687.28 1057.70 681.21
00000043 00000002 809.08 243.61 410.06 597.21 863.73 506.50 1023.78 492.59 913.29 615.80 910.24 692.27 1060.46 678.51
00000044 00000003 803.04 249.30 414.13 597.00 856.07 515.97 1017.71 492.68 906.70 621.25 906.04 697.80 1062.81 675.47
00000045 00000004 792.47 255.76 410.85 601.77 847.74 521.40 1001.67 508.44 893.00 634.41 897.07 702.65 1052.79 688.68
00000046 00000005 783.86 260.50 418.77 602.75 836.35 520.83 984.13 511.15 872.77 641.14 892.30 707.29 1042.36 695.09
00000047 DELETE   779.30 258.23 416.68 604.00 826.85 519.58 970.02 507.79 857.14 641.96 888.61 707.40 1035.80 693.28
00000048 00000007 775.72 258.87 421.43 596.89 820.07 515.95 962.56 508.10 845.45 639.46 881.53 709.02 1019.72 698.95
00000049 00000008 771.76 263.84 424.26 588.20 819.94 514.97 959.41 514.60 848.31 648.75 881.26 700.38 1002.48 697.70
00000050 00000009 774.07 265.32 418.89 588.09 820.23 512.29 959.29 519.80 844.85 651.69 876.18 705.59 992.99 710.05
00000051 00000010 774.16 259.78 422.08 592.63 820.59 509.80 963.47 518.72 847.83 650.26 876.26 705.50 994.96 710.98
00000052 00000011 776.06 255.54 421.01 600.12 823.38 509.39 963.83 514.69 849.96 649.89 881.21 706.86 1000.07 709.24
00000053 00000012 781.99 251.98 416.77 605.33 825.47 506.27 963.70 510.77 848.80 649.60 887.07 708.73 1002.49 710.15
00000054 00000013 788.59 256.80 413.22 599.10 828.72 504.19 965.87 510.96 847.90 650.53 891.80 708.86 1007.13 711.84
00000055 00000014 794.90 257.85 412.32 593.27 832.53 501.31 971.08 512.80 849.23 650.79 893.40 705.40 1011.57 712.03
00000056 00000015 802.55 252.93 413.86 591.51 840.09 501.27 977.36 514.32 855.16 645.24 896.84 703.11 1012.83 710.51
00000057 00000016 808.43 253.27 415.43 592.70 850.05 505.57 986.15 513.80 860.14 636.70 894.21 701.18 1012.23 704.00
00000058 00000017 813.52 243.55 421.31 598.10 855.37 501.23 998.50 509.65 868.71 628.96 897.51 698.20 1019.29 701.96
00000059 00000018 825.66 239.35 416.30 595.64 863.53 498.32 1013.03 510.12 882.38 627.37 900.58 692.07 1029.12 698.83
00000060 00000019 833.15 239.28 415.41 592.28 871.54 492.41 1018.51 509.07 891.29 624.17 903.74 681.45 1035.11 692.91
00000061 00000020 847.82 239.78 403.76 586.25 886.85 485.98 1023.26 509.73 903.91 623.50 917.46 672.71 1041.02 690.44
00000062 00000021 854.49 239.26 411.24 581.74 894.95 477.60 1039.01 500.11 914.59 615.80 926.48 670.45 1050.73 687.28
00000063 00000022 859.80 238.38 422.04 580.48 901.76 473.90 1053.41 493.02 918.61 610.62 935.02 674.85 1058.57 687.07
00000064 00000023 874.20 236.86 414.75 583.24 915.54 476.55 1063.50 496.54 929.41 612.37 947.62 671.72 1073.24 684.48
00000065 00000024 885.77 231.72 417.73 590.18 922.30 475.83 1077.94 493.83 940.89 610.18 951.11 672.52 1083.57 684.24
00000066 DELETE   898.47 225.96 415.97 598.28 934.63 471.17 1096.37 491.00 958.33 609.17 959.06 674.53 1097.45 688.54
00000067 00000026 917.03 228.59 404.51 591.47 954.77 470.33 1108.18 494.28 976.23 611.19 976.17 671.36 1110.87 689.40
00000068 DELETE   926.63 230.83 414.04 592.60 972.48 469.82 1130.08 489.81 995.49 606.48 991.95 679.26 1120.42 692.93
00000069 DELETE   943.86 232.44 406.98 597.83 993.04 471.42 1148.33 494.20 1013.89 607.11 1011.21 678.97 1140.45 694.52
00000070 DELETE   955.90 224.59 413.21 604.20 1005.58 474.80 1173.02 499.17 1035.53 611.02 1017.58 679.12 1158.98 697.10
00000071 00000030 969.76 219.06 406.35 602.92 1019.20 479.49 1185.01 505.68 1053.83 611.18 1028.80 675.61 1168.65 695.63
00000072 00000031 984.11 222.08 399.79 593.22 1030.42 470.81 1194.96 497.84 1065.30 608.66 1040.53 673.05 1178.94 694.38
00000073 00000032 987.20 222.49 412.33 592.34 1040.11 464.11 1208.56 492.68 1068.44 603.02 1046.59 674.20 1184.24 696.23
00000074 00000033 993.36 226.83 412.44 587.73 1044.56 459.64 1210.59 491.28 1070.80 603.13 1050.35 670.36 1186.71 694.82
00000075 00000034 997.96 229.52 412.31 590.85 1054.24 460.86 1214.31 491.09 1077.66 600.05 1059.36 668.66 1191.99 691.58
00000076 00000035 1003.65 231.97 403.35 588.13 1070.08 466.87 1223.04 499.56 1093.15 597.19 1066.16 667.79 1204.80 692.27
00000077 00000036 1011.19 225.27 409.24 599.26 1065.85 465.23 1231.44 495.47 1091.97 604.07 1071.91 675.28 1204.85 698.25
00000078 00000037 1013.16 222.69 411.64 597.70 1066.56 462.80 1239.12 495.86 1095.87 606.25 1071.92 673.84 1209.42 699.08
00000079 00000038 1015.07 218.02 412.34 600.41 1069.79 464.05 1243.95 495.84 1101.34 604.84 1074.52 674.86 1210.64 699.26
00000080 00000039 1018.46 219.15 416.21 595.88 1076.80 465.52 1253.55 499.08 1108.34 601.93 1075.07 669.19 1218.59 694.88
00000081 00000040 1026.14 223.06 412.46 596.08 1087.91 465.34 1252.31 504.97 1116.89 599.03 1082.71 657.36 1221.58 690.11
00000082 00000041 1034.96 224.68 410.57 593.92 1098.18 467.86 1263.44 506.75 1128.38 601.67 1092.97 660.45 1228.93 692.88
00000083 00000042 1038.24 214.18 411.80 599.70 1096.88 469.18 1275.85 504.21 1139.32 607.08 1092.27 669.07 1238.34 697.32
00000084 00000043 1038.34 223.10 422.39 593.17 1105.41 464.43 1285.53 502.32 1145.29 605.97 1103.82 672.72 1247.95 703.17
00000085 00000044 1041.93 221.83 420.96 594.41 1113.55 460.20 1292.42 501.37 1150.04 603.01 1110.00 669.27 1253.03 702.03
00000086 00000045 1048.34 223.48 420.27 587.80 1125.39 463.94 1293.79 504.26 1154.67 599.82 1116.82 660.12 1249.69 693.36
00000087 00000046 1051.40 224.52 411.17 598.72 1129.08 465.77 1296.96 503.33 1167.29 602.37 1119.03 672.22 1249.00 702.38
00000088 00000047 1053.74 223.32 409.30 608.94 1133.31 466.99 1300.47 502.15 1173.81 603.87 1123.16 677.38 1255.49 705.70
00000089 00000048 1057.32 224.45 407.34 611.87 1138.05 468.23 1306.69 500.40 1182.31 602.55 1130.12 677.16 1272.70 702.43
00000090 00000049 1061.15 222.15 414.11 612.58 1141.17 466.98 1317.17 497.95 1185.23 599.79 1133.76 670.55 1283.69 695.97
00000091 00000050 1062.59 220.85 414.20 600.41 1146.23 463.15 1323.60 498.08 1191.21 595.64 1133.84 663.62 1283.96 692.50
00000092 00000051 1060.47 222.12 417.10 590.59 1146.88 461.56 1327.27 497.39 1192.24 595.16 1130.51 660.84 1281.06 690.96
00000093 00000052 1062.45 222.29 413.60 588.87 1147.30 462.44 1325.71 499.68 1192.96 596.26 1130.99 659.95 1280.96 691.16
00000094 00000053 1062.98 228.20 414.44 586.66 1147.09 468.56 1326.09 504.13 1194.51 602.35 1134.07 666.05 1281.21 695.94
00000095 00000054 1057.61 231.26 412.42 595.03 1150.40 473.17 1326.98 509.31 1204.76 604.19 1136.13 676.08 1284.86 705.03
00000096 00000055 1056.01 235.76 414.43 592.11 1148.94 475.19 1328.33 510.92 1205.23 605.26 1136.15 677.44 1286.54 706.02
00000097 00000056 1055.69 237.46 413.63 588.25 1148.09 474.98 1326.94 512.05 1203.90 605.16 1135.31 676.08 1285.29 705.71
00000098 00000057 1053.83 236.82 413.36 584.75 1144.85 474.14 1324.77 511.19 1200.63 605.78 1132.49 676.44 1278.49 706.58
00000099 00000058 1054.82 240.05 416.06 575.09 1140.61 473.46 1321.92 509.90 1191.30 605.19 1133.18 670.83 1274.66 701.64
00000100 00000059 1054.62 240.99 413.47 574.75 1138.95 475.09 1319.57 511.69 1189.49 606.47 1131.41 670.59 1274.25 701.54
00000101 00000060 1052.26 236.03 406.71 584.20 1138.10 478.26 1317.27 516.31 1192.45 613.07 1128.12 679.96 1277.05 710.40
00000102 00000061 1052.39 230.59 403.27 589.89 1135.21 475.30 1312.06 512.39 1185.72 612.52 1125.32 679.88 1269.16 709.88
00000103 00000062 1047.33 227.69 412.66 588.63 1133.05 470.62 1306.22 505.00 1178.82 601.29 1124.53 666.56 1259.61 695.59
00000104 00000063 1047.25 222.37 413.81 589.41 1132.02 467.32 1309.01 498.22 1180.29 595.11 1124.06 663.73 1265.48 689.82
00000105 00000064 1044.84 224.85 416.62 585.76 1130.61 461.50 1311.29 494.71 1178.98 593.38 1121.46 659.89 1265.76 688.05
00000106 00000065 1040.35 226.26 416.20 585.45 1125.43 465.13 1299.65 500.03 1170.05 596.89 1116.13 658.47 1255.50 687.98
00000107 DELETE   1031.97 216.77 410.62 599.83 1101.25 465.07 1282.08 501.83 1149.53 600.46 1093.08 668.31 1235.29 698.30
00000108 00000067 1024.37 221.44 410.05 604.84 1090.92 462.66 1272.41 501.62 1129.87 599.16 1079.51 673.74 1216.65 705.36
00000109 00000068 1024.20 215.62 412.04 607.95 1091.79 463.81 1274.03 501.63 1134.23 599.34 1081.08 673.53 1219.74 704.47
00000110 DELETE   1030.32 217.59 415.06 598.82 1110.62 463.09 1290.75 502.16 1160.64 602.15 1098.64 666.89 1240.61 699.23
00000111 00000070 1042.95 228.66 420.68 587.58 1135.74 469.07 1319.73 502.65 1192.83 603.00 1127.24 665.93 1276.52 694.39
00000112 DELETE   1050.55 234.14 422.00 583.46 1155.15 474.00 1336.96 506.65 1218.00 608.72 1142.77 668.98 1287.93 696.99
00000113 00000072 1049.91 237.67 425.56 591.06 1160.09 479.28 1349.24 510.52 1231.95 610.37 1147.97 684.46 1301.04 709.73
00000114 00000073 1051.34 240.47 427.06 592.88 1161.63 480.60 1348.57 512.02 1230.45 612.48 1149.62 689.82 1299.11 715.57
00000115 00000074 1050.52 243.23 429.11 586.05 1162.40 484.19 1346.48 517.71 1225.97 615.06 1149.19 690.96 1291.04 718.92
00000116 00000075 1051.28 244.77 432.39 588.13 1161.78 483.33 1348.55 520.44 1224.48 616.34 1146.77 690.07 1293.43 720.74
00000117 00000076 1051.22 242.80 430.71 592.78 1158.60 477.54 1346.79 518.64 1217.95 614.58 1141.20 680.00 1296.98 713.05
00000118 00000077 1049.32 233.73 423.81 599.16 1148.73 470.32 1333.41 511.85 1207.02 611.14 1130.29 673.38 1289.75 706.33
00000119 00000078 1048.72 230.71 424.03 599.66 1143.95 468.99 1330.15 509.93 1199.51 604.57 1123.32 672.84 1280.28 705.20
00000120 00000079 1049.22 234.56 428.61 595.68 1149.10 473.29 1334.44 514.23 1204.64 612.40 1129.59 678.76 1281.81 711.77
00000121 DELETE   1054.31 244.27 430.24 587.54 1162.02 477.57 1348.33 523.75 1215.18 615.37 1137.56 683.98 1286.51 721.76
00000122 00000081 1057.40 246.49 430.59 581.09 1161.99 485.25 1352.03 530.11 1216.49 623.31 1138.21 690.16 1290.35 726.83
00000123 00000082 1058.44 250.14 432.86 578.01 1162.11 486.89 1353.46 533.22 1215.41 624.18 1137.39 691.64 1291.58 729.39
00000124 00000083 1059.08 251.86 430.90 578.95 1166.23 488.47 1357.70 534.30 1223.46 623.06 1142.36 691.03 1297.65 728.67
00000125 00000084 1060.91 254.15 430.61 581.14 1171.20 485.69 1363.18 530.70 1230.10 626.38 1147.91 691.13 1305.61 728.40
00000126 00000085 1065.52 253.04 426.96 581.95 1175.42 488.00 1364.02 535.32 1230.46 630.07 1149.07 690.34 1306.54 729.69
00000127 00000086 1065.89 253.66 427.30 581.93 1176.38 489.29 1363.77 537.05 1231.24 631.61 1149.98 691.14 1305.72 730.92
00000128 00000087 1063.66 252.50 431.29 585.95 1176.43 486.41 1365.85 534.12 1232.03 630.08 1149.22 691.02 1305.00 730.68
00000129 00000088 1063.66 247.08 432.53 588.88 1176.41 482.65 1367.07 527.89 1234.42 625.11 1150.43 687.19 1310.07 724.47
00000130 00000089 1064.42 244.77 432.49 587.99 1174.72 478.80 1366.41 526.58 1230.99 622.92 1149.49 681.91 1310.23 721.13
00000131 00000090 1061.47 240.63 430.32 590.83 1169.21 479.46 1361.24 529.04 1224.53 621.14 1142.43 680.87 1304.63 721.21
00000132 00000091 1058.35 238.45 432.78 595.50 1167.92 478.13 1359.32 528.15 1223.76 621.06 1141.90 682.11 1301.81 722.59
00000133 00000092 1058.38 238.81 431.53 601.04 1168.07 478.47 1358.46 526.44 1224.57 621.08 1143.67 684.58 1304.41 723.29
00000134 00000093 1057.28 237.43 431.29 606.37 1166.39 480.01 1356.82 525.74 1225.09 619.03 1146.17 687.08 1303.15 723.91
00000135 00000094 1051.32 237.51 436.93 591.96 1160.36 480.11 1352.44 526.21 1217.95 620.18 1140.56 685.00 1296.12 721.87
00000136 00000095 1048.11 237.85 434.47 594.08 1156.65 478.27 1347.42 524.96 1212.29 618.72 1134.96 682.45 1290.08 720.17
00000137 00000096 1045.80 239.24 431.71 596.61 1152.03 480.10 1341.17 524.84 1208.11 620.55 1130.66 683.49 1287.23 719.60
00000138 00000097 1042.39 246.40 433.99 587.48 1150.19 483.29 1341.43 526.88 1209.04 623.34 1129.56 687.26 1286.35 722.54
00000139 00000098 1040.44 248.74 434.89 585.05 1146.21 484.81 1340.39 530.61 1205.09 627.89 1126.04 685.93 1287.12 722.80
00000140 00000099 1038.45 240.61 430.24 592.33 1134.58 479.81 1331.01 523.73 1201.28 631.54 1117.95 684.98 1277.48 721.66
00000141 00000100 1036.29 241.18 429.40 590.34 1133.20 477.11 1329.13 522.94 1198.82 628.20 1114.54 681.83 1274.41 720.06
00000142 00000101 1040.03 251.10 431.33 576.00 1135.54 479.12 1323.60 523.02 1190.69 626.62 1121.62 677.73 1271.88 714.52
00000143 00000102 1035.82 243.14 429.98 588.71 1132.49 478.72 1328.95 522.71 1200.06 629.56 1115.85 683.69 1276.12 720.47
00000144 00000103 1034.76 251.40 427.36 578.56 1138.11 490.78 1329.85 537.92 1197.97 633.16 1120.38 686.99 1279.95 724.97
00000145 00000104 1034.82 256.10 429.83 580.61 1139.25 498.12 1331.42 545.03 1198.97 642.95 1121.18 694.44 1278.87 732.63
00000146 00000105 1033.67 261.99 430.51 586.16 1144.19 505.12 1336.29 549.63 1207.07 646.37 1123.40 700.23 1278.89 737.27
00000147 00000106 1035.36 264.69 430.14 579.84 1146.85 503.58 1340.56 548.72 1210.82 646.12 1125.14 699.95 1281.81 737.51
00000148 00000107 1034.17 260.79 430.05 581.06 1145.60 499.65 1337.61 548.84 1207.11 644.47 1122.07 695.41 1278.18 736.13
00000149 00000108 1032.55 250.03 425.97 590.88 1139.65 494.93 1329.09 546.32 1197.10 641.02 1116.77 694.38 1269.47 736.61
00000150 00000109 1030.41 246.94 420.08 594.28 1132.28 490.39 1319.51 543.01 1186.23 639.79 1110.13 691.57 1260.11 734.83
00000151 00000110 1025.30 251.06 418.80 591.86 1126.03 498.16 1312.21 541.18 1184.16 645.92 1110.28 700.51 1255.28 736.50
00000152 00000111 1027.15 259.95 416.43 592.89 1128.03 507.03 1315.28 551.00 1189.57 653.88 1111.50 707.43 1261.78 744.48
00000153 00000112 1025.46 264.64 419.21 590.65 1127.75 509.83 1318.60 554.02 1192.20 657.22 1110.78 709.32 1263.69 746.73
00000154 00000113 1020.42 260.17 418.46 586.12 1119.66 506.49 1309.80 553.84 1181.04 658.56 1099.81 702.98 1256.87 742.61
00000155 00000114 1011.15 254.92 422.79 593.84 1111.59 502.86 1300.61 551.87 1170.53 656.13 1091.99 698.00 1250.89 738.78
00000156 00000115 1003.73 254.37 421.42 601.66 1107.70 506.08 1295.17 550.28 1164.78 652.86 1091.31 701.52 1255.34 737.87
00000157 00000116 1001.90 251.96 419.30 606.18 1108.03 505.55 1292.41 545.38 1167.93 649.00 1095.62 704.43 1253.08 737.18
00000158 00000117 1001.65 251.69 419.98 605.33 1109.55 503.52 1293.68 542.78 1171.25 647.25 1099.42 706.71 1252.36 738.80
00000159 00000118 1000.41 249.87 421.00 602.34 1109.99 501.91 1293.27 541.42 1171.76 645.44 1098.11 703.46 1251.32 735.73
00000160 00000119 995.44 252.36 421.98 594.68 1105.30 500.43 1291.90 540.91 1167.63 640.86 1090.32 701.54 1243.55 734.87
00000161 00000120 993.98 253.15 421.94 589.93 1100.80 505.25 1290.22 545.65 1162.06 640.72 1084.36 701.11 1239.93 734.28
00000162 00000121 991.05 259.04 422.00 586.13 1097.87 503.57 1286.65 545.97 1158.29 639.76 1079.62 700.52 1233.92 735.60
00000163 00000122 990.42 255.82 424.09 589.74 1096.00 500.60 1285.60 544.31 1155.55 638.80 1075.65 699.80 1230.90 735.72
00000164 00000123 989.53 256.60 421.94 589.00 1094.50 499.98 1282.43 543.83 1152.08 638.27 1073.35 699.89 1225.72 736.20
00000165 00000124 987.14 258.83 421.25 586.72 1092.31 500.29 1280.38 545.36 1149.75 638.48 1070.89 699.07 1223.05 736.63
00000166 00000125 984.04 254.02 421.84 590.62 1090.09 498.65 1276.38 542.71 1146.80 635.94 1069.58 697.57 1219.85 734.23
00000167 00000126 977.90 256.00 424.44 582.17 1085.32 501.08 1271.11 543.47 1143.82 635.08 1066.76 695.64 1216.30 730.49
00000168 00000127 973.36 254.55 425.74 578.16 1079.70 499.95 1265.44 543.98 1138.33 636.55 1062.06 692.85 1212.74 728.53
00000169 00000128 967.69 251.66 426.85 579.94 1072.44 498.73 1261.29 543.07 1134.56 637.72 1056.59 689.34 1215.17 725.02
00000170 00000129 968.30 254.71 425.00 580.40 1068.69 498.02 1256.88 543.66 1127.70 640.08 1052.13 688.50 1213.99 725.31
00000171 00000130 966.91 259.26 425.10 577.96 1065.02 498.36 1252.69 545.70 1122.18 641.42 1048.51 686.79 1213.06 724.85
00000172 00000131 968.66 254.94 420.60 578.83 1062.73 497.68 1248.54 544.05 1118.74 640.15 1049.09 687.37 1208.37 724.61
00000173 00000132 967.14 256.08 419.13 575.27 1060.63 496.35 1246.89 543.09 1116.74 639.64 1047.32 687.07 1205.40 724.78
00000174 00000133 964.89 258.18 421.40 574.63 1059.42 494.96 1247.81 542.82 1116.34 640.00 1045.16 686.04 1206.68 724.60
00000175 00000134 963.45 254.02 422.46 580.26 1058.02 495.64 1247.36 540.93 1117.25 640.05 1045.19 687.23 1208.69 723.60
00000176 00000135 963.31 255.25 421.50 580.25 1058.69 496.42 1246.65 541.24 1117.71 639.93 1045.99 688.66 1206.73 724.85
00000177 00000136 963.54 255.12 421.03 579.22 1059.29 497.75 1247.38 541.38 1119.31 639.65 1047.46 690.81 1206.31 726.08
00000178 00000137 964.57 255.03 420.15 581.83 1060.43 498.29 1248.85 540.69 1120.80 640.57 1049.32 693.74 1206.81 728.26
00000179 00000138 965.99 253.45 419.34 588.49 1062.52 498.25 1249.47 541.27 1121.45 639.87 1048.83 694.77 1205.72 729.97
00000180 00000139 965.74 251.05 419.73 591.48 1062.18 498.83 1248.47 540.53 1120.86 640.11 1050.09 695.16 1206.93 729.17
00000181 00000140 963.94 252.01 420.22 586.82 1061.39 499.43 1248.06 541.31 1121.78 640.17 1049.55 695.12 1205.08 729.41
00000182 00000141 963.32 254.54 417.91 582.44 1060.20 500.35 1246.02 542.88 1119.17 641.75 1046.97 694.35 1202.13 729.27
00000183 00000142 963.44 254.61 416.39 583.93 1059.57 502.26 1244.11 544.89 1117.55 644.07 1046.23 695.39 1200.82 730.39
00000184 00000143 962.69 258.72 414.98 580.77 1058.66 503.02 1244.57 545.97 1118.07 645.94 1044.53 696.31 1200.17 731.76
00000185 00000144 963.61 257.29 413.62 583.15 1059.72 505.27 1244.94 546.78 1119.84 646.55 1045.70 697.33 1200.66 731.67
00000186 00000145 963.87 257.16 412.76 583.37 1060.21 504.97 1245.99 546.58 1121.01 645.55 1046.06 696.76 1202.43 731.07
00000187 00000146 964.17 258.87 415.08 578.55 1060.76 502.88 1247.30 544.58 1121.23 643.86 1047.77 695.80 1204.31 730.06
00000188 00000147 964.11 260.40 417.94 574.90 1062.20 500.80 1249.29 543.45 1122.52 642.85 1048.53 694.13 1204.51 729.15
00000189 00000148 964.21 262.60 420.85 572.22 1063.77 501.03 1252.02 544.52 1124.73 642.94 1049.00 693.33 1206.93 729.08
00000190 00000149 964.45 265.36 422.01 571.63 1066.38 502.44 1254.42 544.77 1128.38 643.80 1050.45 694.63 1208.46 729.61
00000191 00000150 965.71 264.81 421.28 573.83 1068.59 503.36 1256.37 545.58 1131.75 643.47 1052.17 695.03 1210.18 729.87
00000192 00000151 967.47 261.45 421.55 578.66 1072.60 504.95 1258.63 546.21 1135.85 643.13 1055.27 695.56 1212.03 729.53
00000193 00000152 967.97 260.51 420.98 579.64 1074.23 506.10 1261.28 546.49 1138.92 643.48 1056.98 695.74 1214.72 728.90
00000194 00000153 969.24 262.07 420.72 576.91 1076.05 505.37 1262.76 546.91 1139.86 642.88 1058.40 695.14 1215.42 729.06
00000195 00000154 970.80 260.82 422.32 578.50 1077.57 504.44 1264.78 547.17 1140.42 642.06 1058.93 694.61 1216.93 729.41
00000196 00000155 973.22 259.38 420.52 581.41 1079.72 505.31 1267.58 547.35 1142.87 642.94 1060.30 694.72 1219.85 729.00
00000197 00000156 974.29 263.59 424.46 580.49 1081.01 508.37 1269.44 550.72 1142.92 645.99 1061.88 697.73 1221.87 732.10
00000198 00000157 976.40 268.65 423.32 579.02 1081.58 512.16 1270.73 553.04 1144.01 649.12 1062.65 702.18 1223.67 735.41
00000199 00000158 979.88 266.08 422.35 583.91 1084.13 511.37 1273.11 552.12 1145.74 647.43 1064.06 702.61 1225.06 735.97
00000200 00000159 981.91 258.81 418.36 586.71 1086.70 506.30 1275.15 547.95 1148.99 640.54 1066.32 698.43 1224.11 732.67
00000201 00000160 985.50 255.01 417.35 588.86 1089.80 500.82 1278.27 543.80 1150.40 635.03 1067.69 694.04 1224.71 729.48
00000202 00000161 988.63 253.11 417.80 588.04 1092.17 495.62 1281.15 538.02 1151.99 628.32 1070.47 690.52 1230.05 725.20
00000203 00000162 990.41 250.88 415.25 589.08 1093.41 492.27 1283.65 535.01 1154.54 624.95 1072.36 686.83 1235.45 721.78
00000204 00000163 990.57 247.21 413.96 597.01 1092.57 489.11 1283.72 531.10 1154.98 626.01 1072.40 681.55 1244.66 715.64
