Video ID: 	zWREWbDXNW4
H: 	1080
W: 	1920
FPS: 	25.0

FRAME INDEX X0 Y0 W H [Landmarks (5 Points)]

00000412 00000000 722.71 199.19 385.59 544.47 776.59 395.02 938.29 401.67 808.39 522.85 798.18 596.84 935.31 601.24
00000413 00000001 727.48 178.31 390.11 567.57 784.60 393.79 948.90 400.57 818.60 520.59 804.40 598.56 944.23 603.42
00000414 00000002 732.14 176.66 390.32 567.91 787.28 388.06 952.89 393.47 820.16 516.35 807.96 599.72 946.45 603.52
00000415 00000003 729.81 169.57 391.48 572.97 785.62 384.57 949.38 391.67 817.33 515.12 803.77 596.80 941.73 601.91
00000416 DELETE   724.51 179.34 385.74 557.79 770.94 378.30 932.55 390.41 793.70 514.94 790.71 587.39 927.67 596.22
00000417 DELETE   707.64 187.80 396.88 547.22 754.81 368.49 916.67 390.35 783.10 511.58 778.27 577.31 906.14 593.55
00000418 DELETE   703.19 185.57 388.84 543.72 742.51 367.12 896.53 387.62 760.73 505.51 768.69 577.08 887.54 591.67
00000419 00000007 701.39 124.08 389.91 605.09 739.90 366.81 879.98 383.22 738.00 499.84 770.67 578.91 882.58 591.14
00000420 00000008 698.01 130.54 393.47 599.59 736.04 361.79 876.65 379.30 730.45 498.53 766.80 577.35 882.04 589.95
00000421 00000009 694.78 123.74 396.64 604.87 733.35 360.18 874.54 375.89 729.90 495.32 765.35 576.46 880.79 587.66
00000422 00000010 684.45 134.68 399.44 591.78 724.98 355.82 884.47 375.93 734.48 493.27 753.17 578.13 867.98 594.54
00000423 00000011 687.02 135.60 394.49 596.31 726.67 360.57 868.76 373.79 727.56 494.46 759.56 579.10 874.99 587.58
00000424 00000012 684.29 136.72 388.01 590.63 722.27 360.12 864.31 374.22 725.66 493.46 755.17 577.44 869.06 586.08
00000425 00000013 685.03 127.15 386.89 599.56 722.13 358.72 863.30 373.22 724.92 491.89 755.37 575.42 868.83 584.73
00000426 00000014 686.22 122.51 385.49 603.09 721.57 359.32 862.84 373.02 723.47 491.28 754.94 575.16 870.02 583.80
00000427 00000015 686.46 124.03 384.32 597.14 720.64 358.72 862.48 374.00 723.10 491.55 753.77 573.43 868.33 583.35
00000428 00000016 686.69 126.53 383.53 593.39 720.53 358.29 862.39 374.21 723.42 492.09 754.60 572.87 869.40 583.16
00000429 00000017 678.01 118.67 397.24 600.93 712.88 353.28 872.95 372.39 725.97 494.24 744.40 574.32 861.55 590.42
00000430 00000018 689.53 120.94 387.49 601.95 724.72 360.23 863.82 372.91 724.25 490.42 760.13 572.94 874.87 580.63
00000431 00000019 683.60 121.07 397.59 596.33 719.36 350.44 876.72 372.45 729.56 491.99 749.49 569.15 867.01 587.39
00000432 00000020 684.33 118.81 396.99 598.87 720.52 351.13 878.65 371.89 732.60 490.82 750.17 566.97 871.42 584.10
00000433 00000021 687.23 120.17 397.23 596.70 723.02 354.22 879.90 373.10 734.23 491.60 752.97 565.44 878.37 580.69
00000434 00000022 691.42 133.70 398.15 584.99 726.54 357.70 881.96 376.90 736.10 494.65 756.65 563.63 884.98 578.90
00000435 00000023 699.88 130.48 392.72 588.71 736.02 361.78 888.49 380.81 740.68 496.20 761.05 567.30 886.82 582.02
00000436 00000024 713.25 113.18 385.03 603.06 746.77 366.70 890.30 383.73 744.57 494.11 772.59 569.87 892.15 580.00
00000437 00000025 721.31 140.18 377.94 574.06 751.30 370.75 889.48 389.94 751.34 502.62 779.24 569.09 900.01 582.74
00000438 00000026 723.53 143.85 374.29 572.11 757.05 369.59 894.40 384.48 755.97 496.01 783.70 573.83 903.06 584.47
00000439 00000027 725.76 147.05 375.50 567.33 759.69 368.40 896.79 383.39 759.68 493.20 786.23 570.80 907.24 581.50
00000440 00000028 726.03 142.31 377.94 573.97 760.90 369.15 899.08 384.31 761.72 494.57 787.45 571.37 909.40 581.97
00000441 00000029 726.59 141.11 378.29 574.64 760.53 370.28 900.16 385.38 760.93 496.96 787.10 573.32 909.13 583.93
00000442 00000030 727.65 148.91 375.82 565.35 760.95 371.18 900.26 386.55 762.90 499.36 787.55 574.90 906.89 585.98
00000443 00000031 729.61 156.32 374.74 558.79 764.39 369.28 900.92 387.20 764.85 500.44 790.07 574.45 905.53 587.76
00000444 00000032 731.84 146.69 372.59 568.72 765.28 368.91 901.95 385.64 763.73 496.93 789.23 574.49 904.31 587.15
00000445 00000033 732.53 151.05 371.39 561.56 767.02 364.36 899.95 381.64 763.83 488.84 787.94 569.34 901.70 582.66
00000446 00000034 732.14 145.48 371.05 561.19 767.57 359.15 902.64 376.27 766.44 482.11 784.85 564.30 900.13 577.83
00000447 00000035 731.58 143.08 372.54 557.83 766.80 355.60 903.56 371.51 768.92 478.07 783.44 559.91 898.81 572.51
00000448 00000036 731.19 143.57 373.79 555.98 766.04 355.80 902.56 371.15 768.74 479.32 784.18 560.26 899.23 572.30
00000449 00000037 731.71 146.65 373.26 556.32 766.30 359.60 903.99 378.26 769.13 486.85 786.30 563.29 902.80 577.80
00000450 00000038 725.41 153.27 385.18 560.66 761.41 361.61 909.65 382.82 772.34 501.26 787.83 566.19 908.92 582.49
00000451 00000039 724.56 156.05 386.75 561.73 761.95 367.16 911.49 389.84 775.10 509.92 787.30 568.42 909.63 586.23
00000452 00000040 721.92 146.73 387.44 568.78 758.85 365.67 908.47 388.16 771.97 508.09 784.27 567.21 907.64 584.78
00000453 00000041 719.42 144.04 386.50 569.51 756.43 363.49 905.61 385.95 765.89 501.32 778.89 564.43 903.51 582.19
00000454 00000042 720.05 136.42 384.47 572.82 754.26 361.09 901.66 380.87 757.89 494.35 782.17 567.37 902.53 582.20
00000455 00000043 717.94 130.81 386.45 578.41 751.74 360.84 900.00 379.90 754.81 493.55 781.64 566.80 903.99 580.96
00000456 00000044 712.00 144.70 388.81 571.13 751.42 363.88 900.48 386.20 761.57 500.80 775.13 562.24 903.94 579.25
00000457 00000045 711.29 143.55 389.31 576.91 750.78 366.69 900.32 389.23 763.87 506.62 775.73 564.62 906.16 581.66
00000458 00000046 713.04 144.29 388.85 580.66 751.11 368.70 898.26 387.92 762.02 506.34 779.20 568.54 906.55 582.85
00000459 00000047 712.29 150.12 389.04 576.18 751.20 368.84 896.37 387.21 758.48 505.65 781.44 568.81 908.02 582.14
00000460 00000048 719.49 154.41 380.15 565.96 752.32 373.80 890.96 386.29 752.36 505.13 785.07 578.60 907.89 586.46
00000461 00000049 719.13 147.74 380.36 572.89 752.61 374.06 892.40 388.03 753.72 506.04 783.59 577.41 909.56 586.35
00000462 00000050 719.33 150.87 379.01 570.18 752.97 377.48 891.17 390.27 754.54 507.82 784.27 576.75 911.00 584.52
00000463 00000051 720.81 154.93 377.06 571.20 754.39 380.06 891.72 391.28 756.16 509.83 787.52 580.44 911.22 587.20
00000464 00000052 720.62 170.17 377.41 560.46 757.87 379.11 891.56 391.84 760.87 512.01 792.08 582.87 909.22 591.09
00000465 00000053 714.96 158.91 384.13 576.03 757.55 380.21 894.03 396.24 767.01 518.02 792.17 589.13 905.01 599.85
00000466 00000054 713.37 156.28 396.28 590.60 758.48 379.95 904.03 402.77 776.74 525.75 793.36 592.36 910.15 609.10
00000467 00000055 712.50 162.24 395.86 590.45 756.29 390.69 903.85 413.03 771.19 537.95 789.92 604.26 907.85 620.95
00000468 00000056 711.55 178.71 395.66 576.35 752.46 394.49 905.89 418.38 771.12 543.71 786.37 607.55 908.54 624.93
00000469 00000057 709.83 176.62 396.40 572.30 753.17 391.88 902.26 413.05 769.54 536.31 786.31 602.98 905.25 618.40
00000470 00000058 713.41 172.76 388.56 566.95 755.68 382.46 905.05 401.94 774.90 522.20 782.60 590.25 907.24 604.20
00000471 00000059 715.25 164.29 391.94 569.68 758.60 376.39 914.98 394.42 784.91 517.11 789.18 578.96 917.84 592.11
00000472 DELETE   728.95 160.13 384.18 563.59 765.92 378.47 914.90 388.99 780.37 512.14 795.03 579.33 924.26 585.68
00000473 00000061 734.95 156.66 390.36 569.23 776.05 380.78 925.95 390.80 790.18 514.58 804.25 579.46 939.82 585.11
00000474 00000062 738.53 150.29 389.55 588.95 773.65 377.43 933.50 393.18 799.96 523.27 815.54 590.66 945.78 601.79
00000475 00000063 735.47 160.89 394.78 578.76 779.36 392.08 923.32 402.11 793.66 523.59 810.04 596.37 938.05 602.25
00000476 00000064 734.61 162.14 393.99 576.21 778.52 390.94 923.20 400.40 790.99 520.02 805.50 595.74 934.86 601.18
00000477 00000065 740.55 167.78 387.53 569.19 777.43 375.77 939.17 392.26 798.62 518.14 809.24 590.70 940.54 602.75
00000478 00000066 743.30 160.89 390.48 568.00 775.09 362.16 945.30 387.77 800.31 509.34 808.41 576.13 936.53 596.04
00000479 00000067 747.52 140.33 392.65 585.06 782.97 358.84 952.05 384.42 809.10 503.25 808.79 571.15 941.39 591.39
00000480 00000068 750.36 138.39 392.27 583.17 786.82 361.00 954.79 384.18 812.44 501.77 812.20 571.62 945.86 590.42
00000481 00000069 748.72 138.55 394.62 584.44 787.07 360.39 955.93 386.23 813.06 505.02 812.77 572.15 944.94 592.66
00000482 00000070 750.90 145.06 390.25 576.59 785.48 360.35 954.91 389.26 809.70 506.53 811.62 570.87 942.62 593.86
00000483 00000071 752.05 144.56 387.81 577.08 785.41 361.22 955.01 390.29 808.79 507.29 811.14 571.38 942.40 594.52
00000484 00000072 751.59 148.23 385.69 572.79 784.48 359.83 952.08 389.09 808.14 505.79 811.00 568.72 942.24 592.04
00000485 00000073 748.03 145.76 389.01 575.39 782.53 359.24 951.16 387.44 809.49 504.67 809.31 566.99 942.14 589.46
00000486 00000074 744.63 149.56 392.58 572.07 779.99 358.58 948.66 387.35 807.89 506.29 809.41 565.77 942.45 588.56
00000487 00000075 745.14 150.54 391.22 572.06 779.78 359.87 948.97 387.83 808.85 507.72 809.63 566.32 944.39 588.42
00000488 00000076 747.50 150.82 389.44 571.50 781.51 360.16 950.06 387.96 809.37 506.98 811.16 566.25 945.73 588.02
00000489 00000077 748.71 153.71 389.26 568.29 782.62 361.97 952.10 389.27 811.14 508.33 812.58 566.82 948.58 588.28
00000490 00000078 750.72 156.25 387.57 563.78 783.52 361.22 952.02 388.96 811.60 508.44 813.89 565.86 948.80 587.87
00000491 00000079 746.33 148.89 393.54 571.20 781.63 358.45 950.52 386.79 810.09 507.68 811.52 565.14 946.29 587.61
00000492 00000080 743.32 156.83 395.77 561.83 778.52 357.89 946.00 385.70 805.16 507.12 811.19 564.11 945.09 586.40
00000493 00000081 740.08 157.16 399.77 562.17 775.16 357.85 944.21 385.11 802.49 509.61 810.82 565.27 944.40 586.93
00000494 00000082 739.27 157.22 398.88 564.44 773.46 358.69 942.31 387.07 800.06 512.32 809.54 565.86 942.99 588.29
00000495 00000083 736.86 150.05 397.22 575.20 771.50 361.81 939.72 389.09 796.75 514.36 807.18 567.34 943.21 588.34
00000496 00000084 741.49 158.01 384.26 564.16 778.61 380.02 922.80 389.25 785.69 507.34 802.13 574.53 936.55 579.77
00000497 00000085 739.61 159.92 383.90 562.20 775.73 378.48 916.37 387.46 779.22 504.38 801.24 574.70 930.27 579.91
00000498 00000086 735.83 141.23 384.06 578.47 772.85 371.81 917.14 385.28 775.48 498.27 796.79 569.97 930.18 578.77
00000499 00000087 735.11 132.78 384.38 587.39 769.90 368.54 913.98 379.43 771.53 491.29 794.88 567.44 929.90 574.05
00000500 00000088 734.04 111.69 388.46 613.37 767.10 359.86 913.53 373.88 770.11 489.29 798.36 568.64 927.30 578.69
00000501 00000089 735.63 134.77 382.86 585.27 770.66 371.87 911.60 380.80 771.39 491.99 797.26 568.82 929.80 573.96
00000502 00000090 732.79 147.16 382.70 575.20 770.20 378.35 907.76 385.98 771.11 498.21 800.38 573.89 928.77 577.84
00000503 00000091 731.87 184.89 381.37 538.41 772.75 382.78 904.12 391.40 777.59 506.57 803.37 576.06 925.12 581.24
00000504 00000092 731.49 168.07 380.17 559.33 771.29 383.23 902.76 394.53 773.58 515.11 803.32 579.69 926.16 586.02
00000505 00000093 730.68 163.49 380.41 562.44 769.34 380.99 900.21 395.08 769.49 513.72 801.20 578.61 921.97 587.15
00000506 00000094 727.64 170.76 386.63 551.66 764.81 370.71 912.35 389.91 778.17 512.60 799.35 574.98 919.39 589.28
00000507 00000095 734.06 150.11 382.72 564.24 768.81 370.18 907.32 380.71 770.10 495.09 796.89 575.85 915.64 583.44
00000508 00000096 737.34 138.73 384.93 573.67 771.98 366.66 914.73 377.47 774.96 490.45 796.67 572.44 918.76 580.59
00000509 00000097 739.35 126.98 385.36 584.62 773.56 368.11 919.70 378.47 779.22 490.78 795.94 571.69 921.66 579.43
00000510 00000098 739.55 141.32 385.67 570.75 775.46 370.97 922.13 380.59 783.06 493.56 797.69 573.50 923.91 580.77
00000511 00000099 737.11 147.63 392.69 574.11 766.68 366.78 932.69 388.19 791.41 515.19 806.20 579.84 928.75 597.20
00000512 00000100 731.89 136.64 398.52 592.90 765.17 372.50 932.00 391.97 790.83 522.05 806.45 585.92 931.19 600.89
00000513 00000101 733.88 138.73 394.81 588.00 765.38 372.23 930.78 390.84 791.51 521.44 807.80 584.13 933.04 598.66
00000514 00000102 738.09 159.12 387.47 555.37 774.31 374.30 919.58 385.80 780.80 503.30 797.66 574.11 926.14 581.93
00000515 00000103 739.54 148.23 387.67 563.53 775.45 370.42 924.93 379.45 784.61 493.21 796.32 570.60 927.89 577.22
00000516 00000104 740.26 144.94 388.15 564.12 775.20 365.75 924.39 374.12 786.63 488.16 797.36 567.60 927.41 573.92
00000517 00000105 739.21 145.52 391.22 563.00 774.48 365.40 927.37 372.87 789.55 488.36 796.26 566.71 929.42 572.22
00000518 00000106 739.17 143.71 392.01 567.20 775.86 367.26 929.39 375.39 790.44 491.66 797.07 568.61 931.34 574.63
00000519 00000107 731.21 136.54 403.15 585.48 769.79 357.24 942.93 382.05 800.65 509.65 804.12 570.82 938.77 590.97
00000520 00000108 730.42 139.84 401.47 583.03 767.60 359.40 940.50 384.33 798.77 513.32 804.05 571.61 937.72 591.44
00000521 00000109 736.74 148.49 391.47 564.22 773.74 369.16 927.35 380.44 785.72 496.33 794.89 569.90 929.80 577.83
00000522 00000110 739.13 144.69 389.63 565.96 773.91 366.20 927.40 375.02 786.99 490.21 794.61 567.06 929.37 573.55
00000523 00000111 737.53 138.72 394.62 570.83 773.43 363.03 929.98 371.20 788.61 487.39 794.46 563.80 932.27 569.44
00000524 00000112 737.37 133.27 396.51 573.41 772.74 359.98 931.54 369.31 788.69 486.44 793.72 560.87 934.15 567.28
00000525 00000113 739.41 124.84 400.43 584.53 771.96 346.66 934.33 365.52 787.34 492.74 805.45 561.78 942.87 574.30
00000526 00000114 738.06 147.37 395.58 563.27 774.51 368.26 932.00 375.06 791.02 490.94 796.68 564.95 937.19 569.27
00000527 00000115 732.31 136.23 408.27 581.37 769.01 354.88 942.31 374.02 800.10 501.33 805.35 564.28 945.82 580.06
00000528 00000116 731.75 137.53 407.99 578.85 768.21 356.08 940.87 373.98 799.61 501.63 806.05 562.92 946.21 577.68
00000529 00000117 730.41 135.09 408.97 581.00 767.76 355.68 939.79 372.81 798.86 500.82 805.41 560.40 946.76 574.34
00000530 00000118 738.35 140.69 401.52 568.07 771.61 353.42 931.79 370.78 787.92 499.70 813.46 558.96 953.27 569.47
00000531 00000119 738.43 150.50 398.07 556.93 774.24 367.54 930.56 373.59 791.59 489.65 800.27 559.22 944.91 562.10
00000532 00000120 739.98 149.97 396.35 556.19 776.57 365.91 932.04 373.27 793.31 490.04 802.24 557.23 946.75 561.19
00000533 00000121 736.15 144.94 408.17 566.40 773.35 350.18 942.17 371.52 802.63 499.48 812.37 550.38 955.11 567.58
00000534 00000122 740.76 146.61 406.05 566.10 777.27 351.03 945.83 371.97 806.75 500.43 816.84 552.60 958.55 569.46
00000535 00000123 742.05 147.39 405.83 562.70 779.54 350.56 947.88 370.31 811.20 497.92 818.99 550.09 962.18 566.06
00000536 00000124 742.30 142.07 407.47 567.02 782.84 348.54 948.45 367.78 813.36 494.49 821.13 546.38 964.58 561.75
00000537 00000125 743.31 140.67 406.79 567.99 784.35 348.27 948.18 367.05 813.85 492.67 822.62 544.48 966.43 559.38
00000538 00000126 744.81 140.04 406.42 569.97 786.52 349.64 949.87 366.84 816.56 493.12 824.33 544.27 970.09 557.65
00000539 00000127 750.44 151.78 398.33 563.63 790.27 362.36 941.27 371.70 808.31 500.22 828.54 556.72 973.93 560.74
00000540 00000128 748.51 137.97 403.59 582.24 791.43 356.28 953.48 370.05 820.06 497.17 830.79 545.38 982.22 554.70
00000541 00000129 755.84 154.79 398.16 571.65 793.47 365.58 944.83 373.64 811.02 503.77 837.81 558.78 991.08 560.88
00000542 00000130 755.16 148.59 402.46 571.24 797.94 373.35 955.76 370.54 825.97 502.06 844.21 562.17 1001.95 555.59
CROP_BBOX: 475 0 1417 919
