Video ID: 	sTp86BaBAuc
H: 	1080
W: 	1920
FPS: 	25.0

FRAME INDEX X0 Y0 W H [Landmarks (5 Points)]

00001965 00000000 710.84 236.23 399.13 599.43 901.87 467.46 1063.18 451.56 1051.02 562.94 934.77 685.93 1064.52 672.65
00001966 00000001 710.23 233.65 400.21 590.50 896.57 456.95 1060.71 447.01 1039.18 551.23 932.88 674.75 1062.21 665.60
00001967 00000002 706.83 224.08 403.42 590.57 886.92 448.82 1052.83 440.38 1028.68 545.19 921.80 662.01 1057.05 653.96
00001968 00000003 699.71 215.81 404.48 582.67 874.69 436.24 1046.42 434.23 1014.07 536.87 912.39 652.26 1044.76 648.82
00001969 DELETE   691.45 211.79 404.41 580.25 865.62 427.37 1036.16 428.30 1000.41 535.88 902.53 645.17 1032.14 643.77
00001970 DELETE   679.58 211.85 414.40 591.65 857.72 422.67 1029.19 424.09 991.86 533.64 889.72 643.37 1024.11 642.33
00001971 00000006 670.48 206.77 417.31 598.26 843.26 418.73 1017.30 417.48 977.67 520.85 880.86 638.71 1019.69 634.69
00001972 00000007 665.10 198.54 414.99 597.57 837.76 411.72 1013.24 410.30 970.53 515.75 876.97 630.49 1016.68 626.38
00001973 00000008 662.17 187.42 410.65 592.33 837.89 415.92 1009.45 409.14 976.07 517.04 875.41 628.04 1016.42 622.78
00001974 00000009 663.21 186.81 410.97 580.90 838.47 413.74 1009.97 406.17 976.04 512.01 880.22 624.66 1016.77 618.86
00001975 00000010 667.27 183.46 410.78 583.75 841.21 412.70 1010.41 402.47 978.15 510.01 885.86 625.09 1019.07 616.84
00001976 00000011 672.45 181.86 409.17 589.22 847.24 411.43 1015.06 400.98 983.20 511.71 887.32 624.41 1022.98 615.55
00001977 00000012 682.66 179.60 403.44 590.94 854.09 412.91 1024.62 403.82 990.89 510.81 893.21 624.67 1029.93 616.70
00001978 00000013 689.86 196.48 403.60 569.02 865.29 409.62 1034.47 406.77 1000.33 509.35 905.39 625.78 1032.77 621.05
00001979 00000014 699.84 196.51 402.06 575.88 873.90 414.22 1046.18 410.17 1013.44 515.92 912.56 631.27 1042.81 625.58
00001980 DELETE   702.95 198.02 403.56 587.39 884.57 419.63 1053.21 415.86 1027.43 525.71 920.57 642.73 1048.32 637.66
00001981 00000016 708.78 205.03 400.24 589.15 892.58 427.34 1055.61 420.50 1036.76 534.89 926.40 650.91 1053.04 644.10
00001982 00000017 711.76 215.93 397.35 586.31 897.16 436.21 1056.95 428.04 1040.63 541.50 929.14 656.49 1055.37 648.83
00001983 00000018 712.77 221.28 397.10 588.30 895.47 442.26 1058.13 433.31 1039.83 547.28 925.56 662.68 1055.52 654.50
00001984 00000019 705.99 216.23 399.54 594.22 886.33 439.02 1051.21 431.18 1029.07 547.36 921.08 662.46 1049.79 654.62
00001985 00000020 700.03 207.68 402.06 595.33 877.32 430.99 1045.51 430.48 1014.49 541.14 913.37 652.75 1041.88 650.41
00001986 00000021 694.47 206.53 401.92 586.30 872.66 426.23 1040.79 425.56 1007.46 540.62 907.55 649.21 1031.80 646.97
00001987 00000022 689.70 207.36 403.41 584.87 868.81 426.43 1036.51 425.15 1002.27 542.11 904.21 649.16 1028.45 646.26
00001988 00000023 682.02 210.85 406.08 587.43 865.43 428.54 1032.42 427.40 998.03 544.68 899.74 652.03 1024.01 649.43
00001989 00000024 678.87 212.49 408.36 593.11 864.03 429.76 1030.10 428.61 997.17 546.22 898.21 656.25 1021.72 653.68
00001990 00000025 677.18 209.12 409.22 601.97 862.86 429.28 1027.57 427.75 997.95 545.62 894.01 656.63 1018.83 654.03
00001991 00000026 673.79 208.12 407.18 593.93 862.00 427.87 1025.59 428.09 997.40 543.67 892.34 653.20 1014.84 652.24
00001992 00000027 668.66 205.51 410.46 592.47 862.92 425.38 1026.06 424.84 998.88 540.55 892.02 649.75 1014.12 648.32
00001993 00000028 668.46 199.27 409.56 593.52 866.35 420.21 1028.29 420.21 1003.30 535.57 893.25 645.93 1014.06 645.30
00001994 00000029 665.22 196.59 411.21 591.36 863.91 416.34 1028.25 415.36 1003.96 529.98 895.16 642.79 1017.77 640.97
00001995 00000030 663.35 190.12 406.17 593.01 858.55 426.37 1018.06 410.79 1001.00 533.76 895.54 645.37 1016.60 633.57
00001996 00000031 665.78 187.46 403.02 585.71 859.33 422.38 1016.86 404.31 1000.67 528.72 900.84 638.58 1019.20 624.36
00001997 00000032 668.13 183.31 400.34 588.47 861.06 417.36 1015.53 400.53 1000.69 520.41 903.92 634.40 1020.49 620.83
00001998 00000033 670.35 175.47 397.82 591.27 859.15 409.46 1009.89 395.53 993.65 512.69 903.29 628.10 1015.58 616.52
00001999 00000034 669.06 169.14 397.43 591.01 858.05 400.46 1010.01 393.98 988.40 499.74 896.02 616.20 1007.51 610.87
00002000 00000035 664.08 158.69 397.23 600.09 856.12 394.30 1004.55 391.50 982.03 490.06 888.21 607.41 999.13 604.97
00002001 00000036 660.27 155.66 399.34 597.45 847.36 387.64 996.96 386.63 971.75 484.59 879.33 600.41 992.86 599.55
00002002 00000037 661.53 154.23 399.06 594.36 844.57 383.41 1005.48 384.66 980.07 478.14 871.59 597.92 1001.12 598.72
00002003 00000038 660.44 151.58 396.96 593.54 844.60 379.98 1004.77 383.14 979.58 474.81 870.12 594.32 998.80 596.74
00002004 00000039 659.58 150.94 397.94 589.46 843.26 376.27 1003.57 380.37 978.19 472.93 867.83 589.73 997.68 592.85
00002005 00000040 658.97 150.01 396.41 587.45 840.54 373.51 1001.17 375.89 974.71 471.67 865.26 587.60 995.66 589.25
00002006 00000041 656.27 147.81 398.24 587.55 837.24 372.19 1000.50 374.23 973.64 469.78 862.54 586.22 995.74 587.46
00002007 00000042 653.24 145.11 399.16 587.86 833.60 369.17 999.95 371.64 972.78 469.46 859.99 585.79 995.19 587.22
00002008 00000043 653.05 142.29 396.67 584.46 833.13 367.50 999.33 369.52 973.50 468.92 859.16 584.06 993.12 585.21
00002009 00000044 650.57 140.77 396.65 587.77 830.38 364.74 997.14 368.01 971.34 469.24 856.07 581.40 992.10 583.41
00002010 00000045 649.17 139.42 395.69 584.64 832.02 370.07 996.38 373.92 969.26 468.98 855.35 581.18 987.20 583.79
00002011 00000046 646.39 139.45 397.11 582.98 827.96 370.86 993.33 373.23 965.21 468.55 852.84 580.85 984.63 582.11
00002012 00000047 639.67 138.14 400.61 583.43 819.48 364.61 986.90 369.19 956.44 465.69 846.62 578.62 977.36 581.34
00002013 00000048 633.76 134.60 403.42 586.82 809.43 358.72 980.82 363.54 946.00 461.93 839.45 576.01 970.86 578.43
00002014 00000049 628.15 131.58 407.33 589.17 803.80 356.32 976.30 361.54 938.84 461.13 836.32 575.08 966.26 577.43
00002015 00000050 625.52 130.63 408.51 588.46 801.91 353.06 974.99 357.67 937.78 456.92 835.20 571.79 966.62 573.48
00002016 00000051 624.69 129.35 408.82 588.57 799.39 350.61 973.16 353.72 934.34 452.67 833.64 569.51 965.53 569.97
00002017 00000052 622.89 126.04 407.53 589.88 797.12 348.32 970.73 350.73 931.88 448.41 832.78 567.53 963.48 567.42
00002018 00000053 621.32 121.91 406.28 592.90 795.18 347.19 968.14 349.96 928.82 447.03 831.46 565.92 961.59 566.18
00002019 00000054 619.39 123.09 405.52 588.10 793.56 345.42 965.74 349.09 926.17 445.49 830.30 563.15 958.78 564.13
00002020 00000055 618.95 109.42 401.15 598.32 791.55 349.31 966.52 349.94 925.36 448.27 827.12 563.50 965.01 563.32
00002021 00000056 617.84 110.36 400.71 595.90 790.26 347.61 964.83 348.71 924.06 447.38 824.57 561.69 962.05 562.10
00002022 00000057 617.00 110.91 400.70 594.93 788.77 347.63 963.96 347.73 924.05 447.16 824.85 562.50 962.15 562.13
00002023 00000058 614.15 111.07 401.95 596.36 787.52 347.98 962.64 347.32 923.25 447.79 824.42 563.13 961.78 562.05
00002024 00000059 609.94 122.51 409.38 591.08 788.15 341.82 959.41 346.17 922.12 445.43 825.45 561.28 953.34 562.74
00002025 00000060 608.27 125.47 412.78 599.50 783.70 343.85 956.90 346.79 919.65 447.29 819.79 566.23 951.72 566.46
00002026 00000061 605.91 126.30 416.82 607.44 782.13 344.21 955.45 348.96 919.90 448.73 815.78 568.62 951.68 570.03
00002027 00000062 605.15 125.64 418.76 612.72 781.40 344.26 954.25 349.36 918.77 448.11 813.95 566.99 952.97 568.52
00002028 00000063 608.80 126.23 418.84 610.15 783.74 344.80 958.83 350.15 919.99 447.17 817.72 568.53 955.46 570.29
00002029 00000064 615.66 123.54 413.95 612.41 787.83 349.93 961.57 356.56 922.65 446.04 820.20 567.47 957.82 570.69
00002030 00000065 620.92 121.02 412.32 612.12 792.72 350.03 966.69 359.19 925.19 447.12 819.39 565.48 958.58 570.95
00002031 00000066 626.91 119.96 410.68 602.73 799.91 350.02 972.03 357.74 931.27 446.58 827.22 563.41 963.09 567.83
00002032 00000067 630.75 124.06 412.17 601.79 805.32 345.63 979.68 355.38 939.17 445.97 832.11 564.98 966.93 571.00
00002033 00000068 638.39 129.47 411.39 596.65 813.46 346.32 986.95 354.00 948.62 447.78 837.91 565.63 976.26 569.94
00002034 00000069 643.41 132.59 409.79 591.71 822.54 348.17 992.15 353.49 960.15 450.11 847.91 568.06 984.84 570.65
00002035 00000070 646.56 134.82 407.54 588.00 827.12 350.60 996.06 356.17 964.81 452.74 852.23 569.71 987.16 572.81
00002036 00000071 648.15 137.18 404.90 579.80 828.00 354.23 996.10 359.94 963.11 458.18 851.72 570.16 984.89 573.65
00002037 00000072 650.30 137.14 402.17 575.27 829.10 353.84 994.33 358.65 961.50 460.30 853.91 569.14 982.62 572.02
00002038 00000073 653.94 139.31 400.65 575.40 831.08 353.14 995.47 358.68 961.82 460.20 855.56 569.69 984.01 573.30
00002039 00000074 656.52 139.10 402.92 592.34 836.85 353.95 999.21 360.07 967.72 460.76 858.87 575.53 989.11 579.79
00002040 00000075 658.44 139.75 404.91 596.72 842.75 356.69 1002.67 364.07 972.47 463.05 860.54 577.50 991.36 583.28
00002041 00000076 667.11 138.27 399.84 581.74 845.55 360.96 1011.25 370.03 973.08 469.47 861.36 577.66 994.62 584.72
00002042 00000077 661.60 132.87 410.99 597.43 842.36 365.57 1021.84 377.39 972.69 474.07 860.97 582.30 997.04 593.46
00002043 00000078 669.85 144.87 408.05 595.39 849.59 365.13 1027.46 391.85 979.27 475.50 860.26 582.23 999.01 603.06
00002044 00000079 677.90 145.79 409.68 607.84 860.80 368.30 1036.10 396.46 988.43 480.69 864.97 587.77 1004.43 610.23
00002045 00000080 687.83 146.77 407.66 612.50 867.81 376.44 1039.41 399.72 994.97 487.12 875.18 593.23 1012.84 611.76
00002046 00000081 693.67 148.33 407.08 622.35 873.43 383.23 1041.44 397.78 1002.15 490.70 888.81 602.90 1026.17 614.11
00002047 00000082 697.34 155.75 405.30 605.35 877.20 388.71 1043.96 395.71 1007.22 491.85 905.63 605.81 1036.20 610.63
00002048 00000083 697.23 159.48 404.26 599.06 875.44 390.20 1042.95 395.84 1007.61 491.39 905.76 606.83 1035.38 610.74
00002049 00000084 693.70 157.94 404.33 613.40 869.29 391.36 1039.37 400.45 1000.48 495.04 893.65 610.91 1029.94 617.72
00002050 00000085 688.74 159.84 407.41 615.43 864.72 390.20 1036.15 403.83 993.99 495.92 882.94 610.84 1021.38 621.46
00002051 00000086 687.59 162.15 410.56 623.64 867.56 389.73 1036.76 408.17 994.02 499.66 877.31 614.61 1016.17 629.29
00002052 00000087 693.09 168.27 406.51 633.32 873.27 397.66 1038.99 415.84 996.31 510.40 881.50 624.01 1017.91 638.31
00002053 DELETE   697.53 193.33 415.29 614.59 876.31 404.80 1049.91 422.84 1004.17 523.07 895.16 637.27 1024.09 650.25
00002054 00000089 701.91 207.36 410.51 594.95 886.11 418.32 1058.87 433.94 1017.70 537.34 906.94 649.32 1033.71 660.42
00002055 00000090 708.33 216.29 405.16 589.04 894.12 429.58 1061.37 443.86 1023.43 545.86 914.89 656.08 1041.29 666.59
00002056 00000091 710.91 220.37 403.89 589.12 893.57 435.68 1065.24 450.26 1025.42 552.09 912.75 663.03 1043.55 674.18
00002057 00000092 711.54 216.31 402.80 604.50 895.37 438.35 1066.22 455.34 1028.53 551.01 906.12 663.34 1040.95 677.06
00002058 00000093 710.63 218.35 400.61 604.02 895.09 446.76 1063.28 460.53 1025.99 551.73 905.80 664.97 1038.41 676.13
00002059 00000094 712.15 222.71 400.51 602.14 895.43 453.45 1062.73 464.54 1024.62 557.66 909.45 670.76 1041.49 679.71
00002060 00000095 706.59 225.45 402.70 600.50 891.93 461.00 1058.70 466.03 1023.67 563.81 910.33 676.02 1040.56 679.88
00002061 00000096 701.04 222.25 404.04 612.77 892.73 464.67 1054.82 469.26 1024.54 567.27 911.04 679.99 1038.02 683.04
00002062 00000097 697.89 226.28 404.03 614.37 891.08 466.59 1050.96 468.28 1024.40 567.77 912.98 683.25 1037.85 683.98
00002063 00000098 694.14 224.68 399.88 608.72 887.80 467.66 1046.82 467.17 1024.30 569.43 921.33 687.31 1038.23 686.12
00002064 00000099 694.47 226.27 397.18 602.20 887.91 466.54 1047.76 465.46 1026.94 567.57 924.94 685.46 1040.75 683.51
00002065 00000100 701.56 228.45 395.12 597.65 892.79 466.96 1055.86 465.78 1035.02 567.02 930.47 685.06 1049.07 683.27
00002066 00000101 703.80 231.00 397.00 598.78 897.35 470.15 1059.88 465.62 1042.01 569.35 931.95 687.64 1053.67 683.55
00002067 00000102 710.21 237.31 395.02 593.50 904.41 471.22 1064.48 466.70 1047.47 572.49 932.85 688.13 1055.87 684.42
00002068 00000103 714.28 248.69 396.76 582.76 908.33 469.53 1071.92 468.73 1051.34 575.66 935.61 688.84 1059.26 687.82
00002069 00000104 717.04 248.45 400.45 584.34 913.87 467.86 1074.44 469.67 1051.49 576.98 934.38 686.20 1058.90 687.37
00002070 00000105 720.50 241.48 400.59 593.64 915.71 465.01 1076.63 471.84 1050.26 574.12 932.77 684.55 1059.13 690.30
00002071 00000106 722.80 236.91 401.38 581.06 914.00 455.77 1075.97 474.23 1045.14 556.96 925.17 666.38 1054.23 682.33
00002072 00000107 714.52 231.64 406.81 583.31 907.94 446.06 1074.23 476.82 1041.56 545.14 909.63 655.29 1048.50 681.10
00002073 00000108 711.93 225.82 407.30 576.68 900.68 438.91 1066.29 471.14 1025.93 538.14 904.85 647.13 1037.68 673.56
00002074 00000109 711.27 223.48 408.05 594.92 899.18 437.91 1066.42 471.44 1024.35 539.74 898.58 650.61 1034.79 678.26
00002075 00000110 713.30 226.53 406.50 596.74 900.72 443.32 1066.20 474.96 1023.79 548.03 897.96 655.05 1034.42 681.41
00002076 00000111 716.43 231.45 406.73 593.89 901.87 452.58 1067.77 481.03 1023.68 558.18 899.69 663.76 1033.24 688.24
00002077 00000112 720.40 235.35 405.93 599.82 905.74 458.45 1071.71 484.67 1026.66 568.78 904.68 673.93 1036.97 696.27
00002078 00000113 727.68 254.54 407.12 596.71 901.91 463.14 1073.67 488.88 1021.69 582.56 902.73 686.25 1040.62 707.22
00002079 00000114 721.26 258.77 419.56 596.26 914.79 471.83 1081.18 495.88 1025.35 599.54 913.53 696.50 1038.90 717.57
00002080 00000115 728.34 268.26 418.68 591.72 919.64 481.96 1086.76 502.35 1031.79 613.89 919.08 706.39 1044.73 725.00
00002081 00000116 734.85 272.05 418.53 591.67 926.78 488.43 1093.36 512.75 1036.50 621.29 922.44 711.19 1043.92 733.33
00002082 00000117 739.76 274.82 416.52 593.44 929.93 491.76 1097.97 516.65 1039.66 624.50 925.63 714.72 1049.02 737.31
00002083 00000118 739.28 275.85 416.70 592.04 930.33 494.17 1099.54 518.15 1041.38 624.99 927.32 717.39 1051.05 739.28
00002084 00000119 734.02 276.24 419.01 593.71 927.13 493.14 1095.16 515.69 1037.71 623.76 924.83 716.51 1048.44 737.26
00002085 00000120 729.07 273.93 420.25 601.60 921.78 491.94 1090.33 510.00 1035.86 623.53 922.45 716.95 1049.54 733.88
00002086 00000121 724.88 269.17 420.64 609.60 916.54 488.86 1082.52 502.48 1034.67 618.27 920.25 714.82 1050.99 727.72
00002087 00000122 730.86 277.71 406.41 582.20 906.01 480.20 1076.96 494.61 1032.73 607.74 913.00 705.13 1051.05 717.42
00002088 00000123 730.75 273.82 400.03 574.29 905.57 477.80 1075.55 493.02 1033.40 603.61 916.02 700.70 1049.89 713.55
00002089 00000124 729.55 274.33 401.28 576.64 906.70 478.31 1077.21 493.76 1037.20 601.13 917.66 701.29 1053.07 714.04
00002090 00000125 731.13 274.32 403.70 580.50 913.10 479.73 1080.55 490.99 1044.29 603.25 924.43 706.14 1057.14 715.81
00002091 00000126 734.46 279.14 403.96 578.98 927.41 484.46 1087.17 495.90 1057.51 608.45 933.31 711.38 1059.53 721.83
00002092 00000127 735.31 282.91 409.90 592.63 937.88 489.47 1097.45 507.93 1060.63 618.82 942.48 715.29 1061.53 729.08
00002093 00000128 746.68 285.33 405.37 587.60 944.77 492.85 1103.65 508.10 1068.36 622.71 951.80 719.73 1066.78 731.36
00002094 00000129 751.29 282.40 408.05 595.60 950.06 492.27 1109.37 510.22 1077.94 620.56 957.06 719.57 1075.08 733.53
00002095 00000130 751.58 283.78 410.38 592.79 952.49 492.28 1112.78 509.49 1083.55 619.70 961.43 720.65 1079.67 734.21
00002096 00000131 752.97 285.05 410.24 592.82 953.29 493.01 1113.79 508.04 1084.72 618.93 963.56 721.33 1082.92 732.91
00002097 00000132 751.62 281.07 409.58 590.37 955.29 488.66 1113.89 505.20 1085.64 615.37 965.49 717.36 1081.46 730.18
00002098 00000133 749.63 277.39 410.86 589.53 954.92 483.12 1113.51 499.84 1085.81 610.35 966.77 713.53 1081.78 726.39
00002099 00000134 751.22 273.58 406.37 586.01 951.15 478.65 1111.80 494.01 1083.86 601.76 967.08 707.75 1082.94 719.49
00002100 00000135 747.89 269.45 397.97 576.97 946.13 473.83 1106.65 489.00 1077.05 596.41 962.26 701.82 1078.43 713.25
00002101 00000136 734.36 260.17 392.17 583.64 934.81 480.48 1088.27 486.93 1070.61 592.29 958.15 699.66 1074.42 705.23
00002102 00000137 726.43 248.44 394.26 588.48 931.84 473.19 1080.13 480.40 1065.06 578.94 955.81 689.51 1068.03 695.81
00002103 00000138 631.59 216.43 338.24 472.46 742.55 402.88 894.63 408.14 828.09 497.33 753.96 574.83 874.99 579.14
00002104 00000139 630.38 212.14 336.24 474.30 739.36 399.87 891.70 405.16 824.67 495.05 750.80 571.52 872.83 575.54
00002105 00000140 628.37 207.91 333.75 470.06 733.95 396.65 887.23 400.88 820.05 492.58 747.12 567.70 868.79 570.55
00002106 00000141 625.64 205.49 334.80 468.82 732.09 394.95 884.81 398.70 818.36 490.56 746.91 566.20 867.00 568.58
00002107 00000142 622.04 203.27 336.02 468.81 731.42 394.96 879.88 395.68 817.41 485.99 745.68 562.96 862.13 564.30
00002108 00000143 621.14 202.55 337.01 471.97 730.97 394.04 879.73 394.60 817.07 485.00 744.99 562.79 862.53 563.91
00002109 00000144 621.04 202.21 336.89 471.94 730.56 393.77 879.33 394.58 816.81 484.39 744.67 562.76 862.00 564.09
00002110 00000145 621.28 202.46 336.68 473.88 730.48 393.58 879.01 394.63 816.27 484.53 743.90 562.98 861.70 564.47
00002111 00000146 621.17 202.38 336.80 474.90 730.70 393.57 878.78 394.86 816.13 484.52 743.37 562.73 861.36 564.44
00002112 00000147 621.00 202.80 337.55 477.71 731.30 393.97 878.72 395.53 815.90 485.73 742.68 562.57 861.82 564.43
00002113 00000148 620.81 203.42 338.15 480.70 732.07 395.84 877.63 397.50 814.98 486.04 742.65 562.55 861.45 564.59
00002114 00000149 620.21 203.71 338.59 481.78 732.31 396.98 877.84 399.15 815.39 486.56 742.48 563.70 860.73 566.28
00002115 00000150 623.83 205.41 336.65 478.34 734.01 399.13 881.82 403.90 817.26 491.45 745.01 565.72 864.07 569.65
00002116 00000151 624.83 208.87 336.54 474.86 734.09 401.87 884.01 407.31 817.51 494.92 744.01 567.79 865.16 572.00
00002117 00000152 627.43 216.37 335.12 470.49 734.70 408.16 885.13 415.19 815.07 500.10 744.29 572.76 862.90 578.38
00002118 00000153 627.19 219.31 337.20 474.45 735.07 410.88 885.62 417.72 814.68 502.30 745.17 576.94 862.50 582.70
00002119 00000154 626.63 221.55 338.73 481.69 735.06 411.16 885.10 417.59 813.16 503.29 743.88 578.96 861.54 584.86
00002120 00000155 627.03 222.50 339.70 481.39 733.98 411.56 883.57 419.20 809.78 503.42 742.36 579.62 858.09 586.60
00002121 00000156 626.55 223.79 339.67 480.33 733.50 411.14 883.60 419.52 808.95 503.62 740.84 579.23 857.63 586.77
00002122 00000157 626.29 220.77 338.63 480.27 733.27 412.14 881.49 422.70 805.92 502.84 737.63 576.01 854.04 585.56
00002123 00000158 627.16 215.27 339.19 486.98 731.61 409.73 882.05 421.17 804.09 500.74 733.85 574.47 853.90 584.97
00002124 00000159 625.80 210.77 339.33 488.57 726.58 404.16 877.14 416.63 798.13 499.32 729.59 571.49 849.46 582.32
00002125 00000160 626.50 206.21 337.60 485.43 719.76 398.26 870.24 409.43 790.33 493.64 725.08 566.50 844.41 576.36
00002126 00000161 626.48 200.30 338.36 487.05 716.97 393.53 867.39 404.01 786.22 488.69 723.73 564.68 841.02 573.92
00002127 00000162 625.02 195.82 336.58 489.41 715.88 389.82 864.06 399.73 781.65 483.01 723.64 561.96 834.81 570.95
00002128 00000163 619.48 193.54 349.68 508.42 718.81 383.21 862.23 396.12 787.84 482.59 727.62 563.96 839.11 576.07
00002129 00000164 620.31 192.40 349.99 510.92 719.56 382.44 863.86 395.41 788.60 481.02 727.11 564.16 839.40 576.31
00002130 00000165 621.60 191.50 349.29 513.17 720.16 382.41 865.81 394.82 789.93 477.06 726.24 562.51 843.79 574.29
00002131 00000166 621.44 190.04 349.29 511.63 718.40 382.26 867.19 393.72 789.75 474.52 727.31 563.06 845.83 573.96
00002132 00000167 621.09 189.72 348.62 510.27 717.93 382.11 867.75 394.63 788.93 472.84 724.58 561.16 846.15 573.02
00002133 00000168 621.39 191.52 348.13 508.69 720.79 380.65 867.83 394.30 792.22 472.79 724.19 558.39 845.65 571.28
