Video ID: 	EdAS_64Dt_s
H: 	1080
W: 	1920
FPS: 	25.0

FRAME INDEX X0 Y0 W H [Landmarks (5 Points)]

00016330 00000000 596.06 175.52 379.21 529.67 676.73 352.89 864.42 351.22 759.71 460.08 696.70 563.81 847.07 562.58
00016331 DELETE   601.27 159.83 379.64 533.88 681.68 348.45 870.66 344.78 766.74 451.80 703.51 558.28 856.12 555.18
00016332 DELETE   603.90 145.14 383.07 541.76 687.58 345.61 877.92 338.93 778.35 445.15 713.00 557.41 862.88 550.99
00016333 00000003 610.06 152.01 385.12 533.66 697.18 344.99 886.53 337.46 789.18 443.07 724.66 558.11 872.08 551.08
00016334 DELETE   619.19 160.86 383.83 530.09 706.92 340.91 891.20 337.36 795.58 445.23 732.63 554.57 869.80 550.56
00016335 00000005 625.55 167.42 383.38 531.39 711.44 340.65 898.62 337.13 800.62 446.22 739.51 557.64 880.84 553.34
00016336 00000006 630.64 170.79 382.64 531.30 717.14 339.49 904.03 338.39 808.62 446.48 747.33 560.57 882.51 558.56
00016337 00000007 635.51 167.88 382.32 535.04 723.61 342.14 910.42 340.25 816.10 447.12 753.43 562.46 889.34 560.30
00016338 00000008 640.08 177.18 379.97 525.68 726.88 343.06 915.38 342.74 817.76 449.26 752.64 563.16 891.28 562.35
00016339 00000009 641.81 180.26 380.03 521.89 728.72 345.24 917.35 346.55 818.34 450.15 749.96 561.89 893.01 562.56
00016340 00000010 644.01 183.56 380.85 517.65 730.00 343.18 918.37 346.72 818.52 449.85 746.96 559.40 892.07 561.88
00016341 00000011 644.23 185.00 382.43 517.65 730.83 341.62 920.35 347.59 818.99 448.95 744.03 557.67 893.12 562.19
00016342 00000012 644.36 185.51 384.29 517.78 731.41 341.90 921.74 348.19 819.21 449.99 743.55 558.33 894.06 563.19
00016343 00000013 644.84 182.92 384.42 521.07 732.55 343.43 923.62 350.56 820.23 450.72 743.62 558.81 896.59 564.37
00016344 00000014 646.68 182.02 384.04 522.26 734.61 344.23 925.68 351.61 821.98 451.53 745.27 559.84 897.77 565.79
00016345 00000015 648.18 183.03 383.65 521.55 735.39 343.77 926.66 351.19 822.59 450.76 746.13 559.32 899.63 565.39
00016346 00000016 649.18 178.19 384.18 525.95 738.34 345.05 929.16 352.33 824.77 450.78 749.16 559.52 901.50 565.46
00016347 00000017 651.18 177.82 383.21 524.20 740.33 344.60 930.66 350.70 826.94 450.46 753.13 560.39 901.56 565.31
00016348 00000018 652.25 178.32 383.10 522.72 741.58 344.04 931.65 348.80 828.51 450.53 756.96 560.81 902.60 564.49
00016349 00000019 652.65 170.65 381.32 532.47 744.09 350.23 929.43 353.91 830.81 451.84 760.00 560.22 903.15 563.56
00016350 00000020 654.22 167.25 379.83 537.12 747.23 350.70 931.31 354.99 831.57 451.22 763.69 561.53 902.07 565.60
00016351 00000021 653.97 172.41 381.77 534.82 744.87 345.16 931.67 350.46 829.52 451.15 762.94 563.89 897.61 568.39
00016352 00000022 654.41 176.64 383.26 531.13 745.07 341.43 933.74 346.38 831.30 450.92 764.73 564.61 897.39 568.60
00016353 00000023 652.92 176.67 387.54 530.12 744.90 340.30 933.63 344.18 831.84 449.79 766.42 564.03 895.90 566.75
00016354 00000024 654.02 176.65 384.55 524.91 742.64 341.50 934.31 348.29 826.75 449.61 759.57 560.72 900.00 565.84
00016355 00000025 653.24 176.20 384.36 520.01 742.64 342.36 934.11 348.25 826.50 448.58 759.19 559.59 901.22 563.87
00016356 00000026 653.39 175.02 383.11 520.36 741.42 342.35 933.36 348.00 825.07 448.58 757.96 560.64 900.56 564.64
00016357 00000027 653.09 173.15 383.15 525.06 742.62 341.85 934.48 347.68 827.29 448.19 760.14 561.75 900.11 565.88
00016358 00000028 653.66 171.59 384.63 533.40 745.39 340.08 934.82 343.78 831.73 448.31 767.25 565.04 897.41 567.52
00016359 00000029 654.55 165.82 383.61 536.30 748.87 340.23 935.77 343.54 835.54 448.43 771.47 564.68 897.39 566.92
00016360 00000030 654.76 162.97 383.87 536.00 749.71 340.46 936.50 343.68 836.24 447.68 772.55 562.98 899.44 565.21
00016361 00000031 655.45 167.48 383.68 526.15 749.93 338.98 936.86 341.32 836.72 446.05 772.44 559.55 900.72 560.91
00016362 00000032 656.34 168.01 383.41 523.73 751.19 336.82 937.86 339.41 838.15 444.68 773.39 556.40 903.48 558.07
00016363 00000033 657.69 162.02 383.25 527.59 751.86 335.60 940.62 337.17 839.51 439.85 772.90 553.98 907.91 555.10
00016364 00000034 660.89 161.70 381.21 527.97 754.52 341.32 940.95 344.70 839.04 438.39 769.63 550.19 910.17 553.01
00016365 00000035 660.97 154.87 381.42 533.59 752.96 345.11 938.68 348.10 836.19 435.90 764.22 547.71 913.06 549.94
00016366 00000036 661.25 155.98 382.06 528.71 755.32 341.73 945.07 349.77 838.63 436.27 758.60 540.73 918.15 547.40
00016367 00000037 662.23 154.03 382.39 527.92 756.89 336.25 949.44 345.04 841.44 432.85 757.55 536.65 922.29 543.97
00016368 00000038 664.34 154.38 380.93 523.91 757.56 330.03 950.77 338.41 843.76 430.39 759.00 532.63 924.98 539.78
00016369 00000039 666.12 156.51 381.44 520.37 758.84 327.83 952.50 336.76 845.18 431.83 759.57 531.52 927.33 539.30
00016370 00000040 666.75 152.60 382.53 524.57 760.70 328.06 954.96 337.64 848.47 432.81 760.72 530.95 930.39 539.41
00016371 00000041 665.71 151.09 383.33 526.69 760.70 328.14 954.93 337.21 849.62 432.37 760.66 531.01 931.17 538.99
00016372 00000042 663.95 150.04 384.62 525.13 760.60 327.60 955.36 336.83 851.30 432.46 761.26 529.95 932.24 538.12
00016373 00000043 664.44 150.41 383.09 524.30 760.44 327.17 955.04 334.90 851.37 431.30 762.34 530.52 932.17 537.38
00016374 00000044 665.94 148.24 379.69 527.15 763.27 336.44 952.36 342.51 853.40 431.82 764.90 531.16 933.53 536.66
00016375 00000045 662.64 145.99 379.65 529.14 761.79 339.50 949.52 345.20 852.83 431.63 764.20 531.68 931.12 536.76
00016376 00000046 661.30 146.72 381.43 528.17 759.86 339.30 949.19 345.31 850.72 431.96 763.93 532.71 929.25 537.36
00016377 00000047 661.51 144.25 384.21 532.70 763.58 339.16 954.31 342.54 859.30 431.97 775.65 539.19 932.12 540.73
00016378 00000048 665.24 149.39 383.67 534.54 765.58 343.26 956.88 342.23 863.03 436.77 782.77 548.68 936.55 546.27
00016379 00000049 666.30 146.54 382.55 541.63 766.84 351.22 954.00 345.85 865.84 439.78 785.99 553.74 939.77 548.41
00016380 00000050 667.63 150.43 379.28 540.59 768.49 359.29 950.90 350.42 866.72 443.49 789.04 558.32 941.02 550.67
00016381 00000051 669.35 147.30 379.08 546.04 770.40 360.91 953.35 351.12 871.52 448.46 792.38 562.44 943.83 554.38
00016382 00000052 673.94 142.42 378.98 554.22 775.26 363.36 961.29 352.69 879.38 452.82 797.94 566.91 951.28 557.93
00016383 00000053 674.96 146.26 380.65 557.00 780.18 362.43 963.78 353.22 884.95 454.10 803.22 568.94 953.46 560.99
00016384 00000054 675.52 150.58 384.49 564.97 781.25 358.55 964.75 348.18 887.55 456.79 807.10 574.33 953.74 565.15
00016385 00000055 675.63 146.02 382.58 575.74 778.62 356.18 965.58 345.38 884.81 456.15 804.65 579.07 951.70 569.96
00016386 00000056 673.71 139.07 381.90 581.17 775.33 355.02 964.38 343.65 883.41 454.90 801.63 578.78 949.91 569.73
00016387 00000057 673.10 141.00 381.89 576.85 773.17 352.45 964.56 342.36 880.67 453.10 797.70 575.63 949.73 567.74
00016388 00000058 672.41 142.98 382.31 572.87 772.68 350.57 964.46 342.77 878.98 454.17 795.37 574.02 948.41 567.92
00016389 00000059 673.57 143.09 381.66 571.77 773.92 350.78 964.14 345.48 876.75 454.11 793.71 571.44 946.22 567.25
00016390 00000060 673.11 149.70 382.17 568.46 773.08 349.91 962.25 345.16 872.47 448.54 789.08 566.08 946.35 562.39
00016391 00000061 671.31 143.45 382.99 573.08 770.17 351.22 959.65 345.92 869.18 448.01 784.56 564.79 943.71 561.28
00016392 00000062 662.78 151.85 388.45 562.78 765.59 353.92 953.52 349.12 862.13 446.48 778.49 562.84 936.30 559.19
00016393 00000063 657.43 153.58 388.80 558.44 761.55 356.92 944.36 353.01 856.44 450.16 776.90 562.79 926.85 559.17
00016394 00000064 656.81 153.63 385.59 557.84 756.12 356.79 939.47 355.22 848.33 451.15 772.22 563.34 920.09 561.62
00016395 00000065 656.36 166.33 383.43 545.92 751.50 356.03 937.50 356.86 840.67 453.53 766.50 563.93 916.13 564.20
00016396 00000066 654.32 170.10 383.18 544.60 748.41 356.21 934.54 357.27 838.84 454.83 763.19 566.66 912.07 567.36
00016397 00000067 651.91 165.11 384.39 552.13 745.57 358.99 932.40 359.79 836.95 458.04 761.31 569.33 911.51 569.79
00016398 00000068 650.50 166.03 385.53 552.65 743.86 359.80 931.42 361.76 834.53 459.28 759.41 570.13 909.61 571.61
00016399 00000069 650.09 171.97 385.92 546.49 744.20 360.50 931.80 364.46 833.35 461.08 758.70 570.58 907.81 573.91
00016400 00000070 649.53 172.89 386.80 546.00 743.50 363.06 931.38 366.42 832.09 463.63 759.29 572.39 908.25 575.24
00016401 00000071 650.43 174.52 384.70 544.42 743.98 362.99 930.91 367.66 831.66 466.34 759.16 574.13 905.79 578.23
00016402 00000072 650.72 172.76 384.78 546.57 743.92 363.97 933.10 367.98 832.63 468.86 760.03 577.32 907.07 580.93
00016403 00000073 653.71 177.10 382.63 538.71 747.86 364.72 936.57 369.85 836.22 471.45 762.19 576.22 911.98 580.63
00016404 00000074 657.61 173.54 382.12 542.83 752.91 368.82 943.85 375.21 842.31 474.76 765.97 576.32 923.45 581.49
00016405 00000075 658.86 180.19 384.52 540.83 757.27 374.81 950.86 378.39 853.41 483.09 772.34 581.93 933.44 585.35
00016406 00000076 660.56 184.60 384.83 547.47 760.37 380.48 955.32 382.12 860.16 494.13 775.34 587.24 942.32 589.19
00016407 00000077 660.13 184.54 384.69 550.81 760.19 383.59 955.64 383.51 863.02 497.10 773.79 588.84 943.99 589.46
00016408 00000078 659.79 179.72 383.51 547.02 757.62 379.36 952.03 377.07 858.78 489.81 773.68 585.20 940.66 583.82
00016409 00000079 658.82 174.67 378.57 542.50 756.88 369.18 948.10 370.97 855.29 474.25 769.47 574.27 934.13 575.58
00016410 00000080 658.25 163.36 378.36 549.31 756.47 358.63 946.79 359.45 853.31 457.15 769.40 565.71 931.22 565.86
00016411 00000081 652.63 155.33 384.82 549.13 757.40 348.69 943.25 347.57 858.25 447.07 774.16 559.76 924.82 557.88
00016412 00000082 650.44 149.58 388.09 546.99 757.18 341.30 943.53 336.56 858.73 433.52 776.18 551.45 923.55 546.24
00016413 00000083 645.87 141.88 390.71 547.10 754.92 338.06 946.94 331.55 863.13 429.30 778.32 547.14 929.73 540.29
00016414 00000084 643.95 140.72 391.97 547.04 755.23 339.93 947.80 332.54 866.34 427.22 780.33 546.80 934.33 539.22
00016415 00000085 640.89 146.09 391.28 550.75 752.92 348.45 942.60 338.08 866.20 438.12 784.99 559.58 933.31 549.50
00016416 DELETE   634.21 159.24 392.64 562.36 746.55 369.05 939.59 362.75 863.50 466.20 779.87 582.91 935.10 576.08
00016417 00000087 629.48 196.24 392.58 551.08 741.51 385.51 936.37 378.81 864.60 496.17 780.13 602.03 937.13 595.71
00016418 00000088 637.72 211.22 389.61 567.54 748.09 404.77 935.08 388.23 864.36 512.54 782.23 617.06 937.07 601.40
00016419 00000089 643.51 211.80 388.06 573.91 751.47 410.35 934.66 390.60 866.69 512.25 787.58 623.20 940.92 604.72
00016420 00000090 647.36 214.51 387.28 565.29 755.81 410.44 940.24 389.40 872.70 512.40 792.72 621.02 947.77 601.48
00016421 00000091 650.58 204.12 388.33 568.70 760.11 410.90 947.30 389.53 877.96 513.52 796.11 619.30 953.39 599.55
00016422 00000092 655.53 203.30 387.24 564.50 763.87 411.84 952.07 390.48 881.40 514.81 797.68 618.32 957.33 599.19
00016423 00000093 661.50 206.59 381.79 555.85 765.72 413.07 956.12 392.09 883.54 515.08 796.53 618.66 961.32 600.66
00016424 00000094 662.92 205.67 381.54 553.95 766.40 411.77 958.19 390.82 885.01 514.39 796.45 617.44 963.38 599.66
00016425 00000095 661.83 202.11 383.04 556.11 766.00 409.52 959.15 389.05 886.13 515.41 794.26 615.86 963.42 598.58
00016426 00000096 662.47 205.26 384.49 552.97 766.10 406.39 959.16 385.75 885.97 513.01 795.01 612.71 963.90 595.32
00016427 00000097 662.07 202.23 384.15 553.12 766.23 403.41 958.13 382.91 885.54 508.59 795.85 609.55 962.84 591.92
00016428 00000098 661.72 200.28 384.22 551.53 766.85 400.56 958.75 380.19 887.39 505.37 796.63 607.44 962.07 590.12
00016429 00000099 663.28 199.66 381.71 550.73 767.18 399.44 958.46 379.12 887.02 502.94 797.36 606.55 961.69 589.41
00016430 00000100 664.89 199.84 379.78 549.17 766.72 397.99 958.43 376.91 886.38 500.95 798.03 605.61 962.63 587.78
00016431 00000101 662.18 198.05 381.87 551.61 765.05 397.58 956.90 376.84 885.53 501.07 795.39 604.75 961.42 587.04
00016432 00000102 657.87 194.91 384.51 555.77 762.16 401.43 954.10 382.43 880.95 506.18 789.26 605.10 957.16 588.93
00016433 DELETE   652.12 199.31 385.99 555.90 754.68 407.14 945.28 393.18 865.59 513.59 777.48 606.31 944.31 594.37
00016434 DELETE   649.65 217.27 381.99 542.77 741.67 413.80 930.01 403.69 839.89 518.91 763.36 612.47 926.79 602.95
00016435 DELETE   643.40 235.00 378.12 527.58 735.82 419.50 916.91 414.96 826.46 521.75 750.74 610.03 913.35 605.91
00016436 00000106 638.58 231.62 378.99 528.38 732.87 423.48 912.38 419.94 821.02 522.43 746.78 609.59 910.19 606.42
00016437 00000107 638.03 238.03 378.95 522.04 730.64 421.33 911.37 418.54 818.97 524.51 743.79 607.90 910.14 605.26
00016438 00000108 637.05 240.05 379.10 518.05 728.81 419.36 910.64 418.13 816.58 524.55 740.42 604.99 909.09 603.33
00016439 00000109 635.19 239.69 381.33 518.02 727.21 418.61 909.76 418.01 813.94 524.85 737.02 603.48 907.34 602.31
CROP_BBOX: 377 0 1368 940
