Video ID: 	TI43tsMygRA
H: 	1080
W: 	1920
FPS: 	29.97002997002997

FRAME INDEX X0 Y0 W H [Landmarks (5 Points)]

00010522 00000000 952.56 79.99 440.13 664.64 1029.91 332.54 1187.29 355.18 1007.84 414.14 985.10 563.22 1088.10 582.95
00010523 00000001 959.36 79.85 438.19 658.65 1037.71 331.49 1192.28 356.95 1014.58 413.34 989.03 558.60 1092.49 580.96
00010524 DELETE   964.07 90.81 442.05 641.75 1044.72 349.12 1194.79 362.05 1012.58 411.92 992.50 565.05 1094.78 577.31
00010525 00000003 968.29 90.53 439.73 638.98 1049.65 345.85 1199.72 362.20 1019.86 413.25 998.05 563.00 1099.51 578.16
00010526 00000004 975.98 88.83 435.15 639.50 1051.23 342.17 1204.54 360.00 1021.95 413.36 1002.11 560.78 1107.58 577.44
00010527 00000005 983.97 89.97 428.14 642.71 1052.10 332.84 1212.53 358.10 1028.09 416.16 1005.80 559.39 1119.50 582.15
00010528 00000006 983.03 91.76 419.88 645.61 1045.86 331.50 1207.51 360.40 1034.26 421.88 1006.21 559.61 1116.77 585.29
00010529 00000007 984.92 89.43 421.60 649.97 1045.31 332.34 1208.16 362.29 1034.94 426.72 1008.44 563.28 1120.19 589.67
00010530 00000008 988.95 87.24 420.42 653.41 1047.73 332.31 1206.31 362.10 1033.32 428.33 1011.70 564.50 1120.34 590.78
00010531 00000009 989.40 90.45 423.82 650.70 1046.62 332.80 1207.06 362.78 1033.80 428.70 1011.03 564.86 1121.16 591.32
00010532 00000010 988.41 86.47 425.42 652.61 1046.04 333.43 1206.10 363.95 1032.28 429.44 1010.07 564.76 1120.04 591.73
00010533 00000011 986.71 85.94 422.68 652.92 1043.74 334.23 1203.28 361.38 1032.09 428.98 1009.30 566.92 1117.87 591.21
00010534 00000012 985.86 84.27 423.78 653.29 1041.53 335.81 1200.97 361.77 1030.80 430.67 1008.17 567.66 1115.97 591.13
00010535 00000013 984.58 85.06 423.33 652.47 1040.24 335.78 1199.12 363.32 1029.77 431.74 1006.32 568.18 1113.32 592.94
00010536 00000014 985.58 90.85 422.30 649.51 1043.16 336.24 1199.49 365.96 1029.38 432.32 1006.87 569.36 1112.13 595.65
00010537 00000015 980.47 95.51 426.18 649.77 1046.03 335.91 1202.10 369.57 1030.70 433.02 1003.65 569.65 1108.05 598.94
00010538 00000016 981.62 103.57 427.35 648.52 1048.75 339.17 1204.60 378.88 1032.36 440.86 1006.63 574.42 1112.71 608.18
00010539 00000017 978.16 109.78 435.74 651.36 1055.56 343.11 1209.19 389.39 1036.81 452.92 1011.38 575.23 1111.36 616.29
00010540 00000018 970.69 115.11 441.05 649.48 1057.55 344.01 1210.63 393.85 1031.06 453.08 1003.18 574.91 1107.58 618.49
00010541 00000019 975.68 116.65 435.55 645.14 1061.85 344.00 1215.17 393.87 1039.54 451.38 1008.14 572.42 1110.51 616.35
00010542 00000020 982.57 111.68 441.36 648.15 1062.34 355.15 1224.11 392.44 1040.57 444.04 1011.06 582.08 1123.75 614.01
00010543 00000021 987.71 124.21 444.29 639.29 1070.11 357.61 1234.57 396.95 1045.53 444.11 1014.77 584.41 1131.18 617.79
00010544 00000022 993.66 125.33 442.36 638.52 1075.99 358.33 1244.58 400.66 1053.87 447.06 1018.75 585.87 1136.39 621.68
00010545 00000023 1007.77 120.59 442.24 650.98 1086.38 357.61 1240.16 404.18 1057.11 459.20 1030.60 585.71 1134.90 626.61
00010546 00000024 1012.80 122.58 439.25 650.91 1092.31 358.64 1244.64 409.25 1063.52 462.58 1036.50 585.11 1139.74 629.22
00010547 00000025 1013.97 120.76 443.78 656.69 1094.02 360.32 1248.44 412.20 1066.70 468.62 1039.24 589.95 1144.63 634.92
00010548 00000026 1016.25 124.93 442.36 653.80 1096.24 362.46 1249.70 411.94 1067.12 469.84 1040.33 593.04 1144.66 636.18
00010549 00000027 1020.36 129.62 440.54 649.72 1099.06 366.19 1255.06 411.00 1072.63 469.00 1042.86 596.93 1148.30 636.38
00010550 00000028 1025.89 130.40 437.63 650.58 1099.22 367.69 1258.76 409.55 1076.24 471.70 1048.24 600.26 1153.42 637.27
00010551 00000029 1029.50 130.33 437.30 652.62 1102.59 368.20 1260.13 410.52 1076.61 474.04 1053.48 601.20 1156.63 638.40
00010552 00000030 1032.10 130.26 437.29 655.60 1106.96 369.75 1262.44 410.39 1080.05 474.63 1057.97 602.66 1160.57 638.35
00010553 00000031 1017.88 136.83 452.88 656.60 1108.26 371.19 1269.03 413.34 1085.25 473.23 1051.22 604.95 1164.52 641.13
00010554 00000032 1019.43 137.69 454.19 662.34 1112.88 372.00 1272.98 414.94 1088.70 473.36 1054.82 605.10 1167.59 642.08
00010555 00000033 1024.29 138.33 447.30 667.80 1117.49 372.10 1277.55 412.70 1096.40 472.82 1060.52 609.22 1169.02 644.56
00010556 00000034 1028.86 139.86 444.97 672.10 1122.50 372.62 1280.02 411.03 1098.22 472.72 1064.48 611.32 1170.74 645.10
00010557 00000035 1034.31 136.57 443.13 677.72 1122.34 374.32 1283.93 409.21 1100.26 473.37 1066.90 616.29 1176.46 647.55
00010558 00000036 1038.66 133.87 441.15 680.87 1124.49 373.45 1287.91 408.78 1104.50 473.04 1069.28 616.80 1179.16 648.76
00010559 00000037 1042.89 132.16 440.87 685.54 1125.19 375.65 1291.44 409.34 1107.22 474.96 1073.38 621.29 1183.06 652.10
00010560 00000038 1047.80 132.02 437.39 686.86 1127.51 374.56 1294.90 412.36 1110.88 476.60 1076.44 620.36 1187.43 654.83
00010561 00000039 1049.51 134.08 438.07 687.26 1128.19 379.91 1295.06 414.20 1111.98 478.44 1078.56 623.96 1190.26 655.39
00010562 00000040 1050.61 133.64 438.61 688.36 1126.98 382.08 1293.36 417.52 1111.97 480.82 1079.02 625.48 1190.44 657.80
00010563 00000041 1052.31 137.44 438.61 687.63 1125.13 388.44 1289.46 419.41 1110.53 483.68 1078.88 630.76 1191.14 659.15
00010564 00000042 1054.43 139.24 436.01 688.42 1122.80 394.64 1278.75 421.71 1101.05 489.18 1081.63 636.52 1187.20 661.06
00010565 00000043 1046.36 136.88 437.47 688.70 1114.55 396.73 1269.29 425.50 1088.77 489.45 1076.99 636.52 1183.25 661.93
00010566 00000044 1036.06 135.15 439.77 691.98 1104.66 399.86 1256.86 426.89 1073.49 489.72 1068.63 636.12 1175.56 659.83
00010567 00000045 1031.28 136.63 444.91 691.12 1102.51 409.34 1240.61 425.98 1060.29 492.60 1066.71 642.05 1166.32 656.41
00010568 00000046 1026.64 135.48 438.20 687.73 1095.01 408.16 1231.56 432.23 1053.83 497.69 1062.82 640.04 1161.70 660.22
00010569 00000047 1026.28 133.96 430.84 692.08 1093.92 412.57 1222.37 433.45 1044.25 500.89 1062.80 645.36 1156.19 662.10
00010570 00000048 1033.71 137.29 410.29 692.15 1098.88 409.94 1207.49 434.56 1040.84 507.73 1066.11 644.34 1142.95 664.39
00010571 00000049 1030.76 135.59 409.66 686.28 1096.84 409.59 1198.15 432.46 1036.27 506.93 1063.95 644.09 1131.37 662.64
00010572 00000050 1025.95 134.18 411.54 682.42 1090.33 409.07 1193.39 431.31 1033.76 506.28 1059.03 642.55 1126.99 660.93
00010573 00000051 1019.17 132.87 406.51 676.26 1082.54 408.25 1185.56 428.10 1028.48 504.67 1053.05 639.61 1119.26 656.61
00010574 00000052 1014.23 131.23 409.27 674.72 1075.83 408.96 1181.14 426.32 1022.53 504.47 1047.33 639.68 1113.14 655.03
00010575 00000053 1009.65 129.51 409.20 673.43 1072.27 408.77 1178.32 425.04 1021.11 503.32 1044.45 638.52 1110.20 653.08
00010576 00000054 1003.37 130.47 411.52 673.66 1068.78 408.29 1174.95 425.52 1017.29 504.33 1040.43 637.83 1109.97 653.18
00010577 00000055 998.83 128.91 410.40 674.34 1062.24 411.64 1172.62 425.75 1013.79 502.59 1034.28 638.76 1107.70 651.65
00010578 00000056 994.54 129.23 418.64 675.71 1060.08 414.55 1167.22 426.82 1007.20 504.07 1032.74 640.23 1107.56 651.17
00010579 00000057 990.38 129.72 416.31 674.74 1057.96 413.88 1162.88 425.71 1001.11 503.76 1027.90 640.17 1102.58 650.41
00010580 00000058 985.56 133.20 420.08 675.23 1053.98 413.94 1160.04 425.44 996.64 504.49 1023.74 640.99 1102.80 650.61
00010581 00000059 979.54 131.26 427.97 687.99 1050.61 411.45 1159.61 425.89 993.62 505.99 1021.84 643.75 1105.36 655.66
00010582 00000060 982.38 131.22 425.14 689.85 1045.88 415.24 1170.80 423.86 987.94 504.88 1018.84 651.46 1112.00 657.66
00010583 00000061 981.62 133.84 425.03 689.22 1041.92 415.34 1173.66 422.90 991.90 505.94 1016.81 655.23 1113.11 661.32
00010584 00000062 979.75 140.01 420.78 682.88 1036.70 416.03 1176.78 423.79 995.73 507.39 1013.12 655.49 1116.51 662.25
00010585 00000063 977.36 144.78 425.09 676.99 1035.96 417.32 1173.01 424.35 992.35 508.99 1011.21 655.78 1114.33 661.63
00010586 00000064 974.07 141.07 423.56 681.69 1031.27 420.70 1168.40 425.48 988.37 507.85 1006.89 658.41 1109.59 662.40
00010587 00000065 969.22 139.91 428.23 688.11 1030.60 418.93 1156.88 432.13 990.41 508.99 1006.84 652.02 1098.80 663.58
00010588 00000066 966.11 141.08 425.02 689.17 1027.64 420.73 1154.57 435.22 986.48 511.66 1003.43 654.42 1095.87 666.85
00010589 00000067 959.73 140.79 429.14 687.82 1023.08 420.29 1148.73 436.71 977.82 513.27 998.00 653.07 1090.44 666.53
00010590 00000068 954.58 138.81 421.64 688.09 1018.57 418.57 1144.81 436.47 972.31 510.78 995.29 651.70 1086.77 665.77
00010591 00000069 957.73 136.35 414.85 694.77 1021.18 414.99 1127.77 434.17 967.85 512.11 991.08 650.55 1066.63 666.09
00010592 00000070 948.89 134.23 418.25 698.91 1017.91 412.86 1118.80 431.67 959.00 511.13 988.06 652.45 1058.49 667.54
00010593 00000071 945.38 133.02 411.09 704.39 1009.77 415.95 1117.48 431.70 959.61 511.95 983.17 658.07 1055.79 671.59
00010594 00000072 942.69 134.94 413.70 704.25 1005.50 417.44 1115.77 431.99 958.33 514.35 981.70 659.69 1056.86 672.40
00010595 00000073 936.42 137.03 412.48 700.67 998.77 418.78 1110.54 431.07 954.41 515.17 977.57 659.79 1053.32 670.84
00010596 00000074 926.11 134.24 417.67 700.50 986.81 419.44 1105.99 430.27 948.31 514.28 969.69 660.24 1049.46 670.41
00010597 00000075 921.57 134.39 414.15 700.29 984.57 417.79 1101.75 429.77 941.07 513.64 964.88 659.60 1044.94 670.51
00010598 00000076 919.59 132.39 414.35 701.54 981.05 418.32 1099.15 431.72 939.20 514.69 961.41 659.01 1042.71 671.22
00010599 00000077 917.52 135.17 418.55 704.57 978.59 420.98 1100.97 432.21 938.04 516.99 960.59 662.77 1046.67 673.30
00010600 00000078 919.46 136.72 417.82 703.53 975.43 421.97 1101.70 433.19 937.18 520.06 960.94 664.90 1052.20 675.57
00010601 00000079 914.92 134.27 427.15 693.25 973.36 421.46 1096.00 433.68 931.97 517.05 954.40 656.78 1043.74 668.04
00010602 00000080 902.42 143.09 433.52 679.65 967.30 428.71 1093.20 431.34 913.91 509.20 934.17 660.06 1027.76 662.35
00010603 00000081 890.42 141.16 436.52 683.35 963.65 416.11 1080.44 431.05 913.24 503.25 929.43 646.30 1014.38 658.57
00010604 00000082 885.16 137.41 440.14 686.33 961.28 411.16 1081.52 429.01 910.81 498.11 922.34 641.00 1010.55 655.66
00010605 00000083 890.02 128.94 433.04 698.79 964.38 407.81 1086.11 424.72 915.17 495.74 928.51 641.23 1016.60 655.14
00010606 00000084 892.93 127.48 437.45 702.79 964.72 406.50 1089.75 422.45 915.03 497.52 935.32 640.42 1032.36 653.50
00010607 00000085 895.54 132.24 429.95 691.85 958.95 410.44 1086.52 424.41 913.04 502.96 937.80 640.61 1040.09 651.86
00010608 00000086 902.69 126.92 423.16 688.94 962.71 409.16 1083.30 426.80 916.81 503.27 941.34 635.66 1035.01 648.98
00010609 00000087 903.13 129.91 417.77 679.28 959.91 408.76 1081.88 427.19 916.05 503.64 938.41 633.81 1030.95 648.20
00010610 00000088 904.01 128.21 417.49 678.73 958.12 409.14 1083.95 428.33 920.43 503.74 936.63 635.25 1026.85 650.74
00010611 00000089 901.09 135.86 419.70 671.27 954.42 410.47 1084.88 429.03 922.99 504.37 932.52 636.05 1023.59 651.36
00010612 00000090 897.32 138.05 418.78 673.72 950.34 413.07 1074.89 430.83 912.52 506.69 924.80 639.58 1012.38 654.34
00010613 00000091 893.83 136.58 408.95 678.92 947.13 409.75 1067.02 430.75 905.49 508.50 921.60 640.87 1004.21 658.47
00010614 00000092 891.46 136.03 413.47 677.09 945.54 407.21 1066.41 427.43 901.48 505.89 917.82 639.48 1000.78 656.52
00010615 00000093 892.78 132.50 418.66 676.29 941.83 407.53 1074.81 427.72 908.47 505.92 916.45 638.93 1008.75 656.12
00010616 00000094 887.45 138.19 427.54 668.65 936.96 412.08 1078.88 425.62 909.06 505.66 912.98 645.08 1012.63 657.01
00010617 00000095 885.16 135.55 428.23 669.36 933.63 412.31 1075.37 427.04 905.11 507.87 911.71 644.15 1012.46 657.12
00010618 00000096 877.47 134.85 429.59 671.12 930.02 415.68 1066.65 427.55 896.08 510.56 909.41 650.86 1003.41 660.90
00010619 00000097 879.37 136.51 415.52 674.94 921.82 414.17 1052.60 431.99 896.14 516.83 903.53 649.34 991.42 665.18
00010620 00000098 871.22 137.41 414.25 680.80 916.09 423.94 1043.71 435.06 889.77 521.44 900.56 656.99 986.39 667.89
00010621 00000099 864.13 142.93 416.94 682.76 912.72 428.52 1035.39 438.58 883.74 527.28 897.31 662.97 982.73 672.92
00010622 00000100 855.38 149.87 414.64 676.17 902.52 431.19 1024.83 445.03 870.85 534.17 889.01 665.06 974.95 677.84
00010623 DELETE   843.37 152.62 418.35 674.55 910.22 438.89 1017.83 453.58 866.08 540.37 894.23 662.91 971.42 673.24
00010624 00000102 833.88 146.48 406.23 692.01 908.52 436.94 996.88 454.83 851.09 538.44 889.77 665.28 949.90 678.14
00010625 00000103 831.37 147.43 375.99 699.95 896.13 440.02 987.36 461.86 839.56 544.93 877.18 672.04 940.96 689.57
00010626 DELETE   830.42 153.42 382.32 695.52 894.83 462.17 979.58 476.64 836.26 558.38 883.19 685.74 939.24 696.88
00010627 DELETE   827.77 154.58 394.64 701.61 891.69 471.17 978.86 483.63 838.60 568.15 883.09 694.63 942.38 704.13
00010628 DELETE   821.06 157.63 400.34 703.65 888.08 468.32 973.30 484.51 831.74 572.85 877.93 696.55 936.36 709.17
00010629 00000107 805.65 160.28 401.87 689.46 873.47 464.24 971.56 482.09 819.50 565.68 865.51 693.62 937.56 706.41
00010630 00000108 796.14 168.22 402.58 688.78 875.40 466.63 963.72 484.20 815.43 580.20 857.02 698.81 921.59 711.52
00010631 00000109 796.29 170.75 402.96 692.37 876.07 470.79 960.93 484.30 815.67 582.04 858.10 704.84 919.22 714.61
00010632 00000110 794.38 178.09 394.06 691.07 870.59 474.94 961.83 487.24 816.46 587.45 854.49 711.16 920.83 720.53
00010633 00000111 793.92 178.76 411.41 694.57 864.08 480.25 964.37 490.34 815.51 590.18 852.48 716.41 923.90 724.23
CROP_BBOX: 582 0 1702 1039
