Video ID: 	VyaZ1RzthCY
H: 	1080
W: 	1920
FPS: 	25.0

FRAME INDEX X0 Y0 W H [Landmarks (5 Points)]

00002593 00000000 921.14 81.45 396.68 569.47 964.33 331.78 1109.06 284.71 991.17 386.70 998.77 524.06 1117.77 486.26
00002594 DELETE   923.28 81.22 396.71 569.87 963.86 328.62 1109.55 282.90 988.02 383.77 996.11 525.34 1112.02 488.91
00002595 00000002 922.83 82.64 396.33 567.12 964.02 324.42 1109.51 281.91 986.78 381.52 990.91 523.04 1105.48 489.46
00002596 00000003 920.76 84.31 398.99 562.38 963.66 322.62 1108.64 283.00 985.64 381.53 988.69 519.71 1101.95 488.47
00002597 DELETE   919.01 83.48 401.05 559.58 963.37 320.56 1108.39 285.03 984.43 383.24 985.78 517.81 1096.51 490.05
00002598 00000005 918.36 84.35 401.28 557.46 963.71 318.78 1109.26 288.00 984.07 385.63 983.47 516.77 1092.26 492.91
00002599 00000006 918.53 82.21 400.75 560.90 966.34 317.70 1111.64 290.88 986.58 388.39 982.53 516.10 1092.63 495.55
00002600 00000007 922.87 84.99 397.46 559.57 969.67 313.02 1115.92 291.31 989.92 389.82 982.09 514.31 1094.23 498.14
00002601 00000008 925.08 82.89 399.68 562.95 971.94 306.11 1124.18 290.39 994.31 393.22 982.91 513.21 1101.97 502.06
00002602 00000009 927.88 79.67 396.35 568.27 975.19 303.53 1127.67 290.60 995.53 392.02 983.67 512.62 1105.86 503.88
00002603 00000010 929.86 77.19 394.02 571.29 977.72 300.78 1128.79 290.67 995.66 392.35 984.43 511.36 1107.30 504.99
00002604 00000011 931.04 73.46 394.13 576.45 978.60 300.60 1129.75 291.18 996.64 392.66 985.18 511.29 1108.65 505.48
00002605 00000012 933.19 75.03 393.13 572.27 979.85 300.53 1131.32 291.18 998.87 391.90 986.57 510.06 1109.67 504.26
00002606 00000013 934.38 77.68 393.70 566.08 982.77 300.17 1135.28 291.22 1003.36 390.37 989.41 507.26 1112.31 501.73
00002607 00000014 943.06 77.53 387.37 568.15 985.05 291.94 1134.32 290.75 996.47 384.07 989.95 504.28 1103.31 503.15
00002608 00000015 947.22 71.98 387.41 571.53 987.03 289.42 1138.30 287.83 999.04 378.56 991.01 500.99 1105.95 499.88
00002609 00000016 949.18 75.27 386.33 562.64 993.57 287.87 1145.87 286.52 1007.85 373.35 997.78 495.35 1118.13 496.51
00002610 DELETE   852.93 91.66 457.82 650.17 903.89 356.47 1085.14 340.16 930.45 449.55 920.59 588.24 1060.30 575.99
00002611 DELETE   854.89 91.37 456.01 651.23 904.89 356.88 1084.99 340.65 930.47 447.63 921.58 587.88 1058.94 575.78
00002612 DELETE   857.08 91.17 453.21 655.93 905.40 356.43 1083.74 341.91 927.03 445.00 919.84 587.39 1057.93 576.38
00002613 00000020 863.80 90.37 447.31 669.19 902.99 354.18 1072.08 337.11 921.57 444.89 919.91 588.38 1061.98 574.20
00002614 DELETE   866.02 88.42 446.70 675.97 904.30 350.48 1073.89 336.90 920.38 445.88 919.05 588.46 1064.10 577.30
00002615 DELETE   865.89 90.99 449.10 678.53 907.26 347.62 1075.81 335.39 919.48 444.33 920.60 585.28 1072.04 575.50
00002616 DELETE   867.33 90.22 449.59 684.07 911.38 347.40 1081.80 335.82 921.79 443.47 921.27 584.96 1078.35 575.56
00002617 00000024 867.52 91.67 451.34 675.76 914.80 347.25 1084.92 338.50 927.29 445.01 924.33 580.33 1083.75 572.78
00002618 DELETE   868.33 91.09 455.13 665.18 917.77 342.12 1090.68 335.99 933.10 447.52 927.47 574.36 1088.65 568.68
00002619 00000026 870.31 88.82 453.30 660.36 923.09 334.35 1095.28 333.46 938.25 445.15 929.62 566.90 1090.37 565.39
00002620 00000027 869.13 85.75 454.11 656.26 922.45 331.72 1098.30 331.90 942.17 443.25 928.00 563.38 1087.29 562.86
00002621 00000028 869.40 81.45 452.40 652.39 921.40 330.40 1101.72 330.89 946.55 441.33 925.86 561.64 1083.47 561.46
00002622 00000029 863.32 84.01 461.01 648.10 919.27 332.64 1103.02 331.46 948.58 442.15 927.11 564.40 1082.46 564.10
00002623 00000030 863.70 84.77 460.89 649.68 919.23 333.04 1104.40 330.41 950.26 441.11 926.17 568.40 1078.04 567.29
00002624 00000031 865.40 83.96 460.01 648.04 919.73 335.09 1105.39 329.01 952.07 438.68 927.97 571.37 1075.88 567.63
00002625 00000032 865.62 85.73 460.63 647.22 919.70 335.09 1107.79 326.78 955.20 440.07 930.33 572.81 1078.31 567.38
00002626 00000033 865.63 85.12 460.37 645.42 919.28 335.90 1109.08 325.94 957.39 439.83 930.82 573.16 1079.37 566.46
00002627 00000034 864.98 83.77 461.27 646.42 919.09 336.47 1108.45 325.58 958.47 440.55 932.63 573.05 1080.65 565.51
00002628 00000035 863.21 84.33 462.59 646.69 917.16 338.65 1107.31 324.58 959.74 441.07 934.49 574.65 1083.35 564.23
00002629 00000036 862.33 88.77 462.26 641.76 915.79 341.33 1105.84 324.52 959.93 441.43 936.07 575.45 1084.71 562.66
00002630 00000037 860.24 91.54 462.62 638.14 914.59 342.50 1104.57 324.50 959.53 440.94 936.27 575.97 1084.12 562.16
00002631 00000038 856.10 90.17 464.54 641.03 913.30 345.09 1102.16 324.87 958.26 440.93 938.06 576.12 1086.17 560.32
00002632 00000039 853.61 88.80 466.09 642.89 911.69 345.72 1101.20 325.27 956.98 440.24 937.01 576.25 1086.67 560.23
00002633 00000040 857.83 89.29 460.74 646.52 909.83 343.86 1099.26 320.32 953.22 438.71 933.77 573.99 1090.38 553.74
00002634 00000041 857.68 91.58 460.80 643.16 909.79 343.90 1097.99 319.66 951.68 439.50 934.93 572.49 1095.55 551.28
00002635 00000042 857.30 93.35 459.86 641.79 910.09 343.10 1097.28 319.58 951.48 439.44 935.10 571.84 1095.47 551.27
00002636 00000043 857.04 93.01 459.66 642.36 909.72 343.75 1096.79 319.32 951.75 439.76 935.38 572.15 1096.13 550.85
00002637 00000044 857.67 92.16 457.69 642.48 909.51 343.66 1095.85 319.58 951.12 439.60 934.88 572.21 1094.84 551.17
00002638 00000045 857.42 93.44 456.85 637.72 908.09 343.07 1096.10 319.96 951.08 439.97 932.72 569.85 1094.82 549.75
00002639 00000046 857.83 91.06 455.58 635.06 906.85 344.01 1096.62 320.10 951.38 438.94 930.85 568.35 1093.69 547.73
00002640 00000047 857.58 90.11 455.23 635.64 905.82 342.94 1097.18 319.42 951.88 437.58 928.34 568.58 1090.84 548.46
00002641 00000048 850.09 88.57 463.66 634.19 907.63 341.92 1100.49 322.65 956.07 439.35 930.67 569.75 1089.34 554.48
00002642 00000049 851.51 87.74 461.49 635.29 909.94 339.13 1100.66 320.65 957.13 437.33 931.73 569.38 1086.95 554.83
00002643 00000050 852.17 87.60 461.69 636.32 911.19 339.28 1100.87 321.18 957.15 437.32 932.66 569.54 1085.58 555.42
00002644 00000051 853.09 86.44 462.20 633.18 911.70 337.03 1101.20 320.69 958.11 437.82 932.08 567.23 1085.06 554.58
00002645 00000052 852.33 87.45 463.80 635.72 910.97 336.68 1103.09 319.92 957.66 436.42 930.22 570.14 1084.03 557.25
00002646 00000053 853.48 84.14 464.28 639.83 911.72 335.04 1105.13 319.81 956.33 434.26 928.06 569.32 1083.27 557.73
00002647 00000054 856.07 81.99 462.03 635.60 913.23 332.36 1105.28 318.59 956.36 431.68 928.57 566.54 1079.44 556.14
00002648 00000055 858.63 79.59 459.77 638.49 913.81 330.25 1104.53 317.26 954.20 428.66 926.55 567.47 1074.36 557.92
00002649 00000056 867.49 85.14 446.21 635.23 918.59 330.20 1100.60 316.77 957.55 425.76 929.53 564.41 1065.49 553.98
00002650 00000057 867.15 83.69 448.79 635.85 919.54 329.99 1102.09 316.10 957.63 425.59 930.90 563.75 1071.34 552.54
00002651 00000058 861.03 84.90 460.98 631.85 916.38 333.58 1103.47 316.30 955.63 426.50 933.43 565.43 1080.70 552.18
00002652 00000059 861.06 83.22 461.27 629.72 916.41 332.18 1103.81 316.40 955.04 425.48 932.13 561.98 1082.28 549.87
00002653 00000060 860.66 82.80 461.86 629.34 916.11 331.99 1103.44 316.42 954.50 425.56 932.21 561.47 1083.10 549.49
00002654 00000061 860.46 85.07 461.76 627.40 916.35 332.70 1103.51 316.94 954.71 425.69 932.28 561.52 1083.15 549.44
00002655 00000062 859.42 84.19 461.60 631.05 916.49 333.61 1103.84 317.52 955.85 426.60 932.59 563.39 1082.25 551.08
00002656 00000063 858.51 83.55 462.61 634.92 915.82 334.28 1102.77 317.74 954.62 427.88 933.07 564.81 1083.04 552.03
00002657 00000064 857.55 83.80 461.80 637.59 915.50 334.10 1101.92 317.49 953.98 428.42 933.15 566.05 1082.53 553.13
00002658 00000065 862.30 83.15 452.55 643.11 918.18 331.70 1099.45 316.01 954.51 426.07 932.85 564.24 1079.31 550.78
00002659 00000066 861.56 85.47 452.85 643.45 916.81 332.07 1098.23 314.73 953.57 425.84 933.53 565.29 1081.55 550.32
00002660 00000067 860.94 87.48 453.55 644.78 916.12 332.07 1096.30 313.41 952.21 425.57 934.93 566.64 1082.55 550.48
00002661 00000068 861.22 87.66 451.93 649.66 915.06 331.94 1094.96 312.97 951.71 427.20 935.89 570.89 1084.41 554.27
00002662 00000069 859.88 89.63 451.98 650.54 914.91 331.08 1093.79 312.01 951.13 427.91 936.00 569.86 1086.87 552.92
00002663 00000070 857.78 85.43 454.30 654.88 911.25 330.13 1096.74 310.64 951.47 427.40 929.48 567.72 1087.54 550.65
00002664 00000071 851.23 83.76 465.37 645.87 908.48 336.13 1100.92 316.51 953.23 430.74 930.92 571.02 1085.89 555.39
00002665 00000072 852.33 87.66 463.11 636.58 906.92 348.48 1097.98 323.06 950.95 429.78 929.42 574.09 1082.65 554.07
00002666 00000073 852.37 87.67 463.89 632.20 908.76 346.44 1100.22 322.55 954.27 431.46 930.30 571.82 1084.28 553.06
00002667 00000074 855.85 88.12 461.52 628.69 911.94 341.25 1099.01 320.74 953.33 430.57 932.45 567.52 1083.55 551.32
00002668 00000075 856.56 90.30 462.71 626.54 913.39 339.04 1099.78 319.53 954.31 430.98 934.25 566.33 1086.02 550.82
00002669 00000076 857.50 89.59 463.46 628.90 913.79 338.76 1101.35 319.79 956.15 431.95 934.60 567.06 1086.55 552.12
00002670 00000077 858.33 86.93 463.94 633.18 914.01 338.67 1101.85 320.05 956.12 433.60 934.74 567.86 1087.96 553.26
00002671 00000078 858.73 86.75 464.97 634.02 914.24 340.12 1102.84 320.81 957.29 434.35 935.67 568.62 1089.82 553.43
00002672 00000079 860.20 86.70 464.60 633.10 915.72 339.59 1103.58 321.10 958.50 435.59 937.12 568.43 1090.50 553.98
00002673 00000080 860.72 85.08 465.33 635.77 915.96 340.21 1104.73 321.28 959.13 435.74 936.78 569.31 1090.84 554.62
00002674 00000081 860.94 86.07 465.69 637.38 916.90 341.06 1105.16 321.47 959.15 435.32 937.53 570.13 1091.37 554.90
00002675 00000082 861.29 82.97 465.71 641.66 917.40 340.88 1105.76 321.16 959.39 435.32 937.48 570.96 1091.81 555.74
00002676 00000083 861.60 84.05 466.41 642.70 917.75 341.56 1106.55 321.44 959.44 435.02 937.78 571.61 1092.34 556.03
00002677 00000084 862.62 85.95 466.44 642.43 918.67 341.96 1107.31 322.00 959.37 435.26 938.37 572.25 1092.83 556.88
00002678 00000085 863.77 85.99 466.29 648.63 919.24 343.23 1107.90 322.51 958.63 435.64 939.12 574.43 1094.75 558.37
00002679 00000086 865.19 89.99 464.98 647.05 920.74 343.29 1109.10 322.23 959.75 435.30 940.93 574.79 1095.65 558.40
00002680 00000087 865.39 88.72 466.03 651.84 921.25 343.19 1109.88 322.54 959.65 435.63 941.07 575.72 1096.24 559.67
00002681 00000088 866.79 86.71 466.02 655.93 922.50 344.27 1110.91 322.38 958.74 433.33 942.96 577.42 1093.46 560.49
00002682 00000089 866.53 85.82 466.52 657.99 922.92 344.88 1111.25 321.64 959.69 431.81 943.92 579.59 1090.33 561.72
00002683 00000090 866.47 84.86 467.17 656.37 922.84 344.45 1112.10 321.62 960.68 432.80 943.82 579.85 1089.07 562.48
00002684 00000091 866.48 83.13 467.90 651.35 921.65 344.00 1112.59 321.28 961.73 433.69 942.06 579.23 1087.80 562.06
00002685 00000092 866.35 81.61 466.94 648.85 921.02 342.46 1112.50 321.07 962.24 433.63 940.17 578.42 1086.88 562.36
00002686 00000093 865.47 82.12 466.61 648.05 920.71 342.65 1112.17 321.03 962.74 433.54 939.94 578.07 1086.91 561.80
00002687 00000094 865.30 83.55 466.22 650.92 921.06 342.91 1111.13 321.20 962.15 433.99 941.11 577.60 1087.44 561.17
00002688 00000095 865.68 84.68 463.93 645.68 920.66 343.17 1110.20 320.71 962.94 433.22 942.12 577.36 1086.64 560.22
00002689 00000096 865.03 84.52 464.49 647.50 919.86 343.37 1109.88 320.52 962.50 433.30 941.70 578.09 1086.12 560.65
00002690 00000097 865.14 84.49 464.47 648.35 919.66 343.56 1109.32 320.38 962.12 433.23 941.13 579.01 1085.22 561.36
00002691 00000098 864.80 83.57 463.72 649.10 918.93 342.10 1109.45 320.01 962.41 434.06 940.38 579.64 1084.56 562.84
00002692 00000099 865.68 83.42 464.57 651.32 918.56 341.42 1109.65 320.87 960.72 434.79 939.61 580.86 1084.03 565.23
00002693 00000100 864.71 84.09 464.21 647.80 917.38 341.76 1109.19 321.38 961.15 435.57 938.02 581.80 1080.23 566.43
00002694 00000101 865.76 86.84 463.12 645.09 918.20 341.92 1110.53 322.22 962.19 436.10 938.14 582.09 1080.37 567.32
00002695 00000102 866.34 84.44 462.57 647.89 921.21 342.51 1111.91 323.84 963.15 436.34 939.95 581.01 1081.06 567.19
00002696 00000103 866.82 89.73 462.21 641.94 923.12 344.16 1111.60 326.07 964.86 437.03 941.90 580.36 1083.31 566.81
00002697 00000104 866.98 90.48 463.54 643.52 924.41 346.06 1111.74 328.68 965.02 438.58 941.21 579.67 1086.91 566.49
00002698 00000105 866.32 95.62 466.13 638.07 923.21 353.72 1111.52 335.41 962.40 440.17 939.81 579.00 1092.35 564.96
00002699 00000106 864.24 96.01 468.32 640.52 921.31 356.99 1111.47 336.43 962.05 440.99 939.81 581.60 1095.13 565.61
00002700 DELETE   862.63 94.40 469.50 642.13 920.63 357.50 1110.83 334.63 961.65 439.93 939.47 579.49 1100.57 561.47
00002701 00000108 861.71 93.36 470.28 636.94 921.28 353.30 1109.02 332.44 959.12 437.06 938.21 573.19 1099.55 556.70
00002702 DELETE   860.76 94.73 471.11 630.18 919.50 351.81 1108.91 330.32 960.10 435.66 936.33 569.92 1101.98 552.89
00002703 00000110 859.87 89.29 472.47 635.13 918.27 352.05 1108.02 330.24 957.96 436.63 936.09 568.74 1105.15 551.35
00002704 00000111 855.84 86.19 476.58 640.21 916.50 355.63 1105.46 331.67 957.71 440.67 936.56 570.68 1108.26 551.39
00002705 DELETE   857.67 94.99 472.55 638.41 916.02 360.46 1101.59 335.99 955.54 449.24 940.55 576.24 1108.67 556.34
00002706 DELETE   859.31 96.32 467.25 650.53 913.82 365.52 1097.84 342.80 949.23 457.12 940.21 583.04 1107.28 564.09
00002707 00000114 859.21 95.74 465.54 659.62 910.26 372.07 1094.96 349.01 944.21 463.84 938.35 590.37 1104.13 570.80
00002708 DELETE   859.70 94.22 461.90 669.76 911.61 379.17 1091.47 356.50 938.53 469.29 938.98 596.02 1103.83 576.28
00002709 00000116 859.97 93.06 460.20 673.99 913.51 379.83 1091.44 360.02 937.54 470.54 938.45 596.42 1101.39 579.08
00002710 DELETE   859.99 94.55 460.26 669.76 912.94 376.94 1094.09 357.08 939.80 468.22 937.46 594.50 1103.29 577.23
00002711 00000118 859.34 91.90 463.56 664.77 912.13 371.14 1096.43 351.02 944.13 464.62 936.62 589.56 1104.39 572.43
00002712 DELETE   857.93 95.44 468.63 653.37 911.15 368.00 1097.45 347.08 947.01 461.68 937.61 586.18 1104.90 568.60
00002713 00000120 861.65 90.34 467.20 660.66 913.72 356.89 1102.43 339.08 947.40 458.85 933.61 582.92 1106.31 566.02
00002714 00000121 863.02 89.81 468.09 657.11 915.92 352.66 1103.47 335.62 948.54 456.67 935.50 581.17 1105.10 564.83
00002715 00000122 867.02 90.33 462.98 660.32 918.39 347.58 1102.89 333.45 949.78 453.83 938.20 582.04 1100.10 568.36
00002716 00000123 866.25 96.38 460.44 649.45 917.85 352.52 1104.29 335.98 953.37 450.86 939.26 584.54 1100.22 571.15
00002717 00000124 867.42 92.24 458.81 654.44 919.13 350.46 1107.19 334.72 956.11 451.60 939.78 584.94 1101.29 572.25
00002718 00000125 867.60 89.46 458.69 657.67 920.28 349.35 1110.08 334.70 958.41 451.78 939.88 585.32 1102.00 573.38
00002719 00000126 867.00 88.79 460.20 657.69 920.88 349.05 1112.01 335.94 960.51 452.30 938.23 585.60 1100.59 574.91
00002720 00000127 867.74 93.33 460.92 651.57 921.29 348.05 1112.35 334.97 962.16 451.92 939.15 587.11 1097.08 576.89
00002721 00000128 869.00 88.62 459.82 656.18 924.43 347.73 1114.72 334.80 965.59 450.61 940.39 588.03 1094.10 578.51
00002722 00000129 870.88 88.42 460.16 656.57 925.68 345.35 1115.41 335.43 965.92 450.16 939.35 588.77 1086.58 582.03
00002723 00000130 872.53 89.21 459.22 656.82 927.26 345.34 1116.45 335.25 966.65 448.60 940.02 589.40 1085.90 582.62
00002724 00000131 872.20 88.16 459.20 657.63 927.35 345.34 1116.09 335.12 966.01 447.81 939.84 588.33 1086.20 581.41
00002725 00000132 871.86 90.31 459.30 653.91 927.07 345.62 1115.36 335.04 965.05 446.28 939.45 587.29 1085.83 580.01
00002726 00000133 871.27 89.23 457.91 654.61 926.34 346.59 1115.61 334.31 966.91 447.32 940.65 587.30 1090.76 578.41
00002727 00000134 870.21 91.14 458.49 654.01 924.92 347.59 1114.93 334.73 965.73 448.91 940.30 587.21 1093.86 577.66
00002728 00000135 869.10 92.05 459.47 653.37 924.29 346.80 1114.93 334.45 965.34 449.68 940.77 585.19 1098.05 575.76
00002729 00000136 868.43 91.13 459.49 658.40 923.23 347.91 1113.86 334.86 963.61 450.26 940.72 586.29 1100.18 575.95
00002730 00000137 868.53 94.09 457.78 655.04 921.66 350.75 1111.80 335.96 961.39 451.24 941.08 587.01 1102.21 574.85
00002731 00000138 868.06 92.34 457.68 654.31 921.58 349.91 1110.77 337.01 959.72 451.41 940.25 584.28 1101.46 573.45
00002732 00000139 866.13 90.38 460.01 653.44 920.28 349.49 1110.17 337.19 958.63 452.51 938.42 582.68 1102.01 572.28
00002733 00000140 865.47 89.55 461.69 653.21 919.05 349.57 1109.83 337.48 957.56 453.28 937.07 582.24 1102.13 572.01
00002734 00000141 864.94 90.03 461.09 653.04 918.32 350.66 1108.71 337.57 957.67 453.42 937.21 583.21 1101.52 572.09
00002735 00000142 864.79 89.78 461.04 654.31 917.56 350.75 1108.53 337.89 956.35 453.87 935.97 583.63 1100.79 572.87
00002736 00000143 865.04 91.16 459.90 652.65 917.28 351.05 1108.21 338.10 956.20 453.43 935.59 583.61 1100.20 572.73
00002737 00000144 865.12 92.38 459.66 650.09 916.53 350.78 1107.41 337.95 955.20 454.14 934.77 583.67 1098.56 573.02
00002738 00000145 864.38 91.83 459.19 650.12 914.92 350.68 1107.71 337.59 955.06 452.58 932.39 585.74 1092.88 575.28
00002739 00000146 863.41 88.76 460.22 651.39 915.10 348.55 1107.92 336.82 954.75 452.37 931.51 583.41 1092.22 574.14
00002740 00000147 862.37 87.68 459.72 652.58 915.45 347.41 1107.66 336.50 955.49 451.43 931.40 584.64 1087.60 576.34
00002741 00000148 861.87 88.72 459.65 651.70 915.07 346.87 1106.99 336.73 955.37 451.56 931.14 585.78 1083.87 578.18
00002742 00000149 860.63 90.92 459.58 648.64 914.98 347.04 1106.37 337.36 955.82 451.72 930.96 586.18 1081.35 579.00
00002743 00000150 859.07 96.85 464.93 643.97 913.61 352.54 1102.64 341.75 952.94 453.58 931.30 588.04 1079.93 579.94
00002744 00000151 859.06 91.18 464.24 649.58 913.18 359.56 1101.43 345.62 952.21 453.79 931.10 590.13 1078.31 579.82
00002745 00000152 857.65 91.49 465.71 650.72 913.18 356.99 1099.76 342.96 950.53 452.80 931.45 590.58 1077.81 579.96
00002746 00000153 859.41 96.29 463.36 647.69 915.03 352.59 1099.73 341.00 950.36 451.34 932.17 589.08 1075.71 580.42
00002747 00000154 860.40 93.30 461.33 649.90 915.60 349.67 1102.70 338.57 952.97 450.79 931.64 588.10 1076.37 579.97
00002748 00000155 861.00 90.36 460.85 653.51 916.49 346.90 1103.88 337.67 953.11 449.62 930.79 587.12 1075.65 580.56
00002749 00000156 862.49 88.83 460.21 654.72 917.34 345.27 1104.13 336.11 953.27 448.04 931.08 585.83 1075.74 579.26
00002750 00000157 862.68 90.00 460.36 649.93 918.25 344.36 1105.42 334.92 955.85 446.37 932.66 584.88 1076.29 577.99
00002751 00000158 863.02 88.35 460.24 650.56 919.14 344.57 1106.43 335.04 957.17 445.21 933.24 583.65 1078.34 576.63
00002752 00000159 863.65 87.27 460.89 649.56 919.57 343.39 1107.14 335.16 957.02 444.26 931.77 580.53 1079.58 574.58
00002753 00000160 864.75 86.44 459.91 649.87 920.92 343.36 1108.10 335.01 957.30 443.32 932.25 578.72 1080.86 572.72
00002754 00000161 865.41 88.55 459.10 645.19 921.57 343.58 1108.85 334.85 957.98 443.25 931.91 577.86 1081.69 571.56
00002755 00000162 866.38 88.27 457.97 645.02 922.13 343.11 1109.99 335.00 959.65 443.19 932.36 578.06 1082.01 572.25
00002756 00000163 866.61 89.65 458.20 646.09 923.02 344.47 1110.65 335.73 960.82 444.01 933.67 579.42 1083.40 573.18
00002757 00000164 867.28 92.20 458.20 642.63 923.96 345.58 1111.80 335.74 963.03 444.21 935.55 579.86 1085.68 572.75
00002758 00000165 866.48 94.34 461.22 641.79 924.10 351.21 1112.85 338.94 963.50 445.42 936.93 580.71 1089.97 571.60
00002759 00000166 864.17 93.49 465.31 647.16 922.03 358.86 1110.74 342.63 962.77 449.10 938.39 584.74 1093.97 572.38
00002760 00000167 865.39 98.03 463.83 643.41 922.66 356.26 1111.20 341.97 962.99 450.21 939.60 583.25 1097.00 572.23
00002761 00000168 866.29 99.86 463.23 640.83 924.68 353.39 1112.44 340.81 963.32 448.61 939.23 581.16 1096.64 571.59
00002762 00000169 866.50 97.15 462.54 647.08 925.43 350.95 1113.96 338.77 964.94 448.86 940.73 581.20 1099.38 572.00
