Video ID: 	0n0woyg0_t8
H: 	1080
W: 	1920
FPS: 	23.976023976023978

FRAME INDEX X0 Y0 W H [Landmarks (5 Points)]

00025410 00000000 740.52 137.01 368.80 573.34 807.11 380.94 976.73 378.64 875.05 471.27 831.39 574.78 959.21 572.42
00025411 00000001 735.84 135.74 370.68 577.62 804.98 383.89 976.62 379.81 878.01 474.47 832.45 577.67 962.68 573.89
00025412 00000002 737.38 142.75 368.69 578.17 808.83 378.57 969.70 377.64 872.59 476.90 831.97 576.93 961.35 577.43
00025413 00000003 732.74 141.16 368.12 582.56 806.61 377.29 965.98 378.55 870.23 478.45 830.76 579.08 956.60 581.05
00025414 00000004 726.91 139.46 370.90 582.23 801.59 378.35 961.11 380.35 866.67 477.88 826.45 577.26 953.97 579.61
00025415 00000005 723.07 142.48 371.63 575.29 799.68 379.98 959.15 381.77 867.56 478.87 825.27 575.82 951.36 578.30
00025416 00000006 720.97 143.05 372.98 575.89 797.44 383.26 958.24 385.33 865.67 479.69 823.77 578.77 949.49 581.72
00025417 00000007 720.22 137.16 373.53 580.27 791.87 391.73 960.24 384.61 863.44 479.51 824.80 587.31 947.97 581.10
00025418 00000008 716.41 137.65 377.24 578.19 792.42 393.59 960.70 384.28 865.92 481.97 828.60 590.55 948.71 582.54
00025419 00000009 716.22 143.61 375.31 569.02 791.06 396.83 960.48 387.20 866.69 483.35 830.12 592.57 947.79 584.12
00025420 00000010 715.53 143.37 373.93 573.77 791.21 399.02 960.42 389.06 866.95 486.73 829.50 595.17 947.86 586.74
00025421 00000011 711.83 144.62 375.76 575.82 789.68 400.36 959.79 391.66 866.35 488.04 825.28 598.50 946.15 591.06
00025422 00000012 708.82 144.13 375.68 578.37 787.18 402.93 957.31 392.00 864.49 487.86 823.64 601.98 944.95 592.82
00025423 00000013 703.58 154.81 385.17 559.15 790.08 402.33 958.66 403.42 863.51 499.79 820.90 587.39 949.61 589.74
00025424 00000014 702.64 147.01 378.58 566.61 786.23 408.20 960.70 395.17 873.05 493.15 827.17 600.75 952.32 590.00
00025425 00000015 703.65 162.45 386.21 564.22 799.46 413.71 966.31 403.21 888.10 497.91 847.20 598.36 972.97 590.13
00025426 00000016 708.14 163.92 385.68 558.81 810.79 413.16 981.15 390.07 911.65 496.91 876.80 607.40 998.13 589.59
00025427 DELETE   708.28 153.57 386.16 568.13 824.85 409.72 999.95 382.01 937.85 495.30 895.98 609.68 1019.59 585.66
00025428 DELETE   716.77 154.18 386.56 557.38 849.77 414.31 1023.11 377.43 977.12 485.57 924.98 606.47 1052.20 573.09
00025429 00000019 718.30 155.36 386.57 556.97 869.82 421.37 1039.80 378.27 1006.09 484.27 938.17 607.82 1066.37 570.11
00025430 00000020 723.16 155.44 381.66 560.46 876.74 425.05 1041.66 377.40 1015.06 488.48 944.61 612.91 1070.75 572.00
00025431 00000021 722.51 156.54 383.40 565.00 878.88 426.95 1046.46 378.11 1020.09 496.98 945.95 618.91 1072.39 576.74
00025432 00000022 726.90 159.34 382.65 567.84 885.30 433.85 1053.62 382.09 1029.46 506.06 950.40 626.80 1078.16 582.69
00025433 00000023 732.08 164.69 376.51 566.60 890.48 438.23 1054.52 388.02 1032.65 516.02 951.68 629.88 1078.92 587.32
00025434 00000024 735.91 174.38 376.28 566.83 894.03 442.07 1056.72 394.87 1034.69 518.49 956.90 636.13 1085.96 595.33
00025435 00000025 738.36 176.42 372.75 560.99 897.05 447.38 1057.04 401.80 1036.01 520.78 957.45 636.79 1084.37 597.72
00025436 00000026 738.54 171.77 374.55 567.51 898.18 443.62 1058.38 398.28 1037.41 519.98 957.02 634.68 1085.72 595.90
00025437 00000027 742.13 171.37 373.26 563.74 898.80 442.85 1061.65 397.87 1036.79 518.79 954.87 631.79 1085.94 593.69
00025438 00000028 743.84 172.94 374.28 560.84 900.29 437.33 1066.27 395.36 1038.58 514.18 954.62 627.86 1087.60 592.10
00025439 00000029 750.60 172.12 371.16 557.54 898.35 428.34 1059.47 393.60 1030.48 504.70 969.90 618.01 1088.37 590.05
00025440 00000030 754.14 173.02 372.90 557.24 902.58 427.17 1062.80 391.89 1035.23 506.52 973.19 616.29 1092.38 587.71
00025441 00000031 757.11 171.48 374.98 558.45 908.56 425.06 1068.07 392.21 1041.12 507.73 978.10 615.70 1093.86 588.70
00025442 00000032 760.04 169.13 375.08 560.99 911.36 426.26 1070.41 393.44 1044.55 508.16 979.74 616.34 1095.52 589.24
00025443 00000033 761.57 167.41 375.38 562.71 912.23 427.55 1071.99 393.48 1045.47 508.08 979.84 615.13 1096.95 586.95
00025444 00000034 764.38 167.12 373.20 560.52 914.26 424.11 1074.31 391.29 1047.14 506.39 981.97 612.86 1097.68 585.62
00025445 00000035 765.96 169.44 371.64 556.46 918.79 422.38 1075.95 389.64 1051.49 504.69 985.25 611.07 1099.05 583.83
00025446 00000036 766.41 166.77 372.01 551.20 922.41 417.60 1076.72 386.70 1053.80 497.45 987.65 604.13 1099.91 578.43
00025447 00000037 769.28 161.81 368.15 549.58 927.44 410.81 1080.03 383.45 1058.54 487.82 991.22 596.80 1102.62 573.55
00025448 00000038 772.04 155.09 367.80 550.18 934.98 406.78 1081.79 382.30 1062.85 478.34 994.17 590.15 1100.98 569.23
00025449 00000039 775.56 146.22 366.81 555.53 939.40 402.56 1083.64 374.86 1066.47 473.13 998.28 586.58 1101.83 562.90
00025450 00000040 778.40 141.31 368.04 559.04 944.10 397.96 1089.62 371.17 1072.47 469.32 1001.63 583.80 1108.02 560.24
00025451 00000041 782.61 132.29 370.16 571.30 948.65 395.86 1096.68 369.21 1078.18 464.98 1003.87 583.30 1113.83 559.40
00025452 00000042 788.27 129.30 369.19 568.98 960.08 386.94 1100.30 357.50 1090.69 460.50 1015.80 581.31 1118.92 555.93
00025453 DELETE   799.82 116.71 365.23 579.63 974.66 375.83 1118.73 352.88 1114.01 453.61 1022.96 574.76 1131.74 555.42
00025454 DELETE   813.41 115.69 364.54 580.72 985.20 375.73 1133.69 350.98 1125.43 451.81 1026.49 572.01 1146.19 552.58
00025455 00000045 820.65 112.82 365.47 575.94 984.63 377.51 1134.44 348.90 1117.78 450.43 1042.16 562.62 1158.71 539.84
00025456 00000046 825.34 113.79 365.52 569.15 986.82 377.25 1136.80 347.56 1119.09 451.04 1046.45 562.71 1161.12 538.81
00025457 00000047 824.94 116.84 362.11 569.42 983.61 380.31 1134.05 348.63 1116.55 456.71 1043.58 566.02 1159.68 540.67
00025458 00000048 823.16 116.58 363.07 574.10 981.43 379.97 1133.02 349.35 1114.25 455.21 1040.25 565.85 1158.61 541.58
00025459 00000049 828.24 108.29 358.59 576.13 980.92 376.63 1135.63 347.17 1111.90 449.66 1042.01 564.09 1160.29 540.45
00025460 00000050 827.27 105.68 359.92 565.79 980.82 372.17 1136.90 342.34 1112.68 443.29 1045.34 558.36 1161.24 534.25
00025461 00000051 829.13 100.46 357.71 565.64 980.98 367.70 1134.69 340.46 1111.39 439.85 1046.67 554.72 1160.07 532.95
00025462 00000052 827.75 102.32 358.53 560.27 980.08 365.69 1133.52 339.53 1108.24 437.37 1044.75 550.85 1157.88 530.08
00025463 00000053 826.85 105.18 357.40 555.74 978.79 364.66 1133.08 339.63 1106.17 436.22 1044.05 549.46 1157.37 529.61
00025464 00000054 822.86 102.22 362.05 566.23 985.69 365.14 1140.94 339.73 1117.96 443.30 1032.10 559.14 1154.29 537.47
00025465 00000055 818.25 100.20 364.84 568.69 981.43 366.29 1137.90 336.05 1117.11 445.47 1028.80 559.99 1154.25 534.35
00025466 00000056 815.40 104.82 364.31 566.75 975.19 369.85 1132.48 338.83 1109.87 447.98 1024.73 563.87 1150.14 537.59
00025467 00000057 804.96 107.90 363.94 566.58 970.37 377.64 1120.78 344.50 1103.84 452.08 1018.99 568.08 1137.42 540.45
00025468 00000058 797.34 116.76 368.18 572.60 960.04 380.66 1111.97 349.28 1097.33 447.06 1015.97 572.42 1131.71 545.45
00025469 00000059 787.67 126.00 372.88 571.89 942.16 387.80 1096.89 351.44 1075.00 449.88 1001.94 575.40 1123.28 543.01
00025470 00000060 772.12 136.36 382.14 566.99 926.22 397.27 1082.83 358.31 1058.63 466.13 990.57 581.12 1113.25 546.43
00025471 00000061 767.14 150.79 374.37 559.50 916.93 404.94 1069.48 365.69 1048.62 475.45 985.99 587.39 1103.40 553.74
00025472 00000062 762.60 157.06 374.43 556.73 911.69 411.84 1065.60 375.63 1042.63 478.12 982.37 591.02 1101.02 560.46
00025473 00000063 758.77 156.53 372.69 561.20 905.03 416.43 1063.01 377.78 1039.16 484.90 976.90 597.01 1096.83 565.08
00025474 00000064 752.31 162.10 372.91 561.05 894.91 421.37 1054.34 382.29 1027.80 491.74 966.55 602.20 1091.81 570.21
00025475 00000065 742.76 168.74 377.09 558.40 899.96 433.05 1063.83 384.00 1040.25 500.32 954.15 616.41 1091.07 574.74
00025476 00000066 731.03 162.50 382.40 561.74 890.16 438.94 1057.29 384.32 1035.68 506.27 950.26 620.91 1086.22 574.21
00025477 00000067 723.65 156.82 381.83 566.41 878.21 436.52 1047.19 377.34 1023.70 502.78 944.27 619.83 1079.65 568.81
00025478 DELETE   714.03 164.84 383.65 566.94 861.16 437.21 1026.12 382.21 1000.04 503.70 931.62 618.91 1066.66 570.98
00025479 DELETE   699.57 162.03 386.02 577.55 845.01 435.49 1012.19 382.60 982.49 509.29 918.73 621.45 1052.69 575.16
00025480 00000070 690.20 171.87 386.98 568.76 834.55 436.26 996.43 384.95 970.24 510.45 914.71 622.78 1044.49 578.23
00025481 00000071 685.38 175.28 385.45 566.71 826.26 439.85 986.98 388.12 962.31 511.22 908.65 623.17 1038.60 578.74
00025482 00000072 683.70 170.89 383.37 571.08 823.69 440.65 982.51 387.52 960.20 509.86 906.85 623.15 1034.37 578.09
00025483 00000073 684.45 166.26 380.40 573.26 824.00 435.73 980.82 384.50 958.98 504.15 906.17 619.89 1030.67 576.75
00025484 00000074 680.95 164.70 382.17 574.27 820.27 434.79 976.82 381.57 955.37 502.10 903.27 618.23 1027.48 573.57
00025485 00000075 678.86 164.11 384.16 573.21 818.95 432.18 974.82 380.79 954.08 501.10 903.76 617.25 1025.91 574.24
00025486 00000076 679.68 164.70 383.13 574.20 821.85 433.29 977.35 385.00 956.69 503.83 906.27 620.52 1027.28 579.96
00025487 00000077 681.77 165.47 381.60 574.09 821.91 435.71 980.35 387.01 957.33 507.87 905.28 622.66 1027.85 582.14
00025488 00000078 683.98 167.62 379.96 570.69 823.20 438.05 981.45 392.48 955.69 509.95 905.41 624.44 1026.43 586.49
00025489 00000079 685.25 173.41 378.11 563.04 825.68 439.29 984.22 393.18 958.31 512.31 908.75 625.05 1029.76 586.11
00025490 00000080 687.09 178.22 375.83 559.36 825.83 442.26 982.25 394.30 958.03 516.29 911.71 629.23 1030.55 588.66
00025491 00000081 687.44 180.44 375.87 559.21 826.08 443.10 982.61 394.91 958.15 518.56 911.31 630.65 1030.48 589.79
00025492 00000082 686.26 180.82 378.61 557.31 825.92 442.02 982.90 395.39 957.95 517.58 909.18 627.64 1030.16 587.82
00025493 00000083 687.13 176.51 377.12 562.21 826.95 440.60 984.23 394.65 959.06 515.82 906.48 623.79 1029.78 584.79
00025494 00000084 686.93 177.01 378.50 561.30 827.41 438.67 985.64 393.21 960.01 514.04 905.02 621.44 1030.80 582.68
00025495 00000085 686.88 177.53 378.10 561.04 825.76 438.03 984.66 394.32 957.00 514.42 904.24 621.53 1029.49 584.05
00025496 00000086 684.05 177.48 380.18 562.14 823.55 439.51 981.19 394.29 954.64 514.92 901.42 620.90 1026.85 582.48
00025497 00000087 683.45 182.02 376.30 555.24 821.07 438.78 980.88 395.11 951.80 515.89 899.70 619.84 1026.53 582.78
00025498 00000088 678.20 185.35 380.81 553.15 818.92 441.54 978.16 396.67 950.14 515.32 896.99 620.78 1023.98 583.16
00025499 00000089 677.37 185.86 380.77 551.99 820.09 441.87 980.32 398.59 950.55 516.86 895.67 620.70 1022.40 584.55
00025500 00000090 674.02 187.69 383.15 553.26 817.25 445.67 978.75 399.88 949.22 519.43 894.65 624.27 1023.05 586.10
00025501 00000091 675.44 192.18 378.16 551.28 819.48 452.03 981.58 407.40 950.57 524.67 893.95 629.17 1021.25 592.07
00025502 00000092 675.47 197.92 375.98 550.89 818.56 457.61 981.30 408.60 952.26 531.20 893.48 634.09 1022.59 593.65
00025503 00000093 676.44 197.99 373.45 551.16 818.73 457.17 982.44 408.59 952.09 531.58 892.70 633.95 1022.52 594.00
00025504 00000094 675.60 196.62 375.86 547.81 819.42 454.58 981.92 405.72 952.64 527.71 893.32 631.28 1020.59 591.14
00025505 00000095 674.56 187.20 377.64 556.39 819.87 449.40 980.99 403.81 951.60 522.76 892.55 626.73 1019.24 589.27
00025506 00000096 672.93 183.50 379.01 560.74 817.41 447.63 978.48 403.95 947.79 519.84 890.35 624.05 1018.70 587.96
00025507 00000097 671.15 186.16 380.14 558.41 815.85 446.88 978.48 404.18 947.00 519.85 888.31 623.61 1018.82 588.44
00025508 00000098 671.55 189.47 378.55 556.28 816.07 447.57 978.62 405.60 947.17 521.16 889.28 625.33 1018.94 590.78
00025509 00000099 672.95 189.99 375.57 556.04 818.00 449.33 978.88 406.47 948.86 522.42 891.65 626.97 1019.66 591.71
00025510 00000100 673.83 188.13 373.73 557.51 818.82 449.32 981.27 404.60 951.20 523.40 893.18 629.05 1020.23 592.45
00025511 00000101 677.23 184.59 372.77 558.81 820.83 447.68 981.85 402.41 952.07 522.18 894.90 628.48 1021.53 591.22
00025512 00000102 679.73 186.89 371.55 555.11 822.04 445.71 982.28 401.60 953.23 521.48 898.04 628.11 1023.65 591.45
00025513 00000103 681.14 190.16 374.83 551.77 824.87 444.28 985.22 401.09 956.70 523.51 900.11 629.59 1024.73 593.46
00025514 00000104 681.40 187.46 373.89 557.74 825.85 442.97 985.81 402.79 956.64 524.10 900.98 630.56 1024.48 596.84
00025515 00000105 681.80 185.23 373.07 557.78 826.25 444.69 987.09 402.42 958.25 523.61 902.20 631.28 1025.44 595.84
00025516 00000106 682.58 188.48 373.42 553.90 825.49 441.26 987.12 400.12 956.54 522.52 901.42 629.11 1024.82 594.58
00025517 00000107 684.03 186.56 374.92 552.06 826.51 442.45 986.17 399.41 956.91 519.17 902.06 627.01 1024.88 590.92
00025518 00000108 685.82 186.11 371.73 551.17 827.78 439.87 987.70 397.76 958.60 517.42 902.81 625.81 1025.06 590.43
00025519 00000109 686.60 186.14 372.78 549.62 827.24 439.15 986.68 398.50 956.82 516.47 901.70 624.14 1023.96 590.03
00025520 00000110 687.26 180.14 374.55 551.82 826.42 437.99 986.72 396.59 956.39 514.33 903.71 623.05 1025.12 588.29
00025521 00000111 687.72 181.20 375.77 551.11 827.20 434.22 987.89 394.64 957.29 513.48 904.29 621.26 1024.43 587.80
00025522 00000112 687.70 175.15 377.26 559.44 829.28 433.98 989.83 394.49 960.97 512.69 905.82 620.95 1026.55 587.34
00025523 00000113 687.54 174.49 376.44 559.77 831.17 430.86 993.88 393.62 962.92 512.14 906.82 621.88 1025.59 590.36
00025524 00000114 690.05 175.30 373.52 557.00 832.31 432.19 994.35 394.22 963.43 514.44 909.51 623.97 1026.41 591.75
00025525 00000115 690.12 174.25 373.56 561.63 833.81 439.60 994.84 398.94 966.20 520.18 911.20 630.11 1028.97 595.47
00025526 00000116 689.78 178.33 373.17 560.72 836.97 442.53 994.97 402.70 968.19 524.25 912.58 635.95 1027.72 602.11
00025527 00000117 687.95 177.93 373.40 563.03 838.12 444.49 995.39 408.37 966.61 527.65 909.95 637.94 1024.89 606.94
00025528 00000118 688.02 188.69 371.52 550.54 839.10 448.66 996.71 416.48 964.08 532.31 903.32 635.89 1019.52 608.70
00025529 00000119 685.03 200.05 374.32 550.12 839.60 451.73 998.40 424.04 961.94 542.44 895.57 639.96 1010.85 617.18
00025530 DELETE   684.90 212.80 373.17 549.13 836.46 456.40 997.38 439.48 954.72 554.97 879.33 643.91 997.14 631.11
00025531 DELETE   686.81 212.41 371.74 560.14 827.19 463.08 992.47 456.32 939.98 560.08 860.73 646.73 988.51 642.33
00025532 DELETE   685.35 215.59 376.75 557.17 820.26 467.26 995.06 470.55 925.87 571.85 845.57 654.91 974.89 659.11
00025533 00000123 683.14 219.31 388.62 554.88 813.17 464.71 988.74 471.93 913.77 575.20 838.99 662.42 963.43 670.34
00025534 00000124 682.58 225.29 383.92 557.56 803.56 469.09 980.27 481.48 897.25 579.77 825.89 660.00 953.23 671.94
00025535 00000125 676.90 227.01 381.55 562.10 787.14 470.68 960.92 470.92 879.09 583.55 813.02 668.56 948.95 668.28
00025536 DELETE   671.03 215.59 379.25 563.60 776.92 464.35 949.53 468.36 862.09 570.03 800.69 657.79 935.17 661.11
00025537 00000127 665.06 205.91 378.43 561.47 765.32 454.72 943.13 455.03 851.56 555.69 790.92 646.86 930.21 647.90
00025538 00000128 655.44 200.41 381.21 556.62 755.46 445.20 926.67 447.68 839.81 546.04 787.63 634.33 917.97 636.84
00025539 00000129 645.70 195.98 385.28 562.84 739.07 445.31 910.56 446.53 818.61 541.75 771.65 632.77 904.54 634.65
CROP_BBOX: 433 0 1397 926
