Video ID: 	WwXJS8gA8i8
H: 	1080
W: 	1920
FPS: 	25.0

FRAME INDEX X0 Y0 W H [Landmarks (5 Points)]

00003300 00000000 532.94 220.34 368.60 540.44 649.61 454.06 827.05 442.97 772.65 545.18 685.80 651.82 823.36 642.94
00003301 00000001 528.68 218.38 368.82 542.83 644.62 451.63 820.67 439.61 768.07 538.77 683.55 650.50 819.61 640.51
00003302 00000002 524.57 215.12 366.97 545.53 641.89 451.44 816.28 440.50 765.31 536.57 679.51 648.51 814.92 639.60
00003303 00000003 521.74 214.28 364.93 544.14 639.22 450.91 812.50 442.67 761.62 533.47 675.72 646.49 809.84 640.03
00003304 00000004 516.45 210.63 364.11 546.53 633.35 448.50 807.85 437.78 757.46 530.28 672.70 645.58 806.79 636.82
00003305 00000005 507.78 206.93 368.40 544.61 632.40 454.03 806.83 442.90 750.65 536.34 676.34 642.88 809.85 633.11
00003306 00000006 506.77 204.03 369.51 542.82 630.45 451.09 804.39 439.36 748.03 534.61 677.56 640.82 809.62 630.48
00003307 00000007 508.19 202.34 370.91 540.46 629.98 448.48 805.10 435.91 747.48 532.20 678.85 639.34 810.91 628.26
00003308 00000008 512.04 198.61 372.07 542.22 631.58 445.38 808.09 432.41 749.99 532.32 681.46 638.93 813.82 627.51
00003309 00000009 515.55 196.07 372.36 544.80 634.00 442.47 811.87 429.59 752.76 532.22 683.28 638.19 817.11 626.91
00003310 00000010 520.04 194.70 371.89 543.02 636.81 440.39 814.93 427.09 755.45 530.22 685.15 636.77 819.52 625.23
00003311 00000011 521.06 194.69 373.59 545.85 639.14 440.92 816.37 428.13 757.98 530.36 686.47 636.72 820.63 625.76
00003312 00000012 520.11 194.25 376.42 552.48 641.73 440.00 820.19 428.98 761.51 530.70 686.17 638.08 822.03 628.76
00003313 00000013 524.95 193.77 376.83 547.39 644.59 439.78 823.78 426.47 763.78 531.88 689.57 635.30 828.11 623.98
00003314 00000014 528.69 191.78 378.72 547.08 647.17 436.49 827.38 422.61 765.94 529.45 693.25 632.62 834.11 620.82
00003315 00000015 530.94 191.80 378.37 546.09 652.31 434.51 830.06 420.85 772.96 526.88 701.46 634.08 835.75 622.49
00003316 00000016 535.70 193.37 372.75 548.71 659.48 435.46 829.75 423.99 777.98 520.54 704.85 634.29 833.10 625.16
00003317 DELETE   538.31 190.23 373.65 544.43 669.94 426.76 833.17 420.57 785.30 507.55 716.75 626.40 833.38 622.23
00003318 00000018 540.81 185.15 373.28 545.97 672.78 421.30 837.61 414.72 789.39 501.30 720.03 619.22 839.93 614.56
00003319 00000019 538.30 182.36 376.75 546.62 672.98 415.01 837.65 408.49 793.14 496.07 721.25 613.93 844.97 609.26
00003320 00000020 539.84 179.91 376.03 547.25 675.39 409.68 839.05 400.16 799.17 492.28 724.90 611.24 848.41 604.09
00003321 00000021 541.89 177.96 376.29 548.55 676.93 409.86 843.45 398.32 803.71 493.90 727.37 609.69 855.29 600.44
00003322 00000022 542.24 179.53 377.78 544.97 679.66 411.15 844.04 398.63 807.01 494.23 735.53 613.06 857.03 602.87
00003323 00000023 546.57 180.96 375.94 543.75 682.29 415.50 846.78 402.41 809.83 498.82 740.68 616.16 861.16 605.04
00003324 00000024 547.78 183.15 375.31 541.04 686.71 416.24 849.18 401.48 814.80 503.10 745.87 618.50 862.10 605.83
00003325 00000025 551.62 182.70 373.27 541.79 691.11 417.53 853.78 404.90 819.46 504.40 749.27 621.06 864.96 609.71
00003326 00000026 554.61 181.91 371.94 541.63 697.41 419.54 857.77 409.42 823.94 504.97 753.04 620.30 865.77 611.26
00003327 00000027 560.12 183.24 371.07 540.13 702.83 424.95 865.59 414.99 830.06 504.45 756.05 620.57 873.02 611.55
00003328 00000028 563.83 184.59 372.97 542.95 706.56 428.49 871.87 419.52 835.71 500.43 757.26 621.19 878.58 613.02
00003329 00000029 566.32 185.54 372.48 539.78 710.92 426.38 873.07 419.71 838.93 496.27 759.50 618.22 879.14 612.22
00003330 00000030 570.03 185.35 371.57 536.75 713.87 422.70 875.90 415.24 842.99 495.06 762.95 616.90 881.60 610.34
00003331 00000031 571.36 184.58 372.46 540.14 716.24 421.90 878.80 412.74 846.59 497.25 765.82 617.82 884.53 609.68
00003332 00000032 573.18 182.75 372.67 540.22 719.10 419.72 882.92 409.66 852.76 495.59 769.72 616.76 889.76 607.77
00003333 00000033 575.73 181.61 372.11 536.47 721.22 417.04 885.50 409.98 853.93 492.21 771.86 614.24 891.07 607.61
00003334 00000034 576.95 178.15 374.49 533.51 721.17 413.45 884.32 405.80 853.99 485.89 774.35 607.56 892.57 600.33
00003335 00000035 578.10 174.47 374.59 531.84 721.85 408.36 886.03 403.56 855.37 478.43 774.45 601.22 895.53 596.24
00003336 00000036 579.56 174.08 372.35 528.56 724.31 407.63 888.82 403.61 858.30 477.88 775.43 598.95 896.95 594.61
00003337 00000037 581.37 174.11 371.00 526.80 725.14 407.34 890.53 402.90 859.69 477.44 774.71 596.98 898.37 592.43
00003338 00000038 581.28 176.03 373.36 527.42 726.63 408.68 892.93 404.85 861.66 478.18 774.62 598.30 900.07 594.31
00003339 00000039 584.37 175.46 373.68 528.58 732.74 409.18 898.66 405.18 868.90 477.82 775.66 593.01 905.79 589.21
00003340 00000040 589.21 170.80 372.16 526.85 739.63 406.70 905.61 396.33 880.12 474.38 784.60 587.45 917.50 578.30
00003341 00000041 595.30 168.91 369.66 532.83 746.71 404.78 910.85 397.53 887.49 472.95 792.57 588.74 923.87 582.43
00003342 00000042 602.28 167.93 364.78 538.31 754.72 401.72 915.09 398.45 894.44 470.48 798.31 589.88 925.97 587.46
00003343 00000043 607.82 169.34 361.19 538.41 757.39 399.14 916.62 396.65 894.66 471.38 799.86 591.70 924.49 590.48
00003344 00000044 613.85 170.33 359.06 544.86 762.85 401.99 919.74 401.54 895.64 479.08 802.21 598.02 923.27 598.89
00003345 DELETE   610.97 183.70 370.02 538.25 763.00 413.88 914.52 407.14 892.88 488.75 814.53 612.27 924.20 607.02
00003346 00000046 612.63 187.11 373.93 538.80 766.30 422.56 926.81 415.33 897.05 500.05 817.51 616.68 933.80 610.24
00003347 DELETE   617.04 189.71 370.25 540.28 772.90 427.87 930.45 422.17 900.61 510.92 820.71 623.60 931.49 618.65
00003348 DELETE   622.08 192.99 369.11 542.39 778.47 434.17 934.18 429.83 904.57 516.63 827.08 632.97 932.32 629.28
00003349 DELETE   622.98 195.72 371.80 544.46 781.59 439.43 937.18 433.70 909.52 520.40 829.93 635.37 936.44 630.43
00003350 00000050 626.49 197.99 371.89 541.55 782.54 443.22 939.16 435.88 911.48 521.37 832.45 637.25 941.31 630.79
00003351 00000051 628.56 201.50 373.34 538.17 784.19 445.25 941.44 436.61 913.50 522.72 834.89 637.61 944.92 630.01
00003352 00000052 630.69 203.79 373.60 537.20 787.22 448.12 943.76 438.73 916.63 526.34 838.47 640.53 947.18 632.24
00003353 00000053 631.80 209.66 372.11 532.10 788.76 450.21 944.55 441.03 918.06 527.87 839.81 641.25 948.00 633.22
00003354 00000054 632.88 211.15 371.56 533.76 789.54 451.43 944.92 442.26 918.06 529.25 839.61 642.31 946.53 634.50
00003355 00000055 632.93 213.55 369.26 533.08 790.24 452.14 944.89 443.24 918.61 531.06 837.94 642.35 945.07 634.88
00003356 00000056 632.56 213.76 369.78 530.72 790.47 453.94 944.49 446.24 917.36 530.27 835.77 639.28 944.58 632.89
00003357 DELETE   631.50 217.60 369.30 528.12 790.51 459.76 944.38 451.90 917.73 526.53 834.38 636.37 946.90 629.88
00003358 DELETE   633.24 217.89 368.05 527.64 790.72 461.41 945.65 455.10 915.82 524.98 832.23 634.45 946.36 629.21
00003359 DELETE   629.00 214.61 367.48 524.48 786.18 451.73 941.56 447.91 912.38 520.34 829.31 630.78 940.99 627.52
00003360 00000060 625.52 208.24 368.53 522.11 779.79 444.11 937.78 439.88 907.79 516.12 826.37 628.59 939.93 624.69
00003361 00000061 621.05 204.16 366.62 520.42 775.26 435.74 932.09 432.75 902.86 511.19 822.23 624.04 934.23 621.05
00003362 00000062 619.20 203.56 366.06 518.97 771.45 431.26 929.66 429.19 898.09 506.81 818.51 620.70 932.29 618.37
00003363 00000063 616.92 203.36 366.49 518.94 768.24 431.19 927.77 428.83 894.63 504.69 815.98 619.47 931.48 616.83
00003364 00000064 613.05 206.71 365.53 517.60 764.31 431.75 927.31 428.62 892.18 505.54 809.81 619.62 927.64 616.32
00003365 DELETE   610.45 206.56 367.12 518.64 761.51 432.12 925.37 429.24 889.15 505.07 806.71 619.95 925.43 616.98
00003366 DELETE   617.56 202.40 359.01 521.30 761.50 428.50 925.47 424.49 890.23 509.26 799.38 617.46 923.17 614.46
00003367 00000067 613.29 201.28 359.84 522.33 758.63 426.92 922.84 426.49 887.30 508.49 794.84 615.93 919.46 615.93
00003368 00000068 610.34 200.79 361.23 521.73 754.31 427.22 918.64 425.05 883.29 508.14 793.52 616.45 916.58 615.03
00003369 00000069 606.37 199.44 363.74 522.67 751.04 426.91 914.32 423.45 879.69 507.96 792.20 617.18 912.98 614.69
00003370 00000070 605.39 200.76 362.79 519.70 747.57 427.65 912.52 423.02 876.10 509.58 788.80 617.47 911.04 614.09
00003371 00000071 602.28 201.52 363.16 518.92 743.53 429.79 909.33 423.52 871.79 511.08 786.70 619.07 908.16 614.28
00003372 00000072 598.47 204.13 362.18 516.27 740.61 432.96 905.54 426.61 869.19 509.63 785.17 620.24 905.39 615.18
00003373 00000073 598.79 205.60 359.99 516.60 739.31 435.59 902.46 428.23 865.86 508.67 783.32 620.19 903.99 614.29
00003374 00000074 600.35 205.30 361.51 514.61 736.57 433.09 902.48 425.32 863.52 507.01 780.90 618.78 903.55 612.52
00003375 00000075 597.11 203.72 360.54 523.54 732.18 431.89 897.36 424.25 857.72 508.01 776.22 620.82 899.45 614.51
00003376 00000076 592.74 202.17 363.96 525.07 727.62 430.25 894.26 421.79 851.76 510.49 772.43 622.20 894.40 615.20
00003377 00000077 591.88 199.80 365.65 523.38 725.20 428.35 894.45 419.69 849.43 510.24 768.23 618.58 894.13 611.31
00003378 00000078 593.52 201.28 363.06 519.48 726.98 432.57 894.07 424.00 849.69 507.59 766.15 616.26 892.31 609.25
00003379 00000079 593.19 201.30 361.99 521.33 724.24 435.93 891.25 427.91 845.05 508.67 761.15 617.08 889.57 610.89
00003380 00000080 591.05 201.12 364.03 521.95 719.89 432.39 891.45 426.58 841.27 509.84 757.80 618.14 887.47 613.58
00003381 00000081 589.65 200.85 364.82 522.85 716.90 430.98 886.84 425.25 836.20 510.97 756.56 619.15 884.26 614.50
00003382 00000082 588.09 202.74 364.57 522.96 713.93 429.15 884.12 423.55 832.98 511.23 754.02 620.04 881.59 615.59
00003383 00000083 586.62 201.59 364.88 526.32 713.11 428.07 880.79 422.34 830.57 511.23 753.52 620.12 877.96 615.78
00003384 00000084 584.68 197.69 365.53 531.04 710.42 426.55 878.02 421.86 826.15 508.31 750.33 618.96 874.93 615.52
00003385 00000085 583.43 195.93 365.59 530.91 708.10 424.02 875.97 419.46 824.09 506.09 749.08 617.68 873.66 614.37
00003386 00000086 580.57 194.65 367.50 528.08 705.76 422.29 875.13 416.91 822.64 504.56 748.59 615.19 874.48 610.88
00003387 00000087 580.08 195.46 368.57 522.83 703.70 425.67 877.92 420.38 821.71 503.33 745.86 613.83 879.40 609.18
00003388 00000088 578.10 197.23 370.88 519.99 700.14 429.38 875.23 423.98 816.46 501.12 739.32 612.96 875.37 608.70
00003389 00000089 577.95 194.62 369.67 524.91 698.52 429.66 871.50 424.10 811.95 502.09 737.40 612.04 871.77 607.94
00003390 00000090 575.52 192.60 370.74 526.76 695.86 426.90 870.55 421.34 809.68 501.99 735.83 613.98 868.97 609.58
00003391 00000091 574.60 193.17 371.81 526.56 694.13 424.26 869.00 418.92 807.42 504.11 736.60 615.58 866.72 611.22
00003392 00000092 574.00 193.60 373.27 527.52 693.78 422.46 868.48 416.70 807.54 504.74 737.19 616.38 865.92 611.66
00003393 00000093 573.04 193.24 373.31 532.42 693.81 420.52 866.75 415.31 807.12 505.33 738.15 618.02 862.83 613.87
00003394 00000094 574.84 193.84 371.38 533.50 695.14 420.33 868.10 414.34 809.59 505.93 740.24 619.00 865.55 614.23
00003395 00000095 575.15 193.31 370.85 534.59 695.36 420.65 869.06 414.89 810.38 506.70 741.09 618.47 867.77 613.82
00003396 00000096 575.33 195.39 370.49 531.12 695.50 422.28 869.58 416.27 810.82 506.80 741.15 618.49 868.94 613.60
00003397 00000097 576.67 195.35 370.21 530.18 695.97 421.83 870.18 414.34 811.67 506.77 742.34 618.46 870.65 612.33
00003398 00000098 578.24 196.48 368.70 526.04 696.20 422.99 871.32 415.42 812.13 506.74 742.99 617.44 872.85 611.06
00003399 00000099 578.99 197.58 368.47 523.22 696.78 424.46 871.95 416.02 812.87 507.19 743.92 618.42 875.37 611.21
00003400 00000100 578.68 198.62 368.16 523.78 696.68 425.95 872.10 418.06 812.44 508.78 743.20 619.09 874.95 612.42
00003401 00000101 578.28 198.58 367.63 524.47 697.15 427.73 871.97 419.74 813.02 511.76 744.71 621.07 874.96 614.29
00003402 00000102 577.30 200.33 366.78 524.00 697.37 429.96 871.26 421.72 813.60 514.76 745.87 623.01 874.30 615.95
00003403 00000103 575.95 203.42 366.64 522.33 696.98 432.68 870.45 424.43 813.07 517.55 744.96 625.13 871.70 618.11
00003404 00000104 574.57 203.35 367.39 527.82 696.66 438.95 868.51 430.50 811.88 519.91 744.00 627.82 871.82 620.67
00003405 00000105 577.65 206.00 363.74 526.73 700.43 443.37 867.22 436.74 812.70 519.59 745.41 625.31 871.56 619.43
00003406 00000106 577.96 204.79 363.85 528.66 701.54 443.27 873.01 434.71 818.81 521.31 747.39 626.81 877.59 619.11
00003407 00000107 578.77 207.57 365.40 527.13 707.95 444.22 877.77 436.48 827.95 523.74 754.57 629.30 880.87 622.14
00003408 00000108 577.89 208.03 368.65 530.07 715.26 444.22 880.74 434.17 839.50 525.63 765.09 635.67 882.54 626.73
00003409 00000109 580.12 207.57 367.78 529.94 720.55 444.82 881.93 433.52 844.45 525.72 772.39 637.21 884.53 627.27
00003410 00000110 579.51 202.60 367.61 532.84 721.87 440.65 882.39 430.26 846.51 523.85 774.70 637.16 884.45 628.18
00003411 00000111 576.23 197.17 366.19 533.70 720.81 437.81 880.58 428.67 846.40 522.08 773.91 634.98 881.67 626.83
00003412 00000112 573.69 190.09 362.46 534.39 718.68 434.14 878.97 424.81 845.61 518.65 770.93 630.72 879.55 622.18
00003413 00000113 570.88 189.41 361.66 534.71 716.96 431.54 873.16 420.51 844.40 513.87 771.59 626.51 877.51 616.71
00003414 00000114 572.30 191.76 358.64 530.08 718.30 428.40 872.79 417.83 846.23 511.63 773.36 624.73 876.55 615.38
00003415 00000115 573.60 188.44 357.45 531.95 719.29 426.18 874.19 416.62 847.70 509.09 771.95 620.13 876.58 611.60
00003416 00000116 573.78 186.83 360.64 532.74 721.04 423.77 876.64 415.00 849.85 508.32 771.99 619.04 876.27 611.13
00003417 00000117 576.27 179.74 367.52 539.12 723.64 421.66 884.84 414.06 853.89 505.09 771.53 617.46 882.15 610.38
00003418 00000118 583.61 179.54 369.46 539.04 731.91 416.90 896.12 414.81 860.40 504.88 773.34 615.59 886.71 613.15
00003419 00000119 591.80 178.06 370.38 542.70 740.55 413.71 903.74 412.87 867.87 504.31 775.99 611.01 891.67 610.57
00003420 00000120 600.81 181.88 366.66 540.39 749.40 410.13 911.18 410.37 877.50 503.73 779.39 607.60 899.17 608.58
00003421 00000121 605.73 182.39 366.59 541.20 751.97 409.85 917.56 409.89 883.44 504.74 782.86 609.16 907.31 610.15
00003422 00000122 610.25 183.08 366.26 541.53 756.19 410.23 922.87 409.76 886.95 508.59 786.68 611.96 910.78 612.47
00003423 00000123 618.26 182.09 364.08 543.95 760.45 411.94 926.97 411.70 888.17 511.82 790.37 616.19 912.91 616.66
00003424 00000124 611.00 183.08 369.54 548.40 764.34 409.73 923.76 411.44 892.11 507.30 797.79 620.11 908.17 622.56
00003425 00000125 609.72 184.61 371.49 548.32 763.48 411.52 923.49 414.37 890.89 508.18 799.06 622.85 908.64 626.03
00003426 00000126 610.61 184.59 370.03 548.73 765.81 413.99 926.22 418.55 892.64 510.31 798.55 625.28 908.47 629.88
00003427 00000127 610.97 186.18 369.63 547.59 765.37 418.71 925.62 424.09 889.64 512.22 798.35 626.71 908.58 631.93
00003428 00000128 607.79 188.98 370.61 547.88 764.02 424.58 922.64 430.39 887.58 512.29 796.24 627.01 907.54 632.76
00003429 00000129 608.24 191.79 370.83 546.45 762.72 426.28 922.78 431.27 886.45 513.45 795.46 629.61 907.94 634.80
00003430 00000130 611.35 196.10 366.89 546.16 758.07 428.83 925.86 431.93 885.03 521.52 789.89 631.18 913.10 633.92
00003431 00000131 607.59 199.12 368.59 545.15 754.21 431.11 922.26 433.21 880.03 523.23 787.30 633.23 909.68 635.17
00003432 00000132 606.83 203.43 366.94 549.21 751.35 438.57 916.80 437.42 877.59 527.52 784.98 638.56 906.74 637.82
00003433 00000133 600.61 203.14 370.46 550.17 746.87 439.25 911.66 437.49 872.13 528.89 781.74 640.37 901.43 639.22
00003434 00000134 597.13 204.62 370.55 549.36 745.37 444.94 908.73 441.28 870.22 531.49 780.24 641.94 899.01 639.30
00003435 00000135 601.20 199.97 362.84 549.05 740.38 442.37 906.47 439.68 870.51 527.95 772.66 637.79 897.17 636.86
00003436 00000136 597.74 198.86 364.09 550.61 734.70 438.65 902.61 435.16 865.99 526.05 769.84 637.96 894.00 636.10
00003437 00000137 596.68 198.97 364.26 550.26 731.72 435.82 899.51 432.55 862.59 523.66 768.81 637.26 891.82 635.60
00003438 00000138 596.42 199.58 363.90 548.30 729.01 434.31 898.29 429.58 860.48 522.58 768.44 638.31 891.38 635.19
00003439 00000139 590.14 200.11 369.66 548.16 729.38 439.00 898.89 432.32 856.73 524.39 773.38 640.75 894.85 635.50
00003440 00000140 589.61 197.65 369.83 545.28 729.63 435.48 900.22 427.42 858.07 520.92 774.35 637.06 897.06 630.68
00003441 00000141 590.71 196.34 368.23 543.83 730.27 435.11 901.12 428.55 858.30 517.37 773.76 633.93 898.31 628.71
00003442 00000142 592.36 194.07 369.24 544.15 732.41 435.03 902.87 429.38 859.01 513.63 771.93 629.32 899.33 625.10
00003443 00000143 591.85 193.28 370.57 543.01 730.27 434.03 902.92 427.35 857.60 511.43 769.32 628.03 899.26 622.94
00003444 DELETE   590.64 192.39 372.43 540.10 724.62 428.44 900.37 422.12 849.49 513.25 763.55 625.29 894.65 620.49
00003445 DELETE   589.67 185.56 373.95 545.66 716.35 426.12 891.24 418.86 837.29 512.47 756.32 622.80 889.65 616.98
00003446 DELETE   585.77 181.76 374.22 552.85 704.26 422.16 881.65 414.62 821.51 510.10 747.75 622.91 882.62 616.86
00003447 00000147 580.03 180.61 377.59 558.30 691.56 420.05 872.29 411.97 806.65 512.76 737.79 624.21 873.57 617.64
00003448 DELETE   577.97 182.77 379.97 560.90 681.93 427.32 860.09 416.18 789.92 518.21 730.27 627.86 865.52 618.62
00003449 DELETE   580.29 188.20 378.21 555.65 675.33 432.62 855.89 418.24 777.66 522.39 724.29 631.85 863.16 619.81
00003450 00000150 579.19 195.09 380.17 555.72 669.20 437.84 849.07 426.27 763.61 532.21 714.11 634.39 854.22 624.79
00003451 00000151 580.57 207.92 380.41 554.87 666.92 443.73 844.92 433.76 755.23 541.80 708.06 646.87 842.78 639.62
00003452 00000152 585.70 221.07 385.38 551.98 665.75 451.07 849.18 440.64 757.97 550.58 702.73 659.03 840.37 651.37
00003453 00000153 587.60 226.29 388.74 557.01 668.08 460.19 851.59 449.59 758.65 560.14 705.87 668.92 845.55 660.38
00003454 00000154 590.94 233.61 391.11 554.20 671.64 465.63 852.29 455.27 759.76 566.07 709.50 672.21 847.03 663.46
CROP_BBOX: 321 0 1189 911
