Video ID: 	T67dU9E-ppg
H: 	1080
W: 	1920
FPS: 	25.0

FRAME INDEX X0 Y0 W H [Landmarks (5 Points)]

00003271 00000000 576.12 196.66 422.78 625.35 727.17 453.44 914.10 442.67 848.88 591.33 747.72 665.65 899.34 659.75
00003272 00000001 574.89 197.34 422.64 622.52 724.99 453.16 913.24 441.92 847.99 590.91 746.37 665.11 899.29 658.86
00003273 00000002 573.80 196.29 422.82 623.40 723.93 453.51 912.02 442.34 846.81 591.00 745.32 665.64 897.78 659.39
00003274 00000003 572.03 196.87 423.06 623.18 722.21 453.47 910.86 442.99 844.94 590.77 744.40 665.14 897.54 659.38
00003275 00000004 569.42 198.94 424.56 621.15 720.06 455.77 909.34 445.41 842.86 592.37 741.61 665.71 894.90 660.14
00003276 00000005 568.53 200.55 423.71 620.10 718.54 457.36 908.19 447.34 841.84 594.89 739.00 666.43 892.55 661.25
00003277 00000006 567.07 203.35 423.12 619.58 716.08 456.84 905.75 449.11 839.90 595.06 736.25 667.68 888.52 664.39
00003278 00000007 563.91 203.27 425.50 620.69 713.87 458.47 903.50 451.84 836.93 595.43 734.05 668.47 884.92 665.97
00003279 00000008 553.13 205.44 427.27 618.01 712.95 456.27 891.74 444.12 835.60 597.33 737.37 681.90 878.69 670.60
00003280 00000009 552.39 203.17 426.19 622.53 709.96 456.43 888.32 444.47 831.98 598.50 734.63 681.74 877.30 670.56
00003281 00000010 551.00 203.84 427.01 620.67 705.59 455.98 885.46 444.23 827.52 596.70 732.35 681.58 874.80 670.30
00003282 00000011 549.46 202.31 426.61 622.52 702.68 456.81 882.64 445.28 824.12 595.61 728.38 680.15 873.36 669.09
00003283 00000012 548.50 205.55 425.25 619.54 701.02 456.45 880.78 445.21 822.10 595.53 725.85 679.34 870.89 668.79
00003284 00000013 548.56 202.69 423.67 623.26 699.29 456.71 878.87 445.80 819.95 595.43 723.81 678.93 869.46 668.64
00003285 00000014 547.18 205.23 423.39 620.09 696.09 457.88 877.11 445.44 818.19 595.51 721.57 678.88 869.92 667.66
00003286 00000015 544.87 204.92 423.78 619.58 692.02 463.15 877.75 447.53 814.29 598.21 715.28 675.16 868.97 662.63
00003287 00000016 545.14 207.57 421.89 618.25 692.47 460.27 872.25 446.11 813.96 598.31 717.95 679.38 867.16 667.19
00003288 00000017 543.68 204.85 422.43 621.22 690.28 460.27 870.66 445.92 812.38 598.69 715.49 679.40 865.74 667.06
00003289 00000018 542.48 202.92 422.33 623.74 688.93 458.21 869.24 444.83 811.38 596.39 715.10 678.75 864.61 667.10
00003290 00000019 541.83 200.80 421.92 626.47 690.24 454.91 869.14 443.00 811.64 593.49 714.14 676.22 862.39 665.82
00003291 00000020 542.22 200.71 421.57 624.78 690.37 452.96 869.36 441.27 812.47 591.30 713.54 674.36 861.89 664.36
00003292 00000021 542.07 199.45 422.00 623.51 690.64 449.36 868.61 436.83 812.37 588.35 715.25 672.71 860.00 662.05
00003293 00000022 542.86 200.12 421.88 620.40 690.74 448.76 869.69 434.25 813.89 586.17 718.70 672.68 861.67 660.39
00003294 00000023 543.93 196.56 422.67 620.24 691.51 447.06 869.38 432.18 813.69 584.14 720.53 669.30 861.81 656.73
00003295 00000024 544.93 190.01 423.04 624.10 692.05 443.96 870.77 428.83 814.64 581.90 722.13 667.64 861.61 654.82
00003296 00000025 544.17 182.21 422.76 628.56 694.32 447.36 873.88 429.34 813.20 580.37 721.44 665.70 866.63 651.19
00003297 00000026 545.29 181.59 422.93 626.11 697.16 444.55 877.13 425.13 818.18 578.27 727.88 665.65 870.75 649.66
00003298 00000027 547.19 181.74 423.93 626.02 702.14 445.51 881.57 423.49 824.29 578.60 734.76 667.74 875.23 649.31
00003299 00000028 552.49 180.42 423.04 628.89 710.16 446.60 887.09 425.27 832.05 578.35 740.29 668.92 879.79 650.78
00003300 00000029 566.69 176.10 423.60 631.78 720.21 440.45 909.62 429.84 846.25 570.72 743.14 655.03 898.52 648.64
00003301 00000030 572.17 178.53 423.59 627.16 729.25 437.10 916.07 421.70 857.53 566.03 757.05 652.48 912.93 641.54
00003302 DELETE   578.21 172.99 423.87 628.87 751.82 420.62 926.97 407.92 880.56 559.79 779.05 649.01 923.36 640.10
00003303 00000032 587.07 167.07 423.21 628.98 765.98 410.71 941.26 393.77 899.45 555.02 795.15 648.99 935.44 635.46
00003304 00000033 598.66 160.69 414.68 630.85 778.42 405.05 948.52 386.86 914.72 546.56 801.91 644.59 937.43 629.71
00003305 00000034 601.80 153.07 411.67 633.52 784.59 399.69 953.00 385.12 920.25 538.10 809.40 639.82 938.61 627.28
00003306 00000035 604.56 147.14 410.63 637.66 789.27 394.16 955.04 381.99 923.94 531.82 816.00 636.26 940.93 625.16
00003307 00000036 604.38 147.24 409.98 635.61 790.34 391.44 954.26 381.54 921.74 528.03 819.35 633.90 940.93 624.35
00003308 00000037 604.30 147.22 409.66 634.97 789.50 390.86 953.39 381.78 920.67 527.22 817.73 632.65 939.78 623.84
00003309 00000038 602.68 149.41 410.20 631.02 786.58 390.18 953.50 381.94 918.32 527.85 813.83 632.24 937.32 624.30
00003310 00000039 600.91 151.57 410.12 629.11 783.49 391.25 949.01 383.79 911.47 530.23 809.75 632.96 931.48 625.86
00003311 00000040 597.36 151.98 411.98 626.27 778.00 389.36 947.27 384.91 906.46 529.95 801.22 629.81 928.05 625.37
00003312 00000041 595.39 151.31 412.81 624.03 774.01 386.80 945.37 384.91 901.91 529.41 794.52 626.29 925.18 624.19
00003313 00000042 594.05 153.79 410.45 621.94 769.19 384.27 940.53 382.66 897.11 528.55 789.04 625.17 922.68 623.22
00003314 00000043 591.60 155.53 410.31 618.52 763.42 384.61 933.90 382.52 888.31 528.97 782.66 623.74 916.89 621.58
00003315 00000044 590.26 153.09 408.00 619.50 760.69 384.72 929.52 384.74 883.50 527.68 777.52 622.28 908.99 622.07
00003316 00000045 587.90 151.62 407.72 619.99 758.04 382.95 925.69 385.60 879.57 524.61 771.32 619.46 902.73 621.65
00003317 00000046 587.62 151.04 408.43 621.42 756.12 379.84 924.97 384.33 877.82 519.75 768.64 617.61 902.22 621.23
00003318 00000047 589.39 151.54 406.65 620.60 756.37 379.00 924.81 383.47 878.31 519.05 770.65 618.84 902.60 622.43
00003319 00000048 591.15 153.02 406.38 618.66 755.61 380.58 927.55 384.42 878.96 522.30 771.53 620.08 907.00 623.16
00003320 00000049 592.38 155.14 407.07 618.25 754.84 382.72 929.19 385.94 879.23 525.54 771.06 622.72 909.56 625.32
00003321 00000050 595.66 157.18 404.49 616.28 756.00 383.31 930.83 386.56 880.11 526.72 771.96 624.25 910.01 626.98
00003322 00000051 597.08 153.76 405.08 623.09 763.53 383.76 931.49 388.19 883.91 528.20 776.54 624.07 907.28 627.71
00003323 00000052 600.48 152.53 405.53 626.78 766.69 382.44 933.29 387.69 885.81 528.60 778.66 624.96 907.81 629.18
00003324 00000053 603.44 152.40 405.19 626.89 769.78 381.95 936.50 388.27 888.84 528.43 782.13 624.06 910.34 629.09
00003325 00000054 602.34 151.53 408.94 625.85 768.20 382.35 940.86 388.11 890.71 527.97 782.29 623.49 917.22 627.84
00003326 00000055 602.78 151.17 410.18 624.82 768.43 382.42 942.59 388.03 891.69 527.69 782.91 623.07 919.58 627.32
00003327 00000056 603.01 150.39 411.32 628.07 770.50 382.58 942.06 389.87 891.10 527.95 783.07 623.10 916.93 628.81
00003328 00000057 602.22 152.04 411.77 627.31 771.81 385.12 940.42 391.09 888.85 531.03 784.60 626.20 912.75 630.96
00003329 00000058 602.91 152.65 410.96 626.37 769.79 387.34 939.55 392.18 888.14 533.44 783.52 628.30 912.61 632.36
00003330 00000059 602.39 152.85 411.51 626.27 770.28 388.44 939.83 391.67 889.29 534.50 785.49 628.20 914.81 630.84
00003331 00000060 603.05 151.61 410.16 626.95 773.17 385.11 945.22 387.67 897.57 529.44 789.64 626.43 922.55 628.08
00003332 00000061 607.31 148.55 406.80 625.21 784.34 383.29 951.10 387.27 910.39 522.50 801.83 620.55 929.13 622.83
00003333 00000062 610.73 147.99 402.65 622.54 792.98 384.49 954.35 384.39 920.34 519.49 813.96 621.66 933.17 620.69
00003334 00000063 613.38 148.22 399.12 621.21 796.46 385.78 954.42 383.85 924.25 517.86 820.23 622.49 935.29 619.84
00003335 00000064 612.57 147.97 399.19 620.11 797.10 385.09 954.67 383.47 924.96 516.87 821.08 621.32 935.18 618.85
00003336 00000065 609.96 146.29 400.41 624.03 796.13 384.98 953.35 383.50 923.41 518.07 819.91 622.25 933.95 619.92
00003337 00000066 607.58 146.44 401.25 625.25 795.47 386.01 951.42 384.78 922.12 520.93 818.44 623.95 931.31 621.90
00003338 00000067 605.11 149.49 402.88 627.50 791.75 388.09 949.56 385.30 918.65 523.99 813.74 627.40 930.01 624.04
00003339 00000068 601.42 152.83 402.88 627.07 786.41 394.02 941.35 389.02 909.94 527.87 809.23 630.92 925.33 626.14
00003340 00000069 598.54 152.50 402.22 630.83 775.34 398.31 933.04 391.27 899.14 533.15 798.22 634.50 920.45 628.61
00003341 00000070 589.39 161.04 408.78 624.60 764.12 398.93 927.25 392.02 889.25 538.68 788.49 636.55 915.60 631.60
00003342 00000071 581.79 160.28 412.83 627.35 749.28 405.85 920.44 394.58 879.15 541.04 778.37 639.15 917.93 630.61
00003343 00000072 580.38 167.57 408.58 619.46 738.84 416.22 915.91 403.95 867.75 546.28 769.78 639.79 918.79 630.64
00003344 DELETE   574.96 166.04 412.14 619.94 726.37 430.51 911.08 410.20 862.72 551.72 760.05 654.33 904.62 636.74
00003345 00000074 570.08 171.19 412.40 623.48 722.77 433.88 902.42 416.08 851.54 557.71 755.07 657.28 893.72 641.25
00003346 00000075 562.59 185.79 411.95 617.07 718.46 439.69 889.73 422.51 841.47 567.79 751.78 661.56 883.74 645.92
00003347 00000076 560.23 196.44 410.19 610.43 710.21 445.71 882.43 428.02 832.17 574.66 745.69 666.39 879.09 650.45
00003348 00000077 556.01 200.70 412.29 609.96 704.15 448.37 879.23 431.36 825.61 581.49 739.53 669.63 876.06 653.99
00003349 00000078 555.78 208.18 410.55 605.65 702.33 452.58 874.01 436.49 820.27 586.51 734.89 670.41 871.92 655.68
00003350 00000079 553.49 212.29 410.04 603.87 699.36 456.31 870.50 438.16 817.51 590.50 732.56 672.18 870.69 656.09
00003351 00000080 551.93 211.78 410.29 605.33 697.26 455.43 869.10 437.65 815.28 590.58 730.93 672.33 868.67 656.52
00003352 00000081 551.57 212.24 410.35 604.45 696.91 454.74 868.39 437.88 814.21 590.32 728.50 670.15 867.72 655.26
00003353 00000082 552.16 212.92 409.77 601.87 697.19 454.48 869.09 437.58 814.21 590.12 728.66 668.91 867.87 654.04
00003354 00000083 553.48 211.38 409.36 602.12 698.85 451.99 870.32 436.32 815.70 586.68 729.52 666.89 868.44 652.93
00003355 00000084 555.08 210.30 409.62 600.67 701.80 449.90 872.33 434.01 818.14 584.75 732.90 665.42 869.89 651.10
00003356 00000085 556.78 207.38 409.80 601.39 703.72 448.83 874.68 433.30 820.72 583.11 735.94 665.79 871.44 651.54
00003357 00000086 558.33 206.79 409.84 602.70 705.81 449.13 876.39 434.54 822.55 583.95 737.07 665.58 873.13 652.08
00003358 00000087 559.92 208.30 409.31 602.05 706.76 450.32 877.90 436.27 823.47 584.79 737.90 666.27 875.01 653.15
00003359 00000088 561.12 208.10 409.66 602.54 708.49 451.80 879.24 437.76 824.97 584.92 739.19 666.17 877.60 653.08
00003360 00000089 562.13 209.57 409.26 600.92 710.38 451.34 880.20 437.83 826.36 583.90 740.06 665.66 877.39 653.12
00003361 00000090 563.35 207.19 408.92 602.75 712.11 450.99 881.48 437.03 828.63 583.70 741.42 665.41 878.99 652.71
00003362 00000091 563.57 206.82 410.40 601.70 712.51 450.50 882.54 434.95 829.80 583.87 742.04 664.75 880.59 650.78
00003363 00000092 564.36 203.32 411.53 603.38 712.67 448.07 883.61 433.21 830.62 580.60 742.47 663.49 880.15 650.06
00003364 00000093 565.06 203.06 411.90 604.43 713.61 447.04 883.71 432.47 831.77 578.76 743.58 662.51 880.32 649.35
00003365 00000094 565.94 201.23 413.31 605.58 714.48 446.64 885.07 431.92 833.17 578.39 744.19 662.18 881.80 648.89
00003366 00000095 567.13 202.67 414.39 605.20 715.74 446.55 886.90 431.63 835.06 578.81 745.09 662.16 883.76 648.67
00003367 00000096 568.68 198.83 415.56 610.27 717.01 447.20 889.00 432.08 837.48 579.66 745.08 662.53 886.10 649.12
00003368 00000097 570.68 195.75 415.82 612.69 718.32 446.90 891.01 431.99 840.08 579.03 746.48 663.40 887.44 650.28
00003369 00000098 572.68 196.52 416.07 612.89 719.20 447.04 893.02 432.44 841.66 578.89 747.56 664.78 888.57 651.99
00003370 00000099 574.76 196.76 415.60 613.93 720.37 447.74 895.11 433.28 842.57 580.06 748.43 665.64 890.45 653.12
00003371 00000100 580.96 196.21 414.11 618.32 719.46 447.70 907.64 435.05 843.63 579.85 749.53 660.30 904.43 652.42
00003372 00000101 582.83 194.19 414.97 618.67 721.69 449.00 909.71 435.12 845.49 581.93 752.72 661.03 907.42 651.95
00003373 00000102 584.42 193.57 414.78 618.43 723.69 449.36 911.91 435.13 847.49 582.05 754.37 661.05 908.85 651.49
00003374 00000103 586.29 189.85 414.29 620.66 725.01 449.37 912.74 434.65 847.88 581.09 755.17 660.37 909.52 650.27
00003375 00000104 587.66 190.45 414.37 616.84 726.07 450.68 913.68 435.35 848.25 581.65 756.17 659.27 910.75 648.67
00003376 00000105 587.07 193.44 415.46 614.32 727.40 451.68 914.40 435.65 849.55 582.99 758.08 658.53 913.03 647.39
00003377 00000106 585.70 193.68 416.66 613.67 727.35 450.64 915.45 434.07 850.86 582.57 758.73 657.61 914.49 646.00
00003378 00000107 585.99 188.93 415.96 616.79 727.34 450.68 914.73 433.05 851.24 580.28 759.11 656.12 915.63 643.45
00003379 00000108 586.66 188.71 415.57 613.82 727.22 448.79 914.73 431.87 851.03 577.52 760.15 654.95 916.63 642.85
00003380 00000109 585.67 188.30 416.96 618.60 726.66 449.01 914.99 431.95 851.65 578.55 759.70 657.15 916.81 644.97
00003381 00000110 584.76 193.21 416.93 620.65 727.54 452.25 913.34 435.03 850.61 582.82 759.26 660.67 912.08 648.88
00003382 00000111 587.54 197.94 415.08 618.69 728.69 459.39 913.50 441.43 850.08 590.76 759.88 664.58 912.79 652.25
00003383 00000112 586.26 207.69 416.20 612.97 728.46 465.07 913.22 447.84 848.53 597.23 760.18 668.91 910.65 657.10
00003384 00000113 588.73 208.50 412.78 609.51 730.15 465.35 906.45 453.03 847.09 601.63 759.81 677.24 905.55 667.53
00003385 00000114 586.91 211.15 415.56 607.37 730.98 469.23 907.16 454.84 848.71 607.15 760.35 679.49 906.41 668.39
00003386 00000115 586.70 213.09 416.66 606.98 731.60 470.26 908.14 456.06 848.79 608.59 760.95 680.54 905.53 669.74
00003387 00000116 586.92 210.18 417.62 612.50 734.14 470.89 909.04 458.50 849.38 609.40 761.14 682.58 903.49 673.24
00003388 00000117 588.71 212.66 416.50 607.10 734.85 473.39 910.08 460.16 849.76 611.11 763.22 684.64 903.66 674.93
00003389 00000118 589.14 212.51 416.97 608.52 734.23 474.31 909.83 461.14 849.78 611.00 763.74 685.47 905.63 675.68
00003390 00000119 588.80 211.61 416.75 610.06 734.76 473.65 910.86 460.90 850.32 611.15 762.87 685.99 905.22 676.67
00003391 00000120 589.23 209.65 415.93 611.81 734.69 472.23 909.88 460.50 849.59 610.32 761.57 685.14 902.79 676.43
00003392 00000121 588.60 210.19 415.73 611.06 734.18 470.03 910.11 458.32 850.46 607.44 760.45 683.59 903.36 674.96
00003393 00000122 587.93 211.59 417.51 611.80 730.03 475.96 920.48 462.08 848.87 607.99 755.23 676.12 910.00 666.70
00003394 00000123 585.76 213.34 419.50 609.87 728.79 471.49 918.59 456.13 849.39 606.53 755.42 672.67 912.28 661.93
00003395 00000124 585.27 215.22 417.72 605.95 726.48 470.51 913.60 453.64 846.39 603.26 754.17 669.12 910.61 657.31
00003396 00000125 585.85 210.84 416.67 610.38 724.77 467.08 911.92 450.96 843.25 601.13 753.04 668.53 907.94 657.51
00003397 00000126 584.91 211.43 415.89 609.71 724.06 463.45 911.18 448.96 842.86 600.61 752.17 668.25 904.40 658.84
00003398 00000127 585.04 208.25 415.05 612.61 722.60 461.46 910.53 446.96 841.75 598.35 751.72 667.44 905.07 657.99
00003399 00000128 583.59 208.88 415.69 611.55 721.62 459.87 909.50 445.26 841.38 597.12 749.73 665.41 905.23 655.92
00003400 00000129 583.81 204.74 415.11 614.84 721.60 457.20 908.70 443.94 840.95 593.56 748.64 663.95 903.39 655.59
00003401 00000130 582.37 203.53 415.94 614.67 720.80 454.31 908.77 442.10 841.09 591.44 749.79 664.23 903.03 656.71
00003402 00000131 582.75 199.47 416.37 617.18 721.10 451.51 909.80 438.59 842.95 588.66 750.22 663.23 904.85 655.01
00003403 00000132 582.91 198.09 416.83 615.71 720.66 449.72 910.28 436.40 843.59 586.29 752.06 662.91 906.54 654.08
00003404 00000133 582.95 194.08 417.31 619.24 721.70 447.74 910.73 434.09 845.25 584.31 752.78 661.44 907.55 652.22
00003405 00000134 582.40 191.69 417.13 621.25 722.21 445.94 909.96 433.06 845.24 581.81 751.94 660.03 906.20 651.45
00003406 00000135 581.01 192.49 417.27 619.57 722.61 445.10 909.22 432.56 845.36 580.42 751.81 658.10 905.31 649.95
00003407 00000136 579.84 193.43 416.77 616.23 722.08 442.57 908.72 431.19 844.67 577.98 751.18 656.76 903.16 649.76
00003408 00000137 573.51 194.45 418.42 609.04 719.87 438.94 901.04 424.20 845.29 576.95 750.99 660.66 894.05 647.21
00003409 00000138 571.62 196.37 418.49 604.60 717.36 436.63 899.55 423.04 843.01 574.61 748.58 659.13 892.18 646.60
00003410 00000139 570.53 194.51 417.14 602.99 715.31 435.00 898.68 421.33 841.60 572.94 746.80 657.73 891.13 645.17
00003411 00000140 567.80 188.98 417.44 605.62 714.10 432.18 897.52 419.44 839.83 572.04 745.16 655.81 887.65 643.90
00003412 00000141 566.33 186.32 417.15 608.99 713.13 428.98 896.49 416.10 838.94 567.95 744.23 654.69 885.36 642.66
00003413 00000142 566.15 180.12 416.63 613.28 713.09 426.34 896.55 412.59 839.23 562.61 744.66 652.73 885.06 639.79
00003414 00000143 565.94 182.80 415.81 612.67 713.17 421.02 896.18 408.40 838.88 558.07 743.42 650.52 882.80 638.37
00003415 00000144 564.68 182.11 415.57 615.20 714.20 418.68 897.56 405.93 841.22 554.96 742.07 649.28 884.40 637.03
00003416 00000145 566.29 179.18 415.02 615.98 716.30 417.09 901.39 404.28 847.27 551.33 740.25 642.43 890.75 630.43
00003417 00000146 568.80 177.23 415.53 614.30 721.88 408.53 906.20 394.98 857.99 542.91 744.17 632.36 897.71 620.46
00003418 00000147 572.68 172.26 412.43 611.70 728.93 402.86 910.64 386.75 866.37 532.76 752.22 626.64 904.35 612.75
00003419 00000148 576.03 163.82 408.42 613.97 741.93 398.65 916.35 382.41 881.51 526.89 762.48 623.35 908.53 610.14
00003420 00000149 581.77 162.94 399.54 610.28 752.80 398.97 923.18 382.54 892.58 520.17 772.92 624.23 914.31 610.39
00003421 00000150 581.59 161.37 400.87 608.51 754.82 394.95 926.20 381.97 893.90 515.37 774.74 620.40 916.18 609.53
00003422 00000151 581.27 155.12 401.51 616.26 756.72 393.42 925.15 381.52 895.31 513.26 773.03 617.92 915.06 608.12
00003423 00000152 579.12 150.03 402.24 621.75 753.86 389.91 922.69 379.74 891.21 511.84 769.74 616.94 910.64 608.25
00003424 00000153 576.63 153.44 401.22 616.40 744.98 386.34 914.45 372.54 882.97 507.66 765.61 615.14 905.45 603.11
00003425 00000154 573.93 152.60 401.94 616.21 737.85 382.44 911.66 371.68 873.85 504.56 759.59 611.82 903.02 601.73
00003426 00000155 571.81 150.56 400.45 616.02 733.37 380.65 906.82 372.83 866.32 504.79 754.36 608.60 898.17 600.99
00003427 00000156 566.13 147.72 400.68 618.54 729.50 378.79 903.41 373.42 860.98 505.13 751.56 608.77 893.05 602.82
00003428 00000157 561.52 147.31 403.74 618.68 724.11 377.73 901.28 372.74 856.14 508.01 746.55 609.62 889.36 603.87
00003429 00000158 557.53 144.47 403.93 619.81 719.59 377.06 897.52 373.25 850.58 508.67 742.27 608.43 885.46 603.35
00003430 00000159 555.12 143.65 404.32 620.49 716.80 375.37 893.85 371.57 847.44 508.32 740.39 608.00 882.18 602.81
00003431 00000160 551.89 142.63 406.19 621.62 714.60 373.13 891.62 369.56 845.20 505.58 737.93 605.51 880.93 600.60
00003432 00000161 548.15 141.38 407.87 622.06 711.21 371.66 887.59 368.20 841.27 503.04 736.15 605.16 877.12 600.34
00003433 00000162 546.29 140.44 407.86 623.54 707.75 370.40 884.69 367.38 837.55 502.10 733.97 605.34 875.16 600.95
00003434 00000163 543.14 140.06 410.95 625.32 704.59 368.51 883.96 365.66 836.00 500.47 731.74 604.75 875.53 600.52
00003435 00000164 542.05 138.04 412.73 626.79 704.64 366.72 884.64 363.58 837.00 499.55 732.39 604.08 875.84 599.59
00003436 00000165 542.53 136.03 414.79 629.49 706.90 365.69 887.46 362.14 840.16 499.33 734.44 603.91 877.91 598.91
00003437 00000166 546.23 135.81 414.16 629.24 710.77 365.58 891.79 360.95 845.60 498.21 737.25 603.99 880.76 598.09
00003438 00000167 550.76 132.57 414.63 636.58 716.46 366.99 896.90 361.35 851.74 499.75 739.73 606.50 884.73 599.83
00003439 00000168 556.84 131.79 416.55 639.38 721.15 368.22 904.63 364.92 856.41 500.13 745.09 609.82 890.72 604.95
00003440 00000169 562.34 133.73 419.14 637.88 725.42 369.93 911.39 365.42 861.79 501.64 750.71 613.53 897.79 607.42
00003441 00000170 567.06 135.68 420.79 639.41 730.31 370.55 915.01 365.36 866.72 503.14 757.71 618.05 902.42 611.41
00003442 00000171 572.26 134.77 420.88 640.34 733.91 371.64 924.32 365.38 874.33 506.78 763.41 621.58 910.97 614.59
00003443 00000172 576.29 136.60 421.45 636.17 735.70 371.89 930.52 364.31 877.99 509.05 765.26 622.32 917.34 614.61
00003444 00000173 577.83 129.98 423.90 648.96 743.94 364.26 930.90 367.81 874.57 512.20 763.62 618.70 913.97 620.18
00003445 00000174 579.17 124.09 426.47 655.86 747.42 377.09 927.97 379.09 872.01 514.70 765.75 617.94 910.50 618.24
00003446 00000175 578.96 126.05 425.72 653.15 746.97 383.12 924.58 381.21 871.79 515.85 766.97 619.83 909.78 617.19
00003447 00000176 577.04 130.51 426.50 652.86 745.63 384.07 923.02 380.61 871.35 521.11 764.96 621.64 910.99 617.88
00003448 00000177 577.14 134.31 426.09 652.85 743.74 382.80 922.23 377.94 871.69 524.50 766.39 626.21 912.79 621.46
00003449 00000178 580.06 138.39 425.57 649.88 742.22 385.12 923.31 377.92 871.31 527.89 769.15 629.64 916.84 623.08
00003450 00000179 585.93 141.53 424.05 646.64 742.46 390.28 925.82 379.84 872.69 532.21 773.35 633.41 923.68 624.11
00003451 00000180 588.92 141.93 424.21 644.56 742.83 389.70 929.05 380.59 872.46 532.62 772.36 633.15 924.56 624.81
00003452 00000181 593.51 141.87 421.30 641.66 742.60 389.43 926.50 380.72 870.60 530.38 771.71 630.13 922.36 622.24
00003453 00000182 594.25 141.93 420.49 641.82 740.45 388.49 923.73 379.47 866.47 528.89 770.54 629.66 919.46 621.66
00003454 00000183 594.77 140.47 419.47 645.30 738.46 388.68 921.66 379.72 862.76 530.26 768.17 630.85 916.59 623.04
00003455 00000184 594.05 140.22 421.53 648.75 736.79 391.53 919.52 381.55 860.41 534.61 766.80 633.10 916.26 624.70
00003456 00000185 592.21 143.22 424.72 647.27 736.04 395.81 918.47 386.22 859.07 537.94 767.63 636.60 915.73 628.67
00003457 00000186 593.97 144.77 422.99 646.04 737.96 399.53 919.06 389.72 860.24 540.76 770.04 639.11 917.33 631.11
00003458 00000187 595.78 148.01 422.42 640.36 740.56 400.54 923.72 391.42 863.60 541.91 772.20 639.79 919.34 632.46
00003459 00000188 596.60 151.23 421.68 637.76 742.73 401.19 927.18 393.35 866.92 543.15 772.42 640.44 921.07 634.21
00003460 00000189 596.07 154.29 422.23 639.35 744.55 402.07 927.72 393.91 870.26 543.84 772.50 640.50 922.50 634.13
00003461 00000190 594.99 155.70 422.26 640.60 744.81 402.56 927.36 394.44 872.78 543.24 771.36 641.01 922.51 634.80
00003462 00000191 593.08 155.46 421.33 642.00 745.21 403.19 926.08 394.97 873.47 542.69 769.94 640.12 922.31 633.83
00003463 00000192 588.78 155.26 423.84 645.91 744.40 403.95 924.43 395.41 873.42 542.44 767.19 638.69 922.47 632.10
00003464 00000193 586.61 156.09 423.62 645.93 744.20 402.63 924.76 393.36 875.18 542.33 765.38 637.95 921.88 630.93
00003465 00000194 583.21 155.91 426.31 647.53 748.13 400.56 927.66 390.38 880.52 541.54 768.15 638.54 922.54 630.73
00003466 00000195 581.76 157.34 428.83 648.80 750.94 401.69 929.21 389.20 886.25 543.03 772.80 640.91 925.93 631.14
00003467 00000196 579.78 160.89 430.89 647.10 753.63 402.85 930.45 389.70 890.36 543.48 776.56 643.11 927.48 632.89
00003468 00000197 577.97 163.66 429.35 648.15 753.83 405.18 929.69 391.12 891.89 546.72 777.91 648.01 926.64 637.26
00003469 00000198 577.95 164.08 425.12 648.27 751.01 405.42 927.69 392.30 889.62 547.60 776.93 651.64 923.34 641.86
00003470 00000199 574.54 163.11 421.21 644.31 748.26 403.73 925.38 393.85 885.13 546.64 777.12 651.01 920.39 643.71
00003471 00000200 572.16 169.71 418.87 626.94 738.76 408.48 924.38 392.71 884.58 541.86 769.53 651.50 914.45 637.79
00003472 00000201 568.25 172.11 418.25 627.29 731.72 414.12 918.66 395.14 878.10 545.09 765.33 655.55 911.54 638.71
00003473 00000202 564.13 173.89 416.18 627.04 725.83 419.11 911.21 402.03 869.63 547.13 759.90 657.64 903.25 642.21
00003474 00000203 557.88 179.55 419.22 625.33 720.39 420.80 904.58 403.38 859.98 551.27 754.78 659.50 894.26 643.51
00003475 00000204 553.74 176.88 419.01 632.32 715.65 423.79 898.17 406.54 851.55 553.04 750.79 661.61 885.88 645.31
00003476 00000205 546.45 183.77 418.79 628.29 710.94 426.31 890.60 409.65 843.78 554.67 745.38 662.00 878.14 646.01
00003477 00000206 543.24 187.47 417.39 626.07 703.12 426.42 882.76 409.45 833.47 558.80 738.04 663.33 871.66 646.96
00003478 00000207 540.11 182.29 416.10 630.57 697.23 436.15 874.51 419.61 824.20 563.94 726.46 661.16 867.16 646.30
00003479 00000208 533.40 181.26 413.88 628.92 687.98 443.44 867.68 424.55 813.11 568.06 714.79 657.10 867.32 642.16
00003480 00000209 528.08 194.17 415.28 621.06 678.22 441.00 854.95 428.04 801.51 566.91 705.41 656.69 854.55 644.68
00003481 00000210 525.25 198.01 413.89 616.83 671.54 442.24 848.06 431.90 793.39 570.40 699.14 658.84 847.65 649.00
00003482 00000211 521.30 201.19 413.30 615.19 665.10 443.20 841.59 434.97 784.47 573.90 690.94 658.98 840.96 651.18
00003483 00000212 514.31 200.59 414.72 617.45 657.04 452.73 841.21 435.71 780.75 578.71 687.33 656.89 845.36 644.70
00003484 00000213 513.20 204.66 412.57 614.81 652.90 456.74 838.31 439.57 775.91 585.38 681.88 659.25 841.97 647.17
00003485 00000214 511.28 208.07 407.26 611.93 653.07 459.65 827.00 444.85 772.65 591.05 676.74 669.03 828.09 656.39
00003486 00000215 507.75 211.02 409.26 610.81 646.85 463.86 823.60 449.89 766.20 594.99 672.84 674.85 823.88 662.96
00003487 00000216 504.88 214.09 410.19 609.83 644.35 467.01 819.08 452.99 760.69 599.35 672.18 680.02 818.57 667.58
00003488 00000217 503.22 218.01 410.64 609.36 641.98 469.15 817.43 455.29 757.02 602.76 669.52 682.40 817.45 670.29
00003489 00000218 502.43 216.90 410.23 607.92 637.74 471.88 814.28 457.49 751.67 608.41 666.39 684.73 813.78 672.45
00003490 00000219 502.41 219.12 409.03 606.52 636.44 471.89 812.22 456.24 749.28 609.54 666.70 687.30 812.24 673.74
00003491 00000220 501.78 216.80 409.17 610.84 635.98 471.63 811.60 455.31 749.05 608.78 668.51 690.27 811.01 675.64
00003492 00000221 503.05 217.90 407.88 611.36 637.72 472.52 812.06 455.84 749.89 609.59 669.29 690.66 811.87 675.82
00003493 00000222 503.52 217.27 407.62 610.70 637.07 473.64 813.42 456.56 751.09 609.90 669.54 690.99 813.86 676.08
00003494 00000223 504.41 216.52 407.48 612.63 638.96 473.69 816.15 456.73 754.06 610.91 669.86 690.50 816.46 675.95
00003495 00000224 505.22 216.05 407.58 616.17 641.52 472.67 817.77 456.74 756.76 609.20 671.62 689.73 818.05 675.95
00003496 00000225 506.61 215.48 407.25 621.17 643.15 472.39 818.92 457.11 758.96 606.19 673.30 691.14 819.53 677.83
00003497 00000226 507.34 216.41 405.59 618.77 643.28 472.93 817.76 457.36 758.03 605.00 673.52 691.07 819.20 677.53
00003498 00000227 507.79 214.93 403.79 618.48 644.76 471.78 816.85 457.69 758.68 603.60 673.27 689.80 814.82 677.77
00003499 00000228 506.74 219.05 404.66 610.73 646.35 469.90 817.40 456.52 760.81 598.77 674.56 686.24 814.78 674.58
00003500 00000229 507.16 217.44 405.00 609.52 646.86 469.12 817.68 455.90 761.70 597.50 674.30 683.77 815.01 672.35
00003501 00000230 507.99 215.73 404.34 609.11 646.91 469.41 817.93 456.29 761.90 597.21 673.87 681.65 815.68 670.41
00003502 00000231 508.47 217.86 404.82 607.42 647.51 469.03 819.04 455.83 762.75 596.82 674.62 681.76 816.82 670.63
00003503 00000232 509.11 218.13 405.17 605.59 647.60 468.89 820.21 456.24 763.13 596.68 675.86 681.45 818.12 670.75
00003504 00000233 510.17 215.73 405.53 607.84 648.04 469.08 822.37 455.99 764.38 598.33 676.95 682.47 820.54 671.43
00003505 00000234 511.55 214.35 405.44 609.77 649.48 468.35 824.04 455.42 765.63 599.26 677.81 682.92 822.29 671.90
00003506 00000235 512.84 213.76 406.38 611.17 650.95 467.92 825.78 455.56 766.17 599.68 678.61 683.46 823.09 672.90
00003507 00000236 518.75 209.01 409.52 615.51 651.18 460.70 828.14 453.85 765.98 597.26 678.93 679.44 822.77 674.26
00003508 00000237 519.86 208.23 411.52 616.80 652.35 461.62 830.46 454.43 767.09 597.93 681.55 681.48 825.16 675.94
00003509 00000238 521.95 207.84 411.67 616.56 652.68 461.51 832.61 453.46 768.39 598.26 683.90 683.00 828.25 676.65
00003510 00000239 525.32 208.21 411.14 616.60 655.01 461.74 835.70 452.26 771.83 597.51 688.78 682.96 834.71 675.31
00003511 00000240 529.16 207.65 410.92 618.87 655.86 460.56 839.27 450.84 774.19 597.24 690.30 683.94 838.96 676.14
00003512 00000241 532.09 210.34 411.78 616.08 659.14 459.57 842.72 449.38 777.38 598.04 694.67 684.85 842.93 676.65
00003513 00000242 533.72 211.19 413.34 616.39 662.24 460.07 845.48 449.53 780.51 600.79 697.03 686.05 845.37 677.48
00003514 00000243 535.82 208.72 414.62 619.63 664.56 463.54 849.23 450.94 784.61 604.15 700.17 688.67 849.63 678.51
00003515 00000244 538.06 211.78 415.07 618.22 667.18 465.70 851.69 451.41 787.54 606.70 703.18 690.84 852.83 679.08
00003516 00000245 539.41 215.36 417.53 616.89 671.56 469.36 854.42 453.54 791.33 609.14 706.68 692.01 856.61 678.90
00003517 00000246 539.98 215.19 419.88 619.88 676.26 471.01 857.59 454.22 796.30 612.35 709.65 693.69 858.50 679.52
00003518 00000247 540.76 217.77 422.01 616.64 677.16 472.49 860.06 455.41 796.50 613.01 711.48 693.77 860.53 679.33
00003519 00000248 542.15 219.40 422.85 616.82 678.78 472.62 862.32 455.75 798.37 613.22 710.98 693.13 862.62 678.93
00003520 00000249 543.17 217.58 423.64 619.29 681.07 473.93 863.45 456.48 799.93 613.83 712.68 693.05 863.91 678.34
00003521 00000250 543.79 216.65 424.37 618.71 681.58 474.11 865.24 456.21 801.25 614.21 713.12 692.18 866.04 677.17
00003522 00000251 544.63 215.68 424.41 619.75 682.91 473.94 866.49 456.37 802.37 614.33 712.89 690.99 866.85 676.32
00003523 00000252 545.39 213.55 423.67 620.42 683.98 473.08 867.49 456.19 803.33 613.94 713.36 690.48 866.71 676.30
00003524 00000253 545.52 212.39 424.18 620.69 683.55 472.44 867.61 455.46 803.36 612.98 712.46 689.24 867.66 675.04
00003525 00000254 545.37 210.59 424.34 622.79 683.42 471.26 867.56 454.96 803.11 611.87 712.35 688.83 867.51 675.02
00003526 00000255 544.85 209.90 424.44 625.99 684.58 470.67 866.58 454.87 803.78 610.93 711.83 688.71 866.18 675.27
00003527 00000256 545.10 207.57 424.28 629.26 685.85 469.13 866.10 453.77 803.83 609.19 714.46 689.53 865.42 676.21
00003528 00000257 544.74 204.71 423.77 632.77 686.16 466.56 865.52 452.31 804.76 606.98 714.66 689.80 862.17 677.24
00003529 00000258 544.93 204.78 422.64 633.58 686.01 463.71 865.90 449.92 806.19 603.57 714.33 688.64 862.52 676.38
00003530 00000259 544.04 202.35 423.46 636.72 685.69 461.42 866.14 447.92 807.10 599.92 712.14 685.37 864.34 673.31
00003531 00000260 544.16 203.76 422.24 631.51 685.41 458.43 866.66 446.21 807.39 595.06 711.88 681.83 864.67 670.84
00003532 00000261 544.79 203.79 421.70 627.56 686.67 456.69 867.99 444.04 808.22 592.68 714.46 679.13 866.04 667.74
00003533 00000262 544.81 198.52 422.24 632.31 690.24 454.04 868.18 442.55 809.57 590.34 716.87 676.38 863.87 665.60
00003534 00000263 546.10 197.20 421.18 631.19 692.26 450.29 869.51 438.36 811.49 587.36 721.52 675.62 865.32 664.16
00003535 00000264 548.60 191.91 419.40 636.64 698.95 447.46 873.45 433.06 819.54 580.32 729.93 677.00 867.01 663.42
00003536 DELETE   552.19 188.37 421.68 634.29 709.55 444.15 887.86 423.80 837.20 572.21 748.05 678.44 879.94 659.73
00003537 DELETE   557.47 180.75 425.46 640.10 720.27 432.92 906.68 410.03 858.10 561.94 759.80 671.34 902.69 649.75
00003538 00000267 568.93 177.75 422.97 627.33 735.14 420.44 922.65 398.95 877.96 549.76 772.00 659.91 917.39 640.41
00003539 00000268 574.07 166.27 424.31 646.64 750.99 412.66 926.81 397.23 889.33 551.00 790.44 658.36 929.50 646.26
00003540 00000269 579.36 162.21 423.28 644.81 758.34 408.63 933.33 391.65 897.65 546.95 797.22 655.51 936.48 641.58
00003541 00000270 582.72 160.29 424.47 643.01 763.83 410.56 938.31 391.42 904.72 547.85 796.48 652.47 939.52 636.82
00003542 00000271 585.09 162.49 423.12 638.98 765.99 411.01 941.40 391.79 906.64 547.73 798.02 652.28 940.38 636.70
00003543 00000272 585.70 161.51 420.90 639.79 767.47 409.66 940.43 391.10 906.34 546.49 800.74 652.37 939.31 637.17
00003544 00000273 584.31 161.35 421.55 641.36 766.68 408.43 938.95 389.76 906.24 545.49 801.92 653.13 939.66 637.73
00003545 00000274 583.59 159.51 420.35 644.57 766.17 407.81 936.73 388.86 906.38 544.39 803.15 653.59 939.70 637.69
00003546 00000275 583.60 158.96 419.99 644.21 765.62 407.13 936.93 388.24 906.37 543.20 803.43 652.71 939.48 636.80
00003547 00000276 582.94 157.46 419.22 641.30 765.96 404.37 936.59 387.13 904.09 541.77 803.15 648.88 937.96 634.13
00003548 00000277 583.06 154.48 417.83 640.90 766.28 401.51 935.82 385.96 902.86 539.74 802.81 646.04 936.27 632.50
00003549 00000278 581.93 153.58 418.28 641.09 766.69 398.82 935.08 386.82 900.97 538.11 799.20 643.20 931.29 632.69
00003550 00000279 579.32 151.48 420.03 639.27 765.62 395.26 934.18 385.48 899.90 535.70 798.30 639.68 930.26 630.64
00003551 00000280 578.12 151.35 420.58 638.77 763.75 392.73 932.87 383.89 898.46 533.54 796.64 637.70 929.49 629.29
00003552 00000281 577.98 147.37 420.59 640.08 762.16 391.35 931.99 383.62 896.12 532.03 794.86 636.50 927.11 629.03
00003553 00000282 576.01 143.80 420.76 640.58 760.54 392.30 926.97 384.01 892.89 530.00 792.97 634.50 923.84 626.65
00003554 00000283 574.05 143.27 421.24 638.58 756.65 393.31 923.68 385.60 887.78 528.86 787.40 632.16 919.94 624.90
00003555 00000284 572.03 140.98 420.23 640.87 753.12 392.49 920.54 385.98 881.98 526.76 780.87 628.96 915.18 622.81
00003556 00000285 571.00 141.19 420.14 639.06 742.61 397.50 921.31 381.39 882.65 520.09 777.89 635.82 916.06 620.84
00003557 00000286 570.80 138.58 418.71 638.73 738.14 398.02 918.48 382.12 877.32 520.89 774.37 635.37 914.24 620.50
00003558 00000287 569.77 140.50 419.31 640.99 733.79 398.27 916.06 380.71 873.46 525.16 769.04 638.30 911.39 622.07
00003559 00000288 565.59 138.70 421.67 649.33 732.55 396.51 911.20 382.66 866.91 524.92 765.33 639.06 904.44 625.22
00003560 00000289 564.81 137.91 422.20 654.86 731.89 395.91 908.61 385.24 863.68 522.54 760.10 637.04 900.34 625.85
00003561 00000290 564.36 135.16 422.02 658.13 731.01 395.30 907.42 386.06 860.45 522.94 757.72 636.40 898.63 626.21
00003562 00000291 562.16 134.16 423.97 657.69 729.38 399.14 906.25 389.20 858.70 525.43 757.15 637.02 898.12 626.26
00003563 00000292 562.59 134.78 424.13 658.49 727.89 400.81 905.92 390.00 855.94 529.46 755.95 639.18 898.18 627.61
00003564 00000293 562.96 134.19 422.42 662.64 727.71 402.40 902.61 392.84 852.20 533.53 753.48 641.76 893.05 631.22
00003565 00000294 562.53 136.05 422.05 666.94 725.51 403.89 901.43 393.02 851.48 536.53 746.89 646.54 889.77 635.48
00003566 00000295 562.44 139.00 423.74 669.03 722.99 407.95 902.01 396.16 850.17 539.71 744.10 650.82 890.31 639.31
00003567 00000296 561.70 143.25 424.44 666.85 720.58 412.61 901.04 398.86 847.86 544.50 746.62 657.03 891.00 643.80
00003568 00000297 561.73 148.46 424.01 657.08 719.14 417.07 900.74 402.84 844.95 549.42 749.48 659.03 891.65 645.32
00003569 00000298 566.50 152.49 426.96 651.80 718.68 416.77 906.12 413.11 844.28 548.76 743.01 646.21 898.88 644.44
00003570 00000299 566.08 157.58 427.97 650.21 719.07 419.80 905.27 416.37 842.41 552.65 742.61 648.10 897.14 646.76
00003571 00000300 564.45 160.13 429.53 652.31 719.32 422.47 905.19 420.47 842.06 555.72 741.54 651.09 893.91 651.16
00003572 00000301 564.85 158.82 429.78 654.22 718.81 424.32 905.54 422.26 841.66 558.64 739.76 651.95 893.24 652.10
00003573 00000302 565.35 157.74 430.32 655.27 718.39 425.88 906.54 423.22 841.38 559.39 739.66 652.77 894.59 652.44
00003574 00000303 565.70 159.65 431.03 652.62 715.88 428.22 907.91 424.21 840.80 561.61 738.45 653.70 896.75 652.31
00003575 00000304 565.50 158.73 431.45 655.89 715.39 429.68 908.87 425.70 841.30 563.47 737.03 653.60 898.62 652.14
00003576 00000305 565.91 158.71 430.40 652.51 713.71 431.07 908.80 426.22 840.93 564.70 737.15 653.73 900.60 651.41
00003577 00000306 566.16 161.39 429.69 650.69 713.65 433.24 909.04 427.98 840.77 565.91 736.42 654.37 900.28 651.79
00003578 00000307 566.49 162.97 430.28 652.53 713.81 437.92 911.16 430.25 840.73 568.52 735.85 657.94 899.89 653.53
00003579 00000308 566.23 164.17 430.19 651.74 715.76 436.53 911.59 429.26 841.83 568.79 737.69 658.48 897.67 654.62
00003580 00000309 565.72 168.23 429.93 646.95 717.29 432.39 911.05 426.74 842.45 570.16 739.36 658.88 895.60 656.50
00003581 00000310 565.51 173.10 431.09 643.05 716.18 429.49 911.20 423.51 842.47 570.19 741.22 659.22 897.50 656.44
00003582 00000311 565.65 176.45 431.33 638.91 716.14 428.51 911.39 422.38 842.70 570.26 742.53 659.02 897.75 656.17
00003583 00000312 567.07 178.47 429.69 639.37 717.55 425.90 911.87 421.49 843.21 570.30 742.76 659.49 896.48 658.01
00003584 00000313 568.84 177.78 428.07 641.14 717.68 425.89 912.59 422.11 844.10 569.76 743.75 661.12 897.59 660.09
00003585 00000314 569.95 177.13 427.94 640.58 715.87 426.94 914.50 420.46 845.21 569.30 743.87 661.41 904.14 657.92
00003586 00000315 570.37 173.77 427.63 641.10 716.78 427.21 915.72 419.58 847.09 567.76 745.74 660.34 907.43 655.71
00003587 00000316 571.11 175.64 426.82 639.91 719.07 425.33 915.10 416.98 850.33 566.87 749.17 658.68 910.27 653.55
00003588 00000317 574.71 177.44 425.90 632.95 726.31 422.36 916.10 412.71 856.28 562.51 757.23 653.48 914.98 647.39
00003589 00000318 575.63 172.53 429.06 633.29 743.09 415.72 926.60 404.39 874.58 556.47 775.17 651.91 925.00 644.04
00003590 00000319 584.91 169.63 425.74 635.62 755.01 411.56 936.05 396.07 890.00 554.56 790.37 653.73 934.84 641.70
00003591 00000320 594.26 167.51 420.30 633.73 766.62 410.54 943.83 392.56 903.35 550.79 799.51 652.79 941.93 638.24
00003592 00000321 600.38 172.95 418.40 629.51 774.40 407.72 953.70 394.96 910.71 538.83 809.23 650.95 942.32 638.17
00003593 00000322 602.93 170.37 416.61 629.72 781.15 409.85 957.33 396.29 918.01 539.36 814.16 649.30 945.22 636.21
00003594 00000323 606.51 170.88 416.15 625.16 786.41 411.57 960.83 397.61 923.01 539.91 816.32 646.34 948.34 633.50
00003595 00000324 609.57 168.09 414.11 627.55 788.61 411.07 962.12 397.47 925.05 539.09 817.63 645.76 949.10 633.42
00003596 00000325 610.80 169.65 414.86 634.62 789.38 409.22 961.83 396.97 925.18 536.07 820.96 647.97 950.56 636.04
00003597 00000326 611.46 167.51 415.85 637.87 790.06 408.35 963.58 397.17 925.32 535.71 822.06 647.71 951.78 636.46
00003598 00000327 611.60 169.22 418.30 635.62 792.79 408.12 966.08 396.15 929.84 535.45 820.33 646.01 953.27 634.55
00003599 00000328 613.85 165.27 417.80 637.65 795.25 407.62 968.85 395.01 934.62 533.64 819.26 642.94 956.08 631.35
00003600 00000329 616.78 161.88 416.46 640.19 796.69 406.46 970.23 394.01 936.04 532.43 820.57 640.87 957.86 629.32
00003601 00000330 617.59 161.38 416.79 638.59 798.85 405.79 972.00 389.85 940.95 531.57 821.99 639.82 961.17 625.81
00003602 00000331 620.43 157.21 415.13 640.23 802.53 403.69 975.39 386.06 946.06 530.08 824.60 639.09 963.14 624.01
00003603 00000332 624.11 153.95 414.34 641.89 806.19 402.80 979.02 383.31 951.00 529.05 827.14 638.58 965.44 622.36
00003604 00000333 624.62 156.05 415.02 637.44 806.69 402.65 981.09 381.86 954.42 528.28 827.96 638.02 968.65 620.97
00003605 00000334 623.88 157.13 417.03 637.52 806.95 403.53 982.49 380.90 956.60 529.72 829.92 640.17 970.96 621.55
00003606 00000335 625.14 159.38 415.54 632.21 807.18 404.91 984.48 382.72 957.24 532.13 829.08 641.19 971.20 623.21
00003607 00000336 626.92 159.49 413.99 628.76 805.80 405.26 985.44 384.16 956.07 533.89 828.57 641.91 971.50 624.83
00003608 00000337 626.26 158.15 415.26 628.90 806.62 403.83 985.78 382.85 956.77 532.29 830.18 641.30 971.90 624.27
00003609 00000338 625.49 155.66 416.15 627.92 807.47 403.35 985.78 382.87 957.06 530.69 831.17 638.95 971.72 622.38
00003610 00000339 624.67 145.60 411.79 638.47 812.91 414.04 983.66 386.14 961.50 534.17 836.67 645.50 972.33 622.06
00003611 00000340 626.12 147.88 412.74 634.89 813.18 420.17 989.21 395.13 959.66 534.14 835.68 644.85 975.26 623.71
00003612 00000341 626.27 147.77 412.20 635.04 811.76 419.42 988.03 393.55 958.28 533.68 835.81 644.55 976.17 622.57
00003613 00000342 626.13 150.97 413.93 630.13 811.67 411.58 985.22 389.14 960.69 531.77 835.91 639.71 973.92 621.39
00003614 00000343 626.78 154.24 414.75 628.40 810.07 407.62 985.54 384.69 959.25 530.57 833.70 638.91 973.93 620.37
00003615 00000344 627.59 156.99 414.09 627.72 808.69 406.60 984.61 384.08 957.54 530.66 834.03 639.97 973.92 621.54
00003616 00000345 627.92 157.84 415.40 630.37 807.72 406.72 985.66 383.93 956.82 532.13 833.78 641.31 975.54 622.37
00003617 00000346 629.09 159.11 414.12 630.52 808.42 407.57 985.73 386.02 957.49 533.46 835.87 644.13 975.89 626.16
00003618 00000347 630.87 162.11 415.18 630.67 807.64 408.88 986.74 387.79 957.44 535.04 836.59 647.17 977.74 629.51
00003619 00000348 630.68 167.48 417.21 629.85 809.41 408.03 988.93 388.45 960.93 536.62 838.18 650.26 978.65 633.78
00003620 00000349 631.11 170.73 418.41 630.02 812.66 409.51 990.52 390.05 964.01 538.29 842.52 652.46 982.05 635.78
00003621 00000350 634.43 164.27 418.70 636.79 822.60 418.22 994.26 402.36 967.81 544.28 846.83 652.92 982.00 639.15
00003622 00000351 636.67 163.15 417.68 636.19 825.61 424.40 995.59 406.55 971.42 546.35 849.29 654.43 984.45 639.11
00003623 00000352 635.29 165.75 420.48 634.55 823.69 416.12 998.44 400.26 971.71 546.18 848.75 654.65 986.25 641.26
00003624 00000353 634.77 170.43 422.90 632.92 823.34 413.06 999.26 397.99 972.75 545.41 849.08 655.21 986.72 642.44
00003625 00000354 636.99 173.77 422.24 629.80 823.02 411.97 999.96 397.78 973.03 545.80 848.83 655.20 987.57 643.34
00003626 00000355 637.96 178.61 420.97 624.54 822.57 413.42 999.37 399.09 972.68 546.76 848.37 655.67 986.93 643.87
00003627 00000356 637.65 180.41 421.65 623.47 822.22 414.10 999.74 399.80 972.26 547.99 847.72 656.38 986.65 644.62
00003628 00000357 638.09 181.03 420.31 623.43 821.30 415.36 998.92 401.36 970.89 548.63 847.10 657.08 986.35 645.46
00003629 00000358 637.48 184.97 419.79 618.35 818.85 414.70 998.17 401.55 967.69 549.59 844.75 656.91 984.44 645.88
00003630 00000359 638.30 184.08 419.27 618.53 818.11 415.62 998.24 402.76 966.62 550.85 842.07 655.97 984.04 645.25
00003631 00000360 638.52 184.13 417.76 620.18 818.86 416.13 997.05 402.86 965.98 550.76 841.94 656.06 982.31 644.95
00003632 00000361 637.49 184.81 417.19 618.17 818.03 416.01 996.21 401.89 965.34 551.09 841.01 655.94 980.08 644.22
00003633 00000362 636.80 178.04 415.92 623.24 821.81 424.31 994.49 410.34 964.88 553.18 842.45 656.67 976.55 645.01
00003634 00000363 636.53 176.76 413.05 620.40 818.54 427.92 994.42 412.25 963.01 553.56 841.26 656.93 976.59 643.99
00003635 00000364 633.23 182.49 415.54 616.47 813.84 422.16 991.04 407.00 958.44 552.04 838.26 656.15 974.55 643.27
00003636 00000365 634.51 183.10 414.29 615.94 811.69 419.64 989.23 403.55 956.70 551.79 835.96 655.72 973.09 642.30
00003637 00000366 634.18 187.21 413.87 613.02 809.52 418.23 988.25 401.72 955.16 551.79 832.72 655.62 971.86 642.12
00003638 00000367 632.76 188.75 414.59 614.38 809.01 418.10 987.67 402.41 954.20 551.79 831.21 656.01 970.80 643.04
00003639 00000368 632.20 188.97 415.07 614.36 808.10 418.10 987.95 402.33 953.41 553.12 829.69 656.66 969.80 643.75
00003640 00000369 631.63 188.47 414.78 614.17 808.58 418.38 987.72 402.58 953.80 552.84 830.60 656.68 969.82 643.74
00003641 00000370 630.44 188.69 415.39 613.42 808.72 417.97 987.28 402.29 954.01 552.06 830.11 655.77 969.11 642.98
00003642 00000371 630.62 190.16 415.71 612.21 808.73 417.69 987.83 401.46 954.49 551.95 830.54 655.51 970.35 642.17
00003643 00000372 631.47 190.86 413.39 610.38 808.35 418.54 987.31 401.70 954.35 551.98 830.56 656.18 969.72 642.44
00003644 00000373 630.92 191.47 413.05 609.96 807.58 418.33 986.50 401.97 953.53 551.53 829.80 655.33 969.15 641.99
00003645 00000374 629.81 193.22 413.74 609.90 807.55 418.41 985.65 402.15 952.56 551.01 829.74 655.80 968.32 642.38
00003646 00000375 629.53 192.91 414.00 610.79 807.40 418.75 985.30 402.34 952.54 550.51 829.69 656.22 968.03 642.64
00003647 00000376 629.66 191.88 413.53 611.61 807.16 418.64 985.19 402.29 952.72 550.12 830.10 656.49 968.05 642.85
00003648 00000377 628.84 192.20 414.03 611.83 806.79 418.76 985.21 402.03 952.87 549.81 829.24 656.64 967.89 642.80
00003649 00000378 628.22 189.95 414.06 613.67 806.73 418.54 983.90 401.80 952.03 549.10 830.22 656.35 967.06 642.37
00003650 00000379 627.65 186.51 413.71 615.25 807.31 421.06 980.91 404.05 950.29 549.33 830.34 655.26 965.36 641.07
00003651 00000380 626.76 178.74 414.25 619.41 807.37 427.31 982.08 408.87 950.17 549.75 829.32 654.33 965.18 638.73
00003652 00000381 627.50 178.59 412.87 617.89 806.55 426.46 981.56 407.32 949.55 548.44 829.31 652.69 966.88 636.37
00003653 00000382 626.02 181.34 412.03 615.28 806.43 423.37 980.15 404.45 949.76 547.45 829.36 650.95 967.35 635.02
00003654 00000383 625.96 182.42 412.12 614.51 806.49 418.66 980.69 398.53 951.67 544.64 829.98 648.75 969.30 631.92
00003655 00000384 625.49 182.66 413.09 613.76 805.17 417.04 980.38 396.45 950.19 543.99 830.83 648.41 970.06 631.01
00003656 00000385 623.80 182.67 414.75 614.88 803.87 416.37 979.59 394.58 950.10 543.21 830.73 649.21 969.75 630.82
00003657 00000386 623.79 182.43 414.63 613.97 803.62 417.72 979.32 394.83 949.71 544.15 831.43 650.58 969.57 631.29
00003658 00000387 622.70 183.43 415.02 613.23 803.35 417.27 978.94 394.96 948.47 544.73 831.72 650.89 969.01 632.04
00003659 00000388 620.68 184.90 416.90 613.85 802.69 418.39 977.81 395.26 948.36 546.16 830.23 651.95 967.55 632.52
00003660 00000389 619.12 184.62 417.67 613.27 801.73 418.81 977.46 395.65 947.29 546.90 829.26 652.16 966.54 632.71
00003661 00000390 618.87 184.64 417.85 613.43 801.70 419.07 977.44 395.97 947.55 546.70 829.40 652.48 966.61 633.11
00003662 00000391 619.74 183.76 417.17 614.77 802.05 419.51 977.74 396.13 948.08 546.85 829.90 653.19 966.75 633.51
00003663 00000392 619.56 184.63 417.45 615.04 802.53 419.65 977.57 395.64 948.90 546.99 829.48 652.95 966.73 632.82
00003664 00000393 619.77 184.66 417.18 614.52 802.68 418.87 977.80 394.83 949.06 546.66 830.35 652.65 967.52 632.46
00003665 00000394 620.85 177.30 414.96 623.35 805.86 425.99 976.39 402.40 949.90 547.17 830.19 652.96 965.57 632.80
00003666 00000395 621.77 176.52 414.43 619.46 805.05 429.36 978.18 406.45 949.94 546.61 830.63 652.42 967.82 632.80
00003667 00000396 619.63 178.53 416.32 619.80 805.31 427.18 977.33 404.86 949.77 546.28 831.73 652.25 968.08 632.86
00003668 00000397 621.01 181.67 415.05 618.00 805.57 420.91 978.58 399.65 951.27 545.35 831.72 651.09 969.80 632.82
00003669 00000398 622.69 183.00 414.22 616.77 805.92 419.22 979.17 396.03 952.63 544.41 832.20 651.04 970.65 631.41
00003670 00000399 623.10 184.01 415.76 617.20 805.99 418.42 980.39 394.69 954.24 544.03 832.23 651.60 972.59 631.57
00003671 00000400 624.53 183.92 414.49 616.15 806.80 419.10 981.31 395.17 954.74 544.30 833.19 652.57 972.07 632.49
00003672 00000401 625.31 185.68 415.77 615.74 806.71 419.39 982.95 395.03 955.75 545.62 833.51 654.57 973.27 634.14
00003673 00000402 626.19 187.11 415.99 614.85 807.50 420.27 983.47 395.07 956.85 546.09 834.04 655.77 973.56 634.66
00003674 00000403 627.14 185.24 415.77 616.40 807.58 420.48 984.21 395.71 956.37 546.84 834.95 656.72 973.66 635.85
00003675 00000404 627.42 184.76 416.17 617.01 808.16 420.39 984.98 395.83 957.31 547.09 835.80 656.73 974.10 636.05
00003676 00000405 626.96 186.65 417.01 614.31 808.22 419.73 985.63 395.32 957.73 547.16 836.24 656.57 974.19 636.02
00003677 00000406 627.37 186.42 416.70 614.50 808.82 420.33 985.85 394.70 959.15 546.69 836.22 656.06 975.35 634.67
00003678 00000407 627.78 187.41 416.91 615.35 809.18 420.02 986.43 394.44 959.60 546.96 835.71 655.99 976.15 634.69
00003679 00000408 628.26 187.44 417.99 614.82 809.51 420.03 987.36 394.23 960.44 546.92 836.57 656.06 977.61 634.51
00003680 00000409 628.66 186.20 418.77 615.80 810.03 419.84 989.10 393.66 961.64 546.77 837.39 656.69 979.68 634.74
00003681 00000410 630.43 187.78 418.05 614.32 811.44 420.19 989.66 393.23 963.10 546.64 839.45 656.72 981.93 634.11
00003682 00000411 631.27 189.69 418.80 612.20 812.03 419.07 990.94 393.35 963.95 546.66 840.24 655.97 983.14 634.25
00003683 00000412 631.84 188.38 419.04 612.43 813.43 419.52 991.32 392.93 965.50 545.82 842.59 656.42 984.63 633.92
00003684 00000413 631.57 188.44 420.20 613.65 814.89 419.32 991.79 392.99 966.97 546.16 843.05 655.97 985.39 633.70
00003685 00000414 631.94 187.62 420.63 614.49 816.45 418.94 992.48 392.60 968.60 546.53 844.19 655.87 985.93 633.65
00003686 00000415 632.29 187.80 420.36 615.52 817.40 419.36 993.79 393.75 970.17 547.56 844.29 656.41 986.26 634.83
00003687 00000416 633.10 188.24 420.35 615.12 818.11 420.04 994.68 395.04 971.11 548.55 844.19 656.71 986.94 635.77
00003688 00000417 633.36 189.14 419.96 613.81 818.04 420.76 995.01 395.28 971.33 548.78 844.59 657.04 988.00 635.67
00003689 00000418 633.06 188.08 420.74 614.34 818.00 420.89 995.24 395.67 971.14 549.50 844.55 656.90 987.87 635.73
00003690 00000419 633.02 187.99 420.67 614.77 818.21 420.50 995.05 395.12 971.37 549.24 844.19 656.47 987.68 635.23
00003691 00000420 632.90 187.51 420.94 614.49 817.97 420.21 994.92 394.15 971.09 548.66 844.77 656.66 987.43 634.78
00003692 00000421 632.78 186.59 420.91 614.33 818.07 419.82 994.50 393.09 971.50 547.84 845.04 655.77 987.79 633.35
00003693 00000422 632.77 185.12 421.05 615.87 817.76 419.52 994.29 392.52 971.72 547.11 844.39 655.01 988.16 632.44
00003694 00000423 632.75 184.20 420.76 615.34 818.22 419.39 993.31 392.88 971.64 546.32 845.31 654.33 987.77 632.22
00003695 00000424 632.58 184.62 420.52 614.27 817.96 419.08 992.70 392.40 970.98 545.52 845.86 654.43 987.56 632.10
00003696 00000425 633.26 184.07 420.01 614.58 817.71 418.97 993.05 392.17 970.70 545.66 845.81 654.32 988.26 631.87
00003697 00000426 632.37 183.80 420.65 615.05 817.38 418.74 993.17 392.44 970.33 544.88 845.64 654.40 988.14 632.30
00003698 00000427 632.39 182.93 421.50 616.91 817.24 419.02 993.64 392.37 970.56 545.61 845.38 654.54 988.51 632.14
00003699 00000428 633.22 182.94 420.97 617.45 817.99 419.39 995.10 393.30 971.07 547.14 844.55 654.32 989.25 632.44
00003700 00000429 634.77 176.60 419.25 622.88 825.47 430.44 996.25 404.56 974.28 550.50 846.44 655.24 986.42 633.77
00003701 00000430 634.30 177.74 419.82 621.86 825.24 429.83 996.43 404.07 974.70 550.99 847.12 655.76 986.68 634.38
00003702 00000431 633.65 181.37 421.40 620.05 822.07 422.28 997.97 399.42 973.66 550.57 846.69 655.52 989.34 636.24
00003703 00000432 634.43 184.58 420.41 616.66 820.43 420.92 997.94 396.58 973.54 550.73 845.75 655.57 989.71 635.23
00003704 00000433 635.00 185.15 420.24 616.86 821.30 421.59 997.85 396.51 974.62 550.78 847.66 657.02 990.35 636.09
00003705 00000434 634.24 186.88 421.27 615.51 821.06 421.31 998.24 395.86 974.45 551.15 848.00 657.75 990.33 636.43
00003706 00000435 634.77 187.37 420.95 614.70 821.45 421.20 998.40 396.10 974.45 551.03 848.71 657.60 990.97 636.54
00003707 00000436 634.62 185.79 421.57 615.92 822.30 422.03 998.80 397.59 974.50 551.78 848.49 657.37 990.64 636.89
00003708 00000437 637.63 179.63 419.85 619.34 829.47 433.34 1000.45 404.66 978.78 554.53 850.15 658.78 989.19 635.35
00003709 00000438 637.77 177.82 415.93 619.73 830.39 438.63 999.65 412.10 978.45 554.93 851.19 659.63 988.87 637.70
00003710 00000439 636.18 178.57 418.17 619.46 827.35 437.72 997.82 410.54 976.55 553.98 849.60 659.77 987.64 637.34
00003711 00000440 635.13 180.26 419.28 619.14 826.17 435.71 996.56 409.23 975.73 554.27 848.66 659.24 987.01 637.52
00003712 00000441 634.06 182.18 420.50 620.10 825.48 432.23 996.51 407.79 974.75 554.76 847.33 658.94 987.05 638.86
00003713 00000442 634.80 182.54 419.70 620.11 824.28 430.90 996.65 407.64 972.82 554.63 846.35 658.38 987.16 639.09
00003714 00000443 634.53 185.29 419.47 617.77 823.26 431.19 996.80 407.22 972.57 555.99 845.33 659.16 987.21 639.32
00003715 00000444 633.43 187.72 419.89 616.17 821.79 431.21 995.91 406.78 971.00 555.91 845.07 659.49 987.42 639.12
00003716 00000445 632.74 189.30 420.38 613.84 820.40 430.36 995.54 406.12 969.58 555.86 843.61 659.06 986.04 638.89
00003717 00000446 633.14 189.68 419.34 613.69 818.15 430.82 994.18 406.13 967.12 556.26 842.71 659.86 985.00 639.29
00003718 00000447 633.64 190.49 417.46 612.38 815.83 432.25 991.76 405.50 964.73 556.37 841.82 661.62 982.50 639.41
00003719 00000448 631.54 189.77 418.04 614.23 813.36 431.63 990.45 405.24 962.05 556.17 839.00 661.62 980.64 639.62
00003720 00000449 629.72 189.85 418.53 615.26 811.36 430.49 988.65 405.53 959.89 555.40 836.55 660.75 978.24 639.98
00003721 00000450 628.52 190.44 418.99 616.65 809.33 427.67 988.30 401.61 958.62 554.83 834.56 661.15 977.29 639.44
00003722 00000451 625.89 188.69 419.54 618.92 807.51 424.97 986.50 399.41 957.01 553.70 834.27 660.77 975.27 639.26
00003723 00000452 624.80 185.61 419.06 617.27 807.22 424.97 985.56 400.62 955.61 553.34 834.89 658.83 973.82 638.29
00003724 00000453 623.34 187.46 419.67 616.74 806.85 423.88 984.57 399.28 955.29 552.86 834.12 658.96 972.49 638.23
00003725 00000454 622.64 186.92 419.59 616.93 805.58 423.94 983.15 399.83 952.78 553.29 833.02 658.54 971.17 638.19
00003726 00000455 622.88 187.66 418.43 615.51 806.03 424.26 982.46 399.86 952.67 553.55 832.82 658.08 970.39 637.60
00003727 00000456 622.26 187.19 418.90 616.09 805.63 423.84 982.16 400.17 951.53 553.42 832.46 658.24 969.57 638.30
00003728 00000457 621.28 186.12 418.96 618.01 804.46 423.51 981.18 401.09 949.88 553.39 831.52 657.53 969.19 638.48
00003729 00000458 620.71 185.19 418.24 617.27 803.57 424.10 980.20 401.71 948.59 553.95 831.14 657.84 968.09 638.80
00003730 00000459 618.64 182.82 417.48 621.39 803.00 427.46 977.05 406.98 945.82 553.90 829.82 657.42 964.56 639.71
00003731 00000460 617.61 182.09 416.65 622.94 801.67 429.41 974.70 408.90 943.25 553.99 829.06 657.46 962.67 639.61
00003732 00000461 616.12 184.83 418.12 619.61 799.87 429.62 974.08 408.43 941.38 555.01 829.11 658.90 961.76 640.29
00003733 00000462 615.63 185.25 417.24 618.10 798.87 430.16 972.11 409.39 938.92 555.66 827.18 658.41 959.11 640.35
00003734 00000463 614.09 186.99 417.96 618.60 797.05 431.54 971.12 410.36 937.72 556.50 824.48 660.20 957.28 641.95
00003735 00000464 613.52 188.57 417.46 616.12 795.31 431.75 970.16 411.79 935.77 557.37 823.55 660.20 956.52 642.97
00003736 00000465 612.92 190.21 417.22 616.30 793.75 432.39 968.11 413.54 932.68 558.42 822.18 660.97 954.35 644.59
00003737 00000466 612.39 188.82 415.44 616.33 791.68 436.85 964.67 417.30 929.22 561.04 820.59 661.58 951.48 645.26
00003738 00000467 609.11 194.06 414.51 618.55 784.92 441.44 957.00 420.62 921.30 564.30 816.07 666.55 948.00 649.01
00003739 00000468 607.24 197.17 411.31 621.65 775.54 444.33 944.31 424.52 906.46 569.95 810.43 673.63 937.77 655.96
00003740 00000469 596.97 201.59 416.29 620.73 765.47 448.64 934.61 432.84 894.08 576.37 797.71 676.51 929.39 662.10
00003741 00000470 590.16 206.59 417.30 618.84 756.21 451.55 924.34 436.78 883.91 581.71 785.46 677.46 922.85 663.81
00003742 00000471 589.26 207.19 415.07 618.07 746.07 456.09 915.88 441.95 870.87 587.13 777.39 680.21 914.59 667.54
00003743 00000472 583.03 202.36 417.00 626.55 736.69 463.15 909.43 450.41 856.64 593.17 765.20 682.26 905.45 671.84
00003744 00000473 575.00 210.94 414.63 624.72 726.63 480.28 901.14 460.78 848.06 605.57 754.62 695.66 897.66 679.03
00003745 00000474 567.50 217.72 414.57 621.96 721.39 479.39 892.02 457.04 840.96 610.26 753.04 700.08 889.91 680.14
00003746 00000475 560.87 219.64 417.54 621.39 709.54 481.14 883.09 455.53 829.68 612.57 749.25 704.93 884.25 682.21
00003747 00000476 555.22 224.28 417.81 615.62 700.76 477.45 872.95 453.83 815.55 613.31 742.42 702.23 875.83 680.47
00003748 00000477 552.02 223.64 418.75 616.90 692.06 476.16 867.77 454.52 806.22 614.94 733.28 700.93 871.16 681.13
00003749 00000478 547.83 224.83 421.32 614.14 685.68 475.31 863.36 454.40 800.62 615.54 725.90 699.67 865.37 681.22
00003750 00000479 546.55 226.61 419.07 610.72 680.31 474.01 857.79 454.62 794.05 613.66 721.30 697.93 860.39 680.87
00003751 00000480 545.09 227.16 419.38 609.11 675.81 473.15 853.64 454.32 789.33 612.99 715.90 695.23 856.78 679.09
00003752 00000481 544.08 225.58 417.35 610.56 670.89 470.50 848.50 452.30 783.54 611.50 711.66 693.25 853.01 677.79
00003753 00000482 540.24 223.39 417.55 609.67 665.45 468.33 844.02 449.55 780.06 608.03 709.71 691.47 850.57 675.55
00003754 00000483 537.05 222.88 416.34 607.73 662.72 468.00 839.45 449.99 776.70 606.32 706.77 688.28 847.50 673.03
00003755 00000484 534.18 222.13 416.11 607.35 658.77 467.59 836.94 450.94 773.25 605.57 702.31 687.30 843.98 673.38
00003756 00000485 531.87 221.13 413.55 606.60 655.86 466.79 834.46 452.06 770.58 604.66 697.91 684.93 839.92 672.73
00003757 00000486 528.49 215.64 413.04 611.56 652.54 464.38 830.19 451.03 767.40 601.05 693.40 681.44 836.42 670.32
00003758 00000487 524.16 213.81 413.86 610.83 649.08 463.52 825.78 449.71 763.56 598.27 688.80 678.29 833.58 666.85
00003759 00000488 520.94 211.77 414.05 611.90 646.77 462.45 822.73 448.96 761.68 595.71 683.43 674.55 831.42 663.44
00003760 00000489 519.83 209.72 414.98 613.95 646.52 459.80 823.03 447.29 761.69 592.96 681.14 671.74 831.07 661.29
00003761 00000490 523.85 207.12 412.60 614.92 649.01 455.89 827.18 446.86 762.80 591.32 678.85 669.05 829.20 661.43
00003762 00000491 528.88 204.51 411.10 616.41 653.96 452.26 833.51 445.35 766.03 588.16 681.16 667.43 829.80 661.28
00003763 00000492 535.74 198.98 409.11 621.59 659.53 444.29 840.03 442.35 769.74 581.21 684.94 665.49 830.80 662.88
00003764 00000493 540.27 199.70 409.83 621.96 668.30 441.25 846.15 441.91 776.95 576.38 690.72 664.89 832.90 664.20
00003765 00000494 546.29 197.99 411.03 625.55 685.63 435.41 860.58 441.89 793.59 575.31 698.60 663.68 834.90 667.87
00003766 00000495 550.91 199.03 421.23 625.65 703.76 436.62 874.09 445.13 809.61 579.25 708.45 663.64 842.82 669.33
00003767 00000496 558.15 207.69 424.60 615.42 720.70 436.49 891.05 449.56 828.41 581.91 719.41 663.15 853.73 672.66
CROP_BBOX: 287 0 1336 1022
