Video ID: 	usBo8-jWj5M
H: 	1080
W: 	1920
FPS: 	23.976023976023978

FRAME INDEX X0 Y0 W H [Landmarks (5 Points)]

00002845 00000000 714.28 238.54 461.16 592.07 849.28 432.76 1059.85 451.41 952.09 585.09 853.59 658.28 1018.28 672.89
00002846 DELETE   719.27 240.12 458.37 589.80 853.67 429.46 1063.24 450.91 954.77 583.73 854.31 655.51 1018.48 672.63
00002847 DELETE   722.71 245.44 460.21 584.76 856.71 425.75 1066.21 449.35 956.21 581.47 855.54 653.10 1017.66 671.97
00002848 00000003 725.83 246.74 460.65 581.74 858.92 425.20 1068.38 449.53 957.43 581.11 855.49 651.54 1020.48 671.25
00002849 00000004 727.88 247.07 459.43 581.57 861.98 425.66 1069.79 449.97 959.51 580.76 857.99 650.67 1021.99 670.39
00002850 00000005 732.21 246.60 455.94 579.94 864.41 425.58 1072.51 450.67 962.77 581.79 860.60 650.47 1024.45 670.93
00002851 00000006 733.21 242.49 454.00 578.32 867.05 427.65 1075.24 454.00 962.79 573.93 858.80 652.15 1024.45 673.95
00002852 00000007 734.99 244.51 455.13 575.53 868.48 427.35 1077.14 453.54 963.73 573.81 859.47 650.89 1027.44 672.63
00002853 00000008 737.05 244.69 454.87 574.73 869.52 426.84 1078.12 452.77 964.21 572.14 860.83 650.53 1028.85 672.12
00002854 00000009 737.64 244.33 451.12 574.57 869.35 426.36 1078.00 452.37 964.69 572.00 861.57 650.20 1028.98 671.79
00002855 00000010 737.24 243.95 451.87 573.37 869.52 426.40 1078.30 452.11 964.79 571.70 861.67 649.60 1029.54 670.89
00002856 00000011 737.64 243.12 451.50 573.73 869.79 425.55 1079.26 451.03 965.37 571.18 862.31 650.46 1028.68 671.55
00002857 00000012 738.55 242.14 449.89 575.90 870.19 425.64 1078.44 452.07 964.77 571.40 860.70 649.84 1027.79 671.88
00002858 00000013 738.68 243.81 449.93 572.29 870.03 425.41 1078.70 451.85 964.26 571.21 860.34 648.79 1027.97 670.82
00002859 00000014 739.43 243.98 450.46 574.10 869.96 425.14 1079.26 452.98 963.61 571.75 859.41 649.97 1026.59 673.14
00002860 00000015 739.41 245.69 451.79 573.40 870.00 425.55 1079.09 454.22 962.21 572.12 857.76 648.71 1028.00 672.74
00002861 00000016 739.02 246.62 452.24 570.57 869.87 426.53 1078.75 454.70 962.34 572.71 857.37 648.34 1027.41 671.94
00002862 00000017 738.61 248.28 453.49 568.24 869.48 426.64 1079.21 455.00 961.76 572.62 857.02 648.50 1027.65 672.19
00002863 00000018 737.85 246.59 451.72 569.90 869.11 426.32 1078.12 455.62 961.02 571.96 855.91 647.45 1026.29 671.82
00002864 00000019 738.03 245.75 450.35 569.94 868.51 425.54 1077.56 454.93 959.70 570.70 854.96 647.60 1024.86 671.96
00002865 00000020 736.45 246.49 453.71 569.72 867.43 425.82 1077.52 455.33 959.07 571.21 854.98 646.78 1025.97 671.18
00002866 00000021 736.44 244.15 453.29 570.25 867.23 425.73 1077.37 455.74 958.69 570.68 854.42 645.35 1025.16 670.16
00002867 00000022 736.57 247.35 451.35 562.11 866.67 426.66 1076.24 455.36 957.89 571.46 855.70 644.60 1023.66 668.01
00002868 00000023 735.36 245.17 454.43 564.59 865.70 426.03 1075.77 454.89 956.93 571.48 855.12 645.08 1022.16 668.57
00002869 00000024 733.26 242.96 454.39 567.47 862.67 424.84 1070.58 453.30 957.31 579.59 857.62 644.06 1018.91 667.49
00002870 00000025 733.03 244.74 456.41 566.73 861.99 425.84 1070.17 454.38 956.54 580.34 856.67 645.51 1017.59 668.95
00002871 00000026 732.72 243.46 456.64 567.82 862.00 425.72 1070.49 454.61 956.94 579.60 856.60 645.46 1017.52 669.15
00002872 00000027 732.73 246.61 457.09 565.13 861.38 425.82 1068.95 453.70 955.77 579.54 857.07 646.68 1017.74 669.49
00002873 00000028 732.18 244.50 456.22 569.01 860.54 426.31 1068.41 453.82 955.56 580.87 856.81 646.25 1016.86 668.78
00002874 00000029 730.08 245.24 458.04 569.48 860.05 427.18 1068.20 454.54 955.78 581.73 855.83 646.29 1017.71 668.70
00002875 00000030 730.68 244.09 455.67 568.72 859.00 427.41 1066.32 454.50 954.10 582.55 855.69 645.44 1017.12 667.61
00002876 00000031 730.37 246.87 455.82 566.73 859.07 428.25 1065.83 454.69 954.50 581.87 856.27 645.83 1016.64 667.45
00002877 00000032 730.23 245.91 455.09 565.76 859.07 428.51 1065.63 455.12 954.77 581.92 855.59 645.10 1015.68 666.84
00002878 00000033 731.16 246.56 453.58 565.77 858.85 429.04 1064.92 453.59 954.60 582.63 857.77 647.04 1016.18 666.89
00002879 00000034 731.75 250.34 454.69 564.42 859.96 430.06 1064.81 453.51 955.24 583.19 861.64 650.10 1014.99 668.84
00002880 00000035 732.79 251.20 448.33 563.21 861.68 429.25 1066.38 451.69 958.75 583.69 866.48 652.09 1017.12 669.83
00002881 00000036 733.57 253.19 448.47 562.74 863.05 430.71 1067.08 452.99 959.91 584.26 867.27 652.91 1018.30 670.57
00002882 00000037 734.24 262.40 444.18 551.00 862.96 439.37 1063.62 457.07 959.27 586.20 869.01 655.81 1019.37 669.31
00002883 00000038 736.01 260.99 448.09 551.52 864.10 439.19 1066.87 458.39 960.45 586.86 867.49 655.41 1019.58 670.41
00002884 00000039 736.74 261.31 448.68 549.64 868.60 440.48 1071.69 459.93 959.30 578.58 864.99 654.41 1018.45 670.60
00002885 DELETE   737.75 257.09 447.08 553.25 871.32 439.77 1072.63 458.68 962.68 576.92 869.19 654.68 1018.92 670.58
00002886 00000041 738.92 253.84 448.82 557.63 871.18 435.18 1077.08 455.92 964.78 575.01 867.25 653.52 1021.73 670.73
00002887 00000042 739.12 249.95 446.34 558.55 870.54 431.79 1078.89 452.52 966.51 570.40 869.60 652.00 1024.16 668.73
00002888 00000043 739.65 249.56 448.36 560.08 871.79 430.85 1080.66 452.56 967.42 570.80 868.86 651.53 1024.86 669.20
00002889 00000044 740.56 249.96 449.73 558.39 873.01 429.54 1083.65 451.92 968.48 570.90 868.93 650.59 1027.14 668.79
00002890 00000045 741.29 247.62 449.91 560.08 873.96 427.49 1083.87 449.76 970.04 570.11 870.20 649.58 1028.69 667.79
00002891 00000046 742.59 244.02 450.89 564.59 875.45 421.61 1086.44 444.80 974.23 566.49 873.26 649.82 1028.81 668.62
00002892 00000047 744.03 241.65 449.70 568.80 877.64 418.37 1089.12 443.01 977.61 565.85 874.71 649.92 1030.72 669.87
00002893 00000048 745.35 236.78 447.98 576.42 880.83 416.22 1090.07 442.71 980.96 562.72 877.81 649.96 1032.57 671.35
00002894 00000049 747.63 235.30 444.22 578.36 883.80 413.85 1089.98 440.17 981.86 562.04 880.21 651.76 1031.81 672.89
00002895 00000050 749.67 237.06 442.50 578.78 886.66 413.30 1091.43 440.33 983.47 561.99 880.75 653.65 1031.98 675.33
00002896 00000051 750.05 238.36 444.65 581.27 890.13 414.37 1091.93 441.51 984.36 563.16 882.71 656.07 1029.29 677.85
00002897 00000052 750.22 238.06 443.02 579.78 890.88 418.23 1090.73 444.47 985.51 562.27 884.51 655.64 1030.17 676.76
00002898 DELETE   750.00 244.02 441.51 573.91 890.37 419.69 1089.25 444.45 984.40 562.28 884.73 655.47 1031.01 675.46
00002899 00000054 750.73 241.89 443.37 579.46 890.96 419.55 1089.93 443.45 985.12 562.19 884.58 656.50 1032.35 675.74
00002900 00000055 750.79 245.45 442.96 576.50 890.99 417.29 1089.74 441.91 984.50 561.98 884.01 656.98 1030.33 676.78
00002901 00000056 750.77 238.09 444.34 583.72 891.57 414.41 1091.13 442.08 984.70 559.92 882.07 654.47 1030.24 676.84
00002902 00000057 749.98 237.53 443.18 585.83 888.63 411.53 1090.32 437.98 984.16 558.70 879.96 655.00 1030.22 676.32
00002903 00000058 750.47 240.28 444.39 579.33 884.84 407.81 1090.92 433.83 982.56 554.36 878.82 652.07 1032.65 672.99
00002904 00000059 749.17 237.35 444.61 581.94 883.34 406.09 1088.70 432.13 981.25 552.81 877.23 647.74 1033.20 668.70
00002905 00000060 748.65 236.09 445.63 584.23 882.54 404.52 1088.38 430.03 981.24 551.10 879.35 648.36 1032.29 668.55
00002906 00000061 748.38 237.17 443.79 581.60 881.45 402.26 1087.28 427.51 979.82 548.58 879.20 646.67 1032.21 666.55
00002907 00000062 747.30 234.35 443.93 582.98 881.53 402.24 1085.73 428.00 980.24 545.96 878.05 643.18 1032.33 663.48
00002908 00000063 746.83 234.45 444.56 581.19 881.27 401.20 1085.59 427.33 979.75 545.02 876.68 640.69 1032.03 661.33
00002909 00000064 747.41 235.05 443.77 577.92 880.62 399.61 1084.77 426.23 978.38 543.87 875.55 636.70 1032.26 657.59
00002910 00000065 746.22 235.36 442.21 571.12 878.40 399.31 1084.16 425.15 978.05 542.32 876.06 633.68 1034.10 653.88
00002911 00000066 745.70 236.52 444.03 563.27 876.85 400.08 1084.90 424.96 976.43 540.48 874.82 629.87 1037.21 649.22
00002912 00000067 745.29 235.05 441.25 559.88 877.77 399.58 1085.92 425.52 977.29 541.43 873.32 628.90 1035.67 649.18
00002913 00000068 744.17 237.38 445.26 555.76 877.01 399.66 1086.64 426.82 976.21 542.56 871.66 626.20 1036.45 647.40
00002914 00000069 744.27 237.39 444.12 553.88 876.72 399.01 1084.90 425.92 975.50 542.47 872.84 625.34 1034.39 646.18
00002915 00000070 745.78 237.27 441.59 553.89 876.56 397.88 1084.37 424.31 974.63 543.00 873.81 626.20 1033.87 646.74
00002916 00000071 746.01 237.13 441.23 551.96 876.95 397.91 1085.08 424.81 975.00 543.02 873.43 625.46 1033.87 646.41
00002917 00000072 746.33 236.17 439.49 551.52 877.51 398.02 1084.60 424.66 975.45 542.54 874.48 625.42 1033.84 646.14
00002918 00000073 745.86 237.79 440.17 550.06 876.34 397.64 1084.62 423.38 975.17 541.61 874.75 624.86 1035.53 644.77
00002919 00000074 746.27 238.35 439.56 546.65 876.60 397.74 1083.98 423.04 974.98 540.98 875.66 623.93 1035.31 643.43
00002920 00000075 746.13 237.74 439.15 546.09 876.69 397.85 1083.91 422.88 975.81 539.16 876.74 623.74 1036.12 642.95
00002921 00000076 745.74 241.50 439.86 539.56 875.91 397.77 1084.22 422.17 975.35 539.23 876.48 624.29 1035.75 642.82
00002922 00000077 746.02 240.26 439.72 540.58 876.14 397.58 1084.46 422.72 975.55 538.06 876.71 623.86 1036.55 642.98
00002923 00000078 746.75 237.98 438.59 544.26 876.44 397.44 1084.17 422.68 975.44 537.35 876.21 623.35 1036.30 642.59
00002924 00000079 747.30 236.82 437.29 544.12 877.10 397.12 1084.46 422.78 975.55 537.00 876.32 624.12 1035.31 643.70
00002925 00000080 748.80 234.01 436.49 548.06 879.10 396.05 1085.32 423.47 976.96 535.54 876.90 623.71 1035.45 644.84
00002926 00000081 752.68 228.10 434.66 556.63 881.59 395.05 1086.90 424.01 978.74 533.73 878.21 626.42 1035.04 648.93
00002927 00000082 753.31 227.59 435.67 561.76 881.65 395.26 1087.13 423.33 979.25 532.37 881.77 629.65 1034.70 651.20
00002928 00000083 753.81 226.11 434.82 565.00 881.24 393.93 1086.22 421.94 978.75 531.45 882.86 631.21 1033.82 652.75
00002929 00000084 753.50 223.79 435.43 570.49 880.26 392.17 1085.58 419.23 978.41 529.98 885.81 633.02 1032.16 653.68
00002930 00000085 753.12 218.91 433.57 578.36 879.35 391.63 1084.83 418.21 977.67 528.91 887.93 634.42 1031.86 654.85
00002931 00000086 753.36 221.72 436.78 580.44 876.80 389.82 1084.75 413.76 975.41 526.64 889.21 636.11 1031.93 654.28
00002932 00000087 753.63 220.07 434.05 584.03 876.01 389.30 1084.37 412.63 975.63 525.75 890.49 637.57 1033.52 655.31
00002933 00000088 753.31 213.49 435.23 594.19 875.90 389.52 1083.43 412.32 975.47 526.26 890.27 638.72 1032.36 656.28
00002934 00000089 753.85 211.78 435.12 595.09 875.91 389.18 1084.33 412.19 975.97 526.08 890.31 639.08 1034.83 656.78
00002935 00000090 753.33 211.54 436.20 596.74 876.07 389.97 1082.80 411.90 975.00 526.12 890.11 638.71 1035.22 655.61
00002936 00000091 753.43 212.88 436.01 593.99 875.63 389.61 1083.47 411.24 974.70 526.05 890.58 638.94 1036.44 655.45
00002937 00000092 753.60 212.20 436.22 591.86 875.73 389.23 1083.96 411.11 974.56 524.75 890.64 637.65 1037.46 654.25
00002938 00000093 753.72 210.07 437.59 593.41 875.95 389.10 1084.16 409.91 976.13 523.59 891.98 635.27 1039.71 650.64
00002939 00000094 753.41 213.05 437.82 588.47 875.33 388.80 1083.84 409.08 975.61 523.97 892.46 634.83 1040.64 649.67
00002940 00000095 753.11 213.53 437.60 587.41 874.58 388.12 1082.89 408.16 975.01 522.98 892.24 634.03 1040.39 648.57
00002941 00000096 752.45 214.47 440.24 586.16 874.63 388.35 1083.40 408.32 974.97 522.70 892.36 632.72 1041.46 647.04
00002942 00000097 752.23 211.94 439.50 586.20 874.80 388.36 1084.10 407.52 975.71 520.98 892.81 631.78 1042.61 645.45
00002943 00000098 752.06 214.01 438.86 582.72 874.02 387.71 1084.05 407.63 974.84 519.81 892.20 631.30 1042.30 645.56
00002944 00000099 751.90 219.76 435.30 574.96 875.40 395.00 1079.41 412.73 974.09 521.45 894.23 631.11 1042.25 643.61
00002945 00000100 752.31 222.08 433.98 571.69 873.89 396.57 1077.96 413.34 971.73 521.02 893.40 631.72 1040.64 643.37
00002946 DELETE   752.01 215.71 432.98 578.83 873.27 394.76 1078.02 412.22 971.95 519.72 892.00 629.87 1040.06 642.35
00002947 00000102 750.10 214.44 432.98 578.60 871.29 392.93 1079.37 410.80 971.98 520.45 890.32 630.04 1039.09 642.79
00002948 00000103 750.13 215.76 431.54 576.26 869.69 390.57 1077.14 409.00 969.16 520.64 888.74 629.09 1035.78 642.31
00002949 00000104 748.90 216.98 431.00 575.74 867.62 389.50 1075.81 408.89 965.53 520.55 885.97 628.46 1034.87 642.35
00002950 00000105 748.53 214.74 429.14 573.43 866.90 390.12 1074.80 409.36 963.98 520.43 883.82 628.08 1032.87 641.98
00002951 00000106 748.45 217.64 427.63 568.99 866.18 390.19 1072.52 409.60 961.94 519.88 880.67 628.32 1029.97 642.55
00002952 00000107 743.88 216.49 428.75 567.53 866.03 389.46 1071.29 409.00 963.15 522.16 874.19 630.52 1019.13 645.03
00002953 00000108 738.84 221.39 435.93 569.66 864.99 389.75 1071.14 410.60 961.88 526.32 866.23 629.81 1012.64 645.85
00002954 00000109 736.77 220.50 437.72 573.26 865.50 391.04 1069.22 413.15 960.99 528.59 861.65 628.60 1008.93 645.97
00002955 00000110 732.89 222.28 438.25 572.04 865.36 391.64 1067.03 414.67 960.97 530.30 858.55 629.46 1004.40 647.71
00002956 00000111 729.76 221.75 438.98 572.53 864.30 392.02 1067.12 416.84 959.81 532.38 855.49 629.77 1002.52 649.40
00002957 00000112 723.43 220.48 450.19 574.67 860.62 387.72 1066.02 419.83 959.69 532.06 851.72 626.31 1002.73 653.41
00002958 00000113 721.41 215.49 451.12 579.84 857.34 392.59 1062.32 417.68 953.15 532.10 849.97 629.54 999.83 651.89
00002959 00000114 720.33 219.52 453.52 575.19 856.60 392.74 1063.49 418.40 952.02 531.39 849.75 628.73 1001.72 651.35
00002960 00000115 720.21 218.34 452.34 575.12 856.02 392.27 1064.05 417.59 953.06 529.50 849.36 628.30 1003.88 650.65
00002961 00000116 720.40 219.56 450.07 572.66 856.51 391.42 1064.06 416.58 954.32 529.11 851.22 626.39 1006.41 648.57
00002962 00000117 725.54 218.48 436.41 561.48 853.39 394.67 1062.51 412.28 957.11 526.96 854.16 632.08 1010.87 645.24
00002963 00000118 724.78 216.29 435.80 563.42 853.04 393.97 1061.83 409.16 959.91 526.00 858.13 631.43 1014.21 642.53
00002964 00000119 723.47 212.82 434.91 557.86 849.77 394.95 1058.72 406.78 959.18 525.96 860.21 629.07 1018.32 637.37
00002965 00000120 722.77 209.38 434.74 558.52 848.78 395.33 1056.56 406.03 957.88 523.56 860.92 626.22 1020.56 633.52
00002966 00000121 721.53 212.33 437.12 552.53 848.47 393.51 1055.68 404.18 957.93 524.34 862.43 622.83 1022.01 629.96
00002967 00000122 718.67 215.08 438.62 547.80 846.11 395.53 1051.03 403.14 955.83 521.91 862.17 619.21 1023.12 623.90
00002968 00000123 716.05 216.00 440.34 546.97 844.14 395.61 1047.87 403.48 952.26 520.10 860.48 616.05 1021.67 620.75
00002969 DELETE   712.83 216.24 442.52 546.25 841.06 396.50 1044.93 403.23 948.20 518.74 857.59 613.86 1021.07 617.30
00002970 00000125 709.12 218.20 442.18 542.31 838.56 396.56 1041.25 405.21 943.38 519.40 853.65 610.99 1017.99 616.09
00002971 00000126 706.23 219.91 444.39 542.58 835.83 396.70 1039.38 405.59 940.06 519.87 851.35 612.24 1015.36 617.56
00002972 00000127 703.66 216.39 444.29 544.68 832.38 396.92 1037.57 405.32 938.08 521.37 852.07 615.69 1012.67 620.28
00002973 00000128 697.92 217.90 448.47 547.64 828.09 397.10 1033.52 404.65 934.14 522.95 851.10 619.21 1008.35 622.90
00002974 00000129 692.80 215.42 447.53 549.55 822.70 399.14 1030.15 406.38 931.49 524.39 849.59 623.05 1004.84 626.32
00002975 00000130 689.64 211.46 446.21 556.10 818.74 399.39 1026.27 407.61 927.53 525.83 845.31 623.93 1000.44 628.28
00002976 00000131 688.50 213.33 442.41 556.99 815.57 400.05 1021.99 407.82 924.22 527.19 841.85 624.27 996.96 628.54
00002977 00000132 686.95 215.18 439.02 557.54 812.32 400.16 1018.36 407.65 921.57 527.84 838.90 623.72 994.43 627.98
00002978 00000133 684.37 215.75 439.12 557.40 808.68 400.05 1016.52 405.32 919.00 528.39 838.34 626.47 992.87 629.03
00002979 00000134 682.93 216.09 438.51 557.59 806.98 400.88 1015.63 404.63 917.60 527.84 837.29 628.05 992.49 629.34
00002980 00000135 679.88 219.42 440.04 557.15 805.47 401.61 1013.87 403.94 916.63 528.08 836.69 629.13 992.31 629.36
00002981 00000136 678.47 221.19 439.86 560.35 802.68 401.44 1012.26 402.76 914.24 527.57 834.17 631.87 990.44 631.35
00002982 00000137 677.37 224.38 438.05 563.02 800.79 402.45 1008.41 402.90 912.43 528.70 834.00 634.72 990.85 633.55
00002983 00000138 674.48 227.40 437.99 567.40 797.59 404.51 1006.04 405.54 908.46 530.31 831.05 640.55 986.01 639.75
CROP_BBOX: 268 0 1449 1080
