Video ID: 	ZQfiBkEDTIY
H: 	1080
W: 	1920
FPS: 	29.97002997002997

FRAME INDEX X0 Y0 W H [Landmarks (5 Points)]

00000521 00000000 832.70 212.34 482.93 676.99 984.67 523.82 1180.94 496.75 1106.33 605.92 1027.18 734.98 1188.08 711.43
00000522 00000001 828.39 211.12 485.93 680.87 981.42 521.04 1178.76 494.54 1103.50 604.83 1024.68 736.15 1185.04 712.99
00000523 00000002 828.36 211.11 485.89 681.21 981.39 521.09 1178.69 494.58 1103.51 604.82 1024.65 736.10 1185.12 712.93
00000524 00000003 821.36 226.76 482.42 662.95 967.04 521.19 1173.15 500.63 1094.95 614.85 1014.49 740.61 1179.90 723.02
00000525 00000004 817.12 229.80 476.07 658.98 959.70 523.47 1165.05 503.93 1087.19 615.36 1008.44 742.04 1173.21 725.52
00000526 00000005 814.75 230.21 476.26 663.72 952.84 521.87 1158.07 505.35 1075.25 617.76 999.08 742.11 1164.00 728.14
00000527 00000006 810.70 231.48 475.69 664.94 946.07 520.58 1148.51 505.02 1063.15 618.52 991.56 740.82 1154.95 728.09
00000528 00000007 810.67 231.50 475.69 665.21 946.01 520.48 1148.49 504.97 1063.11 618.79 991.38 740.95 1154.81 728.27
00000529 00000008 808.39 232.22 477.65 666.06 942.60 520.59 1144.37 505.18 1058.14 620.14 987.71 741.01 1150.59 728.57
00000530 00000009 808.92 232.94 476.97 666.21 944.12 521.06 1146.07 505.16 1060.67 620.36 989.49 741.49 1153.22 728.53
00000531 00000010 810.51 233.19 476.34 666.03 951.10 522.53 1150.96 506.32 1070.10 618.95 997.15 741.79 1158.24 728.50
00000532 00000011 811.76 232.64 480.28 665.25 956.75 522.94 1156.08 504.70 1079.20 614.88 1004.37 741.33 1164.48 726.31
00000533 00000012 811.65 232.88 480.30 664.98 956.71 522.98 1156.14 504.79 1079.16 614.98 1004.27 741.36 1164.42 726.37
00000534 00000013 812.36 229.74 482.36 667.62 959.76 521.61 1159.07 502.97 1083.74 612.41 1008.25 740.36 1168.23 724.84
00000535 00000014 812.47 229.40 482.50 667.87 959.60 522.71 1158.91 504.13 1083.35 612.26 1008.07 740.31 1168.22 724.75
00000536 00000015 812.84 230.62 479.79 665.69 956.48 522.70 1155.91 504.42 1078.35 612.75 1004.74 740.78 1164.14 725.61
00000537 00000016 811.45 232.42 475.88 665.14 951.59 522.44 1150.53 505.84 1070.02 617.47 997.70 740.54 1158.01 726.94
00000538 00000017 811.48 232.79 475.93 664.69 951.64 522.30 1150.75 505.77 1070.07 617.39 997.72 740.49 1158.13 726.97
00000539 00000018 810.61 231.91 476.04 666.01 946.96 522.81 1144.99 505.77 1062.16 620.52 994.95 742.09 1153.08 728.34
00000540 00000019 809.34 233.11 476.85 664.66 943.91 521.97 1143.61 504.69 1059.08 622.07 993.87 744.13 1151.44 730.22
00000541 DELETE   810.71 232.19 475.09 661.27 944.49 524.60 1146.30 505.94 1061.09 622.60 994.19 745.58 1153.40 730.38
00000542 00000021 812.20 228.17 472.14 669.65 949.61 524.87 1146.09 504.75 1067.40 618.66 999.29 744.24 1156.70 727.69
00000543 DELETE   812.13 227.72 472.29 670.26 949.70 524.94 1146.13 504.78 1067.53 618.62 999.40 744.27 1156.71 727.67
00000544 00000023 810.70 229.05 477.54 666.28 949.40 517.94 1146.79 498.12 1068.55 608.00 999.55 737.80 1158.02 721.65
00000545 00000024 809.06 228.42 481.19 663.27 948.13 515.00 1146.43 494.93 1067.42 606.11 1000.04 735.35 1158.13 719.01
00000546 00000025 808.49 227.45 484.30 666.04 942.85 514.80 1147.75 496.87 1062.56 612.12 993.22 738.17 1158.25 723.41
00000547 00000026 807.06 232.29 482.97 664.58 939.15 521.25 1146.09 503.12 1057.63 624.29 988.68 745.23 1154.09 730.54
00000548 00000027 806.89 232.49 483.12 664.43 939.14 521.11 1146.15 503.05 1057.65 624.29 988.65 745.17 1154.20 730.54
00000549 00000028 808.01 238.68 484.13 667.76 935.31 529.60 1144.29 509.19 1053.55 638.43 987.75 757.05 1153.96 740.93
00000550 00000029 808.74 246.28 481.58 671.70 940.75 535.46 1144.05 516.86 1057.68 640.35 989.89 761.27 1153.20 746.61
00000551 00000030 808.63 249.00 482.85 676.92 943.97 538.81 1145.17 520.09 1060.76 640.18 992.63 763.42 1155.19 748.47
00000552 00000031 808.01 248.85 483.49 680.32 944.24 538.55 1144.99 520.23 1060.82 640.03 992.88 764.16 1155.01 749.48
00000553 00000032 807.99 248.90 483.50 680.02 944.33 538.62 1145.20 520.35 1060.94 640.02 992.94 764.17 1154.97 749.52
00000554 00000033 807.31 249.64 481.02 675.15 941.64 538.40 1142.62 519.48 1057.87 641.66 990.81 763.26 1152.95 748.30
00000555 00000034 807.84 250.72 480.23 669.13 939.23 538.88 1142.54 519.15 1056.04 644.50 989.66 763.63 1153.19 748.11
00000556 00000035 808.65 250.12 478.81 667.82 939.40 537.57 1141.58 517.37 1056.02 642.84 991.05 762.89 1152.50 747.10
00000557 00000036 809.17 248.11 477.00 668.19 939.86 535.75 1141.30 515.95 1056.89 640.63 992.04 761.85 1151.82 746.45
00000558 00000037 809.20 247.91 476.94 668.53 939.96 535.71 1141.30 515.91 1057.01 640.50 992.14 761.89 1151.76 746.48
00000559 00000038 809.97 246.84 475.10 666.19 938.26 538.94 1138.37 518.38 1053.69 638.57 990.84 761.62 1148.48 745.72
00000560 00000039 807.20 239.19 471.56 673.97 935.27 542.82 1135.74 522.54 1050.69 639.39 985.37 761.34 1145.55 745.21
00000561 DELETE   809.10 237.77 469.55 669.77 938.19 540.20 1138.01 521.98 1052.12 637.65 986.66 758.99 1145.60 744.40
00000562 00000041 815.22 231.70 472.07 680.37 954.69 533.63 1154.25 519.63 1071.93 633.70 999.46 756.79 1156.48 745.41
00000563 DELETE   814.88 232.52 472.10 679.53 954.83 533.45 1154.23 519.54 1072.00 633.76 999.69 756.55 1156.53 745.27
00000564 DELETE   819.57 231.57 477.73 680.74 967.28 533.09 1168.88 518.84 1090.45 629.57 1010.96 756.55 1170.22 744.54
00000565 00000044 832.11 220.29 480.48 694.94 978.89 529.87 1183.36 513.12 1099.44 624.58 1015.92 752.87 1182.70 739.52
00000566 00000045 836.77 221.44 485.71 691.56 980.32 530.07 1188.31 512.74 1100.27 627.57 1016.43 751.53 1189.47 737.66
00000567 00000046 837.78 224.28 485.64 690.30 979.63 531.75 1187.60 516.15 1098.09 632.28 1015.14 753.47 1187.96 740.94
00000568 00000047 837.69 223.90 485.84 690.71 979.54 531.83 1187.68 516.19 1098.09 632.21 1014.99 753.53 1188.08 740.95
00000569 00000048 836.93 230.27 480.26 686.24 977.08 533.67 1186.17 520.79 1095.61 637.19 1011.49 756.48 1184.37 746.05
00000570 00000049 838.51 236.07 480.96 685.81 977.35 534.10 1187.74 522.72 1095.31 640.00 1011.06 760.24 1183.58 750.98
00000571 00000050 840.80 238.45 481.60 689.66 981.57 534.73 1190.20 523.92 1098.95 639.79 1015.78 762.02 1185.77 753.14
00000572 00000051 843.92 238.21 482.27 687.50 986.27 533.65 1193.83 523.22 1103.80 639.62 1021.94 760.28 1189.82 751.85
00000573 00000052 843.92 238.26 482.27 687.47 986.25 533.64 1193.82 523.21 1103.79 639.59 1021.92 760.29 1189.82 751.86
00000574 00000053 845.84 238.47 477.42 681.77 988.86 533.29 1195.85 521.79 1108.03 639.78 1026.57 759.61 1191.31 750.53
00000575 00000054 847.09 236.31 476.48 681.06 991.04 532.89 1197.67 521.59 1110.93 638.30 1029.28 758.49 1192.51 749.68
00000576 00000055 848.18 235.85 476.34 682.20 992.29 532.22 1199.44 521.41 1112.95 638.58 1029.48 758.31 1193.83 749.96
00000577 00000056 848.38 236.59 477.54 687.83 994.13 531.52 1199.86 521.73 1114.02 638.13 1030.45 758.45 1194.66 750.86
00000578 00000057 848.49 236.39 477.01 687.50 994.22 531.56 1200.01 521.91 1114.15 638.08 1030.32 758.26 1194.48 750.79
00000579 00000058 848.82 237.66 479.34 688.77 994.15 531.74 1200.26 522.43 1113.64 638.15 1028.96 759.26 1194.52 752.09
00000580 00000059 849.15 237.63 480.69 686.20 993.89 532.56 1201.10 522.50 1113.63 639.02 1029.75 759.74 1195.39 751.95
00000581 00000060 849.19 237.21 481.14 684.05 993.48 532.47 1201.69 521.80 1113.80 639.08 1029.45 758.67 1196.44 750.38
00000582 00000061 849.21 234.69 481.63 685.04 993.63 531.66 1203.18 520.75 1115.29 637.51 1029.14 757.43 1198.58 748.92
00000583 00000062 848.93 234.32 481.51 685.25 993.68 531.61 1203.11 520.71 1115.41 637.54 1029.19 757.42 1198.35 748.94
00000584 00000063 848.38 231.40 479.59 685.78 995.66 527.44 1202.51 517.58 1117.01 632.97 1030.45 753.43 1197.93 746.05
00000585 00000064 848.18 225.23 477.64 682.94 995.83 519.43 1202.02 509.22 1116.44 623.66 1030.68 745.95 1197.07 738.46
00000586 00000065 845.96 219.22 477.32 683.93 994.32 512.96 1201.75 503.15 1115.68 617.26 1028.22 739.16 1198.69 731.72
00000587 00000066 846.26 218.16 478.69 683.05 994.22 512.18 1201.07 502.04 1115.13 616.95 1028.95 738.03 1198.91 730.29
00000588 00000067 846.22 218.11 478.40 683.01 994.18 512.22 1201.05 502.06 1115.19 616.94 1028.98 738.02 1198.95 730.26
00000589 00000068 847.04 220.90 478.01 686.52 995.39 515.46 1202.99 505.89 1116.36 619.82 1028.82 742.18 1197.68 734.98
00000590 00000069 848.51 227.84 479.41 689.59 996.54 525.24 1201.50 514.05 1117.14 631.08 1032.46 751.79 1197.78 743.32
00000591 00000070 852.99 240.78 483.66 688.08 998.06 533.04 1205.09 522.95 1116.39 641.95 1034.91 762.06 1199.32 754.39
00000592 00000071 856.84 248.66 485.13 689.92 1000.25 541.14 1207.85 529.74 1118.30 652.16 1035.54 769.04 1204.69 760.11
00000593 00000072 856.82 248.80 484.98 689.89 1000.28 541.10 1207.77 529.73 1118.30 652.20 1035.58 769.05 1204.61 760.15
00000594 00000073 859.29 252.10 485.85 688.23 1002.86 546.21 1211.92 534.27 1121.13 658.34 1036.74 772.37 1208.27 763.14
00000595 00000074 859.64 257.25 484.93 682.77 1003.43 548.45 1212.29 537.27 1121.35 662.88 1037.54 773.76 1207.54 765.15
00000596 00000075 860.46 259.33 483.77 681.10 1004.05 549.92 1212.64 538.53 1122.15 663.66 1038.47 774.68 1208.26 765.84
00000597 00000076 859.54 258.86 486.21 689.06 1004.20 549.37 1212.07 538.68 1121.96 663.71 1038.90 777.50 1207.86 769.13
00000598 00000077 859.51 258.82 485.97 689.14 1004.21 549.40 1212.06 538.64 1122.02 663.65 1038.92 777.51 1207.95 769.09
00000599 00000078 859.33 258.71 484.94 692.57 1004.59 548.99 1211.34 538.46 1122.30 663.30 1039.88 778.68 1207.37 770.47
00000600 00000079 858.38 257.78 485.52 696.74 1004.45 548.79 1209.88 539.00 1121.17 663.54 1038.25 778.44 1206.11 770.76
00000601 00000080 856.73 257.36 485.13 700.68 1003.56 550.54 1207.40 540.93 1119.89 664.44 1036.83 779.37 1204.44 771.71
00000602 00000081 855.66 259.86 484.62 697.19 1001.65 553.51 1205.37 543.16 1117.64 667.72 1034.85 779.87 1202.96 771.45
00000603 00000082 855.60 259.84 485.00 697.31 1001.67 553.33 1205.46 543.29 1117.55 667.51 1034.69 779.77 1202.74 771.61
00000604 00000083 854.09 260.54 486.61 693.97 1000.47 554.86 1204.53 545.32 1115.90 669.58 1032.68 779.18 1201.31 771.33
00000605 00000084 851.86 261.28 486.91 691.71 998.94 555.41 1203.28 546.41 1114.84 670.37 1030.41 778.31 1200.22 770.79
00000606 00000085 850.26 261.78 489.03 690.67 996.97 556.08 1202.43 546.99 1113.03 671.78 1027.31 777.67 1199.58 769.93
00000607 00000086 848.99 263.24 489.32 688.64 995.90 557.32 1201.47 547.88 1112.09 672.22 1026.18 777.61 1199.05 769.54
00000608 00000087 848.69 263.04 489.41 688.57 995.64 557.29 1201.52 548.00 1111.80 672.51 1025.77 777.73 1198.67 769.79
00000609 00000088 847.82 262.96 489.88 689.17 994.37 558.40 1199.78 548.37 1110.31 671.66 1025.37 778.60 1197.46 770.01
00000610 00000089 846.59 263.73 488.54 688.06 992.88 558.00 1198.48 547.72 1108.86 671.68 1024.93 780.02 1195.26 771.27
00000611 00000090 845.88 262.96 487.39 687.57 990.83 556.60 1196.77 545.70 1107.35 670.68 1023.96 780.42 1193.77 771.22
00000612 00000091 845.17 262.37 485.83 691.95 989.53 556.54 1194.87 545.25 1105.71 669.50 1023.81 783.39 1190.90 773.93
00000613 00000092 844.86 262.10 486.09 692.20 989.56 556.50 1194.95 545.34 1105.84 669.40 1023.70 783.19 1191.01 773.81
00000614 00000093 843.30 261.00 487.01 701.58 988.95 555.44 1192.20 544.69 1104.22 667.00 1023.12 784.70 1189.28 775.48
00000615 00000094 842.31 259.99 487.67 703.75 988.51 554.94 1191.45 544.32 1103.65 665.80 1022.56 785.14 1187.73 776.07
00000616 00000095 841.84 260.77 487.40 702.36 988.25 554.57 1191.06 544.22 1102.96 665.09 1021.79 784.55 1186.99 775.69
00000617 00000096 841.96 259.91 486.45 704.01 987.99 553.35 1190.77 542.99 1102.65 663.54 1022.01 783.95 1187.02 775.10
00000618 00000097 841.93 260.66 487.06 702.56 988.03 553.35 1190.86 542.82 1102.73 663.94 1022.34 784.03 1187.05 775.05
00000619 00000098 841.92 256.41 488.67 706.57 988.12 551.43 1191.67 541.04 1102.77 660.80 1022.23 782.83 1187.61 774.04
00000620 00000099 843.22 255.06 485.77 705.56 989.11 553.17 1191.86 542.02 1103.40 659.70 1023.32 781.49 1187.85 772.32
00000621 00000100 844.37 250.59 480.07 707.72 991.16 552.34 1192.53 541.26 1105.36 658.66 1023.10 779.15 1186.00 770.32
00000622 00000101 843.01 249.52 479.87 707.82 990.57 550.01 1191.31 540.15 1104.55 656.65 1022.26 777.65 1183.53 769.85
00000623 00000102 842.99 249.34 480.47 707.69 990.42 550.29 1191.46 540.20 1104.38 656.79 1022.05 777.66 1183.49 769.68
00000624 00000103 840.81 250.25 478.70 704.75 987.50 547.90 1190.94 537.91 1102.75 653.57 1018.98 775.56 1183.15 767.69
00000625 00000104 837.23 246.31 475.59 704.06 982.83 544.86 1188.36 534.27 1100.17 650.15 1014.00 773.26 1180.06 764.78
00000626 00000105 835.63 244.03 476.93 703.59 981.04 540.95 1185.05 529.93 1097.93 646.46 1013.90 770.87 1178.00 762.03
00000627 00000106 835.98 238.18 472.72 703.91 981.84 539.79 1182.89 529.37 1098.64 643.17 1013.42 765.20 1176.81 756.66
00000628 00000107 835.90 238.49 472.69 703.05 981.69 539.86 1182.90 529.31 1098.58 643.18 1013.43 765.20 1176.88 756.56
00000629 00000108 834.81 234.60 475.15 704.22 979.91 538.47 1180.16 525.67 1095.89 640.70 1013.99 762.82 1177.76 752.22
00000630 DELETE   833.17 231.21 475.03 704.56 978.49 537.65 1177.28 524.35 1093.99 638.41 1013.31 760.04 1176.93 748.84
00000631 00000110 830.79 229.07 475.23 702.45 976.48 537.68 1175.06 522.50 1092.44 633.77 1012.17 757.41 1176.38 744.48
00000632 00000111 828.03 228.79 475.37 698.50 974.46 535.76 1170.07 519.20 1090.18 631.96 1012.00 754.20 1175.30 740.21
00000633 00000112 827.92 228.82 475.50 698.51 974.50 535.68 1170.02 519.11 1090.22 632.02 1012.19 754.21 1175.25 740.23
00000634 00000113 817.73 238.06 480.29 677.46 963.23 536.09 1161.31 516.96 1084.31 631.80 1012.19 754.98 1170.19 738.76
00000635 00000114 817.11 237.32 481.08 673.41 960.19 532.10 1157.33 510.87 1080.33 627.43 1011.95 751.58 1168.24 733.87
00000636 00000115 815.27 234.09 478.26 670.33 956.11 527.40 1153.30 505.85 1076.67 621.16 1009.86 748.94 1164.49 731.15
00000637 00000116 813.33 234.14 479.12 664.53 949.64 521.92 1146.16 498.19 1068.79 617.28 1006.10 743.84 1161.52 724.57
00000638 00000117 813.22 234.58 479.53 664.49 949.64 521.81 1146.35 498.30 1068.74 617.29 1005.90 743.85 1161.56 724.76
00000639 00000118 809.42 230.45 483.57 663.15 942.39 518.95 1140.23 494.71 1058.37 611.96 999.39 738.29 1157.34 718.69
00000640 00000119 802.81 227.48 485.73 667.77 934.37 520.11 1132.37 491.90 1051.66 611.14 993.19 738.62 1154.35 715.90
00000641 00000120 797.47 225.18 487.11 663.32 927.41 523.15 1124.36 490.26 1042.92 608.88 988.86 737.51 1149.21 711.05
00000642 00000121 793.85 226.00 488.64 658.47 924.51 525.56 1117.75 490.74 1037.50 607.85 987.48 734.95 1144.74 706.97
00000643 00000122 793.89 225.62 488.15 658.68 924.57 525.54 1117.88 490.75 1037.66 607.95 987.44 735.01 1144.69 707.06
00000644 00000123 795.07 225.21 489.65 659.14 928.00 522.63 1119.86 488.13 1041.04 603.46 990.66 731.60 1146.71 704.08
00000645 00000124 800.69 224.97 490.74 659.87 937.46 515.83 1129.72 486.98 1052.25 599.85 999.69 728.71 1153.52 705.10
00000646 00000125 805.65 222.22 491.28 660.78 941.63 509.34 1137.20 481.73 1059.41 596.05 1002.51 725.94 1161.02 702.99
00000647 00000126 806.79 215.13 492.89 664.91 940.34 505.52 1143.54 476.97 1063.40 594.19 999.83 723.84 1168.07 699.78
00000648 00000127 806.85 215.26 492.75 664.83 940.35 505.45 1143.54 476.97 1063.33 594.27 999.74 723.85 1168.00 699.87
00000649 00000128 807.16 209.33 493.13 668.00 941.21 498.46 1146.60 471.75 1064.93 584.77 998.38 720.21 1168.12 697.65
00000650 00000129 808.82 205.24 492.58 672.37 947.41 492.19 1148.02 468.20 1069.00 571.23 1005.14 717.34 1163.75 697.23
00000651 00000130 811.25 207.98 490.05 669.02 952.14 489.17 1149.33 465.98 1074.30 563.04 1010.60 714.75 1162.81 695.60
00000652 00000131 815.24 197.11 488.23 688.66 966.55 482.60 1152.19 464.70 1075.02 557.28 1012.79 713.25 1151.32 698.44
00000653 00000132 815.24 196.84 488.15 688.47 966.74 482.72 1152.21 464.78 1075.20 557.40 1013.15 713.07 1151.28 698.25
00000654 00000133 815.60 197.96 488.86 691.04 969.43 482.83 1153.90 466.42 1079.75 558.04 1015.64 713.92 1155.23 700.35
00000655 00000134 821.78 194.48 482.37 680.89 970.20 484.77 1158.34 465.97 1083.51 565.65 1020.47 713.51 1161.80 698.14
00000656 00000135 827.39 189.12 478.89 696.86 974.37 484.93 1165.28 467.05 1089.67 567.26 1020.00 714.77 1164.40 699.57
00000657 00000136 828.78 188.26 476.33 696.19 977.77 481.72 1168.98 465.04 1094.04 564.06 1022.30 711.77 1166.91 697.82
CROP_BBOX: 500 0 1621 1080
