Video ID: 	NQX9n4h7nZQ
H: 	1080
W: 	1920
FPS: 	25.0

FRAME INDEX X0 Y0 W H [Landmarks (5 Points)]

00003006 00000000 591.62 202.96 383.54 542.32 742.49 423.82 915.78 410.78 865.37 541.33 781.70 636.68 901.50 624.71
00003007 00000001 592.26 210.93 376.86 536.93 734.54 427.61 909.65 414.01 862.96 547.00 768.81 641.21 900.84 629.64
00003008 00000002 585.94 209.51 379.96 541.51 730.06 430.78 905.95 416.81 859.54 552.28 763.64 642.85 897.53 631.02
00003009 00000003 585.61 210.15 379.66 543.84 728.57 430.37 904.19 418.06 857.86 553.06 761.24 642.93 895.51 632.58
00003010 00000004 585.18 208.05 379.06 547.70 727.75 432.33 902.71 420.42 856.34 555.14 759.93 644.00 894.25 634.20
00003011 00000005 583.18 208.54 380.44 549.68 728.33 432.53 902.18 420.07 857.48 555.96 762.87 646.31 893.75 635.67
00003012 00000006 584.48 208.31 379.64 548.89 729.38 432.98 904.14 419.54 859.19 556.11 765.91 647.49 895.87 635.93
00003013 00000007 586.88 203.50 378.84 555.66 734.40 433.30 907.16 422.18 862.56 557.83 768.94 649.58 895.54 640.05
00003014 00000008 589.55 204.40 377.78 556.68 740.02 434.33 910.72 423.39 868.08 558.84 772.55 650.92 898.29 641.73
00003015 00000009 591.96 204.04 378.60 557.01 744.26 434.93 916.51 422.84 875.03 558.66 776.64 652.06 904.40 641.81
00003016 00000010 593.16 199.87 378.27 558.02 746.55 435.77 919.40 421.81 878.38 559.65 778.47 650.94 907.80 639.41
00003017 00000011 596.15 204.52 379.26 554.76 749.58 436.20 922.85 421.42 882.02 560.18 781.74 651.63 912.62 639.46
00003018 00000012 598.70 202.11 376.64 555.07 753.98 436.84 925.46 422.80 886.04 558.47 783.75 649.75 914.97 638.53
00003019 00000013 596.82 209.16 381.96 551.72 761.17 437.42 930.39 423.79 887.11 556.08 791.19 650.85 912.79 638.47
00003020 00000014 597.61 206.77 384.81 556.59 765.64 433.26 932.77 422.61 889.83 555.18 796.38 640.52 920.21 633.14
00003021 00000015 601.58 207.08 385.44 555.93 767.26 432.34 937.45 420.94 892.42 554.29 798.90 642.47 922.50 634.43
00003022 00000016 608.67 199.89 382.87 557.70 770.95 431.57 942.83 419.21 897.13 554.25 804.23 642.77 927.74 633.34
00003023 DELETE   611.67 209.97 381.81 549.55 777.29 429.15 944.92 416.77 901.48 555.19 811.25 642.57 928.27 632.84
00003024 DELETE   612.98 206.07 385.08 551.71 781.10 429.64 949.34 416.06 906.10 555.36 817.03 644.42 931.34 633.64
00003025 00000019 615.49 202.79 385.10 549.15 786.24 429.99 950.66 416.26 909.72 550.63 824.46 642.29 933.03 631.09
00003026 00000020 618.36 205.85 387.17 553.41 790.69 433.50 953.06 419.96 914.89 551.73 824.19 640.51 938.92 629.23
00003027 00000021 624.95 204.72 392.00 557.58 798.30 422.57 960.76 415.08 923.71 546.57 820.47 634.02 942.85 627.88
00003028 00000022 631.01 205.52 390.58 554.06 799.21 423.68 967.97 415.88 929.36 548.59 827.84 639.37 952.70 632.44
00003029 DELETE   636.30 208.38 387.68 551.39 799.26 422.79 970.34 413.86 931.60 546.80 830.50 640.78 957.76 632.57
00003030 DELETE   639.46 212.91 387.32 549.66 802.07 424.95 973.63 416.09 935.17 548.32 834.16 645.68 959.17 637.57
00003031 DELETE   645.10 212.54 383.83 552.71 805.59 427.41 976.49 418.37 939.18 549.97 837.20 648.95 961.04 641.15
00003032 00000026 650.03 208.33 380.02 553.44 810.98 432.41 981.28 422.54 943.30 552.70 843.08 650.82 965.07 642.41
00003033 DELETE   652.50 207.90 379.35 549.75 813.82 433.94 986.98 420.69 948.86 554.48 848.08 651.83 971.59 640.55
00003034 00000028 654.07 204.57 378.68 554.29 819.50 440.18 989.73 424.37 953.56 558.19 854.03 656.41 972.82 643.24
00003035 DELETE   660.57 205.96 375.03 550.68 821.90 446.29 994.39 430.56 956.37 561.79 855.72 659.28 978.92 646.41
00003036 DELETE   661.97 212.58 375.00 549.88 824.22 450.70 995.97 435.59 957.27 563.64 858.52 663.10 980.64 650.38
00003037 00000031 661.58 209.01 377.40 563.60 826.04 456.33 995.72 443.56 959.01 566.98 859.18 666.24 982.36 655.28
00003038 DELETE   663.45 216.55 378.31 562.37 826.49 461.08 1001.55 447.57 962.24 575.09 859.30 672.70 988.14 660.84
00003039 00000033 667.17 221.32 377.71 558.08 827.39 465.65 1005.75 449.75 964.93 580.96 860.19 673.53 995.59 659.85
00003040 00000034 670.31 230.38 376.72 546.62 829.06 467.39 1007.12 449.24 966.22 579.57 860.54 669.58 999.02 654.51
00003041 00000035 672.35 233.26 376.68 541.66 831.61 468.52 1007.69 448.71 967.61 578.90 861.80 666.89 1001.01 650.63
00003042 00000036 672.68 236.65 377.64 538.25 832.83 468.67 1007.53 448.83 966.96 579.95 861.53 665.40 1000.24 649.29
00003043 00000037 672.34 240.79 378.27 532.56 833.60 469.31 1007.72 447.90 968.08 580.86 861.11 664.41 999.63 647.20
00003044 00000038 671.77 242.82 378.53 531.80 833.68 468.09 1007.41 447.88 967.82 581.07 859.42 663.70 997.91 647.66
00003045 00000039 671.75 240.08 378.91 535.87 834.01 467.27 1006.77 447.70 968.06 580.86 859.08 663.51 998.05 647.96
00003046 00000040 671.44 238.80 380.28 538.02 834.05 468.34 1006.93 449.06 967.77 582.68 858.89 665.01 997.73 649.65
00003047 00000041 671.63 238.41 379.94 537.93 834.40 466.80 1006.67 447.69 968.23 579.69 859.16 663.69 997.77 648.48
00003048 00000042 672.87 237.42 378.18 537.69 834.26 466.14 1005.99 447.97 967.14 578.31 858.38 661.49 997.61 647.15
00003049 00000043 672.13 233.88 379.07 541.97 834.69 465.37 1005.92 448.33 966.88 579.46 857.52 661.99 995.79 648.62
00003050 00000044 672.11 231.98 379.42 544.39 835.23 466.05 1005.75 448.41 967.73 580.66 857.45 662.34 996.31 648.52
00003051 00000045 672.00 230.27 380.62 546.04 834.53 466.34 1006.04 449.25 967.35 582.22 856.69 662.65 996.49 649.24
00003052 00000046 672.03 231.02 380.33 545.52 833.06 468.29 1006.15 450.41 966.38 585.38 854.92 664.52 995.86 650.60
00003053 00000047 671.44 235.37 379.97 541.65 833.29 469.07 1006.31 450.66 966.80 585.77 855.75 665.64 995.36 651.23
00003054 00000048 671.79 238.10 379.13 538.14 832.49 469.65 1006.48 450.78 965.46 586.22 855.03 665.45 994.90 650.67
00003055 00000049 670.78 239.99 379.84 535.79 831.85 470.23 1006.18 450.15 965.52 587.01 854.79 666.56 994.21 650.73
00003056 00000050 670.70 235.93 380.72 540.90 832.33 469.96 1005.87 450.44 966.62 587.27 854.17 666.57 994.47 651.34
00003057 00000051 671.29 231.03 381.19 546.52 832.48 470.86 1005.81 451.19 967.00 589.25 853.28 667.05 994.90 651.84
00003058 00000052 671.38 237.97 379.90 540.78 832.53 471.07 1005.16 451.07 966.14 588.03 854.91 666.52 995.54 650.83
00003059 00000053 670.55 236.54 380.33 541.92 830.10 468.42 1005.21 449.57 964.04 587.47 854.29 667.94 994.93 653.03
00003060 00000054 669.49 230.20 380.60 544.83 826.21 466.55 1004.80 449.68 960.97 584.56 853.23 667.50 994.57 653.80
00003061 00000055 672.08 220.10 377.16 545.99 825.29 465.41 1005.66 449.28 958.32 581.39 857.76 668.76 994.30 655.02
00003062 00000056 666.98 223.81 379.21 548.75 831.50 467.30 999.31 442.86 958.90 577.34 863.40 670.85 986.39 649.74
00003063 00000057 667.52 226.47 378.41 546.98 832.34 464.81 999.98 440.38 960.83 573.39 864.40 670.35 987.40 649.34
00003064 00000058 666.37 222.13 379.93 553.38 833.89 465.32 998.90 442.31 960.40 572.53 865.09 670.96 985.77 651.09
00003065 00000059 673.50 219.80 374.66 550.29 832.87 459.59 1004.30 448.36 962.25 569.30 865.13 667.28 991.68 657.63
00003066 00000060 674.22 217.64 375.25 553.70 832.75 459.91 1007.25 446.86 965.00 571.96 865.27 667.31 996.89 656.25
00003067 00000061 675.78 223.07 374.49 549.40 835.78 461.08 1007.67 446.47 966.17 571.47 864.62 664.80 997.30 652.75
00003068 00000062 674.22 221.31 377.72 555.13 837.29 460.89 1007.03 446.25 967.97 571.65 860.92 661.67 996.69 650.05
00003069 00000063 677.57 225.45 376.95 552.45 839.05 462.82 1008.48 449.62 967.55 572.13 861.86 660.39 999.62 650.01
00003070 00000064 680.21 222.21 374.91 554.68 836.46 462.03 1011.03 450.26 967.10 572.57 862.79 663.94 1002.26 654.39
00003071 00000065 680.98 221.16 375.79 556.73 838.57 461.90 1013.05 449.30 969.69 573.06 865.39 664.98 1004.63 654.53
00003072 00000066 683.12 223.25 375.51 555.29 841.17 461.17 1014.36 449.58 970.35 573.26 866.59 664.14 1004.99 654.46
00003073 00000067 685.31 222.45 375.18 555.91 842.29 461.49 1016.47 450.28 970.33 574.39 867.26 664.68 1005.67 655.26
00003074 00000068 680.79 219.47 377.90 563.74 847.94 455.85 1011.88 443.87 972.89 575.83 872.26 662.49 994.04 653.51
00003075 00000069 682.26 221.49 380.18 560.65 851.06 456.96 1014.49 445.41 974.52 575.65 873.66 658.67 997.63 650.23
00003076 00000070 683.91 222.20 384.72 550.60 851.71 466.16 1021.54 450.46 976.86 580.93 875.80 650.99 1006.84 638.88
00003077 00000071 684.05 222.08 387.12 552.25 852.14 469.50 1021.11 453.13 976.70 583.26 874.13 651.50 1006.04 638.91
00003078 00000072 685.05 234.86 386.80 550.57 850.06 465.96 1020.29 454.94 972.51 589.73 866.68 660.80 1001.41 653.61
00003079 DELETE   683.08 230.48 389.35 555.30 839.77 476.88 1015.87 462.73 962.57 597.75 859.54 660.32 999.35 650.23
00003080 DELETE   678.89 246.67 386.08 543.73 840.18 478.76 1006.06 466.62 955.07 607.73 853.18 670.77 985.34 663.11
00003081 DELETE   676.62 248.02 386.92 544.08 834.99 485.93 1001.39 477.18 947.24 612.01 847.77 675.30 978.50 670.38
00003082 00000076 674.19 249.82 389.79 546.85 830.47 483.18 997.20 479.59 939.21 613.21 843.28 678.63 969.33 677.49
00003083 00000077 674.48 245.88 389.44 551.21 828.48 481.10 995.23 481.49 935.02 614.12 841.04 682.03 963.17 683.98
00003084 00000078 676.21 245.02 392.53 552.18 828.50 483.21 996.96 484.97 934.08 615.72 842.26 686.48 961.71 689.47
00003085 00000079 677.23 252.67 390.93 544.03 826.99 486.91 997.65 488.87 932.93 618.19 842.24 690.17 960.97 693.19
00003086 00000080 677.27 249.60 390.89 547.65 826.30 487.86 996.31 492.57 932.11 621.35 839.00 693.29 958.65 698.73
00003087 00000081 678.24 252.79 390.70 547.93 826.99 489.63 995.85 496.44 930.93 623.30 838.82 693.41 957.51 700.79
00003088 00000082 678.66 257.32 390.96 544.69 828.25 492.30 996.36 498.95 929.78 626.59 838.29 693.62 955.36 701.09
00003089 00000083 678.94 266.40 391.42 539.78 827.50 493.79 997.27 500.94 927.71 631.11 835.91 690.72 955.75 698.79
00003090 00000084 680.15 269.84 393.82 538.53 827.93 494.79 998.22 506.07 925.82 634.17 831.89 686.03 956.49 697.78
00003091 00000085 682.09 271.68 395.38 536.78 827.60 497.08 998.58 510.19 922.96 636.29 829.38 681.83 958.91 694.83
00003092 00000086 683.08 281.79 397.24 527.20 829.40 497.57 1001.48 513.19 922.02 640.56 826.57 680.38 958.14 696.00
00003093 00000087 684.63 283.64 396.34 525.29 831.67 498.16 1004.31 514.25 924.71 640.95 827.02 679.16 961.24 695.49
00003094 00000088 685.91 286.57 397.89 523.12 834.64 498.87 1006.59 515.67 926.89 643.16 827.60 679.19 960.77 696.28
00003095 00000089 686.46 289.84 401.15 518.47 837.31 497.51 1010.04 514.66 929.76 645.43 828.82 677.89 963.39 695.44
00003096 00000090 688.58 285.47 402.83 524.13 841.88 497.84 1013.70 515.21 933.75 646.13 830.31 677.51 964.73 695.39
00003097 00000091 689.70 286.49 403.41 522.65 843.53 497.80 1014.77 515.73 934.24 646.75 830.71 677.90 964.22 696.16
00003098 00000092 690.53 290.32 402.28 519.36 843.70 499.39 1015.52 516.96 935.14 647.80 829.91 678.01 964.70 696.23
00003099 00000093 691.88 287.39 400.97 521.22 846.11 498.70 1016.39 516.08 937.44 644.73 833.27 678.21 965.96 696.09
00003100 00000094 694.23 284.91 398.38 523.03 848.41 496.80 1018.49 515.37 939.95 643.10 837.14 679.00 968.10 697.56
00003101 00000095 696.33 283.78 398.69 525.65 849.41 497.62 1020.62 515.43 941.78 642.89 840.81 682.67 970.10 700.32
00003102 00000096 698.76 286.31 398.38 524.63 850.60 498.32 1023.61 517.72 941.86 644.65 842.22 685.43 970.09 704.31
00003103 00000097 701.76 281.43 403.58 530.58 854.52 502.33 1026.48 520.66 944.41 645.72 844.47 687.74 970.74 705.43
00003104 00000098 704.04 287.04 402.71 526.15 858.31 503.28 1029.48 519.31 949.78 647.50 847.26 688.03 974.06 704.01
00003105 00000099 704.96 288.07 400.56 525.66 860.56 504.43 1031.15 520.56 952.50 647.89 848.12 687.54 976.37 703.61
00003106 00000100 705.70 286.59 403.12 528.81 863.14 505.73 1032.13 522.54 952.97 649.63 851.02 689.57 976.69 705.86
00003107 00000101 707.08 281.57 404.45 534.48 862.99 507.61 1034.00 523.57 954.00 649.43 852.30 691.01 979.94 706.40
00003108 00000102 710.02 282.92 402.60 533.31 864.51 510.16 1037.25 525.69 956.69 650.63 855.86 694.00 983.40 708.82
00003109 00000103 712.67 289.17 403.45 527.95 865.55 511.10 1040.71 528.09 958.07 651.68 858.70 696.47 986.46 712.30
00003110 00000104 715.84 299.21 402.01 521.39 867.42 512.10 1042.08 530.62 959.05 655.14 859.31 698.18 985.99 715.46
00003111 00000105 716.87 294.98 404.35 526.03 869.94 515.34 1045.94 530.70 963.54 657.76 863.30 701.15 991.63 715.80
00003112 00000106 717.04 296.43 405.50 522.98 872.26 515.75 1045.88 531.20 965.11 657.98 865.51 701.38 990.79 716.03
00003113 00000107 718.72 296.05 405.14 523.40 873.68 516.98 1047.34 531.28 966.67 661.68 867.21 702.37 992.70 716.29
00003114 00000108 720.97 304.40 404.01 516.58 875.42 517.47 1048.94 533.49 968.22 663.69 869.47 703.27 993.80 718.37
00003115 00000109 722.33 303.73 404.91 518.18 876.60 518.55 1049.63 535.04 968.48 664.49 871.15 705.63 993.46 720.96
00003116 00000110 722.41 306.62 404.56 514.96 876.87 519.61 1050.02 535.81 969.17 665.79 870.11 704.59 993.55 719.87
00003117 00000111 722.60 302.20 405.89 518.71 877.40 520.09 1050.72 535.01 970.00 665.67 871.72 704.96 995.41 719.08
00003118 00000112 726.69 300.11 403.73 519.42 879.49 519.60 1058.34 533.17 974.66 661.58 865.64 701.38 992.72 715.47
00003119 00000113 722.98 295.51 406.83 524.80 878.53 519.72 1052.17 535.60 970.67 664.89 872.13 706.01 996.38 720.68
00003120 00000114 729.45 296.25 404.27 523.32 882.82 519.01 1059.01 533.66 976.93 660.69 870.00 701.26 993.77 716.33
00003121 00000115 730.28 297.39 403.35 522.53 883.94 518.42 1059.85 532.98 978.27 661.06 871.28 700.94 995.46 716.01
00003122 00000116 731.27 295.14 403.20 525.23 885.10 519.75 1060.27 533.53 979.32 661.25 872.02 700.61 996.31 715.23
00003123 00000117 731.10 296.20 403.02 523.78 885.35 520.51 1060.71 534.50 979.75 661.54 872.61 700.27 997.67 715.06
00003124 00000118 731.69 300.41 402.64 519.53 886.67 522.23 1060.28 535.67 979.76 662.69 872.19 698.63 996.89 713.05
00003125 00000119 731.68 299.33 402.06 520.11 887.66 522.02 1061.36 535.63 980.42 663.60 871.14 696.97 997.95 711.69
00003126 00000120 733.20 303.44 401.49 515.23 888.62 520.23 1062.27 535.00 980.23 663.85 871.10 695.95 998.72 711.55
00003127 00000121 733.52 304.44 399.64 514.69 890.16 519.06 1062.45 533.71 981.95 663.04 872.58 693.43 1001.35 709.07
00003128 00000122 732.97 304.36 401.30 514.86 889.85 518.28 1062.97 532.66 982.36 662.46 872.92 694.39 1001.79 709.73
00003129 00000123 733.57 301.30 400.12 518.46 888.82 519.33 1062.63 533.17 982.29 662.45 874.19 697.71 1001.42 712.52
00003130 00000124 732.68 296.72 400.52 523.97 887.42 519.40 1061.01 533.95 981.33 660.71 873.39 699.95 998.70 715.29
00003131 00000125 731.53 294.86 401.06 522.69 885.67 517.38 1060.58 531.12 980.42 659.24 873.58 699.52 998.39 714.13
00003132 00000126 730.77 296.20 403.42 520.61 884.43 517.41 1062.63 530.84 981.13 660.68 873.69 702.59 1000.38 716.77
00003133 00000127 730.34 293.29 404.28 522.75 883.96 518.75 1062.12 532.03 980.03 660.34 872.41 703.28 998.86 717.30
00003134 00000128 729.90 290.97 403.76 526.22 883.38 517.15 1061.42 532.15 978.85 658.68 869.59 701.28 996.35 716.67
00003135 00000129 729.04 293.84 401.97 524.25 881.06 517.71 1060.06 532.17 977.60 659.97 868.08 699.29 998.92 714.34
00003136 00000130 727.80 290.74 403.26 527.58 882.16 515.49 1060.05 529.60 977.59 657.28 866.98 696.34 997.21 711.19
00003137 00000131 727.48 298.59 401.77 521.66 882.37 515.40 1057.41 530.80 975.44 659.16 863.08 694.60 993.41 710.70
00003138 00000132 727.66 293.62 399.51 524.58 882.73 514.12 1058.43 528.20 976.89 657.50 863.91 691.86 996.60 706.89
00003139 00000133 726.92 295.75 399.06 521.25 883.69 510.27 1060.30 525.69 978.63 655.61 863.58 688.11 1000.35 704.33
00003140 00000134 726.54 287.38 396.88 526.93 884.82 506.24 1061.11 519.82 982.89 648.35 868.61 685.96 1006.79 700.52
00003141 00000135 725.27 283.51 402.75 530.63 887.69 501.60 1065.32 512.12 988.96 647.15 872.75 683.80 1011.98 696.00
00003142 00000136 726.32 279.82 399.36 532.87 889.62 495.07 1062.59 503.85 993.83 638.69 879.88 680.43 1017.93 691.16
00003143 00000137 727.71 270.44 397.87 538.56 893.17 487.95 1062.49 494.83 999.89 630.69 887.06 674.90 1025.04 683.64
00003144 00000138 728.99 262.45 397.11 537.32 899.00 480.06 1065.97 483.69 1007.06 618.97 896.58 672.79 1030.54 678.11
00003145 DELETE   734.39 256.03 392.52 537.90 892.07 477.23 1075.04 481.68 1011.00 615.91 897.98 674.23 1043.64 678.50
00003146 DELETE   736.31 244.15 390.89 540.01 890.72 471.15 1078.68 473.12 1014.31 608.11 907.29 676.87 1048.61 678.00
00003147 DELETE   737.92 237.85 390.79 542.43 890.99 464.48 1081.56 464.50 1016.91 603.31 912.14 677.97 1051.40 677.15
00003148 00000142 740.73 232.00 387.85 544.03 891.41 458.99 1082.06 460.19 1017.81 594.22 913.72 675.63 1050.72 675.86
00003149 DELETE   743.40 229.20 384.40 544.28 895.37 453.20 1084.38 456.51 1023.00 583.27 916.16 670.04 1053.49 672.30
00003150 00000144 743.49 232.30 384.14 539.91 896.20 448.19 1083.99 455.08 1023.71 576.27 912.71 662.87 1053.87 668.52
00003151 00000145 743.86 232.94 382.06 536.80 900.59 443.72 1083.35 452.18 1027.20 571.08 911.41 655.72 1052.42 663.21
00003152 00000146 743.40 230.67 382.33 537.37 905.38 438.88 1080.45 444.75 1030.79 566.00 912.63 647.38 1052.48 653.26
00003153 00000147 743.58 228.13 381.74 536.05 908.68 435.33 1080.02 441.57 1032.98 561.72 912.62 640.75 1052.81 647.58
00003154 00000148 743.00 232.76 382.11 533.44 914.13 433.50 1078.82 440.47 1035.43 560.11 913.82 638.54 1050.17 646.14
00003155 00000149 744.73 231.57 380.78 529.32 913.26 433.61 1081.19 439.60 1035.33 560.02 914.73 637.03 1053.08 643.70
00003156 00000150 746.72 230.00 379.01 523.41 912.85 435.57 1083.41 436.92 1037.66 560.12 917.15 635.22 1058.38 638.23
00003157 00000151 746.92 224.39 376.51 527.20 911.87 435.81 1082.08 434.68 1037.23 558.97 918.58 634.51 1059.45 635.35
00003158 00000152 744.82 221.11 376.82 530.61 910.42 435.25 1079.76 432.63 1037.29 558.00 917.62 633.48 1058.73 633.12
00003159 00000153 742.26 221.20 377.61 530.86 909.96 434.02 1079.51 430.28 1037.81 558.21 916.27 633.15 1057.21 631.98
00003160 00000154 739.90 223.03 377.21 527.62 906.03 432.86 1076.26 428.34 1034.03 557.01 914.63 632.69 1054.92 630.81
00003161 00000155 739.00 221.42 376.55 527.74 905.80 432.09 1076.80 426.91 1034.88 555.88 915.52 633.32 1055.36 630.85
00003162 00000156 739.56 217.87 374.82 529.66 904.08 429.73 1077.05 424.50 1033.48 554.95 918.28 635.66 1055.67 632.62
00003163 00000157 737.02 217.93 376.10 531.69 902.11 430.43 1076.92 425.19 1033.22 556.75 918.04 641.74 1052.76 638.49
00003164 00000158 736.97 216.92 376.53 530.59 901.78 430.11 1076.43 425.27 1032.45 556.40 918.57 642.52 1050.72 639.57
00003165 00000159 736.08 218.51 376.28 528.32 900.39 432.44 1076.62 424.69 1033.15 557.46 916.50 643.30 1051.04 638.33
00003166 00000160 735.98 220.50 376.92 530.46 900.29 432.44 1074.89 426.70 1031.55 556.47 915.19 642.33 1050.34 638.89
00003167 00000161 734.08 221.21 377.86 530.68 901.16 430.78 1073.18 425.95 1031.01 555.27 914.99 639.32 1048.79 636.57
00003168 00000162 730.77 223.37 380.91 533.34 900.39 430.47 1070.74 428.14 1028.54 555.83 908.03 636.65 1044.43 636.23
00003169 00000163 729.64 227.42 382.73 535.83 901.78 428.75 1069.96 428.36 1029.71 555.14 906.25 636.85 1042.24 638.09
00003170 00000164 729.25 225.56 383.14 538.92 901.47 429.51 1069.28 430.00 1028.27 556.33 907.02 638.01 1041.62 639.80
00003171 00000165 728.91 226.10 383.60 537.99 901.20 429.73 1070.31 429.76 1029.05 556.93 907.91 639.31 1042.59 640.69
00003172 00000166 729.80 222.59 381.45 534.94 899.34 430.33 1069.84 429.95 1027.56 557.48 907.61 637.28 1042.87 638.47
00003173 00000167 730.71 217.58 380.56 536.40 899.59 431.81 1071.02 428.47 1029.64 558.83 907.90 636.78 1045.10 635.78
00003174 00000168 731.34 217.72 379.80 536.34 899.81 431.68 1070.60 428.55 1029.67 557.76 908.68 636.60 1045.66 635.69
