Video ID: 	T-SEuCCGFcA
H: 	1080
W: 	1920
FPS: 	25.0

FRAME INDEX X0 Y0 W H [Landmarks (5 Points)]

00009956 00000000 709.77 179.44 343.80 525.01 795.87 393.54 966.42 396.83 882.44 502.05 816.95 586.04 952.06 589.75
00009957 00000001 704.38 180.21 351.23 525.72 789.85 392.20 960.82 394.34 874.11 500.57 810.19 584.42 948.47 587.01
00009958 00000002 700.69 175.27 353.09 529.88 786.13 389.41 954.57 392.88 868.84 498.99 806.08 582.97 941.06 586.55
00009959 00000003 699.77 175.83 353.06 531.46 782.72 387.33 952.15 391.21 862.41 499.06 801.11 582.79 936.47 586.70
00009960 00000004 701.81 182.74 347.52 527.84 782.56 388.24 946.84 390.28 859.12 499.19 801.68 584.98 930.46 588.02
00009961 00000005 702.24 186.50 348.76 523.96 781.52 391.52 947.38 392.03 856.56 500.74 801.22 584.94 934.86 586.80
00009962 00000006 703.23 185.72 350.00 522.22 780.16 394.30 948.98 395.23 856.74 505.74 802.30 585.68 939.93 587.68
00009963 00000007 704.21 187.42 349.28 518.49 779.29 395.71 949.21 397.39 855.68 508.80 801.77 586.70 939.32 589.36
00009964 00000008 703.70 188.85 350.43 516.52 778.01 399.87 947.11 401.34 853.48 511.34 800.98 588.16 938.21 590.61
00009965 00000009 705.02 190.12 350.73 516.92 777.97 402.06 947.12 402.98 853.31 513.07 801.78 589.22 939.50 591.11
00009966 00000010 707.66 191.25 348.51 518.42 778.65 404.58 948.62 404.77 853.60 515.48 802.56 592.07 940.19 593.38
00009967 00000011 709.97 195.43 347.21 518.92 779.78 406.74 950.21 406.65 854.47 521.24 803.71 596.16 940.64 597.20
00009968 DELETE   710.70 195.68 333.29 516.72 781.65 407.73 947.79 410.72 857.71 524.59 803.97 600.00 935.02 603.21
00009969 DELETE   713.79 200.03 334.95 515.44 787.73 420.17 953.02 422.02 858.56 524.76 807.62 602.54 936.08 604.52
00009970 DELETE   715.97 200.16 335.96 517.93 792.76 420.99 959.90 422.06 865.58 525.52 813.48 603.95 941.15 605.47
00009971 00000015 716.60 197.49 339.05 518.78 792.95 419.36 957.36 420.39 865.66 527.66 816.40 602.41 944.06 603.77
00009972 00000016 716.46 194.85 340.10 520.59 790.96 413.12 957.03 412.47 866.41 526.24 819.24 601.60 945.57 601.53
00009973 00000017 717.20 194.82 339.38 519.63 791.03 410.16 956.19 409.46 866.45 523.23 821.27 599.62 945.29 599.38
00009974 00000018 717.40 196.17 339.91 516.53 790.00 407.81 954.31 407.54 865.57 521.21 819.67 597.48 943.54 597.63
00009975 00000019 719.74 197.55 334.97 509.08 791.37 411.50 951.64 408.53 865.22 520.21 817.13 593.54 941.19 590.99
00009976 00000020 720.26 195.57 334.44 508.86 790.28 409.47 950.38 407.41 863.18 518.54 813.88 588.45 943.42 586.19
00009977 00000021 718.87 192.23 340.73 516.92 790.34 406.61 955.20 407.91 857.64 512.21 806.69 587.80 946.70 589.36
00009978 00000022 719.04 190.19 341.10 519.04 790.98 401.47 955.33 404.76 856.70 507.05 804.12 583.69 945.25 586.89
00009979 00000023 719.71 187.53 341.41 521.42 787.58 398.95 951.64 400.31 853.32 506.12 803.67 585.36 943.70 586.87
00009980 00000024 721.40 183.86 338.24 526.82 787.08 395.74 953.30 396.47 853.13 506.32 805.26 586.59 944.21 587.65
00009981 00000025 721.47 183.08 338.44 529.31 787.57 396.31 954.47 397.30 853.71 506.40 805.27 587.19 943.42 588.47
00009982 00000026 723.13 182.69 338.41 529.29 789.11 396.95 956.00 398.32 854.14 506.52 805.72 587.46 943.56 589.15
00009983 00000027 727.89 184.75 339.02 529.95 797.63 400.20 962.98 407.74 858.10 507.93 808.94 582.75 950.29 590.43
00009984 00000028 730.77 183.42 338.04 538.10 800.69 399.72 965.07 406.38 861.41 509.95 815.17 587.53 951.84 594.71
00009985 00000029 734.50 183.89 338.07 540.84 802.19 400.32 966.51 405.92 861.46 511.25 817.08 589.64 954.60 596.08
00009986 00000030 736.53 183.80 339.54 541.69 802.42 402.33 967.87 405.52 862.02 512.11 819.13 592.65 957.35 597.15
00009987 00000031 738.00 183.82 340.04 540.22 803.45 403.83 970.46 405.97 864.50 513.13 821.81 593.67 960.59 597.30
00009988 00000032 739.50 183.50 340.32 539.81 804.66 405.33 972.27 407.04 866.27 512.71 823.45 593.31 962.95 596.56
00009989 00000033 741.18 182.63 340.87 540.35 806.04 406.31 973.43 408.12 867.39 513.63 825.15 592.91 965.09 596.17
00009990 00000034 742.93 182.00 341.24 541.36 807.50 407.33 974.43 408.96 867.77 515.85 827.10 593.70 966.66 596.79
00009991 00000035 745.03 182.41 341.44 540.50 809.47 407.43 975.65 409.17 869.32 516.51 828.52 593.23 968.22 596.45
00009992 00000036 746.92 185.70 339.83 536.80 810.69 407.23 977.24 408.93 870.13 516.26 829.12 592.49 969.76 595.75
00009993 00000037 748.47 187.09 340.52 535.38 811.88 406.99 978.23 408.75 870.76 516.18 829.76 591.88 970.89 595.18
00009994 00000038 748.82 186.68 341.37 535.97 812.64 406.54 978.47 408.71 871.22 515.77 829.68 591.47 970.94 595.15
00009995 00000039 749.33 186.36 341.33 536.25 813.02 406.38 978.32 409.09 870.92 515.80 829.45 591.21 970.57 595.33
00009996 00000040 749.34 185.23 341.23 537.50 813.34 406.33 978.69 409.45 871.36 516.22 829.37 591.03 970.71 595.48
00009997 00000041 749.66 184.69 341.50 537.63 813.71 406.10 978.68 409.23 871.51 515.78 829.32 590.86 970.45 595.35
00009998 00000042 749.53 184.15 341.93 537.83 813.83 405.47 978.74 408.51 871.47 515.15 829.10 590.82 969.84 595.28
00009999 00000043 749.34 183.79 341.91 537.31 813.77 405.08 978.50 408.35 871.35 514.91 828.99 590.64 969.29 595.29
00010000 00000044 748.95 182.50 342.13 538.23 813.20 404.13 978.50 407.41 870.82 514.49 828.25 590.73 968.72 595.39
00010001 00000045 748.93 181.40 341.73 538.73 813.50 403.48 977.18 407.42 870.33 514.12 828.08 590.81 965.25 596.16
00010002 00000046 747.81 179.26 340.03 539.81 813.72 402.06 975.62 407.15 869.88 513.41 827.44 592.41 957.79 599.15
00010003 00000047 747.01 176.83 338.38 543.48 813.36 401.45 975.33 406.66 869.84 512.49 826.77 593.73 954.87 600.66
00010004 00000048 746.42 175.71 336.33 545.03 812.67 400.98 972.94 407.14 868.29 514.01 826.53 595.55 950.95 603.33
00010005 00000049 745.76 175.49 335.75 546.03 812.21 400.88 972.21 406.79 867.96 514.48 826.54 597.13 949.02 604.83
00010006 00000050 745.18 175.72 335.15 545.52 811.36 400.73 971.15 406.66 867.03 514.36 826.00 597.40 947.96 605.17
00010007 00000051 743.57 176.54 336.36 544.55 810.38 400.15 969.98 406.42 866.29 513.73 824.93 597.35 946.23 605.35
00010008 00000052 742.74 175.53 336.08 545.33 809.86 399.77 969.18 406.79 865.76 513.55 824.38 597.80 944.27 606.44
00010009 00000053 741.75 176.13 336.07 544.76 808.99 399.06 969.01 406.62 864.88 513.09 822.38 597.73 942.41 606.92
00010010 00000054 740.97 176.28 336.55 543.51 808.35 398.39 970.03 405.99 865.52 512.09 821.89 596.58 943.62 605.70
00010011 00000055 739.43 176.48 336.30 543.13 807.60 397.36 970.07 405.06 865.89 511.37 821.74 596.15 943.30 605.27
00010012 00000056 737.91 175.91 337.75 542.98 807.56 397.31 970.41 404.08 868.44 509.64 823.89 596.99 943.92 605.16
00010013 00000057 740.10 177.71 340.13 538.13 810.56 397.38 976.67 402.32 874.51 507.66 829.31 594.77 952.47 601.24
00010014 00000058 742.73 180.35 341.36 532.91 815.67 396.09 982.65 399.12 883.87 505.40 835.61 594.63 959.67 599.52
00010015 00000059 745.64 181.59 343.40 528.79 818.41 394.23 986.49 395.64 888.99 503.35 840.28 594.05 965.03 597.56
00010016 00000060 745.84 180.75 344.47 528.56 817.98 392.24 984.73 394.25 887.56 500.61 837.88 587.56 967.08 591.31
00010017 00000061 744.79 179.65 341.38 526.85 812.81 391.34 981.04 394.61 878.10 496.42 827.83 578.96 969.14 583.59
00010018 00000062 735.58 175.34 338.04 521.06 806.31 390.22 973.36 391.74 876.14 494.11 821.05 568.90 964.01 570.25
00010019 00000063 737.64 174.89 337.40 516.44 808.39 388.15 976.39 389.24 880.65 493.32 821.24 563.00 973.22 563.36
00010020 00000064 741.51 180.84 338.47 502.74 813.21 385.99 980.94 384.48 890.49 489.80 823.54 554.74 979.32 554.38
00010021 00000065 742.86 172.62 350.75 514.33 813.51 383.75 984.67 387.62 884.60 484.94 821.61 555.82 985.24 560.83
00010022 00000066 743.60 175.91 341.95 502.12 813.77 380.04 983.48 381.68 888.70 483.78 820.85 547.11 980.59 549.15
00010023 00000067 746.18 174.75 341.50 502.14 816.04 378.99 985.16 379.68 891.18 483.36 824.61 548.60 982.74 550.14
00010024 00000068 751.04 165.49 349.62 521.54 820.09 382.39 991.28 383.11 889.81 480.75 831.80 561.03 989.22 563.34
00010025 00000069 757.99 163.35 344.34 536.29 825.71 378.18 994.49 377.92 894.11 478.05 840.76 566.93 988.31 568.06
00010026 00000070 758.48 161.85 342.38 537.11 824.96 376.89 994.16 378.50 891.78 482.45 839.64 569.97 980.64 573.00
00010027 00000071 759.77 161.12 342.40 533.49 828.25 376.10 995.05 379.13 895.43 484.60 844.08 570.43 977.47 574.63
00010028 00000072 761.53 159.39 342.00 532.39 832.22 374.76 996.84 379.47 901.26 483.59 849.42 570.25 976.38 575.62
00010029 00000073 761.84 158.76 340.83 531.03 833.38 372.32 996.79 377.57 903.16 480.60 850.76 569.64 973.57 575.68
00010030 00000074 762.57 157.77 340.23 530.66 833.24 371.64 996.95 376.51 902.75 480.13 850.98 568.87 973.59 574.74
00010031 00000075 762.39 158.06 343.31 532.35 830.93 374.52 999.01 378.94 899.83 483.62 844.44 568.01 980.65 573.34
00010032 00000076 762.76 158.48 343.94 531.43 832.24 376.05 999.96 380.71 902.23 486.33 846.20 568.75 982.46 573.95
00010033 00000077 762.81 159.10 342.72 530.31 833.57 375.14 998.49 380.38 904.14 486.81 849.95 570.92 977.14 576.76
00010034 00000078 759.60 159.86 343.54 527.75 829.57 377.11 994.68 382.08 898.32 487.51 847.63 570.97 974.96 576.45
00010035 00000079 757.63 163.29 344.98 524.60 827.98 378.65 992.67 384.44 896.13 488.97 845.14 569.47 974.31 575.62
00010036 00000080 758.28 165.75 346.35 523.55 829.66 379.69 993.84 385.40 898.30 490.75 846.37 569.32 976.44 575.27
00010037 00000081 758.16 166.27 345.72 523.92 830.03 381.34 993.12 387.01 899.43 491.30 847.25 570.28 976.89 576.10
00010038 00000082 757.16 166.37 343.83 524.96 828.02 384.42 989.14 391.39 895.18 490.53 845.69 571.40 972.63 578.30
00010039 00000083 755.08 168.79 343.61 527.27 825.77 386.01 986.50 391.98 892.42 490.13 843.49 572.90 970.67 579.09
00010040 00000084 754.64 171.06 344.31 530.85 825.43 387.63 987.20 392.59 891.81 491.56 841.13 574.39 972.76 579.91
00010041 00000085 753.67 171.85 345.35 530.93 823.93 389.39 986.55 393.08 891.26 492.39 839.06 573.21 976.39 577.59
00010042 00000086 751.64 174.46 345.27 529.19 822.55 392.34 986.00 396.47 889.64 494.36 834.88 572.16 978.91 576.98
00010043 00000087 751.16 175.62 343.58 532.98 822.81 394.41 985.47 398.99 889.83 496.41 834.82 574.05 978.92 579.31
00010044 00000088 750.33 178.49 346.48 528.80 823.44 396.10 984.63 400.47 890.89 499.16 838.41 578.20 975.45 583.57
00010045 00000089 749.45 179.15 347.30 527.95 822.13 399.44 984.72 403.27 890.65 505.01 837.67 580.52 976.56 585.33
00010046 00000090 748.63 181.61 348.46 526.98 820.64 402.03 984.43 404.54 889.41 508.99 835.97 582.83 976.80 586.56
00010047 00000091 749.81 183.35 346.23 526.43 821.65 403.40 983.29 406.58 889.60 512.98 838.36 585.10 974.48 589.51
00010048 00000092 750.82 185.04 345.86 527.34 822.66 405.77 984.19 407.57 891.10 516.20 843.25 591.80 973.00 595.50
00010049 00000093 752.55 186.80 343.26 530.22 823.68 407.88 983.67 409.68 890.74 519.21 846.26 598.86 968.98 603.06
00010050 00000094 752.30 189.59 344.65 529.77 822.78 409.17 984.98 411.01 890.29 521.89 844.92 598.74 972.08 602.67
00010051 00000095 751.40 191.73 345.37 527.29 822.05 410.26 985.49 412.43 890.34 524.05 844.21 598.32 974.54 602.27
00010052 00000096 751.92 193.82 345.83 525.93 821.77 411.44 986.42 413.22 890.54 526.44 844.60 598.88 977.10 602.27
00010053 00000097 752.36 195.63 345.46 524.24 821.73 412.35 987.10 414.28 890.80 528.98 844.72 599.32 978.72 602.76
00010054 00000098 752.26 195.48 345.97 525.05 821.61 412.70 987.55 414.85 890.83 529.96 844.73 599.91 979.16 603.46
00010055 00000099 752.83 195.78 346.21 525.58 822.39 413.30 988.39 415.02 891.78 530.25 845.41 600.50 979.85 603.78
00010056 00000100 754.01 195.32 347.31 525.46 823.64 412.93 990.22 414.32 893.52 530.68 845.27 600.35 980.18 603.44
00010057 00000101 753.58 195.36 347.64 524.28 823.48 414.40 990.50 416.31 893.41 530.96 844.53 599.59 980.92 602.90
00010058 00000102 753.56 195.70 346.00 522.68 823.66 415.92 990.81 420.08 892.83 530.98 842.99 598.24 980.57 603.23
00010059 00000103 753.59 198.35 345.62 519.02 823.84 416.92 990.80 420.62 893.31 531.20 843.71 597.91 981.12 602.48
00010060 00000104 754.21 199.51 345.17 517.93 823.87 417.69 990.75 421.13 893.71 532.11 844.07 598.24 981.58 602.49
00010061 00000105 754.49 199.36 345.03 518.79 823.80 418.20 991.00 421.53 894.37 533.48 844.83 599.26 982.33 603.39
00010062 00000106 755.01 200.31 344.64 518.30 824.72 419.48 991.11 423.04 895.35 535.33 846.85 600.72 982.32 605.09
00010063 00000107 755.63 201.09 343.28 519.80 826.79 421.75 990.81 424.77 898.55 537.84 852.57 605.04 981.14 608.99
00010064 00000108 755.92 202.19 343.27 521.45 826.42 422.79 991.53 425.71 898.66 538.50 852.70 606.72 982.47 610.60
00010065 00000109 755.56 202.14 343.57 522.39 826.35 423.07 991.90 426.08 898.85 538.78 852.77 607.18 983.02 611.16
00010066 00000110 755.48 203.51 345.08 521.89 826.50 421.65 992.36 423.90 899.85 539.61 853.91 607.82 983.87 611.35
00010067 00000111 755.26 203.95 346.03 521.42 827.45 420.74 992.95 422.90 901.51 539.94 855.35 608.67 982.80 612.29
00010068 00000112 755.35 204.36 345.55 519.85 828.29 420.48 992.51 422.79 902.55 540.06 856.67 609.48 979.79 613.25
00010069 00000113 755.11 204.44 346.21 519.18 828.68 419.86 992.64 422.01 903.49 540.35 857.43 610.34 978.32 614.10
00010070 00000114 755.41 203.45 345.58 519.72 829.17 419.82 992.62 422.16 904.13 540.50 858.54 610.90 977.81 614.80
00010071 00000115 755.42 203.38 345.39 519.45 829.09 419.04 993.44 421.42 904.41 539.65 858.10 610.55 977.97 614.53
00010072 00000116 755.35 202.97 345.23 519.71 829.38 418.96 993.58 421.25 905.02 539.55 858.69 610.57 978.30 614.48
00010073 00000117 755.49 202.73 344.89 519.82 829.66 418.88 993.90 421.38 905.23 539.57 858.83 610.36 978.79 614.39
00010074 00000118 755.78 203.28 344.83 519.03 829.52 418.87 993.91 421.30 905.13 539.92 858.85 610.33 979.01 614.29
00010075 00000119 755.57 204.03 344.42 518.04 829.26 419.12 993.71 421.66 905.14 540.06 858.65 610.17 978.95 614.21
00010076 00000120 755.60 203.96 344.50 518.30 829.28 419.36 993.63 422.02 904.90 540.24 858.61 610.25 978.73 614.38
00010077 00000121 755.63 204.51 344.45 517.52 829.45 419.42 993.69 422.19 905.01 540.33 858.56 610.13 978.61 614.37
00010078 00000122 756.12 205.27 344.56 516.86 830.10 419.90 994.48 422.77 904.95 540.48 858.68 610.06 979.34 614.39
00010079 00000123 756.11 204.87 345.42 517.72 829.99 420.02 995.42 423.23 904.42 540.33 858.43 610.14 980.37 614.65
00010080 00000124 756.08 205.46 346.07 517.12 830.55 420.64 995.34 423.35 905.70 540.14 859.61 610.35 981.24 614.41
00010081 00000125 756.63 204.84 346.38 518.30 831.14 420.85 996.31 423.83 906.27 540.67 860.09 610.36 982.63 614.57
00010082 00000126 757.77 205.44 346.78 517.84 831.81 420.41 997.13 423.87 905.85 541.17 859.62 609.71 982.97 614.36
00010083 00000127 758.67 206.00 346.97 518.45 832.06 420.85 997.63 424.73 905.34 541.24 858.74 609.02 984.43 613.96
00010084 00000128 759.69 205.75 346.25 519.66 832.06 420.41 998.53 424.99 904.71 541.06 856.92 607.53 985.80 613.01
00010085 00000129 760.72 206.31 346.24 519.10 832.87 420.94 999.43 426.05 904.74 541.13 856.79 606.58 986.85 612.34
00010086 00000130 760.92 206.27 346.39 518.26 832.98 420.65 999.32 425.50 905.10 540.96 857.26 606.13 987.31 611.62
00010087 00000131 760.07 205.77 347.17 518.02 832.78 419.78 999.53 424.16 905.25 539.95 856.44 604.69 988.24 609.84
00010088 00000132 759.95 205.76 347.70 517.32 832.75 419.96 999.31 424.16 905.20 539.76 856.35 604.16 988.46 609.14
00010089 00000133 759.88 205.82 347.52 516.50 832.78 420.17 999.32 424.39 905.49 540.02 856.61 604.10 988.76 609.05
00010090 00000134 759.81 205.76 347.88 516.14 832.80 420.26 999.23 424.44 905.51 540.01 856.65 603.99 988.54 608.89
00010091 00000135 758.63 204.26 348.88 515.65 832.59 418.93 999.39 422.77 905.67 539.45 855.78 602.92 987.93 607.64
00010092 00000136 758.04 202.10 348.96 515.77 832.14 417.32 999.43 420.69 905.84 538.64 855.46 601.62 988.72 605.94
00010093 00000137 757.21 200.80 349.04 514.78 832.12 415.64 999.52 418.69 906.33 537.70 855.32 600.35 988.96 604.49
00010094 00000138 757.62 200.24 349.57 514.46 832.38 415.61 999.97 418.31 906.65 537.31 855.57 600.17 989.63 604.05
00010095 00000139 758.27 199.87 349.70 514.76 832.30 415.98 1000.63 418.76 906.30 537.97 855.83 600.29 990.83 604.12
00010096 00000140 757.52 201.15 350.00 514.11 831.86 417.08 1000.60 419.98 906.57 538.68 855.94 601.11 991.03 604.99
00010097 00000141 757.48 201.37 349.69 513.90 832.03 416.75 1000.59 419.66 906.90 538.57 855.97 600.78 990.98 604.74
00010098 00000142 757.85 200.09 349.71 514.44 832.06 416.91 1000.51 419.87 906.74 538.45 855.85 600.32 991.25 604.23
00010099 00000143 758.25 199.23 349.31 514.40 832.08 416.47 1000.22 419.16 906.43 537.70 856.28 600.41 990.92 604.08
00010100 00000144 757.90 199.47 349.88 514.12 832.09 416.48 1000.18 419.21 906.58 537.85 856.09 600.28 990.87 604.03
00010101 00000145 757.95 201.08 349.66 513.96 832.03 417.16 1000.50 419.88 906.82 538.63 856.41 601.08 991.34 604.81
00010102 00000146 757.77 203.22 349.55 512.97 831.66 418.63 1000.31 421.79 906.31 539.47 856.78 602.61 990.56 606.63
00010103 00000147 757.86 204.92 349.51 512.38 831.96 420.18 999.63 423.63 906.14 540.25 856.97 603.20 989.84 607.44
00010104 00000148 757.94 205.06 349.34 512.40 832.15 420.35 999.62 423.82 906.34 540.46 857.23 603.30 989.86 607.55
00010105 00000149 757.48 204.06 349.76 512.71 832.02 419.05 1000.43 422.60 906.42 539.90 856.74 602.84 990.30 607.20
00010106 00000150 757.40 202.00 349.54 514.45 831.93 418.84 1000.56 421.59 907.03 539.49 857.74 603.32 991.64 607.03
00010107 00000151 757.75 201.52 347.81 517.20 832.43 418.17 1000.23 421.33 908.74 540.70 858.78 604.87 990.53 609.09
00010108 00000152 759.01 203.79 346.21 521.16 833.85 420.33 998.79 422.81 909.70 541.71 862.07 609.44 987.86 613.22
00010109 00000153 759.48 201.92 346.02 525.15 834.19 420.61 999.82 422.98 911.26 541.19 862.54 610.53 989.05 614.13
00010110 00000154 759.64 200.73 345.52 521.40 834.16 420.03 1000.05 422.89 910.77 539.93 861.12 606.83 990.22 610.67
00010111 00000155 759.89 200.16 348.15 520.46 835.29 419.62 1002.86 420.95 912.54 538.01 861.22 604.38 994.70 606.76
00010112 00000156 763.53 204.49 345.91 520.71 839.20 421.20 1007.82 422.12 917.69 538.70 862.07 602.34 1002.53 604.45
00010113 DELETE   769.75 213.39 339.44 518.40 846.09 434.28 1008.58 432.05 923.49 542.53 869.74 607.95 1007.42 606.87
00010114 DELETE   768.76 218.45 341.63 517.27 848.96 443.47 1012.40 438.58 928.64 550.71 875.93 618.79 1009.79 615.16
00010115 DELETE   769.05 221.13 344.95 518.08 848.76 445.73 1012.71 443.45 927.86 558.58 877.61 625.33 1008.70 623.44
00010116 00000160 769.43 216.44 337.98 532.24 851.78 443.46 1015.30 447.85 935.36 563.66 873.32 631.09 1008.05 635.63
00010117 00000161 770.45 228.29 344.04 518.22 852.48 449.21 1014.31 447.88 931.20 566.02 881.93 632.66 1008.65 631.26
00010118 00000162 768.20 222.36 338.66 529.39 851.74 443.86 1017.97 449.59 935.70 567.32 872.24 635.16 1005.82 640.99
00010119 00000163 768.20 221.76 339.86 528.91 851.33 441.67 1018.35 446.21 937.28 565.46 874.72 634.56 1008.42 639.43
00010120 00000164 767.19 218.74 341.65 531.90 851.12 438.38 1019.36 442.93 938.40 562.69 874.41 630.61 1012.69 635.29
00010121 00000165 769.45 212.81 340.04 533.64 852.34 434.89 1020.08 439.15 938.93 558.46 875.30 625.07 1015.33 629.08
00010122 00000166 770.63 210.70 338.34 531.81 855.21 432.03 1020.44 436.10 940.79 551.16 878.26 620.90 1014.90 624.57
00010123 00000167 770.94 208.28 339.21 533.27 856.30 429.54 1021.23 433.70 942.28 548.23 880.03 618.64 1014.37 622.11
00010124 00000168 770.84 207.98 342.40 531.41 856.34 429.48 1022.35 432.60 942.47 547.20 881.12 618.48 1013.44 621.04
00010125 00000169 771.65 208.47 342.82 527.90 857.60 430.23 1023.17 432.70 943.16 547.67 882.49 619.15 1011.40 621.39
00010126 00000170 772.55 209.07 342.37 526.55 859.06 430.07 1023.40 432.89 943.18 546.58 882.59 618.92 1009.20 621.51
