Video ID: 	Z8MB8OuwqmA
H: 	1080
W: 	1920
FPS: 	25.0

FRAME INDEX X0 Y0 W H [Landmarks (5 Points)]

00003709 00000000 637.13 71.99 474.32 704.20 722.73 348.21 952.03 352.33 807.78 457.47 730.41 596.32 918.33 601.26
00003710 00000001 634.57 75.97 474.85 699.40 713.74 347.59 944.98 351.03 795.68 459.89 723.53 597.62 913.31 601.98
00003711 DELETE   629.71 78.17 475.68 696.59 707.73 350.98 937.95 352.40 786.70 461.42 717.87 599.80 907.91 602.31
00003712 00000003 628.55 78.00 477.26 695.11 702.37 350.05 933.09 349.16 779.11 460.96 714.40 601.83 903.03 602.11
00003713 00000004 624.69 75.50 478.40 695.32 698.13 348.79 928.03 347.44 773.34 460.92 709.61 601.18 897.84 600.79
00003714 00000005 621.12 75.58 480.85 694.00 695.19 345.98 924.71 345.79 770.20 460.37 707.19 599.55 893.90 599.96
00003715 00000006 617.17 75.45 483.97 693.01 691.83 344.46 921.78 345.08 766.11 459.17 703.83 598.15 889.59 599.13
00003716 00000007 615.50 75.36 482.49 690.33 688.66 343.71 917.98 344.08 761.27 457.77 700.68 597.93 885.06 598.57
00003717 00000008 614.44 89.52 479.45 682.76 688.00 346.07 913.89 346.54 757.96 459.62 697.95 597.64 886.66 597.11
00003718 00000009 614.25 92.69 477.98 678.59 687.20 346.88 913.02 347.96 757.34 462.00 697.21 597.32 884.07 597.56
00003719 00000010 614.62 93.97 476.94 675.63 688.03 347.78 913.32 349.78 757.78 463.91 698.13 599.02 879.71 600.31
00003720 00000011 614.07 95.66 475.49 673.57 689.19 344.12 911.71 349.81 757.04 465.98 698.70 598.06 872.19 602.91
00003721 00000012 614.29 93.95 470.63 674.78 686.93 344.85 908.14 350.19 755.38 469.11 696.03 600.79 866.71 605.86
00003722 00000013 610.73 92.37 466.54 673.70 683.43 341.61 902.84 348.58 754.87 467.68 693.06 600.56 861.44 606.42
00003723 00000014 610.06 92.62 464.87 675.46 681.52 342.35 899.49 349.89 751.50 468.77 690.94 603.29 855.50 609.79
00003724 00000015 609.85 95.75 463.17 674.36 680.83 344.21 897.73 351.51 749.88 468.25 689.43 606.13 851.01 612.59
00003725 00000016 609.17 98.15 462.24 674.07 680.32 344.60 896.15 351.33 748.60 467.78 689.10 606.94 848.94 613.05
00003726 00000017 609.86 100.85 464.89 677.34 678.96 346.76 897.08 350.34 747.82 471.83 688.94 607.94 851.61 612.46
00003727 00000018 608.64 99.52 467.36 680.59 677.94 347.02 896.52 349.12 745.62 470.59 689.01 608.24 854.83 611.36
00003728 00000019 607.28 97.42 468.09 682.08 677.33 344.86 895.87 346.85 743.52 467.69 688.66 606.20 854.77 609.27
00003729 00000020 605.48 94.84 469.81 683.27 676.60 341.24 895.08 344.90 740.61 464.77 686.77 602.56 853.01 607.19
00003730 00000021 602.13 85.89 466.04 681.26 674.64 335.63 887.32 341.66 737.29 456.36 682.45 593.49 843.15 599.35
00003731 00000022 609.69 75.24 461.73 687.08 671.15 333.04 882.15 336.54 731.76 449.16 678.66 591.34 835.29 596.69
00003732 00000023 601.47 74.73 467.39 682.49 671.91 327.69 886.24 333.81 734.94 446.04 678.25 585.80 841.34 591.59
00003733 00000024 599.74 71.55 468.21 680.62 669.31 326.60 884.25 332.18 731.43 443.71 675.86 582.38 841.17 587.45
00003734 00000025 601.06 62.27 465.08 683.99 665.57 327.23 877.01 330.09 723.44 438.62 671.27 579.68 833.29 584.23
00003735 00000026 590.77 72.65 471.33 667.03 658.81 320.97 880.21 330.06 724.47 439.34 668.40 577.67 832.71 586.68
00003736 00000027 584.30 72.09 470.71 668.21 653.93 320.17 875.87 329.97 719.12 440.08 663.43 577.83 828.06 587.40
00003737 00000028 582.73 69.46 469.44 671.44 651.74 322.39 872.14 331.32 714.82 439.89 658.78 578.84 823.86 587.81
00003738 00000029 579.36 69.30 469.75 671.67 648.32 323.79 868.43 332.73 710.97 441.92 654.91 580.05 820.32 588.79
00003739 00000030 577.45 60.23 471.24 688.23 646.06 332.51 858.17 333.57 703.63 441.01 652.18 580.77 816.64 583.81
00003740 00000031 576.42 59.57 471.56 685.98 644.20 330.99 855.63 331.43 699.85 439.05 650.02 579.06 814.48 581.59
00003741 00000032 575.18 58.30 472.20 684.89 641.48 328.87 854.00 329.84 695.81 436.43 646.33 576.99 812.39 579.86
00003742 00000033 574.51 57.16 472.58 685.64 640.62 327.36 852.81 329.38 693.13 435.53 644.77 575.39 811.47 579.06
00003743 00000034 574.61 58.03 472.66 686.80 640.98 327.00 853.02 329.57 692.44 435.81 644.92 575.39 811.80 579.54
00003744 00000035 576.11 57.68 472.56 691.76 641.87 327.50 853.01 329.67 691.71 435.92 645.31 577.17 811.46 581.14
00003745 00000036 578.61 59.17 471.00 696.69 643.39 328.07 853.37 329.80 692.66 436.16 646.57 579.46 812.12 583.18
00003746 00000037 578.72 58.70 470.29 699.00 644.73 328.26 854.47 330.65 693.66 435.71 646.87 579.70 812.21 583.97
00003747 00000038 577.37 54.22 473.84 695.31 646.93 329.23 852.94 329.57 692.91 432.98 648.82 577.54 807.81 580.24
00003748 00000039 580.48 53.17 471.91 691.13 646.65 332.39 849.35 329.63 690.20 429.49 649.63 578.70 800.80 579.00
00003749 00000040 578.93 52.08 472.74 689.92 646.45 329.02 849.21 326.84 691.91 430.10 650.61 577.42 799.99 578.30
00003750 00000041 577.41 54.03 474.50 690.66 646.25 329.38 852.30 327.23 694.24 431.51 649.46 580.22 800.44 581.22
00003751 00000042 577.50 55.35 475.73 696.53 644.83 332.40 852.73 327.06 695.87 434.08 650.83 587.20 802.94 585.43
00003752 00000043 576.04 74.71 479.48 679.09 644.84 334.01 856.40 326.74 705.65 433.08 659.28 593.11 810.13 590.09
00003753 00000044 576.38 74.95 480.18 685.82 645.22 337.77 858.04 328.23 707.57 438.25 663.47 598.86 817.14 593.70
00003754 00000045 575.73 75.92 482.52 689.72 644.78 339.30 857.90 328.14 706.73 440.32 665.16 601.83 819.89 595.17
00003755 00000046 575.26 74.33 482.83 691.99 643.51 339.13 857.01 325.94 706.80 439.64 665.63 602.47 821.80 594.08
00003756 00000047 579.03 59.51 477.79 708.92 643.68 341.15 849.78 324.25 697.09 438.50 660.41 601.64 813.22 589.95
00003757 00000048 575.95 56.60 478.71 708.16 640.05 338.19 847.12 322.14 693.75 435.84 656.61 598.06 811.45 587.01
00003758 00000049 575.11 54.33 478.22 706.49 638.76 335.12 846.32 320.52 690.73 432.97 653.92 594.06 809.94 584.22
00003759 00000050 574.90 53.54 475.98 704.84 637.35 332.09 844.75 319.97 687.68 431.34 651.00 590.24 809.12 582.35
00003760 00000051 572.27 53.94 476.34 703.21 635.83 330.30 843.54 319.54 685.54 430.65 649.37 587.23 809.11 580.33
00003761 00000052 565.77 62.05 482.84 692.31 633.53 326.75 844.56 316.14 686.99 426.93 647.09 586.96 812.21 581.40
00003762 00000053 565.15 64.29 482.90 688.48 632.90 327.14 844.03 315.99 687.17 426.91 647.22 586.87 811.98 581.00
00003763 00000054 565.13 66.47 482.73 682.27 634.50 328.66 844.39 317.89 690.35 427.90 649.78 588.33 801.89 582.90
00003764 00000055 567.85 67.53 477.34 677.66 632.71 329.89 845.33 319.61 689.47 432.62 646.42 591.81 799.63 586.66
00003765 00000056 570.74 61.41 473.31 682.72 635.27 327.24 849.11 322.26 688.85 431.96 646.44 591.37 793.30 588.76
00003766 00000057 571.52 62.04 473.49 681.29 636.47 327.26 850.83 322.88 691.79 433.87 648.17 591.43 795.32 589.25
00003767 00000058 570.95 55.81 476.85 697.40 638.05 333.45 846.56 322.66 693.34 437.07 651.57 592.86 799.25 586.14
00003768 00000059 570.23 56.18 478.42 697.28 639.58 335.50 845.07 325.43 692.83 437.23 652.12 592.08 798.33 585.96
00003769 00000060 569.54 64.48 476.19 678.50 637.88 331.14 847.73 327.99 691.09 436.62 650.15 591.48 794.81 589.97
00003770 00000061 568.04 64.04 475.80 677.14 635.67 330.55 846.79 328.53 688.99 436.32 646.68 589.48 794.14 588.91
00003771 00000062 567.33 63.29 475.78 675.32 633.16 328.51 845.10 326.87 686.07 435.74 644.99 587.91 792.60 587.69
00003772 00000063 565.51 63.16 476.16 675.79 631.15 327.81 842.60 327.20 683.32 436.28 643.54 587.10 791.35 587.65
00003773 00000064 563.55 63.25 475.65 674.62 627.91 328.88 839.45 327.74 680.82 439.29 642.39 587.72 790.78 587.78
00003774 00000065 562.87 65.03 473.79 670.29 625.71 330.40 837.11 330.05 678.21 440.62 640.15 586.89 789.97 587.44
00003775 00000066 562.06 64.81 473.21 666.34 623.05 329.80 834.89 331.51 675.30 441.39 636.52 582.62 790.80 584.72
00003776 00000067 561.58 64.12 472.09 659.44 622.53 327.68 834.37 331.32 674.61 439.11 635.76 577.63 789.50 581.29
00003777 00000068 560.14 64.38 473.60 656.07 621.49 327.35 834.19 330.99 673.83 438.66 634.81 575.58 789.31 579.20
00003778 00000069 559.40 63.65 474.73 654.38 620.82 326.66 833.94 331.13 672.73 438.60 633.67 574.37 788.19 578.64
00003779 00000070 557.63 64.54 474.73 652.05 618.86 326.18 832.17 330.47 670.65 437.35 631.29 572.64 785.76 576.86
00003780 00000071 555.24 63.69 475.01 650.29 617.61 326.95 828.78 330.40 667.88 436.56 629.37 571.30 782.67 574.81
00003781 00000072 552.08 66.56 475.85 650.76 614.72 327.81 826.19 332.05 663.93 438.90 626.30 573.72 779.43 577.76
00003782 00000073 549.99 69.42 476.90 652.32 612.45 329.89 824.44 333.17 662.32 443.30 625.11 578.64 777.86 581.79
00003783 00000074 548.06 73.52 478.54 649.83 611.62 331.10 824.08 334.19 661.94 446.88 625.12 581.28 777.35 584.17
00003784 00000075 548.79 75.46 478.97 648.42 611.61 332.49 825.25 334.98 662.38 449.05 625.44 583.50 778.18 585.85
00003785 00000076 551.20 75.90 477.17 648.62 612.57 332.84 827.87 337.33 665.15 450.14 626.00 583.48 781.20 587.55
00003786 00000077 550.58 66.89 483.32 668.72 618.16 337.69 830.84 342.12 671.96 452.80 627.84 584.53 792.53 588.49
00003787 00000078 549.64 73.85 483.52 654.67 616.27 331.88 831.42 341.84 669.75 452.23 627.10 573.84 791.02 582.24
00003788 00000079 549.03 67.90 489.04 666.40 622.82 335.09 833.50 344.61 674.28 451.65 629.45 569.79 801.68 577.74
00003789 00000080 551.51 65.69 487.88 666.77 624.94 333.09 834.24 344.41 674.59 450.11 629.74 566.86 801.37 576.32
00003790 00000081 552.13 66.92 486.84 664.79 626.09 331.54 834.09 344.25 674.18 448.52 629.75 564.94 798.74 575.63
00003791 00000082 551.81 71.04 483.47 656.78 621.06 327.35 832.91 341.39 669.91 446.39 627.06 564.27 791.86 575.88
00003792 00000083 551.29 71.73 483.77 655.97 619.69 327.18 831.90 340.79 668.48 446.57 626.56 565.49 791.01 576.74
00003793 00000084 553.52 71.17 480.82 652.32 616.82 326.91 830.50 339.60 666.55 448.03 625.20 569.17 787.67 579.93
00003794 00000085 551.31 65.95 484.94 669.51 620.24 336.35 833.00 343.56 672.36 452.29 626.08 581.73 793.65 588.05
00003795 00000086 554.45 68.95 482.87 674.50 621.95 343.20 834.01 347.81 675.28 456.89 628.75 587.23 797.92 591.69
00003796 00000087 557.13 70.86 482.51 682.27 626.41 346.34 834.53 347.40 678.19 456.08 635.04 591.29 798.88 593.18
00003797 00000088 559.80 81.99 482.69 682.35 629.25 341.58 837.60 342.74 678.15 460.10 635.27 596.06 797.61 599.32
00003798 00000089 562.86 82.49 482.67 686.41 629.99 342.50 839.14 342.77 679.62 461.78 637.17 599.69 802.77 602.13
00003799 00000090 564.07 81.98 484.13 689.36 631.63 341.55 841.12 341.87 681.71 461.30 639.28 599.95 805.76 602.42
00003800 00000091 566.24 80.82 484.30 690.97 632.23 342.35 843.72 341.68 683.45 460.13 640.14 599.56 810.45 601.14
00003801 00000092 566.50 80.30 484.03 692.25 632.70 343.71 845.39 340.47 686.94 459.39 642.79 600.75 813.86 600.10
00003802 00000093 565.97 80.54 486.89 699.01 634.62 347.19 847.80 341.01 689.73 460.10 648.28 605.50 819.25 602.31
00003803 00000094 567.36 88.19 487.31 697.37 637.98 352.47 850.45 344.59 695.37 462.71 654.79 611.77 822.32 606.93
00003804 00000095 570.43 92.32 482.99 690.71 642.68 358.84 853.28 349.76 703.63 466.38 664.03 616.26 818.20 610.79
00003805 00000096 578.06 97.72 476.51 684.83 651.55 361.58 863.27 356.94 717.00 471.95 671.13 614.16 827.95 612.30
00003806 00000097 595.81 102.28 466.20 675.43 664.36 360.39 881.39 359.28 734.64 471.79 683.16 613.22 835.64 614.84
00003807 00000098 606.36 104.67 470.67 674.93 681.72 352.69 905.46 354.54 758.29 476.55 695.61 612.14 859.78 615.12
00003808 00000099 612.66 102.15 474.07 674.34 693.84 347.70 922.80 350.17 777.81 466.61 711.03 609.53 877.12 612.03
00003809 00000100 615.39 93.51 479.65 677.71 698.01 345.86 931.77 349.03 785.11 459.03 711.99 605.87 885.97 608.32
00003810 00000101 617.79 89.04 478.74 674.33 698.54 342.64 933.03 345.32 785.91 453.32 713.48 601.78 889.78 603.52
00003811 00000102 617.61 86.01 474.81 670.56 699.45 337.68 925.62 339.23 782.85 448.46 713.02 593.25 884.99 594.26
00003812 00000103 616.41 83.38 473.84 672.65 697.18 336.96 922.92 338.72 780.39 449.29 710.06 593.16 881.99 594.59
00003813 00000104 615.01 86.67 474.72 673.61 695.89 338.37 922.43 341.49 777.90 452.55 706.12 594.39 881.41 596.94
00003814 00000105 610.99 93.11 478.35 675.96 691.13 343.00 924.14 346.22 774.08 454.90 704.52 602.63 882.65 604.91
00003815 00000106 608.50 94.54 477.72 675.57 690.17 344.33 922.55 347.51 773.90 454.83 704.23 602.57 880.92 604.83
00003816 00000107 607.44 94.76 476.19 672.43 688.88 345.54 920.80 348.68 773.61 457.44 702.78 601.07 877.30 603.77
00003817 00000108 608.17 91.47 468.49 665.70 690.69 340.91 917.57 346.55 774.08 456.47 698.31 594.92 874.42 599.47
CROP_BBOX: 268 0 1390 1014
