Video ID: 	K_fsNDjhwks
H: 	1080
W: 	1920
FPS: 	25.0

FRAME INDEX X0 Y0 W H [Landmarks (5 Points)]

00082969 00000000 671.84 178.09 379.37 515.38 774.23 397.87 947.44 365.90 883.81 477.98 841.00 600.78 963.20 572.88
00082970 00000001 678.38 175.87 377.58 517.44 778.08 398.74 954.76 367.47 886.59 478.09 841.96 602.19 968.22 575.04
00082971 00000002 684.83 177.46 373.86 517.84 782.05 398.16 959.97 370.18 887.14 480.46 841.24 602.94 968.59 578.82
00082972 00000003 688.17 176.47 372.78 517.67 784.71 398.33 962.76 369.49 890.57 480.67 844.33 602.55 972.03 577.84
00082973 00000004 688.13 184.63 374.39 518.21 791.58 394.31 959.22 369.33 896.47 476.86 855.74 600.20 973.85 579.88
00082974 00000005 691.63 188.61 372.79 515.20 795.23 397.45 964.30 372.67 901.12 475.63 859.22 599.44 980.51 579.19
00082975 00000006 691.92 189.22 373.04 516.63 796.08 397.47 965.58 371.73 903.12 475.92 862.48 600.89 982.37 579.86
00082976 00000007 689.47 188.07 373.11 518.86 793.56 395.37 963.69 369.94 901.92 473.60 860.22 599.36 980.58 578.57
00082977 DELETE   684.29 177.80 376.50 523.01 784.71 399.37 960.07 367.96 891.39 476.33 844.59 602.07 973.26 575.17
00082978 DELETE   676.92 173.16 378.58 522.87 772.98 396.54 950.86 366.78 877.72 478.16 833.60 601.62 962.82 575.51
00082979 00000010 672.88 174.49 377.77 520.06 766.19 394.96 943.18 365.15 869.71 476.64 828.66 601.92 955.01 575.91
00082980 00000011 669.80 170.20 377.12 521.80 763.04 392.19 939.88 363.54 866.51 473.43 825.52 599.42 951.43 574.22
00082981 00000012 667.15 170.89 375.81 522.64 762.17 391.75 937.04 362.16 865.91 471.33 825.94 600.14 949.02 574.29
00082982 00000013 664.33 169.33 376.18 526.79 761.45 392.16 935.92 362.32 868.07 470.14 826.86 600.52 950.07 574.46
00082983 DELETE   661.54 167.84 376.10 530.24 761.53 392.19 934.53 363.90 869.51 470.56 827.92 599.95 950.44 575.01
00082984 00000015 660.72 173.07 374.60 521.91 759.43 404.69 926.08 375.07 863.81 471.49 823.55 598.33 946.23 572.90
00082985 DELETE   658.28 176.06 372.80 519.13 754.24 400.46 924.37 372.74 857.43 471.63 816.17 597.06 942.50 573.43
00082986 00000017 654.21 173.05 372.80 524.35 748.27 392.15 918.61 363.50 853.47 472.26 813.41 596.32 937.83 571.82
00082987 00000018 652.26 173.55 373.54 524.12 747.27 391.13 916.14 363.92 851.92 471.67 812.60 596.53 934.47 573.38
00082988 00000019 654.38 175.31 374.11 522.55 749.75 391.02 918.09 361.41 854.33 470.50 816.81 596.90 937.04 571.77
00082989 00000020 657.78 176.09 375.41 520.76 753.80 390.77 924.56 360.32 859.50 468.13 819.89 597.04 942.09 570.99
00082990 00000021 660.43 173.09 376.32 521.04 759.64 390.10 930.84 358.44 869.06 468.93 829.82 599.19 948.33 571.71
00082991 00000022 665.89 170.01 375.77 521.05 764.95 389.95 939.03 357.68 875.46 469.62 833.54 598.46 955.96 570.13
00082992 00000023 668.95 166.59 376.80 524.29 768.55 390.63 944.26 357.63 880.29 469.15 836.10 598.33 961.52 569.33
00082993 00000024 673.23 163.41 375.64 525.62 771.76 390.35 948.74 356.54 884.00 469.24 837.83 597.12 966.00 567.53
00082994 00000025 676.85 165.55 373.89 521.28 775.26 389.97 951.46 357.91 885.52 468.54 839.44 595.01 967.61 566.82
00082995 00000026 680.94 167.37 372.55 518.21 780.13 391.35 955.43 358.86 890.20 466.45 843.10 594.39 970.45 566.14
00082996 00000027 685.97 169.00 370.72 515.63 786.23 391.54 961.31 360.75 897.21 464.45 847.49 592.87 975.71 566.32
00082997 00000028 688.99 170.18 370.88 515.48 791.08 391.48 967.18 362.76 903.24 462.50 851.44 592.17 980.11 567.52
00082998 00000029 687.64 179.69 372.90 514.32 798.74 386.89 964.28 363.52 909.48 462.83 864.68 592.78 979.43 573.50
00082999 00000030 689.75 180.65 372.65 514.68 803.41 386.87 969.18 365.80 914.47 463.20 868.43 592.74 983.23 575.24
00083000 00000031 691.05 181.09 372.42 514.05 804.37 386.85 970.10 365.92 915.37 463.44 869.74 592.41 984.26 574.97
00083001 00000032 690.42 180.72 372.95 514.99 803.03 386.49 969.52 365.60 914.01 463.10 868.03 592.10 983.26 574.68
00083002 00000033 689.25 179.15 373.01 515.84 800.78 386.10 967.40 365.00 911.72 462.95 865.25 591.87 980.72 574.41
00083003 00000034 688.16 177.50 374.09 516.97 797.42 386.16 965.31 364.44 907.67 463.28 862.53 591.88 979.56 573.91
00083004 00000035 692.17 170.81 369.90 516.33 794.18 391.28 972.45 364.44 906.38 464.18 851.83 592.27 982.09 569.27
00083005 00000036 689.85 171.15 370.08 515.25 792.45 391.32 969.46 363.27 904.83 464.47 851.34 592.42 980.75 568.36
00083006 00000037 687.91 170.55 369.64 515.00 790.35 391.30 966.54 362.66 902.86 464.57 850.37 593.34 978.58 568.86
00083007 00000038 685.65 165.75 370.94 520.19 787.09 391.63 962.32 360.50 899.91 465.65 848.75 594.32 976.03 567.61
00083008 00000039 682.85 167.71 371.68 518.92 784.50 392.11 958.49 360.51 896.90 467.60 846.99 594.51 972.27 567.35
00083009 00000040 679.15 165.70 373.80 521.79 781.30 391.63 955.17 359.54 893.48 466.69 844.41 595.05 969.26 567.29
00083010 00000041 677.32 166.96 373.83 521.24 778.96 391.74 952.45 358.61 891.02 467.91 843.54 595.85 967.01 567.20
00083011 00000042 675.99 166.91 373.70 521.80 777.83 391.91 951.35 358.44 890.84 467.57 843.53 596.26 967.36 567.24
00083012 00000043 675.93 167.01 373.87 521.55 778.19 392.13 951.46 358.15 891.55 467.39 844.02 596.30 967.97 566.89
00083013 00000044 677.03 166.93 373.55 520.67 779.45 392.12 952.42 357.39 894.40 466.01 846.29 595.35 970.58 565.29
00083014 00000045 678.31 167.94 373.74 519.79 781.44 392.16 953.81 358.02 896.52 465.79 847.93 594.39 972.91 564.76
00083015 00000046 680.61 166.41 373.08 520.10 783.28 392.72 956.86 359.06 898.62 466.24 848.95 594.51 974.42 565.40
00083016 00000047 682.98 166.38 372.38 518.77 785.40 392.77 959.54 359.35 900.11 465.55 849.50 593.21 976.31 564.42
00083017 00000048 684.89 168.93 370.97 516.21 786.60 392.63 961.66 360.08 900.14 465.35 848.87 593.18 977.05 565.21
00083018 00000049 685.40 167.26 371.10 518.50 787.00 392.51 962.40 360.38 900.16 465.39 848.77 593.91 976.83 566.33
00083019 00000050 687.20 167.85 369.87 517.55 787.98 391.82 963.87 360.95 899.61 464.58 848.25 593.64 976.74 567.25
00083020 00000051 688.11 169.63 369.76 516.28 789.94 391.47 967.00 362.22 902.00 463.53 849.38 593.08 978.78 568.04
00083021 00000052 689.93 170.72 369.81 516.51 793.17 392.26 970.85 363.81 906.24 464.63 851.74 592.38 982.32 567.97
00083022 00000053 691.74 173.06 368.92 514.57 795.91 392.45 973.73 364.76 908.69 463.62 853.64 592.61 983.61 568.94
00083023 00000054 692.47 172.99 368.41 513.87 797.05 392.43 974.72 365.12 909.98 463.51 854.83 591.94 984.37 568.58
00083024 00000055 692.68 173.40 368.41 513.82 796.84 393.01 974.79 365.80 909.29 464.48 853.68 592.08 984.07 568.87
00083025 00000056 693.03 174.48 367.54 512.10 796.11 392.46 973.92 365.34 907.82 465.12 852.46 591.81 982.48 568.68
00083026 00000057 692.28 172.78 368.02 512.54 794.73 391.94 973.47 364.80 906.80 463.98 851.32 591.51 982.52 568.24
00083027 00000058 690.13 171.80 369.65 514.30 793.61 390.22 971.86 363.13 906.25 461.97 850.93 591.41 981.18 568.23
00083028 00000059 691.26 172.50 368.24 514.68 794.32 391.42 972.96 366.47 905.98 462.27 849.85 592.07 980.69 570.73
00083029 DELETE   693.43 173.60 367.06 514.26 796.17 400.76 969.07 376.44 905.54 464.65 850.15 592.10 979.70 572.14
00083030 DELETE   691.94 177.80 368.37 512.35 797.23 398.31 968.77 375.08 906.92 464.40 851.34 591.52 978.39 572.43
00083031 DELETE   690.20 176.74 369.19 514.43 795.32 393.27 971.21 368.89 906.37 462.85 850.76 592.35 979.12 571.75
00083032 00000063 689.84 175.00 368.29 514.93 796.01 390.63 972.95 364.83 908.94 463.04 852.66 592.28 981.36 570.30
00083033 00000064 689.64 173.06 369.23 514.66 795.31 390.32 972.90 363.70 908.69 463.25 852.41 591.41 982.25 568.59
00083034 00000065 688.89 172.51 370.79 515.31 793.91 390.99 972.56 363.76 907.60 463.68 851.05 590.86 983.23 567.32
00083035 00000066 689.00 172.50 371.27 515.82 792.51 391.42 971.43 363.52 905.02 464.21 849.45 590.90 982.66 566.76
00083036 00000067 688.95 172.94 371.53 516.29 791.73 391.40 970.92 363.23 904.11 464.24 848.87 591.55 982.55 567.12
00083037 00000068 688.55 169.96 373.48 518.75 791.78 392.15 970.98 363.42 904.76 464.53 849.33 591.68 983.25 566.77
00083038 00000069 690.21 170.88 372.94 517.40 793.54 392.35 973.62 364.27 906.93 464.60 850.55 592.03 984.06 567.87
00083039 00000070 687.42 178.35 374.12 517.92 798.07 387.82 967.21 365.91 910.47 462.12 861.82 590.41 983.69 572.42
00083040 00000071 689.66 180.46 374.08 516.32 802.69 387.20 971.37 365.13 914.98 461.52 867.24 590.26 988.81 572.09
00083041 00000072 693.48 180.80 372.86 516.16 806.97 385.96 974.51 365.46 918.51 460.71 870.00 589.31 991.12 572.47
00083042 00000073 697.21 178.74 371.77 516.15 809.93 384.74 977.26 363.77 922.86 460.47 873.05 589.28 993.20 571.94
00083043 00000074 699.10 174.85 372.48 519.10 810.80 383.74 979.22 363.54 924.59 459.15 874.10 588.56 994.78 571.80
00083044 00000075 700.20 170.40 373.09 523.72 812.68 383.07 979.75 362.36 927.53 458.94 877.08 587.91 996.72 570.54
00083045 00000076 701.51 172.69 373.79 519.82 815.29 383.37 980.80 362.51 929.95 459.14 879.26 587.38 997.59 569.84
00083046 00000077 703.85 174.53 371.25 517.81 817.07 383.79 981.52 362.32 931.09 458.44 880.62 587.10 997.96 569.24
00083047 00000078 704.39 174.78 371.51 517.15 817.66 383.85 981.64 362.20 931.33 458.06 881.45 587.09 997.99 569.09
00083048 00000079 704.83 175.05 370.78 516.08 817.68 383.51 981.71 361.70 931.43 456.89 881.47 586.51 997.79 568.38
00083049 00000080 704.44 175.15 371.70 515.99 817.27 382.68 981.41 361.45 930.71 456.71 881.15 586.24 997.09 568.48
00083050 00000081 703.48 175.71 371.33 515.54 816.69 382.24 981.05 361.57 930.21 456.85 880.60 585.71 995.98 568.41
00083051 00000082 703.40 174.63 371.31 516.18 816.00 381.87 980.97 361.11 929.61 456.60 879.92 584.92 996.02 567.44
00083052 00000083 702.25 173.41 371.17 517.31 814.53 381.62 980.29 361.00 928.39 455.67 878.70 584.52 995.21 567.13
00083053 00000084 700.29 173.00 372.48 517.99 812.95 380.55 979.53 359.61 927.18 454.84 878.01 584.09 995.02 566.38
00083054 00000085 698.40 170.54 373.98 520.19 810.81 379.11 978.64 357.78 926.07 453.64 877.42 583.11 994.79 565.00
00083055 00000086 689.15 163.35 380.01 521.37 803.68 383.70 986.57 357.85 922.97 460.78 869.70 579.49 1003.89 557.75
00083056 00000087 689.10 163.99 378.95 520.63 802.79 382.44 986.15 356.56 922.34 459.10 869.10 578.62 1003.86 556.87
00083057 00000088 688.48 162.96 378.07 521.53 802.50 379.93 985.75 355.03 921.97 456.76 868.65 578.21 1002.79 557.21
00083058 DELETE   699.35 173.43 369.05 513.78 815.92 388.23 976.99 365.09 930.57 452.99 880.48 580.56 996.49 561.33
00083059 DELETE   701.51 175.57 369.52 509.79 819.51 393.40 975.50 366.32 934.43 449.55 885.37 578.76 999.51 556.71
00083060 DELETE   704.65 173.92 370.61 514.97 824.04 388.30 981.55 363.34 939.36 448.01 888.23 578.90 1003.22 558.00
00083061 00000092 708.16 171.75 370.26 521.23 828.99 383.92 988.12 356.14 948.02 447.03 894.77 577.49 1011.63 554.08
00083062 00000093 712.23 166.13 373.47 528.07 831.32 381.20 993.47 350.72 952.83 443.12 898.74 578.04 1018.85 552.02
00083063 00000094 713.65 162.13 374.11 531.28 833.31 379.46 997.32 349.05 957.02 438.87 901.90 577.10 1024.82 550.90
00083064 00000095 715.67 159.64 375.08 533.17 834.73 378.25 999.23 347.97 958.29 434.60 903.04 575.46 1027.48 549.34
00083065 00000096 716.09 157.80 377.48 530.79 835.62 376.93 998.97 345.85 958.00 431.61 904.39 572.52 1027.68 545.57
00083066 00000097 718.10 151.57 377.13 530.00 836.00 372.98 1000.65 342.91 957.64 428.51 903.12 568.45 1027.15 542.04
00083067 00000098 718.37 148.83 378.39 526.20 837.37 372.31 1002.85 342.66 958.69 427.79 903.07 565.96 1027.64 539.71
00083068 00000099 719.98 144.21 377.41 526.62 838.82 372.50 1008.04 342.17 961.71 428.29 902.93 565.62 1032.38 538.38
00083069 00000100 722.12 144.28 376.78 526.67 841.76 371.75 1010.62 343.75 964.54 426.49 905.43 563.94 1034.12 538.46
00083070 00000101 724.92 145.82 374.36 529.61 845.20 370.40 1013.48 343.86 969.66 425.24 908.77 564.59 1036.50 540.62
00083071 00000102 727.50 147.41 372.14 534.26 846.93 369.70 1012.93 342.75 972.47 423.31 912.01 566.78 1037.47 543.03
00083072 00000103 727.85 146.93 373.11 536.11 846.82 370.40 1014.39 342.85 973.16 423.91 912.30 568.30 1039.29 544.02
00083073 00000104 729.30 146.17 373.06 536.25 847.57 370.14 1015.33 342.46 973.89 424.55 913.09 568.73 1039.91 544.28
00083074 00000105 729.81 147.16 372.99 535.12 848.04 371.05 1014.92 342.61 973.74 425.91 913.91 569.30 1039.54 544.26
00083075 00000106 731.47 147.90 371.44 532.17 848.69 371.59 1016.07 342.24 974.51 428.99 914.40 570.39 1039.99 544.54
00083076 00000107 732.41 147.54 371.51 530.01 849.26 372.16 1017.48 342.87 975.23 430.02 914.97 570.08 1041.65 544.08
00083077 00000108 732.21 146.44 371.73 529.06 849.76 372.37 1018.09 343.03 975.53 431.20 914.89 569.24 1041.93 543.06
00083078 00000109 731.88 143.90 371.50 530.05 849.77 373.07 1018.66 343.86 975.47 432.87 913.71 568.83 1041.83 542.57
00083079 00000110 731.51 144.63 371.41 527.89 850.00 373.41 1018.53 344.53 975.09 432.91 913.53 568.13 1041.55 542.06
00083080 00000111 731.23 144.44 372.33 527.85 849.85 373.21 1018.38 344.39 975.35 432.94 913.92 567.89 1042.10 541.87
00083081 00000112 731.26 143.40 371.18 529.57 849.20 373.66 1018.02 344.38 975.18 432.96 912.81 567.98 1042.08 541.72
00083082 00000113 732.46 146.70 369.55 529.23 849.21 375.99 1017.14 346.07 975.87 434.18 913.03 569.36 1042.82 542.76
00083083 DELETE   732.80 146.12 368.92 531.26 849.51 390.39 1012.54 361.70 970.80 436.92 910.71 569.51 1039.91 544.47
00083084 00000115 734.04 152.02 367.01 524.23 849.67 392.94 1011.82 362.98 969.82 440.83 910.12 571.27 1039.30 545.49
00083085 DELETE   733.73 157.86 365.28 519.27 848.98 392.02 1009.81 362.41 968.34 441.36 908.89 571.69 1037.11 546.23
00083086 00000117 733.91 158.94 365.44 519.88 846.67 387.49 1011.37 357.19 967.78 442.04 907.05 573.59 1036.78 547.51
00083087 00000118 730.88 156.24 369.95 523.60 842.93 382.81 1011.34 351.18 965.04 444.02 904.66 576.22 1034.82 548.70
00083088 00000119 729.67 157.11 370.16 523.30 841.51 382.39 1010.69 350.23 964.00 443.24 904.67 577.06 1034.63 548.91
00083089 00000120 729.29 157.96 369.95 522.18 841.24 382.55 1010.60 350.47 963.68 443.01 904.36 576.61 1034.42 548.51
00083090 00000121 728.62 158.72 370.35 521.74 841.40 382.18 1009.95 350.00 963.96 442.51 905.54 576.47 1034.48 548.20
00083091 00000122 728.34 160.86 371.02 519.84 841.46 382.32 1010.92 349.71 964.01 443.11 905.28 576.86 1034.62 548.26
00083092 00000123 728.25 160.96 370.77 519.95 840.79 382.81 1010.49 349.82 963.57 443.62 904.89 577.46 1034.67 548.55
00083093 00000124 727.14 162.98 369.92 518.46 839.79 383.01 1009.73 350.11 962.39 443.93 904.26 577.64 1033.53 548.84
00083094 00000125 726.27 163.37 369.15 518.76 837.97 383.81 1008.33 351.17 960.51 444.74 902.67 578.47 1032.39 549.89
00083095 00000126 724.59 164.15 369.49 519.10 836.32 383.65 1006.51 350.76 958.69 444.33 901.74 578.84 1030.55 550.10
00083096 00000127 723.28 163.74 369.94 520.95 835.89 384.26 1004.10 351.65 957.27 444.79 901.39 578.91 1027.74 550.52
00083097 00000128 720.55 164.79 372.24 521.11 834.67 384.50 1001.15 351.18 955.80 445.08 901.34 579.82 1025.67 550.91
00083098 00000129 718.68 168.09 374.16 518.09 833.49 385.31 998.47 351.09 954.29 444.28 903.16 580.57 1025.37 550.92
00083099 00000130 716.90 169.08 374.78 516.84 832.78 386.02 996.34 350.64 953.89 444.76 904.02 580.73 1024.71 550.23
00083100 00000131 715.62 171.41 373.67 514.13 830.84 385.59 994.90 348.09 953.11 447.31 903.78 583.02 1022.64 550.72
00083101 00000132 715.36 169.02 372.59 515.96 830.53 385.07 994.42 346.83 953.48 447.55 904.56 582.72 1022.98 549.74
00083102 00000133 715.58 170.46 372.67 514.17 830.90 383.85 994.09 347.12 952.92 444.33 905.53 581.35 1023.28 549.63
00083103 00000134 715.57 169.36 373.84 514.52 831.86 383.44 993.63 348.03 952.99 442.87 906.52 580.19 1022.63 549.57
00083104 00000135 715.71 169.56 372.43 514.30 831.32 382.33 993.72 346.37 953.10 443.19 907.80 581.99 1022.71 550.83
00083105 00000136 715.41 165.16 374.26 518.37 830.42 381.24 993.99 344.67 952.75 442.85 906.01 581.35 1023.03 549.62
00083106 00000137 714.93 165.64 375.25 515.46 830.77 379.60 991.14 344.43 950.15 439.95 905.55 578.32 1019.67 547.95
00083107 00000138 714.13 163.19 377.20 517.28 831.21 379.35 989.60 344.05 949.60 438.41 906.12 576.29 1019.26 545.74
00083108 00000139 714.38 163.30 378.45 517.10 831.68 378.88 989.99 344.97 949.14 436.15 904.20 573.88 1018.36 544.62
00083109 00000140 715.85 163.45 377.90 518.68 832.22 377.47 992.88 345.61 949.62 433.41 901.67 572.55 1019.32 545.10
00083110 00000141 716.31 161.30 378.82 524.49 831.43 377.82 996.26 346.35 950.23 432.63 899.43 574.62 1021.89 547.52
00083111 00000142 715.28 161.23 378.12 530.26 830.35 377.49 995.81 344.97 950.54 432.40 899.81 576.54 1023.08 548.69
00083112 00000143 714.85 163.74 378.10 529.27 829.53 377.33 995.38 344.74 949.96 431.46 900.73 578.02 1023.45 550.06
00083113 00000144 713.69 163.70 379.06 520.99 831.55 378.39 991.84 345.70 949.16 430.07 903.18 573.67 1021.08 545.47
00083114 00000145 711.62 161.42 381.48 518.59 830.12 376.80 991.43 343.95 948.74 431.52 902.23 572.51 1019.87 543.91
00083115 00000146 712.52 160.39 381.57 516.38 831.33 376.13 993.01 343.50 949.79 429.67 903.29 569.98 1022.18 541.23
00083116 00000147 714.50 156.16 382.64 519.85 832.88 375.49 998.89 342.09 954.39 429.74 905.17 570.68 1028.51 540.94
00083117 00000148 716.07 153.24 380.73 522.73 835.00 375.42 1000.56 342.21 957.57 429.06 908.53 570.75 1030.99 541.14
00083118 00000149 718.33 153.38 376.28 523.71 837.87 375.26 1001.05 341.61 961.12 428.88 911.78 570.51 1032.51 540.84
00083119 00000150 720.22 152.81 373.93 524.31 841.20 375.96 1001.92 341.89 965.55 429.67 917.10 570.70 1034.51 540.62
00083120 00000151 722.20 154.45 371.82 523.55 841.62 377.31 1003.11 340.96 967.01 431.00 918.13 571.78 1036.52 539.83
00083121 00000152 721.84 156.14 372.01 523.06 839.75 379.02 1002.54 341.49 964.87 431.33 914.69 571.81 1036.72 539.01
00083122 00000153 720.84 159.40 372.97 521.65 837.52 380.08 1001.11 343.62 961.17 433.11 910.25 572.74 1034.06 540.93
00083123 00000154 720.60 158.71 374.31 522.65 837.13 380.12 1001.07 344.30 960.06 433.92 909.42 572.90 1033.23 541.56
00083124 00000155 723.12 159.98 373.77 522.49 838.12 380.01 1002.00 342.89 960.61 434.28 910.46 573.82 1033.97 541.60
00083125 00000156 725.06 156.64 372.68 525.67 840.34 379.94 1005.93 344.14 965.65 434.64 911.95 574.29 1037.87 542.99
00083126 00000157 727.82 157.09 372.52 525.35 843.26 379.97 1008.78 343.11 970.24 434.90 915.69 574.88 1041.57 542.67
00083127 00000158 730.10 156.43 374.03 526.45 846.57 379.98 1011.86 344.13 974.64 436.10 919.19 576.24 1043.92 544.71
00083128 00000159 733.90 155.80 370.96 526.24 849.49 380.68 1016.15 344.94 978.75 439.33 920.55 576.91 1047.45 545.38
00083129 00000160 736.12 154.28 371.31 527.75 851.47 382.91 1019.46 347.46 981.47 441.03 920.62 577.33 1050.74 545.99
00083130 00000161 737.56 155.64 371.97 526.83 852.87 385.02 1020.75 348.76 982.71 441.27 922.29 577.31 1052.58 545.26
00083131 00000162 737.58 159.49 373.70 526.50 853.98 386.48 1022.99 350.88 983.76 442.77 922.54 579.48 1053.62 548.10
00083132 00000163 737.72 159.43 374.75 534.92 854.02 388.91 1023.02 351.48 984.53 445.30 922.94 584.30 1054.54 551.66
00083133 00000164 738.75 160.05 373.88 537.45 853.90 389.90 1024.49 351.55 984.49 447.83 922.07 586.91 1055.90 553.47
00083134 00000165 739.35 159.76 372.50 534.98 854.15 389.47 1024.10 351.78 984.14 447.74 922.02 585.48 1055.08 552.57
00083135 00000166 738.90 159.45 372.40 534.01 853.54 389.46 1023.63 352.15 983.70 447.23 921.52 584.99 1054.33 552.32
00083136 00000167 737.61 159.29 372.21 532.99 852.57 389.21 1021.99 351.85 982.60 446.33 920.43 583.57 1053.07 550.87
00083137 00000168 736.90 162.29 370.68 528.82 851.71 389.34 1021.43 351.39 981.42 446.17 919.20 582.43 1052.12 549.23
00083138 00000169 735.04 161.33 371.55 527.92 849.97 388.84 1020.51 351.64 979.34 445.24 916.84 581.15 1050.75 548.49
