Video ID: 	BAtRsiXJsAk
H: 	1080
W: 	1920
FPS: 	25.0

FRAME INDEX X0 Y0 W H [Landmarks (5 Points)]

00001284 00000000 621.58 142.17 398.72 542.42 762.21 375.96 946.75 377.51 878.20 462.75 786.06 553.31 940.77 554.41
00001285 00000001 618.97 133.16 398.33 553.46 759.32 371.92 940.93 370.39 875.94 456.08 785.88 551.49 938.15 550.08
00001286 00000002 618.46 130.03 396.66 559.74 754.14 367.74 939.85 364.53 874.31 448.38 785.21 552.23 941.02 549.31
00001287 00000003 617.72 127.64 397.32 559.60 751.45 364.34 940.88 358.49 875.06 445.70 785.36 551.07 946.84 545.67
00001288 00000004 617.71 126.80 398.11 558.90 749.00 362.89 941.11 356.71 873.63 442.94 782.63 549.60 947.98 543.81
00001289 00000005 617.98 126.96 398.63 557.89 748.74 362.49 941.01 356.79 872.96 443.04 781.76 549.15 947.11 543.77
00001290 00000006 620.03 125.78 396.92 555.58 750.57 359.09 944.52 356.52 874.76 441.43 783.21 546.78 948.07 543.79
00001291 00000007 619.74 124.14 398.13 555.29 752.29 358.34 946.05 358.67 875.56 439.38 783.29 544.37 947.35 543.82
00001292 DELETE   622.44 122.23 397.33 557.05 755.61 357.68 944.77 362.17 872.26 438.82 781.41 541.44 940.90 544.49
00001293 DELETE   618.66 123.72 399.75 553.80 746.09 354.94 937.98 359.91 857.93 438.28 770.93 541.49 930.26 545.39
00001294 DELETE   612.39 128.08 400.85 548.50 734.61 350.58 932.21 359.27 842.98 436.93 759.11 540.42 922.47 547.23
00001295 00000011 609.99 125.40 399.97 552.04 726.12 347.39 921.86 354.75 831.50 436.60 751.17 540.85 914.20 546.65
00001296 00000012 609.89 126.04 398.71 547.18 722.55 345.68 916.21 353.68 823.41 433.78 746.90 538.95 905.95 545.41
00001297 00000013 609.57 130.45 397.75 536.53 721.91 345.11 913.84 353.61 820.32 431.89 745.30 536.08 900.63 543.13
00001298 00000014 610.41 127.68 399.20 540.19 725.11 347.66 916.17 354.31 825.21 435.18 751.41 535.87 905.50 541.50
00001299 00000015 613.76 127.93 400.12 541.26 730.84 350.04 920.92 356.47 831.96 440.35 760.43 539.06 911.09 544.39
00001300 00000016 617.08 130.32 402.61 544.68 739.41 352.27 930.61 357.78 845.96 444.08 769.80 541.99 924.02 546.29
00001301 00000017 620.54 132.14 399.13 551.53 747.48 359.58 936.86 360.48 860.92 448.11 780.63 549.13 934.03 549.53
00001302 00000018 619.01 133.19 399.95 556.68 751.72 368.55 938.63 362.53 870.79 454.34 785.14 554.55 940.74 549.17
00001303 00000019 616.42 135.99 397.98 551.67 752.11 373.40 938.40 363.50 874.46 457.86 789.24 558.87 942.82 550.32
00001304 00000020 612.70 138.97 399.16 544.99 749.44 377.57 935.25 362.31 873.24 459.21 790.37 560.84 941.96 548.00
00001305 00000021 608.51 142.57 398.61 545.47 744.13 378.85 931.43 360.94 869.68 462.62 785.07 563.30 940.42 548.55
00001306 00000022 605.37 147.69 393.46 548.66 730.23 382.47 914.30 357.16 861.62 455.67 767.58 569.46 929.77 548.20
00001307 00000023 598.95 143.65 394.66 556.91 719.28 379.56 902.83 358.40 845.89 457.98 752.36 568.16 916.51 550.15
00001308 00000024 588.90 144.24 397.80 559.56 705.76 380.78 888.40 356.10 830.78 457.25 742.45 569.27 906.79 547.70
00001309 00000025 582.79 147.96 401.66 564.79 697.44 380.13 882.38 357.29 818.88 458.72 731.97 570.33 901.62 550.32
00001310 00000026 582.13 151.17 403.95 573.95 698.84 380.00 882.65 360.73 818.28 459.90 730.05 574.20 900.58 557.27
00001311 00000027 584.88 150.91 405.59 580.85 707.24 380.39 890.25 364.37 829.36 463.06 733.78 576.86 904.69 562.94
00001312 00000028 594.88 148.73 403.20 570.69 719.46 379.50 902.20 365.47 842.06 462.82 746.72 572.07 912.92 559.74
00001313 00000029 607.25 152.89 394.20 547.37 731.63 380.59 915.24 362.87 856.97 462.25 763.38 570.37 923.67 555.58
00001314 00000030 613.56 151.88 397.51 550.84 747.33 382.40 926.82 368.04 870.99 464.50 780.77 569.75 932.39 558.01
00001315 00000031 620.13 153.26 396.03 552.69 756.20 380.56 932.55 370.30 878.10 466.65 792.71 572.04 933.68 563.16
00001316 00000032 624.91 154.73 396.57 550.55 759.69 381.55 938.29 374.10 880.14 470.57 794.61 575.17 937.97 568.31
00001317 00000033 626.76 156.46 396.90 548.21 759.36 382.12 940.34 376.04 878.18 472.82 793.41 575.94 939.85 570.05
00001318 00000034 627.45 155.97 398.52 549.08 755.75 381.31 941.66 377.56 874.22 474.46 786.89 576.05 939.08 571.98
00001319 00000035 627.07 158.19 397.58 547.08 752.72 379.67 941.27 379.13 870.24 474.79 780.19 576.01 935.76 574.71
00001320 00000036 627.21 157.43 398.07 546.96 751.20 379.05 941.01 379.58 867.68 475.91 776.39 574.13 935.46 573.82
00001321 00000037 629.99 153.99 397.97 548.51 755.18 380.43 946.27 380.84 872.52 477.78 779.10 573.60 940.12 573.22
00001322 00000038 636.46 152.16 395.75 548.40 765.57 382.67 954.78 383.13 885.12 480.46 789.21 573.69 948.63 573.64
00001323 00000039 643.34 153.66 391.85 545.46 778.37 384.71 966.30 384.42 904.12 477.92 802.09 574.04 960.06 573.79
00001324 00000040 652.47 155.31 387.88 542.84 787.93 385.12 974.52 384.88 914.44 476.31 808.88 572.51 966.33 572.69
00001325 00000041 657.74 153.92 386.63 540.59 794.18 384.15 979.17 382.01 920.82 474.28 815.58 569.56 972.14 568.23
00001326 00000042 663.11 152.83 384.69 536.39 797.66 382.59 982.88 380.83 923.89 470.96 816.41 565.16 975.03 564.50
00001327 00000043 664.49 152.13 384.68 535.46 798.21 380.35 983.93 379.65 923.69 468.73 815.77 562.83 974.98 563.05
00001328 00000044 660.96 152.02 387.95 537.06 795.67 378.27 983.39 379.83 921.56 468.16 811.56 560.84 973.67 562.64
00001329 00000045 657.61 149.78 391.85 538.83 794.37 377.30 982.86 380.50 919.59 468.02 810.05 559.88 972.07 562.78
00001330 00000046 660.15 149.94 389.95 535.16 795.37 378.20 983.51 380.27 919.77 467.67 811.14 558.02 973.66 560.22
00001331 00000047 663.93 149.11 386.88 530.37 799.27 378.00 987.18 378.86 925.19 466.57 815.33 555.42 977.51 556.86
00001332 00000048 666.33 149.45 387.48 526.92 805.49 379.74 991.70 376.73 936.57 463.21 823.97 554.29 985.42 552.70
00001333 00000049 667.47 148.37 389.12 527.69 814.42 377.83 997.22 376.09 948.19 462.47 830.68 552.46 989.80 552.16
00001334 00000050 667.05 151.41 393.74 527.99 824.81 374.84 1002.44 375.22 946.93 462.16 843.08 548.27 992.81 549.86
00001335 00000051 668.68 147.40 387.61 527.21 816.24 375.71 999.21 374.42 951.74 460.20 831.58 550.20 991.81 550.52
00001336 00000052 665.29 147.24 388.22 529.13 809.31 374.40 993.37 375.25 942.59 459.53 824.20 549.10 986.08 550.91
00001337 00000053 662.80 148.70 390.03 531.64 804.21 376.81 989.40 377.68 934.98 462.55 818.89 550.66 983.17 552.35
00001338 00000054 662.25 152.33 391.01 537.26 808.54 381.49 989.20 381.61 940.84 466.46 820.51 555.25 983.62 556.60
00001339 00000055 667.24 156.93 389.78 537.45 816.75 385.52 991.56 380.98 949.89 470.35 830.66 560.96 989.82 559.05
00001340 00000056 672.12 156.17 387.64 539.39 820.52 387.34 995.55 381.10 954.34 473.02 835.29 562.44 995.80 559.48
00001341 00000057 670.86 157.95 386.89 536.08 820.46 390.21 996.65 384.35 953.91 476.42 835.30 563.69 996.00 560.87
00001342 00000058 666.33 162.49 388.08 534.35 813.33 393.46 987.41 389.15 940.87 480.18 828.31 566.82 985.71 564.82
00001343 00000059 655.39 163.76 393.16 539.39 802.13 394.16 979.21 396.05 925.46 488.31 815.53 570.60 972.51 573.10
00001344 00000060 645.12 161.81 396.27 554.82 789.15 391.71 968.88 395.21 912.73 487.75 805.14 577.40 961.19 581.05
00001345 00000061 631.38 163.66 404.84 564.70 770.78 387.64 954.65 387.99 893.14 484.81 789.09 577.88 953.36 578.19
00001346 00000062 625.19 162.11 406.52 566.43 756.24 382.04 942.74 382.15 874.71 480.50 774.00 571.08 946.93 570.87
00001347 00000063 622.67 160.90 405.83 566.15 750.23 380.45 938.41 376.75 870.67 476.59 771.66 570.17 946.97 566.68
00001348 00000064 621.69 161.64 405.98 561.18 749.03 382.82 937.38 376.64 871.07 478.25 771.64 569.44 947.67 564.28
00001349 00000065 621.88 160.67 403.83 555.97 751.23 384.88 938.86 376.57 874.84 480.30 773.82 568.27 949.71 561.68
00001350 00000066 621.33 161.07 402.86 551.68 753.20 388.00 939.46 377.13 878.10 483.22 775.58 566.32 952.59 558.06
00001351 00000067 620.90 164.18 402.17 550.22 751.96 388.97 938.73 377.27 877.82 484.17 773.39 566.51 952.63 557.77
00001352 00000068 618.81 166.85 402.51 550.83 748.69 388.76 935.91 379.65 873.82 485.78 767.54 566.68 948.63 560.34
00001353 00000069 615.21 169.76 404.42 554.70 742.39 387.64 929.73 380.83 866.07 484.14 760.69 568.07 943.43 563.18
00001354 00000070 612.57 170.40 402.87 556.23 738.28 386.02 922.64 380.50 859.09 483.36 757.54 568.18 938.01 564.13
00001355 00000071 613.00 168.80 399.96 552.91 738.07 386.28 921.34 379.93 857.59 481.79 761.61 570.97 933.52 566.12
00001356 00000072 614.23 165.38 398.33 548.60 742.37 386.77 924.12 379.36 860.28 479.24 768.23 572.85 929.32 566.88
00001357 00000073 617.15 163.48 399.13 548.37 747.99 387.12 929.01 379.28 866.13 479.18 774.33 574.32 930.58 567.87
00001358 00000074 623.04 160.41 399.27 547.98 752.50 386.56 935.94 379.24 871.37 480.50 782.63 575.60 937.66 569.26
00001359 00000075 627.52 156.90 399.02 549.22 758.54 385.07 941.23 379.50 876.78 481.14 788.76 575.68 941.24 570.36
00001360 00000076 631.68 156.87 398.24 549.70 762.75 385.17 945.73 380.82 880.64 480.72 791.30 575.87 943.98 571.45
00001361 00000077 634.99 157.45 396.72 550.47 764.48 386.94 946.20 383.54 881.53 482.12 790.97 576.55 943.21 573.05
00001362 00000078 635.35 159.01 397.85 552.40 766.22 387.45 947.19 386.17 881.79 483.17 790.61 577.19 942.01 575.57
00001363 00000079 636.55 158.18 399.23 556.59 768.64 388.90 948.78 388.71 883.83 483.88 792.02 577.90 943.87 577.16
00001364 DELETE   638.35 162.71 398.72 550.49 775.43 392.38 954.44 394.90 889.84 482.23 796.14 575.62 948.48 577.41
00001365 00000081 641.28 162.12 396.98 550.17 781.02 396.58 956.93 400.33 895.79 482.40 793.86 572.06 951.19 575.46
00001366 00000082 644.90 158.71 397.32 553.93 785.92 392.61 963.57 398.30 903.77 479.95 794.33 568.53 956.13 574.07
00001367 DELETE   647.69 153.95 395.35 557.64 787.32 387.19 968.66 391.81 909.17 475.85 793.40 562.42 962.99 567.58
00001368 DELETE   646.99 149.58 397.92 557.89 788.49 377.96 971.66 384.38 912.83 468.34 792.72 556.37 962.94 563.37
00001369 00000085 646.97 146.32 399.15 557.59 787.94 372.02 972.82 378.15 912.79 461.31 792.68 552.28 963.79 558.54
00001370 00000086 646.01 143.07 399.11 558.76 786.86 367.33 973.00 375.50 911.53 456.90 791.84 548.49 963.65 555.94
00001371 00000087 648.10 139.26 397.22 560.85 785.68 364.83 972.87 373.38 911.08 451.81 792.30 546.63 965.36 554.14
00001372 00000088 651.06 135.07 394.64 561.34 785.13 363.22 974.45 370.78 914.23 444.34 795.67 545.21 970.41 551.42
00001373 00000089 657.16 132.38 393.92 558.50 789.17 361.27 978.13 367.75 918.23 442.08 802.34 543.89 975.24 548.74
00001374 00000090 661.68 130.00 393.19 556.65 794.71 357.85 981.44 363.88 924.02 440.04 809.94 542.35 978.01 546.83
00001375 00000091 668.93 129.88 388.36 551.25 802.27 355.67 986.74 363.40 931.77 435.82 817.48 539.31 981.13 545.57
00001376 00000092 672.27 127.09 397.44 552.66 813.51 344.76 1001.85 361.08 929.98 433.47 827.69 534.24 989.33 548.03
00001377 00000093 674.86 125.31 401.42 553.45 818.54 341.47 1009.59 360.92 936.00 430.94 831.46 532.15 994.99 548.29
00001378 00000094 679.69 122.02 401.02 556.38 824.45 339.43 1016.88 362.88 942.00 427.11 835.66 528.47 998.78 547.58
00001379 00000095 681.79 120.36 401.74 558.10 829.63 335.49 1021.61 363.42 945.47 424.26 836.59 524.69 999.63 547.41
00001380 00000096 685.89 117.26 401.48 559.73 835.55 338.22 1026.97 369.49 950.00 423.56 838.27 522.39 1000.72 547.50
00001381 00000097 688.94 116.97 402.18 560.37 839.95 336.31 1030.86 371.69 952.06 422.20 839.54 520.99 1001.27 549.61
00001382 00000098 688.80 117.67 404.57 560.85 838.52 333.93 1033.36 370.27 952.26 420.58 837.98 521.30 1002.91 550.71
00001383 00000099 689.56 117.43 405.86 561.93 838.24 332.43 1033.86 369.52 951.72 419.46 836.62 520.82 1002.45 550.83
00001384 00000100 689.69 119.55 406.18 559.06 838.18 332.11 1035.75 369.76 951.73 418.77 835.86 521.05 1002.28 551.68
00001385 00000101 689.16 120.73 407.02 558.72 838.01 332.49 1036.00 370.47 950.75 420.58 834.58 521.43 1001.99 552.33
00001386 00000102 687.55 121.98 406.81 558.77 836.60 333.12 1033.64 370.80 948.68 423.13 833.34 522.50 1000.73 553.18
00001387 00000103 686.61 125.75 405.45 555.18 834.22 334.50 1029.36 369.87 946.31 424.53 832.74 523.70 999.53 552.57
00001388 00000104 685.67 125.05 404.78 554.12 832.44 334.13 1027.29 369.07 943.67 424.42 832.50 524.36 996.97 552.98
00001389 00000105 683.92 124.97 404.12 552.43 829.94 336.70 1024.85 371.08 940.41 426.14 830.36 524.97 993.70 553.28
00001390 00000106 684.37 123.39 402.49 552.75 828.95 338.06 1023.42 371.51 939.04 427.35 829.69 525.99 991.88 553.62
00001391 00000107 682.73 124.34 402.37 551.20 827.62 338.74 1021.81 370.26 937.70 428.38 829.34 527.93 989.58 554.11
00001392 00000108 682.21 125.80 401.47 549.63 825.92 341.00 1020.41 370.11 937.08 430.10 829.36 529.78 989.90 554.05
00001393 00000109 681.73 127.46 400.47 547.54 823.98 342.48 1018.61 370.01 935.01 431.41 828.55 531.21 988.76 554.20
00001394 00000110 681.52 127.86 400.58 547.23 823.79 343.12 1018.27 370.27 934.60 432.01 829.12 532.15 988.79 554.90
00001395 00000111 681.28 128.92 400.15 546.50 823.97 343.65 1018.35 370.75 935.14 432.58 829.28 532.54 989.10 555.24
00001396 00000112 681.60 128.94 399.96 546.42 824.62 345.73 1018.98 373.01 935.00 433.57 829.03 533.20 988.54 556.09
00001397 00000113 681.46 129.59 400.68 546.55 824.87 347.08 1019.24 374.20 935.21 434.40 829.34 534.26 988.60 557.02
00001398 00000114 681.18 129.52 401.34 547.70 825.00 348.49 1019.18 376.11 935.07 435.73 828.91 534.79 988.23 557.93
00001399 00000115 680.95 131.32 401.85 547.87 825.10 349.11 1020.56 376.46 935.89 436.77 828.84 535.97 989.83 558.88
00001400 00000116 681.32 131.82 402.71 548.48 825.29 350.72 1020.54 377.35 935.82 437.75 828.93 536.43 990.06 558.72
00001401 00000117 681.82 131.63 402.21 550.50 825.63 351.87 1020.42 378.83 935.93 439.14 828.86 537.76 989.98 560.26
00001402 00000118 681.37 133.96 402.97 547.74 826.17 354.59 1019.27 380.82 935.11 441.31 830.71 539.95 987.68 562.04
00001403 00000119 680.63 133.98 404.35 548.85 826.60 356.73 1019.19 381.22 936.45 444.58 833.29 542.21 989.41 562.82
00001404 00000120 681.14 137.70 402.40 541.09 826.65 358.42 1018.38 381.94 936.07 446.55 835.56 541.95 990.40 561.67
00001405 00000121 680.32 138.38 402.59 543.46 825.69 360.44 1017.20 383.08 934.49 448.93 833.60 543.10 989.11 562.14
00001406 00000122 677.54 140.28 404.90 549.48 822.07 365.71 1013.00 386.57 928.60 453.47 826.70 545.49 984.76 563.22
00001407 00000123 681.92 148.74 399.18 551.20 822.88 374.32 994.94 391.45 923.83 460.32 823.09 553.76 968.46 568.02
CROP_BBOX: 362 0 1315 934
