Video ID: 	4ZNA4sIeTy4
H: 	2160
W: 	3840
FPS: 	24.0

FRAME INDEX X0 Y0 W H [Landmarks (5 Points)]

00009748 00000000 1523.62 242.53 645.11 881.23 1721.94 635.63 2002.75 605.24 1879.40 787.91 1780.79 929.77 1999.52 902.38
00009749 DELETE   1535.59 234.37 648.26 884.74 1733.97 634.44 2009.90 605.59 1894.90 784.12 1789.92 923.17 2006.87 901.94
00009750 00000002 1541.68 242.60 642.46 868.90 1740.90 629.74 2020.81 602.91 1902.88 777.60 1800.87 920.22 2016.68 897.02
00009751 DELETE   1545.91 237.30 646.58 870.81 1750.45 630.14 2030.80 600.41 1916.58 776.44 1813.72 919.20 2029.01 894.20
00009752 00000004 1552.57 224.06 641.74 896.54 1766.70 627.33 2046.73 600.70 1934.76 774.91 1826.54 923.34 2038.90 899.39
00009753 00000005 1558.40 225.38 639.15 912.55 1769.54 625.20 2046.29 602.79 1931.46 773.08 1824.65 925.64 2036.31 905.15
00009754 00000006 1559.07 227.40 638.63 905.08 1761.49 621.63 2039.40 604.74 1917.98 773.44 1813.69 922.20 2027.51 906.19
00009755 00000007 1555.05 228.60 642.14 896.91 1754.47 619.98 2033.34 609.40 1905.06 773.59 1799.64 916.58 2013.74 906.62
00009756 00000008 1551.16 221.38 645.45 902.71 1748.49 621.29 2025.54 614.26 1894.87 775.21 1786.34 915.75 2004.01 912.00
00009757 00000009 1551.83 221.56 645.29 906.53 1748.51 619.82 2025.32 614.37 1892.04 775.21 1783.96 915.10 2002.69 912.69
00009758 00000010 1558.90 231.71 640.83 902.27 1755.43 615.94 2032.44 611.64 1898.48 773.73 1794.36 916.38 2006.67 911.80
00009759 00000011 1564.14 231.74 638.31 906.94 1762.60 616.89 2039.29 611.68 1906.63 771.84 1802.96 919.91 2014.13 914.41
00009760 00000012 1569.77 232.23 636.45 900.19 1767.93 618.20 2044.79 612.36 1912.38 771.63 1809.29 918.60 2019.46 912.76
00009761 00000013 1571.94 231.30 635.27 895.97 1765.18 616.62 2044.17 611.14 1910.15 770.08 1808.06 919.58 2018.82 914.18
00009762 00000014 1567.38 229.35 638.10 900.25 1757.53 611.50 2038.06 611.72 1898.71 770.10 1796.16 920.23 2006.95 919.84
00009763 00000015 1565.39 231.54 638.78 905.41 1751.57 607.88 2028.40 611.27 1887.06 771.14 1789.42 923.09 1990.15 925.31
00009764 00000016 1564.08 227.55 638.71 904.85 1749.49 604.53 2025.58 608.32 1885.24 766.69 1782.50 918.17 1987.26 922.45
00009765 00000017 1561.73 220.06 643.14 917.01 1754.35 601.69 2027.54 606.63 1885.86 766.57 1788.83 919.00 1991.22 924.98
00009766 00000018 1562.79 216.79 649.81 922.93 1761.95 594.81 2036.06 597.67 1898.33 756.89 1797.72 916.94 2002.53 921.29
00009767 00000019 1566.45 216.03 647.72 909.54 1763.68 592.36 2039.31 595.51 1901.01 758.02 1798.37 911.61 2006.28 916.25
00009768 00000020 1567.47 216.93 643.67 889.07 1756.66 589.91 2038.21 597.60 1893.03 763.29 1785.15 904.67 2001.51 912.67
00009769 00000021 1565.76 215.21 640.82 882.71 1754.02 583.15 2030.18 595.05 1886.09 757.03 1773.59 896.08 1994.15 905.44
00009770 00000022 1563.81 212.85 641.90 879.33 1750.71 580.21 2028.05 593.43 1881.75 754.37 1769.68 892.11 1990.91 902.71
00009771 00000023 1565.22 214.92 642.40 884.56 1752.60 579.57 2029.88 593.64 1882.80 753.94 1771.16 894.79 1990.00 906.07
00009772 00000024 1571.29 215.59 639.41 887.85 1758.35 579.50 2035.00 593.72 1889.02 753.06 1776.23 896.97 1995.69 908.14
00009773 00000025 1574.31 215.80 639.43 896.14 1762.12 584.39 2042.75 595.24 1893.74 757.14 1786.45 901.68 2001.70 912.57
00009774 00000026 1574.69 215.68 639.96 904.71 1762.07 584.09 2041.99 594.16 1894.14 755.95 1790.30 908.09 1999.87 918.31
00009775 00000027 1575.29 217.91 640.71 907.29 1761.11 583.52 2037.78 593.84 1888.74 753.20 1790.53 908.07 1993.62 918.47
00009776 00000028 1576.14 218.35 640.78 915.76 1763.31 581.76 2036.90 590.38 1890.17 749.80 1791.77 908.68 1996.44 917.70
00009777 00000029 1576.30 215.12 643.00 925.46 1765.11 579.79 2039.61 589.35 1891.60 746.69 1790.90 906.60 1999.59 916.34
00009778 00000030 1577.51 213.75 642.10 924.39 1766.70 576.84 2040.62 586.66 1892.61 745.92 1789.42 902.42 2002.06 912.26
00009779 00000031 1578.52 214.33 639.39 912.78 1766.44 574.70 2041.82 583.67 1895.13 743.09 1789.96 898.28 2004.18 907.46
00009780 00000032 1576.58 210.79 640.40 896.26 1766.22 575.41 2041.20 583.97 1897.25 743.80 1792.84 892.94 2003.37 902.10
00009781 00000033 1576.68 213.40 635.65 879.03 1763.92 570.65 2038.64 581.14 1894.98 738.21 1787.65 882.26 2000.99 889.94
00009782 00000034 1576.62 211.98 634.29 875.03 1764.36 568.60 2038.52 579.24 1895.82 736.55 1788.57 878.70 2001.14 886.38
00009783 00000035 1576.05 209.41 634.26 880.14 1766.10 568.67 2039.30 579.21 1897.86 736.51 1789.59 878.57 2002.23 886.08
00009784 00000036 1575.94 213.70 635.54 881.14 1768.28 571.10 2042.73 580.76 1902.43 739.21 1792.95 882.62 2005.09 889.13
00009785 DELETE   1581.79 213.17 637.52 892.98 1778.53 582.67 2055.18 585.22 1918.18 749.74 1810.49 897.79 2020.51 902.44
00009786 00000038 1584.97 216.07 637.87 905.21 1791.80 592.96 2065.43 588.53 1940.57 756.35 1823.41 905.10 2040.06 903.75
00009787 00000039 1592.62 219.09 635.07 904.48 1803.65 593.93 2076.90 587.19 1957.33 760.51 1836.24 906.36 2053.35 902.75
00009788 00000040 1596.24 221.61 632.48 908.40 1812.68 598.24 2081.25 586.91 1970.67 756.27 1851.29 910.16 2060.54 902.26
00009789 00000041 1593.63 225.39 634.39 908.74 1814.00 598.41 2080.80 584.27 1974.10 755.47 1853.62 908.68 2065.14 898.16
00009790 00000042 1586.03 222.35 635.23 911.72 1804.97 600.75 2073.29 584.93 1963.32 759.08 1847.01 911.20 2059.07 899.73
00009791 00000043 1572.84 221.03 640.59 922.12 1790.93 606.49 2060.09 586.75 1947.13 759.25 1834.14 915.24 2049.27 901.04
00009792 00000044 1564.08 220.76 644.49 920.73 1774.51 603.59 2043.22 586.60 1924.89 758.74 1818.02 913.51 2031.54 901.43
00009793 00000045 1564.29 216.97 643.64 911.63 1775.21 603.08 2045.37 586.18 1928.94 761.48 1820.83 912.76 2030.87 900.76
00009794 00000046 1565.24 216.59 643.49 922.97 1781.19 605.04 2051.72 584.16 1940.22 759.51 1832.05 918.63 2041.06 903.32
00009795 00000047 1561.93 217.20 646.49 924.89 1777.42 605.13 2047.66 584.23 1935.23 759.70 1829.43 920.61 2037.08 905.21
00009796 00000048 1555.37 218.80 651.19 919.54 1764.90 604.17 2035.37 585.42 1918.52 755.00 1822.63 923.54 2021.01 909.72
00009797 00000049 1548.88 219.52 655.51 923.92 1753.42 601.36 2025.68 585.99 1900.82 755.48 1805.62 921.98 2010.07 910.82
00009798 00000050 1544.82 221.13 653.53 891.63 1737.77 599.38 2017.16 589.42 1881.96 762.83 1788.69 916.62 1995.80 909.42
00009799 00000051 1543.16 216.88 646.09 880.47 1731.78 591.87 2007.72 588.41 1873.19 758.87 1769.92 904.03 1983.87 901.28
00009800 00000052 1543.61 215.84 643.46 878.81 1727.77 590.85 2003.63 595.74 1863.72 762.71 1755.67 901.87 1974.21 905.98
00009801 00000053 1544.76 217.60 643.47 875.95 1728.75 590.88 2006.62 599.72 1864.51 765.30 1751.89 899.74 1975.40 906.91
00009802 00000054 1549.40 219.52 641.42 879.03 1735.54 591.26 2014.08 600.12 1872.68 766.00 1758.66 900.21 1981.65 907.23
00009803 00000055 1555.07 221.11 638.88 882.27 1740.73 591.52 2017.92 596.99 1878.80 764.42 1769.72 906.38 1987.14 910.64
00009804 00000056 1556.07 221.35 639.90 881.08 1742.27 590.57 2019.11 596.83 1879.81 764.35 1767.32 902.41 1990.67 907.08
00009805 00000057 1556.53 223.43 638.59 877.44 1741.42 589.19 2018.81 598.25 1877.30 763.53 1762.43 898.14 1987.93 905.20
00009806 00000058 1556.46 221.70 638.35 883.37 1738.05 587.86 2016.73 599.15 1872.38 765.77 1755.54 898.53 1987.26 907.25
00009807 00000059 1556.52 225.11 638.47 882.58 1737.30 591.21 2016.30 604.39 1870.65 768.36 1755.80 904.91 1982.97 915.39
00009808 00000060 1558.38 224.52 637.70 886.99 1740.29 592.73 2018.35 605.39 1873.33 769.12 1758.81 908.14 1984.19 918.39
00009809 00000061 1562.58 225.12 636.59 889.11 1745.35 593.28 2023.07 603.72 1879.35 769.22 1766.53 911.63 1989.28 920.20
00009810 00000062 1566.86 228.86 636.42 885.57 1754.00 594.66 2029.97 603.56 1890.51 767.97 1776.31 911.68 1995.67 918.70
00009811 00000063 1568.18 230.00 636.76 886.67 1761.29 597.74 2035.53 604.40 1901.22 769.89 1786.90 915.15 2001.86 920.22
00009812 00000064 1565.72 226.29 640.20 900.30 1757.28 603.83 2033.99 607.69 1894.58 773.73 1793.07 924.03 1997.70 929.05
00009813 00000065 1566.03 229.59 639.28 904.99 1752.72 596.85 2027.95 601.89 1887.58 767.75 1783.18 920.88 1993.70 925.20
00009814 00000066 1559.69 229.27 641.72 906.40 1742.42 601.19 2020.67 608.45 1870.82 774.68 1773.16 922.04 1984.89 929.33
00009815 00000067 1557.33 228.10 641.90 901.78 1737.21 600.82 2016.39 609.72 1863.88 776.67 1764.73 919.27 1980.11 927.83
00009816 00000068 1554.51 225.39 640.68 897.05 1731.78 595.19 2008.68 603.78 1862.23 766.20 1757.89 914.72 1975.45 922.18
00009817 00000069 1551.91 225.50 639.66 892.81 1727.82 593.59 2002.75 603.52 1854.92 766.27 1750.69 912.24 1970.40 920.65
00009818 00000070 1550.97 225.11 638.48 884.87 1726.01 591.85 2001.40 601.56 1853.12 764.68 1749.03 908.36 1970.74 916.44
00009819 00000071 1549.66 223.97 639.01 879.64 1726.05 592.42 2001.99 602.25 1855.16 765.36 1749.23 906.07 1971.14 914.27
00009820 00000072 1551.38 223.87 639.39 877.44 1728.41 593.80 2006.24 602.92 1861.15 767.57 1751.49 906.81 1976.38 914.46
00009821 00000073 1550.67 223.58 640.42 878.82 1732.26 594.12 2009.37 601.49 1868.39 767.97 1756.09 904.97 1981.78 910.90
00009822 00000074 1550.96 224.46 640.25 876.42 1732.31 593.28 2009.84 598.51 1870.10 768.26 1757.11 903.53 1985.21 907.49
00009823 00000075 1550.34 222.84 640.94 874.07 1730.96 591.96 2007.40 597.06 1867.39 767.28 1756.63 901.80 1982.70 905.71
00009824 00000076 1547.03 219.12 641.73 877.03 1726.00 591.87 2002.66 596.32 1861.46 765.89 1752.74 902.50 1978.67 906.14
00009825 00000077 1547.29 218.58 639.23 877.38 1722.56 590.19 1998.41 593.32 1854.66 762.61 1750.47 901.30 1976.53 903.78
00009826 00000078 1546.77 220.19 637.85 876.56 1720.71 590.45 1995.59 593.22 1850.70 762.02 1749.82 901.50 1972.82 903.81
00009827 00000079 1546.73 220.63 636.01 878.53 1720.73 591.34 1994.83 593.48 1851.05 762.06 1749.55 901.54 1973.38 903.39
00009828 00000080 1545.20 224.38 637.08 877.99 1720.95 593.22 1995.64 594.48 1853.47 763.48 1750.44 903.37 1973.95 904.52
00009829 00000081 1545.71 226.40 636.64 879.94 1721.70 593.25 1996.14 594.54 1854.50 764.66 1750.26 904.58 1975.62 905.64
00009830 00000082 1545.85 225.18 636.15 883.94 1723.00 594.02 1996.46 593.75 1856.22 764.36 1752.91 908.21 1976.19 908.09
00009831 00000083 1544.59 225.99 639.04 891.37 1722.70 595.15 1995.85 592.83 1855.56 763.48 1756.07 910.80 1975.73 909.20
00009832 00000084 1542.82 228.21 640.11 888.97 1720.07 595.40 1994.48 593.51 1852.14 764.13 1752.35 909.96 1974.31 908.78
00009833 00000085 1542.36 230.13 640.66 890.05 1720.11 595.28 1994.75 593.98 1852.00 764.18 1752.42 910.11 1973.28 909.45
00009834 00000086 1544.36 230.44 638.30 887.06 1721.72 597.03 1995.91 596.12 1854.44 765.29 1753.51 910.54 1974.13 910.19
00009835 00000087 1544.60 228.78 643.83 891.26 1722.92 600.91 2002.44 601.12 1853.13 773.37 1757.38 913.56 1976.53 914.58
00009836 00000088 1546.73 228.16 643.36 887.65 1726.64 601.78 2006.80 603.83 1859.03 777.49 1758.36 912.35 1979.63 914.76
00009837 00000089 1550.21 228.82 640.16 878.87 1734.26 598.94 2011.08 600.30 1874.58 772.31 1762.82 909.49 1988.59 910.43
00009838 00000090 1555.80 231.30 637.56 874.87 1743.02 600.52 2021.12 596.65 1890.18 773.55 1775.55 910.67 2002.52 906.57
00009839 00000091 1560.80 238.48 639.12 870.15 1757.61 606.49 2035.89 599.53 1909.18 773.75 1792.69 913.63 2015.22 906.85
00009840 DELETE   1574.11 235.70 631.35 899.49 1773.85 615.59 2053.19 600.12 1930.55 775.96 1824.92 929.93 2034.86 914.01
00009841 DELETE   1574.56 240.42 636.35 903.67 1792.49 622.03 2063.53 597.98 1953.64 779.98 1846.58 936.20 2048.62 918.44
00009842 DELETE   1580.58 243.60 634.86 900.34 1802.82 623.83 2072.55 596.81 1969.07 781.25 1858.82 936.27 2062.95 915.69
00009843 00000095 1585.55 244.11 631.20 894.73 1806.29 624.86 2076.55 593.83 1977.50 780.67 1862.91 932.64 2074.38 908.64
00009844 DELETE   1581.46 240.56 630.70 887.46 1798.58 623.64 2073.80 590.39 1972.64 780.98 1858.74 931.79 2073.91 906.06
00009845 DELETE   1571.87 230.00 629.25 888.37 1784.83 622.33 2064.28 591.98 1956.80 776.57 1846.31 931.52 2060.90 904.23
00009846 DELETE   1557.81 241.30 640.95 866.30 1766.88 626.38 2044.10 600.94 1935.45 780.37 1821.14 924.26 2038.35 902.93
00009847 00000099 1553.87 246.05 641.35 854.78 1755.07 627.66 2033.26 605.52 1917.36 782.82 1805.67 920.10 2024.18 901.84
00009848 00000100 1551.83 246.20 640.41 848.85 1749.98 627.91 2028.02 606.67 1910.99 782.90 1798.17 916.06 2020.06 898.64
00009849 00000101 1553.38 246.61 641.59 850.62 1753.49 627.81 2031.04 606.63 1914.28 783.27 1801.88 915.29 2023.53 897.64
00009850 00000102 1557.49 246.97 641.36 853.05 1762.17 631.46 2039.16 606.81 1927.43 784.21 1814.75 919.06 2035.89 898.42
00009851 00000103 1561.71 243.13 638.79 857.97 1769.80 629.68 2046.58 600.81 1940.28 785.67 1826.93 924.63 2047.33 900.07
00009852 00000104 1562.30 242.85 638.03 857.51 1776.46 622.95 2050.78 592.60 1950.01 781.12 1836.12 923.02 2053.07 896.10
00009853 00000105 1567.44 226.56 632.03 881.86 1778.92 619.46 2056.41 587.55 1952.83 773.98 1843.21 921.98 2057.25 893.18
00009854 00000106 1567.50 223.87 632.02 889.62 1777.96 613.43 2054.58 583.61 1951.09 768.46 1842.18 920.49 2053.33 893.55
00009855 00000107 1562.43 228.96 639.45 899.29 1778.34 613.64 2049.21 583.85 1945.30 769.87 1837.14 922.88 2045.24 899.77
00009856 00000108 1560.91 227.05 640.24 896.77 1772.68 610.35 2047.41 583.53 1939.59 772.00 1826.72 922.30 2042.33 901.60
00009857 00000109 1559.34 227.83 642.77 899.74 1769.85 606.14 2042.99 582.47 1932.49 770.77 1823.03 921.52 2036.39 903.20
00009858 00000110 1558.62 224.07 644.26 909.59 1769.25 604.89 2039.87 582.88 1928.15 768.24 1822.33 922.85 2030.90 906.10
00009859 00000111 1558.16 224.74 644.74 911.06 1768.83 605.06 2038.81 583.30 1926.71 766.89 1824.24 925.29 2028.26 908.76
00009860 00000112 1555.61 226.09 647.20 912.79 1766.88 602.78 2037.47 581.96 1923.71 766.22 1821.87 925.67 2026.31 909.86
00009861 00000113 1556.50 227.87 645.73 901.34 1766.47 600.29 2039.64 580.76 1925.32 768.26 1818.55 921.63 2028.76 906.59
00009862 00000114 1559.15 226.74 639.66 897.49 1765.02 594.06 2036.63 578.44 1921.74 761.59 1813.67 916.44 2025.98 901.14
00009863 00000115 1557.95 228.87 644.59 900.36 1766.45 597.34 2040.31 580.34 1922.79 766.96 1814.86 919.00 2027.17 905.92
CROP_BBOX: 1231 0 2596 1358
