Video ID: 	hPk5DFzxcB4
H: 	1080
W: 	1920
FPS: 	23.976023976023978

FRAME INDEX X0 Y0 W H [Landmarks (5 Points)]

00004444 00000000 1002.12 160.64 403.15 579.40 1049.72 388.11 1213.61 363.14 1086.02 485.90 1084.41 586.55 1241.59 563.04
00004445 DELETE   1003.22 158.11 401.66 575.55 1049.14 379.90 1213.86 358.50 1083.26 479.40 1081.19 577.47 1236.53 556.91
00004446 DELETE   1004.25 155.09 399.94 573.90 1049.18 374.51 1214.87 352.06 1083.61 469.78 1080.55 571.02 1234.74 549.46
00004447 DELETE   1007.61 151.72 403.35 577.81 1053.09 363.38 1219.12 342.51 1080.66 453.87 1081.07 563.22 1238.01 542.81
00004448 00000004 1006.45 141.56 403.96 590.49 1050.36 358.68 1213.55 333.07 1071.97 439.61 1079.28 563.61 1230.20 539.17
00004449 DELETE   993.12 126.80 412.56 602.31 1037.61 349.13 1196.24 322.64 1054.56 430.07 1061.15 563.69 1204.30 540.57
00004450 DELETE   1003.07 115.65 397.66 600.84 1030.44 338.89 1188.07 321.74 1042.02 423.63 1047.40 556.07 1171.41 542.95
00004451 DELETE   999.40 109.79 393.34 607.02 1026.41 339.94 1180.41 323.86 1031.94 421.94 1037.28 557.40 1154.75 545.48
00004452 00000008 996.90 112.78 389.58 609.86 1025.07 334.81 1174.41 326.69 1025.03 424.86 1031.57 557.70 1144.29 552.47
00004453 00000009 988.59 112.84 400.84 616.51 1023.07 340.26 1171.82 327.82 1026.55 433.12 1031.53 567.80 1141.75 557.08
00004454 00000010 989.95 118.31 403.38 613.49 1025.50 345.74 1172.36 333.87 1028.88 437.91 1034.65 571.10 1146.29 560.52
00004455 00000011 995.09 122.79 395.30 599.78 1021.04 345.82 1174.11 338.56 1026.09 446.90 1033.45 569.55 1145.19 564.82
00004456 00000012 991.28 125.50 406.16 612.00 1020.71 353.51 1176.39 341.29 1030.54 452.17 1039.49 579.19 1153.93 570.51
00004457 00000013 992.01 132.32 411.71 623.23 1029.14 359.13 1182.19 338.10 1037.57 455.20 1060.12 590.01 1177.91 573.22
00004458 00000014 993.66 138.26 411.02 639.35 1031.61 363.55 1188.49 335.66 1042.28 449.22 1065.13 599.03 1191.55 576.03
00004459 00000015 992.62 138.25 412.50 641.52 1033.77 365.42 1191.68 333.42 1046.16 443.72 1068.58 596.59 1199.98 570.28
00004460 00000016 992.57 134.83 405.24 634.73 1034.52 359.28 1194.00 325.79 1049.12 432.60 1067.39 588.95 1198.93 561.74
00004461 00000017 992.66 121.20 399.60 636.17 1035.94 346.94 1197.84 320.83 1052.14 421.75 1061.80 576.33 1196.55 555.13
00004462 00000018 992.15 117.91 399.80 625.00 1036.49 336.93 1201.39 314.01 1057.02 418.00 1059.61 565.15 1202.43 546.16
00004463 00000019 986.13 105.34 406.04 611.38 1028.34 333.42 1199.28 314.76 1049.42 419.46 1047.71 551.54 1189.05 536.84
00004464 00000020 982.47 101.63 407.92 607.15 1021.53 336.03 1192.54 313.43 1040.95 417.97 1042.51 551.06 1182.55 533.28
00004465 00000021 979.35 107.68 412.29 606.08 1017.77 337.62 1182.82 316.59 1032.50 419.56 1038.09 552.12 1173.04 535.50
00004466 00000022 974.06 104.17 414.38 615.41 1012.61 342.65 1176.13 324.22 1021.03 431.70 1032.94 558.31 1166.13 544.00
00004467 DELETE   966.38 111.32 408.11 611.34 1001.96 350.59 1164.69 329.70 1022.48 445.50 1024.33 563.48 1158.56 544.82
00004468 DELETE   966.35 120.81 404.79 616.47 999.67 359.20 1153.70 342.41 1008.79 458.98 1024.64 574.17 1152.56 558.54
00004469 00000025 964.27 139.12 407.10 609.12 999.72 365.81 1149.33 355.24 1008.00 476.38 1024.85 583.86 1152.79 572.31
00004470 00000026 962.57 141.18 409.32 624.20 1004.09 376.46 1150.18 362.23 1009.88 482.94 1029.66 594.45 1157.70 580.09
00004471 00000027 964.63 142.64 410.66 640.89 1007.54 377.22 1158.84 362.25 1016.64 486.70 1037.01 603.37 1169.76 589.27
00004472 00000028 973.52 137.46 405.17 647.60 1012.76 380.85 1166.86 366.72 1021.75 485.96 1050.76 609.81 1182.80 596.73
00004473 00000029 980.56 145.57 403.33 634.64 1015.55 376.38 1170.01 363.74 1024.07 482.75 1054.73 603.65 1184.82 592.28
00004474 00000030 972.87 136.25 412.37 632.60 1015.97 371.25 1171.01 359.08 1033.35 477.17 1040.06 593.95 1173.92 583.05
00004475 00000031 974.59 134.54 415.14 617.95 1016.70 371.06 1174.53 360.28 1034.53 475.21 1039.51 586.93 1175.84 576.84
00004476 00000032 978.06 138.17 415.32 608.69 1018.74 370.73 1176.78 360.30 1037.26 472.82 1039.70 584.40 1177.17 574.49
00004477 00000033 981.83 145.15 412.26 602.06 1022.81 372.97 1179.53 360.21 1041.31 474.07 1044.03 584.41 1182.80 572.77
00004478 00000034 985.10 141.79 410.25 608.64 1023.53 370.84 1183.23 357.71 1043.24 476.18 1047.74 583.67 1194.48 571.50
00004479 00000035 986.43 143.68 407.98 608.79 1025.49 374.12 1184.10 357.77 1046.91 478.77 1054.51 582.64 1204.15 567.69
00004480 00000036 990.89 148.18 407.63 602.12 1028.84 383.21 1185.65 360.76 1051.20 477.55 1059.12 583.27 1210.22 563.12
00004481 00000037 990.82 146.03 405.45 603.09 1029.30 382.12 1189.19 358.97 1054.93 475.85 1059.01 582.45 1211.91 561.90
00004482 00000038 989.42 144.74 410.22 603.18 1030.79 376.92 1193.22 353.36 1055.01 471.83 1060.23 580.96 1215.78 560.11
00004483 00000039 989.30 142.83 411.96 604.49 1029.40 373.31 1192.49 349.00 1053.06 470.60 1059.04 580.77 1213.35 559.14
00004484 00000040 990.82 143.19 409.33 605.55 1029.95 370.62 1190.73 345.86 1051.82 468.14 1061.65 581.61 1213.42 559.48
00004485 00000041 1000.82 142.13 405.26 609.74 1040.01 367.77 1200.03 346.81 1055.36 467.47 1073.65 583.35 1224.05 562.79
00004486 00000042 1002.08 144.65 405.64 606.75 1043.16 368.43 1201.09 347.54 1058.49 469.75 1077.37 581.34 1227.62 560.68
00004487 00000043 1002.19 144.42 405.68 604.93 1043.50 371.06 1199.85 349.87 1058.06 472.54 1078.61 581.46 1229.32 560.24
00004488 00000044 1000.91 147.47 407.39 599.58 1041.92 372.02 1195.22 348.45 1054.35 473.19 1079.46 581.40 1227.29 557.97
00004489 00000045 999.59 148.54 408.32 591.28 1038.72 371.22 1189.37 346.36 1050.84 472.83 1081.75 578.50 1224.86 553.76
00004490 00000046 994.08 152.37 410.90 582.32 1032.24 369.98 1179.01 341.44 1044.96 469.09 1074.86 574.25 1216.85 547.67
00004491 00000047 1000.82 146.31 407.01 589.11 1039.24 366.45 1186.37 339.88 1047.02 464.13 1083.26 573.55 1222.25 547.37
00004492 00000048 995.66 143.34 411.62 583.58 1035.11 367.57 1179.99 334.98 1042.13 456.08 1071.74 570.91 1207.82 541.61
00004493 00000049 1004.48 124.36 401.64 585.65 1031.80 359.30 1182.98 332.68 1045.83 445.10 1063.34 560.94 1191.02 539.14
00004494 00000050 1004.87 121.34 398.09 578.89 1032.92 349.43 1184.34 324.77 1043.75 432.19 1060.53 552.52 1187.89 532.37
00004495 00000051 1002.71 118.72 402.36 574.77 1035.05 345.83 1189.34 313.49 1049.39 415.95 1063.35 547.13 1192.62 520.61
00004496 00000052 1002.67 116.75 405.60 575.30 1039.17 341.04 1195.35 304.68 1056.73 404.93 1067.76 539.64 1203.12 509.75
00004497 00000053 1004.74 120.82 404.01 565.34 1042.10 325.97 1198.42 297.25 1052.81 404.94 1069.79 532.70 1206.77 507.57
00004498 00000054 1004.40 109.44 400.46 577.45 1041.32 336.40 1195.03 300.03 1054.55 395.56 1068.20 532.22 1205.01 502.24
00004499 00000055 998.13 113.01 408.29 576.14 1040.97 331.29 1198.31 296.44 1053.13 399.01 1066.58 536.85 1206.03 506.24
00004500 00000056 1006.69 110.20 400.22 578.01 1044.87 336.89 1202.13 302.86 1062.99 399.22 1069.63 535.02 1207.65 507.07
00004501 00000057 1006.96 108.85 403.20 575.43 1044.45 340.41 1206.04 307.03 1066.75 402.40 1066.01 537.84 1202.39 510.83
00004502 00000058 1007.23 113.50 398.16 569.67 1043.00 337.10 1202.12 309.35 1061.58 405.27 1060.22 541.90 1180.97 520.11
00004503 00000059 1009.52 115.34 394.82 569.90 1041.71 335.21 1202.24 312.54 1060.78 410.98 1055.50 546.35 1170.74 528.87
00004504 00000060 1008.95 114.73 394.89 576.63 1038.29 339.35 1199.75 317.95 1058.62 419.22 1052.09 553.55 1167.75 537.27
00004505 00000061 1008.04 115.48 392.92 579.51 1036.84 341.46 1196.78 322.32 1057.23 424.91 1052.01 555.38 1166.94 540.89
00004506 00000062 1007.75 120.71 393.12 583.17 1034.56 341.86 1194.18 322.71 1053.27 429.03 1052.58 559.09 1169.15 544.32
00004507 00000063 1001.19 120.63 394.46 590.09 1025.57 351.21 1183.53 324.03 1041.25 431.64 1052.65 563.09 1174.48 541.53
00004508 DELETE   992.96 120.91 405.50 586.67 1016.81 363.01 1168.42 330.41 1025.99 438.74 1045.46 564.28 1167.86 538.40
00004509 DELETE   984.43 135.89 401.05 575.68 1011.51 366.70 1164.05 336.05 1022.83 446.74 1040.88 567.65 1164.17 543.04
00004510 00000066 979.53 147.05 404.00 586.57 1016.85 372.63 1155.69 345.90 1023.46 457.35 1043.81 577.76 1160.62 553.64
00004511 00000067 977.67 152.39 405.37 598.42 1015.53 376.71 1159.06 350.78 1023.24 469.64 1047.18 586.75 1174.74 562.86
00004512 00000068 980.39 151.32 402.39 609.95 1015.99 378.90 1159.98 351.09 1022.96 477.42 1056.34 590.68 1190.18 565.04
00004513 00000069 981.79 148.42 402.08 621.28 1018.46 380.60 1161.86 354.02 1024.74 481.74 1060.15 593.18 1196.57 568.62
00004514 00000070 982.14 157.43 402.45 615.90 1019.42 384.43 1165.24 357.16 1028.20 484.44 1061.75 597.90 1198.75 573.02
00004515 00000071 988.30 151.68 405.88 620.14 1029.24 385.09 1172.27 363.06 1029.53 484.03 1066.41 603.67 1205.09 582.13
00004516 00000072 991.63 156.40 407.38 613.65 1033.20 384.76 1178.71 364.98 1038.45 487.17 1071.05 602.68 1211.89 583.07
00004517 00000073 993.91 159.29 406.29 610.30 1036.04 386.70 1184.94 366.33 1046.92 490.07 1074.84 602.00 1218.26 582.08
00004518 00000074 997.39 153.34 400.80 616.94 1039.11 381.98 1192.45 362.76 1055.96 487.43 1076.36 598.19 1227.85 579.10
00004519 00000075 1001.48 146.33 399.77 629.77 1046.77 376.22 1201.64 355.81 1066.05 480.37 1081.26 598.87 1234.83 578.75
00004520 00000076 1005.57 144.84 399.29 622.70 1050.68 369.92 1212.04 346.38 1073.36 469.19 1087.08 594.30 1237.89 572.26
00004521 00000077 1008.11 143.32 402.36 596.72 1050.32 363.14 1219.13 341.01 1078.60 456.45 1075.62 581.28 1219.86 561.98
00004522 00000078 1008.22 142.33 400.37 580.55 1052.12 353.26 1215.81 335.90 1081.26 446.26 1076.57 567.58 1207.49 552.96
00004523 00000079 1007.42 130.38 393.45 585.13 1044.22 354.71 1210.40 338.50 1074.77 446.58 1067.01 568.01 1188.47 555.96
00004524 00000080 1003.21 127.52 396.19 590.94 1035.96 356.03 1201.12 336.24 1065.35 443.76 1059.20 570.01 1181.52 555.06
00004525 00000081 998.83 124.76 401.41 607.95 1031.42 362.76 1194.09 336.67 1059.04 448.38 1064.56 578.19 1186.78 557.85
00004526 00000082 997.56 129.54 408.22 611.95 1031.98 368.49 1183.11 334.73 1045.22 450.01 1069.01 580.31 1200.31 552.67
00004527 00000083 991.97 141.86 408.35 593.79 1023.96 372.80 1174.37 343.44 1037.18 460.33 1060.01 580.06 1190.83 556.18
00004528 00000084 990.40 146.88 408.64 590.08 1022.98 381.07 1170.12 356.23 1034.06 475.22 1060.89 583.88 1189.84 563.18
00004529 00000085 984.78 148.61 413.40 593.96 1024.92 377.82 1175.88 360.72 1038.63 479.41 1052.52 582.69 1191.15 566.65
00004530 00000086 985.90 148.15 412.65 592.38 1025.66 382.05 1175.29 365.37 1040.44 482.58 1054.14 583.04 1190.05 567.40
00004531 00000087 987.90 147.87 408.84 589.68 1025.83 388.07 1172.75 368.53 1039.82 486.22 1059.68 584.33 1189.05 568.38
00004532 00000088 988.61 150.61 407.37 592.80 1028.90 387.79 1174.88 366.50 1041.19 486.68 1065.38 586.42 1197.13 568.65
00004533 00000089 989.08 155.59 403.13 595.08 1030.88 384.80 1179.54 365.39 1045.77 483.91 1066.79 594.42 1205.72 575.57
00004534 00000090 988.83 154.96 402.95 594.42 1030.25 384.90 1181.00 365.31 1047.31 484.24 1066.01 594.22 1207.40 575.31
00004535 00000091 987.44 156.39 405.14 590.33 1029.55 385.12 1181.87 364.65 1050.22 484.30 1059.84 583.52 1205.22 564.60
00004536 00000092 988.83 156.87 403.78 587.04 1029.92 386.44 1182.57 365.18 1051.41 483.76 1060.69 583.40 1205.37 563.85
00004537 00000093 990.90 158.36 403.05 584.61 1030.65 387.35 1183.72 365.21 1053.02 484.52 1064.08 583.91 1208.80 563.56
00004538 00000094 993.20 156.69 396.38 585.96 1032.88 387.25 1186.59 367.01 1055.53 487.15 1068.00 590.27 1214.04 570.85
00004539 00000095 990.18 160.60 405.15 589.75 1029.87 394.88 1181.01 367.72 1053.99 490.06 1069.84 588.84 1213.54 564.14
00004540 00000096 992.43 158.35 402.72 592.15 1032.97 392.42 1183.68 364.61 1056.73 492.47 1078.51 595.23 1224.32 568.72
00004541 00000097 992.86 160.41 403.02 588.55 1035.27 396.04 1183.75 364.21 1058.97 493.52 1083.51 596.47 1229.84 566.41
00004542 00000098 992.85 163.46 403.09 583.84 1033.42 397.84 1178.28 361.35 1056.82 496.84 1087.27 596.55 1232.04 562.25
00004543 00000099 990.78 163.80 403.77 582.14 1028.59 398.60 1171.34 358.31 1050.62 498.78 1087.45 597.44 1230.30 559.55
00004544 00000100 984.79 172.36 404.72 576.08 1021.11 410.93 1165.03 361.54 1050.06 498.86 1086.50 597.28 1229.75 552.63
00004545 00000101 977.84 177.63 403.04 569.25 1017.62 418.81 1155.39 366.82 1045.11 505.91 1088.91 601.12 1224.99 553.94
00004546 00000102 965.05 170.54 405.28 583.54 1004.98 420.16 1148.18 370.00 1030.27 506.49 1078.36 604.93 1219.75 558.92
00004547 00000103 963.53 173.63 405.66 578.09 1004.84 420.21 1148.38 371.95 1029.08 503.64 1075.93 604.96 1212.99 561.21
00004548 00000104 963.06 169.96 410.73 581.09 1007.01 423.18 1151.75 371.64 1032.53 500.89 1077.10 610.01 1211.87 564.31
00004549 00000105 969.12 170.61 412.95 576.13 1013.25 418.85 1160.11 372.66 1037.22 499.86 1078.24 609.06 1208.96 568.92
00004550 00000106 974.37 184.69 410.15 560.58 1015.21 417.79 1164.44 376.51 1044.38 506.58 1074.49 604.67 1207.25 567.58
00004551 00000107 967.82 168.29 414.78 581.03 1007.41 418.20 1161.79 377.63 1028.37 504.86 1068.00 615.90 1197.10 580.80
00004552 00000108 966.41 167.41 407.52 581.95 1004.24 404.49 1157.77 375.22 1023.56 502.79 1061.94 607.88 1188.23 582.00
00004553 00000109 967.78 164.29 410.08 587.41 1006.58 401.24 1159.49 370.91 1023.70 496.76 1063.37 608.13 1188.34 581.49
00004554 00000110 980.12 178.68 400.01 574.40 1020.46 397.92 1162.22 364.93 1043.29 495.56 1071.87 596.98 1199.52 567.52
00004555 00000111 984.06 165.40 400.40 591.17 1020.69 395.08 1166.11 361.40 1045.73 493.64 1073.39 597.50 1206.15 567.72
00004556 00000112 985.40 166.24 406.40 587.62 1022.86 394.20 1171.78 364.50 1046.47 492.67 1068.02 595.80 1202.97 569.30
00004557 00000113 987.64 161.22 405.99 592.86 1024.65 391.27 1173.19 367.89 1044.21 492.21 1063.12 594.32 1195.48 573.36
00004558 00000114 990.53 158.08 397.49 591.41 1021.11 392.35 1165.67 366.93 1036.11 493.14 1062.97 600.68 1185.99 580.15
00004559 00000115 989.83 159.94 394.37 591.13 1020.93 390.96 1166.50 368.74 1034.93 493.38 1061.30 600.91 1185.29 582.89
00004560 00000116 989.85 160.05 394.89 590.34 1023.81 392.13 1169.43 371.69 1037.15 495.10 1061.91 598.75 1188.61 582.11
00004561 00000117 988.88 151.42 401.95 600.40 1026.62 394.78 1176.04 373.25 1040.09 488.26 1063.96 597.60 1193.29 579.36
00004562 00000118 986.71 159.37 402.23 593.89 1027.29 391.15 1178.51 371.66 1045.60 494.20 1064.50 602.18 1201.85 583.34
00004563 00000119 986.81 158.06 399.85 594.12 1026.94 391.31 1177.70 372.26 1045.40 494.94 1064.48 600.96 1203.28 582.31
00004564 00000120 983.73 160.95 400.53 593.82 1025.54 390.35 1178.79 372.05 1047.24 495.27 1058.93 592.34 1201.90 575.38
00004565 00000121 982.62 158.18 402.95 600.09 1024.71 390.61 1180.26 370.40 1046.21 492.89 1062.73 602.03 1204.97 582.39
00004566 00000122 986.74 151.80 397.09 611.96 1030.46 385.96 1185.64 369.48 1053.51 493.64 1066.24 597.51 1213.54 580.77
00004567 00000123 987.86 150.59 397.27 614.91 1031.67 383.54 1188.15 367.79 1055.54 491.87 1065.81 596.88 1214.41 580.82
00004568 00000124 984.65 150.71 400.87 617.34 1030.57 383.15 1186.28 370.03 1050.66 491.20 1063.13 599.10 1208.70 585.30
00004569 00000125 982.22 149.96 401.32 620.22 1028.49 383.49 1184.47 370.36 1046.79 489.85 1060.25 601.88 1204.01 588.22
00004570 00000126 982.91 150.13 403.00 622.65 1028.26 383.01 1185.49 369.91 1046.30 489.92 1059.84 603.88 1203.68 590.27
00004571 00000127 982.03 150.84 402.18 622.75 1027.46 384.85 1184.39 370.76 1044.62 492.31 1059.78 606.22 1202.08 591.83
00004572 00000128 983.47 144.67 399.14 621.43 1023.83 388.36 1182.35 376.34 1040.48 490.38 1054.97 604.17 1189.35 593.92
00004573 00000129 980.17 143.63 402.60 618.28 1020.73 387.53 1181.60 377.48 1037.96 492.14 1051.70 605.80 1180.77 597.28
00004574 00000130 980.69 144.53 400.90 617.50 1020.28 387.32 1180.54 378.23 1037.35 491.98 1049.34 606.70 1175.08 599.12
00004575 00000131 982.45 152.29 397.60 611.70 1021.11 384.38 1181.81 375.61 1037.66 491.24 1051.51 604.30 1179.68 597.76
00004576 00000132 983.10 141.00 396.90 637.28 1026.75 381.44 1181.85 373.79 1036.19 485.05 1056.63 605.09 1190.62 597.96
00004577 00000133 982.04 144.52 394.28 617.94 1017.13 380.99 1176.38 372.74 1031.09 488.02 1047.03 603.09 1173.61 596.98
00004578 00000134 975.66 141.59 393.00 616.19 1012.51 378.71 1169.38 370.67 1028.09 482.86 1038.62 603.06 1155.50 596.86
00004579 00000135 971.89 145.02 397.00 601.98 1006.63 370.48 1161.87 364.77 1019.94 479.17 1032.29 595.34 1146.42 590.61
00004580 00000136 970.51 147.17 396.40 592.79 1001.54 367.53 1157.46 361.04 1011.64 475.33 1025.98 588.54 1142.45 583.25
00004581 00000137 972.63 146.51 394.18 592.83 1003.24 360.97 1160.03 357.67 1011.53 472.43 1028.94 581.40 1150.17 578.43
00004582 00000138 972.65 139.86 401.08 611.26 1010.40 360.23 1162.58 349.93 1021.80 471.04 1037.45 581.16 1171.57 570.44
00004583 00000139 968.75 148.17 400.35 595.38 1003.11 373.16 1157.66 356.86 1012.97 476.64 1035.61 581.84 1179.63 566.30
CROP_BBOX: 688 0 1680 943
