Video ID: 	sUiIL-TjbjE
H: 	1080
W: 	1920
FPS: 	24.0

FRAME INDEX X0 Y0 W H [Landmarks (5 Points)]

00005007 00000000 546.62 254.19 395.89 592.26 589.70 521.79 708.54 525.24 584.95 630.07 626.80 706.74 731.45 707.60
00005008 00000001 546.89 256.84 395.43 591.09 587.51 520.88 707.22 521.74 583.77 630.90 625.50 710.81 729.76 709.68
00005009 00000002 546.89 257.50 395.35 589.86 588.22 520.30 707.67 521.17 584.58 631.84 627.33 710.37 732.35 709.22
00005010 00000003 546.87 258.48 395.58 588.14 587.90 520.56 707.56 521.04 584.80 631.98 626.70 710.37 732.38 708.94
00005011 00000004 545.86 257.28 397.12 588.50 586.95 519.83 707.77 520.96 583.73 630.67 625.06 709.93 730.65 708.99
00005012 00000005 547.05 257.89 395.43 587.48 588.06 518.92 707.34 520.82 582.74 630.43 626.04 709.66 730.14 709.32
00005013 00000006 549.65 257.99 392.66 587.03 590.64 519.00 708.02 520.74 584.39 631.02 629.80 709.29 733.71 708.65
00005014 00000007 551.60 255.71 391.18 588.85 593.27 519.58 708.88 520.91 586.08 630.48 632.83 709.13 736.51 708.11
00005015 00000008 552.46 256.58 390.81 586.93 592.93 519.10 710.61 519.86 587.08 629.72 632.46 708.78 737.45 707.36
00005016 00000009 560.13 259.06 391.92 582.69 593.28 507.71 718.89 510.10 588.74 622.33 633.60 707.55 739.48 706.77
00005017 00000010 560.88 260.48 397.11 579.95 594.95 504.51 722.86 506.76 592.21 619.56 633.51 706.32 740.92 705.56
00005018 00000011 563.28 260.89 395.95 578.43 598.24 500.74 728.68 504.15 598.59 619.01 638.01 702.95 749.27 702.91
00005019 00000012 562.81 257.87 401.56 577.24 600.99 497.29 734.21 497.03 605.00 614.68 642.71 699.22 758.40 695.95
00005020 00000013 563.53 255.56 404.64 578.62 604.03 492.83 736.20 491.71 608.57 610.24 645.11 696.74 760.48 692.94
00005021 00000014 562.71 252.66 406.62 583.43 602.62 492.13 737.02 484.56 608.70 607.54 646.96 699.92 764.33 690.66
00005022 00000015 562.81 243.28 400.44 587.98 603.79 491.71 740.32 484.53 615.14 610.59 652.27 698.78 766.64 691.73
00005023 00000016 563.31 243.31 397.76 587.20 603.34 490.29 739.42 483.62 614.82 609.80 652.54 696.60 765.29 689.88
00005024 00000017 564.73 243.85 394.48 584.64 602.72 488.73 741.36 482.95 615.20 608.43 649.04 695.37 763.86 689.56
00005025 00000018 565.77 242.89 395.18 584.29 603.45 487.14 741.72 482.55 615.89 607.82 649.51 692.98 763.41 688.22
00005026 00000019 567.30 240.76 394.19 586.33 604.69 484.79 741.35 482.14 615.60 606.34 649.73 690.30 761.72 687.15
00005027 00000020 567.10 241.19 391.51 586.28 603.55 485.00 737.56 487.01 612.69 609.26 646.26 688.74 755.29 689.30
00005028 DELETE   564.35 239.55 393.65 586.81 603.24 487.84 725.41 492.74 601.99 608.42 643.17 686.17 747.77 688.87
00005029 DELETE   562.81 242.08 382.17 579.00 601.14 486.47 712.88 495.86 585.76 604.34 636.88 683.38 732.53 689.70
00005030 00000023 560.18 240.13 377.91 578.85 597.52 484.72 699.74 494.31 569.86 601.51 628.68 682.97 715.99 689.25
00005031 00000024 553.30 243.33 374.49 572.61 597.09 476.84 693.97 494.54 561.64 598.28 625.09 674.43 709.33 686.57
00005032 00000025 550.97 243.14 376.96 571.13 597.17 473.77 693.12 492.59 559.10 595.73 624.56 672.14 706.49 685.10
00005033 00000026 550.54 241.06 378.41 574.26 597.33 473.60 692.42 493.60 558.36 596.62 625.20 672.16 706.15 685.94
00005034 00000027 549.78 241.99 379.59 574.21 596.94 474.36 692.48 493.18 557.79 595.96 624.32 673.28 705.57 686.10
00005035 00000028 550.00 244.24 381.09 572.83 595.10 474.37 692.20 494.09 557.67 597.08 623.43 674.03 705.42 687.65
00005036 00000029 549.61 244.76 381.61 574.65 592.73 475.34 693.63 495.49 558.28 598.39 622.00 675.21 706.93 689.25
00005037 00000030 552.63 246.91 384.20 575.66 588.98 475.47 698.72 488.76 564.38 602.74 623.20 687.46 708.04 695.70
00005038 00000031 551.45 248.72 383.80 580.11 588.82 477.73 696.67 491.18 563.60 606.25 625.11 690.59 708.51 698.71
00005039 00000032 549.47 253.00 386.23 579.30 588.40 477.00 694.90 492.67 561.83 609.92 625.48 691.43 708.23 701.23
00005040 00000033 548.52 253.79 385.96 580.25 587.72 477.04 692.20 493.14 559.56 610.50 626.07 691.28 707.91 701.26
00005041 00000034 547.60 255.40 386.82 579.31 586.73 477.65 692.54 494.31 559.70 611.08 624.64 691.30 707.57 701.72
00005042 00000035 547.52 255.78 384.59 577.93 586.27 477.90 690.96 494.96 558.76 611.25 624.30 690.57 705.76 701.32
00005043 00000036 545.63 258.85 385.61 575.86 584.95 478.41 690.68 496.25 559.02 612.94 623.63 690.86 705.82 702.19
00005044 00000037 546.15 261.75 383.69 574.07 585.61 480.89 690.00 497.64 558.76 613.45 624.40 692.71 705.36 703.06
00005045 00000038 548.24 260.93 381.73 574.72 586.90 482.32 690.13 497.81 559.79 612.87 625.19 693.17 705.55 702.45
00005046 00000039 549.03 259.52 385.34 577.17 591.31 482.79 688.57 497.46 557.91 615.24 631.31 693.48 710.02 701.35
00005047 00000040 553.66 254.42 380.58 580.89 595.16 494.44 689.03 506.98 561.31 614.74 636.46 694.01 712.89 700.52
00005048 00000041 556.03 255.05 381.83 580.44 597.63 492.76 693.09 506.94 564.27 616.52 638.95 694.73 717.50 702.72
00005049 00000042 560.98 257.22 377.61 578.03 595.23 497.11 699.91 506.24 569.22 615.51 637.46 698.64 723.08 702.67
00005050 00000043 562.15 254.28 375.83 577.81 594.26 498.07 701.10 505.68 572.47 615.28 637.40 698.67 724.34 701.43
00005051 00000044 561.48 249.39 378.70 581.42 595.15 497.08 700.83 503.81 572.72 613.17 636.42 698.66 720.74 700.93
00005052 00000045 556.63 244.78 380.87 587.81 599.42 497.46 696.26 507.54 567.70 610.51 631.12 693.07 714.80 699.06
00005053 00000046 557.11 240.93 379.76 590.27 599.37 495.39 696.90 506.75 568.20 609.40 630.79 691.95 713.02 699.00
00005054 00000047 560.07 240.34 375.71 586.86 598.16 496.06 698.55 506.14 569.37 607.14 629.35 690.86 712.72 696.93
00005055 00000048 559.24 239.44 379.29 586.82 598.42 492.90 702.19 503.15 570.56 604.19 629.00 688.67 715.40 695.11
00005056 00000049 559.92 238.92 379.42 588.73 599.41 491.88 702.93 502.46 570.89 604.97 634.20 686.56 725.02 693.01
00005057 00000050 562.75 240.85 378.54 580.88 593.84 489.42 705.99 492.28 574.22 603.68 638.57 693.29 731.78 692.51
00005058 00000051 561.97 248.18 377.83 571.50 593.13 490.06 704.50 492.12 574.58 605.94 640.61 693.62 734.52 691.87
00005059 00000052 562.42 250.47 375.28 568.25 593.39 492.47 703.01 495.95 574.33 609.15 641.53 694.24 734.18 693.53
00005060 00000053 561.64 248.48 376.88 569.02 593.51 493.57 704.82 497.61 575.42 608.28 640.93 693.17 735.28 692.93
00005061 00000054 561.70 249.77 378.46 567.59 594.75 495.27 704.47 499.27 576.72 609.66 642.09 693.09 735.76 692.68
00005062 00000055 560.86 252.42 380.69 568.63 595.81 499.03 704.57 501.83 578.12 611.78 643.43 695.13 736.29 693.67
00005063 00000056 560.66 251.81 382.91 569.24 596.08 500.73 706.06 503.89 578.71 611.79 641.59 695.06 735.24 693.92
00005064 00000057 561.17 252.41 382.61 573.34 594.78 503.73 705.44 506.19 576.84 614.49 641.80 696.47 737.18 694.62
00005065 00000058 560.17 252.05 381.77 580.65 592.96 505.04 705.62 508.25 574.97 617.09 641.52 698.82 739.80 697.43
00005066 00000059 559.67 253.88 383.59 579.08 591.51 504.50 707.20 507.45 575.14 619.90 642.60 701.13 743.87 699.38
00005067 00000060 558.90 253.67 381.78 578.35 590.95 505.53 705.59 507.98 574.97 620.62 642.55 701.18 743.05 699.02
00005068 00000061 558.87 253.47 382.51 580.49 590.79 505.87 705.95 509.52 574.95 621.68 641.69 702.02 742.22 700.92
00005069 00000062 557.56 255.11 382.36 580.19 590.28 505.60 706.11 509.37 574.83 622.09 640.21 702.58 741.07 701.71
00005070 00000063 557.38 255.25 381.59 579.53 590.66 504.94 704.83 509.44 575.12 621.04 639.62 701.68 738.05 701.47
00005071 00000064 556.35 256.99 383.80 577.03 591.71 507.86 703.36 511.47 574.58 619.20 638.67 701.44 733.59 700.58
00005072 00000065 556.07 254.15 385.12 575.49 590.80 508.04 702.69 512.74 574.53 618.80 637.64 699.79 730.70 699.75
00005073 00000066 555.01 255.10 386.39 576.51 590.00 508.71 703.29 511.82 574.35 619.64 637.81 701.50 732.20 700.25
00005074 00000067 555.81 254.46 382.87 577.14 589.18 508.78 703.11 512.05 573.77 620.80 639.02 700.53 736.62 699.10
00005075 00000068 554.50 256.04 383.80 576.30 588.56 507.93 702.64 511.54 574.66 622.09 638.52 701.17 736.35 700.03
00005076 00000069 553.43 254.81 385.36 580.32 587.84 508.27 703.54 513.10 574.80 622.87 635.80 702.82 734.02 702.92
00005077 00000070 554.08 253.61 385.63 580.44 588.40 508.66 702.61 513.79 575.40 621.86 633.94 703.41 728.74 703.87
00005078 00000071 554.12 255.55 383.14 577.08 588.17 508.76 701.63 514.61 575.29 621.93 632.72 702.10 726.45 703.00
00005079 00000072 553.04 254.29 384.47 577.43 588.03 508.10 701.43 513.84 575.67 621.02 632.11 701.76 725.20 702.60
00005080 00000073 553.07 253.65 384.21 578.04 588.49 507.51 701.92 513.32 576.33 620.48 632.03 701.77 724.77 702.74
00005081 00000074 554.01 254.25 383.57 576.62 589.46 509.00 702.19 514.81 576.74 621.04 633.43 701.91 725.75 702.92
00005082 00000075 554.14 254.91 385.42 575.36 589.74 511.29 702.90 515.28 576.23 620.58 636.21 703.48 727.08 703.20
00005083 DELETE   555.33 252.44 386.09 576.36 590.75 510.37 704.25 513.63 577.68 619.06 639.56 702.09 731.81 701.25
00005084 DELETE   557.85 251.86 387.03 573.04 592.16 506.96 710.81 507.93 582.92 614.61 639.91 698.93 738.24 696.44
00005085 DELETE   559.30 247.94 385.88 572.87 595.02 501.85 712.19 503.42 586.60 608.98 639.70 695.30 736.45 693.74
00005086 00000079 555.98 244.27 389.56 578.83 599.81 496.79 711.58 502.36 587.02 606.26 638.68 688.94 734.53 691.39
00005087 00000080 556.93 240.08 393.79 582.49 601.37 493.08 712.83 499.71 587.70 604.11 638.80 686.35 734.13 689.98
00005088 00000081 556.56 242.26 395.73 579.82 602.55 492.12 715.07 499.55 589.39 604.98 639.81 685.83 735.87 690.16
00005089 00000082 557.27 242.11 393.75 581.85 602.00 496.38 717.51 502.52 590.39 606.34 640.35 688.78 738.16 691.83
00005090 00000083 562.40 247.28 389.84 572.16 598.44 501.20 721.58 501.57 592.74 606.10 640.67 695.85 741.74 693.41
00005091 00000084 564.80 244.53 386.54 579.16 599.13 506.02 721.28 505.15 594.54 609.27 643.49 700.72 743.99 697.30
00005092 DELETE   566.71 248.31 386.14 584.69 600.92 509.98 721.49 508.91 596.15 616.13 647.49 706.23 748.96 702.57
00005093 00000086 568.38 251.43 383.80 590.77 602.86 515.29 722.28 514.61 598.60 622.95 650.89 712.32 752.22 709.13
00005094 00000087 568.26 254.89 385.91 591.01 603.22 516.95 721.84 516.44 597.54 627.78 653.96 715.12 755.27 711.99
00005095 00000088 569.28 256.61 385.17 591.41 602.96 518.02 722.77 517.96 597.55 629.84 652.82 716.23 756.12 713.49
00005096 00000089 568.39 257.67 384.55 589.69 602.48 517.43 722.92 517.59 597.33 629.46 652.38 715.64 756.02 713.04
00005097 00000090 569.15 258.82 384.40 586.20 602.61 515.42 720.51 517.02 594.88 629.35 652.79 714.31 754.41 712.76
00005098 00000091 568.04 258.44 384.91 585.35 602.28 515.14 720.35 517.48 594.87 628.96 651.87 713.62 752.82 712.62
00005099 00000092 567.68 256.43 384.72 585.92 601.45 513.89 719.65 516.08 593.75 628.11 651.97 712.04 753.42 710.84
00005100 00000093 567.95 254.17 383.65 586.22 602.03 513.01 719.58 515.31 594.72 626.56 652.89 710.88 753.21 709.75
00005101 00000094 568.64 257.03 386.06 584.35 602.93 513.86 721.22 516.22 595.48 628.00 653.15 712.50 753.82 711.52
00005102 00000095 569.19 257.61 387.14 582.17 603.68 513.27 722.47 515.65 596.38 627.46 653.18 711.97 753.91 710.99
00005103 00000096 570.12 258.90 388.97 579.48 603.58 512.87 724.42 513.56 598.36 626.91 652.99 712.59 754.10 710.21
00005104 00000097 570.59 261.53 386.87 577.16 604.35 514.27 723.18 514.53 598.44 627.51 654.05 713.91 753.33 711.24
00005105 00000098 571.03 263.27 387.42 577.18 603.54 511.49 724.70 511.61 597.76 627.33 653.39 712.55 756.75 709.84
00005106 00000099 570.55 266.33 386.69 574.64 603.74 510.79 725.31 511.16 598.47 628.40 654.68 711.59 759.75 708.93
00005107 00000100 571.49 267.49 386.78 572.33 604.36 511.08 725.66 510.92 599.36 629.41 656.99 711.42 762.06 708.35
00005108 00000101 572.67 267.11 386.46 572.21 605.24 507.59 727.60 509.74 600.33 628.25 657.46 710.15 762.99 708.94
00005109 00000102 573.72 266.21 388.10 575.35 606.37 512.07 728.69 512.56 601.84 630.36 660.07 712.77 766.78 710.03
00005110 DELETE   574.23 266.31 386.34 575.17 606.54 513.22 729.58 512.70 603.41 629.54 659.24 712.44 766.82 709.08
00005111 00000104 573.73 266.34 386.77 572.68 606.44 508.31 730.04 510.23 602.16 626.58 655.18 709.77 761.29 708.66
00005112 00000105 573.49 265.58 385.01 572.26 608.02 507.37 729.27 510.13 602.66 623.86 652.76 707.81 754.85 707.74
00005113 00000106 571.25 266.03 387.16 567.97 607.30 505.44 727.15 511.69 600.01 621.93 647.72 703.25 747.64 705.78
00005114 00000107 571.04 265.28 386.86 567.53 605.79 505.80 726.85 512.30 598.75 620.81 643.44 703.19 743.65 705.79
00005115 00000108 570.62 266.49 387.51 568.18 604.98 507.81 726.29 513.10 598.15 620.77 641.96 704.56 743.12 706.25
00005116 00000109 570.26 265.08 385.56 567.38 604.75 507.89 726.22 513.07 598.23 619.66 642.02 704.40 742.66 705.85
00005117 00000110 570.21 259.56 387.48 576.60 603.57 509.39 725.08 512.00 595.59 620.19 644.79 707.78 746.51 707.11
00005118 00000111 571.00 258.85 384.22 579.52 603.13 511.03 725.10 511.75 596.09 622.77 649.78 710.24 752.72 708.04
00005119 00000112 568.62 260.56 386.88 576.29 601.36 509.27 723.69 509.48 594.15 621.13 648.26 707.91 752.56 705.04
00005120 DELETE   567.95 261.31 386.90 574.42 601.79 510.51 721.01 510.18 592.56 620.16 649.39 707.04 751.80 703.59
00005121 00000114 568.70 262.46 386.56 577.67 602.21 511.82 722.00 512.08 592.84 623.27 648.55 710.43 752.08 707.66
00005122 00000115 568.38 261.58 384.97 574.00 601.87 509.56 721.84 510.36 592.22 620.75 648.79 707.15 751.98 704.64
00005123 00000116 566.29 259.60 385.49 575.66 600.69 508.84 721.51 509.80 591.54 619.94 647.06 706.63 750.97 704.24
00005124 DELETE   567.10 261.20 387.39 575.43 601.44 510.96 721.53 513.06 591.92 622.43 646.99 708.05 749.87 706.67
00005125 DELETE   565.26 263.95 387.41 570.32 600.12 509.99 719.77 513.05 590.48 621.77 644.80 705.26 747.33 704.62
00005126 DELETE   564.50 259.04 388.23 576.08 599.22 511.30 719.70 514.19 590.34 622.01 644.52 706.12 747.55 705.21
00005127 00000120 564.29 258.54 384.58 578.00 597.99 513.17 717.31 515.27 589.50 622.54 643.06 707.41 745.80 705.90
00005128 DELETE   563.04 257.12 382.38 571.74 596.22 509.97 715.77 511.20 587.73 617.37 639.74 701.76 741.80 699.49
00005129 00000122 560.75 255.24 383.63 570.04 594.91 507.50 712.62 506.53 584.43 610.80 636.34 699.48 735.49 695.64
00005130 00000123 559.39 250.55 383.89 572.06 593.84 504.25 712.38 502.39 584.27 606.22 635.15 697.63 733.81 693.26
00005131 00000124 558.77 243.10 386.19 575.78 594.37 499.36 714.71 498.07 585.29 601.24 633.91 694.97 733.32 691.34
00005132 00000125 559.94 243.35 385.36 575.81 595.05 499.33 715.09 498.48 585.06 601.60 634.38 694.99 733.68 691.66
00005133 00000126 561.22 245.01 385.28 577.06 594.63 503.60 715.17 501.22 585.27 603.71 634.27 697.61 734.61 692.91
00005134 00000127 560.95 247.98 387.45 574.01 595.58 502.25 716.40 500.98 586.52 604.84 635.19 697.47 735.09 693.67
00005135 00000128 561.25 249.80 388.59 572.60 595.79 501.11 717.86 500.10 587.32 604.94 635.02 697.65 735.56 694.04
00005136 00000129 561.68 251.65 387.45 570.80 596.56 499.62 719.06 498.87 587.94 605.30 636.69 697.00 738.68 693.42
00005137 00000130 562.12 251.48 384.64 570.59 596.33 498.18 718.46 495.97 587.68 605.03 639.31 695.92 742.44 690.93
00005138 00000131 562.78 251.19 382.40 568.28 595.99 497.58 718.27 495.68 588.54 605.31 639.74 695.22 743.39 690.31
00005139 00000132 562.69 248.14 382.84 570.83 596.03 495.94 718.41 495.43 588.19 604.27 638.38 694.88 742.09 691.15
00005140 00000133 562.15 248.89 385.58 572.36 596.88 496.17 719.52 496.01 588.34 603.68 636.47 694.68 739.61 691.48
00005141 00000134 561.54 249.56 387.28 572.59 597.26 496.06 718.89 495.78 587.66 603.20 636.04 695.10 737.83 691.85
00005142 00000135 561.33 249.82 390.06 574.02 597.33 495.82 719.98 493.85 587.17 601.98 636.71 694.99 739.91 690.39
00005143 00000136 561.57 249.99 388.52 572.14 596.91 495.11 719.81 492.19 587.17 601.64 638.04 694.36 742.45 688.84
00005144 00000137 561.40 250.87 388.11 569.86 596.68 492.87 719.89 491.11 587.27 601.45 638.31 693.90 742.24 689.27
00005145 00000138 560.68 250.19 389.65 569.34 596.28 491.47 719.78 490.64 586.68 600.75 637.15 693.50 740.89 689.66
00005146 00000139 560.93 249.91 387.03 568.93 596.57 490.95 720.51 491.47 587.36 600.38 635.95 692.91 739.35 690.28
00005147 00000140 560.81 252.38 389.40 567.18 597.15 491.74 720.78 492.11 587.56 600.74 636.16 692.99 739.36 690.23
00005148 00000141 560.82 253.24 390.26 566.14 597.65 492.21 721.14 492.95 588.14 601.54 636.30 693.00 739.61 690.51
00005149 00000142 558.44 249.69 388.29 573.81 603.55 493.71 716.15 500.81 587.14 604.33 639.53 688.06 737.02 691.95
00005150 00000143 558.36 249.06 389.12 574.70 603.48 493.34 716.52 500.96 586.86 604.13 638.35 687.42 736.61 691.77
00005151 00000144 557.77 247.41 390.19 577.42 602.94 491.88 715.19 500.37 585.35 604.29 636.00 687.19 732.41 692.42
00005152 00000145 558.19 249.22 391.79 574.36 602.15 487.81 713.09 496.92 583.81 605.08 633.41 686.91 728.07 693.07
00005153 00000146 558.87 248.98 392.13 574.94 602.18 487.25 713.77 495.77 583.91 603.67 630.99 687.85 724.93 693.75
00005154 00000147 559.46 248.17 391.47 576.20 602.29 486.68 714.04 495.13 584.01 603.45 630.75 687.86 723.85 693.76
00005155 00000148 559.35 246.99 390.92 577.26 602.16 486.26 714.20 494.22 583.73 602.04 629.86 688.39 722.03 693.98
00005156 00000149 559.13 248.64 390.92 574.54 602.26 484.84 714.42 494.90 583.93 602.84 629.74 685.97 722.33 693.20
00005157 00000150 558.48 251.05 390.71 567.87 603.06 483.49 714.11 494.97 585.03 602.45 630.96 680.78 723.71 689.07
00005158 00000151 559.40 251.33 391.80 566.51 602.77 481.80 715.66 492.30 585.21 601.23 632.66 679.71 728.10 687.12
00005159 00000152 560.47 253.27 393.04 567.46 604.79 482.26 716.63 490.63 586.80 600.36 637.53 680.08 735.17 685.47
00005160 00000153 561.19 255.56 391.86 565.57 607.28 481.73 718.97 489.38 589.10 601.01 644.11 678.83 745.79 683.39
00005161 00000154 562.96 254.45 390.60 565.35 609.45 480.92 720.93 487.95 591.05 598.74 647.96 676.35 750.39 680.41
00005162 00000155 568.07 249.47 381.31 566.69 611.36 486.99 720.99 489.83 594.70 598.28 647.93 676.30 749.02 677.11
00005163 00000156 573.12 248.94 377.88 564.74 607.53 495.96 718.66 491.51 595.78 598.78 648.47 683.14 746.87 677.39
00005164 00000157 573.38 239.44 372.60 571.91 610.46 481.36 722.19 485.19 592.34 586.91 642.09 671.74 741.69 673.37
00005165 00000158 574.71 235.56 376.32 573.65 611.03 477.35 727.68 476.86 598.46 584.36 642.10 672.41 743.75 671.12
00005166 00000159 578.16 228.72 383.93 580.71 612.12 472.93 736.29 469.04 606.01 579.83 641.87 675.08 744.75 671.65
00005167 DELETE   580.61 222.59 389.01 579.89 615.84 462.81 754.68 462.19 618.59 577.02 637.68 667.27 750.47 667.52
00005168 DELETE   589.78 213.61 390.65 585.39 625.37 455.24 764.25 457.82 629.07 566.42 639.19 659.33 753.91 662.79
00005169 00000162 605.04 214.86 384.24 575.66 635.86 450.92 771.20 453.48 633.10 557.97 645.09 656.00 762.89 658.20
00005170 00000163 604.48 208.04 385.37 575.87 638.48 441.90 774.80 449.88 633.00 549.39 641.41 645.33 760.11 652.38
00005171 DELETE   601.42 204.38 385.84 572.18 636.40 435.66 768.61 445.27 623.95 541.89 636.22 636.11 750.14 644.75
00005172 00000165 593.92 210.17 386.50 569.89 630.96 433.84 760.82 441.20 618.36 536.37 633.77 635.21 742.94 641.17
00005173 00000166 592.37 209.43 385.27 573.14 629.01 432.40 758.86 439.50 615.10 539.18 634.36 637.73 744.81 643.24
00005174 00000167 596.07 207.88 384.80 571.06 629.46 432.72 760.78 445.50 618.28 544.90 637.55 635.89 756.03 645.91
00005175 00000168 597.30 212.42 385.63 573.57 630.43 439.24 767.02 448.13 623.45 550.74 640.86 644.00 765.73 650.80
00005176 00000169 599.05 212.35 385.70 572.84 632.00 438.51 771.46 450.02 626.88 553.51 640.94 646.10 765.86 655.33
00005177 00000170 601.05 211.73 385.72 570.07 633.23 437.34 771.35 451.16 626.44 550.85 638.10 643.32 760.55 654.72
