Video ID: 	9IqsRSNFv4Y
H: 	1080
W: 	1920
FPS: 	23.976023976023978

FRAME INDEX X0 Y0 W H [Landmarks (5 Points)]

00000735 00000000 474.40 181.29 450.19 594.51 571.13 436.76 756.58 396.46 668.76 513.99 632.10 633.91 792.22 599.33
00000736 00000001 469.42 187.04 452.61 590.28 567.68 438.46 751.93 398.00 664.36 515.01 629.81 635.05 788.42 600.29
00000737 00000002 466.00 185.40 455.20 595.05 568.16 440.63 750.56 399.91 665.58 518.65 633.35 638.32 787.47 603.35
00000738 00000003 465.19 186.14 455.50 590.55 569.38 441.42 751.37 401.17 667.18 517.88 633.87 636.78 786.19 602.30
00000739 00000004 467.46 184.75 454.26 591.35 572.49 442.19 753.94 401.38 671.64 518.10 637.66 637.14 788.85 602.14
00000740 00000005 472.03 187.76 452.10 592.82 579.01 443.55 762.38 403.66 682.12 523.86 644.67 641.76 796.00 607.71
00000741 DELETE   477.57 187.73 447.59 593.91 587.20 443.99 770.81 404.49 693.84 525.54 651.78 643.70 802.50 610.32
00000742 DELETE   480.35 185.02 449.33 616.85 593.02 444.89 783.00 400.22 708.10 528.03 658.08 653.42 819.24 615.59
00000743 00000008 485.14 182.24 449.56 611.46 599.72 446.54 793.41 399.88 720.95 528.67 662.60 651.02 828.32 611.41
00000744 00000009 493.40 169.56 442.71 612.08 606.23 441.93 794.73 393.92 726.79 520.55 679.10 642.37 845.08 602.36
00000745 00000010 497.45 171.49 445.15 606.36 610.21 441.46 801.27 394.17 730.63 517.95 679.70 637.14 849.57 597.38
00000746 00000011 499.89 172.98 446.82 599.78 615.25 440.83 803.59 392.48 735.23 513.57 688.78 633.51 852.67 592.68
00000747 00000012 503.34 171.89 444.25 601.95 618.35 442.90 805.88 393.28 739.15 512.99 693.74 636.28 857.76 594.32
00000748 00000013 504.50 171.46 442.48 600.09 620.74 442.43 807.97 393.17 743.11 512.39 698.41 636.06 859.76 594.41
00000749 00000014 505.79 170.78 440.82 611.24 623.21 441.55 809.32 391.22 748.72 512.36 704.68 642.10 864.70 599.65
00000750 00000015 505.92 166.85 440.31 614.80 622.25 440.77 808.96 390.76 746.75 512.25 699.44 639.23 864.46 597.00
00000751 DELETE   509.31 172.72 436.84 601.91 629.88 449.78 807.25 403.25 747.08 510.95 698.53 631.59 858.74 592.74
00000752 DELETE   508.35 171.37 435.17 603.20 625.96 451.77 805.78 405.46 741.86 514.70 689.06 630.74 854.25 592.53
00000753 00000018 502.65 175.53 437.86 602.54 618.45 453.00 801.08 405.88 734.31 518.38 682.68 634.81 848.84 595.99
00000754 DELETE   495.30 170.90 442.18 614.29 610.33 450.44 795.09 404.76 726.35 522.12 672.38 639.60 841.46 601.75
00000755 DELETE   491.83 172.05 441.61 619.96 604.92 450.44 788.20 407.06 717.18 520.65 661.61 641.14 830.31 604.70
00000756 DELETE   485.13 184.43 443.26 605.28 596.42 454.49 783.53 414.46 705.96 531.01 646.01 642.17 814.21 608.08
00000757 00000022 487.98 188.08 438.14 606.02 592.93 454.38 776.51 414.99 696.08 530.44 641.64 643.56 808.40 609.79
00000758 00000023 488.21 188.19 436.69 611.71 589.08 454.25 772.49 415.25 690.44 531.65 637.46 645.59 805.71 612.27
00000759 00000024 488.57 184.34 435.55 614.25 587.27 453.24 770.27 414.55 686.92 531.47 635.61 645.14 803.46 612.05
00000760 00000025 489.98 186.67 436.80 613.36 585.84 452.72 770.48 415.57 683.80 531.67 632.65 644.75 802.28 612.86
00000761 00000026 492.38 189.15 435.09 609.76 586.07 450.71 771.88 414.39 683.91 530.81 632.38 644.40 802.41 613.16
00000762 00000027 491.82 196.22 436.63 602.37 587.63 454.69 768.79 414.94 684.65 528.34 635.20 643.52 805.65 609.07
00000763 00000028 494.43 197.67 436.81 601.05 589.33 450.66 770.02 414.85 683.05 526.69 632.35 639.55 803.26 608.11
00000764 00000029 495.06 193.62 437.35 600.34 592.12 454.47 771.51 416.57 686.68 526.81 637.89 640.54 803.38 607.32
00000765 00000030 495.64 188.04 432.26 594.59 598.02 453.05 775.65 425.90 687.02 526.35 641.47 638.29 792.71 614.64
00000766 DELETE   495.75 189.11 432.86 590.87 599.12 455.22 775.52 424.77 689.12 525.20 646.06 639.44 793.85 613.35
00000767 00000032 491.59 188.70 437.10 588.81 595.79 455.26 772.47 421.81 689.62 528.41 646.50 639.82 793.35 611.50
00000768 00000033 487.82 188.55 436.97 591.54 591.14 453.10 767.61 417.53 688.22 528.52 645.13 641.64 792.29 611.65
00000769 00000034 481.85 187.41 444.90 601.58 586.13 449.17 764.42 411.93 684.81 527.28 645.53 644.66 793.77 613.15
00000770 00000035 478.00 185.93 444.81 596.22 580.80 449.88 762.96 408.75 683.14 526.80 643.66 644.75 796.38 609.91
00000771 00000036 475.42 186.41 444.87 593.74 578.83 447.94 762.17 406.54 681.86 526.52 642.87 644.02 796.84 608.89
00000772 00000037 476.14 183.87 444.90 598.89 577.98 447.03 762.06 405.29 679.58 525.12 641.16 645.85 795.56 610.55
00000773 00000038 478.21 187.51 445.59 606.20 581.53 442.98 762.51 403.50 682.05 523.03 646.41 646.63 796.86 613.13
00000774 00000039 480.07 182.21 446.12 614.74 582.08 440.83 763.65 401.85 682.06 519.89 644.69 644.55 798.59 611.21
00000775 00000040 483.53 181.94 443.59 617.07 582.08 439.10 765.47 399.71 682.79 520.58 642.80 644.12 801.38 610.32
00000776 00000041 487.28 183.62 443.48 612.38 584.70 438.01 771.22 399.28 686.60 521.03 641.82 640.97 805.88 607.35
00000777 00000042 491.02 181.83 441.66 612.71 587.02 438.36 775.86 399.73 689.25 522.91 640.39 639.68 809.06 605.74
00000778 00000043 491.87 182.88 439.95 607.59 588.50 438.14 781.04 399.67 693.49 523.74 639.16 637.27 814.03 603.41
00000779 00000044 492.35 180.89 440.12 609.64 590.37 437.95 782.39 398.92 694.84 523.28 639.81 636.16 815.73 601.87
00000780 00000045 492.94 179.78 440.20 611.53 590.68 436.66 783.30 397.82 695.29 522.88 640.15 635.53 817.18 601.32
00000781 00000046 491.81 178.35 440.66 612.99 589.83 435.67 783.21 397.79 694.69 521.58 638.38 634.42 816.49 601.12
00000782 00000047 491.12 177.83 440.45 612.50 589.10 435.28 782.38 397.28 694.51 520.82 637.84 633.78 816.19 600.31
00000783 00000048 491.64 176.90 440.37 612.97 588.49 435.29 781.67 396.56 694.00 520.13 637.63 632.94 816.88 598.74
00000784 00000049 493.71 183.29 435.35 604.22 590.21 441.02 781.09 402.48 692.47 520.15 636.26 630.21 816.62 596.38
00000785 00000050 493.40 181.26 434.52 607.27 592.87 443.84 781.88 407.11 692.94 519.40 636.89 629.66 816.34 597.10
00000786 00000051 494.86 180.06 433.52 610.09 593.93 442.36 784.44 406.39 695.11 519.93 638.11 630.96 817.99 599.21
00000787 00000052 496.12 178.10 434.18 612.51 592.99 439.86 785.95 401.78 696.71 520.53 637.72 630.93 821.22 597.47
00000788 00000053 494.98 173.78 437.22 612.82 592.13 435.33 787.07 398.54 697.73 518.93 636.70 627.46 821.80 595.04
00000789 00000054 494.98 174.19 439.14 612.03 591.77 433.71 787.24 396.49 697.21 518.11 636.70 627.13 822.33 594.30
00000790 00000055 495.56 168.94 439.09 617.43 592.75 432.51 788.49 396.21 697.94 515.88 637.10 626.22 823.33 594.10
00000791 00000056 494.64 168.42 439.77 618.40 592.82 431.58 788.25 395.86 698.02 514.28 637.13 626.18 822.66 594.47
00000792 00000057 495.28 168.52 438.30 624.72 593.22 430.19 788.32 396.22 697.91 514.08 637.14 629.85 820.90 599.61
00000793 00000058 494.80 168.03 436.94 625.23 593.82 429.65 787.79 396.18 698.48 514.72 640.73 632.40 819.91 602.59
00000794 00000059 495.02 167.94 438.11 624.66 593.42 429.53 787.97 395.78 697.77 514.18 640.14 631.69 819.99 601.61
00000795 00000060 494.57 166.65 439.77 622.63 593.47 429.31 787.35 395.30 696.89 513.60 640.43 630.00 819.83 599.68
00000796 00000061 494.46 165.81 440.93 622.59 594.05 429.04 786.83 394.78 697.13 511.65 640.97 628.73 818.82 598.20
00000797 00000062 494.58 167.04 442.29 621.30 594.42 428.89 787.28 395.32 697.42 511.64 640.87 628.28 818.75 598.33
00000798 00000063 495.43 168.09 441.55 618.30 594.94 428.42 787.39 395.08 697.29 510.70 641.51 627.52 818.51 597.75
00000799 00000064 497.32 167.32 439.31 616.21 596.01 427.38 786.86 394.79 697.11 509.27 642.15 625.35 817.17 596.13
00000800 00000065 496.87 166.46 440.61 615.04 596.10 427.55 787.27 395.20 697.35 508.78 643.23 624.84 817.31 595.80
00000801 00000066 497.94 164.91 439.41 618.94 597.30 428.19 788.37 396.12 697.79 508.96 642.77 625.20 817.87 596.46
00000802 00000067 500.62 167.46 433.59 615.90 600.45 437.54 788.26 405.01 698.41 509.54 643.58 626.33 816.50 597.45
00000803 00000068 499.34 167.91 434.82 616.51 599.89 438.78 787.47 406.54 697.35 508.99 643.03 626.89 815.78 598.00
00000804 00000069 500.82 166.84 435.15 619.20 599.47 438.58 788.85 405.81 696.84 510.20 642.28 627.73 816.89 598.34
00000805 00000070 501.04 166.96 434.17 616.51 598.71 437.60 787.77 404.89 695.80 511.66 642.33 627.33 815.96 598.15
00000806 00000071 500.77 169.26 433.30 615.77 596.23 437.36 786.11 404.49 694.31 515.63 640.84 629.57 815.18 600.38
00000807 00000072 500.74 173.17 433.30 613.90 594.41 436.91 784.25 404.68 691.74 517.98 638.67 631.00 812.66 602.34
00000808 00000073 500.16 174.29 433.76 612.29 593.49 436.39 782.87 405.03 690.41 519.05 638.12 630.49 811.13 602.50
00000809 00000074 500.41 175.82 434.61 612.84 592.63 436.63 782.24 404.47 688.84 519.26 637.23 631.47 810.62 602.76
00000810 00000075 500.80 175.95 434.39 611.40 592.10 436.89 781.45 404.79 687.33 519.44 636.46 631.13 809.63 602.39
00000811 00000076 500.65 174.64 433.53 610.11 591.46 436.53 779.08 404.83 685.53 519.47 636.42 630.33 806.80 602.04
00000812 00000077 500.72 173.20 433.56 609.47 591.88 435.99 777.74 405.60 684.59 518.50 637.67 630.32 803.67 603.29
00000813 00000078 501.37 172.76 434.56 611.59 592.61 432.50 779.22 404.42 684.86 518.22 638.71 630.90 802.55 605.86
00000814 00000079 504.20 170.10 431.58 612.75 595.06 429.06 781.41 401.94 685.55 514.96 642.15 631.12 801.51 607.04
00000815 00000080 508.25 164.02 428.78 609.19 601.44 427.19 786.38 402.08 690.73 512.16 647.76 628.91 800.23 606.87
00000816 00000081 512.51 159.75 424.23 601.05 605.99 424.72 792.18 402.16 695.53 511.25 648.51 621.21 804.04 601.65
00000817 00000082 519.07 159.87 422.51 601.62 611.77 429.52 797.71 407.53 698.57 510.83 649.34 617.77 809.18 598.92
00000818 00000083 526.01 158.98 421.58 599.84 612.26 426.59 799.09 399.92 701.49 505.75 651.24 616.18 812.13 593.20
00000819 00000084 526.22 163.03 425.88 599.64 609.57 422.12 797.53 392.01 700.06 500.57 651.50 615.97 815.13 590.01
00000820 00000085 525.35 159.02 427.85 604.60 606.85 416.83 789.72 385.19 696.23 498.47 653.44 617.17 808.74 590.38
00000821 00000086 523.60 158.27 428.89 605.73 604.75 413.76 783.90 381.35 691.85 496.09 651.16 615.92 805.19 588.36
00000822 00000087 524.20 158.54 428.48 600.90 603.49 411.11 782.03 379.11 688.50 492.28 649.08 611.15 802.76 583.73
00000823 00000088 523.75 160.05 428.71 596.34 604.55 409.79 782.14 380.50 687.63 488.11 643.50 601.80 802.09 576.24
00000824 00000089 522.34 159.26 427.15 596.06 603.88 407.94 781.45 381.24 686.63 487.57 639.29 598.35 800.50 574.83
00000825 00000090 516.55 154.97 430.37 605.30 600.99 408.96 780.47 379.83 686.24 487.28 641.23 603.48 800.96 578.03
00000826 00000091 514.02 156.09 438.06 612.56 591.82 414.41 777.98 380.91 676.72 490.04 638.02 612.99 801.33 584.37
00000827 00000092 509.49 161.40 431.70 605.29 592.73 414.57 781.52 384.86 680.08 493.70 629.91 605.83 805.93 580.34
00000828 00000093 506.56 161.32 433.73 602.03 591.42 414.46 779.61 384.82 678.62 494.08 628.48 601.31 807.06 575.65
00000829 00000094 507.49 160.13 432.71 603.62 592.46 412.90 780.85 384.17 680.17 493.02 627.42 599.55 808.32 574.63
00000830 00000095 510.57 161.31 431.98 605.04 595.55 412.79 784.95 383.81 684.41 493.27 629.84 601.04 811.47 575.96
00000831 00000096 519.92 155.33 428.53 612.33 604.20 407.85 787.48 381.77 692.01 490.00 637.39 607.83 810.73 584.72
00000832 00000097 522.91 148.64 428.13 633.46 610.79 404.67 793.95 382.00 697.57 489.96 640.11 613.50 812.48 593.65
00000833 00000098 526.66 146.58 426.77 642.11 615.89 402.17 799.29 382.49 700.71 490.66 643.35 617.33 812.96 600.31
00000834 00000099 529.22 146.32 426.83 637.95 618.79 401.42 806.83 384.25 705.49 491.20 645.10 616.56 816.09 601.58
00000835 00000100 531.76 149.19 423.78 620.09 621.74 402.13 811.52 388.20 711.37 487.99 648.04 610.45 815.21 597.95
00000836 00000101 530.89 151.62 422.28 611.83 622.85 401.42 813.11 389.27 714.31 485.91 648.90 606.06 813.05 595.02
00000837 00000102 530.71 151.27 422.57 611.37 622.55 402.57 812.26 388.33 715.68 486.91 652.66 608.20 813.41 595.55
00000838 00000103 531.44 153.93 421.98 601.95 621.66 406.22 811.74 389.85 716.50 486.52 654.45 609.46 815.23 595.00
00000839 00000104 529.30 152.66 422.80 607.20 620.78 406.79 810.37 390.03 714.98 485.73 652.22 610.41 814.48 595.71
00000840 00000105 527.01 150.52 424.46 622.71 620.90 402.68 805.71 384.85 711.29 485.00 650.97 609.16 813.09 593.62
00000841 00000106 526.88 151.77 424.32 622.15 619.24 402.89 803.22 383.40 708.98 485.62 651.77 609.82 814.73 592.76
00000842 00000107 527.18 151.11 423.44 620.96 619.03 403.75 802.93 383.75 709.76 486.01 651.79 609.41 817.12 591.71
00000843 00000108 527.18 150.77 423.46 620.32 618.47 404.04 803.19 384.08 709.34 486.91 651.29 610.10 817.71 592.31
00000844 00000109 526.07 150.22 423.95 624.31 618.90 403.01 804.46 384.28 710.24 487.52 650.95 612.91 815.76 596.46
00000845 00000110 525.74 148.74 425.27 631.92 620.23 401.60 807.03 384.79 710.19 488.04 649.10 617.08 813.01 602.63
00000846 00000111 526.07 147.58 424.06 639.65 621.14 401.93 810.47 385.12 713.29 489.82 650.61 622.96 816.68 608.65
00000847 00000112 527.69 149.31 423.20 637.32 622.39 403.06 812.60 386.19 715.78 491.48 652.27 623.91 819.63 609.53
00000848 00000113 528.23 149.74 422.02 622.91 622.85 404.46 814.10 388.45 718.02 490.95 652.64 616.89 819.04 603.14
00000849 00000114 526.77 147.91 426.19 609.27 615.36 407.27 809.07 384.91 712.72 488.73 654.19 612.28 815.24 594.57
00000850 00000115 527.93 152.99 421.42 605.49 621.92 406.47 812.57 391.21 718.42 486.41 651.12 608.19 818.71 594.60
00000851 00000116 525.96 151.26 423.61 622.13 620.72 405.47 810.04 386.82 716.60 489.17 653.30 613.50 823.70 596.77
00000852 00000117 523.37 150.37 424.56 623.97 618.83 407.14 808.17 386.48 715.71 490.53 650.68 611.93 826.14 593.41
00000853 00000118 523.27 151.76 424.67 620.46 615.98 407.90 806.40 386.18 713.91 490.98 647.62 611.80 826.55 592.65
00000854 00000119 519.40 157.73 422.19 609.79 609.54 411.41 807.25 387.26 706.46 495.01 641.51 609.27 823.90 589.09
00000855 00000120 516.42 158.33 424.46 612.90 608.60 412.24 804.99 388.41 704.87 494.18 639.48 609.28 822.41 589.20
00000856 00000121 513.65 157.66 424.11 614.56 609.05 416.86 801.91 393.66 704.18 492.64 641.71 609.91 820.59 590.07
00000857 00000122 512.86 158.07 425.92 620.69 608.46 418.43 804.51 394.05 705.62 494.36 641.47 614.68 823.60 593.90
00000858 00000123 516.65 157.90 420.74 627.05 609.18 418.56 805.61 395.09 703.99 496.11 641.76 624.51 817.02 605.21
00000859 00000124 521.16 157.59 421.75 630.22 613.88 420.47 808.12 397.72 706.42 499.17 648.27 628.91 815.86 610.56
00000860 00000125 525.82 152.81 420.20 619.52 619.27 420.09 808.81 401.87 710.71 501.50 646.81 620.54 815.19 605.63
00000861 00000126 530.59 156.65 421.30 599.04 620.68 423.03 814.82 405.62 712.20 498.34 647.39 615.44 816.43 600.59
00000862 00000127 536.33 159.02 421.48 590.24 626.21 422.89 818.50 409.00 714.39 496.86 653.14 611.78 814.31 599.48
00000863 00000128 543.29 158.60 420.91 593.08 634.82 423.02 820.17 410.45 720.72 498.02 663.11 611.03 814.65 600.14
00000864 00000129 551.75 161.41 419.09 588.53 639.06 424.79 824.16 410.27 723.75 497.85 667.50 608.82 824.67 596.30
00000865 00000130 560.21 165.94 420.23 588.93 644.47 423.10 825.05 406.26 723.98 495.31 673.82 607.78 829.80 593.46
00000866 00000131 564.28 165.26 422.01 594.87 648.30 422.19 824.82 402.23 725.51 493.45 680.96 608.07 833.61 591.55
00000867 00000132 567.27 162.74 422.33 607.03 650.36 421.99 827.43 399.31 725.30 492.07 683.79 614.04 835.87 595.36
00000868 00000133 568.35 162.42 424.59 612.50 649.64 421.02 831.19 397.56 725.88 494.13 683.14 616.97 841.16 597.46
00000869 00000134 566.51 162.36 426.71 615.94 648.24 420.78 830.65 398.80 725.27 498.46 681.18 618.38 842.10 599.65
00000870 00000135 562.79 161.09 427.56 624.95 645.26 420.31 829.76 398.55 722.60 501.50 676.58 625.03 840.29 606.80
00000871 00000136 557.94 160.45 424.55 626.42 641.93 421.25 828.04 400.49 722.50 503.68 671.63 624.90 838.95 607.67
00000872 00000137 551.74 159.69 424.11 623.05 636.06 420.26 824.13 399.81 720.30 506.33 665.68 624.57 835.02 607.42
00000873 00000138 549.24 157.87 421.60 615.66 631.68 419.74 821.68 402.87 717.84 508.18 660.34 621.86 828.93 607.31
00000874 00000139 543.76 157.38 422.83 607.83 626.58 418.61 818.05 403.78 712.57 505.72 654.53 619.24 819.98 606.27
00000875 00000140 542.38 154.99 418.87 607.00 625.76 421.33 816.69 408.35 708.84 505.65 649.95 620.62 813.17 609.38
00000876 00000141 540.94 157.56 417.53 608.50 625.80 422.08 817.82 413.88 706.99 506.68 642.85 619.66 810.83 612.21
00000877 00000142 539.58 156.37 417.59 615.50 628.35 421.29 815.26 415.30 707.40 505.75 643.24 619.63 803.96 614.44
00000878 00000143 540.55 154.97 416.25 616.74 630.68 420.55 817.15 416.50 708.60 505.55 642.96 618.53 803.55 615.02
00000879 00000144 543.51 154.14 416.32 616.48 633.25 419.91 820.11 417.58 710.60 506.54 645.15 616.92 805.75 614.45
00000880 00000145 547.77 160.27 417.04 609.09 637.31 419.76 822.84 418.06 714.56 505.52 651.44 614.89 810.70 612.83
00000881 00000146 552.01 162.85 418.91 609.01 639.76 421.26 825.57 416.73 716.04 502.85 654.89 613.42 818.19 608.74
00000882 00000147 556.53 165.16 420.65 608.55 642.52 420.60 826.62 413.74 716.57 501.08 660.17 613.70 824.16 607.08
00000883 00000148 560.05 163.72 419.09 612.78 644.47 421.21 827.79 413.07 717.88 500.67 662.88 616.17 824.97 608.85
00000884 00000149 563.89 162.26 419.44 615.90 645.51 422.51 827.71 410.88 717.77 500.37 666.62 619.45 825.30 609.38
00000885 00000150 565.94 163.95 419.91 616.14 644.82 424.86 825.26 408.27 715.94 500.93 671.44 625.39 824.53 611.67
00000886 00000151 564.29 167.02 423.11 618.90 643.51 429.17 822.47 408.96 715.50 506.71 675.47 630.44 827.14 613.90
00000887 00000152 564.27 167.01 421.12 621.09 642.96 435.90 818.20 414.71 713.82 512.07 676.32 635.10 823.76 617.93
00000888 00000153 561.57 171.07 419.56 615.40 639.42 438.46 815.43 417.20 711.04 512.05 671.52 636.13 818.55 619.01
00000889 00000154 557.52 170.29 416.89 607.12 636.34 436.17 809.27 416.62 709.75 511.51 669.41 632.17 810.14 616.56
00000890 00000155 549.18 166.95 417.42 587.00 628.44 431.91 807.22 414.17 707.92 505.90 661.42 623.37 800.90 608.78
00000891 00000156 544.14 162.79 420.29 595.45 624.03 426.03 805.82 409.11 703.00 500.05 650.51 618.06 797.68 604.07
00000892 00000157 541.74 160.00 418.68 588.26 619.47 423.69 801.30 407.57 697.85 494.08 644.86 613.56 786.82 600.53
00000893 00000158 540.14 148.99 424.01 596.67 614.02 417.83 796.32 401.74 686.32 493.15 639.72 610.88 777.64 598.45
CROP_BBOX: 260 0 1219 952
