Video ID: 	m0JnuICIk0Q
H: 	1080
W: 	1920
FPS: 	23.976023976023978

FRAME INDEX X0 Y0 W H [Landmarks (5 Points)]

00042170 00000000 778.15 115.24 464.08 678.07 827.93 409.74 990.99 381.98 852.44 508.20 863.12 631.21 1001.47 607.26
00042171 00000001 773.16 111.28 466.38 688.69 823.60 410.62 980.84 382.59 842.59 511.14 860.90 635.00 986.52 610.87
00042172 00000002 769.48 111.74 460.31 681.42 816.95 415.45 975.01 385.52 836.70 508.57 850.63 634.36 979.95 610.03
00042173 00000003 765.97 119.39 460.43 681.29 813.48 418.94 971.05 391.55 833.37 514.77 846.67 640.42 975.37 618.26
00042174 00000004 764.57 125.87 463.46 686.46 813.56 425.03 969.49 396.84 831.68 526.89 850.04 650.87 980.24 627.52
00042175 00000005 763.48 132.13 465.09 687.08 813.45 427.76 968.34 401.22 832.35 536.40 853.11 657.59 982.15 635.21
00042176 00000006 763.30 134.00 465.20 687.20 813.73 428.21 968.24 402.33 832.85 538.69 853.77 659.30 981.89 637.52
00042177 00000007 763.71 133.05 465.77 686.48 814.37 427.12 970.29 401.43 834.11 536.81 853.96 657.92 982.82 636.30
00042178 00000008 769.10 129.60 462.99 690.25 817.16 426.09 975.00 399.11 837.20 531.49 855.02 655.48 986.95 632.64
00042179 00000009 775.54 130.56 460.01 686.28 821.77 427.64 979.70 399.65 842.76 528.97 858.96 653.61 991.34 629.81
00042180 DELETE   779.38 131.89 462.63 685.55 824.26 435.66 985.89 405.53 845.54 530.98 863.12 656.84 1000.36 630.74
00042181 DELETE   780.19 131.65 464.08 683.46 827.45 437.73 990.71 407.00 851.86 532.40 865.46 657.31 1003.72 630.77
00042182 00000012 781.66 135.77 463.00 680.38 830.05 430.92 994.95 404.93 855.96 533.65 868.76 656.10 1006.52 633.29
00042183 00000013 782.49 134.07 463.24 686.60 834.02 426.97 996.70 401.82 859.19 534.23 872.86 658.63 1007.11 636.29
00042184 00000014 783.29 131.82 463.36 684.10 831.90 423.95 998.36 401.49 859.40 536.86 869.35 655.92 1005.65 635.96
00042185 00000015 783.37 130.33 464.42 683.98 832.39 422.17 999.84 401.29 860.44 537.37 870.03 654.10 1007.82 635.27
00042186 00000016 781.04 137.30 466.72 683.36 839.75 424.17 1002.33 401.66 865.48 532.95 879.21 659.89 1013.17 640.80
00042187 00000017 782.48 137.35 469.00 685.95 841.43 424.02 1003.66 401.28 866.72 533.67 882.25 663.09 1013.89 644.05
00042188 00000018 782.48 138.08 469.42 683.95 842.06 423.71 1005.80 400.03 868.64 531.89 882.29 661.31 1015.72 641.57
00042189 00000019 784.08 136.36 469.96 680.98 843.73 423.11 1008.58 398.87 870.86 529.58 882.39 657.97 1017.65 637.91
00042190 00000020 783.96 134.35 471.06 681.36 843.33 422.06 1009.34 395.91 871.14 527.95 883.24 657.57 1019.81 635.91
00042191 00000021 783.57 133.76 472.73 685.98 844.21 422.23 1009.41 394.49 871.82 525.33 885.06 658.42 1018.61 635.58
00042192 00000022 784.10 132.00 473.89 690.44 845.45 419.74 1011.06 391.36 872.78 521.91 886.40 659.71 1017.69 636.51
00042193 00000023 786.75 131.51 470.64 691.44 847.14 417.68 1012.77 390.15 872.67 518.53 885.22 658.34 1016.48 636.03
00042194 00000024 788.22 129.17 469.85 693.01 847.81 415.46 1013.77 389.82 872.56 517.41 883.98 656.67 1015.60 636.08
00042195 00000025 787.89 129.37 471.57 689.62 847.71 416.73 1013.79 390.39 873.41 518.23 884.53 655.37 1016.22 634.17
00042196 00000026 787.83 129.07 473.76 685.03 847.90 418.41 1014.22 392.55 874.67 520.13 885.01 652.91 1017.55 632.00
00042197 00000027 789.54 128.56 472.29 679.02 848.31 418.92 1015.47 394.08 876.24 520.74 883.99 651.05 1017.61 631.01
00042198 00000028 795.21 128.75 469.49 680.70 853.26 423.46 1018.59 399.43 878.91 520.83 885.70 651.19 1017.61 631.89
00042199 00000029 801.49 130.29 468.33 679.84 857.41 429.37 1025.22 405.20 881.91 521.31 886.42 653.44 1018.40 634.37
00042200 00000030 804.64 129.04 466.63 673.26 861.15 426.78 1032.33 406.37 889.23 520.93 886.59 648.76 1019.23 632.97
00042201 DELETE   810.31 127.39 461.66 666.75 864.24 419.97 1036.06 404.41 893.27 519.71 885.40 641.17 1021.50 629.59
00042202 00000032 816.19 125.42 456.55 663.85 866.65 415.23 1037.76 401.29 896.12 516.97 885.38 637.45 1022.09 627.53
00042203 00000033 818.82 125.43 455.55 667.00 868.57 413.84 1038.55 400.62 897.40 516.69 888.12 636.78 1023.06 627.54
00042204 00000034 819.09 124.88 458.94 691.16 873.67 414.58 1038.30 398.44 896.54 517.36 896.90 645.67 1028.40 633.89
00042205 00000035 819.30 125.21 458.88 691.77 872.95 415.22 1038.68 398.15 896.18 518.94 896.67 647.98 1028.63 635.42
00042206 00000036 821.17 125.54 457.57 688.69 873.38 414.89 1039.07 398.15 897.57 519.90 897.35 647.68 1028.88 635.45
00042207 00000037 823.71 124.25 456.86 684.35 873.11 414.00 1042.36 399.04 898.61 521.13 893.90 642.45 1034.07 631.64
00042208 00000038 824.65 125.74 457.04 687.51 876.92 409.38 1045.99 396.46 900.99 517.25 895.64 640.98 1036.10 631.82
00042209 00000039 826.50 124.06 455.67 698.35 879.37 407.12 1047.04 393.99 901.87 515.93 899.14 647.09 1035.96 637.74
00042210 00000040 825.95 122.00 454.29 696.96 878.83 406.16 1048.04 395.19 901.92 515.97 896.54 646.05 1031.46 638.72
00042211 00000041 827.31 123.82 454.31 687.51 877.21 405.53 1049.58 396.60 902.91 517.98 892.13 641.21 1033.85 635.64
00042212 00000042 831.14 123.66 452.86 688.96 881.22 403.54 1053.58 396.12 907.38 516.50 894.78 639.27 1038.31 634.88
00042213 00000043 834.20 124.79 453.31 695.66 889.03 403.27 1059.02 393.15 914.78 515.92 906.72 643.09 1047.30 635.91
00042214 00000044 836.76 123.33 454.19 700.02 890.85 404.41 1061.88 392.81 917.72 516.49 909.11 644.32 1053.38 635.57
00042215 00000045 838.51 121.81 454.01 686.97 891.01 403.03 1062.42 394.16 918.72 514.42 907.89 637.50 1049.25 631.41
00042216 00000046 841.00 121.34 454.20 689.31 894.34 400.77 1065.72 393.13 923.25 514.24 911.93 636.03 1052.24 630.86
00042217 00000047 843.88 121.94 453.90 691.16 895.55 400.97 1068.02 392.74 924.77 514.35 913.09 637.98 1056.73 632.11
00042218 00000048 844.48 122.47 453.58 690.43 896.83 401.13 1069.12 393.52 926.30 514.52 914.06 638.00 1056.40 632.63
00042219 00000049 843.99 121.95 453.97 688.34 897.08 400.52 1070.67 393.60 928.50 514.43 914.39 637.74 1055.48 633.10
00042220 00000050 844.56 121.20 453.98 685.82 897.21 400.73 1070.73 393.99 929.24 514.35 915.13 636.90 1056.08 632.44
00042221 00000051 843.73 122.18 454.83 683.46 896.24 401.26 1070.26 394.40 929.14 515.93 915.29 636.40 1057.83 631.73
00042222 00000052 843.38 124.84 453.66 678.11 891.98 408.48 1068.63 401.07 926.15 519.93 912.03 633.73 1063.07 627.96
00042223 00000053 841.26 123.49 455.36 678.20 890.41 413.74 1066.89 403.01 922.72 518.99 910.04 634.51 1063.23 625.95
00042224 DELETE   841.56 123.65 455.23 680.32 890.65 412.22 1067.85 402.66 923.97 519.65 908.88 633.28 1064.74 625.67
00042225 00000055 841.25 123.60 454.43 675.81 890.09 406.74 1068.61 402.96 927.16 520.23 905.82 628.07 1063.54 625.60
00042226 00000056 843.76 121.48 454.52 682.37 892.60 402.93 1069.37 400.22 928.24 519.34 906.91 627.46 1064.89 625.92
00042227 00000057 845.25 122.02 455.27 685.18 897.27 400.88 1072.92 400.36 932.02 518.82 909.68 629.47 1064.80 629.83
00042228 00000058 848.92 122.50 454.14 686.36 902.35 400.71 1076.57 400.46 935.47 517.56 916.01 632.49 1064.72 632.78
00042229 00000059 852.62 125.61 452.36 690.05 906.71 400.00 1079.32 400.35 937.26 518.32 920.16 634.60 1066.86 635.27
00042230 00000060 856.74 125.29 450.31 702.18 910.00 400.06 1082.34 400.09 938.33 518.07 922.37 640.89 1069.06 641.58
00042231 00000061 853.72 127.63 459.36 707.81 916.94 406.00 1093.05 403.37 935.98 519.52 930.38 650.78 1082.58 648.37
00042232 00000062 857.12 127.08 460.30 705.54 919.38 403.64 1096.82 406.08 939.21 522.81 929.81 647.68 1083.39 649.82
00042233 00000063 859.80 130.81 458.45 692.52 925.01 405.66 1102.26 411.06 947.27 522.45 931.29 643.42 1078.61 648.81
00042234 00000064 859.17 130.23 458.85 679.78 925.96 403.76 1105.03 411.37 951.71 523.21 930.48 637.91 1075.82 645.30
00042235 00000065 860.09 128.85 456.35 670.36 927.32 401.97 1104.86 410.64 953.19 521.74 930.80 634.12 1072.15 642.36
00042236 00000066 861.20 129.43 455.64 670.68 928.77 402.02 1105.94 409.74 954.86 519.86 932.74 634.30 1069.73 642.05
00042237 00000067 861.52 129.11 456.07 672.45 929.40 401.50 1107.17 408.77 955.77 519.08 933.57 635.92 1068.77 643.34
00042238 00000068 861.19 128.02 456.40 676.62 929.26 400.84 1107.45 408.13 954.79 517.95 932.91 636.34 1069.05 643.85
00042239 00000069 860.93 128.19 455.64 679.13 929.03 402.18 1106.80 408.36 954.77 517.94 934.04 637.59 1070.26 644.14
00042240 00000070 859.66 129.32 457.15 682.65 928.58 403.54 1107.06 408.60 956.27 519.82 934.92 640.48 1072.46 646.04
00042241 00000071 859.20 130.41 458.34 683.36 928.20 403.77 1108.46 409.34 957.09 521.59 933.96 640.94 1075.08 646.91
00042242 00000072 859.80 131.76 461.41 684.35 929.59 403.95 1111.29 409.55 960.65 523.02 935.26 641.49 1078.57 647.56
00042243 00000073 860.50 131.81 461.25 686.43 931.40 403.57 1114.27 409.16 964.77 523.12 936.56 642.53 1080.01 648.70
00042244 00000074 860.29 129.15 461.79 689.79 929.28 403.14 1113.91 407.79 962.33 523.29 934.84 643.17 1083.68 648.37
00042245 00000075 857.46 126.95 460.87 687.09 927.14 399.82 1112.12 405.23 958.11 519.81 932.50 640.62 1081.25 646.19
00042246 00000076 855.73 124.36 458.23 683.59 923.70 396.82 1108.57 404.35 953.39 519.07 926.90 635.14 1078.92 642.36
00042247 00000077 855.48 123.81 457.00 677.15 923.30 395.78 1107.90 405.54 953.19 519.10 924.58 631.03 1076.68 640.06
00042248 00000078 855.26 126.31 458.49 678.19 923.20 397.13 1110.16 407.86 955.23 522.48 923.63 634.30 1079.00 644.10
00042249 00000079 858.68 132.25 459.36 686.32 929.14 404.38 1112.69 412.96 961.70 525.00 931.98 640.63 1080.24 649.05
00042250 00000080 859.35 135.42 462.07 701.15 931.95 407.25 1115.52 415.69 966.14 530.94 936.95 653.07 1081.49 661.70
00042251 00000081 861.13 138.25 463.04 705.11 933.79 411.62 1117.62 416.63 968.65 532.81 941.00 659.12 1085.22 664.97
00042252 00000082 863.30 139.02 462.54 704.91 934.53 412.70 1120.01 416.87 970.65 535.42 942.36 660.48 1089.93 665.72
00042253 00000083 866.72 138.76 461.06 703.37 939.38 413.73 1123.61 418.74 975.86 536.41 945.77 660.21 1091.20 666.30
00042254 00000084 870.08 134.75 458.79 704.61 942.62 412.87 1125.23 419.86 978.01 534.11 945.51 655.54 1091.75 663.34
00042255 00000085 869.18 134.82 459.68 703.10 943.28 418.25 1126.50 425.74 975.30 528.34 943.68 652.90 1092.20 660.83
00042256 00000086 867.14 133.58 461.15 703.87 941.05 415.72 1124.57 424.56 972.19 527.06 940.16 650.48 1090.16 659.57
00042257 00000087 866.00 131.73 461.09 706.42 938.15 412.37 1120.23 423.27 967.88 529.80 937.60 651.43 1088.05 662.15
00042258 00000088 864.89 135.50 459.82 699.97 932.02 411.06 1117.45 422.34 963.25 535.79 934.89 652.70 1089.23 663.50
00042259 00000089 864.01 137.56 458.60 695.18 926.48 411.79 1114.51 423.31 958.90 541.87 931.71 654.40 1088.86 665.15
00042260 00000090 861.95 138.92 459.18 692.22 923.27 413.58 1111.23 422.97 957.25 546.42 931.45 657.14 1088.57 666.07
00042261 00000091 862.28 139.97 457.61 689.03 923.10 413.41 1109.30 423.26 955.76 545.24 930.16 653.53 1088.68 662.70
00042262 00000092 861.95 139.82 458.76 677.97 923.31 411.22 1111.48 421.29 959.54 542.87 930.38 647.44 1092.33 656.63
00042263 00000093 861.87 137.96 461.05 666.12 925.60 408.66 1116.18 419.74 966.11 539.12 931.10 638.97 1095.69 648.97
00042264 00000094 862.09 135.85 463.30 665.08 928.09 407.23 1117.11 416.90 969.20 533.79 931.98 632.08 1099.85 640.95
00042265 00000095 860.99 135.27 463.04 656.65 928.43 405.90 1117.71 415.46 972.91 530.99 931.29 626.00 1100.34 634.75
00042266 00000096 860.11 134.70 462.86 661.40 927.24 406.12 1115.51 416.09 969.26 529.53 929.57 626.06 1097.50 635.26
00042267 00000097 859.42 134.43 462.07 667.97 925.98 402.89 1115.41 414.66 966.78 530.24 927.26 628.48 1095.18 639.22
00042268 00000098 859.16 132.05 460.39 671.17 924.89 401.64 1115.92 411.88 966.13 531.73 927.06 638.02 1089.82 647.43
00042269 00000099 860.84 133.48 459.20 686.48 927.96 405.39 1114.95 410.57 965.05 527.88 934.40 646.86 1086.24 652.51
00042270 00000100 860.65 135.34 459.87 691.11 927.92 405.77 1114.70 410.51 964.01 527.92 934.71 649.11 1087.30 654.46
00042271 00000101 860.62 136.12 461.66 690.81 928.75 406.55 1116.13 411.86 966.68 531.11 935.70 650.65 1086.63 656.59
00042272 00000102 860.52 137.72 463.22 690.68 929.36 409.36 1117.84 412.73 969.70 534.57 938.19 655.03 1087.51 659.35
00042273 00000103 861.10 136.51 463.57 691.38 929.91 410.84 1117.68 412.71 970.66 535.24 940.53 656.41 1088.99 659.37
00042274 00000104 861.45 136.54 462.74 689.30 930.76 410.26 1116.67 411.06 970.33 533.29 942.50 654.67 1086.94 656.73
00042275 00000105 860.30 134.68 462.83 690.98 932.84 408.86 1115.80 409.98 970.93 530.36 944.90 655.13 1080.44 657.70
00042276 00000106 861.08 131.38 465.49 692.34 934.47 407.13 1117.57 407.68 971.18 528.33 944.50 654.09 1078.82 656.50
00042277 00000107 863.90 129.43 463.75 688.36 932.43 403.05 1121.22 405.16 971.76 528.23 939.81 646.89 1087.34 650.43
00042278 00000108 865.59 127.97 463.82 682.06 932.12 402.67 1122.86 403.87 974.37 528.58 940.10 643.24 1095.10 645.81
00042279 00000109 864.80 131.01 467.29 687.26 934.41 406.96 1122.62 405.73 977.11 531.34 947.09 645.54 1101.91 645.99
00042280 00000110 866.08 137.99 466.03 689.21 935.50 413.88 1122.87 414.51 978.76 540.53 949.35 652.81 1102.05 654.74
00042281 00000111 870.48 140.20 461.71 689.22 936.11 416.67 1124.21 418.99 979.39 545.70 948.82 654.03 1105.60 657.37
00042282 00000112 871.21 140.18 461.36 688.74 937.51 418.14 1124.47 418.20 981.87 544.90 951.40 654.63 1106.48 656.12
00042283 00000113 866.08 138.70 465.88 692.70 938.38 415.73 1121.53 414.17 981.05 540.81 953.03 657.18 1095.43 657.47
00042284 00000114 862.93 137.57 466.67 692.30 935.30 414.55 1116.89 412.57 975.96 537.19 949.76 658.81 1087.05 658.79
00042285 00000115 861.01 139.86 467.17 693.00 934.11 415.11 1115.48 413.14 974.37 537.28 950.72 659.47 1087.75 659.29
00042286 00000116 861.04 142.55 468.31 695.31 931.86 418.75 1115.13 414.64 972.75 541.71 952.02 664.85 1093.44 662.78
00042287 00000117 862.40 140.27 466.66 696.77 928.72 417.85 1116.16 414.88 970.07 543.77 947.08 664.01 1098.66 662.76
00042288 00000118 862.56 141.27 464.26 695.19 928.56 417.07 1113.57 413.83 969.12 541.02 946.95 662.54 1096.57 661.12
00042289 00000119 860.40 142.05 464.14 694.49 925.74 418.47 1108.26 414.37 964.59 540.83 945.00 661.70 1095.71 659.37
00042290 00000120 859.67 141.10 461.69 687.68 922.24 418.39 1107.09 415.35 962.63 542.61 939.97 659.72 1094.20 658.06
00042291 00000121 858.48 140.66 461.50 683.62 920.74 418.27 1105.48 416.77 961.48 544.69 938.34 655.58 1094.80 655.03
00042292 00000122 858.62 140.37 453.45 682.47 915.36 415.37 1099.52 415.19 963.69 547.48 934.52 652.29 1087.24 652.16
00042293 00000123 858.04 138.77 453.38 682.35 914.65 414.24 1098.73 413.57 963.06 546.34 934.51 651.42 1086.57 650.89
00042294 00000124 856.90 138.08 453.93 682.38 914.02 413.55 1097.45 412.32 962.27 544.86 934.30 650.23 1085.70 649.23
00042295 00000125 856.30 136.30 453.21 683.88 913.04 413.08 1095.38 410.84 960.31 543.20 933.99 649.68 1084.43 647.93
00042296 00000126 857.63 134.64 452.27 685.12 914.23 411.50 1094.84 409.53 959.18 540.00 934.12 648.67 1082.44 647.14
00042297 00000127 854.94 133.51 460.26 689.52 920.63 414.96 1099.67 409.57 956.00 534.14 937.91 652.21 1087.71 648.29
00042298 00000128 854.02 132.78 462.22 695.01 920.76 414.55 1099.57 407.78 955.43 532.44 938.39 654.14 1087.47 649.12
00042299 00000129 853.12 131.47 462.45 701.20 919.66 413.90 1097.76 405.65 953.58 532.96 939.09 656.06 1089.80 649.57
00042300 00000130 851.23 132.53 464.75 704.28 917.78 414.06 1096.69 404.38 951.59 532.02 938.39 658.24 1090.53 650.46
00042301 00000131 850.63 130.79 465.80 707.03 916.58 413.59 1096.50 403.77 949.60 531.22 936.76 658.01 1091.31 650.08
00042302 00000132 851.60 130.82 464.81 707.47 916.90 413.61 1095.77 404.51 947.69 530.02 936.45 657.53 1089.31 650.22
00042303 00000133 850.68 129.37 465.85 709.60 916.57 413.24 1095.64 403.74 947.74 529.49 936.44 657.13 1089.31 649.47
00042304 00000134 850.14 129.96 466.23 709.44 915.73 413.33 1094.65 403.63 946.75 529.28 936.77 657.43 1089.11 649.49
00042305 00000135 848.97 130.49 466.35 708.82 915.55 412.95 1092.85 403.90 946.10 530.15 937.00 657.61 1087.22 650.11
00042306 00000136 847.60 130.98 466.95 708.58 914.99 412.91 1091.81 403.96 945.56 530.07 937.26 658.03 1086.25 650.55
00042307 00000137 845.78 132.85 467.11 707.42 914.49 414.59 1090.67 405.64 944.89 530.73 936.94 659.21 1084.49 651.62
00042308 00000138 845.78 137.60 465.18 704.84 913.32 424.69 1089.64 414.65 943.06 530.10 934.97 660.80 1083.26 651.89
00042309 00000139 845.64 138.14 465.05 702.67 912.17 424.99 1089.54 414.36 942.49 529.55 934.04 663.55 1080.85 654.27
00042310 00000140 846.83 132.30 463.44 706.39 913.80 420.14 1092.22 413.07 943.08 531.59 932.11 661.12 1080.90 655.14
00042311 00000141 852.14 130.94 461.75 700.11 916.58 412.80 1100.23 411.56 948.87 533.08 929.35 653.68 1084.99 653.02
00042312 00000142 857.34 130.36 466.16 699.19 928.63 405.01 1119.58 407.08 968.66 526.65 935.03 647.09 1093.78 650.45
00042313 00000143 864.46 129.93 463.95 698.66 946.98 402.59 1137.36 407.49 992.42 524.67 951.32 643.84 1103.74 649.90
00042314 00000144 870.90 129.31 462.53 701.76 956.97 407.51 1146.14 409.09 1006.99 525.59 965.20 652.82 1110.17 656.19
00042315 00000145 868.70 133.45 464.96 689.56 953.12 413.04 1144.48 414.53 1008.55 537.86 967.06 655.09 1114.11 657.93
00042316 00000146 867.31 136.56 460.51 677.59 945.01 417.99 1137.48 421.40 999.62 546.11 956.67 654.93 1110.31 659.15
00042317 00000147 863.82 140.40 461.58 673.52 937.46 418.43 1128.07 421.62 988.51 547.66 948.32 654.62 1100.68 658.50
00042318 00000148 860.03 138.91 465.34 676.87 934.03 415.14 1121.70 418.65 981.36 542.97 946.06 654.26 1095.70 658.19
00042319 00000149 859.10 137.69 467.88 682.98 931.86 413.90 1118.03 416.00 975.38 539.27 944.70 655.30 1092.12 658.17
00042320 00000150 857.36 136.74 467.69 691.81 928.42 414.77 1114.24 415.19 969.63 538.70 942.97 660.48 1090.36 661.93
00042321 00000151 857.79 137.54 463.53 695.13 926.26 415.24 1108.97 415.24 962.94 537.38 940.22 661.28 1087.07 662.41
00042322 00000152 856.46 137.92 462.05 693.50 922.39 415.81 1103.24 414.72 955.96 536.42 937.23 660.38 1083.96 660.46
00042323 00000153 854.61 138.11 458.86 683.17 919.38 416.23 1098.99 414.96 954.16 536.75 934.75 653.61 1083.19 653.28
00042324 00000154 851.96 138.61 459.42 681.94 914.14 416.61 1094.81 415.45 949.74 541.27 931.65 653.61 1084.23 652.89
00042325 00000155 849.96 140.98 459.87 684.82 911.09 420.61 1091.20 417.64 944.99 545.05 930.65 659.41 1082.69 656.93
00042326 00000156 846.41 145.82 461.26 684.45 906.88 425.89 1085.38 420.18 938.71 548.51 931.57 669.59 1076.08 664.63
00042327 00000157 847.32 146.49 454.23 684.80 896.49 426.05 1074.50 420.81 935.82 557.77 925.19 669.03 1068.64 665.18
00042328 00000158 846.95 147.56 454.09 683.76 894.37 431.30 1070.79 423.63 932.63 559.06 924.48 670.62 1068.13 664.26
00042329 DELETE   845.54 148.66 456.38 683.92 895.65 438.84 1066.45 429.38 928.61 556.96 926.42 671.72 1063.80 663.69
00042330 00000160 842.74 144.83 457.16 684.42 892.45 439.06 1062.54 428.64 924.46 556.45 923.75 670.97 1060.09 662.31
00042331 00000161 840.77 142.40 455.66 681.64 889.84 431.99 1055.99 423.28 918.52 550.76 917.23 663.38 1054.29 656.45
00042332 00000162 835.92 137.58 457.14 683.88 886.11 426.77 1052.11 417.40 916.44 546.53 913.89 661.28 1049.70 654.11
00042333 00000163 835.02 135.89 460.42 690.19 887.49 422.75 1056.98 412.11 920.68 542.30 916.14 660.62 1055.43 652.17
00042334 00000164 834.88 133.88 460.59 689.00 888.44 420.29 1062.53 408.23 926.66 540.16 919.20 661.02 1058.22 651.63
00042335 00000165 833.96 133.12 462.93 686.97 887.83 419.33 1064.12 406.04 928.94 538.91 919.84 660.84 1058.58 650.50
00042336 00000166 833.11 133.86 461.20 685.12 887.40 419.23 1060.97 407.24 926.80 539.63 919.22 660.30 1054.60 651.12
00042337 00000167 834.35 137.94 460.22 684.33 886.59 421.98 1059.65 410.90 923.87 545.46 917.47 659.98 1058.91 651.10
