Video ID: 	XIFmwxYKgu4
H: 	2026
W: 	3840
FPS: 	25.0

FRAME INDEX X0 Y0 W H [Landmarks (5 Points)]

00008437 00000000 1514.14 638.35 546.83 734.67 1589.27 944.73 1798.93 932.63 1649.71 1123.23 1663.23 1210.29 1823.48 1197.05
00008438 00000001 1517.34 639.16 547.22 738.16 1590.89 943.05 1803.25 928.46 1653.08 1121.40 1663.91 1206.02 1830.74 1191.13
00008439 00000002 1518.24 634.54 551.65 744.13 1592.38 939.35 1806.69 923.47 1654.76 1116.86 1666.34 1199.50 1836.87 1183.74
00008440 00000003 1520.75 631.27 554.98 749.00 1595.34 936.67 1810.14 919.36 1658.64 1114.21 1665.40 1191.79 1844.53 1174.81
00008441 00000004 1523.27 624.28 556.22 758.86 1600.32 930.61 1813.58 912.08 1663.36 1110.82 1669.25 1186.50 1856.73 1165.85
00008442 00000005 1523.33 624.05 554.25 758.21 1599.40 925.53 1812.90 907.55 1661.53 1110.74 1668.08 1179.29 1859.66 1158.23
00008443 00000006 1521.27 619.25 554.99 762.02 1597.41 921.39 1810.49 905.34 1657.01 1109.56 1667.71 1173.77 1859.97 1153.84
00008444 00000007 1517.18 619.25 553.84 761.73 1593.19 921.35 1804.15 904.84 1650.30 1108.83 1664.85 1172.06 1857.01 1151.58
00008445 00000008 1511.99 619.78 550.70 758.76 1588.73 921.89 1797.26 903.99 1644.96 1108.03 1661.40 1172.20 1848.56 1151.19
00008446 00000009 1499.22 622.37 563.74 755.69 1579.37 919.56 1789.33 905.43 1634.79 1109.14 1657.19 1171.39 1840.90 1153.19
00008447 00000010 1491.42 622.41 559.82 754.81 1572.02 921.85 1780.13 904.26 1629.19 1109.19 1649.02 1175.59 1830.22 1155.46
00008448 00000011 1482.12 624.18 563.80 755.94 1561.76 925.53 1767.56 904.57 1619.21 1105.10 1640.72 1179.06 1819.91 1156.86
00008449 00000012 1469.01 618.76 568.81 768.76 1552.23 929.70 1750.77 915.82 1603.73 1114.07 1627.00 1181.16 1806.96 1163.51
00008450 DELETE   1464.60 644.48 564.26 740.70 1541.45 935.07 1739.99 918.15 1589.96 1116.82 1611.42 1186.55 1788.32 1168.40
00008451 00000014 1459.99 647.58 564.10 748.63 1535.64 939.58 1733.47 923.01 1581.43 1121.35 1601.39 1201.52 1775.03 1186.01
00008452 00000015 1450.26 638.97 558.63 751.81 1519.14 938.99 1716.69 922.91 1569.08 1113.00 1594.91 1205.01 1760.05 1189.23
00008453 00000016 1440.33 633.34 555.31 758.21 1511.02 940.00 1706.99 920.06 1561.77 1113.03 1590.38 1208.18 1749.48 1189.04
00008454 00000017 1432.41 636.58 559.09 757.42 1501.34 942.49 1696.47 917.38 1551.29 1108.69 1583.96 1213.58 1738.85 1190.14
00008455 00000018 1423.62 635.12 555.32 750.57 1494.61 942.58 1687.92 918.38 1544.84 1109.44 1580.48 1213.28 1731.41 1189.78
00008456 00000019 1415.88 636.93 551.99 742.37 1486.24 941.32 1679.93 918.53 1536.44 1111.70 1570.91 1210.83 1723.16 1188.40
00008457 00000020 1408.22 639.88 554.07 737.93 1480.06 940.82 1671.61 919.39 1528.10 1115.07 1568.69 1212.32 1718.33 1190.50
00008458 00000021 1401.89 630.64 552.76 735.74 1470.29 940.55 1665.53 924.27 1521.40 1113.82 1565.92 1208.12 1711.21 1190.56
00008459 00000022 1395.55 633.56 557.56 738.85 1464.69 939.13 1659.12 925.05 1514.37 1114.46 1565.22 1205.22 1710.95 1188.55
00008460 00000023 1392.16 633.24 557.88 747.61 1461.68 936.42 1653.60 921.96 1507.83 1115.10 1561.63 1202.31 1708.06 1184.96
00008461 00000024 1391.76 629.11 553.58 752.41 1459.71 933.78 1651.87 919.48 1503.49 1113.32 1555.34 1196.65 1707.47 1179.06
00008462 00000025 1388.99 629.06 553.03 753.53 1457.92 931.60 1648.65 916.03 1501.61 1111.56 1552.57 1192.70 1706.70 1173.84
00008463 00000026 1386.80 619.97 554.94 757.09 1455.93 931.33 1644.91 913.94 1500.23 1107.75 1552.38 1192.01 1699.20 1172.23
00008464 00000027 1388.50 613.51 551.25 761.52 1457.14 926.00 1648.72 908.73 1501.90 1104.10 1551.64 1190.04 1707.36 1169.76
00008465 00000028 1387.72 615.76 551.43 759.06 1457.41 923.01 1650.13 906.37 1500.86 1102.15 1552.81 1186.43 1710.65 1165.68
00008466 00000029 1387.52 608.87 552.29 765.07 1458.80 923.09 1650.25 904.60 1502.79 1101.47 1555.70 1186.19 1712.01 1164.17
00008467 00000030 1388.10 605.98 552.89 766.17 1459.64 923.98 1649.21 904.71 1502.96 1100.90 1557.87 1186.79 1710.28 1164.68
00008468 00000031 1388.30 608.28 551.37 764.52 1460.30 923.63 1649.64 904.38 1502.57 1100.38 1557.78 1187.55 1709.71 1165.48
00008469 00000032 1389.36 605.23 554.00 762.58 1461.50 922.24 1650.20 905.26 1503.22 1101.98 1559.15 1187.80 1708.73 1167.83
00008470 00000033 1389.48 605.03 554.31 768.33 1462.18 920.80 1649.27 905.22 1501.15 1102.46 1559.94 1191.39 1707.33 1172.49
00008471 00000034 1388.77 603.31 556.91 766.08 1461.88 919.32 1647.05 904.68 1498.57 1100.21 1559.79 1196.06 1699.42 1179.44
00008472 00000035 1389.18 601.17 553.55 766.91 1462.65 917.01 1644.88 902.26 1497.10 1098.57 1560.49 1200.30 1692.23 1184.14
00008473 00000036 1385.94 596.82 554.69 767.99 1459.67 917.51 1641.30 901.90 1494.40 1099.17 1558.43 1202.79 1686.47 1186.43
00008474 00000037 1385.29 594.13 552.13 765.75 1457.75 914.27 1637.97 897.96 1493.51 1096.84 1556.69 1202.02 1682.29 1185.21
00008475 00000038 1381.89 592.31 552.98 765.08 1454.68 911.61 1634.70 893.86 1491.36 1091.62 1558.02 1197.01 1682.55 1178.71
00008476 00000039 1378.13 596.80 550.88 755.01 1449.40 907.37 1632.61 889.32 1489.67 1085.15 1551.12 1191.01 1679.11 1172.21
00008477 00000040 1378.72 590.77 548.61 757.28 1449.66 906.11 1629.70 884.27 1488.61 1076.84 1548.28 1185.42 1676.27 1164.24
00008478 00000041 1378.39 591.73 548.96 757.35 1445.07 902.79 1625.96 878.51 1483.89 1066.52 1540.09 1177.08 1672.48 1154.40
00008479 DELETE   1383.38 586.42 540.15 743.88 1445.28 889.70 1617.17 866.78 1474.67 1052.00 1541.77 1163.32 1663.74 1141.21
00008480 DELETE   1386.67 561.97 544.25 756.16 1439.25 868.38 1612.25 840.31 1459.32 1031.58 1528.43 1142.87 1661.30 1116.59
00008481 00000044 1395.20 529.89 534.01 763.89 1447.50 838.76 1611.92 810.58 1453.12 1000.30 1530.13 1113.25 1667.01 1088.49
00008482 00000045 1401.15 522.32 527.81 754.20 1451.88 821.87 1613.74 796.32 1447.91 981.67 1524.49 1094.86 1663.19 1071.72
00008483 00000046 1410.41 510.51 522.60 762.75 1463.87 815.04 1619.00 791.70 1450.81 975.62 1528.72 1090.05 1659.45 1069.48
00008484 DELETE   1419.06 521.73 533.29 746.56 1478.58 810.63 1626.46 799.81 1458.48 977.21 1539.12 1087.32 1662.10 1075.31
00008485 DELETE   1426.08 527.34 530.44 747.69 1483.18 814.46 1633.40 810.62 1467.74 990.99 1542.97 1093.51 1667.58 1086.57
00008486 00000049 1433.82 533.53 522.69 753.45 1486.94 832.25 1637.76 826.51 1476.82 1005.91 1548.54 1112.81 1672.06 1104.58
00008487 00000050 1437.42 536.42 523.21 746.09 1490.82 829.02 1645.64 822.37 1480.21 1005.46 1547.32 1113.84 1678.55 1105.13
00008488 DELETE   1444.05 526.91 528.79 748.36 1496.85 816.44 1653.50 809.56 1483.59 986.45 1554.63 1095.62 1688.89 1086.18
00008489 DELETE   1450.68 516.25 529.00 748.40 1502.31 800.07 1663.68 792.02 1492.06 969.95 1565.12 1081.62 1701.58 1071.15
00008490 DELETE   1456.08 498.23 527.21 758.29 1508.71 786.82 1664.12 777.69 1492.48 956.35 1567.56 1064.83 1701.76 1054.23
00008491 00000054 1458.32 487.70 530.43 758.12 1509.25 778.23 1664.07 768.11 1488.94 940.51 1561.22 1057.75 1690.74 1046.39
00008492 DELETE   1461.33 481.64 526.75 757.94 1508.20 773.91 1664.82 762.32 1486.25 927.58 1554.87 1054.36 1679.19 1042.51
00008493 DELETE   1457.53 479.94 531.68 766.18 1505.42 772.43 1662.42 760.44 1481.56 928.59 1545.95 1060.04 1669.38 1048.12
00008494 00000057 1453.17 483.77 533.67 763.29 1502.85 776.16 1655.29 761.77 1475.53 931.90 1545.16 1062.05 1668.73 1047.99
00008495 00000058 1449.72 488.95 533.89 765.48 1500.53 776.97 1650.38 763.39 1471.61 934.81 1552.02 1064.17 1676.35 1050.04
00008496 00000059 1444.30 492.67 532.73 759.12 1495.56 779.13 1644.69 765.22 1464.95 935.44 1546.16 1062.76 1672.88 1048.42
00008497 00000060 1437.67 492.30 532.56 748.35 1494.75 773.67 1635.34 756.62 1459.40 924.30 1531.69 1060.67 1655.63 1045.81
00008498 00000061 1433.35 495.07 531.48 737.67 1492.15 773.91 1628.56 757.59 1450.83 921.39 1521.09 1055.20 1642.11 1041.41
00008499 00000062 1427.66 494.67 529.15 740.46 1485.87 778.67 1619.03 763.97 1442.13 924.82 1517.17 1057.09 1634.68 1044.56
00008500 00000063 1419.37 490.58 523.51 757.35 1474.66 789.89 1613.19 772.49 1435.21 945.10 1513.66 1064.87 1629.41 1049.40
00008501 00000064 1411.20 497.63 523.39 758.69 1465.69 794.43 1607.13 774.24 1428.75 945.84 1510.70 1069.88 1629.26 1051.75
00008502 00000065 1404.67 496.49 520.99 761.89 1460.35 795.60 1603.25 774.24 1423.97 948.34 1513.09 1070.52 1633.76 1050.88
00008503 00000066 1398.87 498.20 526.09 759.12 1456.78 792.28 1600.41 772.32 1420.17 949.34 1510.69 1067.04 1635.39 1048.23
00008504 00000067 1396.25 494.92 522.38 758.81 1454.38 789.70 1593.70 770.20 1415.49 947.03 1509.76 1062.99 1632.02 1044.59
00008505 00000068 1393.98 497.17 523.61 755.43 1449.86 785.84 1588.68 767.45 1411.36 943.05 1505.84 1061.19 1628.34 1043.44
00008506 00000069 1392.21 497.26 519.80 748.35 1447.62 786.56 1585.59 771.56 1409.54 940.95 1499.19 1058.47 1620.86 1043.36
00008507 00000070 1389.04 501.87 517.65 740.45 1445.52 788.60 1580.85 774.82 1403.22 942.06 1491.76 1061.82 1606.54 1048.03
00008508 00000071 1385.57 508.22 518.09 734.56 1442.63 791.44 1578.51 778.12 1397.57 943.31 1481.45 1067.35 1594.85 1054.46
00008509 00000072 1382.57 511.41 517.94 729.80 1443.64 793.11 1575.08 780.35 1394.55 943.26 1476.36 1069.36 1584.14 1057.34
00008510 00000073 1380.94 511.77 519.16 733.13 1443.15 792.90 1574.26 780.08 1392.95 944.37 1475.52 1072.36 1582.63 1060.27
00008511 00000074 1378.65 515.20 516.53 727.76 1438.26 794.04 1571.24 781.04 1391.29 944.10 1476.69 1070.72 1585.81 1058.31
00008512 00000075 1376.69 512.63 516.80 733.46 1438.01 793.94 1569.35 780.30 1389.69 944.86 1481.74 1071.17 1588.74 1057.90
00008513 00000076 1375.81 516.23 515.95 731.72 1437.41 794.54 1568.07 780.61 1389.13 946.34 1484.40 1071.70 1591.37 1057.92
00008514 00000077 1373.27 517.15 517.19 726.76 1434.00 795.04 1564.73 782.66 1386.31 947.73 1483.78 1069.93 1591.85 1057.13
00008515 00000078 1372.51 520.01 514.01 727.76 1434.66 798.15 1563.08 784.32 1385.77 947.54 1481.46 1072.24 1588.19 1058.64
00008516 00000079 1370.09 523.40 515.92 726.60 1433.45 799.37 1560.27 785.59 1381.14 947.89 1479.64 1073.95 1587.25 1060.33
00008517 00000080 1368.86 523.55 516.14 723.97 1434.73 800.25 1560.18 787.13 1379.99 948.61 1477.95 1075.11 1583.78 1062.05
00008518 00000081 1368.01 523.93 515.20 723.99 1434.37 799.81 1558.73 787.84 1379.12 948.54 1476.45 1073.66 1581.52 1061.38
00008519 00000082 1365.31 523.50 517.09 721.36 1431.23 801.22 1558.71 787.65 1378.97 947.72 1471.71 1075.48 1578.41 1062.35
00008520 00000083 1364.20 524.50 519.94 721.44 1429.51 802.39 1556.98 790.23 1377.51 948.95 1471.14 1076.40 1579.55 1064.44
00008521 00000084 1362.87 527.32 517.56 720.01 1433.34 809.51 1552.91 797.41 1376.34 952.78 1475.71 1078.65 1577.21 1066.61
00008522 00000085 1357.98 528.25 519.84 719.16 1428.56 815.44 1549.54 804.82 1374.26 954.36 1469.80 1081.05 1572.73 1070.36
00008523 00000086 1356.10 530.25 520.81 716.80 1429.69 813.31 1547.50 804.62 1371.99 956.94 1464.25 1083.65 1563.47 1074.36
00008524 00000087 1351.73 529.47 523.34 723.25 1427.06 809.49 1545.52 800.50 1368.30 958.01 1458.86 1085.50 1558.53 1076.09
00008525 00000088 1347.54 518.33 513.28 736.46 1413.04 804.47 1541.31 799.12 1361.49 959.56 1446.73 1083.25 1552.53 1075.58
00008526 00000089 1342.63 518.54 512.38 742.98 1407.66 804.95 1539.22 798.28 1359.60 961.59 1441.48 1086.72 1550.93 1078.22
00008527 00000090 1337.06 513.86 514.73 744.07 1404.98 804.78 1536.35 797.28 1356.55 962.21 1435.70 1085.90 1544.44 1077.08
00008528 00000091 1332.13 515.15 516.91 741.10 1396.39 805.32 1529.63 797.94 1350.80 960.54 1425.96 1083.89 1536.44 1074.94
00008529 00000092 1327.04 511.99 522.29 759.06 1392.22 801.89 1528.04 792.34 1345.17 959.29 1424.02 1091.41 1532.14 1080.67
00008530 00000093 1327.00 511.94 521.87 765.03 1389.16 803.27 1529.49 788.53 1349.70 960.90 1421.35 1096.85 1532.43 1082.85
00008531 00000094 1328.51 518.71 518.05 755.00 1383.39 807.86 1528.27 788.95 1355.46 966.45 1417.78 1098.54 1535.67 1081.91
00008532 00000095 1323.11 518.88 517.70 757.49 1378.26 815.36 1521.44 792.52 1354.33 976.25 1422.27 1100.94 1543.73 1081.04
00008533 DELETE   1312.11 525.58 520.36 752.83 1372.85 822.67 1503.83 798.78 1339.23 986.00 1426.30 1101.81 1542.13 1080.61
00008534 DELETE   1299.27 526.03 521.61 755.94 1361.33 834.41 1484.91 805.63 1328.02 997.97 1430.54 1111.68 1541.38 1086.59
00008535 00000098 1287.63 512.78 507.20 785.91 1349.19 842.63 1473.40 808.86 1321.49 1006.34 1435.41 1114.11 1539.76 1085.36
00008536 00000099 1280.16 522.53 505.93 772.13 1340.67 839.75 1463.33 805.12 1313.91 1000.52 1433.92 1110.29 1537.79 1079.95
00008537 00000100 1277.82 518.59 504.72 769.92 1339.18 835.96 1461.06 799.60 1309.13 998.26 1434.04 1104.23 1539.98 1072.32
00008538 00000101 1278.72 528.67 518.63 755.78 1346.85 831.97 1461.68 796.00 1308.58 988.22 1435.13 1096.38 1539.23 1064.27
00008539 00000102 1285.48 530.83 518.49 748.15 1347.27 829.91 1468.27 791.79 1314.16 983.15 1431.66 1094.93 1539.62 1062.19
00008540 00000103 1286.92 529.27 522.25 744.12 1348.01 823.63 1474.19 788.86 1315.58 979.75 1427.15 1092.82 1541.12 1062.59
00008541 00000104 1291.94 522.27 521.80 747.26 1351.89 821.48 1478.56 786.85 1317.40 977.39 1429.09 1091.08 1543.58 1061.20
00008542 00000105 1298.42 517.17 522.45 750.07 1358.16 821.19 1481.43 784.73 1320.54 973.31 1433.84 1089.09 1548.04 1057.82
00008543 00000106 1302.66 519.30 522.54 747.40 1362.70 816.80 1484.71 781.71 1322.65 969.23 1438.54 1086.04 1550.04 1055.69
00008544 00000107 1304.42 509.22 526.50 753.09 1364.13 812.63 1487.35 778.99 1323.94 964.74 1437.67 1079.13 1549.27 1050.09
00008545 00000108 1306.70 504.27 526.99 752.53 1364.78 804.14 1491.13 776.13 1324.90 960.44 1434.01 1071.39 1547.38 1046.80
00008546 00000109 1310.96 511.01 525.56 744.16 1369.20 801.01 1495.49 775.94 1327.20 958.47 1435.48 1071.09 1551.37 1048.30
00008547 00000110 1313.64 510.76 522.24 745.89 1373.50 801.24 1501.87 779.46 1331.19 960.09 1435.78 1072.84 1553.06 1052.37
00008548 00000111 1314.20 518.47 525.81 737.80 1373.58 802.63 1508.03 784.83 1336.75 966.20 1434.51 1079.71 1554.82 1062.01
00008549 00000112 1317.10 529.44 522.01 734.02 1378.10 810.18 1516.26 797.68 1343.20 976.84 1432.85 1086.36 1557.97 1072.66
00008550 00000113 1319.40 532.53 521.75 742.09 1377.45 819.62 1522.46 806.70 1351.65 982.76 1434.12 1091.74 1565.90 1077.87
00008551 00000114 1324.83 535.73 524.42 744.75 1379.40 828.31 1532.39 813.36 1362.18 985.32 1433.45 1100.30 1570.54 1085.82
00008552 00000115 1330.32 539.46 526.58 749.79 1383.97 832.39 1536.63 816.68 1366.87 990.14 1441.80 1107.94 1579.63 1093.16
00008553 00000116 1338.25 533.67 524.57 755.92 1394.21 829.96 1543.71 819.29 1375.21 990.81 1452.40 1104.21 1586.90 1093.01
00008554 00000117 1346.35 535.03 524.46 752.27 1402.06 827.44 1551.23 820.23 1382.86 991.55 1458.14 1103.08 1590.98 1094.69
00008555 00000118 1348.67 543.50 534.61 735.39 1409.10 830.41 1553.51 823.39 1386.22 992.64 1466.41 1103.69 1591.71 1094.75
00008556 00000119 1353.23 547.97 533.08 731.17 1412.07 828.54 1556.06 820.98 1388.14 992.54 1472.95 1101.75 1597.79 1092.27
00008557 00000120 1355.63 546.69 534.18 734.72 1415.22 825.03 1558.42 816.19 1389.29 991.18 1477.28 1100.55 1602.10 1090.19
00008558 00000121 1362.11 544.40 531.81 730.80 1418.77 820.55 1563.65 813.26 1392.30 988.28 1478.45 1098.00 1603.24 1088.92
00008559 00000122 1365.21 534.58 534.01 737.41 1421.76 815.81 1570.27 808.51 1395.32 981.25 1477.35 1097.01 1602.67 1088.19
00008560 00000123 1370.56 534.42 530.75 736.28 1423.88 812.36 1577.80 802.73 1399.35 977.53 1475.07 1095.25 1605.34 1084.74
00008561 00000124 1375.66 531.66 529.73 732.64 1428.21 806.36 1582.46 797.77 1402.28 973.88 1481.44 1090.63 1609.18 1080.51
00008562 00000125 1379.93 529.46 528.12 733.76 1430.50 803.33 1588.26 796.29 1408.23 970.51 1481.32 1086.72 1612.80 1077.91
00008563 00000126 1381.41 531.62 527.48 731.54 1429.82 800.40 1591.79 795.95 1410.32 969.84 1476.99 1084.63 1612.46 1077.89
00008564 00000127 1382.21 532.69 524.79 726.80 1430.71 799.84 1592.30 796.77 1412.18 968.83 1475.09 1082.80 1609.55 1077.40
00008565 00000128 1383.05 538.25 524.71 730.75 1430.30 801.85 1592.43 796.59 1412.67 971.79 1477.04 1087.47 1612.75 1080.10
00008566 00000129 1382.82 534.29 525.23 733.13 1432.23 802.33 1593.07 798.01 1413.30 971.50 1477.19 1087.26 1610.91 1080.76
00008567 00000130 1382.53 534.06 525.56 733.16 1432.72 804.96 1592.00 799.77 1409.91 972.65 1476.78 1091.02 1610.31 1083.98
00008568 00000131 1380.43 532.08 525.61 731.03 1431.81 806.11 1590.15 800.13 1409.13 972.04 1473.93 1092.18 1605.54 1085.02
00008569 00000132 1379.30 536.04 525.13 726.25 1432.40 807.63 1587.51 801.39 1405.09 971.95 1474.31 1092.30 1603.21 1084.72
00008570 00000133 1376.41 533.48 527.39 733.65 1429.48 807.53 1585.78 801.44 1403.14 972.89 1475.06 1093.36 1604.57 1085.72
00008571 00000134 1372.30 533.11 529.26 736.39 1427.39 808.57 1582.04 801.28 1399.80 974.45 1476.02 1096.24 1603.59 1087.67
00008572 00000135 1366.89 534.34 530.05 739.98 1422.59 809.90 1576.95 803.54 1394.31 976.80 1471.06 1096.89 1602.03 1088.80
00008573 00000136 1364.10 532.17 531.12 741.90 1422.94 812.33 1569.49 808.56 1391.33 977.97 1474.71 1094.20 1599.78 1087.81
00008574 00000137 1360.27 536.63 529.87 734.41 1419.89 812.89 1567.48 804.35 1388.89 976.23 1472.08 1092.69 1600.16 1082.89
CROP_BBOX: 1037 168 2320 1579
