Video ID: 	sHH0u5v3ZE8
H: 	2160
W: 	3840
FPS: 	29.97002997002997

FRAME INDEX X0 Y0 W H [Landmarks (5 Points)]

00039349 00000000 1378.92 558.25 649.69 918.74 1533.00 921.17 1824.51 900.49 1672.05 1107.03 1580.71 1246.24 1819.27 1229.61
00039350 00000001 1381.39 567.07 656.31 936.18 1536.38 937.62 1830.03 919.51 1676.78 1133.09 1584.47 1263.59 1830.55 1247.89
00039351 00000002 1390.98 577.97 653.96 928.83 1541.44 942.45 1842.79 921.68 1688.19 1134.12 1591.46 1271.38 1840.99 1253.45
00039352 00000003 1399.67 555.02 657.29 939.50 1554.56 933.33 1852.03 911.66 1701.74 1119.38 1608.11 1263.70 1848.09 1245.42
00039353 00000004 1401.57 554.71 661.97 914.91 1557.32 921.33 1860.95 901.76 1699.80 1099.68 1613.06 1246.12 1849.27 1230.92
00039354 00000005 1406.02 545.02 656.80 912.66 1562.15 910.54 1858.93 887.43 1704.56 1081.30 1616.61 1231.67 1854.42 1213.97
00039355 00000006 1412.12 538.93 654.84 909.90 1567.70 905.74 1863.80 883.96 1710.85 1074.65 1624.48 1224.20 1857.91 1205.25
00039356 00000007 1411.43 534.95 651.02 900.18 1567.32 904.76 1864.15 879.71 1713.29 1067.56 1630.69 1221.21 1859.05 1199.18
00039357 00000008 1412.63 537.91 640.57 885.71 1566.48 895.93 1859.66 870.58 1713.44 1058.85 1621.45 1217.26 1858.51 1197.41
00039358 00000009 1412.21 540.30 636.87 879.06 1566.73 890.87 1860.24 865.73 1713.07 1050.17 1622.22 1212.42 1855.36 1193.08
00039359 00000010 1414.32 541.57 632.65 873.37 1567.14 888.25 1857.77 863.84 1711.03 1042.84 1623.45 1207.30 1849.90 1188.73
00039360 00000011 1415.22 538.16 632.47 876.12 1566.29 887.34 1857.46 862.30 1709.66 1042.21 1621.90 1207.63 1850.64 1188.43
00039361 00000012 1418.63 535.38 630.66 882.12 1567.14 887.27 1859.77 861.51 1707.65 1045.09 1616.87 1214.96 1859.73 1195.02
00039362 00000013 1423.44 517.92 634.55 895.97 1578.75 880.03 1870.77 858.66 1718.27 1040.60 1628.86 1209.53 1859.19 1193.22
00039363 00000014 1441.17 518.35 626.35 883.46 1610.77 870.53 1896.10 853.11 1758.59 1026.83 1655.91 1189.42 1881.53 1174.13
00039364 DELETE   1460.66 524.65 632.76 874.03 1651.86 866.18 1930.24 850.82 1810.78 1017.49 1687.69 1169.33 1931.63 1156.72
00039365 DELETE   1478.53 532.12 630.82 845.91 1673.71 852.15 1961.49 834.52 1844.79 999.28 1709.81 1150.10 1965.18 1135.35
00039366 DELETE   1488.64 523.90 638.46 841.21 1687.72 829.26 1978.76 811.03 1871.80 985.82 1735.54 1135.22 1986.88 1118.51
00039367 00000018 1499.53 516.55 635.32 867.55 1701.34 822.29 1993.18 805.04 1887.39 981.95 1753.82 1137.84 1991.68 1122.30
00039368 00000019 1507.91 520.92 631.19 872.49 1710.27 820.23 2001.30 803.77 1895.94 982.43 1758.50 1142.04 1998.00 1127.36
00039369 00000020 1515.07 517.12 626.74 864.63 1732.20 825.80 2002.82 815.36 1906.71 973.52 1759.19 1137.08 2008.37 1129.16
00039370 00000021 1521.47 516.10 623.88 856.54 1737.20 823.10 2007.84 813.61 1911.63 969.78 1763.66 1131.40 2012.86 1124.00
00039371 00000022 1528.23 515.28 618.29 846.23 1741.12 818.89 2011.73 808.83 1916.56 965.92 1769.87 1126.70 2016.24 1118.42
00039372 00000023 1535.94 512.50 614.49 838.54 1747.80 814.94 2018.81 804.30 1927.39 961.49 1777.39 1116.73 2028.40 1107.28
00039373 00000024 1541.36 510.51 611.93 831.14 1747.67 811.89 2022.00 799.24 1929.49 952.65 1776.95 1107.96 2035.17 1096.88
00039374 00000025 1545.33 503.64 614.05 831.41 1754.79 805.00 2025.90 791.96 1938.58 938.88 1788.80 1100.74 2038.50 1089.49
00039375 00000026 1545.84 506.67 619.26 842.92 1767.77 792.06 2037.51 782.41 1952.13 925.94 1811.55 1097.41 2036.52 1089.17
00039376 00000027 1551.09 505.64 622.34 848.17 1765.79 792.16 2041.94 777.47 1959.59 923.44 1819.04 1094.57 2050.73 1083.56
00039377 00000028 1554.64 507.40 621.48 849.91 1768.21 796.18 2045.89 779.59 1964.14 929.96 1823.10 1101.84 2054.30 1089.21
00039378 00000029 1555.55 499.84 622.89 833.40 1774.08 807.40 2047.01 791.98 1959.92 940.39 1811.52 1107.56 2057.74 1094.87
00039379 00000030 1556.95 498.81 621.53 830.52 1773.00 805.62 2047.49 789.55 1957.19 940.67 1811.71 1106.29 2057.64 1092.77
00039380 00000031 1559.27 499.03 620.32 840.31 1774.92 802.26 2048.28 788.80 1957.57 938.24 1816.89 1111.63 2050.57 1100.79
00039381 00000032 1560.91 506.01 618.51 843.02 1768.08 795.35 2048.85 782.11 1956.99 935.26 1825.59 1106.59 2050.14 1095.31
00039382 00000033 1564.05 507.35 617.48 835.91 1766.63 795.45 2046.41 782.19 1953.13 930.00 1820.08 1098.69 2050.67 1087.88
00039383 00000034 1565.08 503.56 613.99 823.59 1766.10 795.45 2040.80 778.44 1948.19 930.74 1817.01 1088.93 2050.83 1074.78
00039384 00000035 1566.78 503.12 610.79 816.59 1763.77 796.71 2039.38 777.63 1944.67 929.43 1811.35 1086.53 2052.61 1070.06
00039385 00000036 1566.90 499.79 613.89 817.48 1764.55 795.05 2039.26 775.04 1943.81 930.88 1815.94 1085.07 2052.19 1067.66
00039386 00000037 1567.48 496.02 615.24 824.38 1772.43 796.30 2044.60 777.54 1952.65 928.17 1832.63 1094.70 2053.98 1077.86
00039387 00000038 1578.22 493.70 613.40 829.45 1785.55 797.22 2064.56 778.42 1969.69 925.36 1858.34 1107.97 2061.89 1090.68
00039388 00000039 1590.04 497.09 610.49 832.42 1802.82 800.78 2074.71 782.95 1987.30 921.28 1869.21 1114.51 2078.71 1097.98
00039389 00000040 1601.28 502.69 607.86 847.51 1818.78 801.97 2086.23 785.98 2007.83 921.74 1879.90 1122.45 2093.14 1108.55
00039390 00000041 1609.86 505.63 601.51 841.60 1832.89 802.43 2092.80 784.60 2025.08 928.17 1892.57 1119.19 2105.29 1104.34
00039391 00000042 1610.78 510.37 596.95 837.36 1832.83 803.28 2092.80 787.48 2027.23 927.70 1888.62 1119.19 2105.18 1106.13
00039392 00000043 1608.48 511.03 598.07 834.47 1827.56 803.43 2088.64 788.67 2019.04 928.14 1880.69 1116.83 2099.93 1104.31
00039393 00000044 1601.20 511.34 604.93 835.05 1819.99 802.25 2085.22 787.83 2010.47 925.41 1870.95 1113.75 2097.07 1101.36
00039394 00000045 1594.22 519.31 614.06 822.98 1810.06 800.93 2082.33 782.79 1996.73 930.81 1872.25 1102.97 2089.63 1087.79
00039395 00000046 1594.46 530.85 618.75 798.70 1811.69 808.43 2079.95 786.61 1995.73 936.02 1877.64 1098.07 2091.35 1079.59
00039396 00000047 1600.60 526.25 609.22 798.83 1814.05 824.21 2079.96 800.72 1999.67 940.00 1873.11 1111.75 2100.05 1092.03
00039397 00000048 1595.97 513.57 609.25 826.24 1807.27 836.83 2080.08 814.36 1992.63 955.24 1873.23 1132.76 2086.70 1113.55
00039398 DELETE   1582.61 507.60 613.99 845.29 1798.64 840.95 2072.92 824.15 1977.53 980.28 1855.25 1151.68 2061.24 1135.37
00039399 DELETE   1568.51 497.21 625.70 878.61 1778.39 855.04 2055.47 837.52 1948.23 998.20 1834.77 1170.10 2045.17 1153.44
00039400 DELETE   1555.07 502.20 633.81 884.20 1749.74 861.95 2034.40 848.53 1909.54 1007.41 1805.44 1181.71 2014.04 1169.62
00039401 00000052 1546.68 514.00 633.88 877.70 1727.46 871.02 2017.83 855.58 1881.84 1019.61 1783.55 1192.66 1994.14 1181.05
00039402 00000053 1552.93 516.60 629.77 878.27 1718.09 879.46 2007.65 858.75 1872.07 1034.08 1780.27 1201.64 1989.55 1186.01
00039403 00000054 1549.40 514.78 629.67 891.32 1710.19 883.44 2001.35 864.47 1862.33 1043.54 1770.31 1210.20 1981.02 1196.53
00039404 00000055 1545.28 517.26 634.71 904.45 1702.21 890.62 1998.41 871.50 1853.68 1049.84 1756.87 1219.17 1978.77 1206.06
00039405 00000056 1537.77 529.03 637.37 895.05 1699.57 887.51 1998.56 880.30 1847.51 1054.92 1744.94 1220.88 1969.17 1216.29
00039406 00000057 1540.67 532.33 635.08 914.45 1695.26 895.47 1991.01 884.60 1838.31 1058.98 1738.32 1228.68 1959.34 1222.79
00039407 00000058 1532.63 536.18 643.12 923.89 1690.35 893.94 1987.96 881.87 1830.36 1059.35 1728.47 1227.74 1960.96 1221.19
00039408 00000059 1531.40 536.27 643.74 924.04 1692.23 889.39 1987.94 877.53 1829.40 1050.93 1725.11 1214.49 1967.87 1207.72
00039409 00000060 1542.03 529.60 635.66 913.18 1700.10 884.64 1990.36 868.93 1839.05 1041.42 1737.22 1202.62 1978.37 1192.25
00039410 00000061 1548.04 521.89 632.26 894.18 1710.47 874.55 1996.30 857.28 1852.13 1026.32 1749.13 1189.86 1987.15 1178.15
00039411 00000062 1553.29 524.31 634.42 874.96 1728.09 852.26 2023.26 850.08 1872.68 1004.45 1770.40 1164.90 1990.77 1163.59
00039412 00000063 1558.88 523.98 641.68 863.66 1745.99 833.07 2038.56 834.73 1895.49 983.78 1787.67 1146.23 2009.03 1146.25
00039413 DELETE   1571.92 518.25 639.93 857.84 1763.33 811.95 2060.58 813.92 1920.67 960.23 1808.04 1128.52 2030.29 1129.07
00039414 00000065 1604.96 499.83 623.23 847.54 1794.15 806.30 2077.93 804.06 1947.13 929.71 1830.11 1117.50 2050.18 1117.06
00039415 DELETE   1624.25 486.80 617.51 835.57 1815.01 779.06 2106.99 784.76 1977.74 909.30 1847.43 1095.16 2072.10 1100.78
00039416 00000067 1632.81 474.03 618.31 834.88 1848.49 767.44 2127.81 776.87 2016.09 910.13 1874.32 1085.13 2097.45 1092.31
00039417 00000068 1645.43 468.41 614.61 830.77 1861.91 761.63 2142.20 771.07 2036.03 899.75 1896.48 1078.38 2110.09 1084.82
00039418 00000069 1658.83 469.07 598.47 834.27 1870.43 756.43 2151.18 767.99 2041.84 894.28 1912.28 1075.57 2115.45 1081.20
00039419 00000070 1658.36 471.87 596.66 829.79 1870.07 757.11 2148.92 767.29 2040.99 892.24 1907.02 1070.33 2119.05 1075.30
00039420 00000071 1657.12 470.94 594.95 823.36 1868.76 757.52 2147.44 767.37 2041.47 891.92 1905.04 1066.50 2120.39 1071.24
00039421 00000072 1653.04 464.33 592.56 822.22 1864.59 758.46 2143.23 769.28 2036.47 895.77 1899.19 1067.33 2118.63 1072.91
00039422 00000073 1650.86 472.79 590.68 818.76 1861.25 760.19 2139.11 771.39 2033.97 899.50 1895.30 1073.46 2113.36 1078.92
00039423 00000074 1645.64 478.58 595.07 837.23 1860.72 763.91 2137.49 774.38 2035.69 900.23 1898.35 1084.99 2105.71 1089.46
00039424 00000075 1641.46 479.94 602.50 850.05 1866.63 766.51 2137.44 774.26 2048.87 901.20 1904.32 1096.62 2106.81 1101.79
00039425 00000076 1641.94 486.19 600.91 866.49 1868.90 767.28 2137.25 772.86 2053.07 901.77 1905.53 1105.62 2108.51 1109.37
00039426 00000077 1646.04 484.99 593.54 862.47 1868.72 770.05 2138.21 774.55 2050.91 897.53 1912.55 1097.05 2114.72 1097.16
00039427 00000078 1646.95 484.05 596.03 846.24 1872.85 772.42 2140.16 775.03 2054.74 898.05 1913.12 1086.73 2125.83 1085.48
00039428 00000079 1654.91 484.89 595.77 820.86 1879.86 775.55 2148.67 775.11 2064.48 897.31 1916.11 1074.14 2142.15 1071.54
00039429 00000080 1662.75 479.56 601.00 813.23 1889.15 776.62 2157.03 775.36 2072.14 890.10 1926.33 1066.86 2153.52 1064.38
00039430 00000081 1665.30 480.81 598.30 801.61 1897.65 781.12 2158.07 775.60 2091.89 898.72 1940.44 1068.59 2167.78 1063.28
00039431 00000082 1670.73 480.97 591.98 805.11 1904.62 781.74 2160.75 775.68 2100.88 896.27 1952.12 1069.85 2169.66 1064.37
00039432 00000083 1669.48 478.30 591.31 813.30 1903.06 780.03 2159.43 775.22 2098.20 896.76 1952.51 1073.95 2163.13 1069.16
00039433 00000084 1659.17 476.76 593.53 826.36 1887.62 773.64 2152.10 775.31 2074.64 892.75 1928.18 1073.19 2146.20 1072.50
00039434 00000085 1638.48 484.85 599.86 810.65 1869.44 774.02 2134.03 778.92 2052.60 904.09 1897.66 1069.10 2124.80 1071.76
00039435 00000086 1628.66 485.13 599.04 799.13 1853.73 771.94 2121.08 776.72 2033.13 902.67 1881.64 1065.12 2107.39 1067.78
00039436 00000087 1622.15 490.52 599.44 790.03 1848.45 773.03 2114.29 778.24 2028.70 901.28 1877.13 1063.35 2100.25 1066.10
00039437 00000088 1623.41 490.42 594.16 798.41 1849.65 777.55 2114.63 776.24 2036.63 902.57 1889.73 1072.15 2109.54 1069.72
00039438 00000089 1631.17 489.89 585.20 811.87 1857.69 778.02 2118.71 774.66 2045.07 897.25 1912.60 1076.46 2115.94 1072.56
00039439 00000090 1632.04 487.93 584.79 821.69 1866.06 780.89 2121.48 776.54 2059.93 898.98 1922.11 1077.69 2119.64 1073.57
00039440 00000091 1635.26 488.25 583.59 818.03 1869.26 785.17 2124.84 776.52 2069.00 901.21 1929.00 1078.19 2131.36 1071.41
00039441 00000092 1624.42 491.47 594.63 800.64 1866.82 785.78 2122.52 772.47 2068.64 901.11 1926.16 1073.57 2141.46 1062.98
00039442 00000093 1616.70 493.69 594.70 791.59 1855.00 785.91 2115.11 773.16 2057.09 899.37 1912.30 1073.53 2134.31 1063.34
00039443 00000094 1610.45 493.84 595.19 800.77 1841.98 788.08 2105.22 775.47 2042.27 897.94 1896.68 1079.27 2125.23 1068.93
00039444 00000095 1611.91 491.56 586.57 815.86 1834.05 787.96 2091.99 774.87 2028.49 890.94 1899.66 1089.00 2103.21 1076.76
00039445 00000096 1610.22 494.40 587.05 825.36 1832.54 788.97 2090.33 776.89 2029.19 890.51 1892.57 1090.97 2101.87 1080.09
00039446 00000097 1611.11 496.13 587.00 828.46 1835.09 789.03 2092.14 777.48 2031.36 890.45 1896.20 1094.93 2102.85 1084.37
00039447 00000098 1611.34 492.06 590.15 838.35 1841.08 787.59 2097.00 778.36 2036.74 890.67 1899.89 1096.46 2106.20 1088.05
00039448 00000099 1613.41 492.87 591.30 840.46 1846.77 787.41 2100.91 778.77 2044.11 891.70 1902.93 1096.08 2111.35 1088.61
00039449 00000100 1616.76 493.78 591.92 840.85 1851.56 786.04 2106.08 778.22 2049.01 892.50 1907.76 1095.63 2114.61 1088.90
00039450 00000101 1619.47 496.47 591.73 839.09 1855.97 786.04 2109.42 779.68 2054.29 895.04 1909.59 1095.19 2116.15 1089.94
00039451 00000102 1620.75 509.55 596.53 832.99 1858.94 780.65 2115.77 771.91 2055.64 905.77 1919.80 1089.13 2112.83 1081.77
00039452 00000103 1626.43 510.89 595.30 824.62 1863.73 780.11 2119.99 772.62 2058.72 907.58 1920.91 1086.30 2116.92 1080.04
00039453 00000104 1630.59 505.98 593.42 820.76 1866.87 779.51 2123.42 772.24 2061.91 904.90 1921.19 1081.66 2120.47 1075.82
00039454 00000105 1630.99 494.63 594.48 819.70 1876.47 783.66 2124.02 778.68 2072.93 903.58 1920.05 1081.88 2130.42 1077.97
00039455 00000106 1640.45 486.00 586.42 820.06 1875.62 780.82 2132.33 774.30 2070.55 893.76 1931.12 1079.12 2140.95 1071.75
00039456 00000107 1641.73 484.40 585.00 815.50 1877.88 779.47 2137.48 772.02 2078.14 888.93 1935.21 1077.96 2149.02 1070.34
00039457 00000108 1635.69 482.53 593.22 820.42 1879.15 778.49 2133.91 772.15 2081.65 894.38 1933.30 1080.01 2145.58 1074.16
00039458 00000109 1639.19 481.24 584.22 830.35 1871.50 776.52 2129.40 773.37 2066.09 889.40 1936.80 1076.53 2128.14 1073.38
00039459 00000110 1635.57 489.47 583.94 828.91 1867.91 780.05 2125.36 776.31 2061.58 893.56 1933.72 1084.02 2123.65 1079.80
00039460 00000111 1633.19 491.89 585.50 825.58 1867.37 782.25 2124.92 779.35 2060.78 895.73 1929.77 1083.73 2122.16 1080.19
00039461 00000112 1633.60 495.53 586.73 812.82 1868.13 779.98 2126.24 773.45 2060.24 895.53 1923.74 1078.19 2128.50 1069.84
00039462 00000113 1630.61 491.80 596.80 796.25 1868.53 786.57 2121.63 775.19 2063.89 901.81 1920.49 1072.63 2134.58 1062.69
00039463 00000114 1633.95 494.17 591.53 791.94 1866.45 785.69 2122.92 775.37 2054.94 897.26 1918.38 1066.00 2133.79 1055.74
00039464 00000115 1625.69 492.43 600.06 801.63 1861.13 785.57 2120.69 776.30 2058.43 899.69 1910.90 1071.96 2129.30 1064.09
00039465 00000116 1624.52 511.45 599.66 820.89 1859.30 776.67 2123.95 773.26 2048.16 891.07 1916.90 1079.20 2115.28 1075.21
00039466 00000117 1624.18 491.07 596.01 865.10 1858.15 775.52 2117.84 771.98 2057.71 885.99 1911.32 1097.51 2118.01 1094.15
00039467 00000118 1624.94 501.07 603.27 842.54 1860.84 766.82 2129.31 767.74 2053.04 886.45 1912.36 1084.08 2116.15 1083.40
00039468 00000119 1627.02 495.79 603.36 826.41 1864.61 761.85 2128.86 762.39 2054.65 877.72 1916.87 1070.55 2117.75 1069.43
00039469 00000120 1638.10 473.32 587.97 819.42 1856.79 764.57 2122.21 761.36 2052.52 867.07 1918.39 1062.38 2127.68 1059.40
00039470 00000121 1639.70 466.42 587.29 814.35 1855.17 760.73 2119.28 753.51 2050.33 859.94 1923.42 1055.28 2130.62 1049.18
00039471 00000122 1633.11 466.53 599.94 809.26 1858.18 760.82 2124.04 750.75 2050.76 860.65 1921.88 1048.52 2134.02 1038.89
00039472 00000123 1637.70 464.98 599.33 804.56 1863.86 761.47 2130.05 751.40 2057.14 865.43 1926.73 1050.32 2140.62 1040.62
00039473 00000124 1640.32 469.91 599.65 796.59 1869.53 762.92 2136.93 756.32 2062.66 870.88 1927.96 1051.10 2143.94 1044.04
00039474 00000125 1643.45 481.98 595.87 800.82 1871.82 767.49 2139.67 763.75 2066.11 872.37 1930.06 1058.81 2141.92 1053.65
00039475 00000126 1645.21 483.63 594.04 805.75 1876.01 771.52 2141.09 767.96 2070.80 877.77 1931.98 1061.89 2144.69 1057.05
00039476 00000127 1649.39 485.92 592.94 796.15 1878.78 772.67 2143.07 767.64 2074.88 877.34 1934.05 1060.53 2148.33 1054.74
CROP_BBOX: 976 0 2733 1861
