Video ID: 	NeFA1is6iEA
H: 	1080
W: 	1920
FPS: 	25.0

FRAME INDEX X0 Y0 W H [Landmarks (5 Points)]

00004320 00000000 1095.78 158.77 311.00 478.05 1138.39 380.64 1253.28 380.50 1163.75 472.72 1169.40 538.80 1258.59 537.32
00004321 00000001 1093.62 155.49 313.78 490.45 1137.43 378.25 1251.31 376.04 1161.07 470.56 1170.58 539.70 1261.80 536.78
00004322 00000002 1094.36 145.71 306.89 503.02 1137.29 381.16 1252.89 378.88 1162.50 470.39 1168.10 539.16 1263.80 536.95
00004323 00000003 1094.71 145.54 305.76 499.47 1137.11 380.52 1254.57 378.34 1163.89 469.69 1167.40 538.04 1264.65 535.93
00004324 00000004 1095.02 144.29 305.43 496.30 1137.34 379.96 1255.34 377.09 1164.55 469.30 1167.42 536.32 1264.92 533.82
00004325 00000005 1094.40 141.07 306.46 496.75 1137.41 379.79 1256.60 376.06 1165.00 468.68 1165.40 535.59 1264.84 532.50
00004326 00000006 1090.10 146.93 313.12 487.05 1131.50 378.77 1254.15 372.71 1165.58 472.84 1165.04 530.43 1257.04 526.19
00004327 DELETE   1088.86 149.98 315.49 485.27 1133.43 383.50 1257.26 374.78 1170.74 476.92 1170.19 531.45 1263.58 524.55
00004328 DELETE   1086.49 149.62 323.54 491.82 1136.54 390.00 1263.01 377.02 1177.21 482.02 1177.11 537.80 1275.79 526.84
00004329 DELETE   1089.30 149.26 322.48 496.06 1148.14 398.88 1266.28 377.74 1189.99 481.04 1189.93 542.79 1290.83 525.63
00004330 00000010 1087.16 145.51 325.20 504.63 1150.31 397.80 1272.70 372.73 1200.48 483.60 1197.23 546.74 1299.92 526.61
00004331 00000011 1086.10 129.80 325.54 539.80 1148.51 395.06 1277.41 367.64 1206.23 481.49 1207.17 564.22 1306.58 539.39
00004332 00000012 1085.73 130.16 323.42 537.97 1146.31 393.09 1276.20 363.81 1203.73 480.40 1203.08 560.45 1307.77 533.86
00004333 00000013 1085.39 131.18 322.20 534.46 1145.02 390.35 1273.74 361.57 1198.70 477.05 1200.97 555.91 1306.16 529.48
00004334 00000014 1086.45 130.11 320.07 532.90 1144.24 389.32 1272.27 359.89 1195.51 475.13 1200.09 553.40 1305.32 526.34
00004335 00000015 1083.57 134.69 320.34 517.19 1147.80 388.92 1265.69 362.86 1197.97 473.53 1194.43 538.37 1298.66 518.26
00004336 00000016 1082.27 142.42 327.99 501.91 1142.17 384.76 1273.27 359.41 1198.79 473.51 1198.48 537.79 1297.46 517.20
00004337 00000017 1086.82 130.87 320.87 519.71 1147.32 383.19 1273.78 361.33 1201.54 473.01 1195.17 537.30 1302.29 518.57
00004338 00000018 1090.64 138.36 320.21 502.60 1151.93 386.29 1275.83 360.69 1207.30 469.78 1198.89 538.12 1305.42 517.80
00004339 00000019 1093.28 141.74 319.03 497.42 1154.06 385.95 1278.51 360.74 1209.35 468.83 1199.44 537.06 1307.22 517.03
00004340 00000020 1095.21 139.05 319.01 499.55 1155.93 387.42 1280.47 362.57 1211.29 466.75 1200.68 536.43 1307.57 517.22
00004341 00000021 1096.17 138.19 318.93 501.29 1157.30 388.06 1281.68 364.04 1212.37 467.00 1200.82 536.19 1307.79 517.75
00004342 00000022 1095.56 141.52 320.55 500.61 1156.70 387.79 1282.18 364.57 1210.15 465.79 1199.02 537.60 1305.90 519.79
00004343 00000023 1094.81 142.96 321.18 500.86 1155.80 386.66 1281.46 363.46 1208.83 465.55 1198.49 538.48 1304.58 520.56
00004344 00000024 1094.78 141.94 320.83 502.26 1155.46 386.03 1280.28 362.78 1207.06 464.14 1197.80 538.25 1303.14 520.36
00004345 00000025 1095.20 141.36 319.81 503.07 1154.54 385.48 1279.02 362.11 1204.95 463.17 1196.26 538.05 1301.91 520.02
00004346 00000026 1095.05 142.28 319.61 503.64 1153.90 385.56 1277.39 362.00 1203.08 462.69 1195.60 538.59 1300.33 520.39
00004347 00000027 1092.24 141.18 320.45 505.63 1149.44 387.09 1272.33 362.42 1196.42 462.90 1191.93 540.54 1295.05 521.48
00004348 00000028 1091.02 140.46 317.05 510.14 1149.04 387.44 1266.67 366.42 1190.79 466.95 1189.64 538.53 1289.20 523.26
00004349 00000029 1089.85 137.10 317.43 516.05 1146.98 389.44 1263.55 367.80 1186.42 470.29 1188.94 541.59 1286.26 525.92
00004350 00000030 1087.31 135.26 317.68 519.50 1145.38 391.38 1261.48 369.83 1183.79 472.52 1188.35 543.67 1284.46 527.92
00004351 00000031 1084.86 136.19 319.40 517.77 1142.63 392.32 1259.18 372.67 1180.85 475.04 1186.49 543.48 1282.77 528.80
00004352 00000032 1082.52 143.32 319.00 506.56 1136.40 390.80 1253.23 370.51 1173.87 478.56 1181.11 544.71 1278.35 529.41
00004353 00000033 1081.14 149.07 317.76 499.04 1133.69 390.48 1249.81 372.17 1169.92 480.70 1178.56 544.06 1274.80 529.57
00004354 00000034 1078.48 150.84 317.53 494.36 1129.84 392.07 1247.42 372.91 1166.18 479.10 1175.38 544.77 1269.95 529.69
00004355 00000035 1075.36 158.28 319.13 487.40 1126.04 393.71 1242.23 374.15 1161.38 477.99 1171.34 545.20 1264.26 529.79
00004356 00000036 1071.30 158.23 319.77 487.10 1121.24 393.28 1235.89 374.89 1155.47 477.99 1166.72 544.32 1259.67 529.66
00004357 00000037 1066.12 162.14 320.82 487.98 1113.15 395.80 1223.79 375.79 1140.67 477.92 1157.98 547.38 1248.89 531.73
00004358 00000038 1065.24 159.89 319.09 493.08 1110.77 394.12 1219.54 374.21 1133.84 476.32 1154.71 547.59 1246.03 532.07
00004359 00000039 1063.68 160.54 318.21 492.89 1107.45 392.01 1214.51 372.51 1128.66 476.89 1154.32 547.59 1243.58 532.12
00004360 00000040 1062.57 154.01 317.03 498.40 1105.41 391.58 1210.54 371.04 1124.64 475.63 1153.86 548.29 1241.40 531.91
00004361 00000041 1062.20 151.93 316.57 498.21 1104.38 390.96 1209.05 370.92 1123.74 475.60 1152.76 547.30 1240.02 531.20
00004362 00000042 1063.71 153.81 316.34 490.62 1104.75 390.53 1209.92 371.80 1123.34 474.70 1151.24 544.63 1238.74 529.31
00004363 00000043 1064.84 152.85 317.19 491.29 1105.61 391.00 1211.07 372.65 1123.56 475.23 1151.71 544.55 1239.71 529.56
00004364 00000044 1066.43 153.46 317.95 489.65 1107.47 390.25 1214.50 373.40 1126.53 475.92 1152.37 543.79 1241.19 529.96
00004365 00000045 1069.02 152.44 316.89 489.51 1109.27 388.39 1217.30 373.73 1129.06 474.84 1151.08 541.26 1240.83 529.32
00004366 00000046 1068.29 151.98 317.84 490.70 1111.11 391.31 1222.63 377.06 1135.05 473.61 1150.46 541.60 1243.83 530.51
00004367 00000047 1078.80 161.31 319.16 483.85 1120.17 384.74 1239.32 373.43 1150.12 476.96 1158.28 536.40 1245.60 527.95
00004368 00000048 1082.28 150.24 314.22 498.98 1129.06 387.77 1241.22 376.13 1156.61 479.99 1171.00 544.55 1260.25 535.36
00004369 DELETE   1088.51 146.81 314.24 509.09 1139.34 390.34 1249.96 375.36 1168.64 481.59 1183.10 549.93 1269.83 539.07
00004370 00000050 1091.20 146.81 322.28 504.65 1146.06 388.95 1263.28 374.74 1181.82 476.91 1188.52 545.63 1283.68 533.84
00004371 00000051 1096.91 153.27 318.06 491.96 1148.17 386.05 1267.21 373.80 1183.70 475.98 1187.34 540.52 1285.68 529.77
00004372 00000052 1097.40 149.63 316.17 485.67 1145.04 381.46 1265.32 374.32 1178.45 472.75 1177.38 534.04 1277.92 527.05
00004373 00000053 1097.60 149.57 316.17 485.74 1145.29 381.71 1264.80 374.56 1178.51 472.83 1178.13 535.26 1276.60 528.44
00004374 00000054 1097.67 151.75 316.24 485.82 1146.87 383.59 1266.87 375.09 1181.23 474.75 1181.32 537.46 1280.16 529.56
00004375 00000055 1098.27 151.92 316.41 489.04 1148.97 385.72 1268.36 375.65 1184.39 477.34 1185.19 539.92 1282.94 530.90
00004376 00000056 1098.56 152.13 317.93 492.42 1149.63 387.15 1269.47 376.75 1186.27 479.81 1187.71 541.89 1285.24 532.66
00004377 00000057 1098.38 151.97 318.65 491.29 1149.35 389.20 1269.28 378.77 1186.87 482.12 1187.48 543.02 1285.50 533.74
00004378 00000058 1098.06 151.74 319.05 490.86 1149.55 389.82 1269.95 379.60 1187.37 482.47 1187.46 543.17 1285.82 534.04
00004379 00000059 1098.98 151.40 319.24 492.70 1150.61 389.27 1271.88 379.32 1189.37 483.38 1188.68 543.29 1287.44 534.42
00004380 00000060 1100.37 150.45 319.82 493.62 1152.38 389.09 1274.20 378.76 1192.23 483.01 1191.08 543.21 1289.65 534.18
00004381 00000061 1101.62 149.46 320.09 494.79 1153.58 387.91 1276.06 377.70 1194.55 483.04 1192.43 542.83 1291.19 533.88
00004382 00000062 1102.97 149.08 318.72 497.26 1154.83 386.75 1275.53 377.17 1193.52 482.27 1192.61 542.08 1290.43 533.89
00004383 00000063 1103.47 150.99 317.95 501.10 1155.90 386.92 1275.69 376.90 1193.12 482.47 1193.66 542.87 1292.75 534.55
00004384 00000064 1104.48 150.30 317.34 506.45 1157.17 387.32 1275.94 376.35 1193.48 482.11 1195.87 545.14 1294.95 536.28
00004385 00000065 1105.71 149.64 317.37 506.53 1158.38 386.40 1277.94 375.82 1195.61 481.90 1195.92 543.82 1296.60 535.27
00004386 00000066 1106.51 146.92 317.58 506.34 1159.73 384.54 1279.41 375.39 1197.32 481.87 1195.88 541.24 1296.30 533.84
00004387 00000067 1109.37 145.53 314.96 501.93 1161.50 382.29 1281.83 374.74 1199.18 478.56 1195.75 538.56 1295.14 532.27
00004388 00000068 1109.89 145.95 314.43 498.74 1161.37 381.83 1282.44 374.30 1199.23 477.41 1194.75 537.12 1295.55 530.67
00004389 00000069 1110.59 144.68 313.58 497.31 1161.83 381.15 1282.78 373.76 1199.01 475.81 1194.45 535.33 1296.18 528.94
00004390 00000070 1110.47 140.79 314.07 499.89 1162.80 383.31 1285.22 374.89 1203.55 472.41 1193.62 533.43 1299.59 526.77
00004391 00000071 1111.12 138.52 315.17 500.97 1164.18 381.55 1286.42 373.43 1204.24 469.75 1194.27 531.97 1300.57 525.68
00004392 00000072 1112.04 136.55 315.72 501.42 1165.45 379.16 1286.38 371.39 1204.07 466.81 1196.28 531.01 1300.19 525.02
00004393 00000073 1112.31 136.72 315.84 501.27 1165.30 379.12 1285.71 371.78 1202.87 466.70 1195.21 530.68 1299.18 525.02
00004394 00000074 1111.91 135.70 316.08 501.79 1163.90 378.55 1284.68 371.97 1201.13 467.15 1194.23 530.17 1298.53 524.83
00004395 00000075 1112.20 137.32 315.74 500.15 1163.30 379.45 1284.08 372.87 1199.76 467.72 1193.66 531.16 1296.82 525.87
00004396 00000076 1112.27 138.21 315.47 499.12 1162.98 380.06 1283.40 373.62 1199.01 467.62 1193.64 531.43 1296.01 526.25
00004397 00000077 1111.60 137.58 316.58 497.58 1161.30 377.80 1281.35 371.86 1194.38 464.42 1190.01 529.48 1291.99 524.54
00004398 00000078 1110.85 134.58 316.86 499.17 1159.26 376.08 1278.61 369.34 1189.37 460.96 1186.88 529.71 1286.16 524.38
00004399 00000079 1110.04 133.04 317.55 499.27 1157.42 376.06 1276.29 368.87 1186.09 459.00 1185.43 530.12 1282.75 524.53
00004400 00000080 1109.49 132.18 317.11 499.91 1156.25 374.99 1274.57 369.11 1183.85 459.68 1184.03 530.36 1280.78 525.60
00004401 00000081 1109.08 132.98 317.45 499.02 1155.47 375.38 1274.32 369.55 1182.95 459.68 1183.35 530.62 1280.25 525.88
00004402 00000082 1109.77 132.55 317.69 500.98 1156.42 375.03 1274.96 369.46 1183.68 459.30 1184.63 531.05 1281.03 526.57
00004403 00000083 1110.34 132.64 317.85 501.60 1156.91 375.83 1275.59 369.65 1184.03 459.70 1185.09 531.66 1281.39 526.82
00004404 00000084 1110.94 132.88 317.62 501.65 1157.82 375.81 1276.35 369.61 1184.61 459.50 1185.38 532.10 1281.21 527.29
00004405 00000085 1111.07 132.59 317.53 502.39 1157.93 374.30 1276.11 368.23 1184.14 459.17 1186.03 532.29 1281.13 527.52
00004406 00000086 1111.04 131.18 317.46 503.97 1157.67 373.41 1275.57 366.64 1184.03 458.41 1186.55 532.61 1280.72 527.29
00004407 00000087 1110.80 131.85 316.94 502.90 1157.66 372.65 1274.63 365.11 1183.45 457.31 1187.23 532.97 1279.43 527.18
00004408 00000088 1111.14 131.63 316.53 504.08 1157.76 372.49 1274.00 364.95 1182.72 457.53 1187.85 534.25 1278.38 528.50
00004409 00000089 1111.51 129.74 316.62 506.43 1157.76 372.07 1274.15 364.98 1182.42 457.88 1187.60 535.54 1277.04 530.27
00004410 00000090 1112.38 125.66 315.65 513.78 1158.84 372.69 1274.07 364.77 1182.38 457.39 1189.19 538.58 1276.66 532.89
00004411 00000091 1113.26 124.36 314.07 517.37 1159.95 372.34 1273.10 363.58 1183.53 456.51 1193.08 539.93 1279.13 533.70
00004412 00000092 1117.35 124.99 314.69 511.39 1164.56 367.20 1279.17 361.33 1188.93 455.34 1193.90 530.01 1287.60 525.48
00004413 00000093 1119.46 124.88 312.80 510.10 1166.88 364.27 1280.53 359.45 1188.53 452.47 1193.10 526.80 1287.35 523.07
00004414 00000094 1118.70 125.35 314.62 509.22 1165.13 361.81 1279.33 357.62 1184.77 449.86 1190.84 525.77 1283.85 522.44
00004415 00000095 1121.90 125.64 312.02 509.29 1167.52 360.75 1280.48 357.10 1184.71 448.43 1191.52 526.95 1281.92 524.25
00004416 00000096 1122.34 123.09 312.58 514.82 1169.86 360.56 1283.32 358.96 1188.75 448.93 1192.48 526.84 1283.23 524.86
00004417 00000097 1131.27 127.63 312.71 513.38 1177.75 363.17 1291.46 358.71 1198.54 450.98 1202.63 527.44 1295.17 525.00
00004418 00000098 1131.41 127.09 312.73 518.97 1178.83 364.74 1292.17 359.08 1200.34 451.35 1205.57 529.92 1298.65 526.91
00004419 00000099 1131.06 127.99 312.43 522.29 1178.34 366.12 1292.87 360.44 1200.25 452.65 1205.01 531.78 1300.93 528.76
00004420 00000100 1131.27 131.38 311.36 518.58 1178.17 367.25 1293.01 362.91 1201.71 455.43 1204.30 532.51 1300.69 530.36
00004421 00000101 1131.57 130.27 311.31 517.13 1179.75 368.32 1295.58 364.37 1205.35 455.58 1204.56 532.47 1299.82 530.78
00004422 00000102 1130.71 133.15 315.97 503.67 1180.87 371.77 1305.06 371.09 1211.46 459.98 1202.85 529.77 1307.41 529.32
00004423 00000103 1130.69 133.93 315.79 499.31 1179.86 371.78 1304.85 372.28 1210.61 460.92 1200.71 527.90 1307.04 528.11
00004424 00000104 1129.84 135.43 315.26 496.54 1178.14 372.81 1303.92 372.99 1209.22 459.95 1197.78 526.85 1305.79 526.92
00004425 00000105 1130.36 134.70 313.06 495.67 1177.92 372.15 1302.83 372.70 1208.81 458.90 1196.22 525.52 1303.30 525.96
00004426 00000106 1130.91 133.69 313.55 496.73 1180.21 371.86 1304.56 373.09 1210.77 459.11 1199.54 525.64 1304.75 526.51
00004427 00000107 1132.55 135.14 315.73 498.51 1184.26 375.10 1309.13 373.24 1217.25 461.04 1208.22 530.88 1310.12 529.60
00004428 00000108 1132.94 136.81 315.26 497.75 1183.42 375.97 1309.87 376.16 1216.20 464.66 1204.24 530.48 1310.16 530.61
00004429 00000109 1132.49 138.54 316.51 495.73 1182.05 376.65 1307.84 378.36 1213.95 465.90 1203.29 530.41 1308.26 531.63
00004430 00000110 1132.26 138.75 316.61 494.54 1181.57 376.39 1306.90 378.12 1213.27 464.76 1203.15 529.78 1307.21 531.05
00004431 00000111 1133.10 137.86 316.81 494.88 1182.93 375.53 1307.45 376.59 1213.76 462.46 1204.97 529.27 1306.65 530.17
00004432 00000112 1134.33 133.03 319.21 507.02 1186.98 377.10 1310.43 374.12 1218.70 461.31 1213.58 533.71 1312.98 531.68
00004433 00000113 1134.11 134.43 318.71 511.38 1186.69 378.52 1309.80 374.77 1218.51 462.74 1213.71 535.18 1314.09 532.56
00004434 00000114 1133.13 143.66 318.50 501.43 1185.71 374.58 1309.03 373.52 1216.29 464.52 1213.37 535.18 1313.36 534.27
00004435 00000115 1132.26 146.08 317.49 499.02 1184.18 375.77 1307.48 374.47 1214.77 466.73 1210.92 533.66 1312.60 532.42
00004436 00000116 1131.98 141.68 316.70 500.07 1182.34 380.35 1307.20 378.82 1216.36 469.23 1207.81 531.91 1314.89 530.46
00004437 00000117 1132.09 140.92 316.02 493.93 1182.11 379.21 1308.76 378.22 1217.40 468.14 1206.22 529.91 1313.86 529.02
00004438 00000118 1132.11 139.78 314.96 494.55 1181.40 378.53 1307.05 377.31 1215.64 466.73 1204.78 528.77 1311.82 527.67
00004439 00000119 1131.38 139.74 313.95 493.19 1178.96 377.57 1303.40 376.11 1212.25 465.71 1202.17 529.55 1306.49 528.37
00004440 00000120 1130.83 139.01 313.83 494.07 1177.23 377.49 1300.65 376.80 1209.59 464.33 1201.08 529.64 1303.63 529.08
00004441 00000121 1130.95 140.82 313.96 492.96 1176.90 378.03 1299.83 377.86 1208.91 465.83 1201.08 530.07 1303.37 529.84
00004442 00000122 1130.21 143.63 315.93 490.11 1177.58 380.25 1302.91 378.11 1213.51 469.35 1204.34 530.95 1309.56 529.10
00004443 00000123 1129.89 142.23 317.03 490.88 1177.97 380.30 1303.62 377.64 1214.22 468.68 1205.26 531.00 1310.43 528.78
00004444 00000124 1130.11 143.41 316.49 488.93 1177.27 379.51 1302.59 377.23 1212.98 468.03 1204.16 530.27 1309.31 528.34
00004445 00000125 1129.73 141.18 316.30 491.24 1175.89 379.34 1300.44 377.43 1209.52 466.64 1201.93 529.74 1306.60 528.06
00004446 00000126 1128.73 141.58 316.12 490.29 1174.40 378.16 1298.07 376.61 1207.65 466.36 1200.62 529.31 1304.50 527.82
00004447 00000127 1127.27 140.67 317.25 492.20 1173.52 377.05 1296.82 374.34 1206.52 465.25 1200.72 529.45 1304.32 526.98
00004448 00000128 1127.47 146.65 320.27 491.19 1171.00 370.46 1300.23 366.71 1207.11 463.43 1203.12 526.12 1299.01 523.45
00004449 00000129 1125.96 136.01 315.12 499.89 1173.88 372.69 1292.13 370.88 1203.59 463.66 1200.99 529.25 1299.31 527.97
00004450 00000130 1124.15 134.75 312.93 503.34 1171.80 372.51 1288.16 369.04 1200.38 462.49 1200.50 530.76 1297.83 528.24
00004451 00000131 1122.33 133.53 313.69 506.01 1170.38 372.95 1286.57 369.06 1198.47 461.82 1199.47 530.89 1296.79 528.06
00004452 00000132 1119.12 129.99 314.44 510.85 1168.42 374.71 1285.28 369.36 1198.03 462.14 1199.19 532.00 1297.62 528.11
00004453 00000133 1118.21 131.91 313.94 510.16 1167.70 375.21 1283.98 369.66 1197.54 462.77 1199.33 532.39 1297.81 528.20
00004454 00000134 1116.43 132.41 314.52 510.00 1165.60 375.37 1282.51 369.40 1195.97 463.10 1197.41 532.76 1296.63 528.13
00004455 00000135 1115.42 132.33 315.20 510.09 1163.89 376.70 1281.76 369.95 1194.85 462.59 1196.15 533.79 1295.03 528.65
00004456 00000136 1116.18 133.49 314.35 509.32 1164.70 377.34 1282.21 370.60 1194.94 462.67 1196.28 534.07 1294.67 529.03
00004457 00000137 1117.61 130.85 313.62 516.33 1167.85 378.29 1283.36 370.56 1197.20 462.88 1198.60 535.00 1296.25 529.58
00004458 00000138 1118.76 130.25 313.64 520.05 1169.63 378.45 1283.91 369.20 1197.18 462.09 1200.37 537.52 1296.00 531.24
00004459 00000139 1119.13 129.69 313.70 521.59 1170.17 378.55 1284.45 368.53 1196.44 460.61 1200.60 538.57 1295.12 531.93
00004460 00000140 1118.41 128.50 313.62 522.45 1168.56 376.18 1282.81 366.68 1194.28 459.23 1200.16 538.67 1294.12 532.19
00004461 00000141 1116.92 133.09 317.13 517.25 1160.91 371.59 1277.50 361.82 1182.66 457.33 1195.90 539.73 1288.84 532.87
00004462 00000142 1111.10 138.43 311.78 493.35 1146.07 360.13 1260.29 365.32 1159.07 453.59 1166.31 525.14 1260.65 527.94
00004463 00000143 1109.41 140.46 306.88 489.00 1142.51 356.14 1248.72 365.51 1143.08 447.73 1154.77 522.43 1243.11 528.34
00004464 00000144 1107.57 142.08 306.47 486.99 1139.93 354.75 1242.56 367.22 1133.87 446.33 1148.47 523.01 1231.17 531.17
00004465 00000145 1104.43 140.32 305.63 487.84 1134.98 354.45 1242.79 366.06 1133.82 446.39 1142.82 522.69 1228.38 530.49
00004466 00000146 1102.69 141.77 307.30 486.60 1133.54 355.00 1241.50 365.73 1131.74 446.41 1142.49 522.88 1228.07 530.00
00004467 00000147 1098.71 137.47 305.63 495.66 1133.71 357.70 1238.48 366.12 1130.42 445.23 1142.47 525.29 1223.85 530.55
00004468 00000148 1096.90 143.06 309.62 490.56 1128.61 357.34 1234.43 369.24 1126.60 447.73 1140.77 528.14 1221.60 536.34
00004469 00000149 1095.93 144.44 307.44 494.73 1131.18 360.95 1237.25 371.36 1129.50 448.73 1140.93 528.62 1223.68 535.28
00004470 00000150 1095.70 145.36 308.98 490.71 1130.81 363.99 1238.69 374.73 1129.53 451.53 1139.77 528.07 1225.83 534.82
00004471 00000151 1096.30 143.80 309.54 488.15 1131.59 366.55 1239.18 376.08 1130.26 452.26 1141.47 526.47 1227.76 532.27
00004472 00000152 1102.83 143.95 309.74 488.98 1135.88 362.21 1238.63 376.10 1131.10 454.81 1146.99 529.11 1227.65 538.18
00004473 00000153 1106.86 144.45 307.24 487.82 1137.78 362.87 1240.67 374.89 1134.25 454.31 1150.64 530.67 1230.94 538.22
00004474 00000154 1108.54 140.33 307.74 491.55 1139.30 362.78 1243.86 374.58 1138.82 455.84 1154.41 530.28 1236.27 537.60
00004475 00000155 1110.08 141.20 307.65 490.95 1141.27 363.14 1248.37 374.78 1143.75 457.59 1157.32 530.76 1241.59 537.86
00004476 00000156 1111.28 140.59 308.88 491.37 1142.89 363.51 1251.46 375.42 1146.82 457.63 1160.45 529.96 1246.14 537.25
00004477 00000157 1113.48 139.92 311.28 491.52 1145.19 364.16 1254.67 374.51 1151.75 458.55 1165.44 529.80 1250.76 536.07
00004478 00000158 1113.83 141.12 311.60 490.49 1145.98 364.87 1255.71 373.98 1153.93 459.05 1167.16 530.25 1252.82 535.61
00004479 00000159 1113.57 142.22 311.32 488.35 1146.07 366.55 1256.53 374.42 1155.94 460.25 1168.60 530.86 1254.57 535.23
00004480 00000160 1113.64 143.92 311.14 487.83 1146.23 368.27 1256.52 375.48 1156.16 461.78 1168.98 531.28 1255.48 535.14
00004481 00000161 1112.65 148.33 311.19 485.15 1146.60 371.39 1256.81 376.83 1157.58 463.70 1170.11 533.13 1256.88 535.58
00004482 00000162 1108.96 147.33 312.43 501.49 1148.41 382.30 1258.84 382.16 1165.68 472.33 1178.14 544.75 1266.85 543.86
