Video ID: 	Dn1cukQDdls
H: 	2160
W: 	3840
FPS: 	29.97002997002997

FRAME INDEX X0 Y0 W H [Landmarks (5 Points)]

00012685 00000000 2183.78 211.60 730.68 1016.36 2323.57 631.99 2596.55 685.79 2338.91 773.24 2270.16 961.47 2493.04 1006.99
00012686 00000001 2188.17 208.59 728.97 1008.81 2331.76 623.84 2601.01 678.93 2346.64 762.08 2275.67 952.09 2491.23 998.92
00012687 00000002 2197.70 202.80 727.86 1012.47 2338.35 617.52 2610.16 673.37 2355.71 758.34 2282.49 947.65 2497.35 994.91
00012688 00000003 2203.11 201.03 728.94 1008.69 2348.07 612.08 2624.34 666.65 2367.75 747.81 2291.81 940.27 2506.05 986.36
00012689 00000004 2228.78 211.10 707.21 998.06 2362.71 609.56 2628.00 671.53 2389.27 770.50 2304.25 933.45 2519.23 987.82
00012690 DELETE   2227.18 214.06 722.55 996.84 2370.08 608.84 2644.21 675.19 2397.34 769.24 2305.46 929.90 2536.14 987.63
00012691 00000006 2228.06 213.52 727.00 999.68 2375.85 607.89 2653.88 679.63 2403.89 770.40 2309.80 928.02 2545.57 989.88
00012692 00000007 2227.66 214.86 731.53 1003.69 2378.71 610.13 2660.77 687.57 2407.07 774.22 2309.61 930.94 2552.48 996.88
00012693 00000008 2228.20 217.37 733.12 1005.50 2380.77 615.69 2664.69 694.84 2409.79 778.94 2312.11 935.61 2556.41 1002.23
00012694 00000009 2231.07 214.76 741.02 1020.54 2379.25 621.08 2666.87 700.66 2406.61 789.08 2313.51 943.03 2562.80 1009.48
00012695 00000010 2231.86 216.85 742.43 1029.59 2379.61 624.28 2668.72 705.45 2406.97 794.90 2314.34 947.54 2566.15 1015.48
00012696 00000011 2234.84 219.37 738.12 1029.97 2377.39 629.45 2668.80 709.94 2403.93 800.54 2314.13 953.52 2566.48 1020.69
00012697 00000012 2234.44 215.93 739.29 1036.20 2375.22 629.83 2665.16 710.28 2400.00 802.32 2312.10 958.05 2560.16 1025.10
00012698 00000013 2234.37 213.37 735.50 1038.16 2369.98 628.08 2657.74 708.82 2392.55 803.11 2306.04 960.35 2549.30 1027.57
00012699 00000014 2233.64 212.41 727.84 1036.92 2365.06 627.88 2650.55 706.59 2388.85 802.10 2304.02 960.35 2542.98 1026.36
00012700 00000015 2231.71 210.94 723.50 1035.38 2360.36 628.57 2642.10 705.61 2383.65 802.16 2302.37 961.13 2535.69 1025.68
00012701 00000016 2225.59 211.88 724.29 1031.77 2356.10 625.78 2635.05 706.81 2377.10 801.77 2296.28 959.26 2523.47 1026.77
00012702 00000017 2205.43 222.07 734.24 1021.24 2358.01 633.05 2626.49 710.46 2354.71 807.91 2288.27 957.89 2508.81 1021.37
00012703 00000018 2202.15 225.08 735.03 1015.83 2353.24 633.93 2619.91 711.71 2348.07 809.09 2282.07 959.84 2501.37 1023.81
00012704 00000019 2198.62 226.30 735.65 1013.28 2349.96 635.90 2614.51 713.03 2343.74 808.63 2278.40 964.17 2492.82 1027.88
00012705 00000020 2195.05 229.47 733.29 1010.57 2343.58 637.83 2603.93 712.59 2331.21 807.88 2272.95 966.52 2485.10 1028.48
00012706 00000021 2191.78 235.58 727.08 1005.14 2334.82 635.58 2594.84 712.85 2319.42 806.75 2263.85 967.35 2477.00 1031.42
00012707 00000022 2187.83 233.65 723.74 1009.11 2323.78 636.99 2583.34 711.46 2309.17 810.92 2255.74 971.96 2471.07 1034.03
00012708 00000023 2181.80 232.86 722.60 1013.13 2310.37 643.56 2570.47 712.92 2298.72 818.45 2246.91 977.63 2465.41 1036.03
00012709 00000024 2171.78 219.86 717.71 1027.74 2287.64 654.59 2563.00 710.40 2295.17 826.17 2236.44 987.27 2455.64 1032.94
00012710 00000025 2170.57 220.14 717.58 1029.57 2283.61 659.58 2558.72 711.33 2291.47 829.71 2235.39 991.32 2454.88 1033.95
00012711 00000026 2170.55 219.89 714.06 1030.82 2281.26 662.17 2554.94 711.78 2288.89 830.92 2235.60 994.30 2453.47 1035.37
00012712 00000027 2172.54 219.03 713.53 1033.59 2280.37 663.65 2554.69 712.18 2287.53 832.13 2236.41 996.81 2454.86 1036.92
00012713 00000028 2175.79 220.68 712.01 1029.52 2281.15 663.83 2555.00 711.08 2288.35 831.40 2237.68 997.10 2456.90 1036.02
00012714 00000029 2178.45 222.09 713.59 1027.88 2283.41 660.68 2556.93 708.40 2289.50 828.91 2239.93 995.15 2459.58 1034.19
00012715 00000030 2180.01 222.32 714.83 1030.85 2285.80 657.28 2560.45 707.38 2291.48 827.48 2241.19 994.88 2462.11 1035.60
00012716 00000031 2182.24 222.11 717.76 1035.30 2288.36 656.66 2562.75 706.57 2295.83 827.71 2246.85 997.62 2466.64 1038.06
00012717 00000032 2186.01 229.04 720.62 1030.76 2292.59 656.92 2566.62 707.32 2300.38 827.94 2251.56 999.26 2470.92 1040.12
00012718 00000033 2200.08 234.34 716.81 1025.06 2319.69 655.40 2574.28 710.95 2300.68 823.72 2262.79 996.29 2473.95 1042.56
00012719 00000034 2202.08 232.72 717.04 1027.26 2322.37 652.16 2576.67 710.75 2301.62 822.42 2263.95 995.94 2473.44 1044.67
00012720 00000035 2196.92 227.86 718.03 1032.57 2301.13 650.90 2571.27 705.53 2307.55 828.65 2260.22 999.92 2473.58 1044.14
00012721 00000036 2196.78 225.83 717.70 1034.22 2302.10 649.79 2571.97 704.41 2307.95 826.20 2260.34 999.25 2472.80 1043.49
00012722 00000037 2196.65 224.20 718.26 1037.54 2302.28 649.28 2571.97 703.31 2307.75 825.47 2260.64 999.34 2471.67 1043.11
00012723 00000038 2195.73 226.62 718.20 1035.05 2300.59 650.35 2570.36 704.13 2306.61 825.99 2259.47 1000.27 2470.21 1043.93
00012724 00000039 2193.51 225.09 717.61 1038.38 2297.77 653.85 2568.65 705.81 2304.03 827.40 2257.81 1003.09 2470.65 1045.24
00012725 00000040 2191.54 225.91 715.55 1035.94 2295.10 655.92 2566.46 706.06 2301.41 828.81 2255.25 1004.04 2468.68 1044.71
00012726 00000041 2188.08 222.65 715.82 1037.80 2292.70 656.58 2563.09 705.38 2297.72 828.41 2251.32 1002.67 2464.86 1042.36
00012727 00000042 2185.80 223.77 712.37 1034.00 2288.66 656.84 2557.42 707.66 2290.37 829.50 2245.10 1001.49 2458.06 1043.10
00012728 00000043 2182.60 220.03 710.24 1036.75 2284.57 660.41 2553.32 707.69 2286.98 830.23 2242.75 1003.44 2453.71 1042.31
00012729 00000044 2180.97 223.70 710.00 1041.26 2281.75 664.01 2549.75 709.50 2283.30 833.10 2243.11 1008.63 2454.38 1046.14
00012730 00000045 2185.92 227.85 705.71 1040.73 2285.69 666.66 2553.96 718.54 2286.43 840.01 2245.99 1010.42 2457.67 1052.82
00012731 00000046 2182.15 230.34 708.00 1031.83 2287.50 664.87 2561.52 718.07 2293.38 832.26 2247.26 1004.21 2463.09 1047.69
00012732 DELETE   2181.36 223.42 707.10 1027.71 2295.22 661.57 2565.61 715.17 2301.97 821.51 2250.72 992.85 2461.84 1036.80
00012733 DELETE   2178.56 217.91 711.44 1024.79 2301.28 649.29 2568.62 707.79 2306.86 808.48 2252.95 976.86 2461.23 1024.61
00012734 00000049 2176.94 210.53 717.45 1032.87 2304.68 640.75 2574.16 704.77 2311.98 803.07 2255.67 971.48 2465.12 1023.35
00012735 00000050 2176.71 215.14 720.48 1028.60 2308.36 637.09 2579.48 706.03 2316.04 803.87 2256.64 970.71 2466.24 1026.47
00012736 00000051 2180.39 213.36 718.65 1048.28 2313.99 634.17 2583.15 717.27 2339.44 802.45 2263.50 980.01 2471.71 1047.34
00012737 00000052 2180.01 228.78 726.14 1033.45 2322.27 646.90 2578.90 719.72 2303.66 816.64 2254.36 982.75 2465.39 1043.86
00012738 00000053 2177.75 229.08 729.34 1035.65 2321.98 654.44 2579.35 723.32 2307.48 823.95 2257.44 989.45 2468.59 1047.21
00012739 00000054 2173.79 230.57 731.16 1039.32 2318.56 658.79 2576.61 725.92 2307.40 828.65 2255.73 992.18 2469.76 1048.54
00012740 00000055 2172.35 231.48 730.05 1039.25 2315.32 658.32 2575.10 727.06 2305.17 829.76 2252.57 992.37 2467.99 1050.23
00012741 00000056 2167.24 221.93 727.34 1054.23 2301.85 652.76 2579.96 729.25 2331.24 833.40 2259.00 996.90 2479.17 1059.37
00012742 00000057 2166.61 223.49 727.65 1052.47 2300.75 652.73 2579.28 727.72 2330.64 833.42 2257.95 997.03 2478.33 1058.23
00012743 00000058 2167.15 223.33 727.40 1053.12 2301.00 652.84 2578.81 727.52 2330.23 832.56 2258.35 997.22 2478.53 1058.24
00012744 00000059 2173.67 231.72 729.67 1036.74 2313.78 659.59 2573.93 723.48 2303.19 827.93 2252.06 991.48 2469.77 1045.76
00012745 00000060 2176.17 230.03 728.05 1038.40 2317.14 658.57 2575.68 721.42 2305.18 825.98 2255.02 990.83 2470.10 1044.16
00012746 00000061 2178.16 233.82 728.45 1034.24 2320.83 656.29 2578.72 721.32 2307.45 823.13 2256.99 987.75 2473.06 1042.52
00012747 00000062 2180.32 231.59 729.70 1025.06 2319.14 655.00 2581.57 718.51 2308.61 821.37 2256.20 984.60 2476.95 1038.12
00012748 00000063 2181.08 231.90 729.13 1023.33 2322.54 653.73 2582.58 716.79 2310.33 817.34 2258.16 984.87 2472.69 1038.21
00012749 00000064 2181.58 231.14 730.65 1022.57 2323.30 650.72 2584.91 715.54 2310.34 814.40 2256.21 982.48 2471.83 1037.24
00012750 00000065 2181.44 231.64 731.49 1027.24 2329.03 646.11 2587.01 714.08 2313.73 810.61 2260.91 980.32 2470.97 1037.37
00012751 00000066 2183.06 234.00 734.00 1020.52 2328.96 645.62 2588.82 712.86 2314.11 808.79 2260.95 976.23 2477.52 1032.33
00012752 00000067 2180.28 236.84 738.23 1009.97 2324.56 642.82 2590.20 712.04 2313.93 807.75 2256.62 967.09 2486.56 1024.49
00012753 00000068 2181.77 238.36 737.59 1002.90 2324.86 640.59 2593.40 710.30 2314.43 806.51 2258.34 958.67 2496.97 1016.31
00012754 00000069 2183.59 239.38 735.23 997.32 2325.70 638.05 2593.95 707.96 2317.27 805.53 2259.99 954.64 2499.72 1012.49
00012755 00000070 2183.87 237.47 737.11 1003.32 2328.58 638.80 2595.68 707.25 2318.61 804.31 2263.70 955.52 2501.67 1011.86
00012756 00000071 2188.14 237.43 735.43 1006.82 2332.55 639.09 2597.61 705.51 2321.70 802.94 2268.30 956.97 2502.41 1011.63
00012757 00000072 2190.97 224.85 726.53 1033.63 2328.09 631.13 2605.71 704.22 2356.33 796.79 2281.06 968.23 2508.14 1029.24
00012758 00000073 2193.23 221.91 725.01 1036.66 2329.86 631.81 2607.84 704.90 2359.10 797.00 2283.14 968.74 2510.05 1030.00
00012759 00000074 2194.20 235.01 733.37 1011.83 2341.52 643.79 2603.51 708.20 2331.81 806.40 2276.69 962.99 2502.67 1016.16
00012760 00000075 2195.04 235.56 733.12 1007.47 2341.80 643.84 2604.10 708.88 2332.21 806.74 2276.89 961.29 2503.83 1014.90
00012761 00000076 2194.27 233.33 733.60 1011.72 2343.07 644.14 2605.55 708.53 2334.25 807.31 2278.42 962.49 2504.88 1015.59
00012762 00000077 2195.81 234.43 734.15 1012.28 2343.16 643.59 2605.95 706.81 2335.69 805.95 2280.32 964.77 2505.73 1017.00
00012763 00000078 2195.50 233.68 735.34 1013.15 2343.57 641.07 2606.71 705.37 2335.67 804.11 2279.50 963.27 2505.04 1016.56
00012764 00000079 2194.73 219.58 727.96 1031.81 2332.63 630.51 2612.04 705.12 2362.13 795.88 2282.10 963.62 2511.53 1025.90
00012765 00000080 2194.34 222.12 726.08 1027.85 2331.25 630.17 2608.36 705.60 2358.74 795.69 2279.54 962.32 2505.13 1024.95
00012766 00000081 2192.49 235.92 729.86 1002.52 2339.17 636.67 2599.16 705.98 2327.65 803.77 2272.78 955.52 2495.57 1013.27
00012767 00000082 2189.93 235.31 731.29 1002.43 2335.97 635.95 2596.32 706.23 2323.16 803.56 2269.29 955.99 2491.88 1014.57
00012768 00000083 2186.25 238.23 730.49 998.94 2329.51 633.85 2591.80 705.08 2318.78 802.62 2263.75 956.49 2490.17 1016.07
00012769 00000084 2183.15 235.12 729.22 1000.35 2322.04 633.77 2587.56 700.71 2315.31 802.65 2259.81 958.63 2491.94 1014.95
00012770 00000085 2171.34 224.36 722.50 1007.78 2296.35 638.44 2574.58 695.96 2307.36 807.93 2245.99 960.13 2484.42 1007.04
00012771 00000086 2166.51 221.92 719.66 1007.02 2285.82 644.27 2560.24 692.66 2296.38 810.91 2238.75 962.70 2478.41 1002.55
00012772 00000087 2159.78 211.98 718.57 1020.56 2280.26 646.46 2549.93 690.28 2284.89 812.21 2230.98 964.35 2466.03 1000.87
00012773 00000088 2152.83 215.12 723.50 1022.67 2271.98 649.16 2533.45 689.66 2268.84 812.17 2222.04 965.58 2450.91 999.53
00012774 00000089 2151.27 220.35 712.28 1025.63 2264.99 648.18 2516.65 686.86 2256.71 810.66 2218.49 971.40 2431.79 1003.82
00012775 00000090 2145.93 224.85 706.39 1023.73 2254.93 646.09 2506.23 683.62 2242.80 806.09 2209.34 970.46 2425.12 1001.95
00012776 00000091 2143.13 226.88 701.30 1017.77 2245.46 643.83 2497.81 678.01 2234.12 802.88 2200.08 972.09 2416.09 1000.68
00012777 00000092 2141.43 226.48 692.67 1012.40 2237.42 645.33 2484.84 674.80 2224.47 800.04 2197.50 973.40 2408.32 997.90
00012778 00000093 2132.78 227.53 696.78 1018.14 2215.50 642.75 2467.99 681.45 2220.86 811.72 2195.78 980.59 2416.57 1016.91
00012779 00000094 2123.59 230.76 694.57 1014.22 2202.93 650.47 2459.69 681.39 2214.23 809.99 2189.28 986.48 2408.99 1016.82
00012780 00000095 2117.06 234.88 689.41 1003.45 2193.60 655.80 2445.88 682.31 2203.26 806.28 2178.84 988.65 2390.24 1016.07
00012781 00000096 2111.49 233.71 688.95 1001.48 2180.87 659.46 2432.53 682.10 2187.71 804.90 2167.80 992.62 2374.22 1016.75
00012782 00000097 2106.35 230.91 686.30 1012.14 2173.04 658.60 2423.71 682.35 2178.23 806.57 2160.96 997.34 2363.85 1022.20
00012783 00000098 2105.09 231.20 681.89 1017.81 2167.31 661.46 2416.78 681.63 2172.73 807.90 2158.02 1004.92 2355.81 1026.51
00012784 00000099 2101.93 231.31 681.38 1021.18 2159.82 662.58 2410.95 682.62 2165.74 812.80 2154.65 1009.77 2350.55 1031.30
00012785 00000100 2096.98 233.10 683.11 1020.10 2155.19 672.81 2406.66 688.51 2160.28 818.24 2148.62 1016.16 2343.78 1034.48
00012786 00000101 2091.80 240.82 686.90 1016.53 2150.08 680.49 2399.73 694.16 2151.63 821.75 2145.35 1019.31 2342.16 1036.03
00012787 00000102 2086.60 245.53 698.28 1016.95 2150.63 691.43 2389.26 690.74 2152.03 837.71 2151.23 1027.70 2340.19 1026.13
00012788 00000103 2081.33 253.69 697.77 1011.35 2146.38 693.87 2386.02 695.98 2147.41 842.16 2143.98 1028.57 2334.58 1029.29
00012789 00000104 2076.48 248.28 697.99 1020.46 2143.07 693.45 2385.56 697.48 2144.95 845.73 2141.85 1030.87 2334.15 1033.11
00012790 00000105 2074.06 252.92 697.84 1017.70 2141.20 693.49 2384.69 699.54 2142.83 847.73 2138.50 1031.30 2332.52 1035.10
00012791 00000106 2073.38 252.50 697.13 1018.06 2141.02 693.28 2384.73 699.91 2143.18 848.27 2137.74 1031.50 2332.11 1035.88
00012792 00000107 2075.97 256.51 694.08 1011.12 2142.09 693.77 2384.12 700.54 2143.50 848.28 2138.31 1030.19 2332.70 1034.63
00012793 00000108 2077.47 254.34 696.15 1011.96 2143.51 693.93 2385.25 699.53 2145.01 847.95 2140.54 1028.66 2335.44 1031.95
00012794 00000109 2081.03 258.60 697.08 1006.37 2146.61 693.95 2386.68 698.93 2148.66 845.14 2144.60 1026.15 2337.84 1028.76
00012795 00000110 2084.45 252.07 698.24 1010.31 2149.79 692.00 2390.32 695.51 2154.03 842.62 2148.42 1024.68 2340.30 1026.34
00012796 00000111 2086.65 246.05 698.03 1011.66 2151.09 688.68 2392.04 692.16 2155.26 840.61 2149.20 1021.63 2339.94 1023.42
00012797 00000112 2089.71 248.27 694.65 1005.44 2154.58 686.77 2393.51 691.00 2158.68 837.42 2151.47 1018.63 2338.49 1020.99
00012798 00000113 2092.19 245.20 686.76 1006.60 2154.97 683.01 2403.67 696.58 2157.51 819.40 2145.24 1010.20 2346.05 1027.24
00012799 00000114 2093.35 242.71 686.03 1006.21 2158.05 679.82 2407.11 693.64 2164.19 816.73 2147.72 1006.80 2349.48 1024.18
00012800 00000115 2097.62 246.32 683.75 1001.27 2161.39 678.44 2409.91 693.86 2169.39 816.95 2152.26 1002.33 2355.72 1020.81
00012801 00000116 2099.59 244.47 683.22 1002.23 2164.99 677.13 2412.30 691.81 2174.04 815.26 2156.73 999.42 2359.47 1017.26
00012802 00000117 2100.73 245.13 684.06 1003.35 2168.66 676.33 2414.85 690.48 2178.62 815.12 2161.27 997.38 2366.11 1014.71
00012803 00000118 2101.20 247.01 686.92 1006.55 2173.45 677.19 2417.88 688.10 2184.06 815.34 2169.25 1000.56 2371.33 1014.86
00012804 00000119 2100.01 246.82 689.43 1014.81 2175.38 677.80 2422.49 683.12 2193.43 814.81 2176.95 1006.99 2380.78 1016.16
CROP_BBOX: 1506 0 3387 1706
