Video ID: 	94pKO6FuWcg
H: 	1080
W: 	1920
FPS: 	25.0

FRAME INDEX X0 Y0 W H [Landmarks (5 Points)]

00001836 00000000 631.69 286.00 404.21 517.74 783.42 442.61 961.07 441.96 900.71 579.88 800.10 657.24 934.40 655.86
00001837 00000001 646.57 279.78 391.00 527.07 796.99 445.15 975.40 443.68 918.25 583.85 814.92 663.53 950.51 661.13
00001838 00000002 656.57 279.23 390.16 528.45 811.06 446.26 991.68 445.89 939.73 577.76 836.49 665.83 973.23 664.39
00001839 00000003 663.34 282.74 389.70 525.34 820.51 444.90 1000.33 448.00 948.89 578.01 842.92 666.62 978.97 667.91
00001840 00000004 652.00 279.68 402.66 525.99 824.90 442.76 993.77 446.65 941.61 584.12 835.89 656.53 967.15 661.38
00001841 00000005 655.56 294.44 393.68 512.81 808.51 440.69 984.18 444.27 925.70 582.67 820.97 658.71 956.67 659.94
00001842 00000006 650.46 282.39 407.24 515.98 806.14 435.79 980.73 440.87 912.55 584.83 814.09 649.54 948.70 654.79
00001843 00000007 649.50 288.81 412.16 507.18 806.84 431.52 987.00 436.12 914.70 584.77 817.07 646.94 953.48 651.17
00001844 00000008 659.52 270.66 408.18 528.86 821.22 423.41 1000.31 432.50 932.23 576.69 829.12 646.06 966.47 653.56
00001845 00000009 669.43 261.38 405.56 536.72 840.23 424.68 1012.85 433.10 952.42 575.36 845.96 646.97 975.00 653.52
00001846 00000010 679.32 276.57 404.45 514.94 852.52 426.39 1024.87 432.66 963.28 572.95 861.12 645.70 984.97 650.01
00001847 00000011 685.25 278.44 405.31 506.89 855.87 429.63 1028.04 435.59 966.04 571.17 864.23 643.16 991.18 647.71
00001848 00000012 686.86 258.89 407.81 531.16 858.11 428.83 1030.60 436.92 963.95 571.24 861.17 643.93 988.98 650.30
00001849 00000013 690.40 264.72 408.55 525.57 856.66 428.27 1032.50 437.83 962.72 572.44 860.59 644.28 989.95 651.93
00001850 00000014 691.15 265.52 410.75 527.69 859.27 430.03 1035.26 439.32 968.09 574.30 864.94 646.59 995.20 653.97
00001851 00000015 689.90 279.85 410.20 514.68 861.46 431.12 1039.56 440.77 980.37 578.37 868.74 652.43 997.96 659.26
00001852 00000016 689.38 285.25 409.27 517.05 863.16 439.45 1039.37 451.40 979.94 583.80 867.45 655.01 997.75 663.67
00001853 DELETE   676.35 311.19 417.84 490.56 847.78 445.94 1027.55 455.60 961.09 590.48 855.00 655.89 989.76 662.23
00001854 DELETE   658.61 299.87 417.64 511.30 827.09 450.93 1001.66 458.28 938.50 594.11 835.04 657.87 974.43 664.64
00001855 DELETE   645.79 306.58 418.47 516.24 793.49 448.65 976.63 451.37 909.36 595.52 805.85 662.35 951.86 663.36
00001856 00000020 628.18 280.92 415.59 542.76 773.35 447.78 953.94 453.22 882.45 593.82 784.64 655.78 929.73 660.02
00001857 00000021 619.25 276.13 414.25 548.25 759.18 449.68 939.91 457.25 866.11 594.80 773.80 656.24 919.74 661.73
00001858 00000022 615.01 280.13 414.62 546.57 748.53 454.67 930.44 459.16 855.81 593.91 768.53 660.20 915.41 662.50
00001859 00000023 613.03 283.32 415.84 546.16 747.25 456.46 930.96 458.99 858.04 595.71 769.69 662.44 918.45 662.94
00001860 00000024 613.18 274.92 414.45 554.30 754.14 457.27 934.29 457.66 866.21 597.87 776.07 663.36 923.64 662.33
00001861 00000025 613.07 281.74 417.37 546.70 759.58 454.48 939.70 454.60 872.53 600.20 780.13 661.56 929.09 660.16
00001862 00000026 614.98 276.49 416.23 550.82 765.40 452.43 944.28 452.55 878.78 597.85 784.47 660.39 931.23 659.12
00001863 00000027 615.66 277.84 416.49 549.24 764.71 452.81 944.12 452.71 878.04 596.23 783.63 659.38 931.17 657.99
00001864 00000028 616.18 278.67 415.41 546.00 763.15 450.91 943.25 451.28 876.25 593.99 782.69 658.46 928.55 657.42
00001865 00000029 615.68 276.41 415.96 548.59 761.34 448.54 941.74 449.29 874.05 591.56 781.90 657.58 927.54 656.70
00001866 00000030 616.22 277.34 416.13 545.72 763.00 445.89 943.46 448.11 875.52 588.69 783.47 655.43 927.91 655.69
00001867 00000031 615.97 280.72 416.94 539.91 765.32 443.71 946.43 446.59 879.25 585.77 786.82 654.30 929.17 655.06
00001868 00000032 616.85 279.80 417.62 539.24 770.45 442.94 949.79 445.22 885.81 581.76 791.29 653.31 932.61 653.66
00001869 00000033 620.11 282.54 415.87 534.23 774.71 441.58 953.25 443.59 890.21 580.35 794.37 653.38 934.19 653.60
00001870 00000034 621.11 277.93 414.44 539.65 777.62 441.19 954.93 444.48 891.94 579.50 793.72 652.52 933.98 654.06
00001871 00000035 618.84 281.55 415.40 534.62 773.40 441.13 951.10 444.73 886.87 579.99 790.84 651.92 929.75 653.69
00001872 00000036 618.39 281.54 413.07 532.38 768.39 441.07 946.25 446.91 879.24 583.19 783.78 649.32 923.75 653.14
00001873 00000037 616.89 279.76 413.05 534.47 764.28 440.77 942.50 446.46 872.90 583.83 777.57 648.13 920.98 651.91
00001874 00000038 615.64 273.41 412.11 532.53 760.42 439.44 938.84 440.22 869.67 579.44 776.47 647.48 923.84 648.17
00001875 00000039 615.53 288.28 410.86 514.83 759.11 440.92 936.83 442.51 867.29 581.54 774.25 644.58 918.11 645.12
00001876 00000040 615.15 279.62 411.73 519.96 761.50 438.08 939.26 438.59 870.73 577.03 775.78 643.45 924.63 644.34
00001877 00000041 614.71 273.67 410.16 527.60 762.31 439.48 939.60 439.20 872.44 577.06 777.81 645.92 925.16 645.98
00001878 00000042 613.26 286.58 409.83 517.88 760.09 441.02 937.59 444.72 868.19 583.25 773.71 645.09 916.52 647.50
00001879 00000043 611.99 291.67 410.23 513.49 755.81 442.83 934.69 447.63 862.93 583.80 770.63 646.68 913.23 649.65
00001880 00000044 610.71 295.34 408.86 508.86 747.60 444.69 928.79 449.79 853.44 583.22 762.20 646.45 906.65 649.45
00001881 00000045 610.78 296.03 404.00 509.79 737.68 443.72 921.88 449.06 842.87 582.12 754.19 648.08 899.86 650.84
00001882 00000046 610.49 293.14 403.19 517.58 734.23 445.41 915.62 451.30 836.73 581.99 748.66 648.60 894.86 651.92
00001883 00000047 609.92 293.50 404.11 520.53 733.15 445.00 916.08 451.14 836.29 583.02 748.44 650.01 895.34 653.70
00001884 00000048 610.11 293.00 404.34 520.74 735.72 446.75 919.42 451.70 841.07 585.47 752.71 652.81 897.74 655.41
00001885 00000049 608.13 289.95 406.45 522.17 740.47 449.76 925.34 453.46 849.56 589.87 757.97 653.32 902.22 655.20
00001886 00000050 608.83 295.12 407.41 515.62 744.68 450.37 927.37 454.45 853.09 590.78 760.32 653.09 904.72 655.35
00001887 00000051 608.95 294.76 406.54 514.35 745.51 450.34 927.77 454.63 853.50 590.65 760.09 651.52 905.14 654.00
00001888 00000052 604.06 276.46 408.49 528.67 747.16 448.58 922.13 452.99 848.69 587.77 759.73 653.19 901.98 657.74
00001889 00000053 608.43 293.18 405.22 524.92 734.64 450.23 918.37 453.16 840.08 588.71 751.13 655.76 897.05 656.87
00001890 00000054 608.26 299.32 403.07 521.99 730.72 449.90 916.36 454.17 835.14 589.71 747.14 656.85 894.73 658.83
00001891 00000055 608.61 296.73 404.08 525.34 733.32 451.58 918.77 454.74 839.67 591.95 749.75 659.88 896.51 661.12
00001892 00000056 610.87 294.86 406.35 525.67 745.35 451.41 926.42 457.25 850.92 593.87 758.86 657.89 902.33 661.57
00001893 00000057 610.88 286.10 407.29 532.33 758.41 449.92 935.27 458.64 866.13 593.21 771.71 658.02 907.39 664.53
00001894 00000058 611.87 291.19 412.07 529.21 771.93 445.48 947.56 456.40 881.24 590.55 784.22 657.20 918.20 665.25
00001895 00000059 617.54 286.25 410.90 536.99 785.98 451.96 959.33 457.64 902.72 593.12 798.96 663.10 934.61 666.73
00001896 00000060 624.28 300.53 408.79 521.33 794.09 453.88 966.63 455.85 914.07 597.49 809.48 668.40 943.98 668.90
00001897 00000061 631.83 300.17 404.06 521.27 799.35 453.88 971.82 456.07 918.59 598.06 812.86 671.74 946.05 672.59
00001898 00000062 635.91 300.99 401.89 523.09 797.23 456.90 974.24 458.28 917.90 600.53 812.23 674.46 948.82 674.24
00001899 00000063 633.17 312.23 404.91 506.33 793.45 456.16 973.17 459.90 912.59 605.01 806.56 671.97 945.18 674.10
00001900 00000064 630.07 313.27 404.60 501.62 787.17 454.35 967.97 462.14 901.41 604.13 796.86 667.83 934.83 673.78
00001901 00000065 629.95 313.99 405.62 505.02 779.94 454.99 958.25 464.24 886.24 605.85 788.45 668.42 920.91 675.22
00001902 00000066 628.47 307.50 406.13 510.38 773.66 453.02 952.21 463.18 877.41 602.05 780.35 665.51 912.41 673.54
00001903 00000067 626.36 291.80 404.28 523.48 770.95 447.43 953.79 459.49 878.59 596.92 778.88 665.04 911.29 674.58
00001904 00000068 625.79 291.17 403.65 524.36 771.09 442.14 957.13 455.23 882.70 592.43 780.93 662.17 916.08 672.35
00001905 00000069 628.83 298.08 404.43 511.69 777.71 443.37 962.37 453.36 891.79 589.44 789.54 661.00 924.46 668.57
00001906 00000070 630.75 286.31 403.85 521.53 786.72 443.72 966.09 452.07 900.16 583.85 798.53 661.29 926.60 667.13
00001907 00000071 633.32 285.70 400.85 520.40 794.64 444.78 972.54 449.29 912.07 582.84 805.71 662.23 935.43 665.09
00001908 00000072 640.66 299.74 395.02 505.24 799.72 445.30 974.20 447.79 916.01 583.59 811.71 664.23 938.15 665.58
00001909 00000073 648.00 303.99 390.52 500.66 805.94 443.92 977.79 445.99 921.83 582.43 818.97 664.37 943.38 665.01
00001910 00000074 652.25 306.67 391.08 497.17 804.41 444.78 980.26 445.48 922.10 582.89 819.55 661.55 952.84 660.49
00001911 00000075 653.02 305.28 391.67 496.24 802.69 444.76 980.14 443.56 922.76 581.56 818.86 659.54 955.98 657.03
00001912 00000076 652.88 300.09 395.19 505.52 801.10 442.38 977.91 444.69 915.36 582.41 814.14 658.99 948.93 659.53
00001913 00000077 651.16 286.01 398.33 534.64 798.58 439.51 973.08 446.47 908.14 582.84 809.31 660.62 940.91 665.38
00001914 00000078 649.87 288.49 398.97 527.80 795.55 437.97 974.59 444.99 907.49 582.44 807.14 660.02 942.86 664.80
00001915 00000079 650.77 283.18 399.44 526.51 794.88 436.00 977.11 440.48 910.69 580.87 810.06 659.71 946.91 661.89
00001916 00000080 648.69 268.49 408.17 536.54 803.93 433.38 980.91 435.15 916.65 581.41 822.36 654.38 955.95 657.08
00001917 00000081 653.35 281.51 404.20 524.85 814.61 437.26 988.77 437.81 930.28 579.09 832.08 653.92 968.18 655.53
00001918 00000082 655.73 284.38 404.47 523.27 822.43 437.27 996.03 436.66 942.17 579.74 839.18 653.41 976.74 653.69
00001919 00000083 659.00 272.73 403.49 536.16 827.78 437.70 1000.96 438.29 947.42 581.77 843.12 656.38 977.40 657.57
00001920 00000084 656.96 272.38 406.62 536.02 825.24 439.51 999.23 441.04 943.73 582.80 838.91 653.91 976.88 656.18
00001921 00000085 657.70 272.53 403.55 537.32 821.50 440.98 994.95 442.87 937.97 583.68 834.28 654.56 973.50 657.58
00001922 00000086 655.20 279.43 404.04 529.31 819.72 443.87 991.83 445.31 935.39 584.11 832.37 654.61 971.82 657.40
00001923 00000087 653.86 279.45 405.99 532.11 819.67 442.29 991.96 443.91 935.00 585.42 835.07 657.48 971.10 660.20
00001924 00000088 660.25 278.85 395.16 535.39 814.50 445.37 991.20 444.64 936.76 584.25 834.08 667.17 968.16 664.45
00001925 00000089 659.86 280.08 394.83 537.82 818.73 444.83 992.54 442.10 941.82 584.03 836.69 671.78 966.47 667.88
00001926 00000090 657.70 288.97 397.54 531.03 818.78 442.00 994.15 440.26 943.23 582.70 834.80 670.50 968.60 667.42
00001927 00000091 655.04 288.05 398.57 525.31 812.58 438.68 991.90 438.81 937.15 577.96 832.02 662.05 974.10 659.63
00001928 00000092 648.41 287.34 400.48 520.06 811.59 437.10 992.52 439.62 942.10 573.12 832.93 658.37 975.05 659.25
00001929 00000093 641.21 279.18 400.90 523.26 803.03 433.36 981.83 435.79 925.38 576.12 818.91 656.79 955.32 656.91
00001930 00000094 632.10 277.23 403.47 528.35 798.78 431.82 977.57 438.35 919.98 577.81 810.82 655.77 946.68 659.74
00001931 00000095 626.73 281.51 407.50 526.05 795.14 435.42 973.59 442.09 916.66 579.19 807.38 657.09 942.85 661.40
00001932 00000096 623.91 275.05 409.00 535.08 796.77 436.83 973.03 443.88 918.58 580.10 808.79 657.95 942.57 662.65
00001933 00000097 623.97 276.69 409.68 537.58 799.25 437.24 973.40 444.89 919.57 582.14 809.34 659.61 941.34 664.90
00001934 00000098 623.45 280.24 409.31 536.86 801.48 437.12 973.08 444.57 920.98 582.08 811.07 661.56 939.32 666.87
00001935 00000099 623.48 286.71 408.36 527.96 801.76 437.61 973.27 444.91 921.79 581.91 813.31 664.61 937.80 669.59
00001936 00000100 620.73 283.78 411.65 537.59 799.26 439.00 973.42 445.68 922.78 586.05 812.19 668.33 941.38 673.07
00001937 00000101 615.73 273.50 415.11 549.68 797.11 441.66 973.47 451.99 921.27 588.32 810.25 672.19 937.58 679.94
00001938 00000102 616.16 284.65 416.30 541.64 798.84 441.38 972.55 451.40 919.62 588.83 808.99 672.76 934.07 680.17
00001939 00000103 617.29 283.57 413.57 536.19 800.12 437.47 970.92 446.16 918.65 579.07 810.42 668.63 929.01 674.77
00001940 00000104 613.34 270.67 414.55 539.13 798.52 429.34 967.63 435.25 918.71 565.07 810.50 657.28 930.33 661.04
00001941 00000105 611.71 257.30 417.18 543.65 792.81 420.25 967.15 425.43 916.39 552.87 807.64 647.23 937.39 650.28
00001942 00000106 610.75 252.32 419.17 549.10 793.79 423.43 968.66 428.49 916.76 554.71 807.31 646.95 938.83 649.80
00001943 00000107 610.70 254.98 418.06 552.50 793.80 429.84 967.47 433.84 914.91 568.35 807.45 654.10 938.50 656.18
00001944 00000108 617.61 283.89 415.73 532.77 798.83 437.50 970.58 445.90 919.11 582.42 809.95 663.30 935.53 669.42
00001945 00000109 618.87 284.17 415.28 536.49 801.28 440.17 972.37 447.17 923.60 584.96 814.25 669.47 936.55 674.54
00001946 00000110 622.21 287.11 411.74 531.11 803.68 439.39 971.99 445.29 924.06 581.17 818.16 668.98 936.41 672.97
00001947 00000111 621.88 269.94 411.15 547.29 807.09 432.80 973.22 438.90 925.89 570.58 820.97 664.87 935.20 668.82
00001948 00000112 623.31 261.41 411.89 540.99 810.10 421.33 977.01 429.35 930.79 552.57 824.16 649.03 944.41 654.33
00001949 00000113 624.19 258.53 410.67 536.60 806.42 415.11 978.29 421.01 933.06 542.89 824.72 644.46 951.53 648.06
00001950 00000114 625.27 255.37 409.42 536.39 806.11 413.75 977.67 419.64 931.72 539.16 822.70 639.76 950.96 643.40
00001951 00000115 622.94 258.29 410.83 532.83 805.32 414.02 977.13 419.34 930.56 543.12 822.69 642.24 948.99 645.52
00001952 00000116 622.68 253.38 409.31 544.22 808.31 418.88 976.93 424.17 931.03 550.33 823.96 647.92 945.19 650.86
00001953 00000117 622.00 247.13 408.37 564.11 811.08 422.99 973.99 428.83 930.89 555.30 825.19 653.03 944.12 656.22
00001954 00000118 622.41 251.71 409.13 555.26 811.96 423.12 976.58 427.28 934.56 552.32 828.20 653.06 947.56 655.03
00001955 00000119 623.13 253.97 410.44 544.27 811.29 419.01 976.65 421.83 935.74 545.93 829.28 648.00 948.84 648.85
00001956 00000120 624.68 256.10 408.41 537.00 810.63 415.33 978.13 417.76 937.37 543.38 830.24 645.83 948.78 646.43
00001957 00000121 623.52 253.83 409.27 539.07 809.35 413.97 977.30 416.91 934.69 543.01 828.71 645.19 946.82 646.14
00001958 00000122 621.07 248.12 410.44 549.67 808.67 417.22 976.14 419.28 933.69 545.07 827.11 646.97 946.90 647.02
00001959 00000123 621.31 246.93 409.63 554.61 808.11 420.40 975.45 421.96 933.16 547.70 826.62 650.00 948.25 649.76
00001960 00000124 620.62 245.52 410.41 552.21 807.08 420.46 979.12 421.70 935.46 547.40 824.24 648.96 950.32 648.54
00001961 00000125 621.35 245.74 411.44 547.80 804.05 418.46 978.47 417.93 934.30 543.95 823.10 643.62 954.91 641.70
00001962 00000126 621.10 241.10 412.56 550.86 803.12 414.33 979.48 415.99 933.39 541.36 822.14 640.21 955.71 639.78
00001963 00000127 621.24 243.96 412.40 550.22 803.91 415.64 979.73 417.24 932.80 545.14 824.31 644.65 952.23 643.97
00001964 00000128 622.26 246.24 410.20 553.83 808.99 419.44 976.05 423.67 932.20 549.50 826.45 649.14 946.04 650.79
00001965 00000129 624.72 247.25 407.65 554.38 811.84 420.94 975.96 426.95 931.79 549.39 828.33 648.54 945.70 651.62
00001966 00000130 626.10 245.34 407.19 552.86 811.49 417.82 976.33 421.32 933.32 546.09 830.85 646.94 948.36 647.82
00001967 00000131 626.52 252.28 406.98 537.71 808.28 412.26 977.61 417.17 932.12 540.46 830.58 642.03 948.57 644.20
00001968 00000132 627.55 251.34 406.45 532.21 805.84 410.72 977.44 415.75 928.93 537.43 827.77 636.47 948.34 638.82
00001969 00000133 627.13 248.48 407.61 531.75 803.78 410.92 976.74 414.91 927.08 537.16 825.00 631.73 952.28 633.29
00001970 00000134 626.42 262.05 405.72 517.53 801.15 412.77 974.81 421.09 923.00 539.87 819.48 628.45 950.19 633.97
00001971 00000135 623.54 265.58 406.23 516.68 797.86 416.15 969.16 425.75 916.25 542.90 814.18 628.80 943.04 635.55
00001972 00000136 618.62 262.03 405.85 522.29 789.83 422.57 962.97 427.24 907.20 546.02 810.07 634.95 936.72 637.47
00001973 00000137 613.77 265.31 403.13 517.71 778.72 421.49 952.01 422.36 892.32 547.47 800.02 633.03 927.89 632.43
00001974 00000138 612.23 246.23 403.42 539.96 771.61 418.23 944.53 422.33 880.04 551.55 787.59 630.19 917.57 632.46
00001975 00000139 611.40 258.14 401.37 527.13 764.91 416.66 938.94 419.47 873.40 550.83 781.35 629.09 913.24 630.24
00001976 00000140 611.00 253.85 398.61 530.48 758.73 416.27 932.71 419.12 867.47 547.98 776.39 628.69 908.40 629.99
00001977 00000141 611.53 252.17 395.85 531.27 754.67 414.41 930.08 417.37 863.96 545.46 773.13 626.63 907.26 628.16
00001978 00000142 611.05 249.92 395.44 531.54 753.16 414.08 928.41 416.35 863.26 545.11 772.22 626.44 906.35 627.35
00001979 00000143 609.68 250.88 395.82 530.94 750.79 413.76 926.65 416.00 861.46 544.68 769.54 625.49 905.64 626.51
00001980 00000144 608.34 256.36 394.96 524.43 749.27 413.32 924.49 414.67 859.54 545.04 768.81 625.10 903.98 625.40
00001981 00000145 606.39 255.84 394.16 525.47 746.12 413.74 921.67 414.55 857.14 545.55 765.66 625.10 901.87 625.12
00001982 00000146 601.39 254.53 396.94 534.13 744.84 425.54 910.83 417.96 863.27 543.81 765.11 634.42 906.96 627.06
00001983 00000147 599.65 251.61 397.20 537.01 743.12 423.63 909.55 416.60 860.52 543.49 764.06 634.63 904.36 627.52
00001984 00000148 596.59 250.78 398.10 537.34 739.62 422.40 907.74 415.13 858.03 542.99 761.91 634.44 902.93 626.90
00001985 00000149 593.11 250.41 400.00 538.46 736.94 421.55 906.35 414.55 855.68 544.29 759.55 634.33 901.00 626.76
00001986 00000150 589.53 248.86 400.72 540.54 734.33 421.03 905.48 414.51 853.72 544.54 755.86 634.10 898.78 627.00
00001987 00000151 588.48 247.23 401.20 542.90 732.03 421.66 904.59 414.02 851.76 545.59 755.37 634.52 899.45 626.26
00001988 00000152 585.61 245.88 402.11 542.19 727.28 421.52 904.74 412.09 850.21 545.64 754.41 637.93 899.30 627.81
00001989 00000153 585.34 247.71 399.15 535.82 724.95 422.10 902.76 412.63 846.77 547.21 752.13 636.39 896.52 626.35
00001990 00000154 582.86 251.01 397.75 530.96 723.74 423.92 899.74 415.44 842.38 549.94 750.25 636.95 890.52 627.85
00001991 00000155 582.51 257.61 394.09 523.18 720.96 425.28 893.66 421.31 832.76 550.52 745.62 637.06 878.79 632.09
00001992 00000156 581.97 256.42 392.14 521.71 721.52 424.72 892.77 423.35 831.46 550.39 742.76 634.07 876.24 631.57
00001993 00000157 583.35 255.84 393.95 522.72 727.19 424.84 899.61 419.92 841.82 552.62 747.15 632.46 886.97 626.95
00001994 00000158 589.92 257.63 387.53 514.74 736.50 424.23 912.05 415.37 860.72 543.49 761.04 631.70 904.10 622.61
00001995 00000159 600.99 255.44 384.55 513.93 756.11 424.95 924.31 415.88 881.10 540.86 776.82 630.01 916.04 621.54
00001996 00000160 606.60 253.33 382.48 516.00 768.44 425.05 929.91 416.43 891.99 537.90 787.14 627.70 921.12 619.87
00001997 00000161 608.00 250.10 382.07 525.81 774.95 426.05 933.83 422.57 896.45 541.51 788.78 629.88 920.80 626.45
00001998 00000162 608.50 240.07 383.38 537.43 774.30 430.35 934.46 427.52 895.10 549.64 785.91 632.60 921.48 629.69
00001999 00000163 606.75 245.82 384.41 537.39 772.28 432.78 934.47 428.49 895.17 553.85 783.40 636.45 921.77 632.44
00002000 00000164 606.68 241.89 386.90 540.62 772.85 431.13 937.38 426.83 896.85 551.66 785.08 635.50 925.31 631.16
00002001 00000165 604.22 238.72 390.30 537.42 777.68 417.63 944.37 417.08 895.33 547.47 795.25 627.56 919.25 626.63
00002002 00000166 608.19 241.74 385.15 536.80 774.87 426.02 938.59 424.38 897.28 547.54 788.45 633.06 923.89 630.75
00002003 00000167 602.32 251.01 387.14 529.27 766.42 426.64 932.14 427.39 887.58 550.99 776.81 634.69 914.57 634.82
00002004 00000168 598.76 254.48 389.27 527.05 764.56 426.19 927.73 427.91 883.29 553.31 772.97 634.91 908.47 635.90
00002005 00000169 602.81 256.03 389.72 526.09 768.88 423.92 933.69 425.98 888.38 551.89 776.78 632.91 914.32 633.97
00002006 00000170 607.83 258.84 387.60 514.95 783.53 420.32 947.50 420.80 897.22 548.37 796.72 628.38 918.05 628.14
