Video ID: 	y8A3XQgl_h0
H: 	2160
W: 	3840
FPS: 	29.97002997002997

FRAME INDEX X0 Y0 W H [Landmarks (5 Points)]

00004777 00000000 2015.96 262.68 693.11 980.09 2124.88 693.93 2422.17 707.83 2165.86 827.55 2100.82 1029.98 2351.23 1044.80
00004778 00000001 2013.98 262.94 693.47 981.21 2122.93 694.65 2421.54 708.24 2164.22 827.71 2099.31 1031.56 2349.89 1046.27
00004779 00000002 2011.36 263.55 693.15 979.68 2121.02 694.70 2421.04 707.01 2164.43 827.57 2097.67 1031.55 2350.62 1045.41
00004780 00000003 2010.29 262.43 693.00 977.76 2118.68 693.25 2419.87 704.97 2163.54 827.21 2094.56 1029.79 2350.49 1043.36
00004781 00000004 2007.22 262.73 694.96 983.98 2115.47 696.27 2416.64 704.98 2160.71 826.29 2093.95 1034.63 2349.01 1045.63
00004782 00000005 1998.51 263.82 698.49 996.84 2110.42 699.95 2412.52 707.19 2159.68 828.63 2091.40 1041.06 2343.94 1051.31
00004783 00000006 1997.74 263.27 697.69 1001.93 2109.87 700.18 2411.92 708.27 2158.01 830.25 2088.62 1042.84 2344.64 1054.02
00004784 00000007 1998.21 264.65 697.45 1006.26 2109.84 700.72 2411.24 708.76 2157.56 830.72 2087.46 1043.71 2345.51 1054.89
00004785 00000008 1996.29 266.49 695.81 1008.17 2109.37 701.40 2410.53 709.91 2158.68 832.17 2086.11 1043.65 2344.52 1055.52
00004786 00000009 1993.16 268.14 697.16 1011.54 2108.85 704.86 2409.73 712.89 2159.83 834.43 2086.03 1046.06 2344.44 1057.52
00004787 00000010 1991.55 268.61 700.16 1014.69 2108.59 705.04 2408.70 712.70 2158.98 834.08 2085.33 1046.14 2343.29 1057.31
00004788 00000011 1990.33 269.79 699.93 1011.96 2107.37 702.06 2407.17 709.73 2158.51 830.67 2085.90 1043.60 2341.10 1054.73
00004789 00000012 1990.16 263.63 700.44 1011.95 2105.34 691.13 2405.58 701.30 2155.87 827.46 2081.15 1035.29 2341.94 1048.65
00004790 00000013 1990.78 255.61 700.95 1001.73 2104.90 680.62 2405.52 690.66 2155.22 820.67 2079.47 1023.18 2342.96 1036.22
00004791 00000014 1988.80 251.78 703.84 992.18 2099.91 670.96 2402.44 682.73 2149.66 814.67 2075.57 1012.28 2342.85 1026.59
00004792 00000015 1988.75 253.52 703.36 987.04 2098.80 673.52 2401.73 684.31 2148.64 815.29 2074.62 1012.53 2342.82 1026.02
00004793 00000016 1989.16 257.59 700.51 984.83 2100.93 680.59 2402.33 690.57 2151.08 820.31 2076.72 1016.82 2342.03 1029.71
00004794 DELETE   1990.00 268.57 698.85 976.40 2103.10 694.73 2405.90 704.37 2156.62 824.67 2080.08 1020.74 2345.96 1032.99
00004795 00000018 1988.22 268.36 700.70 974.28 2100.79 698.61 2409.60 705.76 2162.80 825.55 2078.23 1021.08 2348.48 1031.48
00004796 00000019 1987.38 267.94 702.71 977.13 2097.67 697.70 2410.85 705.81 2165.60 826.08 2076.64 1021.67 2348.94 1033.01
00004797 00000020 1985.04 268.67 702.13 978.82 2094.57 700.22 2409.40 708.28 2162.93 828.64 2073.58 1023.43 2348.84 1034.79
00004798 00000021 1981.15 266.33 702.12 984.10 2090.93 702.22 2405.31 709.48 2159.79 832.35 2070.87 1025.40 2346.05 1036.29
00004799 00000022 1980.65 264.43 702.73 986.43 2089.00 699.89 2403.25 707.46 2156.59 831.49 2068.16 1023.62 2344.88 1034.82
00004800 00000023 1981.32 262.38 703.48 985.02 2090.84 697.19 2404.20 705.53 2156.61 829.35 2069.60 1020.66 2343.73 1032.29
00004801 00000024 1982.13 263.20 703.46 983.45 2092.94 696.64 2404.45 706.06 2156.77 828.91 2070.84 1019.55 2343.56 1031.98
00004802 00000025 1981.80 264.33 702.27 982.14 2093.40 696.29 2403.68 705.92 2156.49 828.59 2070.43 1018.84 2343.29 1031.40
00004803 00000026 1981.55 264.70 701.20 982.04 2094.62 695.37 2402.72 705.90 2155.09 829.75 2071.18 1017.65 2343.51 1030.80
00004804 00000027 1971.69 245.66 712.31 999.47 2085.40 685.89 2404.03 709.21 2163.05 830.39 2074.70 1000.78 2348.75 1023.11
00004805 00000028 1982.80 259.34 699.45 985.70 2098.54 686.91 2401.86 701.44 2153.26 828.67 2071.35 1012.28 2342.83 1028.78
00004806 00000029 1981.80 257.98 699.69 987.82 2097.57 683.78 2400.55 699.93 2151.18 828.44 2069.05 1011.02 2341.67 1028.81
00004807 00000030 1967.92 242.90 714.22 1013.87 2082.66 684.52 2401.70 706.04 2160.34 834.00 2071.40 1005.08 2347.89 1026.23
00004808 00000031 1968.46 244.40 715.19 1032.05 2085.27 686.16 2399.92 706.27 2161.29 838.16 2074.43 1010.86 2348.22 1031.89
00004809 00000032 1974.21 250.40 711.14 1045.29 2087.80 693.29 2401.69 711.11 2163.92 845.72 2079.75 1021.84 2351.71 1041.90
00004810 00000033 1968.57 271.81 706.33 1036.79 2093.56 708.40 2393.71 716.78 2143.88 838.31 2067.20 1042.43 2331.21 1053.93
00004811 00000034 1965.17 251.31 715.37 1040.43 2076.36 701.86 2390.31 716.91 2149.60 849.17 2069.50 1025.81 2340.35 1043.07
00004812 00000035 1965.45 251.45 716.35 1033.61 2077.03 700.79 2392.35 715.78 2150.79 848.44 2072.40 1026.35 2341.30 1043.53
00004813 00000036 1963.60 247.75 716.54 1034.94 2074.78 697.53 2391.41 712.88 2148.71 844.35 2068.68 1022.83 2340.57 1040.00
00004814 00000037 1962.82 245.51 717.43 1035.41 2075.54 693.91 2391.41 708.86 2151.61 841.53 2069.19 1019.44 2341.51 1036.25
00004815 00000038 1966.39 243.86 717.65 1034.90 2079.23 690.90 2394.45 706.70 2154.21 842.18 2072.15 1017.41 2344.29 1034.91
00004816 00000039 1968.42 243.70 716.52 1039.62 2082.26 689.21 2396.01 705.65 2156.62 843.04 2074.16 1017.54 2345.55 1035.89
00004817 00000040 1972.47 247.07 712.58 1053.39 2087.06 688.24 2397.36 704.20 2162.37 844.12 2078.69 1021.61 2348.35 1040.21
00004818 00000041 1975.80 250.21 707.46 1069.88 2090.22 689.56 2396.77 704.18 2164.74 843.57 2082.36 1029.99 2347.42 1048.16
00004819 00000042 1979.53 253.97 704.64 1087.81 2090.37 689.38 2397.53 701.60 2164.08 843.09 2081.00 1038.68 2348.48 1054.98
00004820 00000043 1978.60 253.75 705.07 1082.86 2091.79 688.88 2396.63 700.27 2166.48 841.57 2082.33 1036.40 2346.12 1052.29
00004821 00000044 1967.92 267.52 709.46 1061.31 2094.37 688.08 2389.18 702.91 2138.61 826.53 2068.05 1040.20 2327.19 1055.31
00004822 00000045 1964.61 242.68 717.16 1050.71 2080.59 688.88 2388.02 703.31 2155.52 844.35 2076.24 1023.89 2334.91 1041.65
00004823 00000046 1962.86 240.79 722.28 1040.73 2078.28 689.02 2388.14 704.34 2154.41 844.54 2076.81 1020.72 2336.55 1038.23
00004824 00000047 1962.03 239.72 722.43 1036.22 2076.82 686.20 2385.71 702.39 2151.84 841.54 2072.54 1015.48 2333.30 1033.66
00004825 00000048 1961.81 238.62 721.69 1029.87 2076.54 681.43 2384.85 699.87 2151.38 837.66 2069.82 1009.91 2330.04 1029.66
00004826 00000049 1963.12 239.21 719.11 1021.37 2075.61 679.21 2385.96 699.31 2149.97 838.59 2069.01 1009.65 2328.87 1030.51
00004827 00000050 1965.29 239.13 716.66 1020.83 2076.54 681.66 2386.68 703.20 2150.77 840.20 2069.81 1011.44 2328.20 1033.24
00004828 00000051 1963.21 239.92 716.58 1030.95 2074.79 689.76 2385.02 708.97 2148.87 840.98 2070.19 1017.95 2329.02 1038.29
00004829 00000052 1961.26 242.34 713.51 1034.09 2075.04 696.51 2381.27 709.98 2150.24 843.55 2075.95 1024.62 2327.14 1041.11
00004830 00000053 1958.85 243.35 715.08 1036.57 2072.34 699.42 2379.10 711.05 2147.78 843.73 2074.17 1026.78 2327.05 1041.53
00004831 00000054 1961.47 257.44 710.08 1033.72 2076.50 706.42 2379.37 708.88 2130.77 834.76 2064.03 1044.05 2300.12 1046.34
00004832 00000055 1960.51 258.35 710.96 1033.25 2075.96 708.64 2380.37 710.87 2132.72 834.23 2065.99 1046.66 2301.58 1048.59
00004833 00000056 1960.73 257.58 710.79 1029.01 2073.99 708.07 2379.62 711.29 2130.35 837.82 2062.05 1043.69 2308.19 1046.10
00004834 00000057 1955.29 246.13 720.07 1031.20 2066.99 703.42 2378.73 716.35 2142.22 847.00 2068.20 1026.29 2329.48 1041.22
00004835 00000058 1954.98 246.47 719.87 1028.58 2066.55 700.60 2378.23 715.34 2141.49 846.92 2066.21 1021.83 2329.77 1038.07
00004836 00000059 1956.31 244.85 718.86 1026.55 2067.10 698.32 2378.48 714.25 2141.84 846.05 2065.72 1018.49 2330.19 1035.55
00004837 00000060 1956.41 244.76 718.78 1029.02 2066.53 696.63 2379.07 713.80 2141.27 847.25 2064.19 1017.26 2332.50 1035.32
00004838 00000061 1954.74 245.42 722.25 1023.90 2063.25 694.93 2380.13 711.29 2137.32 844.72 2060.61 1017.72 2332.66 1034.73
00004839 00000062 1955.63 258.65 716.49 1040.57 2073.42 703.80 2380.30 709.32 2130.10 840.44 2061.32 1043.21 2311.28 1047.19
00004840 00000063 1959.06 262.10 712.74 1035.33 2073.33 708.87 2380.26 714.72 2129.97 845.01 2059.28 1048.07 2311.09 1052.33
00004841 00000064 1958.68 267.97 714.91 1031.96 2073.02 712.71 2380.56 718.15 2131.27 845.74 2060.67 1052.29 2309.74 1056.16
00004842 00000065 1958.26 270.23 715.33 1032.44 2073.44 715.86 2380.21 720.86 2130.78 845.73 2062.41 1054.74 2308.38 1058.23
00004843 00000066 1958.16 269.09 714.69 1038.48 2072.59 718.24 2378.99 723.62 2128.34 848.43 2065.40 1056.83 2312.94 1060.38
00004844 00000067 1960.32 266.69 714.07 1034.40 2070.62 717.90 2376.14 725.29 2126.97 854.50 2061.02 1053.49 2314.15 1058.73
00004845 00000068 1961.43 266.53 712.67 1032.85 2070.88 717.99 2377.06 725.68 2127.57 855.05 2060.79 1052.88 2315.85 1058.48
00004846 00000069 1960.55 267.74 713.42 1042.20 2072.41 718.58 2380.38 726.18 2129.63 855.25 2061.61 1056.68 2319.58 1062.13
00004847 00000070 1960.51 272.20 714.86 1052.29 2074.24 719.81 2383.02 726.44 2130.03 853.74 2066.37 1062.24 2318.15 1066.66
00004848 00000071 1961.22 271.75 714.06 1043.20 2075.27 720.35 2381.37 726.96 2130.17 853.38 2066.80 1059.77 2318.89 1064.17
00004849 00000072 1960.78 273.13 716.18 1037.42 2074.29 720.68 2380.65 727.24 2130.05 852.20 2063.14 1059.55 2315.99 1064.13
00004850 00000073 1962.75 272.70 714.06 1025.75 2074.18 721.14 2379.28 726.60 2131.71 851.92 2059.86 1057.66 2313.97 1061.55
00004851 00000074 1962.65 272.96 714.45 1020.00 2074.42 720.44 2379.38 726.43 2132.26 849.96 2059.37 1054.55 2314.59 1058.96
00004852 00000075 1962.70 272.99 714.20 1020.34 2074.51 720.27 2379.72 726.78 2131.89 849.28 2060.03 1053.60 2314.41 1058.40
00004853 00000076 1964.73 270.95 712.62 1021.89 2074.85 720.85 2380.58 727.24 2132.78 850.46 2060.76 1053.59 2315.96 1058.36
00004854 00000077 1965.43 270.73 712.46 1020.14 2075.98 720.27 2382.30 726.86 2135.57 850.05 2061.35 1052.33 2316.90 1057.29
00004855 00000078 1967.89 271.70 707.34 1017.18 2084.42 727.04 2388.29 728.75 2139.64 848.40 2067.78 1055.23 2326.60 1061.16
00004856 00000079 1970.89 273.01 706.81 1025.15 2089.13 726.20 2388.83 729.59 2140.24 850.17 2070.92 1057.56 2326.06 1064.98
00004857 00000080 1972.30 273.92 706.93 1040.64 2093.54 723.45 2388.62 727.46 2138.91 850.02 2074.45 1059.89 2327.47 1067.30
00004858 00000081 1974.89 272.01 706.16 1043.37 2096.93 724.51 2392.12 728.47 2141.15 851.67 2076.43 1061.01 2329.90 1068.33
00004859 00000082 1974.54 273.84 706.11 1047.64 2098.70 723.68 2392.42 729.43 2142.41 853.12 2077.14 1060.76 2331.12 1069.31
00004860 00000083 1977.93 277.25 704.84 1043.02 2100.46 724.06 2394.27 731.56 2144.45 855.41 2079.29 1060.65 2334.73 1070.54
00004861 00000084 1981.05 279.30 704.13 1040.83 2104.69 724.42 2397.40 732.72 2148.00 855.97 2082.40 1061.12 2337.82 1071.64
00004862 00000085 1982.74 278.77 704.97 1044.22 2107.19 723.90 2398.72 732.82 2149.00 855.65 2085.57 1062.14 2338.87 1072.99
00004863 00000086 1986.54 284.04 702.46 1038.21 2109.82 724.40 2401.87 733.50 2153.10 855.92 2087.20 1062.17 2342.72 1073.41
00004864 00000087 1991.57 286.76 699.67 1031.38 2113.69 723.77 2405.05 734.10 2156.66 855.68 2091.23 1061.44 2345.61 1073.68
00004865 00000088 1993.82 287.79 699.97 1030.46 2117.03 723.57 2406.78 733.56 2160.58 854.33 2094.04 1061.57 2347.53 1073.56
00004866 00000089 1997.43 288.67 698.74 1029.13 2121.35 721.99 2411.03 733.50 2165.36 854.78 2097.84 1060.55 2351.93 1073.67
00004867 00000090 2001.66 293.21 697.12 1027.90 2125.86 720.81 2414.22 732.09 2168.28 853.52 2103.38 1060.34 2357.60 1072.43
00004868 00000091 2004.72 292.68 697.53 1031.58 2127.90 719.43 2415.61 730.72 2169.01 853.59 2106.30 1060.07 2362.27 1071.70
00004869 00000092 2007.31 294.16 699.76 1032.67 2128.58 717.63 2416.40 728.58 2168.74 853.94 2108.11 1058.55 2367.24 1069.31
00004870 00000093 2009.47 290.99 700.46 1032.75 2130.52 717.45 2417.78 728.43 2170.09 854.08 2110.92 1057.45 2369.34 1068.10
00004871 00000094 2012.70 291.83 698.08 1025.60 2132.25 723.12 2418.99 731.79 2172.18 856.91 2112.21 1057.09 2372.61 1065.94
00004872 00000095 2018.98 292.96 697.57 1008.61 2133.52 724.94 2423.53 732.54 2180.34 859.90 2114.58 1053.60 2380.88 1062.11
00004873 00000096 2021.63 289.64 698.61 1005.36 2136.67 723.57 2426.20 730.25 2182.33 858.51 2117.37 1051.79 2383.79 1059.49
00004874 00000097 2025.93 283.68 694.67 1003.46 2136.56 720.83 2425.12 726.72 2181.22 856.65 2119.07 1051.29 2381.29 1058.56
00004875 00000098 2027.94 283.86 695.62 1005.50 2138.56 719.97 2425.70 724.24 2180.46 855.53 2122.06 1050.87 2383.21 1056.67
00004876 00000099 2031.33 286.96 693.97 1007.26 2141.89 719.15 2427.26 723.33 2182.00 855.05 2124.54 1050.40 2386.05 1056.03
00004877 00000100 2035.08 289.91 692.03 1016.48 2145.67 717.85 2428.23 721.41 2182.50 853.67 2129.42 1053.88 2387.50 1058.71
00004878 00000101 2036.69 289.32 692.32 1041.24 2150.28 718.22 2430.79 720.43 2178.79 855.04 2136.07 1059.62 2394.98 1061.46
00004879 00000102 2034.20 294.76 695.99 1065.39 2153.16 718.25 2434.23 720.26 2176.63 852.24 2143.76 1065.87 2398.17 1065.52
00004880 00000103 2034.20 298.53 696.28 1068.35 2154.87 718.03 2438.59 719.97 2180.52 851.75 2146.83 1069.14 2401.28 1068.07
00004881 00000104 2039.95 293.78 693.90 1047.57 2156.74 717.12 2440.86 722.46 2183.55 855.41 2139.74 1061.34 2399.55 1064.92
00004882 00000105 2041.21 289.10 694.19 1036.81 2156.83 721.96 2441.69 724.18 2187.51 856.54 2138.18 1060.92 2397.12 1063.36
00004883 00000106 2038.58 288.08 698.37 1040.36 2155.74 723.73 2439.15 726.71 2184.71 857.40 2138.79 1061.00 2394.43 1063.72
00004884 00000107 2040.29 290.04 695.65 1018.64 2153.03 724.76 2435.51 726.52 2186.11 857.08 2136.23 1060.08 2389.07 1063.49
00004885 00000108 2037.17 286.05 695.69 1016.19 2149.18 725.43 2430.62 726.71 2183.17 858.33 2134.10 1060.62 2385.21 1063.90
00004886 00000109 2037.06 292.10 696.36 1019.74 2148.39 733.97 2427.59 734.86 2179.01 862.87 2134.06 1067.56 2382.62 1070.27
00004887 00000110 2035.86 311.84 697.92 1006.95 2143.83 742.48 2431.44 742.61 2183.78 864.40 2131.88 1074.74 2385.79 1076.61
00004888 00000111 2036.82 321.20 694.60 1016.28 2143.34 746.97 2430.07 745.53 2178.66 867.47 2133.51 1080.72 2387.36 1080.51
00004889 00000112 2035.90 325.00 693.43 1034.84 2143.83 749.33 2432.74 745.47 2176.32 869.15 2132.91 1091.94 2389.53 1089.17
00004890 00000113 2037.14 322.73 693.36 1032.18 2146.02 751.28 2434.16 751.82 2176.10 873.86 2129.59 1090.53 2385.66 1091.95
00004891 00000114 2036.27 319.02 694.90 1030.21 2147.96 750.91 2434.49 754.30 2176.27 876.14 2129.56 1085.80 2385.83 1089.36
00004892 00000115 2037.57 317.28 695.85 1024.07 2149.04 752.49 2435.51 755.26 2178.65 876.71 2131.90 1085.78 2387.37 1088.85
00004893 00000116 2038.17 316.48 692.91 1011.40 2150.65 751.98 2436.09 757.30 2183.98 877.00 2132.04 1081.98 2383.47 1087.97
00004894 00000117 2036.88 316.25 695.10 1010.81 2150.62 751.79 2436.59 757.68 2186.90 877.71 2133.44 1081.54 2383.92 1088.08
00004895 00000118 2036.64 318.99 696.08 1010.22 2149.92 751.11 2438.73 758.47 2187.22 878.40 2131.18 1080.34 2387.67 1087.89
00004896 00000119 2036.57 314.05 696.48 1014.33 2151.45 749.49 2440.84 756.90 2189.51 879.60 2132.81 1078.14 2394.05 1085.30
00004897 00000120 2036.98 312.41 696.04 1012.79 2151.60 749.07 2442.19 756.51 2192.38 879.99 2133.41 1077.47 2396.00 1084.72
00004898 00000121 2037.00 314.14 697.05 1007.12 2151.97 748.09 2444.36 756.56 2195.63 880.23 2132.95 1074.63 2399.92 1082.78
00004899 00000122 2035.00 316.57 699.92 1006.23 2152.21 749.26 2446.26 758.14 2199.18 881.04 2132.41 1073.54 2401.44 1081.90
00004900 00000123 2035.39 316.59 698.57 1009.96 2154.11 749.31 2447.92 759.13 2200.75 881.54 2133.84 1073.72 2401.65 1082.68
00004901 00000124 2036.15 316.98 696.55 1014.69 2157.06 747.82 2449.39 758.74 2202.86 880.98 2136.40 1073.82 2402.07 1083.59
00004902 00000125 2034.73 317.28 697.77 1022.90 2157.86 748.18 2451.20 757.27 2205.26 880.84 2139.55 1077.29 2406.15 1085.19
00004903 00000126 2033.28 312.89 698.27 1029.86 2156.97 748.05 2450.55 756.46 2204.82 881.66 2140.21 1077.48 2406.83 1084.65
00004904 00000127 2032.79 309.87 697.20 1032.13 2156.05 747.54 2448.51 755.24 2203.02 881.07 2139.71 1076.82 2405.75 1083.50
00004905 00000128 2033.05 310.65 696.76 1029.35 2153.21 747.43 2446.77 754.61 2199.34 880.98 2137.14 1076.42 2405.72 1082.51
00004906 00000129 2031.68 309.75 696.80 1026.23 2151.22 747.80 2445.01 755.07 2197.54 881.45 2134.33 1075.93 2402.51 1082.49
00004907 00000130 2029.99 309.20 697.84 1027.79 2149.78 747.58 2443.61 755.07 2196.22 881.05 2132.50 1075.77 2399.80 1082.67
00004908 00000131 2028.47 308.53 698.31 1024.93 2148.56 747.24 2442.11 754.80 2196.25 880.45 2131.68 1075.13 2397.49 1082.41
00004909 00000132 2027.64 306.78 698.63 1022.08 2147.33 746.91 2440.48 754.51 2195.56 880.61 2130.62 1074.51 2395.59 1082.04
00004910 00000133 2025.09 304.60 701.24 1025.73 2145.23 747.16 2440.07 754.28 2195.06 881.25 2130.12 1075.14 2395.46 1082.04
00004911 00000134 2024.88 304.64 700.47 1025.33 2143.74 748.10 2439.03 755.03 2194.92 882.84 2130.03 1076.24 2395.71 1083.04
00004912 00000135 2024.75 307.48 700.07 1020.68 2141.21 749.79 2437.60 755.82 2193.98 883.82 2128.36 1078.15 2395.29 1084.40
00004913 00000136 2023.14 307.08 700.22 1021.99 2139.50 750.55 2437.53 756.31 2194.58 885.75 2127.54 1080.03 2394.85 1086.18
00004914 00000137 2021.37 305.89 702.04 1022.52 2138.43 750.91 2437.52 757.00 2195.70 887.67 2127.79 1080.45 2395.00 1086.88
00004915 00000138 2020.78 306.83 702.26 1020.96 2137.38 751.17 2437.00 756.88 2195.61 887.64 2127.43 1080.82 2394.10 1087.11
00004916 00000139 2019.72 306.30 703.69 1021.39 2136.75 751.18 2436.68 756.60 2195.10 887.22 2126.68 1081.23 2393.14 1087.48
00004917 00000140 2018.82 305.94 703.60 1020.51 2136.32 750.33 2435.50 755.87 2195.33 886.98 2126.91 1080.58 2392.40 1086.92
00004918 00000141 2018.16 304.16 703.22 1022.72 2136.04 749.95 2434.82 755.79 2194.11 886.13 2126.39 1080.80 2389.70 1087.50
00004919 00000142 2016.85 302.48 704.25 1027.58 2136.50 749.35 2434.96 755.20 2193.75 884.86 2125.74 1081.93 2386.92 1088.75
00004920 00000143 2015.01 301.15 707.83 1032.78 2136.37 749.77 2434.99 754.87 2193.13 884.85 2126.40 1082.71 2386.29 1088.69
00004921 00000144 2014.81 300.70 709.34 1034.33 2135.23 749.23 2435.57 754.44 2192.70 885.56 2125.79 1083.35 2388.45 1089.28
00004922 00000145 2014.23 298.28 709.89 1035.49 2133.53 748.97 2435.88 754.31 2192.57 888.37 2125.79 1084.78 2390.87 1090.56
00004923 00000146 2014.95 298.40 709.43 1028.33 2133.34 748.41 2436.11 754.51 2194.32 888.66 2126.23 1081.99 2390.60 1088.48
00004924 00000147 2013.57 296.79 711.11 1031.79 2132.29 749.03 2437.30 754.25 2193.39 888.37 2125.15 1081.41 2392.70 1086.89
00004925 00000148 2013.87 296.41 714.34 1032.25 2133.19 751.13 2438.17 755.95 2193.64 887.94 2126.13 1081.42 2393.83 1086.59
00004926 00000149 2013.66 296.76 718.17 1032.57 2132.60 752.16 2438.87 757.01 2193.65 888.70 2125.58 1081.77 2393.91 1087.09
00004927 00000150 2014.65 294.98 719.01 1033.37 2133.12 752.49 2439.86 756.77 2193.49 888.85 2126.11 1081.86 2395.24 1086.66
00004928 00000151 2014.68 293.76 718.56 1037.15 2132.75 752.12 2440.73 756.33 2193.93 890.52 2125.71 1082.29 2397.94 1086.86
00004929 00000152 2015.35 293.28 717.29 1030.41 2132.54 752.33 2442.87 756.53 2196.92 891.15 2125.95 1081.78 2400.23 1086.63
00004930 00000153 2016.63 296.76 718.24 1026.01 2133.63 751.82 2445.88 756.64 2198.68 891.42 2126.07 1080.73 2404.07 1085.88
00004931 00000154 2017.88 293.91 720.43 1028.14 2134.71 751.04 2449.07 755.90 2200.15 892.16 2126.95 1080.03 2407.77 1085.28
00004932 00000155 2021.43 294.86 717.97 1022.40 2137.89 749.74 2453.12 756.01 2204.93 892.08 2128.16 1077.17 2410.47 1083.75
00004933 00000156 2025.64 290.73 715.24 1012.29 2141.02 746.37 2455.45 753.63 2208.82 890.45 2130.02 1071.34 2412.91 1078.64
00004934 00000157 2027.67 288.27 717.92 1011.13 2144.16 743.32 2457.92 751.94 2208.65 887.93 2129.72 1065.12 2413.77 1073.33
00004935 00000158 2023.67 288.84 720.26 1010.52 2138.87 745.30 2452.16 751.39 2201.86 886.45 2127.50 1065.65 2411.47 1071.83
