Video ID: 	y2y6CXhvB58
H: 	1080
W: 	1920
FPS: 	25.0

FRAME INDEX X0 Y0 W H [Landmarks (5 Points)]

00000090 00000000 545.77 231.91 359.40 507.97 691.40 441.84 847.40 431.51 815.08 527.21 708.46 611.76 854.74 604.04
00000091 00000001 538.84 227.90 366.35 514.02 683.19 445.44 852.09 427.77 817.38 526.98 713.43 616.37 860.11 602.68
00000092 00000002 539.38 226.67 364.76 514.93 683.30 442.31 852.06 427.25 816.50 524.61 714.68 616.79 858.32 605.23
00000093 00000003 543.04 227.33 360.42 520.43 692.51 439.22 849.11 431.06 816.38 524.57 713.07 615.83 851.41 609.88
00000094 00000004 538.09 223.22 364.65 517.34 682.91 438.75 850.98 425.85 815.22 523.22 715.79 616.46 855.27 606.80
00000095 00000005 537.72 221.12 364.11 512.12 682.11 436.19 851.05 424.23 813.14 520.25 715.09 612.57 854.38 603.56
00000096 00000006 537.10 217.36 366.73 514.99 681.49 429.18 854.12 414.75 817.16 518.46 710.74 614.25 852.55 603.04
00000097 00000007 537.15 213.15 366.09 520.19 682.71 421.79 854.38 410.31 818.39 513.84 707.78 607.94 851.98 599.56
00000098 DELETE   537.94 207.65 365.36 521.68 686.35 408.77 857.29 400.19 822.83 502.25 710.16 599.94 854.37 593.96
00000099 00000009 539.68 196.04 362.36 525.90 688.73 399.36 860.39 390.68 827.74 490.13 713.21 591.98 858.74 586.49
00000100 00000010 538.25 186.26 362.50 527.95 691.34 393.04 862.20 386.27 832.46 485.65 713.08 584.04 859.25 580.69
00000101 00000011 535.45 184.26 362.39 526.37 690.77 389.81 858.20 383.85 832.78 478.19 709.31 576.43 855.71 574.03
00000102 00000012 530.51 181.03 364.23 525.75 690.39 386.12 853.86 380.98 833.16 468.93 708.18 571.30 852.13 569.54
00000103 00000013 525.06 176.44 363.62 525.92 686.69 377.79 847.47 375.75 832.19 458.01 709.24 566.27 846.85 566.25
00000104 00000014 517.88 170.91 368.53 529.25 681.09 370.36 840.48 373.92 825.67 449.21 709.27 562.94 839.19 566.56
00000105 00000015 510.34 166.15 371.48 532.37 675.01 365.90 834.83 372.29 823.07 441.11 707.01 558.27 836.07 563.84
00000106 00000016 505.37 164.68 370.90 530.22 672.91 364.85 828.58 371.76 816.27 440.09 706.38 555.97 829.87 561.89
00000107 00000017 496.72 166.59 374.23 525.58 667.60 362.80 821.72 370.07 810.97 437.94 702.53 553.85 825.00 560.15
00000108 00000018 488.90 163.69 374.74 526.69 661.73 360.34 815.49 369.57 806.37 437.50 697.24 548.97 819.98 556.92
00000109 00000019 479.30 161.41 376.96 525.08 655.03 358.52 808.23 366.62 799.78 438.97 691.37 545.67 814.26 552.45
00000110 00000020 471.83 159.21 378.82 525.91 647.02 360.59 800.84 365.87 793.13 440.44 685.00 544.71 811.07 549.34
00000111 00000021 461.29 158.88 382.32 528.32 647.91 361.82 806.45 364.70 795.12 448.38 677.87 553.59 811.86 556.96
00000112 00000022 453.13 156.43 385.06 531.53 636.03 358.43 789.29 364.30 782.76 440.34 675.89 545.85 802.12 550.40
00000113 00000023 455.01 151.34 374.79 541.72 632.87 361.41 791.32 361.65 785.26 438.16 661.98 557.59 793.67 558.98
00000114 00000024 447.18 150.65 379.08 542.01 626.63 360.91 786.98 360.45 781.26 436.83 658.41 558.14 790.13 558.70
00000115 00000025 442.01 151.58 378.08 535.99 619.59 363.77 786.75 365.21 778.42 437.60 650.73 556.39 788.98 558.49
00000116 00000026 436.80 150.55 378.99 530.04 612.66 364.97 782.64 365.16 771.86 440.43 646.75 555.29 786.25 556.21
00000117 00000027 433.49 150.88 380.69 532.19 607.89 366.36 778.55 365.30 767.32 444.12 641.66 556.27 782.18 556.17
00000118 00000028 431.48 153.74 380.91 535.23 600.12 365.74 771.65 362.78 760.06 444.38 633.31 560.13 774.95 558.69
00000119 00000029 428.91 155.75 382.94 537.45 597.34 365.72 765.71 362.54 753.74 442.16 628.75 560.46 768.24 558.90
00000120 00000030 426.80 155.18 384.99 537.93 594.52 364.40 763.23 359.19 749.15 440.61 630.02 561.04 767.96 557.24
00000121 00000031 425.36 155.90 386.52 530.64 592.46 364.64 761.03 356.27 744.97 438.57 633.95 560.42 768.45 553.58
00000122 00000032 422.27 155.61 388.79 529.97 590.64 366.72 757.42 357.75 744.25 439.79 631.14 556.47 768.83 549.26
00000123 00000033 419.56 154.57 390.87 530.81 590.46 367.09 755.73 360.42 743.26 439.51 630.77 554.23 767.84 548.93
00000124 00000034 419.48 155.01 390.80 529.00 589.53 367.36 753.74 359.48 741.31 439.16 630.15 553.79 766.60 547.52
00000125 00000035 419.72 153.28 390.56 531.54 588.57 366.65 752.97 355.82 742.44 438.75 630.90 554.38 767.63 545.66
00000126 00000036 422.47 153.26 388.39 531.78 587.87 367.66 753.85 354.63 742.05 440.79 630.09 556.61 768.49 546.10
00000127 00000037 423.08 155.02 389.20 529.00 588.55 369.88 755.81 353.70 743.25 444.07 629.84 557.27 770.20 544.50
00000128 00000038 424.85 154.66 388.30 527.44 590.11 371.99 758.87 353.63 747.30 446.65 628.98 557.41 772.67 543.28
00000129 00000039 426.71 157.56 385.75 530.01 591.64 375.70 758.25 355.61 750.62 448.93 626.62 560.12 770.30 545.13
00000130 00000040 429.06 160.29 384.58 535.11 591.58 381.41 756.53 357.43 751.57 451.39 625.16 565.28 769.86 547.21
00000131 00000041 431.38 163.36 384.62 532.02 592.84 385.67 756.60 357.62 752.99 453.18 627.41 566.75 773.41 545.55
00000132 00000042 432.13 164.78 384.54 527.31 594.15 388.23 759.59 358.12 754.77 454.38 629.27 566.82 777.21 544.08
00000133 00000043 435.66 163.04 383.24 523.69 598.03 388.68 764.47 358.48 757.86 454.87 633.20 564.93 781.92 542.13
00000134 00000044 435.92 162.95 386.24 523.50 598.75 387.01 766.83 356.23 758.39 452.71 634.64 564.11 784.02 540.50
00000135 00000045 439.59 162.26 384.04 522.88 601.53 387.08 769.40 358.18 759.65 452.73 636.82 563.98 785.85 541.94
00000136 00000046 446.26 166.00 381.10 523.15 605.53 386.26 773.75 359.29 763.18 453.52 639.45 565.57 789.42 545.28
00000137 00000047 451.45 167.54 379.68 527.66 609.25 387.35 776.97 363.80 764.80 453.17 642.00 566.95 792.27 549.43
00000138 00000048 455.58 170.24 377.90 529.10 614.92 388.65 782.99 368.35 767.18 459.42 644.78 570.32 794.54 555.54
00000139 00000049 461.36 168.92 374.67 523.36 615.75 386.04 792.87 373.35 766.70 460.33 647.50 572.48 798.94 563.38
00000140 00000050 461.20 174.56 375.65 515.07 620.84 381.90 787.71 377.89 764.66 461.61 657.64 566.20 799.58 563.67
00000141 00000051 466.86 173.86 372.58 512.53 632.51 374.95 795.07 378.36 775.86 458.69 665.57 558.54 801.57 562.32
00000142 00000052 476.80 175.90 369.61 505.21 645.96 371.35 805.49 378.90 792.65 455.30 677.63 552.80 811.66 560.01
00000143 00000053 488.32 173.71 364.72 502.84 660.11 367.28 817.26 382.30 805.93 452.16 688.37 549.34 817.56 562.71
00000144 00000054 495.22 174.64 366.28 496.52 674.69 364.77 830.94 391.72 817.25 448.02 694.21 543.15 822.69 566.43
00000145 00000055 500.86 175.48 365.85 510.57 680.11 360.61 839.69 394.74 824.37 439.53 697.82 546.35 824.86 574.86
00000146 00000056 508.16 172.22 361.88 515.26 686.98 353.66 846.24 392.07 834.32 435.49 703.32 546.68 827.26 578.85
00000147 00000057 514.09 171.32 359.17 499.23 697.18 350.05 856.93 394.22 843.29 433.30 706.79 534.98 834.85 572.95
00000148 00000058 515.21 170.19 361.47 499.58 702.06 350.09 860.70 392.07 847.00 434.35 709.57 531.19 838.90 567.84
00000149 00000059 517.35 172.11 361.96 497.15 704.90 350.74 863.26 392.15 849.30 434.28 711.84 530.38 841.35 566.85
00000150 00000060 522.79 175.15 358.00 498.63 706.74 348.68 865.32 392.83 849.50 435.86 709.70 530.81 840.48 569.78
00000151 00000061 524.77 177.82 357.14 504.33 710.70 348.50 864.95 396.08 851.55 434.76 713.78 534.61 838.18 575.82
00000152 00000062 524.00 175.16 357.13 508.46 710.08 349.91 864.20 394.94 850.80 435.42 716.25 537.93 838.49 576.74
00000153 00000063 519.75 174.50 359.39 508.77 706.93 353.46 861.24 393.05 847.62 437.94 718.17 541.93 838.01 575.81
00000154 00000064 515.99 173.94 362.69 509.74 701.35 358.75 858.18 391.42 842.41 442.69 719.21 548.36 838.46 576.07
00000155 00000065 514.04 174.83 364.29 509.51 698.22 361.79 856.94 390.42 839.03 445.97 718.08 551.68 838.63 575.88
00000156 00000066 513.23 174.26 365.78 512.12 697.10 364.05 857.47 391.23 838.66 449.86 717.45 555.06 838.41 577.96
00000157 00000067 513.37 176.42 364.86 515.66 694.45 370.55 855.05 393.64 836.29 454.88 715.02 559.58 837.78 579.25
00000158 00000068 512.93 179.29 364.17 516.95 693.06 376.14 852.29 397.28 832.05 460.55 711.91 562.85 835.04 580.96
00000159 00000069 510.26 179.68 366.45 519.19 688.99 377.91 850.13 396.50 829.82 462.49 710.82 566.57 834.75 582.36
00000160 00000070 508.41 178.84 367.00 520.10 685.98 379.09 846.54 394.55 826.55 463.62 710.21 568.60 832.77 581.82
00000161 00000071 505.24 178.95 369.02 520.90 683.04 379.42 842.03 393.55 823.32 463.53 708.91 568.52 830.07 580.49
00000162 00000072 502.30 178.77 370.12 520.26 678.33 378.51 838.88 391.92 819.40 461.59 706.20 568.20 828.35 579.44
00000163 00000073 500.75 177.47 368.88 520.85 676.26 378.61 835.06 390.47 817.12 460.72 704.44 566.51 826.42 576.66
00000164 00000074 495.46 177.98 369.15 518.56 670.85 377.69 828.32 388.79 811.26 459.94 700.88 565.59 821.51 575.07
00000165 00000075 492.00 176.65 368.77 520.19 664.00 378.37 821.77 386.14 804.95 459.92 696.44 565.43 818.31 572.30
00000166 00000076 486.35 175.99 371.02 520.57 658.44 378.81 817.26 386.03 800.05 460.07 694.31 565.33 816.81 571.44
00000167 00000077 482.14 176.27 370.94 522.99 654.25 379.88 813.24 386.60 797.25 461.79 690.65 566.63 813.65 572.48
00000168 00000078 478.13 177.71 371.33 520.90 649.91 382.26 809.29 387.13 793.12 463.30 688.46 568.01 811.98 572.31
00000169 00000079 475.54 177.67 370.82 521.08 644.91 384.44 804.27 387.72 789.15 464.92 683.01 568.70 808.93 572.07
00000170 00000080 470.38 180.09 373.90 524.61 639.62 389.57 800.97 394.63 783.73 465.78 677.09 572.54 805.67 577.18
00000171 00000081 465.59 179.38 375.63 528.68 635.54 394.39 798.03 398.39 780.60 468.92 674.32 575.34 805.21 579.23
00000172 DELETE   460.42 178.22 379.98 529.77 631.44 398.82 796.08 398.05 777.10 471.66 672.93 578.16 805.38 578.10
00000173 00000083 458.22 178.55 381.63 531.07 626.67 401.59 789.84 395.99 770.99 472.55 671.37 580.05 803.11 576.21
00000174 00000084 455.70 179.97 379.52 532.54 621.32 405.06 784.62 395.17 764.13 474.17 667.45 581.04 799.75 574.39
00000175 00000085 454.90 182.43 376.12 531.25 618.20 406.02 780.91 397.05 758.52 475.10 663.43 582.90 794.52 577.24
00000176 DELETE   460.00 176.64 369.61 530.80 620.81 406.95 793.43 396.03 764.92 481.00 653.91 593.28 794.25 584.87
00000177 DELETE   457.46 180.12 371.67 528.18 613.72 412.10 791.17 398.20 759.05 486.26 644.41 596.58 791.42 585.79
00000178 00000088 453.75 183.95 374.78 526.17 608.74 418.37 787.33 398.44 755.54 491.63 639.17 598.63 789.17 583.13
00000179 00000089 450.76 188.28 376.21 524.84 604.90 422.03 783.79 399.94 750.46 495.04 635.70 600.56 786.23 583.10
00000180 00000090 449.46 189.83 377.54 524.93 602.58 423.62 780.73 401.37 746.24 496.57 635.13 601.47 784.42 583.49
00000181 00000091 448.37 189.93 377.76 526.22 600.29 424.01 777.87 402.08 742.26 498.78 635.14 602.57 783.05 584.51
00000182 00000092 447.54 188.96 378.07 527.77 598.16 423.60 773.13 399.47 739.59 498.52 637.64 604.16 781.11 583.93
00000183 00000093 445.90 186.01 379.90 531.28 595.94 425.74 767.70 396.38 737.26 498.30 639.22 605.10 780.54 580.56
00000184 00000094 445.28 184.86 381.09 533.21 594.46 426.01 766.48 393.38 737.79 500.75 638.26 606.97 780.78 580.02
00000185 00000095 445.18 184.83 381.99 534.90 594.14 427.63 766.25 391.69 738.52 503.78 638.67 607.81 782.58 578.38
00000186 00000096 446.85 186.29 382.24 533.12 591.47 431.01 768.73 396.97 734.52 507.14 637.33 611.56 784.05 583.11
00000187 00000097 446.13 189.11 382.82 535.42 591.00 433.45 769.20 400.23 734.58 514.67 633.30 612.67 782.67 585.46
00000188 00000098 446.40 193.88 381.17 531.77 589.47 435.01 768.20 404.02 730.83 519.02 627.93 612.59 779.22 587.55
00000189 DELETE   445.08 195.81 380.94 528.97 587.25 434.98 768.09 404.87 728.39 521.39 623.81 612.60 777.30 588.40
00000190 00000100 443.94 195.60 380.89 530.51 586.44 434.28 766.51 406.44 726.97 517.82 622.22 611.69 776.64 589.29
00000191 00000101 444.33 194.99 379.01 532.38 586.20 434.40 765.22 406.72 727.30 514.81 625.54 613.51 777.97 590.81
00000192 00000102 444.16 196.37 379.24 535.00 586.24 435.93 764.82 409.03 727.72 515.25 625.25 614.24 778.49 592.22
00000193 00000103 444.47 197.89 380.48 534.98 588.20 438.19 766.42 409.24 729.50 519.47 625.93 615.25 779.13 591.71
00000194 00000104 445.54 198.20 380.35 533.99 589.98 438.38 769.11 408.35 732.15 521.47 631.44 619.08 780.04 594.33
00000195 00000105 444.87 197.93 380.25 532.63 590.52 438.84 768.87 409.20 731.66 521.09 634.88 620.96 779.06 596.27
00000196 00000106 444.97 197.82 380.70 534.53 590.62 438.74 769.91 408.52 733.19 523.06 634.78 621.71 779.99 596.57
00000197 00000107 445.96 198.93 379.49 533.26 591.10 438.64 769.92 408.61 732.95 523.36 634.90 621.28 779.88 596.28
00000198 00000108 444.54 198.34 380.35 533.82 590.44 438.55 768.95 409.26 732.36 523.37 633.63 621.39 778.20 596.98
00000199 00000109 444.35 198.30 379.38 532.61 589.89 438.66 769.33 408.78 733.42 524.03 630.06 620.16 778.09 595.51
00000200 00000110 442.95 198.32 380.20 533.59 588.58 438.43 767.89 409.60 731.63 524.07 626.38 618.11 777.19 594.51
00000201 00000111 442.06 198.30 378.70 531.25 586.74 437.22 765.16 408.94 728.80 524.40 624.31 617.13 773.90 594.00
00000202 00000112 441.67 198.90 377.73 532.67 585.49 436.71 763.25 408.42 728.34 525.76 622.30 617.26 772.67 594.27
00000203 00000113 440.55 198.02 377.15 532.81 583.75 435.78 762.12 408.95 726.39 524.31 621.95 617.80 771.69 595.82
00000204 00000114 438.88 197.19 377.97 533.12 582.51 435.05 761.64 409.57 724.15 523.92 621.15 618.18 769.66 597.19
00000205 00000115 438.60 196.44 377.54 532.18 581.63 434.73 760.78 409.48 723.07 524.24 619.83 617.93 768.40 597.17
00000206 00000116 438.05 197.27 378.21 531.03 581.54 434.53 759.36 409.70 721.68 523.26 618.75 615.28 768.59 594.98
00000207 00000117 437.76 197.19 377.52 533.73 580.20 434.23 756.97 409.56 719.51 523.50 616.21 615.06 767.26 595.01
00000208 00000118 436.53 196.83 377.93 534.73 579.13 432.43 755.84 408.16 718.81 521.31 616.46 615.24 766.47 595.34
00000209 00000119 437.32 199.23 375.92 539.20 579.21 434.12 752.24 408.63 719.35 522.32 615.29 616.07 766.05 595.29
00000210 00000120 437.86 200.36 374.65 545.72 578.29 434.69 750.58 409.49 718.34 521.67 610.46 615.45 765.32 595.04
00000211 00000121 438.47 200.40 373.98 542.64 577.64 433.56 751.14 410.56 717.31 519.31 607.29 611.40 766.17 592.90
00000212 00000122 437.80 200.72 375.25 533.35 576.17 432.72 751.08 410.19 715.15 516.39 606.29 606.47 767.12 588.45
00000213 00000123 438.81 202.09 375.40 529.48 575.21 431.42 750.52 409.31 713.08 515.02 605.09 603.79 767.22 586.19
00000214 00000124 438.35 201.33 376.23 529.57 574.64 430.44 750.88 409.15 712.37 514.47 604.72 603.32 767.58 586.42
00000215 00000125 438.56 200.39 376.05 531.98 574.48 428.94 750.43 408.21 712.07 512.67 607.32 604.34 767.56 587.64
00000216 00000126 439.31 199.13 375.26 532.06 575.17 425.96 751.55 405.45 713.08 511.39 610.76 605.00 768.42 588.25
00000217 00000127 439.71 197.99 376.05 531.46 575.51 423.77 752.67 402.84 713.95 510.27 612.32 604.02 769.22 586.78
00000218 00000128 439.59 196.91 376.62 531.60 575.09 421.61 752.79 401.49 713.66 507.77 612.45 602.72 768.85 586.21
00000219 00000129 439.81 194.91 377.01 529.26 575.49 421.49 753.29 400.43 713.92 506.90 612.18 600.53 768.82 583.40
00000220 00000130 440.06 196.18 377.03 530.52 575.95 421.67 752.81 401.10 714.37 507.02 610.88 600.07 768.64 583.51
00000221 00000131 439.98 196.12 376.93 527.66 575.71 421.45 753.69 401.10 714.20 506.66 609.60 599.26 768.21 582.97
00000222 00000132 440.07 196.72 376.65 528.40 574.17 420.77 752.94 400.90 712.68 506.65 606.44 598.44 767.93 582.68
00000223 00000133 438.64 195.79 377.22 529.47 573.03 419.45 751.62 400.75 711.03 504.49 605.22 597.19 766.34 582.32
00000224 00000134 436.53 194.74 378.00 531.65 572.38 418.74 750.50 400.11 710.83 503.99 604.20 597.09 765.27 582.33
00000225 00000135 436.22 194.77 377.36 527.45 571.80 417.67 749.57 399.48 709.67 502.27 604.92 596.43 763.73 581.91
00000226 00000136 436.50 193.60 377.55 528.68 571.49 415.81 749.27 398.29 709.30 499.56 605.82 596.20 763.60 582.04
00000227 00000137 436.09 191.05 378.53 531.30 571.28 414.15 748.99 397.27 709.66 497.03 608.48 597.65 763.53 583.62
00000228 00000138 436.44 188.80 377.87 536.20 571.64 411.69 749.36 395.59 711.33 493.77 612.67 599.90 764.62 586.13
00000229 00000139 436.63 186.01 377.29 529.34 571.34 409.90 756.23 395.78 714.77 494.19 615.63 601.17 769.15 588.74
00000230 00000140 437.67 183.97 377.80 530.27 573.30 409.65 756.00 393.32 716.71 491.46 619.03 598.72 771.36 584.42
00000231 00000141 437.72 178.89 379.25 531.32 578.06 407.15 758.84 389.82 721.82 487.84 623.27 595.41 772.76 580.40
00000232 00000142 437.86 175.95 381.34 532.99 583.52 405.68 758.88 384.57 728.01 483.12 628.62 591.75 773.05 573.93
00000233 00000143 442.47 173.10 379.23 535.14 590.59 397.84 765.64 378.97 735.77 476.03 631.96 586.87 776.91 571.08
00000234 00000144 444.22 167.95 380.95 533.27 594.47 393.11 772.86 370.31 745.55 470.73 639.67 585.43 786.41 566.26
00000235 00000145 447.51 164.46 379.71 533.98 601.10 389.85 779.43 367.49 754.92 464.66 645.57 583.06 792.34 564.45
00000236 00000146 449.93 164.46 379.63 538.39 607.09 387.05 775.36 364.01 758.35 459.77 650.15 579.84 790.55 561.18
00000237 00000147 452.40 166.18 379.31 540.60 610.46 384.14 775.67 365.70 759.68 454.75 654.46 578.07 791.53 563.14
00000238 00000148 456.28 163.34 375.96 535.84 613.39 384.32 781.42 364.19 764.60 457.20 655.85 575.23 796.75 559.11
00000239 00000149 455.97 161.79 377.70 531.58 618.62 384.74 788.65 363.10 771.20 461.45 657.90 573.51 800.82 556.29
00000240 00000150 455.11 159.08 380.41 533.10 620.95 383.17 790.15 361.07 774.81 460.75 662.41 573.97 802.80 556.28
00000241 00000151 454.06 157.06 382.24 538.55 621.47 380.25 791.79 362.08 778.38 458.39 664.84 575.40 804.52 560.58
00000242 00000152 451.96 154.20 385.63 541.72 622.32 379.21 792.71 360.87 782.12 456.65 668.34 575.35 807.19 560.41
00000243 00000153 445.98 158.64 397.34 544.43 620.45 376.96 785.24 367.67 772.42 457.52 672.94 568.98 806.44 561.25
00000244 00000154 447.35 163.77 396.98 545.20 621.70 379.12 785.98 372.71 773.11 457.42 673.75 568.79 808.50 563.49
00000245 00000155 448.10 169.07 393.91 545.12 624.08 382.27 787.93 380.54 773.25 461.88 671.64 570.84 807.50 569.47
00000246 00000156 450.69 171.96 388.30 553.19 632.51 387.24 800.86 384.39 786.56 469.87 665.59 586.67 804.14 584.64
00000247 00000157 444.78 175.00 390.67 557.91 632.17 388.92 798.16 390.03 784.93 474.48 663.37 591.24 799.93 592.37
00000248 00000158 435.86 174.71 391.18 563.44 627.53 389.58 796.01 395.81 782.39 479.09 658.26 595.94 793.87 600.90
00000249 00000159 423.86 172.53 394.55 569.15 619.21 391.05 788.71 399.01 777.66 479.13 651.36 596.13 787.52 602.33
00000250 00000160 409.99 174.43 400.10 567.79 605.65 389.25 778.10 397.72 767.05 476.88 642.96 594.74 779.08 601.12
00000251 00000161 396.21 175.79 405.11 566.88 588.96 390.27 759.45 399.16 743.18 477.53 626.43 593.90 760.79 600.66
00000252 00000162 383.45 175.04 403.75 573.05 575.97 385.44 741.34 401.37 726.95 479.20 609.60 592.20 739.55 605.02
00000253 00000163 364.69 173.35 409.11 576.72 566.46 380.75 731.94 402.35 717.93 479.30 592.27 586.15 726.11 603.69
00000254 00000164 356.94 166.30 408.38 590.88 564.24 387.05 729.89 399.09 723.32 476.87 575.16 592.49 719.75 603.74
00000255 00000165 345.85 163.70 409.17 590.59 550.67 386.24 719.98 395.19 712.30 475.09 565.44 591.87 712.44 600.24
00000256 00000166 336.78 161.72 411.67 588.25 538.17 384.00 713.97 388.42 704.30 472.19 556.98 589.33 710.07 593.94
00000257 00000167 332.19 160.02 414.56 583.33 531.41 378.94 709.51 382.42 698.52 464.91 551.96 582.78 709.63 586.85
00000258 00000168 329.97 155.64 416.88 579.00 527.40 374.65 705.93 374.53 696.94 457.97 546.54 576.43 706.88 578.03
00000259 00000169 330.17 152.02 418.28 575.28 524.04 366.89 704.67 366.40 694.60 449.10 547.73 571.58 707.65 572.58
00000260 00000170 335.26 146.33 417.52 576.89 526.47 363.62 708.08 361.42 695.97 445.90 551.78 569.88 711.93 569.23
