Video ID: 	q4J166OiTH8
H: 	1080
W: 	1920
FPS: 	23.97607721472109

FRAME INDEX X0 Y0 W H [Landmarks (5 Points)]

00000960 00000000 644.27 180.34 485.73 684.20 871.96 437.66 1064.11 468.89 1012.12 563.38 872.48 675.05 1029.84 699.25
00000961 00000001 648.98 164.59 484.59 674.01 872.81 426.09 1070.78 459.66 1015.93 545.21 876.53 657.66 1037.01 684.58
00000962 00000002 644.85 181.97 489.22 667.08 875.62 417.47 1074.12 449.81 1019.94 543.43 882.43 660.30 1041.09 685.20
00000963 00000003 649.45 173.27 492.58 691.53 884.40 419.93 1076.68 455.80 1023.88 547.57 884.71 667.85 1039.08 696.13
00000964 DELETE   658.68 175.99 495.24 721.39 893.71 436.04 1081.79 477.73 1022.71 570.94 878.77 683.15 1030.07 717.52
00000965 DELETE   665.03 206.66 496.03 716.57 901.62 466.33 1085.73 513.01 1021.00 616.58 870.57 713.50 1025.68 752.27
00000966 DELETE   677.64 226.63 494.33 723.92 912.62 492.83 1096.48 543.60 1028.06 644.74 875.66 738.59 1023.74 781.36
00000967 00000007 687.81 247.77 500.28 712.62 920.26 497.15 1105.70 549.52 1036.91 648.28 886.22 744.65 1036.00 789.27
00000968 00000008 685.07 237.48 501.98 708.54 926.59 483.50 1106.63 534.26 1041.29 643.80 885.93 736.24 1035.78 777.93
00000969 00000009 681.38 212.66 499.25 723.32 912.43 472.95 1096.94 518.98 1030.46 623.96 878.92 717.44 1037.64 755.78
00000970 DELETE   680.61 178.71 495.75 727.76 897.71 468.62 1094.12 506.68 1022.65 602.24 876.50 702.36 1040.02 734.08
00000971 00000011 676.38 186.07 493.37 706.65 891.77 463.21 1088.98 497.64 1018.71 598.33 871.84 691.90 1039.74 720.69
00000972 00000012 668.03 185.10 493.51 709.27 886.91 462.60 1080.54 497.39 1013.00 599.39 863.98 689.44 1031.33 718.65
00000973 00000013 664.07 184.36 493.25 708.56 882.02 463.61 1075.30 497.33 1006.63 599.56 856.76 689.99 1024.38 718.58
00000974 00000014 662.47 188.37 493.00 695.63 880.59 457.89 1073.74 492.08 1007.11 596.23 854.70 681.72 1023.84 711.04
00000975 00000015 661.21 188.53 490.25 682.99 881.81 451.28 1073.92 488.47 1011.38 589.79 854.15 670.58 1024.16 702.63
00000976 00000016 661.13 186.96 487.32 675.80 879.86 449.50 1072.94 484.68 1010.66 585.22 856.39 667.15 1025.49 697.40
00000977 00000017 660.04 188.72 485.81 684.37 880.55 448.93 1072.32 485.14 1012.20 586.46 858.44 673.99 1023.34 705.28
00000978 00000018 659.75 184.62 484.11 692.48 876.68 449.91 1070.19 483.13 1006.65 586.19 858.42 680.58 1019.12 709.30
00000979 00000019 657.74 180.46 484.65 695.24 873.14 445.97 1067.83 479.69 1001.67 581.87 857.14 678.61 1017.01 707.24
00000980 00000020 648.88 180.12 488.37 698.80 877.71 441.74 1060.53 476.40 1006.26 573.07 867.39 675.17 1024.27 702.57
00000981 00000021 651.11 182.65 487.67 699.09 885.04 431.66 1065.28 467.57 1014.99 564.26 868.91 669.37 1027.43 698.03
00000982 00000022 651.60 184.99 490.31 687.44 886.91 423.02 1070.12 461.30 1016.16 557.14 871.04 659.78 1031.42 690.56
00000983 00000023 644.96 183.69 490.81 680.28 877.52 416.92 1060.56 454.87 1006.96 550.87 863.07 652.39 1025.24 682.51
00000984 00000024 637.87 186.02 488.59 670.58 866.56 413.70 1054.01 451.14 995.65 551.52 856.55 651.08 1018.02 680.34
00000985 00000025 632.50 179.64 486.12 673.70 857.02 416.04 1046.90 454.61 985.89 549.62 845.47 647.44 1012.82 677.68
00000986 00000026 629.39 182.15 484.85 662.81 852.45 415.72 1045.87 453.81 982.59 548.55 844.66 646.94 1011.17 676.70
00000987 00000027 634.40 177.90 481.53 664.73 859.40 416.18 1051.52 454.31 990.83 549.55 853.12 645.83 1016.65 675.45
00000988 00000028 636.25 185.76 483.42 660.06 864.33 416.41 1054.57 451.07 997.22 552.60 859.62 648.00 1021.82 674.83
00000989 00000029 635.66 189.99 480.90 658.99 862.70 420.76 1052.51 456.71 995.21 556.11 858.17 652.64 1018.24 680.52
00000990 00000030 623.86 183.63 486.52 670.33 852.74 424.93 1040.67 461.29 980.62 559.52 843.72 656.80 1004.51 685.26
00000991 00000031 624.37 175.63 485.07 692.92 832.18 430.17 1032.84 464.10 963.69 560.04 820.19 663.19 992.90 692.50
00000992 00000032 616.23 182.81 487.12 682.69 837.38 428.51 1027.89 469.62 959.90 563.21 818.61 661.14 986.93 694.01
00000993 00000033 617.48 182.11 486.28 677.82 844.62 428.76 1033.49 464.91 973.99 559.81 835.00 661.85 997.87 690.33
00000994 00000034 621.12 182.33 481.66 670.70 847.14 430.84 1035.79 463.21 979.78 558.05 845.40 661.02 1005.22 686.14
00000995 00000035 622.84 184.66 479.85 670.26 829.66 435.10 1032.43 455.19 972.50 558.22 837.58 666.69 1005.85 684.51
00000996 00000036 617.75 170.68 479.15 683.51 817.66 436.87 1022.24 459.89 952.73 562.47 815.44 664.00 988.91 684.07
00000997 00000037 611.18 167.29 479.80 684.29 803.53 443.10 1013.04 463.46 937.53 567.58 797.42 665.56 977.70 683.34
00000998 00000038 611.85 164.16 480.13 691.08 806.01 446.54 1014.14 466.65 939.70 570.92 800.89 668.92 978.81 686.23
00000999 00000039 618.90 173.31 479.57 684.68 820.06 444.29 1026.36 464.43 958.03 568.55 820.22 669.83 994.69 687.41
00001000 00000040 626.57 183.75 480.48 665.98 834.75 440.50 1036.53 453.72 980.17 562.87 846.94 670.20 1013.77 682.35
00001001 00000041 628.40 182.91 476.76 654.70 838.27 435.03 1038.62 447.94 986.07 558.27 853.23 663.73 1018.52 675.68
00001002 00000042 624.98 182.74 479.14 648.33 829.21 428.13 1032.08 439.10 975.01 550.74 842.37 654.90 1015.41 665.18
00001003 00000043 620.60 180.04 480.56 654.46 820.28 428.60 1026.43 443.05 961.47 549.19 829.13 652.86 1005.39 666.22
00001004 00000044 620.49 180.33 480.63 662.76 820.66 428.86 1027.33 445.52 962.48 548.87 830.49 659.02 1004.74 674.07
00001005 00000045 619.02 189.96 483.60 659.41 839.33 421.87 1034.14 450.93 973.61 548.95 841.98 658.47 1004.35 680.71
00001006 00000046 619.83 180.86 484.08 671.77 843.85 417.72 1035.51 448.88 978.58 544.02 845.00 656.30 1006.85 680.27
00001007 00000047 618.04 175.09 485.42 671.65 839.65 414.76 1033.77 446.23 973.18 540.21 840.53 651.71 1004.30 675.85
00001008 00000048 618.26 170.45 479.99 660.93 819.22 422.50 1024.46 439.43 960.73 539.02 831.11 650.06 1005.20 664.87
00001009 00000049 617.11 167.85 477.66 658.81 815.45 425.26 1021.62 440.63 955.08 541.84 828.59 650.60 1000.85 664.01
00001010 00000050 615.21 171.45 480.07 660.46 817.89 423.99 1023.65 439.70 960.16 543.14 832.37 653.51 1003.75 667.17
00001011 00000051 616.69 172.96 477.28 661.92 822.43 422.81 1024.51 438.94 965.55 542.15 837.64 655.91 1005.24 670.03
00001012 00000052 616.03 168.40 478.10 663.10 814.15 424.73 1018.95 438.56 955.04 540.70 830.35 652.68 1001.28 664.74
00001013 00000053 609.71 171.35 482.10 658.72 806.80 425.31 1014.09 439.76 946.92 537.13 821.25 651.23 994.71 663.71
00001014 00000054 608.75 170.50 480.39 662.06 804.12 425.42 1013.14 439.55 944.83 537.78 818.28 651.86 994.70 664.04
00001015 00000055 612.87 168.82 478.60 670.88 813.62 424.86 1017.02 441.13 953.53 538.40 829.76 655.75 997.70 669.51
00001016 00000056 615.46 175.14 478.24 674.62 820.84 422.25 1019.44 440.05 959.78 538.27 833.55 659.39 998.72 674.81
00001017 00000057 614.52 179.11 483.57 673.84 829.87 416.99 1020.89 446.35 958.28 538.90 828.08 652.54 993.28 674.90
00001018 00000058 616.44 172.62 479.63 684.33 821.86 423.55 1018.77 442.27 959.16 539.20 830.31 660.99 996.49 677.37
00001019 00000059 616.41 171.64 478.23 661.04 817.09 426.73 1026.48 444.13 960.29 543.49 832.65 661.35 1000.71 676.46
00001020 00000060 617.69 180.32 477.80 636.39 817.36 428.53 1028.17 442.01 962.81 544.95 839.12 658.41 1005.08 670.70
00001021 00000061 616.15 179.67 479.70 650.76 816.94 428.24 1026.56 442.21 962.44 547.44 834.69 660.42 1004.19 672.81
00001022 00000062 613.86 181.33 482.54 663.24 818.55 430.03 1023.19 445.97 960.75 546.97 838.00 667.67 998.57 681.73
00001023 00000063 614.03 200.06 485.81 653.52 833.25 418.35 1026.85 453.73 957.21 549.91 833.11 661.07 987.52 688.77
00001024 00000064 610.05 200.47 484.45 658.31 827.51 424.77 1018.17 453.30 955.22 547.37 830.04 661.62 989.86 683.68
00001025 00000065 612.93 192.67 483.15 662.86 826.84 430.67 1019.42 457.17 954.58 549.07 831.69 664.97 990.71 685.35
00001026 00000066 612.78 193.18 480.44 663.03 812.93 435.84 1016.78 450.35 955.07 549.56 833.41 670.52 995.89 683.73
00001027 00000067 612.05 183.85 482.14 662.43 813.03 433.10 1018.56 446.40 956.48 548.91 835.15 668.84 997.04 680.86
00001028 00000068 612.58 179.56 479.61 653.44 811.78 433.22 1021.67 444.40 957.75 549.65 833.05 664.78 999.47 675.11
00001029 00000069 612.10 177.40 478.15 653.95 809.77 430.84 1020.74 443.58 954.28 547.43 829.47 663.73 996.16 675.21
00001030 00000070 609.77 172.44 479.01 668.07 809.66 427.77 1016.83 444.64 950.39 543.80 827.61 664.86 990.30 679.37
00001031 00000071 608.93 170.40 479.66 683.61 816.91 424.06 1014.17 443.49 953.33 539.71 830.88 665.02 988.01 681.44
00001032 00000072 610.66 156.17 479.43 702.91 823.74 419.91 1018.02 439.27 965.98 537.77 834.55 661.79 999.49 677.87
00001033 00000073 612.59 158.34 481.37 696.76 830.94 416.75 1021.18 435.95 975.30 529.61 844.65 655.99 1007.66 671.83
00001034 00000074 611.10 157.07 484.23 687.83 830.51 410.90 1021.86 432.98 974.28 525.16 842.74 647.96 1007.21 666.05
00001035 00000075 612.91 155.83 482.60 663.55 821.76 410.26 1023.30 429.92 967.01 522.67 844.63 642.85 1009.06 658.80
00001036 00000076 617.52 148.85 478.24 641.53 823.35 408.02 1026.63 428.19 967.86 513.82 850.57 629.09 1011.38 644.62
00001037 00000077 622.28 137.57 480.52 644.98 828.98 406.48 1030.68 410.57 985.99 494.07 868.69 622.23 1028.15 625.87
00001038 00000078 626.24 129.43 479.02 644.85 829.95 398.88 1033.76 400.62 988.18 484.10 869.60 614.04 1032.49 615.97
00001039 00000079 620.63 133.27 483.40 638.73 824.79 393.09 1027.38 396.01 983.01 474.53 867.55 608.69 1028.64 611.77
00001040 00000080 613.14 134.53 480.32 643.04 820.46 380.23 1012.96 397.10 967.88 459.05 849.89 596.43 1012.64 608.88
00001041 00000081 609.32 135.09 480.69 639.22 810.26 374.46 1009.52 394.75 959.53 452.04 837.94 591.98 1008.57 606.72
00001042 00000082 609.82 132.63 484.58 639.44 803.09 372.81 1010.02 382.79 964.51 442.51 845.68 592.58 1020.42 600.70
00001043 00000083 609.52 132.18 485.47 638.75 805.84 369.74 1012.11 379.02 969.04 437.92 849.75 588.18 1025.41 595.86
00001044 00000084 610.15 130.39 482.10 636.01 814.04 368.79 1015.34 387.01 967.89 439.19 844.07 582.47 1018.68 594.85
00001045 00000085 610.10 131.64 484.15 641.71 804.49 373.29 1009.09 384.12 965.03 443.08 848.64 594.78 1019.11 603.60
00001046 00000086 611.03 130.44 486.78 630.11 806.47 382.70 1014.21 390.41 966.93 446.48 854.88 596.10 1023.92 602.33
00001047 00000087 614.39 130.57 486.85 631.68 817.99 385.32 1021.12 395.32 979.06 454.06 867.12 600.56 1027.89 609.43
00001048 00000088 618.93 124.26 485.63 656.59 822.88 388.98 1023.70 397.51 983.54 459.15 871.15 611.24 1031.43 618.45
00001049 00000089 618.57 125.56 484.94 661.64 821.71 390.40 1023.00 397.49 982.26 461.91 866.53 612.25 1029.99 618.33
00001050 00000090 616.74 129.81 485.38 659.60 818.31 391.05 1020.61 397.10 976.67 467.20 861.63 614.54 1024.75 619.68
00001051 00000091 612.29 133.59 483.86 654.42 821.94 386.42 1019.54 408.52 972.64 470.35 851.52 607.45 1016.04 624.20
00001052 00000092 617.19 130.58 485.66 658.56 820.03 394.95 1025.58 401.22 978.07 476.67 861.25 618.23 1025.62 623.44
00001053 00000093 617.70 130.24 483.49 654.57 820.09 398.01 1027.64 402.52 978.66 482.23 860.70 619.27 1025.57 623.16
00001054 00000094 613.09 142.16 481.63 644.52 820.29 401.22 1022.67 417.12 969.81 491.74 851.33 616.40 1016.40 627.99
00001055 00000095 610.72 153.76 480.50 662.65 815.11 411.41 1009.44 422.54 957.95 505.47 852.92 639.55 1008.10 648.05
00001056 00000096 610.29 161.00 481.11 678.13 816.58 415.37 1009.15 427.59 956.98 513.48 850.63 653.14 1003.04 663.30
00001057 00000097 609.58 161.83 481.53 690.39 815.87 412.46 1009.62 425.05 962.93 513.76 841.72 653.71 1006.11 664.23
00001058 00000098 609.62 159.04 482.77 682.93 816.44 405.48 1008.99 419.93 961.50 504.26 837.71 640.66 1006.30 652.52
00001059 00000099 608.73 149.02 486.74 674.65 816.51 399.73 1011.91 417.35 960.95 495.47 835.09 627.15 1007.89 641.36
00001060 00000100 611.97 140.70 483.65 660.23 819.78 396.76 1020.37 415.27 967.33 494.47 837.35 616.63 1013.48 631.06
00001061 00000101 621.17 129.45 479.35 659.51 822.30 401.82 1028.73 406.86 980.32 490.11 849.95 617.61 1025.42 622.19
00001062 00000102 622.22 133.21 480.47 650.85 824.27 402.00 1031.59 405.55 982.59 488.81 853.24 614.63 1029.29 618.18
00001063 00000103 622.44 131.23 479.30 651.72 824.10 399.84 1030.91 403.24 981.52 487.09 851.43 611.69 1028.20 615.14
00001064 00000104 622.31 130.17 476.58 650.11 822.51 395.10 1029.08 401.05 979.02 486.14 847.98 609.72 1023.32 615.24
00001065 00000105 620.55 129.65 476.47 649.91 821.16 392.87 1026.92 398.42 977.36 484.04 845.96 607.34 1021.46 612.71
00001066 00000106 612.35 134.39 479.40 649.29 822.08 385.68 1019.25 401.39 971.19 479.16 836.07 598.06 1014.66 610.02
00001067 00000107 607.89 136.44 482.30 656.04 820.84 383.36 1012.42 400.97 967.39 476.48 829.08 597.82 1006.60 611.81
00001068 00000108 605.21 140.07 484.35 653.99 817.72 383.01 1008.38 400.35 962.61 477.28 823.21 597.57 1001.81 611.49
CROP_BBOX: 311 0 1481 1080
