Video ID: 	91roKxXmTX0
H: 	1080
W: 	1920
FPS: 	25.0

FRAME INDEX X0 Y0 W H [Landmarks (5 Points)]

00002876 00000000 813.22 275.24 368.62 521.79 870.41 508.66 1008.10 483.97 911.87 579.33 909.77 687.32 1016.38 668.91
00002877 DELETE   814.11 269.57 369.45 523.13 868.83 506.31 1010.30 481.79 909.86 574.61 906.70 684.11 1017.72 665.56
00002878 00000002 812.96 269.81 371.44 518.58 867.00 504.45 1014.83 479.42 909.99 569.34 902.30 680.13 1019.15 661.27
00002879 00000003 813.08 268.71 371.82 516.85 866.12 501.39 1015.19 475.91 908.66 566.72 900.03 677.69 1018.96 658.34
00002880 DELETE   814.01 268.13 370.01 512.78 866.91 498.95 1016.32 475.59 909.34 564.47 898.47 673.05 1018.55 655.44
00002881 00000005 814.09 269.16 368.63 509.80 866.97 497.19 1016.23 474.81 908.56 562.23 896.40 671.05 1017.07 654.43
00002882 00000006 813.52 271.77 365.65 507.16 862.70 498.47 1010.61 475.51 900.88 562.49 891.08 672.07 1011.32 655.07
00002883 00000007 822.80 271.12 354.05 511.04 866.09 509.76 1006.24 481.81 885.46 562.59 891.98 680.40 1003.32 656.99
00002884 DELETE   822.69 276.78 351.79 508.94 863.58 511.79 998.65 489.03 877.91 570.19 887.18 684.47 993.14 665.47
00002885 00000009 822.90 280.19 347.88 507.42 859.96 514.07 992.25 493.45 871.56 577.72 882.11 687.83 987.46 670.63
00002886 DELETE   809.98 275.67 354.92 521.56 843.98 510.53 983.74 497.04 866.51 585.24 869.87 692.26 985.78 680.27
00002887 DELETE   807.36 274.16 355.26 527.75 839.16 511.80 979.24 501.41 859.18 588.54 865.94 694.41 981.31 684.94
00002888 00000012 807.52 275.89 352.49 526.84 838.49 513.21 975.33 503.25 854.34 588.68 864.99 694.75 978.11 685.45
00002889 00000013 808.29 277.28 351.67 527.40 837.81 515.06 971.73 506.05 851.94 591.78 864.30 696.53 974.73 687.85
00002890 00000014 816.64 281.42 351.73 517.09 848.57 518.38 977.01 505.69 852.50 594.95 873.84 696.30 977.56 685.49
00002891 00000015 817.07 284.39 350.74 515.47 848.08 522.06 976.39 509.89 850.81 598.04 872.90 697.85 977.81 687.21
00002892 00000016 814.99 287.38 353.33 519.72 848.37 527.41 975.21 515.21 850.44 602.61 873.52 703.80 977.72 692.71
00002893 00000017 817.36 291.42 349.77 519.44 849.24 529.97 976.39 520.19 850.87 608.46 871.78 706.68 976.76 697.80
00002894 00000018 816.70 295.94 354.01 516.37 848.53 534.24 978.01 524.93 852.92 613.50 870.55 709.39 977.29 700.77
00002895 00000019 818.31 299.64 355.81 513.71 850.06 535.69 981.44 527.04 855.89 617.19 873.52 710.36 982.02 701.86
00002896 00000020 820.08 300.78 355.78 515.99 853.51 535.69 983.47 528.32 858.25 618.42 876.89 708.70 985.70 700.66
00002897 00000021 822.00 301.63 355.46 522.57 855.39 535.29 984.06 528.22 859.07 619.26 879.88 710.52 989.26 702.26
00002898 00000022 822.68 302.00 356.95 522.67 855.51 535.45 983.83 528.19 859.17 620.22 882.01 710.26 992.10 701.60
00002899 00000023 822.63 300.90 358.00 520.55 854.75 534.92 984.12 528.57 858.24 620.36 880.51 708.25 992.18 700.46
00002900 00000024 821.38 301.70 356.30 526.26 851.89 538.13 981.17 530.04 854.51 622.84 877.94 713.36 989.00 704.08
00002901 00000025 823.23 302.90 353.01 535.35 850.40 539.47 977.08 533.64 847.85 629.79 877.21 718.85 986.50 710.68
00002902 00000026 819.94 306.36 352.24 538.56 847.04 539.93 975.66 537.21 848.23 634.04 875.34 722.29 986.50 716.49
00002903 00000027 819.19 304.88 352.19 538.80 846.67 542.93 975.93 539.68 850.21 636.24 875.19 726.02 984.16 720.20
00002904 00000028 817.70 307.07 354.85 524.11 845.99 542.37 977.60 542.18 850.36 638.27 873.23 720.87 983.47 717.86
00002905 00000029 815.76 303.98 357.11 521.23 844.58 542.24 977.96 540.82 849.74 636.82 870.85 720.23 979.86 716.83
00002906 00000030 814.97 299.58 354.94 529.59 844.53 541.35 977.48 537.65 847.68 634.97 870.65 721.18 979.51 716.00
00002907 00000031 814.05 295.62 355.44 541.45 843.55 541.99 976.38 531.42 846.99 628.83 871.99 728.22 977.07 717.85
00002908 00000032 813.63 296.49 355.29 538.69 844.45 538.97 974.84 526.90 845.71 622.87 871.93 726.33 974.75 714.92
00002909 00000033 814.28 295.95 354.42 535.32 846.23 537.10 975.24 524.10 847.79 618.39 872.16 723.24 975.19 711.19
00002910 00000034 815.31 294.03 353.77 533.43 848.73 535.34 975.23 522.08 849.76 614.21 874.67 717.63 977.78 705.22
00002911 00000035 814.45 293.97 355.71 535.78 849.16 535.42 976.28 521.47 851.76 613.20 875.36 718.08 979.24 705.00
00002912 00000036 812.53 292.76 356.95 536.05 847.44 536.67 975.52 521.51 851.25 613.68 874.38 718.59 978.88 704.76
00002913 00000037 811.51 292.90 356.88 539.41 845.16 537.76 973.74 521.43 848.95 614.21 873.02 720.31 978.80 705.45
00002914 00000038 810.35 292.74 355.00 542.04 842.36 537.92 971.62 521.79 845.83 616.41 871.37 722.19 977.84 707.44
00002915 00000039 803.43 294.79 355.48 543.89 838.27 535.71 964.12 525.33 844.89 618.07 867.10 721.31 967.13 713.49
00002916 00000040 801.86 295.31 356.82 542.64 837.12 535.36 963.62 524.73 844.33 618.45 867.23 719.26 969.50 711.10
00002917 00000041 800.59 295.95 358.44 537.52 835.99 534.83 962.64 522.93 843.38 616.31 867.29 715.47 970.31 706.04
00002918 00000042 801.17 296.97 358.04 532.28 835.68 530.93 961.28 519.99 842.00 615.05 867.66 710.87 971.03 702.06
00002919 00000043 800.97 296.15 358.68 533.77 836.77 530.20 964.01 518.56 843.92 613.82 867.90 710.02 973.98 700.63
00002920 00000044 802.28 293.92 358.76 536.88 839.20 529.06 967.45 516.30 847.01 612.73 870.51 708.19 979.34 698.02
00002921 00000045 801.98 292.11 359.49 542.78 840.47 528.16 968.40 514.48 848.45 611.41 871.57 709.44 980.44 698.78
00002922 00000046 804.12 292.93 358.49 542.68 842.03 528.00 968.71 513.22 848.97 610.96 874.18 708.88 982.56 697.49
00002923 00000047 804.56 292.79 359.23 542.02 842.54 528.03 969.65 512.29 849.60 610.00 874.84 708.75 984.20 696.50
00002924 00000048 805.22 294.32 358.92 541.00 842.66 527.79 969.84 511.47 849.96 610.73 875.80 708.50 986.07 695.82
00002925 00000049 804.92 295.70 359.33 540.42 843.09 529.39 972.08 513.02 852.83 613.22 876.74 709.67 988.44 696.93
00002926 00000050 804.07 295.77 360.98 538.83 842.87 530.03 974.03 514.18 855.31 616.41 879.04 707.15 994.79 694.43
00002927 00000051 804.25 296.97 361.43 533.33 842.00 531.82 975.32 516.47 856.53 617.84 878.27 706.02 995.11 693.48
00002928 00000052 803.23 299.94 362.57 527.90 840.40 531.63 976.32 518.40 855.79 617.78 873.57 706.71 990.20 695.75
00002929 00000053 810.26 297.03 356.72 524.05 844.86 540.21 980.58 519.57 859.68 614.81 876.08 712.79 994.23 694.28
00002930 00000054 812.09 296.83 354.08 518.82 844.38 541.79 981.10 520.44 861.50 615.49 876.19 715.87 992.46 697.55
00002931 00000055 811.54 298.05 354.82 517.62 844.23 542.33 981.42 520.43 862.03 614.82 876.90 715.62 993.46 696.61
00002932 00000056 810.90 298.70 355.44 517.03 844.64 542.81 983.25 520.76 864.96 615.85 877.80 714.89 996.53 695.68
00002933 00000057 809.60 297.60 355.70 517.01 844.94 543.90 983.73 521.39 866.54 616.78 878.93 714.75 998.30 695.16
00002934 00000058 809.42 296.48 356.51 517.67 846.04 544.21 983.62 521.83 867.78 617.51 880.30 714.26 999.20 694.59
00002935 00000059 807.14 298.04 358.05 521.32 845.18 544.23 981.27 521.93 864.62 619.36 879.54 713.41 998.83 693.18
00002936 00000060 799.18 301.42 365.89 522.20 837.71 537.03 974.57 521.72 856.57 622.49 876.84 706.98 993.55 693.96
00002937 00000061 798.76 299.03 365.53 534.88 838.79 538.39 971.47 521.82 854.22 623.59 877.11 710.41 992.84 696.71
00002938 00000062 799.93 300.60 365.41 540.70 838.15 543.90 970.38 522.37 852.24 625.67 877.33 721.98 989.87 704.76
00002939 00000063 799.14 301.02 364.64 531.27 834.79 542.92 969.83 522.31 850.59 623.36 873.22 717.79 987.05 700.86
00002940 00000064 798.59 301.97 362.03 523.16 831.21 543.12 966.90 521.09 848.04 619.43 871.03 716.71 982.12 698.40
00002941 DELETE   798.17 300.96 362.49 531.32 831.95 544.85 967.20 522.28 848.62 621.83 871.16 720.34 983.25 701.75
00002942 00000066 798.35 302.82 362.40 539.43 835.18 547.82 965.88 523.92 849.99 622.38 872.86 728.21 977.68 709.21
00002943 00000067 797.46 303.05 361.87 538.21 834.99 547.42 966.13 524.18 851.07 622.59 873.28 726.96 978.69 708.45
00002944 00000068 796.96 303.62 362.27 535.81 834.98 546.94 966.38 523.55 851.14 622.39 873.48 724.72 980.21 706.10
00002945 00000069 796.65 304.08 363.43 534.34 834.52 547.07 966.81 523.18 851.51 621.81 873.25 724.02 981.05 704.91
00002946 00000070 797.17 304.49 361.89 530.17 833.88 546.79 966.89 522.90 852.18 621.54 874.06 721.79 982.54 702.59
00002947 00000071 797.74 304.40 360.88 524.51 832.48 545.75 966.50 523.42 851.44 619.90 872.41 718.68 980.71 700.61
00002948 00000072 804.91 302.37 356.07 514.48 834.84 549.93 970.48 523.02 855.73 620.06 872.59 719.10 988.03 695.60
00002949 00000073 804.08 303.83 354.79 512.73 833.82 548.64 970.16 524.08 854.39 620.54 869.77 715.69 987.46 694.00
00002950 00000074 804.53 305.17 354.53 511.95 834.35 548.64 970.69 524.97 854.34 620.90 869.82 715.40 988.05 694.30
00002951 00000075 804.15 305.33 354.75 511.85 834.22 548.56 970.59 524.58 854.98 620.96 870.54 715.81 988.83 694.41
00002952 00000076 804.32 305.08 354.92 512.55 835.04 549.34 971.25 524.79 856.30 621.96 872.75 717.42 990.63 695.49
00002953 00000077 804.87 304.19 356.10 514.65 835.79 550.99 972.39 525.34 857.35 622.91 875.18 720.35 992.29 697.43
00002954 00000078 798.38 308.14 360.16 517.28 831.84 545.54 967.28 525.80 851.46 623.74 873.66 716.76 983.65 700.58
00002955 00000079 798.50 308.11 359.23 515.50 831.86 544.43 966.81 525.10 851.37 622.65 873.19 715.62 981.97 699.73
00002956 00000080 805.53 302.68 355.40 514.90 836.12 549.23 972.99 524.46 856.85 621.08 874.06 720.10 989.76 698.21
00002957 00000081 805.30 302.65 357.09 518.68 836.11 549.44 974.05 524.26 856.92 621.73 874.11 722.98 989.42 700.78
00002958 00000082 797.93 308.47 362.23 521.63 833.01 547.01 967.25 525.65 851.43 624.68 873.69 721.28 981.27 704.05
00002959 00000083 804.50 301.96 359.27 520.58 835.95 552.50 973.34 526.00 856.96 623.89 875.42 726.29 989.51 702.97
00002960 00000084 804.79 303.64 358.09 515.79 835.80 552.32 973.64 527.00 857.93 624.62 874.77 724.88 990.03 702.57
00002961 00000085 806.26 305.62 357.01 511.59 837.72 549.44 974.29 527.11 859.93 624.70 875.36 723.39 988.19 703.64
00002962 00000086 806.56 304.01 357.37 512.42 839.24 546.17 977.19 525.44 863.69 623.14 875.73 721.40 988.92 703.08
00002963 00000087 808.15 301.57 359.11 511.31 844.28 543.30 981.61 522.63 870.94 617.80 880.74 715.97 993.11 697.53
00002964 00000088 811.43 301.37 362.83 508.96 851.14 541.27 991.83 518.18 882.41 611.96 888.60 713.66 998.94 693.55
00002965 00000089 815.05 297.21 362.80 517.49 855.95 537.52 995.80 511.40 885.88 603.22 895.28 713.80 1002.78 691.04
00002966 00000090 821.02 294.11 360.04 519.07 863.06 531.06 1000.60 505.98 892.01 593.27 903.26 708.18 1006.68 685.94
00002967 00000091 814.50 292.79 364.92 515.95 864.82 520.68 1002.50 500.49 894.94 593.77 897.56 694.26 1007.12 679.47
00002968 00000092 826.06 287.77 358.98 514.69 876.87 517.98 1019.34 506.81 907.05 588.42 901.64 688.48 1017.36 677.92
00002969 00000093 830.67 287.40 358.07 517.29 882.90 518.32 1028.84 510.63 913.84 589.69 904.17 687.22 1023.95 679.54
00002970 00000094 834.90 287.26 356.16 514.71 886.23 515.37 1035.51 509.48 918.58 589.65 905.49 685.30 1028.71 679.32
00002971 00000095 836.73 283.33 355.65 513.83 887.04 513.55 1037.43 509.15 919.92 589.23 905.54 680.42 1034.67 675.77
00002972 00000096 837.97 283.14 355.13 510.61 887.54 511.68 1039.07 508.44 920.73 588.70 904.25 677.72 1034.00 674.16
00002973 00000097 841.11 281.87 354.26 510.93 887.81 510.93 1039.75 508.03 921.07 589.86 904.09 679.08 1034.77 675.78
00002974 00000098 843.68 283.84 352.28 508.60 889.48 509.51 1042.24 507.57 923.06 590.70 903.99 680.53 1033.95 678.11
00002975 00000099 844.37 283.43 350.83 508.94 889.40 509.29 1042.92 507.89 924.09 591.68 902.15 681.91 1032.23 680.02
00002976 00000100 842.86 282.78 352.21 509.25 888.99 508.81 1042.22 508.76 924.66 593.23 901.51 678.95 1031.46 678.13
00002977 00000101 840.56 281.62 354.20 516.75 888.35 509.36 1040.13 509.17 921.53 594.61 904.01 681.72 1030.32 680.52
00002978 00000102 839.09 280.22 356.86 526.04 888.28 511.78 1039.42 510.09 921.67 596.15 909.05 688.36 1029.35 685.87
00002979 00000103 837.95 281.41 357.54 526.63 888.51 513.55 1039.17 510.51 922.10 594.90 911.67 690.01 1029.24 686.43
00002980 00000104 837.46 281.43 357.29 526.55 887.48 514.75 1037.69 510.45 920.40 594.30 911.93 690.35 1031.58 685.62
00002981 00000105 837.57 282.16 357.59 522.84 885.45 516.60 1036.65 510.84 919.60 594.24 910.64 688.43 1036.01 682.31
00002982 00000106 837.25 280.42 359.18 518.85 883.91 516.26 1036.29 510.54 920.20 595.16 905.43 683.12 1040.28 677.15
00002983 00000107 835.87 281.43 359.93 512.44 882.87 515.64 1035.43 508.79 918.45 592.81 903.38 677.27 1041.81 670.18
00002984 00000108 834.10 282.11 360.63 507.85 881.87 513.62 1035.84 507.48 917.87 592.76 899.35 671.73 1044.39 665.03
00002985 00000109 832.10 282.28 361.42 506.15 880.70 514.19 1035.87 508.75 918.71 595.36 897.00 670.30 1047.00 664.05
00002986 00000110 831.59 284.14 362.13 506.73 878.99 518.61 1035.88 511.39 919.94 599.39 896.27 674.99 1049.14 667.30
00002987 00000111 830.95 282.43 363.16 509.06 878.98 518.99 1035.49 511.47 920.03 599.77 896.14 675.39 1048.82 667.44
00002988 00000112 829.49 281.90 362.93 506.06 878.56 516.06 1034.56 510.29 917.45 595.27 893.78 671.06 1044.83 664.54
00002989 00000113 831.13 281.69 360.96 503.60 879.67 511.58 1032.18 506.57 912.86 591.56 893.83 666.86 1042.56 660.94
00002990 00000114 831.50 280.67 360.07 503.40 879.63 510.74 1029.90 505.34 909.60 590.15 894.21 666.92 1039.96 660.66
00002991 00000115 830.35 281.15 361.57 504.64 879.53 512.75 1030.19 508.41 911.60 592.86 893.39 668.66 1037.61 663.40
00002992 00000116 829.09 281.49 362.28 504.27 878.69 513.64 1029.99 509.27 912.06 593.02 893.25 669.81 1036.75 664.62
00002993 00000117 830.29 280.67 360.89 504.08 879.12 511.23 1028.87 506.52 910.34 590.98 893.15 668.28 1035.70 662.88
00002994 00000118 827.07 280.16 379.08 519.43 935.78 503.88 1103.73 484.41 1037.93 581.63 991.99 685.97 1121.92 670.14
00002995 00000119 824.80 280.25 379.13 518.92 933.06 504.28 1100.75 483.47 1035.40 580.98 990.16 685.76 1120.41 668.87
00002996 00000120 816.64 288.47 384.26 513.27 929.66 514.13 1093.94 487.51 1033.88 586.11 981.22 690.98 1110.99 669.17
00002997 00000121 814.29 288.23 384.95 514.59 927.42 515.49 1092.47 489.02 1031.94 587.97 979.39 691.71 1109.64 670.01
00002998 00000122 812.21 288.85 383.79 513.58 924.07 516.55 1088.93 489.73 1028.06 590.07 977.40 692.64 1106.76 670.65
00002999 00000123 810.72 289.33 383.28 513.43 922.06 517.86 1086.67 490.64 1025.77 591.14 976.23 693.90 1104.67 671.59
00003000 00000124 810.37 289.68 383.04 514.40 920.60 518.04 1085.36 490.55 1023.94 590.16 975.09 694.85 1103.36 672.32
00003001 00000125 807.67 288.70 385.03 518.07 916.89 516.93 1082.42 488.79 1020.23 589.49 972.72 696.41 1101.25 673.34
00003002 00000126 805.22 288.03 386.22 519.76 913.77 516.02 1079.90 488.12 1017.30 588.90 969.75 694.78 1100.24 671.80
00003003 00000127 802.98 287.44 387.16 516.43 910.80 515.91 1078.34 487.16 1014.52 588.48 967.16 692.70 1099.15 668.99
00003004 00000128 800.98 287.48 387.52 515.21 907.89 515.36 1076.64 487.62 1011.42 588.00 962.69 690.81 1096.68 667.82
00003005 00000129 799.02 288.32 387.66 514.54 905.47 516.16 1073.12 487.91 1007.99 589.70 960.52 691.59 1093.29 668.23
00003006 00000130 797.70 288.29 387.78 510.76 902.59 517.08 1069.85 489.57 1003.21 589.88 955.96 689.65 1088.82 666.93
00003007 00000131 797.11 288.40 386.61 508.49 900.69 517.82 1067.14 491.25 1000.08 590.31 952.15 687.45 1085.98 665.43
00003008 00000132 794.92 288.33 387.84 509.16 898.76 518.93 1064.94 492.52 997.51 589.51 949.66 687.55 1083.45 665.59
00003009 00000133 793.49 288.15 387.62 508.84 897.48 518.65 1062.35 493.10 994.66 590.19 947.56 686.52 1080.10 665.30
00003010 00000134 793.47 288.58 384.99 508.79 895.85 519.05 1060.00 493.97 991.66 590.33 946.39 687.55 1077.73 666.85
00003011 00000135 792.38 289.07 385.80 508.61 893.85 518.91 1058.55 494.04 989.10 591.66 945.28 688.29 1076.47 667.81
00003012 00000136 793.08 289.81 383.49 507.03 892.89 517.44 1056.60 494.10 986.57 590.93 942.37 686.45 1072.67 667.38
00003013 00000137 793.33 289.80 382.60 508.31 892.22 515.56 1055.06 494.12 984.33 591.64 940.22 685.73 1069.44 668.24
00003014 00000138 793.35 288.14 381.27 518.99 890.69 516.22 1053.69 493.37 982.88 593.11 941.28 692.13 1068.83 673.63
00003015 00000139 793.99 288.24 378.41 525.81 890.00 518.57 1050.65 492.92 981.68 594.24 944.42 698.38 1068.53 677.61
00003016 00000140 793.33 289.38 379.67 526.53 890.30 520.34 1050.91 493.33 982.58 593.28 945.83 699.50 1070.94 677.50
00003017 00000141 793.23 289.09 380.77 518.85 889.51 521.10 1051.55 493.22 982.70 592.39 946.22 696.51 1073.09 673.76
00003018 00000142 792.90 289.56 381.43 515.59 889.37 521.12 1052.16 493.30 982.86 592.73 945.47 695.13 1073.08 672.45
00003019 00000143 793.70 289.95 381.14 512.82 889.79 521.55 1052.71 493.98 983.04 592.87 945.56 694.17 1073.22 671.69
00003020 00000144 795.61 288.12 382.15 511.15 891.15 520.64 1054.24 494.63 983.38 592.81 944.59 691.58 1072.99 670.50
00003021 00000145 797.31 288.68 382.16 508.13 893.77 520.17 1056.58 495.52 985.72 591.94 945.16 689.30 1073.23 669.34
00003022 00000146 801.11 289.40 381.69 506.76 896.49 518.27 1058.25 495.12 987.39 592.26 944.93 687.06 1072.95 668.37
00003023 00000147 803.71 289.73 379.67 505.60 899.26 516.58 1059.11 494.16 989.09 592.76 946.33 685.82 1072.95 667.93
00003024 00000148 805.63 288.82 378.53 508.92 900.69 517.57 1060.16 494.28 990.53 593.61 949.00 688.14 1074.50 669.71
00003025 00000149 807.09 288.63 378.72 505.95 900.59 518.44 1061.92 493.91 991.25 593.13 949.18 685.24 1079.16 665.54
00003026 00000150 807.78 287.59 380.91 503.01 900.30 518.83 1064.63 491.56 992.60 591.09 950.51 683.03 1084.90 660.82
00003027 00000151 807.02 287.20 382.35 504.87 900.38 519.00 1064.62 491.54 992.38 591.58 950.55 683.57 1084.86 661.17
00003028 00000152 807.48 288.01 382.22 507.11 901.15 518.78 1063.64 492.84 991.91 593.70 950.93 685.01 1082.82 664.03
00003029 00000153 807.47 289.16 382.35 505.50 901.75 518.99 1063.83 493.41 991.54 594.91 951.79 685.52 1081.53 664.99
00003030 00000154 807.89 288.80 382.23 503.80 901.13 519.38 1064.90 493.62 990.97 593.44 950.06 683.70 1082.99 662.90
CROP_BBOX: 569 61 1397 971
