Video ID: 	6U03yM4vghk
H: 	1080
W: 	1920
FPS: 	25.0

FRAME INDEX X0 Y0 W H [Landmarks (5 Points)]

00131454 00000000 718.14 243.18 360.69 598.50 990.83 551.61 1053.00 523.10 1099.82 612.01 972.02 721.56 1024.22 701.66
00131455 00000001 713.21 233.62 359.52 601.85 977.06 544.29 1067.34 523.99 1088.90 605.17 962.67 719.37 1031.09 704.50
00131456 00000002 728.09 227.78 355.65 598.94 989.77 542.29 1049.33 500.65 1104.57 611.32 980.02 715.48 1017.67 686.08
00131457 00000003 725.21 234.91 360.01 593.02 989.59 543.80 1047.82 499.55 1106.59 607.93 980.99 714.89 1017.63 683.91
00131458 00000004 737.10 238.65 343.72 588.91 994.09 543.13 1043.18 501.54 1105.56 607.75 987.86 717.96 1019.35 688.34
00131459 00000005 725.70 233.10 360.20 600.24 1002.18 536.21 1047.64 500.99 1117.71 606.03 999.70 728.52 1030.74 703.37
00131460 00000006 728.36 252.81 363.42 605.15 1020.24 531.39 1036.75 504.94 1111.83 610.36 1018.94 734.19 1031.47 714.24
00131461 DELETE   717.52 257.94 360.40 615.07 1006.57 518.88 1049.80 520.00 1095.00 594.46 1003.72 724.37 1036.93 724.58
00131462 00000008 716.50 270.02 361.13 557.14 975.42 534.31 1040.24 516.68 1060.67 595.96 964.34 695.88 1012.40 683.35
00131463 00000009 716.80 246.44 371.78 577.04 970.20 558.74 1036.82 509.59 1094.66 618.27 967.44 722.37 1023.83 687.00
00131464 00000010 719.90 249.88 369.44 576.58 971.71 558.05 1041.37 512.33 1095.97 619.49 966.95 722.27 1026.57 689.80
00131465 00000011 720.24 249.66 369.35 577.34 972.29 559.50 1039.99 513.53 1094.50 619.90 966.38 721.30 1025.49 688.45
00131466 00000012 718.45 247.34 373.62 578.71 973.49 558.15 1043.22 515.66 1095.46 620.32 965.50 721.16 1025.37 690.78
00131467 00000013 722.06 248.76 370.07 580.92 971.61 556.55 1047.95 517.29 1092.97 619.02 963.55 720.83 1027.30 692.82
00131468 00000014 721.99 249.20 371.57 585.64 975.78 555.60 1050.02 518.60 1095.51 623.50 962.49 723.48 1024.50 697.66
00131469 00000015 732.97 238.91 360.66 590.03 980.15 545.04 1053.92 509.14 1102.82 617.56 977.28 719.22 1022.55 694.97
00131470 00000016 719.26 252.31 373.29 583.89 975.20 539.20 1047.74 517.78 1100.06 619.91 971.25 718.81 1019.44 706.14
00131471 00000017 719.78 256.24 372.72 580.69 973.69 539.33 1045.40 515.77 1099.80 618.81 968.86 718.39 1018.22 704.11
00131472 00000018 717.62 250.76 373.93 584.83 973.67 539.58 1042.08 514.09 1100.58 617.98 967.91 717.02 1014.81 701.73
00131473 00000019 733.72 240.24 360.04 588.43 979.64 542.92 1047.47 504.15 1104.61 615.18 970.99 715.87 1012.37 690.56
00131474 00000020 734.57 241.77 357.64 585.42 980.31 541.74 1046.87 504.00 1105.19 614.53 967.92 713.88 1008.48 689.34
00131475 00000021 712.81 236.67 371.81 601.35 964.88 543.07 1037.73 503.26 1090.43 617.67 945.79 717.06 1005.13 689.90
00131476 00000022 695.34 240.88 382.37 599.36 948.92 532.86 1025.34 498.69 1074.37 613.69 939.51 711.50 998.28 689.33
00131477 00000023 659.83 225.12 395.91 607.12 905.40 523.38 1019.00 484.61 1045.96 606.67 905.66 709.20 991.25 683.36
00131478 00000024 641.74 213.18 395.59 622.17 884.62 536.19 1009.69 502.81 1021.38 620.79 885.73 718.03 984.60 692.67
00131479 00000025 616.28 206.17 406.99 625.58 831.09 526.81 976.42 485.55 970.98 612.40 854.58 716.35 963.13 683.86
00131480 DELETE   595.86 201.34 409.27 624.48 795.02 501.34 946.47 474.59 926.93 604.27 832.41 705.32 939.27 683.50
00131481 DELETE   594.04 187.83 412.63 631.95 780.26 494.64 947.98 467.03 911.82 596.70 808.83 693.78 936.40 672.25
00131482 00000028 589.45 180.49 410.76 638.43 766.99 489.47 938.22 466.42 898.28 590.09 797.53 689.82 927.33 672.29
00131483 00000029 587.42 177.93 410.57 650.00 761.49 487.63 930.45 466.78 889.36 589.89 794.66 690.95 921.92 675.13
00131484 00000030 583.83 180.66 413.68 640.39 755.60 488.74 931.10 466.57 887.40 592.33 787.45 688.85 921.51 671.75
00131485 00000031 582.23 177.87 417.04 640.80 752.38 488.42 933.41 467.88 885.71 591.17 780.70 686.15 920.31 670.35
00131486 00000032 582.30 179.41 416.15 639.60 751.04 490.55 931.07 470.17 883.46 592.20 778.00 686.27 917.85 670.72
00131487 00000033 584.05 182.09 417.35 636.95 752.00 492.41 932.01 473.32 881.14 594.16 777.71 688.37 915.91 674.12
00131488 00000034 586.85 179.10 418.86 638.95 753.31 491.11 935.40 474.61 880.73 595.51 777.48 687.96 917.50 675.70
00131489 00000035 590.20 175.35 419.86 646.13 754.25 494.06 935.77 478.81 880.70 598.41 775.63 687.99 919.30 676.54
00131490 00000036 593.25 178.67 420.16 653.35 757.76 495.39 937.79 482.98 880.94 600.77 777.34 689.36 921.97 679.77
00131491 00000037 595.02 178.16 421.37 654.93 760.01 494.37 940.98 484.04 882.29 602.28 775.70 688.48 922.88 680.49
00131492 00000038 598.19 183.79 418.01 638.38 763.05 494.21 944.27 483.45 884.23 603.91 781.54 688.59 923.65 680.33
00131493 00000039 598.97 183.90 416.74 634.51 764.46 492.84 943.52 481.45 884.29 602.39 787.37 691.85 922.58 683.12
00131494 00000040 600.15 183.84 415.53 633.39 765.44 492.37 944.18 481.27 884.40 601.32 789.36 693.94 921.23 685.59
00131495 00000041 600.29 183.38 416.04 633.83 764.16 492.64 943.89 482.07 882.65 601.40 787.99 693.89 920.90 685.91
00131496 00000042 600.30 185.88 416.52 631.79 762.06 493.63 943.17 482.71 880.95 602.44 785.12 693.46 920.91 685.27
00131497 00000043 600.70 185.23 415.33 632.85 761.57 495.55 942.37 484.13 880.62 602.26 784.25 693.35 920.96 684.68
00131498 00000044 600.26 184.39 416.84 633.75 761.23 495.00 944.26 484.13 881.46 603.51 782.01 692.74 921.23 684.54
00131499 00000045 599.30 184.59 417.63 632.50 760.64 496.62 944.26 485.30 881.06 604.49 779.66 691.83 920.60 683.29
00131500 00000046 599.75 184.90 417.48 632.48 761.18 499.29 945.21 485.95 882.56 607.49 781.19 693.53 922.31 683.22
00131501 00000047 600.64 187.17 416.00 631.46 763.51 499.52 944.64 486.20 883.40 608.05 784.61 695.22 922.78 684.76
00131502 00000048 599.52 187.17 416.86 633.87 761.92 500.23 943.56 487.05 882.74 607.31 783.72 695.94 922.39 685.73
00131503 00000049 598.55 186.09 418.05 637.29 760.17 500.49 943.48 487.78 881.39 607.44 779.60 694.99 921.60 685.24
00131504 00000050 598.28 184.62 418.06 644.22 759.74 499.87 942.73 487.57 881.37 607.06 779.07 695.19 922.77 685.59
00131505 00000051 590.61 187.02 419.86 650.04 760.53 496.97 934.88 488.50 883.55 607.52 780.99 698.81 919.41 691.37
00131506 00000052 591.15 185.02 419.88 657.18 761.21 496.56 934.46 489.39 883.71 607.39 779.71 698.99 918.39 692.58
00131507 00000053 590.41 186.58 419.83 657.57 761.22 497.43 933.07 490.32 883.23 606.99 777.25 697.76 917.55 691.53
00131508 00000054 596.98 183.76 417.92 645.42 757.94 501.55 941.80 487.83 881.74 608.02 775.82 692.08 924.06 681.18
00131509 00000055 597.26 182.90 417.26 642.20 758.31 501.28 942.17 486.67 882.95 609.56 775.83 691.35 924.60 679.79
00131510 00000056 598.01 182.79 417.85 641.92 759.65 500.70 942.87 486.07 883.89 609.10 778.17 691.53 926.03 679.84
00131511 00000057 597.20 180.45 419.28 643.63 757.43 498.30 942.50 483.03 883.66 607.43 777.40 691.15 926.48 679.04
00131512 00000058 596.34 177.43 418.58 644.15 755.99 495.43 941.37 481.03 881.93 604.65 776.73 689.91 924.44 678.71
00131513 00000059 595.68 174.05 418.80 649.54 755.76 494.52 940.22 480.08 881.83 603.50 776.39 689.94 923.50 678.75
00131514 00000060 594.36 174.93 419.23 650.62 754.65 493.35 939.51 479.45 880.46 603.75 775.15 690.26 921.98 679.67
00131515 00000061 594.46 174.48 418.38 654.45 754.46 492.25 937.95 478.94 879.19 602.97 775.66 690.84 921.29 680.61
00131516 00000062 594.21 175.01 418.68 653.23 754.31 491.65 937.88 479.15 878.87 602.10 776.13 690.10 921.55 680.45
00131517 00000063 593.55 174.92 418.19 652.88 753.15 491.60 936.17 478.48 877.87 601.53 775.77 689.66 920.63 679.61
00131518 00000064 592.37 175.22 418.00 650.53 752.45 489.39 934.63 476.06 877.34 600.25 775.90 688.93 919.40 678.83
00131519 00000065 592.60 176.31 417.03 649.38 751.59 488.74 933.04 475.33 876.22 599.74 775.95 688.64 919.01 678.42
00131520 00000066 592.00 175.98 417.01 650.58 752.20 487.81 932.51 474.51 876.53 599.24 776.44 688.41 918.71 678.20
00131521 00000067 592.72 175.27 416.72 649.82 751.49 488.35 932.88 475.40 875.45 598.44 775.58 687.52 918.91 677.51
00131522 00000068 592.49 175.83 416.26 647.96 752.36 487.66 932.02 474.00 875.93 597.21 777.12 687.13 918.31 676.71
00131523 00000069 591.56 177.07 416.39 647.08 749.70 489.07 930.83 474.64 873.89 596.69 775.83 687.43 918.20 676.32
00131524 00000070 591.46 178.67 416.28 643.38 751.93 492.65 931.23 476.60 876.06 596.04 777.00 688.03 917.72 675.79
00131525 00000071 592.00 175.31 416.54 647.39 752.56 494.76 933.91 479.77 877.00 595.31 774.75 688.97 917.76 677.41
00131526 00000072 591.46 178.83 415.75 642.52 752.29 494.25 931.72 477.84 875.98 594.97 775.49 687.84 917.32 675.13
00131527 00000073 588.72 179.29 415.78 643.16 747.36 491.38 929.31 474.29 874.04 592.45 774.32 685.94 918.33 672.76
00131528 00000074 587.94 177.50 415.45 644.67 747.53 489.17 927.66 472.54 873.95 591.43 775.17 684.35 917.73 671.49
00131529 00000075 588.50 176.31 413.84 646.30 747.38 485.14 927.80 469.18 874.67 590.76 775.72 683.44 918.42 671.05
00131530 00000076 588.60 175.37 412.60 646.68 747.34 484.30 926.96 468.11 874.23 589.91 775.63 683.11 917.71 670.55
00131531 00000077 589.38 172.63 414.01 648.71 749.09 484.21 928.44 466.71 877.01 588.94 778.08 682.48 919.72 668.73
00131532 00000078 589.56 172.16 414.73 649.32 748.76 482.39 929.16 464.82 877.61 587.55 778.61 681.18 920.94 667.38
00131533 00000079 590.72 170.50 414.47 649.62 749.32 482.88 929.85 464.49 878.54 586.91 779.49 680.48 922.18 666.01
00131534 00000080 590.76 171.05 415.78 649.00 749.71 482.13 930.52 465.21 877.91 587.50 780.24 680.93 921.98 667.64
00131535 00000081 590.70 172.02 415.79 648.31 750.88 481.62 931.52 465.64 879.00 589.43 780.28 681.62 921.82 669.15
00131536 00000082 591.69 171.77 415.73 647.62 751.85 481.55 932.68 465.72 879.87 588.92 780.52 681.31 921.89 669.05
00131537 00000083 591.39 171.63 416.17 647.52 752.01 480.93 934.21 465.58 881.38 587.85 781.49 681.06 923.77 669.11
00131538 00000084 591.48 170.53 418.04 644.58 752.48 479.36 936.55 465.36 881.80 586.24 781.62 679.70 924.27 668.80
00131539 00000085 592.05 171.95 418.02 641.46 752.57 479.69 936.59 465.21 881.56 586.06 781.97 679.71 924.46 668.47
00131540 00000086 592.48 172.46 418.36 637.84 753.23 478.97 938.57 465.16 883.02 586.96 782.57 680.21 924.71 669.63
00131541 00000087 593.31 173.38 417.38 636.10 754.01 479.92 940.51 466.07 885.13 587.92 782.55 681.56 925.35 670.99
00131542 00000088 593.35 171.81 418.01 638.11 754.32 479.18 939.67 465.71 884.71 587.93 782.48 681.92 923.99 671.78
00131543 00000089 594.05 172.94 417.99 640.26 754.40 480.08 939.02 466.97 882.98 589.67 782.53 682.29 924.23 672.34
00131544 00000090 593.90 173.10 416.80 641.59 753.64 481.86 937.92 468.10 882.84 590.11 781.83 682.59 924.26 672.03
00131545 00000091 593.20 174.49 417.41 637.99 753.04 482.48 937.56 467.01 882.84 590.54 782.43 683.64 923.77 671.94
00131546 00000092 592.51 174.41 418.59 635.13 751.60 482.32 938.65 466.75 882.78 589.45 782.05 683.21 924.33 671.44
00131547 00000093 590.84 172.01 417.10 640.25 750.78 481.50 936.68 465.26 883.22 589.50 780.77 683.04 923.07 670.78
00131548 00000094 589.97 172.66 416.42 643.42 750.73 481.46 934.89 466.08 880.95 589.46 780.71 683.31 921.41 671.65
00131549 00000095 589.79 174.24 416.48 639.87 750.61 483.49 935.36 467.29 881.19 591.47 780.30 685.09 920.05 672.97
00131550 00000096 589.12 174.79 416.19 643.41 749.63 484.91 934.91 468.09 880.70 592.05 778.56 685.94 920.64 673.30
00131551 00000097 588.43 176.30 416.86 647.21 750.36 485.75 932.48 469.94 878.99 593.17 779.26 686.03 919.89 674.01
00131552 00000098 589.43 176.44 415.10 652.15 751.93 486.42 929.78 470.84 877.95 592.12 782.72 688.40 918.30 676.63
00131553 00000099 589.33 177.52 415.55 652.48 752.88 485.68 928.98 469.43 878.41 590.59 786.47 690.22 917.76 677.95
00131554 00000100 588.60 176.02 416.80 647.73 751.19 482.93 931.15 467.03 878.57 589.36 785.12 688.39 919.19 676.46
00131555 00000101 589.03 176.07 416.47 641.44 750.65 483.28 931.86 466.54 878.19 588.28 785.29 686.72 919.70 674.12
00131556 00000102 588.19 176.18 415.74 640.32 750.86 483.37 930.84 466.60 879.07 587.76 785.85 685.60 920.00 672.82
00131557 00000103 588.72 176.69 415.73 639.31 749.76 486.28 932.31 467.59 879.63 591.05 783.13 687.51 920.98 673.37
00131558 00000104 589.61 180.61 415.35 635.58 750.77 489.55 931.59 470.70 879.78 592.56 783.84 689.16 920.42 674.90
00131559 00000105 589.82 177.75 416.40 637.74 749.99 488.81 933.55 470.84 880.39 592.37 782.74 689.78 920.77 676.27
00131560 00000106 589.95 179.36 414.70 633.72 751.96 487.96 934.62 469.16 882.53 592.72 782.96 687.96 922.00 673.79
00131561 00000107 589.52 178.01 415.56 634.98 751.31 488.40 935.81 468.75 883.55 592.08 783.04 686.59 924.33 671.52
00131562 00000108 588.07 177.94 416.32 642.84 752.34 487.70 932.54 469.00 881.63 591.74 783.94 685.80 923.26 671.41
00131563 00000109 588.45 178.17 417.25 641.36 752.60 487.46 934.49 468.91 883.15 592.39 782.21 684.66 923.76 670.45
00131564 00000110 590.37 178.27 415.37 642.29 751.64 489.79 934.98 471.38 882.69 594.28 778.33 683.18 925.22 669.08
00131565 00000111 590.13 178.69 415.31 644.87 751.63 492.39 934.33 473.22 880.93 596.60 772.07 681.35 923.22 666.80
00131566 00000112 590.95 179.59 415.81 646.75 751.85 497.44 934.84 478.92 881.05 598.74 764.16 680.00 921.58 665.71
00131567 00000113 592.52 175.34 413.69 653.03 753.37 500.64 933.86 482.76 880.75 601.19 762.34 679.55 921.55 665.51
00131568 00000114 591.80 174.58 414.48 654.68 752.42 499.65 933.20 480.97 881.30 599.95 762.67 679.62 922.66 664.99
00131569 00000115 592.22 175.47 416.51 661.55 755.52 491.55 935.22 479.59 883.79 595.68 769.52 683.36 922.95 674.09
00131570 00000116 585.98 174.07 419.58 671.81 766.88 481.44 928.98 477.56 891.88 598.23 777.02 686.76 916.33 683.02
00131571 00000117 598.26 172.62 411.98 665.70 767.12 485.20 942.37 473.68 894.05 593.98 786.48 687.77 928.86 678.38
00131572 00000118 598.08 173.55 412.20 646.79 762.59 486.70 941.63 471.84 889.92 593.02 787.51 684.19 928.69 672.43
00131573 00000119 589.51 171.59 415.52 648.03 754.77 486.70 934.12 471.91 880.95 592.01 779.61 687.08 917.15 675.97
00131574 00000120 584.12 171.17 415.41 648.43 749.54 484.85 928.46 471.81 873.83 589.65 774.27 687.34 908.93 677.86
CROP_BBOX: 296 0 1297 1016
