Video ID: 	ckLEf-LhEc8
H: 	1080
W: 	1920
FPS: 	25.0

FRAME INDEX X0 Y0 W H [Landmarks (5 Points)]

00054309 00000000 1086.33 138.81 401.69 559.62 1172.46 332.03 1354.49 346.28 1232.81 439.73 1170.47 534.00 1321.96 546.08
00054310 00000001 1090.18 145.58 398.17 557.89 1175.02 333.35 1355.76 347.93 1232.83 440.71 1170.66 537.20 1322.14 550.11
00054311 00000002 1090.28 139.55 398.28 554.73 1174.04 332.62 1357.86 345.84 1233.64 438.95 1171.80 537.33 1323.43 548.66
00054312 00000003 1091.43 135.80 396.94 552.38 1172.97 328.70 1357.53 342.10 1232.27 436.42 1172.08 535.05 1322.38 546.65
00054313 00000004 1092.39 127.82 395.84 556.02 1175.10 324.39 1358.72 339.71 1234.32 434.93 1172.65 532.93 1320.99 546.22
00054314 00000005 1091.41 125.53 396.99 556.20 1177.95 321.92 1361.60 336.94 1239.85 433.22 1175.21 529.41 1322.38 542.45
00054315 00000006 1091.59 130.65 397.05 554.86 1179.20 321.36 1362.09 335.03 1240.88 430.58 1178.35 530.16 1322.82 542.09
00054316 00000007 1090.85 137.43 397.37 547.04 1179.52 318.89 1361.72 333.44 1239.14 427.44 1176.32 527.41 1318.93 540.44
00054317 00000008 1090.00 135.05 397.70 547.44 1179.65 315.90 1362.03 329.45 1240.09 424.63 1177.40 525.82 1318.24 538.25
00054318 00000009 1089.08 131.10 398.09 550.43 1177.68 315.12 1359.26 326.03 1237.97 422.38 1177.76 524.62 1316.98 534.74
00054319 DELETE   1088.54 132.90 397.41 547.35 1176.03 314.49 1357.62 324.92 1235.38 422.29 1176.62 524.06 1315.36 533.65
00054320 00000011 1088.43 131.61 397.66 547.26 1175.76 314.67 1357.28 325.60 1234.80 423.24 1175.79 523.20 1315.19 533.21
00054321 00000012 1089.19 130.70 396.99 549.39 1176.81 314.89 1357.98 326.23 1236.22 423.56 1177.21 523.74 1316.16 534.16
00054322 00000013 1089.83 133.64 396.56 547.19 1178.24 315.96 1361.01 327.49 1239.02 424.06 1177.79 524.49 1319.73 535.11
00054323 00000014 1089.97 132.34 397.24 549.23 1180.04 315.34 1363.32 326.83 1242.15 422.76 1179.39 524.57 1320.18 535.27
00054324 00000015 1089.48 129.04 397.72 552.94 1179.82 315.85 1363.94 326.44 1243.01 421.05 1179.20 522.93 1323.87 532.46
00054325 00000016 1089.04 128.51 396.49 546.61 1177.54 312.45 1363.00 322.63 1240.00 418.94 1174.10 518.19 1324.80 527.78
00054326 00000017 1086.97 114.09 399.70 556.10 1172.85 305.34 1361.67 319.24 1236.84 411.60 1169.92 512.73 1327.97 525.56
00054327 00000018 1086.87 113.40 400.52 557.37 1172.94 303.88 1361.51 317.70 1236.46 410.89 1170.58 512.66 1327.76 525.31
00054328 00000019 1086.35 111.08 400.53 558.52 1172.36 305.06 1361.18 318.94 1236.85 411.92 1170.02 513.18 1328.51 525.88
00054329 00000020 1088.02 132.56 398.32 540.86 1175.49 312.52 1361.40 321.69 1238.81 420.99 1173.84 518.83 1323.70 527.56
00054330 00000021 1088.04 137.33 398.95 542.69 1177.11 317.28 1360.34 327.12 1242.74 426.76 1177.45 523.14 1325.09 532.04
00054331 00000022 1087.14 139.50 400.32 543.38 1176.72 319.07 1359.66 328.71 1243.45 429.12 1179.08 525.65 1325.25 534.13
00054332 00000023 1086.74 137.04 400.43 545.58 1175.56 318.58 1358.74 327.27 1242.17 428.02 1179.83 525.68 1324.70 533.26
00054333 00000024 1086.48 136.00 398.98 544.86 1174.63 315.87 1357.16 323.38 1239.36 423.77 1179.46 523.88 1320.61 530.79
00054334 00000025 1086.99 130.05 398.65 549.55 1174.01 314.42 1356.73 320.44 1238.48 421.15 1180.80 523.08 1320.76 528.91
00054335 00000026 1086.80 129.30 399.22 550.58 1173.99 313.07 1357.58 318.63 1239.31 419.69 1181.16 521.70 1322.25 527.19
00054336 00000027 1087.29 130.62 398.78 548.49 1174.20 312.66 1358.08 317.27 1239.77 418.50 1181.59 520.46 1323.87 525.23
00054337 00000028 1087.17 130.45 398.56 546.38 1174.10 313.12 1358.77 317.37 1240.74 418.61 1181.56 520.18 1325.33 524.70
00054338 00000029 1086.41 117.50 399.65 556.72 1172.66 305.53 1359.46 316.69 1238.62 413.81 1175.44 515.94 1329.33 526.36
00054339 00000030 1086.15 116.75 399.39 555.44 1171.73 305.06 1359.47 315.64 1238.39 412.41 1175.29 515.95 1329.00 525.93
00054340 00000031 1086.59 114.33 398.82 556.84 1171.31 305.13 1359.08 314.57 1237.82 410.83 1175.37 515.93 1328.59 525.02
00054341 00000032 1086.39 113.91 399.23 556.56 1170.79 305.00 1358.64 313.68 1237.64 409.38 1175.43 515.90 1328.29 524.36
00054342 00000033 1085.37 112.98 399.72 556.82 1170.18 304.83 1357.95 313.39 1237.24 409.31 1174.94 515.88 1326.93 524.31
00054343 00000034 1086.24 115.66 398.69 554.79 1169.97 303.72 1358.43 311.69 1237.43 407.49 1175.53 516.12 1326.68 523.94
00054344 00000035 1086.28 116.50 398.41 553.85 1169.13 302.33 1358.46 310.60 1236.38 407.05 1174.35 516.33 1325.52 524.43
00054345 00000036 1086.48 116.22 397.49 553.85 1168.95 301.53 1357.74 309.56 1235.65 406.06 1173.83 516.18 1324.75 524.20
00054346 00000037 1085.73 110.73 397.34 559.66 1168.97 308.95 1350.19 314.65 1234.69 406.90 1174.25 516.62 1324.57 522.76
00054347 00000038 1085.72 114.00 396.56 555.47 1170.34 310.06 1351.00 316.27 1234.89 405.24 1173.97 514.92 1324.28 521.54
00054348 00000039 1085.23 113.06 397.64 555.83 1168.88 307.77 1351.83 313.91 1234.08 404.43 1173.09 514.33 1324.66 520.84
00054349 00000040 1084.96 107.94 399.55 560.43 1166.73 305.06 1349.72 311.54 1231.17 402.40 1170.85 512.50 1323.67 519.29
00054350 00000041 1085.60 111.99 398.72 553.69 1165.78 301.82 1350.35 308.31 1230.51 400.34 1170.38 511.18 1322.41 518.10
00054351 00000042 1086.81 113.90 398.50 549.94 1166.26 299.47 1352.38 306.50 1230.88 399.00 1170.15 510.12 1321.80 517.54
00054352 00000043 1087.73 113.30 397.73 549.94 1166.95 298.02 1353.36 304.87 1231.47 398.92 1170.80 509.60 1321.77 516.78
00054353 00000044 1088.22 115.71 398.66 547.22 1167.45 297.50 1354.17 304.35 1231.91 399.05 1171.77 509.93 1322.10 517.09
00054354 00000045 1089.03 116.95 398.59 546.58 1167.97 297.49 1355.05 303.85 1232.25 399.60 1173.01 510.69 1322.79 517.33
00054355 00000046 1089.53 118.72 398.71 545.40 1168.32 298.54 1355.62 304.57 1232.81 400.26 1173.80 511.71 1323.32 518.06
00054356 00000047 1089.40 117.64 399.29 547.57 1169.15 301.26 1355.67 306.62 1233.71 400.89 1174.84 511.92 1325.38 517.65
00054357 00000048 1089.57 117.21 399.18 549.14 1169.40 302.21 1355.48 307.06 1233.70 400.83 1175.65 512.31 1326.82 517.52
00054358 00000049 1089.56 118.79 399.23 548.10 1169.02 301.76 1356.41 306.87 1234.00 400.23 1175.55 512.11 1327.82 517.49
00054359 00000050 1090.01 118.20 398.32 547.51 1168.72 300.30 1356.86 305.68 1233.53 398.67 1174.67 509.94 1329.08 515.52
00054360 00000051 1089.28 119.15 399.18 545.83 1168.30 298.36 1355.49 305.21 1232.24 396.84 1172.92 506.71 1327.80 513.64
00054361 00000052 1088.29 115.68 399.44 548.05 1167.21 297.01 1353.98 303.67 1231.26 395.67 1171.19 505.44 1326.88 512.24
00054362 00000053 1087.46 115.38 400.73 548.48 1166.59 296.25 1352.84 303.42 1230.24 395.21 1168.49 502.55 1326.37 509.75
00054363 00000054 1085.94 115.58 401.60 546.10 1164.00 295.52 1350.71 302.61 1227.54 393.85 1165.22 500.59 1325.57 507.92
00054364 00000055 1084.11 115.54 402.47 543.79 1163.12 294.79 1350.17 301.80 1227.59 392.03 1165.05 498.91 1324.67 506.06
00054365 00000056 1083.17 116.60 403.27 542.11 1161.40 295.64 1348.72 302.06 1226.41 391.16 1163.26 497.92 1325.08 504.58
00054366 00000057 1081.90 117.79 402.66 539.59 1160.68 294.24 1347.96 302.26 1225.88 390.88 1161.68 496.47 1322.23 504.50
00054367 00000058 1081.70 118.77 402.47 536.70 1160.01 291.75 1347.79 300.02 1225.90 390.40 1160.86 495.18 1320.23 503.43
00054368 00000059 1081.03 119.11 403.50 535.88 1159.60 292.76 1348.20 300.27 1226.63 390.35 1161.28 495.63 1321.92 503.11
00054369 00000060 1080.65 118.69 404.48 536.85 1159.99 294.04 1347.09 300.67 1227.04 391.26 1162.53 495.28 1324.65 501.83
00054370 00000061 1080.70 117.79 401.55 539.03 1162.61 304.14 1342.64 309.70 1226.95 392.33 1165.24 496.97 1326.12 502.76
00054371 00000062 1082.02 119.29 400.26 539.52 1163.79 302.08 1345.54 307.75 1229.16 390.97 1167.14 498.57 1325.83 504.46
00054372 00000063 1082.95 114.84 400.84 545.41 1163.40 297.59 1345.81 303.20 1229.60 391.19 1168.39 499.81 1324.65 505.80
00054373 00000064 1084.74 115.21 400.23 543.80 1163.99 290.21 1350.27 295.59 1231.66 388.52 1169.49 498.94 1323.10 504.76
00054374 00000065 1085.89 111.66 398.50 545.15 1165.49 286.68 1351.66 290.96 1233.75 385.76 1171.95 497.68 1321.18 502.62
00054375 00000066 1086.24 108.76 398.62 544.26 1166.44 282.90 1353.07 288.87 1234.44 381.96 1171.37 493.70 1319.73 499.99
00054376 00000067 1088.38 103.91 396.15 546.89 1169.36 281.62 1354.32 287.06 1236.66 378.79 1174.36 492.59 1319.99 498.40
00054377 00000068 1090.77 102.42 393.61 546.25 1171.41 282.08 1354.89 285.40 1238.45 375.69 1178.97 494.06 1320.95 498.14
00054378 00000069 1093.16 102.62 392.49 543.79 1174.12 280.59 1356.89 284.40 1240.02 373.12 1181.71 491.64 1321.39 496.07
00054379 00000070 1094.70 97.33 391.90 546.68 1176.53 279.83 1356.95 282.61 1240.47 369.24 1182.97 488.36 1321.44 492.01
00054380 00000071 1096.08 91.00 390.84 546.19 1180.00 273.96 1358.47 277.64 1242.46 361.93 1184.80 482.07 1319.34 486.34
00054381 00000072 1096.71 91.31 389.55 540.54 1182.07 265.63 1360.54 269.40 1242.66 350.03 1183.53 474.91 1317.72 479.74
00054382 00000073 1097.81 91.69 388.82 533.44 1183.39 259.22 1360.11 267.31 1239.47 344.82 1179.80 464.70 1316.81 473.49
00054383 00000074 1098.19 80.42 387.94 538.45 1183.41 255.42 1360.77 264.84 1235.81 341.32 1175.42 456.56 1317.97 466.78
00054384 00000075 1098.06 79.46 388.81 535.31 1183.45 254.49 1356.84 266.09 1230.09 341.48 1171.59 452.29 1314.19 464.72
00054385 00000076 1097.41 83.97 390.82 532.65 1180.91 257.80 1355.26 268.87 1227.25 345.39 1170.54 455.18 1314.94 466.82
00054386 00000077 1098.27 82.20 392.26 540.78 1179.65 265.14 1356.94 277.05 1226.83 350.41 1168.68 460.92 1318.78 472.83
00054387 00000078 1100.02 96.87 391.25 535.27 1178.24 272.58 1356.94 284.46 1226.78 360.56 1169.83 469.78 1322.23 481.60
00054388 00000079 1101.98 101.31 391.24 545.82 1179.47 275.13 1358.86 286.28 1233.23 371.88 1175.25 478.54 1325.78 489.87
00054389 00000080 1102.18 107.90 394.03 549.02 1180.39 277.75 1363.06 291.62 1236.59 382.32 1177.40 485.89 1329.59 498.73
00054390 00000081 1101.97 111.18 395.27 549.71 1181.47 284.86 1363.14 299.58 1238.07 392.96 1180.38 493.62 1331.68 506.77
00054391 00000082 1101.94 132.65 394.76 534.42 1184.21 300.46 1358.94 307.76 1240.13 405.59 1190.09 502.47 1328.52 509.24
00054392 00000083 1101.14 137.08 396.57 534.26 1184.55 306.52 1360.39 313.04 1242.54 411.75 1190.89 508.25 1330.36 514.52
00054393 00000084 1100.96 136.10 395.37 533.36 1184.08 305.90 1360.77 311.69 1243.61 410.91 1190.81 507.83 1330.84 513.64
00054394 00000085 1100.60 132.48 394.26 527.17 1184.28 300.85 1361.87 306.73 1245.05 405.77 1189.38 501.09 1330.34 507.05
00054395 00000086 1098.26 114.91 398.11 541.31 1182.26 287.81 1364.91 303.49 1244.56 394.04 1181.16 492.00 1334.53 506.00
00054396 00000087 1098.50 110.06 395.87 542.65 1181.70 284.93 1363.90 300.25 1244.00 390.63 1180.31 489.06 1333.12 503.02
00054397 00000088 1097.81 107.68 396.80 543.55 1181.61 283.55 1364.42 297.61 1244.50 387.49 1180.92 487.17 1334.65 499.86
00054398 00000089 1097.73 109.26 396.34 539.77 1180.96 282.17 1364.70 295.80 1243.87 383.60 1180.16 485.63 1334.06 498.02
00054399 00000090 1096.81 111.25 396.47 535.87 1178.85 282.14 1362.90 294.42 1241.25 380.55 1178.62 484.46 1332.16 495.84
00054400 00000091 1095.99 111.71 396.89 534.64 1177.19 282.04 1360.48 293.09 1238.71 379.90 1177.51 483.92 1330.15 494.31
00054401 00000092 1095.26 112.81 396.33 533.35 1175.43 282.98 1358.28 293.37 1236.90 381.70 1176.24 484.92 1328.43 494.94
00054402 00000093 1094.47 112.70 395.72 534.70 1174.61 283.59 1357.61 293.74 1237.37 382.92 1176.17 486.75 1327.86 496.58
00054403 00000094 1093.10 110.27 396.08 539.59 1173.41 284.35 1356.71 294.06 1237.19 384.65 1175.21 489.46 1326.30 499.02
00054404 00000095 1091.52 109.67 396.49 543.95 1170.71 284.92 1355.15 292.14 1235.22 385.04 1173.77 493.40 1323.50 500.85
00054405 00000096 1089.82 111.32 396.76 542.27 1168.33 285.68 1353.81 292.47 1233.06 384.30 1171.54 494.66 1321.01 501.99
00054406 00000097 1086.02 109.82 398.15 541.55 1165.45 286.42 1351.42 293.70 1231.66 383.89 1168.88 493.65 1319.82 501.34
00054407 00000098 1083.93 107.72 398.05 542.14 1164.56 288.55 1350.33 297.13 1231.47 383.65 1167.39 493.46 1320.44 502.06
00054408 00000099 1082.16 109.07 398.38 541.07 1164.56 292.39 1349.45 301.65 1231.32 384.49 1166.35 494.74 1320.35 503.83
00054409 00000100 1081.81 110.32 399.04 541.77 1163.76 291.46 1349.33 301.00 1231.66 386.41 1166.20 496.40 1318.43 505.78
00054410 00000101 1081.61 110.54 398.24 541.61 1163.13 291.72 1349.04 301.05 1231.63 386.19 1166.08 497.46 1316.82 506.57
00054411 00000102 1080.36 111.34 399.53 540.90 1162.38 290.52 1348.74 300.12 1231.65 385.83 1166.00 497.29 1315.11 506.68
00054412 00000103 1079.67 111.32 398.71 543.79 1161.18 289.25 1347.85 298.35 1231.64 385.56 1166.38 498.54 1315.25 507.53
00054413 00000104 1078.52 107.40 398.15 549.94 1159.85 288.79 1346.02 297.19 1230.52 384.08 1164.88 497.69 1315.20 505.89
00054414 00000105 1077.59 102.34 397.13 553.12 1158.11 291.46 1340.77 298.57 1227.44 381.17 1162.39 494.57 1314.49 501.66
00054415 00000106 1078.46 103.62 392.87 545.58 1158.41 293.23 1339.63 300.25 1223.62 377.11 1161.11 489.70 1314.25 496.86
00054416 00000107 1077.81 100.33 392.21 546.71 1156.49 292.78 1339.05 298.55 1221.26 374.19 1160.32 488.81 1315.31 494.77
00054417 00000108 1073.73 101.80 394.58 543.95 1153.68 287.67 1334.63 293.64 1220.48 371.88 1158.75 485.57 1311.26 491.68
00054418 00000109 1070.41 108.69 395.05 534.01 1150.56 282.29 1335.04 289.26 1219.63 369.69 1156.42 484.57 1308.19 491.32
00054419 00000110 1067.89 114.11 395.08 527.78 1147.80 282.85 1331.91 287.70 1218.28 367.70 1155.94 485.31 1307.26 490.00
00054420 00000111 1066.40 115.49 393.31 526.45 1144.87 284.45 1329.60 287.46 1216.18 368.63 1155.16 487.83 1307.34 490.89
00054421 00000112 1064.89 113.45 392.35 528.56 1142.26 284.58 1326.07 287.04 1213.66 369.03 1152.95 487.74 1304.44 490.48
00054422 00000113 1062.74 110.74 392.03 530.87 1139.27 284.64 1323.10 285.50 1210.87 368.86 1150.75 488.03 1302.04 489.48
00054423 00000114 1061.71 109.17 391.96 532.14 1137.24 286.29 1319.97 285.48 1208.60 368.99 1149.40 488.15 1299.61 488.37
00054424 00000115 1061.40 107.17 390.62 533.39 1135.87 285.43 1317.79 284.44 1206.55 368.07 1147.39 487.29 1297.45 487.42
00054425 00000116 1060.89 106.08 389.19 533.52 1134.57 285.80 1315.72 283.63 1204.18 366.30 1145.32 487.11 1296.22 486.63
00054426 00000117 1059.55 103.66 388.56 536.05 1132.64 285.75 1312.98 282.46 1201.36 365.66 1144.32 487.18 1294.21 485.87
00054427 00000118 1058.93 103.08 387.33 537.89 1130.77 285.70 1310.89 281.46 1197.94 364.62 1142.08 487.58 1293.53 485.35
00054428 00000119 1057.91 102.95 386.17 540.03 1128.91 284.84 1308.95 279.00 1195.56 361.43 1140.94 488.13 1292.98 484.47
00054429 00000120 1056.02 105.64 385.48 538.05 1125.50 283.09 1305.66 276.21 1193.13 360.62 1139.99 488.78 1291.12 483.94
00054430 00000121 1055.56 106.14 384.25 537.16 1123.64 283.08 1303.19 275.13 1191.08 361.38 1139.50 490.22 1289.07 484.37
00054431 00000122 1054.94 105.25 381.08 536.64 1122.32 283.13 1301.39 275.10 1188.84 362.64 1138.47 491.16 1287.11 485.10
00054432 00000123 1049.45 108.61 389.64 525.03 1117.23 277.15 1297.93 275.49 1179.25 368.98 1133.22 490.75 1280.82 490.91
00054433 00000124 1048.94 108.32 388.27 523.14 1116.88 277.33 1297.41 275.78 1178.45 369.22 1132.45 490.39 1278.93 490.78
00054434 00000125 1049.52 109.41 385.40 519.57 1116.65 277.03 1295.43 276.44 1176.70 371.00 1132.16 490.10 1275.53 491.44
00054435 00000126 1048.19 109.02 386.03 521.58 1114.26 277.49 1294.20 277.53 1174.09 373.09 1130.04 492.14 1273.44 494.04
00054436 00000127 1047.85 108.54 385.76 522.26 1114.02 278.06 1294.44 278.08 1174.17 373.88 1130.17 493.32 1273.12 495.22
00054437 00000128 1047.63 109.00 386.80 528.03 1114.66 277.86 1295.53 277.81 1175.66 373.76 1132.21 495.30 1274.03 497.03
00054438 00000129 1046.88 108.32 390.25 537.46 1116.84 279.32 1297.91 278.38 1179.43 373.49 1136.68 499.20 1278.22 500.01
00054439 00000130 1053.39 103.45 381.58 540.69 1121.87 282.51 1300.53 278.01 1187.56 369.37 1136.18 494.73 1283.05 491.62
00054440 00000131 1055.38 100.24 382.29 533.11 1127.62 283.19 1305.69 280.42 1193.95 367.77 1136.75 489.59 1284.66 488.15
00054441 00000132 1056.91 98.13 386.16 535.33 1130.90 279.43 1310.00 276.39 1198.32 361.85 1140.70 483.14 1288.22 481.67
00054442 00000133 1060.47 98.57 388.67 535.23 1136.29 275.83 1314.37 275.12 1202.83 359.47 1144.96 481.54 1289.50 481.95
00054443 00000134 1063.98 99.04 390.33 535.46 1143.36 273.71 1321.45 275.82 1209.96 359.40 1153.33 479.64 1295.90 482.05
00054444 00000135 1068.48 99.66 390.62 540.26 1148.13 270.19 1328.06 274.48 1215.68 356.09 1158.42 479.85 1301.31 484.13
00054445 00000136 1072.78 103.96 390.43 537.03 1153.39 267.76 1334.29 273.07 1221.90 356.74 1164.15 479.57 1304.28 485.06
00054446 00000137 1078.69 104.30 388.85 535.01 1159.07 272.26 1339.95 276.85 1226.16 358.12 1168.04 479.18 1310.86 484.39
00054447 00000138 1082.23 101.74 389.00 533.93 1166.08 275.17 1346.46 280.87 1231.79 358.79 1170.06 477.02 1316.84 483.24
00054448 00000139 1086.38 102.34 387.78 530.42 1172.64 275.15 1352.26 281.60 1237.92 360.85 1175.05 475.77 1320.48 482.43
00054449 00000140 1089.05 103.36 387.29 528.19 1175.43 276.97 1356.47 282.12 1241.93 360.65 1179.00 477.21 1326.35 482.54
00054450 00000141 1091.50 105.38 387.11 526.26 1178.60 276.60 1358.99 282.55 1244.81 360.92 1182.65 477.14 1328.48 483.04
CROP_BBOX: 813 0 1687 828
