Video ID: 	4dkTtI5SIC8
H: 	1080
W: 	1920
FPS: 	25.0

FRAME INDEX X0 Y0 W H [Landmarks (5 Points)]

00069041 00000000 496.26 245.54 426.64 645.30 645.15 482.18 852.34 491.93 780.29 620.65 659.31 733.52 818.34 743.82
00069042 00000001 492.36 246.16 429.80 632.97 643.05 481.93 849.64 484.60 784.87 625.51 666.18 733.84 822.95 735.43
00069043 DELETE   487.96 243.28 431.30 632.55 641.39 493.00 846.01 495.19 782.92 624.83 663.04 730.44 823.21 731.29
00069044 00000003 493.93 234.86 427.30 639.93 644.11 491.73 848.75 500.76 774.04 612.75 655.18 721.50 819.57 730.37
00069045 00000004 484.01 233.39 429.59 643.41 636.59 481.77 834.75 484.81 768.99 613.54 654.64 726.27 811.98 728.18
00069046 DELETE   474.77 230.00 435.88 646.48 619.38 471.96 827.17 477.68 757.01 608.50 638.14 723.13 805.53 727.37
00069047 00000006 474.50 226.06 434.11 653.85 615.02 462.76 822.12 475.29 745.30 598.03 624.40 716.64 795.20 726.50
00069048 00000007 472.35 227.94 435.27 654.35 611.47 456.83 817.62 472.36 735.58 595.24 613.48 713.23 785.51 725.71
00069049 00000008 470.72 223.68 437.24 655.19 606.34 452.45 816.95 468.99 730.01 586.97 608.24 709.04 782.37 722.41
00069050 00000009 468.02 222.23 437.44 651.31 601.16 447.06 815.24 464.81 725.20 579.11 603.26 704.00 778.08 718.39
00069051 00000010 465.22 220.89 432.84 647.63 591.84 439.33 808.32 455.13 720.93 573.15 600.13 700.34 773.80 712.78
00069052 00000011 461.43 222.65 433.09 631.03 581.46 436.27 802.63 451.12 710.44 567.39 591.32 691.50 769.80 702.87
00069053 00000012 454.71 216.07 432.05 616.80 576.69 430.24 799.66 443.79 703.12 558.24 587.24 682.10 765.39 691.92
00069054 00000013 447.10 209.53 439.04 618.87 568.19 425.53 792.78 439.49 691.44 555.12 579.68 672.21 759.81 684.77
00069055 00000014 445.71 207.62 437.25 613.52 565.88 420.95 788.75 434.85 686.50 548.70 578.36 667.61 755.45 680.02
00069056 00000015 445.69 207.04 434.19 611.92 564.10 418.60 787.11 432.37 683.17 545.50 575.94 665.26 753.72 677.63
00069057 00000016 446.32 206.04 433.81 609.78 564.72 417.26 787.06 431.23 682.85 543.57 576.35 662.92 753.60 675.38
00069058 00000017 446.95 204.84 433.81 611.85 565.58 416.71 787.33 430.83 683.26 542.95 577.00 662.86 753.26 675.43
00069059 00000018 447.45 204.69 435.82 613.92 568.02 417.42 788.67 432.32 686.05 544.05 579.33 663.33 754.60 676.53
00069060 00000019 448.81 204.90 437.57 616.22 570.19 417.02 790.99 433.59 689.41 545.89 580.54 664.45 756.31 678.92
00069061 00000020 452.74 203.46 437.30 622.36 575.45 418.21 794.79 436.81 694.37 548.88 584.77 666.55 759.93 682.63
00069062 00000021 461.26 209.69 426.64 618.21 583.15 415.25 804.01 436.89 707.38 547.90 587.65 673.59 762.81 690.20
00069063 00000022 465.26 211.00 425.33 625.70 588.08 416.52 808.05 439.11 713.49 551.54 591.59 676.77 765.58 694.51
00069064 00000023 466.43 212.00 425.14 627.77 591.82 421.08 810.62 444.00 718.13 555.99 592.45 680.74 764.88 698.99
00069065 00000024 462.65 212.25 429.17 635.03 588.93 422.21 807.44 445.78 715.21 558.88 591.13 682.59 762.10 701.44
00069066 00000025 453.52 214.77 432.20 631.27 581.61 426.50 801.66 446.94 709.00 559.28 585.81 682.91 758.76 699.24
00069067 00000026 445.42 215.53 433.26 626.34 573.27 428.34 793.71 445.97 697.64 558.55 578.29 680.65 752.77 694.50
00069068 00000027 431.03 208.72 433.41 626.36 556.64 429.82 769.90 442.60 674.42 560.53 565.15 677.37 737.36 686.79
00069069 00000028 417.59 204.96 441.31 624.75 542.05 431.42 756.82 443.00 658.52 559.18 554.44 677.21 727.53 684.59
00069070 00000029 410.29 206.46 439.64 617.31 526.55 428.35 746.88 441.09 641.93 555.21 538.90 673.55 719.65 681.65
00069071 00000030 408.12 207.79 435.59 612.34 519.08 425.12 740.24 438.07 633.20 551.82 531.71 670.63 713.21 678.90
00069072 00000031 407.73 206.41 435.02 617.67 517.70 425.04 738.35 436.79 632.15 551.58 531.96 671.18 712.50 678.48
00069073 00000032 409.07 208.99 437.94 617.94 521.67 426.74 741.00 437.92 636.30 554.89 535.50 671.98 715.30 678.83
00069074 00000033 411.79 208.43 442.54 621.51 529.33 432.15 747.62 443.55 644.27 559.15 543.29 677.13 721.84 684.05
00069075 00000034 418.50 208.47 441.21 635.08 542.94 435.01 755.96 449.00 657.40 562.65 554.36 685.16 724.17 694.49
00069076 00000035 427.04 212.25 435.54 645.97 553.10 435.73 765.45 450.93 667.71 566.51 557.62 688.75 732.28 699.66
00069077 00000036 439.79 223.51 433.84 630.07 563.74 437.86 781.63 454.49 681.90 573.25 561.89 687.79 744.71 701.61
00069078 00000037 438.64 223.75 447.19 625.46 568.29 441.27 789.22 456.54 687.90 575.76 572.65 686.13 749.71 699.77
00069079 00000038 441.71 222.23 449.28 620.75 572.13 440.99 794.62 457.13 692.80 574.56 577.96 682.54 756.21 696.88
00069080 00000039 442.71 220.15 449.90 620.21 572.20 440.15 796.38 457.23 691.81 572.75 576.55 680.08 757.13 695.12
00069081 00000040 444.35 216.63 449.23 622.96 571.78 438.20 796.92 456.35 690.62 570.02 575.66 678.38 757.11 694.29
00069082 00000041 445.19 216.34 449.34 620.85 572.83 436.69 798.18 455.46 691.75 568.83 576.34 677.05 757.84 693.54
00069083 00000042 447.49 215.64 446.07 619.74 574.21 435.84 799.42 455.30 694.16 568.10 577.61 676.09 758.83 693.15
00069084 00000043 450.45 216.18 445.15 622.55 576.26 435.02 801.83 455.32 697.20 569.47 579.27 677.99 761.28 695.68
00069085 00000044 458.86 220.18 437.04 630.39 581.65 432.51 803.78 454.06 702.41 566.15 581.90 683.73 764.92 700.56
00069086 00000045 458.54 222.38 438.08 633.00 580.67 433.94 802.86 454.85 701.84 567.76 582.28 687.71 761.96 704.20
00069087 00000046 457.08 221.98 439.68 625.30 581.97 437.34 802.87 458.81 700.16 570.70 583.17 682.25 764.42 699.00
00069088 00000047 457.09 221.54 437.90 621.81 580.82 437.38 802.13 458.12 699.21 569.59 581.92 680.98 764.63 697.07
00069089 00000048 458.18 221.17 435.95 625.99 579.96 434.16 801.76 454.97 698.77 567.49 580.81 683.20 762.59 699.46
00069090 00000049 459.08 221.31 436.51 634.46 578.84 432.94 800.47 452.97 698.56 567.64 578.90 687.25 760.68 703.06
00069091 00000050 460.14 221.82 435.72 640.78 579.55 433.12 799.50 454.27 698.33 569.05 577.47 690.04 758.69 707.07
00069092 00000051 460.40 222.59 436.70 632.26 580.35 434.51 802.47 455.00 699.90 569.28 581.28 688.55 762.29 704.62
00069093 00000052 463.42 220.93 435.93 625.27 584.03 434.54 804.19 455.88 700.51 568.41 585.56 682.57 766.33 698.85
00069094 00000053 465.46 220.60 434.60 620.66 585.57 434.89 804.67 455.27 701.22 567.40 588.22 682.02 768.63 697.20
00069095 00000054 465.86 220.55 435.64 621.65 585.22 434.45 803.80 454.42 699.66 567.39 589.05 681.84 768.45 696.60
00069096 00000055 466.47 221.12 436.32 620.68 586.04 434.57 804.46 454.78 700.56 567.65 590.86 681.49 768.61 696.41
00069097 00000056 468.03 220.10 435.52 620.27 586.84 434.45 804.94 452.89 702.11 566.86 593.57 681.53 771.33 694.85
00069098 00000057 469.30 219.86 435.23 621.16 588.23 435.22 805.91 453.45 703.74 567.79 594.71 682.31 771.86 695.49
00069099 00000058 470.56 220.15 435.20 620.37 589.61 434.86 807.25 453.99 704.76 567.38 595.74 684.35 768.13 698.54
00069100 00000059 473.19 222.33 434.22 626.11 591.29 436.14 809.88 456.95 706.34 569.42 594.53 690.00 768.44 705.94
00069101 00000060 475.22 221.07 437.13 632.57 594.57 437.22 812.87 459.30 707.21 571.94 594.76 690.50 770.12 707.60
00069102 00000061 476.85 219.20 438.84 637.63 597.69 437.80 815.18 460.78 710.40 572.97 595.70 690.12 773.37 707.87
00069103 00000062 476.95 219.74 442.33 637.96 599.88 439.99 818.31 463.31 714.39 572.74 597.16 689.38 778.04 707.39
00069104 00000063 478.71 220.64 443.33 636.56 601.98 440.09 821.00 463.75 715.69 572.33 598.68 688.64 780.94 706.96
00069105 00000064 478.99 221.03 444.73 636.71 603.26 439.95 822.79 464.37 716.60 573.00 598.17 687.48 782.25 706.55
00069106 00000065 479.14 222.02 446.19 633.96 602.78 441.21 823.24 464.31 716.50 573.14 598.91 686.76 785.95 704.69
00069107 00000066 479.06 222.20 448.31 631.54 603.78 441.47 824.36 464.43 717.46 573.93 599.43 685.14 788.45 702.95
00069108 00000067 479.02 221.75 449.22 626.92 604.35 443.04 826.12 465.96 718.13 574.33 600.78 684.35 791.89 702.01
00069109 00000068 478.62 222.27 449.90 624.87 604.50 444.05 826.61 467.23 717.92 574.85 600.65 684.55 792.86 702.43
00069110 00000069 478.94 222.46 449.42 623.38 604.44 444.21 826.66 467.42 717.55 575.03 600.48 684.65 792.30 702.59
00069111 00000070 479.57 222.13 449.43 622.73 604.15 444.35 826.98 467.11 717.26 574.65 601.07 685.61 792.50 703.09
00069112 00000071 479.83 221.61 449.05 625.65 604.29 444.22 826.75 466.87 717.41 574.95 601.47 686.50 791.99 703.83
00069113 00000072 480.94 222.14 449.82 630.90 605.67 444.33 826.45 467.77 717.11 575.31 601.53 687.75 789.27 705.85
00069114 00000073 481.29 220.91 449.10 632.88 605.30 446.11 825.40 469.12 716.60 577.07 602.71 691.12 787.71 708.82
00069115 00000074 480.36 223.58 448.12 638.33 605.09 448.55 823.74 471.08 715.39 581.46 603.35 694.79 786.73 712.22
00069116 00000075 479.79 225.39 448.19 639.72 604.05 451.43 822.02 474.25 712.40 583.64 601.31 697.10 784.14 715.04
00069117 00000076 479.28 225.28 448.36 639.78 602.34 452.17 820.70 474.90 709.69 584.07 600.41 697.60 782.98 715.44
00069118 00000077 477.57 224.71 446.22 639.14 599.91 461.55 816.25 483.18 705.97 584.31 598.56 697.37 782.53 714.69
00069119 00000078 475.53 226.71 445.71 634.08 595.94 461.36 812.47 482.13 701.28 582.27 596.35 696.57 779.61 713.11
00069120 00000079 475.08 229.26 447.71 633.75 589.50 456.25 812.35 473.94 698.03 581.04 594.22 698.19 780.24 711.93
00069121 00000080 475.10 228.32 447.44 635.29 586.11 454.01 809.32 471.17 694.59 581.86 592.23 698.41 778.50 711.59
00069122 00000081 475.09 230.68 447.27 631.67 583.39 453.67 807.08 470.05 691.05 584.61 590.43 699.70 774.91 712.28
00069123 00000082 474.46 233.48 447.31 630.88 582.15 454.57 805.92 470.90 689.67 586.17 589.32 700.95 773.44 713.69
00069124 00000083 476.17 233.76 447.21 632.39 584.08 453.96 807.64 470.53 691.22 587.45 590.89 701.99 774.05 714.87
00069125 00000084 477.80 233.77 447.20 631.76 586.56 453.81 810.24 470.65 693.35 587.99 593.51 702.20 775.44 715.28
00069126 00000085 479.47 231.01 447.02 633.99 588.97 453.12 811.82 469.97 694.34 587.54 595.62 701.41 777.77 714.25
00069127 00000086 480.43 231.10 447.72 631.39 589.85 451.35 812.66 468.79 694.65 586.48 596.55 699.60 778.11 712.82
00069128 00000087 480.77 229.60 447.14 633.97 588.64 450.05 811.31 467.19 692.29 584.95 595.74 698.86 777.54 711.69
00069129 00000088 480.93 228.96 445.99 639.03 587.52 449.77 809.30 466.01 689.67 585.54 595.34 700.33 775.95 712.43
00069130 00000089 482.03 229.74 446.00 639.69 587.66 451.37 808.49 466.87 689.26 587.24 595.92 702.57 774.21 714.14
00069131 00000090 482.24 231.20 446.11 639.95 588.14 452.48 808.55 468.40 688.89 589.01 596.32 703.74 773.60 715.78
00069132 00000091 483.45 232.37 446.57 642.15 588.41 454.38 808.91 469.90 689.09 591.83 595.87 706.01 773.55 717.61
00069133 00000092 485.09 231.39 446.15 644.44 590.18 456.00 810.22 471.93 690.39 593.98 596.49 707.44 774.07 719.27
00069134 00000093 485.85 232.41 446.43 639.52 592.39 456.86 811.77 472.77 692.63 595.61 597.45 707.12 773.36 718.96
00069135 00000094 485.86 233.49 448.98 637.01 595.46 457.05 814.50 474.52 695.37 597.98 599.48 705.03 775.86 718.14
00069136 00000095 486.25 233.65 450.44 634.68 595.14 458.87 813.71 474.32 695.30 597.95 601.73 705.36 777.23 716.72
00069137 00000096 486.05 234.46 450.64 635.64 595.04 459.69 812.35 475.68 693.42 598.99 601.81 707.03 773.83 718.86
00069138 00000097 485.65 234.07 448.80 641.34 592.52 460.77 809.76 477.00 690.89 602.28 600.68 711.12 771.04 723.23
00069139 00000098 484.55 236.36 446.42 639.03 589.71 462.35 808.23 476.69 689.50 604.67 600.94 714.57 771.42 724.96
00069140 00000099 484.47 236.73 445.38 638.03 589.76 462.97 807.55 478.40 689.10 606.23 600.16 715.09 769.55 726.44
00069141 00000100 483.33 236.57 446.42 637.04 587.55 462.63 806.37 477.01 687.24 604.67 598.94 714.73 768.51 725.31
00069142 00000101 481.37 233.31 445.04 639.88 584.41 460.15 801.88 475.54 681.73 601.87 593.96 712.38 763.74 724.00
00069143 00000102 479.23 233.11 446.78 640.98 580.67 457.77 798.10 473.35 677.15 598.29 590.85 710.25 760.02 722.20
00069144 00000103 479.06 233.82 446.34 641.05 579.14 456.76 795.74 473.14 673.72 598.45 588.26 710.23 755.70 723.03
00069145 00000104 478.83 234.28 446.00 638.86 579.35 458.45 796.73 474.73 675.27 599.73 588.55 710.58 757.27 723.20
00069146 00000105 479.99 233.82 444.72 637.46 582.82 461.14 800.20 475.60 681.72 601.21 592.93 712.32 763.56 723.15
00069147 00000106 481.95 231.24 447.08 638.33 595.52 475.17 810.78 490.27 696.22 605.50 604.81 713.27 777.44 725.03
00069148 DELETE   489.82 228.58 449.31 644.49 607.52 472.84 822.97 484.11 716.58 607.89 624.67 720.81 794.62 728.61
00069149 DELETE   502.25 228.44 442.62 643.82 621.17 465.36 839.98 481.11 734.68 609.18 631.08 713.91 801.20 727.88
00069150 00000109 509.91 238.49 440.04 637.65 631.51 466.87 847.70 482.77 743.41 609.80 640.11 715.12 808.60 729.36
00069151 00000110 515.76 243.47 437.01 629.84 638.99 467.36 857.62 484.93 753.68 610.17 645.58 716.31 815.66 731.87
00069152 00000111 520.23 245.26 435.73 631.08 644.15 468.91 862.14 489.46 756.83 612.44 643.02 715.28 819.52 733.41
00069153 00000112 520.76 247.40 434.81 640.13 645.84 470.67 862.54 493.10 758.39 614.60 643.20 718.26 821.04 737.91
00069154 00000113 519.64 253.26 438.10 644.98 646.54 473.50 863.86 496.13 760.17 618.39 644.20 724.45 821.83 744.33
00069155 00000114 520.18 254.51 437.52 646.15 646.33 475.54 864.80 498.86 759.69 622.76 643.44 726.61 822.85 746.92
00069156 00000115 519.32 257.08 439.25 642.64 647.65 477.56 865.78 501.24 760.13 624.57 644.02 726.22 823.12 746.87
00069157 00000116 519.58 260.53 440.99 637.14 647.74 479.85 869.08 503.86 761.32 627.47 642.43 726.08 825.62 746.94
00069158 00000117 520.23 262.72 442.13 631.20 648.49 481.85 871.34 506.56 762.27 629.44 641.33 723.91 828.26 745.26
00069159 00000118 521.75 261.87 441.87 627.72 649.68 481.95 873.21 507.42 762.93 629.30 642.63 722.34 829.35 744.29
00069160 00000119 521.35 261.90 442.35 628.19 649.75 481.47 873.47 506.59 763.63 629.57 642.54 721.67 830.47 743.32
00069161 00000120 521.09 261.52 441.80 625.54 649.82 480.31 872.84 505.94 763.05 627.79 641.84 719.44 829.41 741.54
00069162 00000121 520.81 259.42 441.24 626.14 649.13 477.44 871.72 503.33 760.71 624.86 640.53 717.73 827.69 740.02
00069163 00000122 521.04 258.30 438.98 623.63 648.15 476.94 870.70 502.57 759.69 623.69 639.49 717.28 826.25 739.38
00069164 00000123 520.17 257.57 439.14 623.44 647.53 477.42 869.22 503.16 758.96 624.34 638.69 716.93 824.68 739.18
00069165 00000124 517.66 261.97 440.23 622.17 645.57 478.11 867.31 503.70 757.92 625.31 637.21 718.09 823.10 740.33
00069166 00000125 514.61 263.75 441.92 621.07 643.88 478.64 866.06 503.83 757.58 625.34 635.59 718.21 822.14 740.23
00069167 00000126 513.37 260.52 440.54 622.71 640.85 482.82 864.23 505.06 756.62 624.67 634.12 719.38 823.25 738.90
00069168 00000127 510.78 258.55 438.67 620.61 640.37 496.47 862.00 514.29 756.93 627.73 634.55 721.75 821.84 737.77
00069169 00000128 509.37 258.02 438.11 626.45 639.03 489.82 859.19 510.02 754.78 626.58 632.13 721.53 818.07 739.68
00069170 00000129 508.74 261.89 437.53 625.40 637.83 486.36 857.81 506.15 754.44 626.73 633.67 725.04 814.62 743.20
00069171 00000130 508.97 262.41 437.30 625.20 635.87 485.88 856.44 503.96 754.10 627.62 637.42 729.37 811.71 746.08
00069172 00000131 507.74 261.14 436.99 626.26 635.28 485.34 853.29 503.10 752.69 627.68 639.31 729.23 808.80 745.65
00069173 00000132 505.77 260.52 435.49 628.69 634.92 484.47 849.20 501.44 751.66 626.73 640.10 729.41 804.24 745.58
00069174 00000133 499.89 255.69 435.33 631.25 632.85 482.37 845.18 500.14 749.70 624.35 636.50 724.71 801.95 741.38
00069175 00000134 490.19 259.35 435.48 616.55 622.08 486.06 834.34 497.30 744.23 630.76 629.10 729.03 798.29 737.30
00069176 DELETE   476.83 242.67 441.81 636.82 607.19 484.04 821.67 495.57 724.54 622.69 612.44 719.59 795.66 729.10
CROP_BBOX: 166 0 1142 1040
