Video ID: 	aUsBWZJhvz8
H: 	1080
W: 	1920
FPS: 	25.0

FRAME INDEX X0 Y0 W H [Landmarks (5 Points)]

00002750 00000000 1000.19 181.33 368.21 512.71 1067.87 376.71 1229.17 395.48 1120.13 493.19 1066.95 531.60 1237.02 542.38
00002751 00000001 1000.23 180.14 367.96 512.44 1067.56 377.92 1227.41 395.43 1119.61 492.92 1067.62 531.18 1237.18 540.86
00002752 00000002 1001.04 181.62 367.28 511.63 1067.28 377.94 1226.84 395.36 1118.28 492.44 1067.88 531.36 1237.11 540.97
00002753 00000003 999.38 183.37 368.55 508.43 1067.35 379.45 1229.49 400.07 1115.91 492.13 1065.37 528.48 1236.53 544.56
00002754 00000004 999.68 181.22 366.01 509.72 1067.73 376.05 1229.15 395.46 1115.79 488.12 1065.87 527.69 1235.67 542.84
00002755 00000005 999.26 175.60 365.28 512.60 1067.66 373.68 1227.80 390.88 1116.43 484.45 1067.59 526.98 1235.72 540.30
00002756 00000006 997.31 173.87 366.48 510.70 1068.57 370.52 1225.08 385.68 1115.41 474.35 1068.70 526.25 1228.14 537.68
00002757 00000007 998.39 170.62 367.79 513.07 1068.99 362.24 1220.71 379.20 1115.10 469.05 1067.31 522.26 1219.77 532.58
00002758 00000008 996.35 164.34 367.96 513.56 1067.89 361.01 1217.75 375.96 1115.53 463.68 1067.81 520.35 1216.90 529.96
00002759 00000009 991.78 159.51 372.43 515.28 1075.08 360.10 1232.30 370.51 1133.31 460.71 1085.17 520.66 1235.60 528.74
00002760 00000010 994.98 149.46 379.42 521.93 1088.49 357.31 1248.63 365.21 1158.85 458.72 1103.67 517.53 1254.86 523.69
00002761 00000011 998.48 148.02 383.69 520.72 1098.84 355.23 1258.78 359.32 1174.67 456.10 1115.87 516.28 1265.35 519.69
00002762 DELETE   996.48 147.50 382.85 522.65 1094.80 355.50 1254.64 361.81 1168.25 456.73 1109.97 515.98 1259.65 521.05
00002763 00000013 995.19 149.51 376.57 521.36 1083.03 351.74 1242.43 363.43 1144.56 451.32 1093.64 513.06 1244.46 522.23
00002764 00000014 997.37 152.26 368.06 522.39 1068.94 351.08 1217.94 358.86 1116.10 448.99 1073.60 514.66 1220.31 518.18
00002765 00000015 986.20 150.81 363.04 516.89 1052.46 343.55 1196.93 356.20 1092.43 442.61 1058.18 511.19 1196.35 519.77
00002766 DELETE   983.44 160.10 354.28 511.64 1035.85 350.26 1183.18 346.68 1078.50 442.99 1046.22 517.10 1191.12 515.60
00002767 DELETE   978.89 163.26 353.88 510.46 1032.68 357.73 1180.76 353.03 1077.79 446.14 1042.90 519.16 1191.93 516.54
00002768 00000018 975.90 167.56 357.93 509.59 1033.41 364.97 1182.27 359.63 1082.78 453.07 1046.53 524.12 1197.27 520.20
00002769 DELETE   976.46 167.86 360.37 511.69 1036.90 373.56 1189.01 364.41 1095.02 459.70 1053.36 529.96 1208.29 522.52
00002770 DELETE   973.42 171.49 366.72 512.74 1042.91 379.46 1196.27 367.73 1110.81 469.29 1062.71 531.28 1220.41 522.00
00002771 00000021 970.73 174.26 370.25 512.52 1043.56 386.13 1200.53 369.23 1119.48 480.38 1065.27 536.01 1230.13 522.89
00002772 00000022 966.37 174.71 371.05 509.05 1040.77 384.87 1196.56 367.61 1118.01 476.54 1063.40 534.42 1224.85 520.87
00002773 00000023 963.64 167.42 368.75 508.36 1031.26 380.43 1188.70 361.82 1103.82 465.28 1054.71 533.72 1213.70 518.21
00002774 00000024 955.42 159.43 364.92 506.51 1020.65 374.25 1180.42 361.94 1083.14 464.09 1046.52 528.32 1201.47 517.80
00002775 00000025 954.34 165.31 363.34 494.91 1014.31 367.50 1170.37 353.23 1072.45 458.18 1042.86 523.71 1192.77 511.39
00002776 00000026 953.32 156.15 366.85 497.29 1017.59 359.99 1170.97 344.74 1075.79 444.97 1046.42 516.80 1192.33 504.14
00002777 00000027 954.08 152.25 369.30 493.08 1023.16 349.08 1176.56 332.17 1084.13 427.76 1048.88 504.74 1198.60 491.05
00002778 00000028 955.74 145.52 369.83 492.35 1025.79 343.53 1182.18 321.86 1092.17 417.12 1052.24 499.56 1203.50 482.03
00002779 00000029 955.39 142.47 369.47 494.64 1025.83 339.58 1181.76 315.95 1093.72 411.10 1054.35 498.48 1204.29 479.42
00002780 00000030 954.63 142.00 369.17 500.01 1021.31 340.82 1175.19 316.04 1085.61 411.71 1050.40 500.32 1200.67 480.30
00002781 00000031 949.13 142.71 370.83 501.37 1014.75 346.44 1168.02 319.04 1078.71 416.23 1048.43 504.77 1197.74 482.12
00002782 00000032 944.10 140.38 371.59 506.65 1006.99 353.16 1155.19 322.24 1066.64 421.53 1048.15 510.13 1192.27 483.72
00002783 00000033 937.11 142.55 372.18 505.69 998.24 359.79 1145.18 322.64 1056.95 425.44 1045.22 516.78 1186.08 484.75
00002784 00000034 927.70 145.38 372.09 503.37 989.04 365.71 1134.85 325.82 1047.63 429.00 1040.67 519.96 1179.99 485.42
00002785 00000035 916.99 146.00 375.52 503.81 980.98 368.46 1128.45 329.73 1042.63 433.32 1033.87 521.05 1174.24 486.71
00002786 00000036 918.10 135.51 375.47 520.32 974.69 382.06 1118.25 323.12 1039.89 435.57 1032.30 537.30 1174.04 486.57
00002787 00000037 911.03 132.37 376.01 528.27 967.36 382.04 1110.39 319.27 1033.28 433.60 1028.74 539.06 1167.92 485.30
00002788 00000038 905.38 133.34 372.89 526.79 959.93 382.06 1102.52 320.12 1025.27 434.69 1023.48 540.48 1160.95 487.78
00002789 00000039 895.35 146.84 376.36 505.62 958.58 379.20 1094.95 322.87 1019.62 441.08 1016.36 531.95 1148.09 484.78
00002790 00000040 893.39 147.54 375.72 503.72 955.50 380.75 1090.94 325.06 1016.43 442.60 1012.44 533.01 1142.07 486.28
00002791 00000041 891.50 149.96 376.58 502.74 953.41 384.90 1090.42 329.46 1016.17 444.95 1009.95 535.34 1140.43 488.68
00002792 00000042 891.97 152.78 376.56 505.27 953.09 388.03 1091.01 333.48 1016.09 450.29 1009.57 537.93 1141.44 491.96
00002793 00000043 895.40 159.03 374.24 504.88 956.02 391.26 1094.84 340.52 1017.84 458.23 1010.34 542.04 1142.57 499.17
00002794 00000044 902.43 174.75 365.89 500.96 957.04 395.50 1098.32 350.12 1020.84 468.00 1009.24 550.07 1146.17 512.88
00002795 00000045 910.26 167.68 366.44 511.21 967.91 401.64 1110.82 370.20 1026.03 485.11 1013.06 551.03 1155.32 521.86
00002796 00000046 912.60 172.02 370.42 515.09 973.87 404.21 1116.55 376.34 1032.40 494.44 1019.58 559.10 1161.01 532.08
00002797 00000047 920.05 179.06 371.17 512.72 983.31 406.21 1123.86 381.33 1043.19 501.08 1025.69 563.51 1165.70 538.37
00002798 00000048 930.30 196.51 366.78 496.40 988.13 409.63 1135.10 391.33 1048.34 503.48 1032.75 559.79 1175.99 542.53
00002799 00000049 940.70 199.80 369.06 498.00 1004.68 406.89 1153.46 394.67 1066.18 510.03 1041.71 565.15 1183.83 554.20
00002800 00000050 949.13 203.29 368.24 495.55 1012.70 407.28 1162.25 398.56 1073.23 515.54 1045.93 564.79 1190.57 557.40
00002801 00000051 957.17 208.73 367.81 490.33 1022.22 408.98 1174.92 401.33 1084.80 518.35 1049.73 562.93 1201.19 557.18
00002802 00000052 961.32 205.42 368.89 492.86 1026.66 407.85 1181.83 402.95 1089.77 522.78 1048.70 561.96 1204.52 558.85
00002803 00000053 964.56 201.22 368.87 495.54 1030.24 406.01 1188.72 402.49 1094.19 521.70 1049.69 560.36 1209.57 558.50
00002804 00000054 967.84 198.51 370.38 496.54 1034.42 405.81 1193.69 401.93 1099.14 520.50 1053.35 558.93 1214.36 556.80
00002805 00000055 971.38 198.90 370.07 493.96 1039.53 405.32 1198.27 402.00 1104.40 518.03 1056.82 556.40 1217.56 554.87
00002806 00000056 977.34 197.91 367.26 494.56 1046.36 404.77 1204.57 403.37 1110.28 517.53 1059.83 553.88 1222.13 554.13
00002807 00000057 982.51 196.59 365.12 495.88 1051.06 403.57 1210.83 403.25 1115.87 516.95 1064.68 551.72 1229.36 552.94
00002808 00000058 985.67 195.33 364.32 500.05 1055.16 402.68 1214.43 401.96 1120.46 515.83 1068.01 549.93 1234.87 550.83
00002809 00000059 985.84 196.05 367.02 501.63 1057.25 398.27 1217.73 398.44 1123.49 513.65 1068.98 547.96 1238.10 549.85
00002810 00000060 993.68 183.13 363.33 513.81 1059.64 390.10 1215.83 394.12 1118.53 505.58 1065.03 545.78 1227.04 548.22
00002811 00000061 994.04 180.66 364.88 515.71 1061.18 387.64 1218.90 392.19 1121.51 504.52 1066.50 544.56 1227.68 547.60
00002812 00000062 995.19 180.33 365.45 511.86 1062.83 383.72 1221.34 390.07 1123.39 501.61 1067.31 541.76 1226.84 546.64
00002813 00000063 994.90 180.89 369.66 509.86 1063.76 382.83 1223.25 393.83 1122.56 500.14 1067.83 539.26 1229.76 544.54
00002814 00000064 994.92 179.93 370.58 508.27 1064.67 380.35 1225.10 392.66 1122.98 498.33 1067.78 537.17 1229.95 543.58
00002815 00000065 995.76 181.11 369.84 507.36 1066.31 378.56 1226.74 392.16 1124.06 497.67 1068.30 536.42 1230.37 543.77
00002816 00000066 996.41 181.65 370.40 505.52 1067.51 378.11 1228.00 391.83 1124.93 496.24 1069.44 535.02 1230.91 542.55
00002817 00000067 997.17 178.97 370.31 507.97 1069.24 376.65 1229.80 390.51 1127.03 494.41 1070.37 533.42 1232.48 541.14
00002818 00000068 999.19 177.42 369.02 509.13 1070.54 374.98 1230.61 389.04 1127.61 491.80 1071.42 532.53 1233.21 540.43
00002819 00000069 993.82 176.45 370.28 506.49 1067.77 376.42 1231.81 390.29 1124.66 486.66 1072.46 533.71 1232.45 544.36
00002820 00000070 993.73 175.50 369.86 506.09 1067.70 375.37 1230.42 388.90 1123.14 483.90 1072.45 533.97 1228.71 544.36
00002821 00000071 997.81 172.39 366.19 513.06 1069.98 371.39 1224.07 384.53 1123.91 483.58 1071.62 531.86 1222.55 539.36
00002822 00000072 993.38 167.11 368.64 517.10 1065.96 368.88 1219.59 379.69 1121.94 482.47 1072.57 533.75 1219.45 539.72
00002823 00000073 988.54 162.62 368.34 517.19 1060.15 365.81 1213.25 374.96 1117.54 476.76 1072.40 534.09 1212.24 539.64
00002824 00000074 982.33 158.07 368.68 520.28 1052.24 362.58 1206.83 369.62 1110.90 473.00 1071.59 537.82 1204.97 542.45
00002825 00000075 974.10 153.42 370.43 521.52 1038.05 362.36 1197.46 355.32 1103.31 462.77 1065.16 548.49 1195.68 543.08
00002826 00000076 967.47 155.99 367.27 517.87 1030.01 361.23 1186.02 349.50 1092.76 458.11 1060.66 545.68 1187.69 537.35
00002827 00000077 960.79 158.22 367.93 513.77 1022.70 361.34 1175.61 345.51 1083.88 450.45 1052.93 538.18 1182.64 526.32
00002828 00000078 950.81 153.08 372.13 514.69 1015.83 366.02 1164.18 349.43 1071.54 452.27 1050.96 534.52 1179.18 521.17
00002829 00000079 946.50 151.40 371.43 513.33 1011.02 366.65 1158.07 348.39 1066.49 451.43 1048.59 533.80 1176.93 518.92
00002830 00000080 944.01 150.92 370.52 512.92 1008.73 367.24 1155.02 347.97 1064.94 450.65 1048.39 534.13 1176.11 518.15
00002831 00000081 941.85 152.23 370.84 513.26 1008.83 375.61 1152.58 352.93 1065.66 452.90 1048.37 536.65 1174.86 518.04
00002832 00000082 942.76 156.27 367.63 512.92 1008.47 378.37 1151.49 355.03 1063.87 454.76 1046.60 539.54 1174.05 520.50
00002833 00000083 942.30 159.31 366.75 513.47 1006.11 380.94 1148.52 357.63 1060.10 458.81 1043.93 543.89 1170.67 524.89
00002834 00000084 942.49 159.49 365.21 515.69 1006.34 380.46 1147.16 361.19 1058.88 463.66 1043.37 545.29 1167.39 529.67
00002835 00000085 943.80 161.61 364.80 515.29 1007.13 381.84 1148.47 364.80 1058.96 466.53 1043.21 545.70 1169.26 531.76
00002836 00000086 944.73 164.26 365.30 514.58 1010.00 382.06 1151.61 367.93 1063.06 469.29 1045.38 545.91 1171.82 534.35
00002837 00000087 952.73 174.98 361.64 504.14 1015.02 380.51 1161.43 367.73 1075.51 469.12 1045.29 547.70 1172.80 538.11
00002838 00000088 953.90 175.38 363.47 505.97 1016.62 382.55 1165.94 371.73 1078.59 474.88 1045.89 552.28 1176.12 544.26
00002839 00000089 957.52 174.70 363.02 507.95 1022.02 382.27 1171.39 373.63 1083.60 475.36 1047.16 551.04 1179.17 545.05
00002840 00000090 960.28 170.44 366.27 512.23 1023.75 380.24 1176.23 372.68 1085.92 476.24 1048.37 552.99 1181.14 547.83
00002841 00000091 963.10 169.22 366.98 514.22 1027.47 379.03 1180.32 373.49 1088.19 476.18 1049.72 553.61 1183.14 550.06
00002842 00000092 965.94 165.31 367.62 518.08 1030.31 376.84 1185.66 372.83 1091.79 476.91 1052.14 553.31 1186.80 550.80
00002843 00000093 966.75 163.62 371.85 517.48 1031.87 377.31 1188.54 373.11 1094.29 476.48 1053.21 551.49 1191.64 548.44
00002844 00000094 970.47 162.65 370.99 515.96 1034.52 375.29 1191.50 372.09 1095.43 473.55 1054.84 549.69 1194.36 547.18
00002845 00000095 975.29 160.74 368.75 520.02 1038.71 373.39 1195.93 371.40 1099.23 472.20 1056.21 548.72 1196.68 547.25
00002846 00000096 975.95 159.42 370.76 520.44 1040.41 372.30 1198.93 370.83 1102.29 473.91 1058.79 549.38 1198.63 548.16
00002847 00000097 977.82 159.82 369.31 520.86 1042.50 370.89 1202.24 371.01 1105.03 474.39 1059.76 549.26 1200.63 549.49
00002848 00000098 976.42 158.56 370.09 522.68 1046.29 368.22 1200.57 375.53 1099.96 472.49 1064.32 544.84 1193.16 551.89
00002849 00000099 980.80 159.51 368.36 521.99 1045.51 369.43 1203.49 372.62 1103.87 472.99 1059.59 548.92 1197.01 551.88
00002850 00000100 980.70 161.10 369.27 521.62 1048.70 367.99 1202.55 376.61 1098.65 471.76 1064.83 544.96 1194.54 552.86
00002851 00000101 983.03 162.00 368.27 521.53 1051.83 368.04 1205.30 376.56 1101.91 472.69 1067.84 545.12 1197.55 552.88
00002852 00000102 985.65 164.20 365.51 519.91 1054.02 368.87 1207.24 377.94 1102.64 474.25 1069.15 546.23 1199.41 554.47
00002853 00000103 986.71 164.57 364.88 519.68 1054.71 368.81 1207.71 377.85 1102.79 474.23 1069.17 546.06 1199.73 554.34
00002854 00000104 988.17 163.88 364.60 519.62 1056.42 368.85 1208.18 378.32 1102.79 474.40 1069.83 544.92 1199.42 553.48
00002855 00000105 989.41 164.49 364.05 518.33 1056.53 369.26 1208.45 378.20 1101.62 473.58 1069.02 544.57 1198.94 552.71
00002856 00000106 989.05 165.13 364.25 516.93 1056.11 368.75 1208.17 377.49 1101.40 472.04 1068.24 543.75 1198.47 551.90
00002857 00000107 988.95 164.18 364.14 516.32 1055.97 366.43 1207.77 375.28 1101.04 469.67 1067.79 541.38 1197.97 549.76
00002858 00000108 989.43 161.65 365.18 523.51 1054.12 365.39 1208.45 376.99 1099.66 471.06 1061.76 539.27 1194.46 547.95
00002859 00000109 988.32 160.35 365.17 522.81 1052.85 365.55 1206.05 375.79 1098.25 467.01 1062.31 537.99 1192.31 545.21
00002860 00000110 984.42 157.39 365.62 521.79 1045.68 365.38 1204.59 364.82 1104.12 463.44 1061.57 545.09 1202.43 545.34
00002861 00000111 978.04 153.58 369.68 526.13 1044.82 366.49 1198.43 369.42 1095.32 464.77 1064.49 543.64 1194.48 547.03
00002862 00000112 974.17 155.06 372.71 524.08 1041.34 366.58 1195.94 368.90 1092.84 464.29 1061.37 547.27 1186.83 550.39
00002863 00000113 977.83 154.55 366.69 518.01 1036.97 366.67 1195.82 365.09 1096.43 466.30 1055.33 550.74 1187.44 550.32
00002864 00000114 975.80 152.07 365.71 518.50 1035.58 365.45 1192.26 365.04 1094.84 468.31 1055.00 551.01 1182.45 551.70
00002865 00000115 975.00 153.83 365.12 518.09 1034.19 364.50 1190.75 362.90 1093.04 466.75 1056.08 552.21 1180.98 552.20
00002866 00000116 970.02 152.50 368.26 525.94 1034.75 364.73 1189.53 364.59 1087.33 463.76 1059.51 551.77 1177.67 553.05
00002867 00000117 970.42 152.04 368.05 525.42 1034.78 363.19 1189.44 363.25 1087.21 462.61 1059.37 549.81 1178.59 551.22
00002868 00000118 971.56 150.13 365.93 525.36 1036.78 361.46 1190.64 362.69 1089.28 461.60 1059.79 546.99 1179.98 549.37
00002869 00000119 977.41 153.46 360.60 521.66 1045.16 359.25 1196.60 367.41 1098.19 461.55 1061.12 540.64 1182.07 548.61
CROP_BBOX: 740 0 1533 812
