Video ID: 	TxgrXUviuYE
H: 	1080
W: 	1920
FPS: 	25.0

FRAME INDEX X0 Y0 W H [Landmarks (5 Points)]

00000190 00000000 746.84 257.05 448.10 603.39 953.06 475.67 1133.42 473.14 1098.47 591.65 979.34 702.45 1121.79 698.33
00000191 DELETE   757.10 249.82 443.48 602.69 968.26 473.87 1146.57 473.98 1115.54 595.89 991.37 701.37 1131.01 700.01
00000192 DELETE   766.11 258.69 440.02 596.32 980.73 477.57 1156.29 477.97 1127.75 600.19 1003.27 709.10 1139.23 708.16
00000193 00000003 766.09 259.56 453.19 618.42 981.85 493.15 1161.84 491.06 1120.63 619.79 1007.69 729.83 1137.66 729.94
00000194 00000004 770.83 268.97 450.92 621.96 984.87 498.20 1165.87 495.42 1127.65 627.42 1012.46 737.01 1144.17 736.97
00000195 00000005 771.03 268.25 452.03 619.99 986.86 495.57 1164.60 495.05 1127.17 624.00 1015.06 733.32 1143.81 734.98
00000196 00000006 769.55 260.69 451.82 612.46 987.81 490.18 1163.76 491.11 1124.34 614.69 1010.03 721.77 1138.75 724.31
00000197 00000007 765.10 255.82 454.69 614.53 986.13 482.73 1161.09 487.18 1125.36 605.99 1004.66 711.03 1138.85 716.16
00000198 00000008 766.38 253.89 453.30 608.68 987.25 478.52 1162.31 484.53 1124.79 603.08 1003.61 702.74 1138.98 708.88
00000199 00000009 769.13 252.87 454.67 599.60 990.20 479.20 1167.48 483.10 1127.73 605.70 1003.43 699.54 1139.88 704.17
00000200 00000010 769.47 257.18 460.92 599.09 992.07 483.98 1172.46 486.78 1130.54 612.38 1004.02 706.03 1142.08 710.16
00000201 00000011 770.49 266.23 463.32 606.09 995.07 491.66 1174.87 495.09 1130.59 623.36 1002.61 719.40 1135.95 724.49
00000202 00000012 769.74 270.22 466.69 623.05 996.49 492.38 1174.96 499.74 1132.25 628.36 998.68 729.32 1132.69 738.06
00000203 00000013 770.61 267.89 464.34 622.47 996.01 491.20 1175.27 497.08 1132.47 625.93 1000.74 730.22 1134.22 737.68
00000204 00000014 778.86 274.15 451.14 601.81 999.82 478.39 1176.11 492.76 1128.64 613.40 1010.07 712.72 1133.88 723.00
00000205 00000015 776.16 256.93 452.60 604.17 997.67 481.94 1174.67 488.08 1130.11 613.37 1009.59 713.06 1139.30 719.71
00000206 00000016 774.92 255.02 452.99 599.48 998.24 481.27 1174.35 485.94 1131.29 612.29 1011.57 710.07 1139.94 715.56
00000207 00000017 775.42 256.20 454.77 598.41 999.75 481.46 1175.78 486.32 1133.20 612.81 1012.20 709.13 1140.78 714.71
00000208 00000018 777.37 256.32 454.78 599.52 1000.39 481.13 1176.69 485.64 1134.13 611.35 1013.14 707.94 1143.26 713.27
00000209 00000019 776.92 258.08 455.97 598.27 1001.14 481.14 1177.48 486.74 1135.17 610.98 1013.56 707.50 1143.56 713.64
00000210 00000020 776.16 261.06 456.73 599.65 1001.28 483.96 1177.11 489.54 1135.91 613.12 1014.15 710.43 1143.47 716.54
00000211 00000021 776.07 260.69 458.46 605.35 1002.19 488.77 1177.96 492.77 1137.86 618.90 1014.08 716.14 1143.65 721.10
00000212 00000022 776.40 270.12 458.97 601.72 1002.25 490.90 1179.86 496.27 1138.24 623.92 1014.28 721.59 1143.32 728.00
00000213 00000023 777.49 269.48 458.21 603.98 1003.37 493.25 1179.42 499.69 1138.22 624.72 1015.14 723.15 1142.57 730.35
00000214 00000024 780.51 280.23 452.69 595.44 1007.48 490.06 1181.22 504.64 1139.05 619.71 1016.73 716.61 1144.02 727.02
00000215 00000025 780.11 265.81 456.07 607.24 1006.29 493.02 1180.13 500.91 1140.07 623.89 1018.28 722.54 1144.35 730.71
00000216 00000026 779.97 265.38 456.50 608.56 1006.24 493.20 1180.39 500.58 1141.34 622.89 1017.97 722.69 1144.79 730.56
00000217 00000027 779.22 266.15 457.68 607.57 1006.88 491.83 1181.15 499.25 1142.80 622.91 1017.82 722.39 1144.89 730.34
00000218 00000028 782.08 275.41 451.38 600.35 1010.65 485.92 1184.12 501.80 1143.23 617.16 1019.92 716.38 1146.85 727.74
00000219 00000029 782.09 259.00 451.46 613.54 1009.35 498.58 1179.22 502.13 1143.82 623.98 1016.33 723.45 1141.20 728.69
00000220 00000030 781.21 258.80 452.29 615.18 1008.28 499.63 1178.43 502.62 1143.60 624.46 1015.85 724.67 1141.60 729.41
00000221 00000031 780.97 262.74 453.35 612.35 1006.70 494.36 1179.88 498.05 1143.30 622.49 1017.17 724.42 1144.14 729.69
00000222 00000032 778.68 262.01 456.08 612.46 1006.25 490.47 1180.32 495.16 1143.72 620.46 1017.16 722.99 1144.33 728.93
00000223 00000033 778.38 262.41 456.18 612.57 1007.14 487.78 1179.31 493.69 1143.26 619.32 1018.78 721.65 1143.99 728.39
00000224 00000034 780.53 261.40 452.25 610.52 1008.25 487.57 1177.82 495.33 1141.27 617.47 1020.25 719.07 1143.35 726.97
00000225 00000035 781.99 272.83 447.80 599.40 1011.42 481.94 1181.97 497.24 1142.89 611.36 1023.19 712.55 1146.05 723.22
00000226 00000036 778.57 259.94 453.99 608.97 1007.50 485.92 1178.68 493.59 1141.47 616.13 1019.61 717.60 1143.64 725.34
00000227 00000037 776.10 258.83 454.35 608.17 1005.38 484.84 1176.11 491.43 1140.19 614.99 1019.12 716.07 1143.27 722.85
00000228 00000038 774.28 261.25 456.34 605.77 1002.42 485.65 1177.48 490.20 1140.92 617.17 1017.61 718.35 1145.07 723.69
00000229 00000039 773.68 262.87 457.36 603.30 1000.72 487.53 1178.72 489.96 1141.52 619.65 1016.32 719.48 1146.34 723.34
00000230 00000040 774.16 262.72 456.67 602.51 1001.46 486.75 1178.42 489.71 1141.42 617.98 1016.61 718.12 1145.94 722.33
00000231 00000041 774.07 262.08 455.72 603.45 1002.21 485.23 1176.41 488.78 1140.26 614.93 1015.91 715.55 1143.66 720.11
00000232 00000042 772.64 260.64 457.32 604.66 1000.61 483.61 1175.84 488.85 1139.41 613.19 1015.08 713.66 1144.58 719.52
00000233 00000043 772.72 258.24 455.89 606.71 1001.23 480.24 1174.93 488.52 1137.90 609.59 1015.09 710.85 1143.50 718.99
00000234 00000044 770.98 258.11 455.29 606.80 1001.91 475.57 1174.30 485.06 1139.66 603.46 1015.45 706.66 1143.29 715.65
00000235 00000045 771.36 253.71 453.42 608.35 1003.40 472.85 1173.57 484.18 1139.87 600.53 1014.08 701.89 1142.43 712.19
00000236 00000046 771.67 254.43 453.02 607.49 1003.17 472.52 1174.13 483.74 1140.35 600.53 1013.50 701.38 1143.22 711.60
00000237 00000047 770.40 255.77 454.55 609.26 1001.98 475.64 1173.23 484.48 1140.90 604.03 1013.65 705.61 1143.27 714.15
00000238 00000048 772.84 255.32 454.06 611.99 1003.66 478.47 1173.18 487.44 1139.35 607.79 1015.37 709.14 1142.36 717.85
00000239 00000049 773.64 257.47 453.74 610.60 1005.02 479.61 1174.36 488.82 1140.33 608.70 1016.28 710.65 1141.88 719.55
00000240 00000050 774.07 255.68 453.45 608.76 1003.18 481.54 1174.72 488.73 1140.47 611.47 1016.86 712.29 1143.31 719.68
00000241 00000051 774.25 255.84 454.19 609.35 1002.47 482.48 1175.40 489.32 1140.74 613.00 1015.93 713.47 1144.32 720.53
00000242 00000052 774.56 255.08 454.15 609.51 1004.68 479.52 1175.41 489.57 1139.64 610.46 1017.00 711.43 1142.88 720.90
00000243 00000053 773.54 254.02 454.95 606.14 1007.06 482.57 1175.53 488.66 1142.65 608.80 1014.26 708.04 1139.88 714.75
00000244 00000054 776.00 249.13 453.55 607.71 1014.64 484.05 1179.10 495.69 1147.37 606.58 1017.16 702.18 1141.54 712.99
00000245 00000055 786.58 241.64 449.74 612.95 1029.18 481.24 1188.33 496.88 1161.05 601.62 1031.11 698.93 1150.97 712.24
00000246 00000056 799.88 236.09 446.48 612.39 1039.91 478.10 1199.30 490.77 1175.16 592.78 1041.74 690.76 1166.74 701.75
00000247 00000057 803.16 233.68 444.35 611.84 1043.97 475.01 1199.66 486.78 1181.24 589.49 1046.19 686.89 1171.47 697.31
00000248 00000058 802.95 234.66 445.58 612.93 1043.05 473.53 1200.33 487.97 1179.55 588.88 1045.40 686.25 1171.83 698.71
00000249 00000059 800.47 246.37 451.44 604.18 1046.27 468.17 1206.68 486.78 1184.54 591.28 1048.25 689.01 1175.38 703.99
00000250 00000060 804.72 245.38 452.12 606.64 1052.26 468.93 1213.66 487.32 1192.52 594.60 1051.90 690.44 1181.34 705.25
00000251 00000061 807.76 248.63 449.70 606.40 1052.97 470.18 1216.13 486.59 1195.83 593.87 1055.49 693.60 1185.86 706.68
00000252 00000062 809.38 253.32 448.13 604.05 1052.23 471.91 1219.82 490.81 1195.54 597.51 1056.32 697.87 1187.38 712.86
00000253 00000063 810.34 251.39 448.95 607.38 1055.10 472.29 1220.84 492.68 1197.17 597.29 1057.58 697.63 1187.73 713.78
00000254 00000064 812.05 251.39 448.88 607.98 1057.05 472.22 1221.60 491.79 1199.21 596.65 1059.96 697.61 1189.50 712.97
00000255 00000065 814.37 254.35 447.24 607.46 1058.57 472.46 1224.00 492.67 1201.68 596.53 1061.00 698.12 1192.31 714.12
00000256 00000066 813.08 257.58 447.37 603.64 1057.25 473.08 1224.59 490.98 1203.66 598.95 1057.64 696.78 1193.69 711.65
00000257 00000067 808.37 258.62 454.65 599.44 1051.88 472.68 1221.50 493.33 1196.54 601.71 1044.55 691.86 1186.54 709.53
00000258 00000068 805.25 265.22 457.74 600.40 1046.12 476.94 1218.20 494.71 1190.90 607.50 1035.95 697.42 1182.73 713.12
00000259 DELETE   801.47 268.66 467.45 607.24 1038.05 490.16 1219.15 501.24 1189.26 622.69 1028.24 714.63 1176.23 727.58
00000260 00000070 802.75 274.42 466.74 608.60 1043.57 497.26 1215.17 512.26 1185.78 634.01 1030.85 722.49 1167.14 738.36
00000261 00000071 805.97 293.51 459.24 600.73 1045.39 503.37 1209.57 521.05 1178.25 633.75 1035.56 722.49 1174.01 737.22
00000262 00000072 806.43 292.45 459.68 603.78 1044.88 502.57 1208.93 519.34 1178.25 633.25 1036.24 723.24 1175.00 737.20
00000263 00000073 813.48 283.33 453.63 603.21 1052.42 499.34 1218.49 510.14 1192.58 626.63 1050.96 722.13 1188.14 730.97
00000264 00000074 821.20 275.36 442.37 594.23 1055.11 493.67 1224.17 501.15 1199.91 619.51 1064.51 717.33 1198.53 722.87
00000265 00000075 819.00 269.86 444.26 590.48 1055.36 489.43 1226.17 494.44 1203.99 614.69 1067.32 713.17 1200.02 716.94
00000266 00000076 816.46 271.00 446.86 592.21 1052.73 486.04 1224.55 492.36 1201.12 612.55 1064.24 711.95 1197.88 716.54
00000267 00000077 815.26 273.24 450.37 595.35 1047.12 485.23 1224.31 495.26 1193.62 615.07 1058.88 715.77 1195.02 723.12
00000268 00000078 811.95 274.64 452.34 594.54 1043.64 486.96 1223.22 498.57 1190.66 618.05 1055.94 717.48 1194.44 725.94
00000269 00000079 811.39 274.17 451.82 597.18 1040.69 486.77 1221.46 497.81 1187.24 617.67 1053.94 718.83 1193.51 726.67
00000270 00000080 806.38 276.77 456.61 594.55 1039.88 488.60 1219.65 500.27 1187.63 618.73 1044.03 714.83 1187.84 724.38
00000271 00000081 803.86 275.83 458.41 597.97 1038.50 489.67 1217.03 500.52 1186.73 619.05 1035.72 712.26 1185.08 722.15
00000272 00000082 805.00 276.36 459.03 600.57 1039.48 488.90 1215.64 500.01 1186.29 618.15 1037.93 712.74 1185.25 722.40
00000273 00000083 807.23 274.29 456.39 600.70 1040.48 487.22 1217.49 498.39 1185.81 616.97 1047.75 716.66 1188.44 725.08
00000274 00000084 808.31 273.74 452.60 600.14 1040.63 485.22 1217.48 496.05 1184.91 615.77 1053.23 719.75 1187.67 727.42
00000275 00000085 809.22 277.21 449.69 597.79 1040.36 483.55 1217.44 494.05 1186.01 614.13 1057.78 723.55 1189.07 730.58
00000276 00000086 807.69 276.77 449.27 599.16 1040.05 482.74 1216.61 491.57 1186.90 613.73 1058.29 724.80 1188.65 730.52
00000277 00000087 807.59 275.88 448.67 600.69 1038.51 481.59 1215.48 489.42 1184.56 612.35 1057.38 725.29 1187.36 730.02
00000278 00000088 806.17 275.74 448.23 599.42 1036.60 480.79 1213.69 488.98 1182.50 609.96 1056.53 723.40 1186.44 728.28
00000279 00000089 806.57 273.11 445.53 599.28 1035.49 479.32 1212.21 488.18 1180.22 607.06 1056.53 721.03 1184.86 726.26
00000280 00000090 804.97 274.06 446.29 596.92 1032.51 480.01 1211.78 488.34 1178.05 606.72 1053.57 719.83 1183.61 724.69
00000281 00000091 803.74 274.08 446.71 598.48 1030.89 480.74 1209.06 489.66 1174.90 607.92 1050.48 720.70 1178.99 726.09
00000282 00000092 801.82 277.24 444.88 594.49 1029.62 488.10 1204.34 497.97 1171.06 610.21 1047.91 718.18 1176.47 724.29
00000283 00000093 798.96 272.29 443.51 602.64 1027.60 492.28 1196.92 501.52 1166.18 613.55 1041.37 718.39 1168.54 724.61
00000284 00000094 793.57 274.37 446.67 602.46 1018.36 494.96 1191.71 503.39 1158.00 617.08 1031.24 720.63 1160.42 726.40
00000285 00000095 785.70 260.58 448.34 621.26 1006.93 500.20 1179.61 499.63 1145.88 624.06 1018.80 729.84 1147.83 731.57
00000286 00000096 774.31 264.02 458.90 623.67 995.63 498.30 1172.93 501.12 1131.50 627.11 1005.84 730.97 1137.96 735.58
00000287 00000097 766.79 265.12 464.12 624.02 982.20 503.47 1165.36 507.14 1116.31 629.72 987.36 728.75 1126.77 734.40
00000288 DELETE   762.60 261.10 460.79 627.89 973.67 506.78 1156.29 514.90 1102.49 628.65 966.68 723.33 1111.92 732.74
00000289 DELETE   757.29 271.95 463.20 617.16 963.93 505.22 1151.09 522.40 1087.76 633.71 951.15 721.21 1097.77 737.94
00000290 00000100 755.62 277.84 463.35 622.06 961.19 499.18 1144.37 525.01 1077.80 636.82 939.83 719.65 1087.22 743.41
00000291 DELETE   755.03 269.87 462.89 637.75 964.20 497.38 1146.66 522.75 1083.29 635.34 939.96 723.13 1088.75 746.58
00000292 DELETE   758.20 256.62 460.87 644.59 971.98 500.34 1152.83 513.41 1097.06 631.51 955.22 725.60 1101.83 739.36
00000293 DELETE   760.73 258.70 468.49 625.67 977.98 496.73 1162.80 502.19 1112.29 621.91 976.70 718.29 1123.72 725.38
00000294 00000104 765.35 252.09 462.87 610.18 989.79 485.07 1167.22 485.21 1129.05 608.84 999.03 705.69 1139.45 707.79
00000295 DELETE   769.37 244.47 453.89 599.52 993.41 473.61 1167.96 478.73 1131.13 597.36 1004.43 688.71 1143.09 694.15
00000296 00000106 767.76 240.97 454.98 599.17 992.87 471.76 1167.71 479.20 1129.17 594.99 1003.18 684.36 1141.47 691.42
00000297 00000107 765.79 243.14 456.15 600.31 992.99 473.56 1167.43 479.71 1129.56 600.35 1003.78 689.82 1139.45 695.90
00000298 DELETE   765.90 253.40 458.19 604.10 992.52 483.31 1167.09 485.52 1125.63 616.69 1003.40 709.67 1132.00 713.36
00000299 DELETE   764.31 264.61 464.09 606.84 986.99 498.47 1168.90 500.86 1120.46 632.74 995.61 725.85 1126.48 730.18
00000300 00000110 763.78 281.36 462.96 605.40 987.08 507.39 1164.65 514.38 1120.07 641.94 991.28 732.76 1121.18 741.39
00000301 00000111 763.88 286.19 464.11 603.05 986.88 509.43 1164.86 519.23 1118.23 644.56 986.84 732.16 1119.56 743.28
00000302 00000112 761.00 277.60 466.55 608.09 980.40 505.99 1162.47 515.38 1116.65 636.90 975.87 725.48 1117.75 736.47
00000303 00000113 757.44 271.70 466.02 609.96 974.30 498.77 1162.78 505.83 1115.15 627.90 966.08 717.20 1118.69 726.58
00000304 00000114 752.13 268.89 467.60 608.01 972.99 489.30 1159.27 497.34 1113.38 619.39 960.96 707.96 1116.33 718.03
00000305 00000115 750.52 261.39 467.25 614.97 971.84 483.63 1155.77 491.43 1111.04 613.55 958.24 705.08 1112.66 715.00
00000306 00000116 750.17 261.97 468.44 619.34 976.16 482.35 1153.57 494.22 1107.83 614.96 966.78 708.20 1109.40 720.58
00000307 00000117 751.39 265.39 465.84 617.14 975.98 485.92 1154.67 498.09 1108.55 621.59 969.49 715.26 1108.55 727.72
00000308 00000118 750.92 265.27 467.00 614.78 974.50 492.36 1155.47 501.91 1108.98 627.45 971.88 720.90 1109.51 731.27
00000309 00000119 753.36 271.75 464.16 609.46 974.73 495.83 1154.87 506.32 1109.44 630.22 974.41 720.99 1112.00 732.13
00000310 00000120 754.45 270.33 462.44 615.24 974.80 495.66 1153.91 505.85 1109.53 628.38 979.18 725.62 1114.26 736.24
00000311 00000121 754.28 269.67 462.80 616.99 976.56 493.85 1153.69 505.57 1107.81 627.97 978.91 724.73 1111.52 736.50
00000312 00000122 753.26 266.84 464.49 613.72 975.86 501.42 1154.34 509.36 1106.77 629.99 975.71 724.63 1109.16 733.66
00000313 00000123 754.26 263.39 461.84 615.99 972.62 504.49 1153.22 510.90 1104.39 628.60 973.79 725.07 1108.69 732.76
00000314 00000124 753.62 266.47 461.63 616.11 974.81 497.27 1152.67 509.48 1104.47 627.79 975.34 723.77 1107.93 736.03
00000315 00000125 757.30 275.36 449.79 595.17 974.73 488.89 1154.27 503.90 1110.69 622.28 979.16 718.56 1119.93 730.49
00000316 00000126 757.15 277.34 450.09 592.44 972.92 486.75 1156.93 502.05 1112.12 621.15 975.12 713.81 1124.13 726.38
00000317 00000127 756.57 279.20 450.26 593.81 974.23 483.17 1153.19 499.16 1109.56 616.93 980.02 715.75 1119.77 728.43
00000318 00000128 757.60 275.29 451.77 607.32 974.41 481.80 1152.89 497.09 1108.00 617.53 977.23 718.95 1117.82 731.01
00000319 00000129 756.65 278.78 451.09 603.31 976.51 483.64 1152.98 497.78 1112.33 618.38 983.95 721.61 1122.25 732.58
00000320 00000130 757.38 277.50 448.70 594.53 975.79 483.00 1154.39 497.91 1112.40 617.81 984.13 718.17 1121.46 729.77
00000321 00000131 757.93 275.79 449.00 592.78 973.19 481.64 1155.85 496.46 1111.59 618.54 980.58 715.99 1124.01 727.73
00000322 00000132 756.16 272.61 451.45 598.03 971.91 480.50 1154.96 494.80 1110.37 618.01 978.93 716.03 1122.93 727.46
00000323 00000133 756.76 269.97 449.62 597.95 971.53 476.16 1151.90 491.60 1107.34 611.98 980.15 713.38 1117.45 725.57
00000324 00000134 754.71 267.98 451.54 598.75 970.21 473.78 1151.75 489.93 1107.32 607.40 976.86 709.48 1117.43 722.12
00000325 00000135 753.35 265.56 452.64 597.58 969.61 471.75 1151.92 486.49 1108.80 603.47 978.61 706.83 1118.50 717.97
00000326 00000136 753.65 262.53 452.84 599.31 969.89 471.06 1151.69 485.28 1109.15 601.83 977.96 704.76 1118.84 715.50
00000327 00000137 752.45 261.86 453.36 599.22 970.31 470.47 1152.08 485.67 1109.93 601.76 977.58 703.99 1118.64 715.61
00000328 00000138 753.53 263.37 453.87 597.16 970.25 471.33 1152.52 486.03 1109.81 602.50 978.09 704.91 1118.44 716.13
00000329 00000139 754.47 265.87 453.28 596.67 970.34 472.50 1153.22 487.62 1109.13 605.04 978.49 708.12 1118.41 719.68
00000330 00000140 754.68 265.54 452.54 597.96 970.83 473.08 1153.03 488.04 1109.36 605.31 978.45 707.84 1118.79 719.34
00000331 00000141 753.62 264.11 455.90 599.54 971.82 472.39 1154.40 488.22 1110.43 604.79 978.60 707.40 1118.91 719.65
00000332 00000142 753.01 265.96 456.04 600.76 971.08 472.97 1152.16 487.78 1109.06 604.76 977.04 708.40 1116.88 719.85
00000333 00000143 752.47 265.50 457.68 607.93 972.46 472.43 1151.05 488.81 1108.51 605.36 976.40 710.07 1115.70 722.99
00000334 00000144 752.96 267.15 457.62 613.88 972.19 473.42 1150.71 488.85 1108.34 606.03 974.43 712.69 1116.85 725.07
00000335 00000145 753.22 263.28 458.57 624.13 974.00 473.75 1151.65 489.29 1109.69 606.49 974.49 715.02 1116.99 727.56
00000336 00000146 754.78 258.63 453.66 622.83 976.51 484.09 1148.77 495.25 1110.04 609.53 976.14 715.11 1115.85 723.95
00000337 DELETE   748.04 265.55 455.60 603.30 965.66 489.45 1144.36 499.37 1104.58 611.75 969.72 709.00 1115.66 716.88
CROP_BBOX: 454 0 1608 1080
