Video ID: 	SqyNFO2WFDA
H: 	1080
W: 	1920
FPS: 	25.0

FRAME INDEX X0 Y0 W H [Landmarks (5 Points)]

00001102 00000000 464.05 311.33 400.13 509.45 557.56 469.40 754.93 464.47 659.34 585.64 589.47 693.21 746.88 686.38
00001103 00000001 465.10 310.65 399.16 508.41 559.20 468.64 755.53 464.73 658.97 582.91 589.15 693.08 746.62 687.03
00001104 00000002 466.27 309.60 398.87 510.11 560.85 468.41 756.40 465.27 660.26 582.55 589.85 693.01 745.75 687.65
00001105 00000003 467.84 309.75 397.11 509.66 562.34 469.16 757.25 466.33 661.09 581.63 590.30 694.11 745.31 688.96
00001106 00000004 468.06 308.49 399.54 508.45 563.33 468.96 759.55 464.44 663.30 580.30 593.35 692.59 745.25 686.09
00001107 00000005 469.06 307.95 403.58 510.34 564.18 467.02 762.78 461.43 665.77 579.97 596.99 688.33 747.39 681.10
00001108 00000006 470.73 302.32 404.62 510.64 565.27 463.28 763.28 458.26 665.95 576.04 597.66 683.20 747.01 676.49
00001109 00000007 471.18 295.96 403.34 511.59 565.88 456.49 763.54 451.07 668.00 569.12 598.31 677.94 746.14 671.01
00001110 00000008 466.69 277.74 403.75 527.07 563.38 449.45 766.38 443.15 665.65 562.72 600.14 674.92 748.46 669.44
00001111 DELETE   470.33 268.36 400.39 532.89 569.15 450.46 767.83 445.25 669.24 555.42 599.92 669.37 753.14 665.10
00001112 DELETE   468.84 271.44 400.21 528.78 569.66 453.78 766.32 445.01 667.70 548.43 600.58 667.27 753.89 660.31
00001113 DELETE   472.96 255.76 399.15 539.99 570.23 446.64 763.24 437.38 667.78 539.50 605.61 661.25 755.16 653.77
00001114 00000012 473.74 255.97 398.59 533.44 568.22 436.04 765.73 428.41 667.42 534.87 603.35 654.93 754.02 648.60
00001115 DELETE   474.21 252.12 399.94 530.69 567.78 432.16 764.53 423.36 666.44 527.65 601.48 646.78 757.29 639.00
00001116 00000014 474.22 252.13 401.90 523.49 570.48 428.01 763.78 419.28 668.35 522.40 601.88 638.11 756.90 629.64
00001117 00000015 474.69 248.47 403.34 525.43 571.10 423.43 761.72 416.39 669.06 518.97 599.89 632.27 753.98 625.11
00001118 DELETE   475.17 243.82 402.92 528.65 572.25 421.36 760.81 416.27 668.46 516.91 598.99 629.41 752.39 624.04
00001119 00000017 475.75 243.55 403.00 526.92 572.84 420.57 761.03 415.15 667.82 515.37 600.00 628.29 751.37 622.61
00001120 00000018 477.12 240.00 400.13 527.12 573.22 419.95 761.99 413.90 667.58 515.45 601.59 629.88 752.80 623.41
00001121 00000019 476.86 239.88 402.82 524.74 574.27 418.43 763.27 412.01 670.07 515.19 604.64 628.10 752.90 621.20
00001122 00000020 477.37 243.95 404.19 520.28 575.71 418.82 765.65 411.75 672.05 514.23 606.63 628.62 754.36 621.11
00001123 00000021 478.44 245.65 404.33 517.70 576.26 419.47 766.52 411.64 672.71 514.44 609.16 629.54 755.72 621.36
00001124 00000022 478.51 245.27 404.05 518.37 576.38 419.55 766.75 412.10 673.00 514.48 608.51 628.89 755.79 621.08
00001125 00000023 477.87 244.26 404.38 517.84 575.51 418.34 765.85 410.63 671.65 513.08 608.43 628.32 754.35 620.18
00001126 00000024 477.78 244.35 403.20 513.85 574.62 417.39 765.41 409.89 669.89 508.84 606.23 624.61 752.96 616.71
00001127 00000025 477.69 247.92 401.38 507.14 573.98 415.16 765.13 407.37 669.05 505.83 605.51 621.68 752.87 613.54
00001128 00000026 476.50 245.57 402.16 508.83 573.06 411.26 765.80 403.52 670.54 503.85 606.72 621.58 752.42 613.43
00001129 00000027 476.28 239.66 403.44 511.25 572.31 408.77 765.26 398.95 669.67 500.51 606.94 618.33 753.20 608.41
00001130 00000028 476.37 234.21 402.67 516.47 571.76 408.80 764.11 398.33 667.22 498.27 605.87 616.94 754.78 606.68
00001131 00000029 477.15 234.36 402.65 518.14 572.11 407.38 761.59 397.38 665.97 497.20 605.65 613.51 752.64 603.89
00001132 00000030 478.08 236.61 401.43 516.88 573.22 407.25 759.99 398.34 665.31 497.00 603.49 611.17 751.43 602.62
00001133 00000031 478.31 235.24 399.66 517.56 573.46 408.15 761.12 399.88 664.61 497.26 601.77 612.51 753.54 604.43
00001134 00000032 477.52 237.83 399.26 518.12 574.33 409.49 762.74 404.52 664.46 500.82 598.78 617.30 752.72 611.81
00001135 00000033 478.69 240.34 397.56 519.80 575.36 411.34 764.36 407.57 665.60 503.41 597.96 620.18 754.78 615.85
00001136 00000034 480.17 245.87 396.55 516.47 576.45 415.01 765.59 411.09 666.58 505.74 598.42 622.84 756.97 618.48
00001137 00000035 480.72 244.51 396.46 516.92 577.19 417.19 766.42 413.03 667.58 506.82 599.21 625.00 758.16 620.34
00001138 00000036 480.34 244.17 398.22 516.37 576.63 417.08 766.79 411.72 668.87 506.58 601.63 625.80 756.89 620.00
00001139 00000037 479.98 241.39 399.35 518.75 577.05 417.46 767.50 411.21 669.78 507.55 603.93 626.13 756.68 619.50
00001140 00000038 479.93 243.32 400.55 514.70 576.80 417.24 767.92 410.17 670.11 507.91 605.36 625.08 756.42 617.61
00001141 00000039 479.49 244.09 401.59 513.40 576.99 416.81 767.99 409.60 671.31 508.12 606.95 624.47 756.01 616.85
00001142 00000040 478.25 241.90 403.55 516.75 576.05 417.17 767.95 409.94 670.61 509.04 607.23 624.27 756.28 616.62
00001143 00000041 477.57 241.84 403.74 517.70 575.76 417.89 767.68 410.99 671.25 510.60 606.97 625.05 756.06 617.63
00001144 00000042 477.07 240.16 404.01 521.26 576.35 418.84 768.47 412.75 672.16 512.00 605.28 625.62 755.88 619.02
00001145 00000043 477.13 240.25 402.57 520.51 576.64 418.72 768.49 412.52 673.57 512.16 605.36 625.85 755.91 619.11
00001146 00000044 477.16 242.94 402.43 517.39 575.92 418.45 768.21 412.07 672.87 510.65 605.63 626.39 755.70 619.43
00001147 00000045 476.76 241.73 401.79 518.61 575.76 417.17 767.63 409.91 673.24 508.28 607.17 627.55 754.23 619.98
00001148 00000046 478.48 243.10 399.08 518.03 575.10 414.58 766.96 408.00 670.65 504.74 606.67 630.06 748.86 623.16
00001149 00000047 478.01 243.36 399.37 521.87 575.56 415.15 766.03 409.25 669.81 504.95 603.90 628.80 747.01 622.86
00001150 00000048 478.61 246.21 398.88 521.01 575.10 414.73 765.48 408.89 668.49 505.19 603.03 629.23 745.93 623.49
00001151 00000049 478.98 247.95 398.45 519.55 575.21 414.65 765.58 409.14 667.83 504.72 602.41 629.54 746.18 624.06
00001152 00000050 479.58 240.28 398.20 526.97 575.83 413.85 765.85 408.85 668.68 503.70 602.57 628.64 747.00 623.65
00001153 00000051 480.22 236.36 398.90 529.16 577.04 413.35 767.07 408.12 670.03 502.96 604.29 627.87 747.94 622.70
00001154 00000052 480.16 231.28 398.73 530.44 577.56 413.58 768.95 408.05 671.10 501.90 605.04 628.08 749.89 622.49
00001155 00000053 481.94 236.89 400.07 522.31 583.37 422.49 771.99 417.40 676.02 504.33 608.30 623.17 753.69 618.26
00001156 00000054 482.72 232.57 402.83 522.44 585.95 421.25 774.39 415.43 679.56 503.20 611.06 619.73 757.80 614.13
00001157 00000055 482.21 225.15 404.89 525.70 584.19 415.66 774.58 407.91 680.29 501.67 611.96 616.04 759.99 608.52
00001158 00000056 482.40 217.90 404.33 528.10 581.79 411.52 774.49 403.16 679.48 499.59 611.69 613.49 762.37 605.24
00001159 00000057 480.84 218.39 406.53 526.05 580.71 408.19 774.11 398.30 678.71 497.31 612.97 612.21 760.67 602.65
00001160 00000058 480.33 221.58 406.06 522.45 579.06 405.01 772.41 394.03 675.99 494.42 610.91 610.72 758.38 600.37
00001161 00000059 475.53 209.40 410.33 534.39 574.82 404.22 774.09 394.29 673.81 490.78 609.53 608.24 768.19 599.83
00001162 00000060 475.75 211.53 411.11 530.98 572.05 402.31 772.30 391.80 670.06 489.92 607.57 606.97 767.51 597.98
00001163 00000061 481.61 221.10 401.89 525.20 576.86 399.99 766.92 390.71 668.31 490.04 605.27 606.74 754.39 598.05
00001164 00000062 480.99 222.08 399.93 528.25 576.70 401.86 766.92 394.26 666.11 492.34 602.30 610.32 754.81 602.98
00001165 00000063 480.59 224.07 400.90 531.84 577.44 404.82 768.41 399.18 666.11 496.44 600.96 616.13 754.24 610.43
00001166 00000064 481.23 222.76 398.57 535.41 578.65 409.32 769.17 405.08 668.21 501.10 601.47 619.86 757.46 615.22
00001167 00000065 480.58 230.65 397.90 530.63 579.59 412.52 769.02 408.16 671.02 502.97 602.05 621.44 758.24 616.69
00001168 00000066 480.41 232.01 399.79 526.36 578.99 413.93 768.99 408.39 671.33 503.98 604.24 621.49 758.82 615.61
00001169 00000067 480.52 233.11 401.59 524.24 579.68 414.54 769.85 408.12 672.65 504.42 606.27 621.35 757.68 614.69
00001170 00000068 480.78 235.52 403.65 520.28 580.88 415.18 771.61 408.48 676.13 506.81 610.03 619.32 759.49 612.29
00001171 00000069 481.45 233.43 403.64 520.11 580.78 414.86 772.00 407.69 676.25 506.68 611.33 618.70 761.03 611.12
00001172 00000070 481.46 234.64 403.52 518.51 581.11 415.69 772.38 408.46 677.05 507.67 612.29 619.51 761.50 611.79
00001173 00000071 482.30 237.96 401.81 517.12 581.65 415.98 771.86 408.80 676.87 508.43 613.03 622.04 760.50 614.43
00001174 00000072 482.89 237.17 400.67 517.33 581.73 416.01 772.29 409.26 675.54 507.64 611.41 623.09 760.46 615.86
00001175 00000073 484.18 236.15 399.36 520.62 582.86 415.14 771.36 409.48 674.64 506.60 610.57 622.43 758.95 616.47
00001176 00000074 484.53 234.84 398.45 526.39 583.61 416.24 770.91 411.24 674.39 506.04 608.72 623.21 758.40 618.10
00001177 00000075 485.24 236.59 398.81 527.60 584.44 416.75 770.24 412.64 674.82 506.47 608.21 623.02 758.80 618.88
00001178 00000076 486.43 237.50 398.56 528.74 585.16 417.27 771.21 413.16 674.90 507.10 607.98 624.59 760.34 620.56
00001179 00000077 486.40 237.81 399.04 530.71 585.33 416.45 771.88 412.45 675.76 506.05 607.97 625.29 760.19 621.54
00001180 00000078 485.71 234.96 400.91 534.05 586.23 415.55 772.99 411.01 678.25 504.99 610.11 624.38 761.35 620.22
00001181 00000079 485.10 235.89 403.30 533.66 585.54 414.85 772.05 409.79 677.36 503.63 611.04 622.82 761.06 618.20
00001182 00000080 485.31 235.97 403.00 532.58 586.20 414.20 772.50 409.32 677.40 503.17 611.74 621.60 760.61 617.15
00001183 00000081 485.03 235.82 403.92 532.66 586.36 414.11 772.25 408.72 678.11 502.86 613.41 621.20 761.21 616.24
00001184 00000082 484.76 235.90 404.10 531.53 586.52 413.74 772.38 408.21 678.58 502.61 613.87 620.79 761.03 615.64
00001185 00000083 484.62 234.38 404.21 531.81 586.65 413.71 772.90 407.84 679.15 502.55 614.53 620.73 761.74 615.22
00001186 00000084 484.97 234.87 404.57 530.11 586.76 413.46 772.87 407.44 679.33 502.68 615.15 620.35 761.68 614.66
00001187 00000085 485.02 233.36 404.82 531.91 587.16 413.62 773.73 407.67 679.72 502.58 615.16 620.33 762.45 614.68
00001188 00000086 485.04 232.85 404.61 529.99 587.48 413.12 774.56 407.02 680.46 503.01 615.54 620.74 762.56 614.84
00001189 00000087 485.77 231.79 403.41 529.40 588.49 413.85 775.36 408.02 681.09 503.47 615.55 620.40 763.81 614.68
00001190 00000088 486.59 232.15 403.47 526.52 589.66 414.36 777.29 408.56 683.09 502.93 616.92 621.67 765.33 615.76
00001191 00000089 487.60 233.38 402.31 523.55 590.68 414.20 778.50 408.43 684.02 501.94 618.25 622.11 766.35 616.12
00001192 00000090 487.46 234.39 402.81 521.88 590.98 413.96 779.42 408.09 684.65 501.65 618.70 621.94 767.34 615.76
00001193 00000091 487.90 237.87 403.20 517.70 591.49 413.96 779.42 408.13 684.63 501.73 619.00 621.98 767.13 615.83
00001194 00000092 488.06 235.11 403.60 520.73 592.41 413.74 780.60 407.97 686.23 501.08 619.98 621.34 767.63 615.29
00001195 00000093 488.61 231.53 403.37 523.55 592.87 412.90 782.28 407.48 687.23 500.29 620.23 621.29 768.46 615.53
00001196 00000094 492.18 232.28 401.76 524.98 598.31 419.65 785.62 416.68 689.49 499.75 619.90 619.81 770.14 616.51
00001197 00000095 492.98 233.42 400.20 525.74 598.76 421.27 785.03 417.82 689.21 499.05 619.18 620.52 770.89 617.01
00001198 00000096 492.82 231.47 400.66 528.81 598.25 418.12 784.64 412.76 689.71 497.61 620.19 622.48 771.80 617.23
00001199 00000097 491.70 231.87 400.21 528.79 596.53 415.07 783.13 408.82 689.02 497.43 620.25 622.19 771.19 616.15
00001200 00000098 491.95 228.47 401.59 531.07 595.28 414.37 784.17 407.21 688.47 498.22 620.44 621.76 773.64 614.67
00001201 00000099 492.49 227.19 402.04 529.59 595.25 413.33 785.21 406.30 688.05 498.03 620.21 620.28 774.02 613.13
00001202 00000100 491.69 225.66 404.18 530.13 595.92 411.56 786.96 404.55 690.66 498.06 621.00 618.85 772.77 611.68
00001203 00000101 491.87 230.55 407.44 523.83 598.66 412.52 788.03 405.13 694.63 498.80 625.97 616.37 774.52 608.44
00001204 00000102 492.33 232.87 408.81 523.88 598.95 414.10 787.94 407.50 694.21 502.98 625.53 618.90 772.57 611.76
00001205 00000103 492.94 240.44 407.39 521.18 599.34 416.25 787.10 408.72 694.50 507.20 628.31 624.54 770.41 616.76
00001206 00000104 493.86 245.34 405.78 520.70 598.37 419.82 788.12 414.77 694.16 514.74 625.37 631.61 771.72 625.77
00001207 00000105 492.86 251.17 406.00 521.44 596.84 422.51 788.32 419.69 692.11 519.14 623.33 636.33 772.58 632.60
00001208 00000106 492.23 252.58 406.95 529.25 593.25 427.49 787.29 425.46 687.10 522.89 617.57 641.28 773.27 638.68
00001209 00000107 492.12 258.18 406.19 526.80 592.97 428.32 784.00 427.93 684.75 525.11 616.24 641.04 768.71 640.70
00001210 00000108 492.07 257.98 403.95 527.06 593.13 430.97 783.48 430.56 685.51 528.74 615.64 640.98 771.79 640.68
00001211 00000109 492.28 260.17 403.61 523.44 592.65 432.16 784.45 432.26 684.43 530.31 614.98 642.04 773.15 642.27
00001212 00000110 491.33 258.64 404.53 525.56 592.12 433.05 785.40 432.96 685.14 531.08 615.30 643.29 774.48 643.14
00001213 00000111 489.95 260.65 404.63 524.38 591.77 433.20 784.28 433.74 685.36 533.06 615.27 643.66 773.63 644.09
00001214 00000112 489.41 260.83 404.23 524.87 590.89 432.60 784.62 432.61 685.68 533.11 615.91 645.20 773.97 645.22
00001215 00000113 489.39 257.97 403.40 527.81 591.16 432.33 785.19 433.02 685.92 533.17 615.40 646.12 772.52 646.68
00001216 00000114 488.02 258.31 403.41 525.76 590.97 432.40 784.32 432.42 686.69 533.13 616.49 645.26 771.04 645.26
00001217 00000115 487.30 256.54 403.36 527.45 590.62 432.38 784.31 431.52 687.39 534.08 616.49 645.93 769.31 645.17
00001218 00000116 485.24 258.43 403.99 526.96 588.59 433.11 782.43 430.96 686.68 535.25 615.21 645.25 769.12 643.39
00001219 00000117 484.65 257.23 404.32 529.09 588.31 434.63 782.46 431.66 687.57 536.70 615.56 645.69 770.41 642.96
CROP_BBOX: 246 0 1115 954
