Video ID: 	Db7bIB-Gu4w
H: 	1080
W: 	1920
FPS: 	25.0

FRAME INDEX X0 Y0 W H [Landmarks (5 Points)]

00000458 00000000 748.93 147.00 386.67 558.35 803.24 357.58 969.79 360.17 854.28 470.34 820.45 563.60 949.48 567.78
00000459 00000001 755.12 156.55 364.68 541.71 802.51 372.22 950.95 365.22 845.50 469.49 821.46 556.52 955.23 552.04
00000460 DELETE   742.03 156.22 369.80 546.48 791.50 375.29 935.54 365.02 832.19 471.47 814.51 560.76 943.81 553.70
00000461 DELETE   736.67 152.99 362.63 555.11 778.82 370.38 920.55 363.88 811.13 469.80 799.77 566.59 919.84 562.80
00000462 00000004 729.51 142.37 364.12 558.32 759.86 365.80 909.99 360.87 793.14 475.05 780.18 564.54 900.87 560.77
00000463 00000005 726.05 136.71 368.69 555.67 758.56 360.77 912.14 356.69 790.69 465.83 773.96 559.27 897.86 556.36
00000464 00000006 731.37 137.25 368.27 555.16 769.66 359.93 925.02 358.57 806.35 466.71 786.42 559.18 909.59 558.48
00000465 00000007 739.49 152.97 364.54 552.50 785.26 364.61 930.05 364.33 817.81 465.55 799.10 560.51 922.28 562.03
00000466 00000008 738.02 151.94 367.47 565.85 785.07 378.55 929.50 375.29 820.46 482.19 803.43 576.28 926.84 574.48
00000467 00000009 735.51 152.52 365.32 562.93 780.60 379.74 922.72 378.13 814.75 486.91 798.13 576.79 918.28 576.32
00000468 00000010 736.13 146.98 363.42 554.30 776.43 372.08 920.32 370.40 809.09 477.07 794.45 564.37 917.67 563.71
00000469 00000011 738.30 148.43 365.72 542.27 782.16 364.63 927.60 361.44 820.49 466.85 802.53 553.72 925.02 552.41
00000470 00000012 744.73 146.24 365.05 544.28 789.98 357.89 938.17 355.33 830.04 458.35 808.68 547.21 933.31 547.11
00000471 00000013 749.85 144.53 364.54 547.68 795.52 356.74 946.70 351.34 837.80 452.11 812.57 547.05 941.88 545.10
00000472 00000014 752.31 141.40 366.28 549.26 800.38 353.06 954.96 346.55 843.19 444.32 814.52 544.50 944.55 541.55
00000473 00000015 754.11 139.14 370.76 548.00 807.10 349.64 964.95 342.90 848.51 438.37 818.86 543.06 948.47 539.64
00000474 00000016 760.73 136.29 372.84 542.09 815.28 338.51 979.53 336.81 853.79 429.25 822.80 539.71 943.81 538.60
00000475 DELETE   775.78 117.03 367.27 545.36 831.89 331.40 994.68 337.07 875.65 425.75 832.15 529.66 952.38 534.90
00000476 DELETE   789.90 113.33 371.32 535.11 860.72 324.25 1018.99 338.52 902.15 414.44 852.31 510.59 983.77 523.89
00000477 DELETE   805.49 113.20 370.67 522.57 878.71 315.37 1038.84 331.98 923.31 407.42 869.06 497.46 1004.34 513.81
00000478 00000020 818.90 101.95 375.87 524.61 893.29 307.94 1064.31 325.10 942.86 400.22 879.57 489.82 1026.69 506.01
00000479 DELETE   827.68 100.39 381.00 529.49 910.96 298.76 1077.12 320.95 966.14 395.74 901.75 491.84 1031.43 512.23
00000480 DELETE   834.99 96.04 386.70 534.63 927.62 292.18 1092.14 322.90 979.30 388.38 910.51 484.21 1038.20 511.19
00000481 00000023 847.77 88.82 381.99 535.29 937.54 290.27 1102.31 317.62 994.06 383.40 917.78 476.17 1051.77 500.02
00000482 00000024 855.21 85.64 379.45 533.43 944.80 284.07 1111.19 311.83 1001.82 380.17 926.49 472.81 1059.90 496.84
00000483 00000025 860.88 93.60 375.96 525.24 953.46 282.49 1119.27 312.11 1009.54 380.72 933.00 472.23 1066.36 498.04
00000484 00000026 859.49 98.37 377.16 523.03 956.56 285.01 1124.24 313.61 1016.48 383.08 937.39 476.28 1070.55 501.06
00000485 00000027 858.85 102.54 376.85 522.27 956.64 289.75 1126.14 316.17 1019.79 382.37 940.64 478.24 1078.51 501.09
00000486 00000028 858.04 104.36 378.86 522.28 957.32 292.29 1127.09 319.19 1021.13 385.17 941.63 477.19 1082.46 500.28
00000487 00000029 859.45 104.51 376.97 528.33 958.58 298.76 1125.88 325.31 1023.70 390.61 946.40 482.11 1083.58 505.03
00000488 00000030 856.00 105.84 377.99 536.55 955.42 301.52 1119.92 327.36 1021.55 399.70 949.47 489.14 1075.45 511.84
00000489 00000031 848.38 107.02 378.14 541.74 948.47 311.30 1112.61 334.27 1016.78 411.43 944.49 497.99 1072.68 518.40
00000490 00000032 836.86 108.32 380.13 550.69 938.20 319.95 1100.66 339.55 1009.72 417.42 936.98 507.04 1069.31 524.92
00000491 DELETE   828.90 129.57 374.86 541.57 916.54 328.87 1083.80 338.76 989.46 426.44 928.79 527.63 1057.39 535.95
00000492 DELETE   822.86 131.02 372.98 548.64 901.23 334.85 1073.63 335.19 971.51 438.24 916.06 537.04 1048.67 537.77
00000493 00000035 812.44 136.39 379.06 546.89 891.93 340.47 1064.06 335.95 967.16 441.73 913.12 542.35 1045.25 538.95
00000494 00000036 808.04 148.16 376.40 542.06 887.54 347.25 1055.42 342.37 961.83 449.66 908.11 544.90 1040.00 541.77
00000495 00000037 799.77 152.15 376.58 547.40 881.20 354.52 1048.29 349.43 959.45 457.45 906.21 552.36 1037.95 548.92
00000496 00000038 792.09 158.15 379.74 550.85 876.60 361.72 1043.76 355.53 957.41 464.31 907.96 564.04 1035.83 558.97
00000497 00000039 788.84 157.60 380.55 560.72 873.85 368.72 1041.68 364.23 955.26 472.01 905.65 570.95 1036.14 566.90
00000498 00000040 786.17 161.01 381.90 561.30 873.65 374.15 1040.13 368.96 955.77 480.21 907.10 575.72 1037.03 570.84
00000499 00000041 781.58 164.03 385.44 563.87 871.68 379.92 1040.87 376.06 956.39 489.19 904.63 582.00 1036.67 578.39
00000500 00000042 772.97 166.86 390.52 566.94 865.57 386.29 1038.04 382.51 954.47 500.56 897.46 591.62 1032.33 588.32
00000501 00000043 767.25 169.53 392.23 567.38 861.04 392.92 1029.56 388.03 949.02 508.04 895.20 595.50 1029.66 591.32
00000502 00000044 762.43 168.63 390.29 570.86 856.05 397.06 1024.25 390.64 944.00 515.56 893.30 600.94 1026.74 595.67
00000503 00000045 759.61 167.07 391.78 576.56 854.44 397.02 1023.06 391.14 941.80 517.31 891.36 604.20 1022.42 599.46
00000504 00000046 759.25 165.60 392.27 583.95 855.25 395.32 1023.15 390.45 942.06 516.00 893.18 607.75 1018.12 604.07
00000505 00000047 760.95 162.34 391.73 591.18 857.39 394.12 1023.51 389.54 942.98 512.25 897.44 610.48 1016.10 606.98
00000506 00000048 765.89 162.01 389.37 591.27 859.73 393.10 1025.57 388.26 943.97 510.22 900.55 611.19 1018.42 607.26
00000507 00000049 771.02 164.83 388.57 585.47 863.06 395.46 1028.50 388.45 947.42 512.45 903.51 609.73 1025.17 603.96
00000508 00000050 772.82 167.46 391.34 579.45 865.88 399.64 1033.76 391.30 951.82 519.07 904.90 609.17 1030.59 602.27
00000509 00000051 776.00 172.06 393.08 574.98 868.97 401.98 1035.78 394.78 952.75 519.50 905.59 608.87 1032.23 603.02
00000510 00000052 775.93 170.34 394.77 573.91 868.44 399.06 1037.41 392.93 952.11 517.14 904.18 607.31 1031.16 602.29
00000511 00000053 773.08 170.12 392.16 571.58 859.20 400.30 1027.21 394.43 940.24 516.94 892.73 605.85 1025.60 601.09
00000512 DELETE   769.34 171.27 387.90 562.56 846.92 400.06 1012.95 397.86 917.88 508.70 875.93 602.37 1007.05 601.12
00000513 DELETE   760.23 168.45 386.75 569.12 830.00 395.69 993.58 396.06 890.94 509.43 860.84 602.23 981.74 602.03
00000514 DELETE   765.16 179.00 372.53 558.72 820.84 394.31 973.75 395.00 873.41 516.17 850.07 599.26 964.63 600.56
00000515 00000057 755.95 174.63 381.71 569.84 819.14 399.76 975.84 403.49 867.66 523.24 840.30 599.20 962.74 601.77
00000516 00000058 754.53 179.23 382.52 569.39 816.45 403.78 978.52 410.10 868.65 536.28 836.46 606.26 966.08 610.92
00000517 00000059 754.35 190.78 381.41 568.33 816.33 411.09 983.30 419.11 874.98 556.63 840.65 613.79 976.15 619.87
00000518 00000060 748.83 205.14 385.52 566.49 813.88 421.12 981.80 428.35 875.95 568.67 844.50 623.47 979.86 628.68
00000519 00000061 747.07 213.55 383.11 558.59 809.17 431.99 966.89 430.80 868.44 567.47 850.56 638.90 975.78 636.17
00000520 00000062 741.96 211.94 385.40 561.53 804.35 437.61 964.93 435.31 866.53 571.98 845.72 642.67 974.47 639.14
00000521 00000063 740.24 225.09 385.79 549.82 804.91 441.88 965.42 437.62 869.11 575.99 845.65 644.59 976.79 639.57
00000522 00000064 738.45 224.38 386.79 551.73 802.94 445.30 963.19 438.02 869.20 576.79 846.40 645.40 978.64 637.69
00000523 00000065 738.93 224.66 384.76 550.49 802.09 442.71 959.90 436.75 865.56 572.26 842.19 640.65 973.11 634.32
00000524 00000066 740.14 216.27 381.54 555.89 800.30 436.81 956.20 434.17 860.66 567.49 835.85 633.14 966.53 629.91
00000525 00000067 741.99 211.82 380.58 558.07 800.79 433.32 954.93 430.83 859.87 564.12 838.13 630.70 966.57 627.69
00000526 00000068 741.73 207.36 382.89 560.04 800.73 431.26 957.95 429.14 861.16 564.72 839.28 632.35 967.70 629.45
00000527 00000069 737.47 205.45 386.42 565.52 801.44 431.54 964.16 433.25 863.59 567.20 840.56 628.77 967.07 629.73
00000528 00000070 738.34 200.88 386.94 569.27 802.55 427.57 965.39 428.94 865.19 561.95 842.17 627.05 967.37 627.74
00000529 00000071 740.70 195.28 385.09 577.12 804.45 424.86 964.29 424.61 865.98 557.14 845.12 626.84 969.25 626.13
00000530 00000072 740.57 195.59 384.71 579.52 803.20 423.99 960.32 423.03 863.19 555.51 845.93 629.05 968.62 627.52
00000531 00000073 738.47 195.43 385.18 575.84 799.51 425.25 959.10 423.81 860.24 558.17 840.84 629.60 966.35 627.69
00000532 00000074 738.00 197.56 384.66 574.13 798.22 425.80 958.00 426.19 857.52 560.81 838.10 629.92 963.36 629.46
00000533 00000075 738.60 199.43 384.32 574.49 798.92 426.76 957.53 427.04 857.10 560.38 838.82 631.56 962.18 631.02
00000534 00000076 739.51 192.84 385.32 578.34 798.74 424.67 957.45 424.04 856.15 556.15 837.84 630.10 961.09 628.96
00000535 00000077 740.57 185.81 386.80 579.59 799.83 417.73 961.82 416.87 858.77 547.33 837.81 624.28 963.23 623.12
00000536 00000078 742.60 174.62 391.23 587.38 805.84 411.16 971.94 410.64 861.97 537.95 835.69 620.00 963.42 619.07
00000537 00000079 746.00 168.37 389.09 588.05 809.15 409.00 975.04 407.90 865.20 531.75 837.57 616.34 963.64 615.07
00000538 00000080 749.28 167.73 388.12 588.58 812.94 405.38 977.76 403.88 868.16 526.01 842.47 615.28 965.06 613.51
00000539 00000081 757.95 167.23 380.84 580.68 814.02 401.15 974.90 399.63 871.03 520.96 846.66 612.16 965.60 610.77
00000540 00000082 761.48 172.66 380.92 572.55 818.84 396.18 978.96 394.03 876.19 516.68 851.68 608.47 970.14 606.92
00000541 00000083 760.79 167.90 384.44 573.80 825.85 391.96 985.13 389.61 886.68 509.00 854.85 603.02 972.51 601.81
00000542 DELETE   762.38 161.75 389.52 579.39 835.98 386.99 1001.74 385.86 904.36 497.42 862.35 598.77 985.45 598.84
00000543 DELETE   770.68 158.08 391.23 587.26 849.80 378.71 1023.23 377.40 926.24 491.09 878.61 595.59 1009.36 594.71
00000544 00000086 779.37 157.94 388.39 582.27 862.71 373.28 1033.74 369.94 941.61 477.98 893.49 588.72 1024.27 585.80
00000545 DELETE   786.44 160.15 384.47 572.53 870.80 362.40 1042.85 354.74 952.76 463.06 905.06 577.81 1037.08 571.22
00000546 00000088 788.52 155.63 385.97 559.38 875.85 355.05 1047.49 340.87 963.44 440.79 912.14 566.25 1042.07 554.82
00000547 00000089 791.44 138.02 385.79 556.04 876.42 349.49 1050.76 332.43 959.90 430.60 907.98 551.90 1043.90 538.47
00000548 00000090 788.88 126.05 390.07 552.15 874.56 347.78 1048.14 333.29 960.52 431.72 913.48 541.43 1053.50 529.90
00000549 00000091 791.42 126.55 387.96 552.47 879.80 345.13 1047.09 331.69 963.48 427.49 915.45 541.86 1046.55 531.79
00000550 00000092 792.60 124.58 388.88 552.33 879.51 343.94 1047.84 328.97 963.96 424.01 916.53 540.90 1048.82 529.41
00000551 00000093 794.46 124.29 389.10 542.84 880.37 341.73 1049.88 325.99 964.57 423.45 918.44 532.82 1054.57 520.44
00000552 00000094 795.09 126.12 390.16 535.87 881.68 340.58 1050.08 325.67 965.41 422.62 919.30 527.40 1056.37 515.46
00000553 00000095 794.85 129.53 389.97 528.88 882.96 340.47 1048.66 326.70 966.06 421.42 917.86 522.24 1054.14 511.12
00000554 00000096 794.47 130.66 388.00 527.78 883.91 339.56 1048.70 328.06 966.04 420.68 914.94 518.48 1052.85 509.28
00000555 00000097 793.04 132.33 387.58 527.96 882.96 342.02 1047.24 331.43 965.23 426.43 914.48 519.89 1053.02 511.17
00000556 00000098 790.62 132.30 385.83 541.36 878.44 347.12 1046.91 335.02 960.58 430.46 911.12 532.68 1049.49 523.10
00000557 00000099 782.50 128.23 387.70 546.22 867.29 350.87 1042.25 336.39 951.20 429.37 905.90 538.19 1049.13 526.64
00000558 00000100 775.96 128.12 391.14 547.04 859.36 351.21 1032.17 335.16 938.72 430.71 899.40 537.16 1042.88 524.10
00000559 00000101 770.07 129.64 390.50 547.75 857.31 349.54 1025.72 337.75 935.44 434.55 894.77 538.33 1032.46 528.96
00000560 00000102 771.56 144.59 387.21 547.20 857.29 349.48 1020.94 337.70 938.25 435.17 893.80 545.17 1016.17 535.77
00000561 00000103 766.91 149.26 389.01 550.76 850.70 350.95 1013.37 338.77 930.89 437.17 887.50 548.37 1008.91 538.83
00000562 00000104 761.40 149.41 389.70 544.07 843.56 355.19 1005.57 340.36 924.40 443.11 882.16 548.04 1006.41 536.20
00000563 00000105 753.73 140.21 393.15 551.14 839.92 355.73 1001.21 341.13 914.75 442.60 877.86 548.37 1007.60 537.32
00000564 00000106 758.16 149.59 382.67 545.47 834.68 360.25 996.13 336.65 915.18 439.03 877.41 554.99 1007.71 534.32
00000565 00000107 754.44 148.00 383.01 545.79 831.52 355.76 993.22 329.96 911.53 430.05 877.28 555.29 1003.94 533.03
00000566 00000108 749.66 144.97 384.75 544.06 827.44 354.91 988.84 329.04 907.09 429.58 873.00 550.96 1000.11 528.57
00000567 00000109 740.87 143.67 384.12 536.66 822.06 361.11 978.74 339.27 898.03 439.53 863.25 543.70 993.43 526.19
00000568 00000110 737.02 142.89 381.99 531.98 815.13 361.04 973.25 338.31 891.77 438.80 857.90 539.23 992.98 520.49
00000569 00000111 731.42 143.31 385.10 528.59 810.63 360.73 971.36 338.23 889.31 439.93 854.95 539.01 990.11 520.35
00000570 00000112 725.96 141.01 387.00 533.07 805.76 362.69 970.68 337.61 886.82 439.28 853.39 544.55 988.41 524.01
00000571 00000113 719.81 138.46 388.96 541.39 796.55 366.66 963.24 338.66 876.44 439.08 844.14 547.46 982.91 524.57
00000572 00000114 710.50 138.72 393.13 552.45 785.55 373.55 949.43 344.80 860.74 448.54 833.29 555.19 970.64 532.03
00000573 DELETE   700.40 146.63 391.48 553.20 772.03 378.59 931.07 352.43 837.90 461.21 814.84 562.56 948.94 541.97
00000574 00000116 693.22 161.34 388.21 544.55 759.87 381.82 913.27 362.85 824.33 475.89 804.65 574.28 925.54 559.57
00000575 00000117 694.38 163.46 392.91 549.58 764.61 382.67 919.44 361.93 833.77 476.41 813.94 578.15 935.48 561.78
00000576 00000118 697.53 161.65 398.35 557.42 772.11 383.20 930.70 360.06 849.82 474.39 827.17 579.88 952.78 561.66
00000577 00000119 697.95 161.22 398.17 559.72 773.17 385.21 931.86 361.45 851.28 477.69 830.19 582.54 955.05 563.76
00000578 00000120 695.51 163.15 400.34 557.47 769.74 387.56 930.68 363.42 848.13 480.75 825.22 584.85 952.82 565.78
00000579 00000121 694.23 161.93 404.18 559.30 769.75 390.15 933.81 363.16 851.60 481.05 826.07 586.79 959.53 565.24
00000580 00000122 695.63 161.46 405.05 558.42 774.10 389.19 938.33 361.11 858.61 480.23 830.68 585.52 967.08 562.78
00000581 00000123 698.64 162.57 404.72 558.10 778.94 389.37 942.27 361.98 863.21 480.89 833.97 584.66 971.63 561.99
00000582 00000124 701.87 165.11 403.60 562.88 782.62 387.91 942.99 364.23 865.21 482.51 840.31 586.49 971.53 566.12
00000583 00000125 702.22 164.20 403.19 570.27 782.59 388.30 944.26 365.58 864.28 484.88 839.85 591.25 970.87 571.46
00000584 00000126 703.66 164.35 402.42 569.58 784.38 388.53 946.03 366.39 865.64 485.49 840.15 590.58 971.49 571.31
00000585 00000127 705.89 166.89 402.15 563.62 789.78 386.05 951.51 366.01 872.07 482.60 842.85 585.86 973.70 568.48
00000586 00000128 716.96 164.56 396.66 556.59 800.99 388.94 962.27 367.97 882.51 480.17 848.36 579.98 982.41 561.95
CROP_BBOX: 471 0 1486 951
