Video ID: 	O20zaZuveog
H: 	1080
W: 	1920
FPS: 	25.0

FRAME INDEX X0 Y0 W H [Landmarks (5 Points)]

00001812 00000000 949.23 146.28 404.72 615.90 986.01 371.14 1170.12 398.56 1003.00 503.71 986.74 619.62 1117.53 644.51
00001813 00000001 950.21 135.74 406.46 618.20 985.73 371.06 1171.05 394.50 1004.94 498.61 986.82 614.01 1120.90 635.97
00001814 00000002 952.22 138.74 407.37 607.27 986.24 370.20 1173.41 388.29 1010.05 493.23 990.82 611.87 1123.80 629.93
00001815 DELETE   957.33 138.93 405.05 600.70 988.71 367.00 1175.80 383.83 1012.22 488.30 993.43 607.05 1127.51 624.48
00001816 00000004 960.12 138.35 405.84 601.36 990.93 365.77 1179.77 377.41 1017.49 479.64 994.00 605.33 1133.48 618.63
00001817 00000005 955.03 143.31 412.47 596.76 998.43 363.31 1184.77 376.18 1030.91 471.40 1001.93 595.34 1132.61 606.65
00001818 00000006 960.60 124.25 406.71 616.30 999.01 350.74 1187.32 360.19 1028.83 466.50 1001.77 595.22 1145.68 606.28
00001819 DELETE   960.34 119.04 410.85 624.66 1004.34 348.13 1190.48 348.91 1038.63 460.55 1011.85 595.79 1156.85 599.82
00001820 DELETE   961.79 117.06 414.49 627.70 1008.47 347.60 1192.60 338.28 1042.73 450.90 1021.13 595.90 1164.99 591.40
00001821 00000009 961.79 113.99 415.26 628.38 1008.78 347.52 1193.75 332.99 1046.89 439.17 1029.15 585.63 1164.90 574.65
00001822 00000010 958.17 108.63 421.22 622.31 1005.54 348.39 1194.31 327.88 1048.95 436.46 1032.56 578.23 1174.10 561.90
00001823 00000011 954.29 97.36 422.02 625.45 1004.09 345.41 1197.41 323.73 1054.01 432.22 1031.03 570.69 1182.76 553.25
00001824 00000012 955.39 96.75 421.42 618.71 1003.56 351.86 1190.00 322.32 1050.28 428.37 1033.08 568.43 1181.93 544.44
00001825 00000013 947.67 100.65 425.29 608.94 1000.68 348.07 1180.59 312.46 1049.53 420.16 1039.58 563.86 1178.47 534.34
00001826 00000014 941.57 112.91 418.83 593.92 990.90 347.85 1172.93 308.31 1040.71 426.86 1030.83 559.94 1182.03 527.22
00001827 00000015 940.93 110.61 419.13 593.37 982.89 348.07 1157.97 300.60 1025.47 418.77 1026.58 560.65 1180.33 519.62
00001828 00000016 936.48 113.14 421.98 591.61 976.60 350.70 1152.01 306.33 1012.76 423.72 1016.68 562.84 1172.83 524.11
00001829 00000017 935.10 114.51 426.51 592.12 969.80 359.33 1143.14 316.19 1007.05 434.78 1010.01 563.73 1158.35 527.62
00001830 00000018 932.82 112.71 425.97 599.93 962.46 369.69 1130.39 323.20 998.89 444.34 1010.41 572.09 1148.53 533.56
00001831 00000019 932.20 122.47 424.67 596.49 957.80 380.50 1113.31 328.05 990.89 453.97 1013.39 582.65 1140.27 539.09
00001832 00000020 929.67 132.65 427.82 587.37 957.66 388.11 1106.76 332.57 988.29 461.68 1016.48 589.35 1137.80 542.84
00001833 00000021 927.04 134.85 428.15 586.91 956.17 396.06 1099.75 336.80 985.94 469.54 1019.57 593.80 1137.72 544.00
00001834 00000022 925.27 137.16 428.00 590.39 955.87 398.81 1098.40 338.79 984.61 473.01 1021.06 597.20 1138.51 546.59
00001835 00000023 925.12 143.85 430.21 588.11 956.81 396.00 1099.74 340.42 986.17 476.66 1020.96 599.20 1137.80 552.32
00001836 00000024 924.19 140.37 429.45 593.37 956.31 396.68 1101.43 342.01 988.33 479.00 1021.12 599.78 1139.19 553.75
00001837 00000025 926.76 142.59 423.70 595.44 961.60 408.73 1105.38 349.24 994.22 483.46 1024.43 605.77 1144.16 555.97
00001838 00000026 925.45 134.68 421.78 611.36 959.90 405.39 1111.47 353.90 991.59 484.43 1012.60 607.29 1146.00 563.92
00001839 00000027 921.05 140.12 424.35 603.45 957.40 396.03 1109.60 350.30 987.92 484.14 1009.64 601.10 1144.98 562.30
00001840 00000028 916.95 132.70 427.52 610.25 951.80 394.00 1109.24 346.91 985.00 482.26 1004.30 599.47 1144.54 559.39
00001841 00000029 915.50 130.67 427.29 610.80 950.12 394.04 1106.19 349.45 982.26 483.42 1003.09 598.02 1142.67 559.74
00001842 00000030 914.44 129.35 426.96 617.05 948.74 395.05 1103.60 349.94 980.74 484.16 1002.83 600.76 1141.12 562.16
00001843 00000031 911.82 125.23 426.72 624.42 946.54 394.14 1100.76 350.31 976.12 483.97 998.77 606.33 1130.63 569.14
00001844 00000032 909.96 122.11 424.96 628.72 945.36 389.18 1098.33 350.55 973.24 481.42 993.61 606.38 1119.90 573.87
00001845 00000033 912.07 129.72 418.49 612.02 940.76 390.12 1093.12 349.80 971.14 480.84 994.56 609.35 1111.61 576.47
00001846 00000034 910.86 135.85 412.80 605.59 939.30 385.58 1092.58 351.52 968.95 479.60 986.55 608.38 1101.15 580.73
00001847 00000035 909.83 141.52 406.45 605.91 945.31 377.51 1095.18 348.67 971.26 471.72 987.25 609.67 1095.38 586.08
00001848 00000036 904.58 142.58 409.02 607.78 939.58 377.49 1092.23 349.66 955.99 472.29 979.82 619.40 1082.42 597.31
00001849 00000037 900.97 144.33 409.62 611.68 935.65 378.07 1094.63 353.48 954.93 474.52 972.94 623.46 1079.43 604.15
00001850 00000038 898.66 147.17 409.37 618.06 933.03 380.75 1098.07 359.56 958.53 482.98 969.88 628.25 1082.19 611.75
00001851 00000039 898.66 145.76 399.18 630.60 935.66 384.63 1098.78 367.52 967.32 489.18 975.60 629.78 1083.38 615.47
00001852 00000040 886.77 154.51 417.37 621.09 931.52 400.99 1095.87 380.53 968.55 504.89 977.76 634.72 1091.15 617.67
00001853 00000041 880.62 167.95 424.92 601.58 921.85 421.79 1090.64 390.56 968.88 518.32 974.61 637.41 1103.29 611.48
00001854 00000042 873.55 180.35 424.34 592.97 917.51 426.95 1082.55 398.14 963.01 526.48 971.00 642.48 1096.29 618.10
00001855 00000043 866.84 189.25 413.88 587.58 903.05 439.41 1069.85 405.93 939.84 535.02 954.77 649.21 1095.92 621.14
00001856 00000044 870.95 203.30 418.08 580.26 903.32 431.42 1072.06 401.85 948.39 539.08 960.59 657.87 1091.95 636.20
00001857 00000045 871.98 190.78 420.72 599.50 908.36 425.33 1072.17 400.08 944.38 534.00 954.95 649.30 1081.34 627.64
00001858 00000046 876.32 184.65 417.44 608.99 912.19 423.08 1076.71 399.18 946.80 532.63 958.04 650.13 1084.04 629.21
00001859 00000047 877.67 184.44 420.63 613.91 916.05 423.11 1081.10 395.57 950.97 530.10 963.20 652.11 1089.23 628.14
00001860 00000048 875.35 185.49 423.56 610.69 914.50 420.93 1081.55 392.49 950.37 525.95 961.75 649.43 1088.96 624.68
00001861 00000049 874.54 176.04 423.79 620.16 913.84 418.37 1081.95 389.56 949.37 520.32 959.15 645.72 1087.85 620.56
00001862 00000050 873.54 163.49 421.85 628.16 914.66 413.90 1080.43 385.04 949.41 509.58 959.36 640.51 1084.10 615.51
00001863 00000051 876.00 153.81 418.02 632.61 916.63 404.67 1082.79 381.70 951.12 504.67 958.50 632.23 1086.03 611.91
00001864 00000052 879.88 140.86 416.15 638.42 919.75 401.11 1087.00 372.88 953.09 495.66 959.71 628.80 1093.14 603.93
00001865 00000053 889.60 139.55 414.61 623.98 920.42 392.40 1091.43 358.58 956.05 486.67 966.23 626.55 1100.37 598.41
00001866 00000054 889.91 138.33 419.02 620.46 925.00 385.61 1097.64 348.16 962.39 478.92 973.17 623.03 1110.54 592.23
00001867 00000055 890.33 132.47 422.29 625.86 930.99 375.01 1104.19 338.05 967.62 468.51 978.67 615.98 1120.17 585.66
00001868 00000056 900.94 130.21 415.96 624.40 935.43 373.24 1107.46 333.19 970.96 457.04 983.12 603.07 1118.42 570.40
00001869 00000057 903.99 121.79 417.42 624.11 939.68 366.83 1117.37 326.59 974.67 448.57 982.98 596.27 1126.21 563.43
00001870 00000058 917.93 115.92 410.35 627.16 948.80 354.21 1130.33 322.55 987.70 441.94 982.46 586.95 1130.35 561.97
00001871 00000059 917.12 112.26 411.22 629.50 957.86 345.46 1133.89 317.98 991.29 436.48 982.81 580.63 1137.52 556.93
00001872 00000060 920.08 120.09 414.28 618.32 966.93 341.97 1151.10 320.86 1000.10 429.60 989.68 573.21 1148.42 554.68
00001873 00000061 926.29 114.71 414.90 615.68 975.28 337.27 1162.13 325.64 1011.96 428.53 990.62 562.92 1153.35 552.63
00001874 00000062 931.70 113.09 415.54 613.84 981.31 337.31 1167.75 329.09 1016.17 428.23 995.56 558.15 1159.11 550.71
00001875 00000063 935.65 114.82 419.11 609.22 988.40 336.23 1173.50 330.50 1022.10 427.45 1001.31 555.84 1163.08 550.97
00001876 00000064 944.30 114.81 417.49 607.23 998.42 332.72 1184.53 330.95 1030.45 426.39 1006.10 552.81 1165.55 551.29
00001877 00000065 952.76 108.05 415.44 614.01 1006.66 328.52 1194.28 327.27 1034.63 426.90 1010.04 555.57 1167.70 554.33
00001878 00000066 963.80 100.03 410.31 622.50 1020.60 314.30 1201.78 324.06 1047.37 416.54 1011.28 545.67 1154.25 554.50
00001879 00000067 969.60 95.94 410.28 626.59 1028.37 313.82 1205.89 324.91 1051.52 415.29 1016.47 543.80 1154.80 554.26
00001880 00000068 975.46 108.34 405.33 613.31 1030.97 317.18 1212.88 330.52 1052.85 412.08 1020.11 546.89 1156.10 559.57
00001881 00000069 979.48 113.09 403.95 610.41 1034.08 320.58 1216.68 332.07 1058.42 417.68 1025.37 551.52 1162.57 562.86
00001882 00000070 980.86 120.81 404.37 604.62 1036.47 326.33 1218.61 336.49 1063.99 423.74 1028.09 555.39 1165.28 565.65
00001883 00000071 989.30 126.63 394.86 602.30 1038.80 332.24 1225.73 343.10 1070.21 432.61 1033.31 561.94 1172.79 572.83
00001884 00000072 992.07 128.02 391.43 603.50 1040.76 334.26 1229.64 347.39 1075.32 436.15 1034.14 565.16 1172.88 578.25
00001885 00000073 994.32 131.11 392.13 600.66 1044.22 334.66 1232.01 351.27 1081.39 440.99 1036.24 566.60 1172.89 582.55
00001886 00000074 998.18 129.72 389.25 602.68 1048.64 336.49 1234.05 353.34 1083.93 442.46 1040.66 565.75 1178.38 581.81
00001887 00000075 1001.36 130.41 387.67 601.12 1052.28 337.29 1236.13 354.96 1087.21 445.89 1043.22 565.66 1182.28 582.46
00001888 00000076 1003.54 131.09 387.53 604.05 1055.12 343.70 1238.91 361.41 1090.33 449.98 1049.35 571.02 1185.73 587.62
00001889 00000077 1008.76 134.03 391.12 598.60 1060.39 349.77 1243.60 359.79 1094.91 444.73 1058.75 567.64 1207.08 577.08
00001890 00000078 1004.09 133.58 408.48 596.21 1062.48 347.62 1251.46 355.30 1106.11 445.47 1063.45 560.66 1227.75 567.18
00001891 00000079 1003.46 132.92 415.37 595.99 1065.89 348.00 1255.73 351.45 1116.82 450.24 1071.57 559.03 1244.20 561.34
00001892 00000080 1008.55 132.76 412.81 592.70 1073.97 346.70 1264.46 350.52 1128.82 450.19 1079.84 554.60 1253.84 557.07
00001893 00000081 1013.22 131.78 412.91 596.19 1080.10 346.22 1273.99 347.37 1137.82 449.92 1087.08 558.76 1261.43 559.75
00001894 00000082 1019.92 128.61 410.94 599.09 1087.96 349.91 1285.88 349.30 1149.19 455.25 1096.55 565.78 1271.32 565.46
00001895 00000083 1027.30 125.85 410.13 601.78 1095.86 352.27 1298.73 354.01 1158.63 460.80 1101.64 567.90 1279.16 569.47
00001896 00000084 1031.96 131.96 407.97 595.86 1103.55 354.22 1307.06 361.20 1167.41 468.83 1107.49 570.53 1281.76 576.14
00001897 00000085 1033.91 135.18 411.49 596.43 1107.85 361.15 1314.15 367.36 1174.72 478.10 1114.80 580.45 1285.37 585.25
00001898 00000086 1040.78 147.22 413.56 597.49 1110.02 365.60 1322.73 377.29 1181.37 488.62 1121.23 599.89 1280.55 610.62
00001899 00000087 1047.96 161.04 408.50 595.48 1120.95 376.38 1322.80 384.72 1190.79 494.61 1127.27 599.57 1284.46 606.57
00001900 00000088 1048.66 165.34 407.81 593.81 1122.18 380.19 1323.68 388.11 1192.05 497.15 1129.22 603.71 1282.13 610.54
00001901 00000089 1049.92 162.94 408.25 595.79 1124.60 377.77 1325.44 385.79 1194.43 495.09 1131.49 602.69 1283.47 609.88
00001902 00000090 1051.64 154.27 406.55 600.90 1126.44 374.89 1328.49 379.18 1199.88 488.87 1135.14 600.50 1289.04 604.59
00001903 00000091 1055.58 149.40 405.54 602.36 1131.95 365.39 1333.06 370.86 1206.68 480.94 1141.07 595.47 1295.26 600.46
00001904 00000092 1058.91 142.72 405.62 605.71 1139.29 360.57 1339.44 365.54 1219.54 469.92 1154.21 590.91 1306.34 595.64
00001905 00000093 1063.77 142.55 414.23 595.13 1145.08 351.25 1347.85 355.25 1226.93 458.75 1162.04 583.60 1313.97 587.35
00001906 00000094 1070.78 133.99 412.04 594.68 1152.93 346.22 1355.32 347.91 1234.56 453.48 1170.72 576.81 1323.18 579.04
00001907 00000095 1079.08 119.38 409.63 603.58 1161.10 343.28 1362.66 342.91 1239.67 448.53 1175.94 572.48 1328.83 573.13
00001908 00000096 1084.66 113.64 410.30 605.83 1164.90 344.92 1368.46 338.46 1244.93 442.64 1182.69 571.45 1339.97 567.52
00001909 00000097 1088.91 107.15 409.33 609.59 1171.04 344.12 1375.05 333.26 1253.40 436.87 1190.58 571.29 1346.10 563.65
00001910 00000098 1091.17 107.65 409.83 608.09 1174.60 343.10 1378.69 332.24 1256.76 435.61 1195.55 570.77 1350.19 562.78
00001911 00000099 1092.82 107.32 410.00 611.57 1175.69 344.21 1382.06 332.88 1258.58 439.79 1196.84 574.13 1352.57 566.31
00001912 00000100 1093.84 116.97 408.22 611.56 1175.29 346.41 1381.88 340.27 1255.26 450.78 1191.99 582.59 1346.00 578.79
00001913 00000101 1090.84 124.66 408.32 613.47 1172.78 352.88 1378.36 350.06 1250.77 460.48 1186.91 590.94 1340.63 589.96
00001914 00000102 1087.68 131.30 408.35 616.00 1169.98 359.86 1369.77 361.69 1243.63 477.94 1181.98 596.83 1336.28 598.07
00001915 00000103 1083.66 147.31 408.99 612.75 1164.42 368.05 1360.14 366.36 1238.24 487.95 1179.33 607.85 1330.65 605.70
00001916 00000104 1078.92 152.09 411.34 616.61 1158.05 376.21 1356.00 379.98 1223.99 495.72 1166.62 613.52 1323.97 615.45
00001917 00000105 1071.56 159.84 413.77 617.16 1150.24 382.09 1350.94 391.34 1216.42 499.82 1153.17 614.95 1319.14 621.59
00001918 00000106 1063.69 161.80 417.81 614.60 1142.77 382.59 1345.97 393.56 1211.37 499.34 1145.62 613.34 1313.87 621.51
00001919 00000107 1061.16 156.09 418.40 616.04 1139.00 379.05 1340.34 386.75 1205.49 497.96 1146.12 611.53 1307.04 617.12
00001920 00000108 1060.59 150.06 415.33 611.32 1136.04 370.25 1336.61 376.37 1204.71 484.77 1143.68 600.89 1303.87 605.53
00001921 00000109 1060.32 143.49 404.41 601.92 1132.01 361.24 1329.12 367.80 1199.59 469.69 1140.94 589.03 1296.16 595.30
00001922 00000110 1060.37 141.85 400.02 591.29 1127.62 347.53 1324.18 353.22 1193.11 456.28 1138.41 579.05 1290.42 584.88
00001923 00000111 1055.22 123.86 409.44 608.09 1123.83 343.20 1316.66 341.50 1179.97 445.30 1131.04 572.95 1284.85 572.62
00001924 00000112 1052.25 114.69 411.15 609.33 1117.03 336.68 1313.94 335.04 1173.86 439.50 1124.87 565.71 1281.70 565.01
00001925 00000113 1052.98 108.51 405.53 610.56 1114.19 333.71 1312.19 331.64 1170.86 435.70 1122.68 562.52 1281.15 560.99
00001926 00000114 1052.47 107.35 405.62 611.00 1112.59 331.99 1310.56 327.92 1168.73 433.27 1122.96 561.76 1281.08 558.46
00001927 00000115 1052.17 104.78 406.05 621.59 1111.00 332.42 1309.84 325.91 1166.73 434.59 1122.90 564.00 1284.75 558.85
00001928 00000116 1052.18 105.77 403.86 625.49 1111.10 334.41 1305.99 328.39 1164.33 438.24 1123.46 566.40 1285.46 561.41
00001929 00000117 1051.52 105.39 403.05 628.83 1110.86 335.22 1308.17 330.36 1164.75 442.17 1121.86 567.87 1287.18 563.89
00001930 00000118 1049.06 110.59 403.36 625.05 1111.74 338.71 1310.21 336.18 1166.76 444.91 1120.57 570.64 1286.07 568.47
00001931 00000119 1047.30 117.54 404.22 619.48 1114.16 343.14 1312.46 342.59 1170.73 448.65 1122.26 573.96 1284.90 573.81
00001932 00000120 1046.26 122.88 401.91 616.12 1115.58 347.19 1316.58 349.91 1175.03 456.48 1122.04 578.51 1284.86 581.24
00001933 00000121 1044.12 129.12 403.97 607.70 1112.12 345.88 1319.17 351.43 1178.27 466.36 1126.54 591.28 1279.88 597.53
00001934 00000122 1041.99 135.88 407.93 601.33 1109.07 348.40 1318.57 353.84 1177.82 470.42 1124.36 594.47 1276.87 600.72
00001935 00000123 1038.56 136.15 408.35 600.21 1107.35 348.80 1317.44 353.45 1178.85 469.94 1123.42 594.04 1276.88 599.74
00001936 00000124 1032.46 130.31 409.11 599.91 1108.40 357.12 1320.31 355.30 1182.78 464.75 1120.23 587.54 1288.29 587.07
00001937 00000125 1032.23 125.11 412.86 609.55 1113.33 354.71 1327.64 349.24 1192.83 456.33 1126.24 585.85 1297.34 582.74
00001938 00000126 1046.57 128.63 402.03 616.41 1131.69 341.50 1341.14 349.56 1218.99 452.42 1142.45 577.69 1312.06 584.68
00001939 00000127 1054.60 133.38 408.90 617.67 1148.72 343.86 1356.93 353.93 1241.29 455.97 1160.85 581.11 1334.84 588.30
00001940 DELETE   1058.43 135.77 419.21 620.87 1170.52 343.59 1382.97 358.88 1278.23 467.11 1182.57 584.54 1354.94 594.99
00001941 DELETE   1071.20 136.41 424.16 623.42 1194.39 356.79 1404.93 367.88 1306.93 481.98 1209.16 595.75 1373.63 602.88
00001942 00000130 1076.48 145.45 422.37 619.83 1212.11 365.22 1415.40 376.35 1327.94 494.41 1225.03 600.94 1386.60 608.80
00001943 00000131 1078.35 153.26 420.69 612.33 1218.18 375.89 1424.22 387.71 1339.20 501.36 1233.21 607.66 1396.38 616.21
00001944 00000132 1079.21 162.75 414.62 603.89 1220.76 382.96 1425.75 397.14 1342.29 508.72 1235.56 612.21 1397.53 623.09
00001945 00000133 1074.36 157.90 416.74 617.39 1219.51 384.28 1421.86 399.15 1339.71 515.87 1234.12 619.01 1391.56 630.11
00001946 00000134 1070.01 159.16 417.20 627.10 1214.99 387.33 1417.23 400.76 1336.63 523.94 1231.02 628.99 1386.49 638.95
00001947 00000135 1066.37 162.39 417.75 625.78 1206.31 388.85 1413.95 402.56 1328.76 527.30 1222.66 632.96 1380.28 643.38
00001948 00000136 1059.57 159.67 422.73 626.17 1196.91 388.31 1409.09 402.45 1321.70 525.56 1215.04 631.18 1376.82 642.04
00001949 00000137 1052.69 161.53 430.49 622.10 1190.65 385.13 1405.26 401.29 1312.20 522.45 1210.30 628.51 1368.92 640.85
00001950 00000138 1047.09 163.03 436.35 616.35 1180.32 389.37 1395.52 408.22 1295.01 507.56 1192.81 620.15 1358.65 634.95
00001951 DELETE   1044.79 150.73 422.20 617.84 1159.11 381.15 1373.54 396.78 1265.94 500.14 1170.99 610.12 1342.05 621.51
00001952 DELETE   1032.33 142.32 420.77 608.13 1134.34 379.90 1345.92 386.14 1224.79 488.26 1144.28 601.26 1315.69 606.67
00001953 DELETE   1018.08 131.02 416.41 609.47 1104.85 371.85 1315.77 375.30 1185.31 478.52 1114.83 592.28 1292.11 594.19
00001954 00000142 1008.54 132.55 411.51 614.31 1079.67 362.19 1280.35 362.72 1144.64 467.34 1088.48 588.50 1263.62 588.73
00001955 00000143 1000.23 137.88 410.93 607.78 1057.64 358.88 1249.60 358.39 1112.40 464.33 1067.77 584.05 1236.63 583.50
00001956 00000144 992.59 128.36 406.67 610.81 1040.40 359.08 1229.92 358.14 1084.14 470.81 1056.93 587.36 1219.76 586.11
00001957 00000145 987.40 130.48 406.15 611.39 1028.00 361.62 1215.90 358.67 1068.62 475.69 1045.32 589.67 1201.39 588.33
00001958 00000146 986.45 131.47 407.96 616.81 1023.69 366.57 1207.53 362.46 1060.57 480.03 1043.19 595.63 1191.97 593.41
00001959 00000147 982.12 128.64 413.37 625.07 1026.30 366.37 1205.82 361.24 1058.92 479.13 1042.73 595.58 1190.90 591.67
00001960 00000148 984.94 122.99 410.81 628.52 1027.91 362.98 1202.18 359.60 1055.93 474.30 1040.65 593.08 1182.77 590.72
00001961 00000149 994.70 121.62 400.83 621.46 1022.53 357.74 1195.40 356.12 1051.42 471.48 1040.25 598.09 1166.90 598.30
00001962 00000150 999.08 118.98 397.25 616.96 1025.02 349.32 1192.81 349.52 1049.49 459.69 1034.78 587.64 1157.37 589.83
00001963 00000151 1002.30 119.06 393.57 615.41 1029.68 342.18 1193.91 344.02 1050.14 450.96 1033.74 580.75 1152.50 584.41
00001964 00000152 1004.56 111.35 392.72 625.13 1030.33 336.53 1199.45 339.04 1052.73 444.15 1031.29 580.21 1149.23 584.80
00001965 00000153 1004.40 110.60 390.96 628.91 1032.11 335.50 1199.34 340.50 1051.94 442.99 1029.91 580.40 1145.26 587.09
00001966 00000154 1006.96 111.04 385.23 632.53 1032.77 336.55 1198.31 346.33 1053.35 449.98 1029.27 586.24 1143.89 596.70
00001967 00000155 1004.81 119.79 384.80 640.53 1035.25 344.23 1202.22 364.82 1050.58 471.01 1031.07 596.44 1149.02 614.97
00001968 00000156 1003.31 135.78 392.25 629.13 1029.54 355.80 1203.08 378.15 1049.82 488.38 1032.95 607.14 1152.03 627.47
00001969 00000157 996.70 133.93 391.51 649.25 1025.49 370.65 1200.38 398.96 1041.68 507.26 1028.16 620.90 1150.96 645.77
00001970 00000158 983.57 160.23 401.04 631.00 1021.63 385.12 1192.07 402.60 1033.50 521.26 1028.62 631.02 1159.99 644.55
00001971 00000159 978.89 162.22 403.56 640.19 1020.33 395.29 1188.88 411.05 1034.54 530.92 1028.90 643.72 1154.77 656.25
00001972 00000160 976.59 173.56 404.09 635.02 1020.46 399.20 1186.39 413.80 1033.80 534.65 1031.50 647.58 1156.77 659.58
00001973 00000161 976.89 163.16 402.76 642.53 1019.41 393.52 1186.91 409.33 1033.22 531.88 1031.32 642.34 1159.96 654.96
00001974 00000162 979.55 156.96 403.47 637.15 1019.37 384.53 1187.49 399.81 1030.57 519.62 1029.49 630.62 1161.00 642.03
00001975 00000163 992.35 134.67 400.62 643.70 1024.03 373.91 1194.37 388.91 1042.42 498.67 1033.17 619.84 1158.29 633.83
00001976 00000164 999.22 134.41 394.99 610.68 1030.56 350.64 1201.73 364.71 1051.52 475.78 1038.11 594.21 1170.70 606.62
