Video ID: 	ASJf32nYDbI
H: 	2160
W: 	3840
FPS: 	30.0

FRAME INDEX X0 Y0 W H [Landmarks (5 Points)]

00000081 00000000 1736.10 292.05 619.76 856.94 1861.02 667.49 2138.79 616.38 1990.11 762.46 1925.93 949.63 2165.22 910.16
00000082 DELETE   1729.51 293.80 618.34 859.90 1854.77 670.14 2132.26 620.43 1984.16 763.42 1919.02 952.19 2155.52 914.30
00000083 DELETE   1720.81 297.56 618.07 855.93 1844.36 666.72 2125.60 616.86 1974.01 759.25 1905.75 948.34 2149.24 910.16
00000084 00000003 1721.18 298.05 617.86 855.38 1844.42 666.30 2125.50 617.09 1974.03 759.29 1905.87 948.28 2148.64 910.73
00000085 00000004 1699.77 302.08 621.28 847.49 1830.84 671.06 2111.58 618.90 1966.17 765.24 1897.30 948.90 2136.55 910.31
00000086 00000005 1691.65 309.20 622.44 843.57 1825.71 669.87 2107.13 620.72 1962.87 767.91 1895.91 951.80 2127.09 915.72
00000087 00000006 1688.54 310.84 623.96 852.94 1825.40 675.53 2107.16 626.26 1963.80 775.80 1894.44 959.59 2129.52 923.24
00000088 00000007 1683.45 315.19 626.85 860.30 1823.55 679.18 2104.96 629.99 1963.30 784.79 1893.16 968.12 2128.47 931.72
00000089 00000008 1683.68 314.25 625.93 859.58 1823.75 679.31 2104.63 630.17 1963.21 784.55 1893.48 967.88 2127.70 931.59
00000090 00000009 1678.00 306.86 629.78 873.37 1821.86 681.86 2097.53 631.69 1962.12 787.42 1888.54 971.34 2124.18 935.71
00000091 00000010 1670.79 307.79 630.85 880.83 1816.62 683.06 2093.17 634.41 1957.12 790.44 1883.18 976.21 2117.87 941.78
00000092 00000011 1665.24 310.48 628.40 883.60 1812.57 685.28 2090.65 639.16 1954.62 797.63 1878.57 983.89 2111.81 951.28
00000093 00000012 1662.82 312.59 627.20 884.13 1812.04 689.88 2087.59 645.54 1953.89 804.79 1878.84 989.29 2106.77 957.90
00000094 00000013 1662.72 313.01 626.99 883.72 1812.13 689.82 2087.65 645.49 1953.83 804.71 1878.74 989.22 2106.69 957.85
00000095 00000014 1669.64 323.16 626.49 870.99 1809.51 696.59 2089.26 650.03 1956.92 816.22 1884.55 992.34 2111.32 953.45
00000096 00000015 1673.93 323.37 618.54 874.49 1812.31 702.84 2091.82 654.14 1955.73 815.52 1891.11 1000.61 2113.11 962.19
00000097 00000016 1674.37 325.52 630.69 875.52 1814.57 702.91 2096.05 651.77 1962.16 817.72 1889.73 996.82 2124.56 953.21
00000098 00000017 1681.03 322.11 631.57 874.21 1822.91 697.54 2102.89 643.66 1972.83 808.50 1896.33 990.35 2137.65 944.49
00000099 00000018 1681.14 321.91 631.47 874.45 1823.13 697.66 2102.97 643.98 1972.92 808.23 1896.53 990.37 2137.51 944.75
00000100 00000019 1690.55 321.77 626.49 867.23 1839.12 689.95 2121.88 642.87 1986.47 796.22 1905.04 979.29 2145.95 943.98
00000101 DELETE   1711.52 303.05 631.59 877.04 1865.16 671.75 2147.31 626.42 2011.53 781.86 1925.98 964.76 2173.01 930.86
00000102 00000021 1736.83 295.13 626.48 865.34 1885.89 663.60 2165.04 615.68 2031.50 768.83 1943.64 947.03 2193.20 910.93
00000103 DELETE   1744.09 292.43 634.77 868.33 1894.74 658.96 2173.50 606.90 2042.08 759.88 1952.17 939.97 2205.85 899.27
00000104 DELETE   1744.02 293.41 634.98 867.87 1895.14 658.92 2173.68 607.09 2042.28 758.89 1953.01 940.26 2205.50 899.79
00000105 DELETE   1746.34 290.02 637.18 872.94 1897.96 657.22 2177.28 604.06 2045.15 756.93 1956.60 939.17 2209.44 897.30
00000106 00000025 1747.86 290.29 636.79 875.97 1901.94 658.45 2180.20 606.13 2049.09 758.28 1961.13 941.55 2209.42 900.93
00000107 00000026 1755.89 293.55 636.31 887.67 1912.18 667.15 2189.78 613.19 2059.76 767.18 1971.33 956.10 2219.16 914.17
00000108 00000027 1762.17 306.54 637.33 886.93 1914.31 679.90 2194.74 629.64 2060.83 791.22 1977.67 973.53 2223.99 936.17
00000109 00000028 1761.97 306.79 637.34 886.31 1914.36 679.88 2194.65 629.91 2061.01 791.25 1977.95 973.52 2223.83 936.40
00000110 00000029 1767.63 317.75 638.38 891.79 1922.51 692.58 2203.11 646.91 2068.38 807.51 1981.89 983.82 2230.56 950.05
00000111 00000030 1773.77 317.97 638.58 909.39 1923.20 709.80 2204.29 656.08 2072.09 817.96 1983.20 995.76 2240.71 954.78
00000112 00000031 1775.75 324.71 641.93 891.97 1907.36 708.44 2197.43 653.30 2059.80 822.40 1977.30 999.14 2226.32 950.74
00000113 00000032 1760.15 326.86 643.48 902.95 1903.41 721.07 2180.57 662.82 2046.71 823.68 1967.38 1003.77 2222.15 960.99
00000114 00000033 1760.09 326.12 643.64 903.86 1903.75 721.46 2180.86 662.79 2047.44 823.37 1967.65 1003.57 2223.11 960.33
00000115 00000034 1748.66 333.77 646.27 900.68 1887.53 732.65 2170.71 676.26 2029.77 835.26 1953.38 1017.67 2207.74 977.09
00000116 00000035 1744.66 349.63 644.41 901.24 1878.46 745.83 2159.65 692.87 2013.68 852.39 1945.95 1034.90 2192.99 997.01
00000117 00000036 1740.99 376.69 650.13 893.83 1878.57 751.91 2164.19 702.44 2015.09 865.98 1945.52 1057.04 2189.43 1020.14
00000118 00000037 1749.01 391.78 644.06 892.72 1885.61 759.45 2169.02 712.46 2019.61 877.15 1952.41 1068.24 2192.57 1033.77
00000119 00000038 1749.12 392.02 644.04 893.27 1885.50 759.80 2169.08 712.20 2019.66 876.54 1952.11 1068.39 2193.07 1033.31
00000120 00000039 1756.60 395.72 644.52 907.64 1890.43 770.81 2176.15 720.03 2022.64 883.49 1958.39 1079.33 2198.77 1041.63
00000121 00000040 1765.57 399.51 641.87 910.00 1898.50 777.76 2186.40 723.32 2031.12 883.49 1965.80 1086.52 2209.51 1045.74
00000122 00000041 1771.89 394.53 648.42 914.86 1910.07 769.81 2197.60 720.15 2041.90 880.19 1973.12 1079.79 2215.15 1043.03
00000123 00000042 1781.53 381.01 646.37 916.52 1921.35 752.92 2208.75 709.76 2052.75 868.12 1978.49 1064.51 2222.97 1032.55
00000124 00000043 1781.72 380.67 646.02 917.36 1921.36 752.92 2208.58 709.67 2052.43 867.96 1978.57 1064.51 2222.56 1032.52
00000125 00000044 1800.68 368.70 638.72 917.27 1918.52 743.59 2210.57 698.45 2049.70 859.58 1984.65 1054.14 2216.09 1016.28
00000126 00000045 1789.00 349.79 640.95 925.73 1918.51 733.50 2210.68 693.70 2045.59 851.33 1976.38 1048.36 2214.39 1019.72
00000127 00000046 1777.30 362.20 640.30 923.93 1902.43 739.95 2192.40 701.13 2026.24 860.15 1959.54 1058.94 2198.10 1031.94
00000128 00000047 1777.17 362.16 641.03 924.36 1902.57 740.01 2192.04 701.19 2026.36 860.20 1959.78 1058.58 2197.80 1031.61
00000129 00000048 1776.99 368.73 637.79 916.12 1901.27 744.10 2189.14 706.90 2025.28 869.51 1957.25 1060.82 2196.74 1035.12
00000130 00000049 1783.32 366.50 637.27 919.72 1906.14 740.41 2195.49 706.46 2027.81 865.67 1959.95 1059.09 2197.10 1036.46
00000131 00000050 1788.56 360.26 636.36 915.80 1910.16 736.26 2198.61 699.93 2028.13 856.13 1964.18 1051.16 2200.70 1026.38
00000132 00000051 1796.56 336.09 633.34 920.03 1913.80 731.04 2206.09 694.64 2033.49 841.63 1962.02 1036.15 2204.00 1010.91
00000133 00000052 1796.83 335.50 633.11 920.69 1913.86 731.04 2205.92 694.50 2033.31 841.77 1961.92 1036.19 2204.15 1010.83
00000134 00000053 1795.03 325.95 635.23 919.88 1910.22 724.98 2199.96 686.05 2026.70 832.18 1956.58 1022.29 2201.69 994.63
00000135 00000054 1784.93 321.99 639.98 919.07 1903.50 714.69 2194.64 678.18 2018.77 823.60 1953.75 1015.30 2193.16 989.72
00000136 00000055 1777.89 317.70 641.61 922.78 1895.94 715.68 2187.55 678.40 2011.18 822.85 1943.04 1016.44 2185.10 990.61
00000137 00000056 1775.61 314.92 639.48 928.23 1892.04 715.99 2182.62 675.88 2007.57 820.08 1938.51 1016.68 2182.91 987.85
00000138 00000057 1775.63 313.57 639.05 928.10 1892.16 715.89 2182.60 676.17 2007.69 820.48 1938.45 1016.32 2182.50 987.85
00000139 00000058 1769.46 309.27 636.04 926.68 1885.30 706.90 2171.02 669.26 2000.38 817.69 1935.70 1012.17 2170.25 985.02
00000140 00000059 1763.46 298.80 634.97 921.90 1883.53 697.99 2162.41 657.57 2004.85 807.83 1936.42 996.39 2177.89 970.05
00000141 00000060 1762.24 301.38 634.77 913.34 1885.47 686.52 2165.84 645.84 2003.86 796.19 1938.66 989.85 2179.96 960.36
00000142 00000061 1769.53 300.94 637.57 909.91 1895.49 683.61 2178.40 641.80 2017.19 794.38 1950.66 988.09 2192.36 957.83
00000143 00000062 1769.35 300.72 638.21 910.60 1895.38 683.94 2178.04 641.72 2016.73 794.32 1950.62 988.27 2192.27 957.67
00000144 00000063 1772.25 300.28 642.88 912.09 1903.98 679.47 2192.32 638.03 2029.63 786.33 1964.18 983.75 2201.74 954.20
00000145 00000064 1776.49 300.09 642.71 917.31 1910.55 678.86 2202.34 636.13 2039.69 784.48 1968.56 984.53 2213.80 953.13
00000146 00000065 1772.31 304.27 645.58 915.16 1907.87 680.35 2199.66 634.43 2039.51 780.92 1969.18 984.84 2212.75 950.70
00000147 00000066 1771.38 303.01 646.08 914.49 1907.62 678.16 2199.20 629.49 2039.84 775.65 1969.57 982.49 2213.86 945.88
00000148 00000067 1770.64 302.64 646.69 915.40 1907.38 678.52 2199.20 629.48 2039.96 775.51 1969.57 982.96 2214.21 946.01
00000149 00000068 1762.42 311.63 646.56 908.17 1898.48 690.43 2195.01 638.96 2036.14 772.78 1960.13 986.80 2207.64 947.53
00000150 00000069 1760.69 315.30 641.43 896.99 1896.84 690.56 2189.54 642.16 2030.39 774.90 1952.43 985.41 2201.90 948.58
00000151 00000070 1749.29 308.08 652.38 911.47 1890.69 701.39 2179.60 650.12 2027.17 777.33 1943.48 990.93 2198.02 952.82
00000152 00000071 1743.76 304.70 656.24 920.38 1885.20 696.61 2178.48 649.41 2025.09 785.98 1940.77 993.27 2195.56 958.53
00000153 00000072 1743.58 303.50 656.39 922.39 1885.12 696.03 2177.99 648.92 2025.11 786.14 1940.94 993.22 2195.61 958.48
00000154 00000073 1738.63 298.70 660.94 930.20 1882.48 699.29 2173.73 651.82 2024.26 797.87 1943.93 999.90 2194.87 965.81
00000155 00000074 1736.86 298.50 661.93 933.32 1880.38 701.61 2168.02 653.28 2020.51 804.14 1942.19 1001.23 2192.88 966.83
00000156 00000075 1731.19 299.33 659.15 938.58 1871.00 706.71 2156.29 659.39 2009.84 814.73 1934.38 1009.79 2181.08 976.44
00000157 00000076 1722.61 305.82 662.46 938.12 1859.54 707.73 2148.81 661.03 1998.41 820.73 1925.97 1017.03 2175.17 983.53
00000158 00000077 1722.45 305.62 662.85 937.75 1859.50 707.46 2148.81 660.90 1998.60 820.51 1926.42 1016.94 2175.04 983.57
00000159 00000078 1721.66 305.30 663.63 948.18 1855.47 720.28 2142.80 673.56 1990.91 835.36 1925.56 1029.78 2169.77 996.47
00000160 00000079 1721.64 312.19 662.73 949.95 1852.74 729.03 2139.96 684.34 1985.79 850.26 1924.88 1042.65 2164.83 1010.47
00000161 00000080 1717.00 314.19 668.02 962.79 1847.47 733.83 2139.26 689.97 1979.53 859.29 1919.46 1051.99 2163.49 1020.31
00000162 00000081 1712.16 308.80 668.80 981.09 1842.23 737.39 2136.16 686.63 1971.13 858.90 1911.14 1061.73 2159.72 1023.38
00000163 00000082 1712.23 308.92 668.63 980.44 1842.54 737.01 2136.37 686.67 1971.46 858.73 1911.15 1061.01 2160.03 1022.99
00000164 00000083 1695.96 313.03 672.92 980.65 1827.97 744.65 2120.68 692.72 1961.47 874.52 1901.86 1069.18 2149.03 1030.20
00000165 00000084 1688.05 320.80 675.67 983.25 1821.65 752.55 2113.14 697.09 1953.87 881.93 1899.85 1076.42 2144.94 1034.47
00000166 00000085 1682.20 329.75 678.39 979.30 1816.63 757.00 2111.09 702.45 1951.64 887.86 1895.53 1081.84 2145.32 1040.73
00000167 00000086 1678.89 334.68 679.12 973.31 1814.54 758.18 2109.63 701.92 1951.19 890.04 1895.02 1082.54 2145.78 1039.91
00000168 00000087 1678.58 335.44 678.92 972.56 1814.60 758.41 2109.41 701.95 1951.09 890.23 1895.13 1082.70 2145.81 1039.86
00000169 00000088 1675.79 330.27 679.31 973.40 1812.22 755.33 2105.04 699.52 1946.82 889.22 1894.24 1077.84 2139.01 1035.50
00000170 00000089 1673.36 324.02 680.84 970.01 1810.97 747.19 2103.34 690.65 1945.57 878.96 1894.91 1067.86 2137.99 1024.39
00000171 00000090 1669.91 311.37 682.63 971.50 1805.56 731.27 2102.88 674.98 1945.73 863.50 1890.99 1056.97 2135.78 1012.79
00000172 00000091 1668.35 311.92 681.42 966.24 1809.30 730.55 2101.82 669.26 1948.95 859.14 1895.86 1054.78 2142.85 1007.83
00000173 00000092 1668.32 312.12 681.76 966.19 1809.24 730.60 2102.02 669.16 1948.89 859.01 1895.95 1054.81 2143.36 1007.69
00000174 00000093 1668.25 314.93 684.50 967.96 1811.54 730.29 2104.41 664.81 1955.12 853.67 1901.99 1054.42 2151.36 1003.51
00000175 00000094 1668.85 315.64 687.00 972.79 1814.46 735.74 2107.91 670.45 1959.58 858.43 1905.03 1060.40 2154.49 1009.93
00000176 00000095 1672.85 312.94 683.94 970.74 1818.61 735.96 2115.77 674.15 1968.70 857.13 1910.32 1060.62 2155.03 1012.10
00000177 00000096 1678.71 309.99 679.46 974.98 1824.74 736.25 2121.18 675.62 1976.10 857.10 1914.47 1061.39 2158.89 1013.95
00000178 00000097 1678.53 309.63 680.06 975.35 1824.86 736.06 2121.51 675.84 1976.30 857.14 1914.27 1061.30 2159.01 1014.17
00000179 00000098 1686.96 308.53 679.27 975.76 1833.67 733.24 2129.95 673.20 1985.50 854.38 1924.24 1057.60 2166.98 1010.47
00000180 00000099 1693.80 319.80 675.89 954.33 1845.36 731.34 2136.29 673.97 1995.17 859.73 1932.15 1050.72 2172.75 1007.30
00000181 00000100 1702.61 318.62 669.27 948.47 1853.27 729.78 2140.35 672.03 2003.46 856.51 1937.07 1045.53 2179.86 1002.21
00000182 00000101 1705.32 320.94 669.97 945.92 1856.65 730.97 2143.95 671.58 2009.76 855.89 1942.47 1045.89 2186.21 1001.59
00000183 00000102 1704.84 320.49 671.15 947.17 1857.17 730.80 2144.12 671.90 2009.86 855.92 1942.22 1045.54 2186.43 1001.62
00000184 00000103 1704.14 320.88 673.22 945.75 1858.67 730.82 2146.99 671.04 2014.47 855.18 1945.45 1046.36 2189.06 1001.74
00000185 00000104 1711.47 323.72 669.58 934.83 1866.73 728.42 2156.24 668.43 2026.27 849.93 1953.81 1041.73 2198.10 997.37
00000186 00000105 1717.07 323.27 672.14 933.71 1876.57 727.77 2164.61 666.06 2039.01 845.45 1966.29 1037.86 2210.39 992.23
00000187 00000106 1725.01 324.57 671.38 929.71 1885.46 726.77 2174.84 666.58 2049.32 837.59 1973.50 1034.27 2219.01 990.06
00000188 00000107 1724.95 324.72 671.69 929.55 1885.46 726.81 2175.21 666.73 2049.43 837.03 1973.48 1034.27 2219.07 990.16
00000189 00000108 1733.40 318.00 674.17 935.86 1900.45 722.06 2186.68 662.08 2062.91 833.50 1988.16 1029.02 2228.24 984.93
00000190 00000109 1745.04 313.23 672.35 938.94 1916.08 713.04 2202.35 654.45 2078.94 828.96 2000.62 1019.12 2244.62 974.98
00000191 00000110 1761.53 305.44 671.11 944.94 1928.21 709.67 2219.97 649.76 2090.91 826.63 2009.94 1018.09 2257.51 971.49
00000192 00000111 1780.73 311.11 666.21 935.94 1941.23 711.68 2231.20 652.15 2096.17 831.59 2029.06 1023.55 2267.89 973.74
00000193 00000112 1780.56 310.89 666.84 935.79 1940.86 711.71 2231.02 651.83 2095.84 831.59 2029.13 1023.35 2268.14 973.22
00000194 00000113 1799.82 313.97 669.78 942.62 1951.61 716.28 2242.29 654.07 2110.40 842.86 2044.29 1029.13 2289.10 975.09
00000195 00000114 1810.26 322.44 671.06 937.76 1959.53 727.16 2247.18 663.71 2114.64 847.25 2058.73 1038.37 2293.13 985.59
00000196 00000115 1805.85 336.56 676.30 938.67 1963.62 735.26 2255.33 675.85 2120.61 859.26 2056.73 1057.46 2295.78 1010.72
00000197 00000116 1819.81 336.27 677.09 950.62 1981.24 741.44 2270.02 682.59 2135.32 866.50 2073.79 1063.55 2312.51 1017.55
00000198 00000117 1819.71 336.92 676.61 949.57 1981.37 741.53 2270.18 682.93 2135.41 866.22 2073.86 1063.43 2312.46 1017.66
00000199 00000118 1838.55 329.12 678.43 957.57 2001.43 741.07 2287.34 680.30 2155.58 859.19 2093.42 1059.21 2331.09 1011.13
00000200 00000119 1865.81 324.13 671.52 938.07 2023.88 730.30 2311.23 668.69 2183.01 849.45 2114.23 1040.93 2354.53 995.44
00000201 00000120 1874.58 316.57 673.44 937.01 2038.03 714.35 2329.35 654.16 2201.21 824.81 2123.06 1023.49 2371.45 979.06
00000202 00000121 1873.74 307.58 681.01 941.26 2038.78 701.92 2330.97 639.44 2202.51 817.14 2125.73 1016.65 2374.73 969.87
00000203 00000122 1873.46 307.14 681.16 940.59 2038.94 701.79 2331.15 639.64 2202.74 817.06 2126.02 1016.37 2374.47 969.98
00000204 00000123 1877.42 295.32 683.07 949.77 2043.80 693.66 2337.66 631.19 2206.87 811.25 2126.00 1009.04 2379.44 960.90
00000205 00000124 1889.43 289.56 681.16 960.52 2053.05 692.07 2349.12 628.82 2215.76 812.24 2131.91 1008.58 2390.07 958.46
00000206 00000125 995.19 128.76 480.69 623.63
00000207 00000126 1900.04 297.52 683.58 968.72 2064.41 698.88 2364.84 639.18 2229.32 824.89 2142.93 1020.87 2402.56 972.95
00000208 00000127 1899.77 298.54 683.86 966.49 2064.40 698.56 2364.83 638.86 2229.48 824.61 2143.25 1020.19 2402.65 972.36
00000209 00000128 1004.99 125.98 480.82 624.63
00000210 00000129 1920.34 315.41 685.37 962.52 2073.47 722.56 2369.98 665.27 2229.97 855.20 2166.36 1051.87 2405.39 1003.44
00000211 00000130 1008.62 129.00 481.43 627.34
00000212 00000131 1010.44 130.50 481.74 628.70
00000213 00000132 1012.26 132.01 482.04 630.05
00000214 00000133 1891.65 316.69 690.74 992.83 2054.52 734.53 2357.90 679.31 2216.81 866.42 2135.44 1062.59 2387.95 1019.94
00000215 00000134 1880.47 322.45 694.15 980.80 2038.77 735.17 2342.04 679.99 2198.57 862.29 2123.21 1062.46 2371.95 1020.68
00000216 00000135 1870.93 320.16 691.03 969.93 2021.69 731.08 2326.27 676.31 2179.93 862.38 2108.29 1061.04 2356.14 1020.21
00000217 00000136 1861.10 316.72 685.09 965.68 2008.72 725.64 2310.05 671.93 2163.72 859.45 2092.57 1056.01 2339.87 1016.41
00000218 00000137 1860.89 316.47 685.74 966.20 2008.65 725.34 2309.89 671.83 2163.11 859.87 2091.94 1055.88 2339.70 1016.44
00000219 00000138 1844.81 308.21 687.88 972.25 1992.55 718.51 2296.24 667.30 2146.65 856.93 2076.66 1052.70 2324.17 1013.96
00000220 00000139 1829.49 299.23 687.14 978.00 1973.23 714.24 2276.18 665.07 2123.58 846.90 2062.99 1046.23 2302.37 1004.44
00000221 00000140 1813.93 305.23 697.44 964.93 1956.04 719.17 2257.77 657.29 2104.03 845.89 2047.41 1046.68 2294.36 994.92
00000222 00000141 1802.53 314.84 700.73 969.49 1947.53 722.90 2246.11 667.54 2091.77 868.80 2026.86 1049.66 2283.20 1005.68
00000223 00000142 1802.70 315.80 701.04 968.58 1947.13 722.98 2245.87 667.66 2091.85 868.94 2027.10 1049.81 2283.49 1005.75
00000224 00000143 1793.77 310.34 698.56 970.39 1932.87 722.86 2236.23 667.97 2079.10 867.94 2012.90 1049.88 2272.56 1006.62
00000225 00000144 1781.39 310.65 698.18 979.49 1920.72 727.08 2222.68 674.52 2064.60 864.57 1999.87 1051.54 2259.87 1009.73
00000226 00000145 1761.99 307.82 700.60 987.94 1901.52 726.68 2205.70 678.76 2045.38 862.50 1982.98 1052.06 2243.92 1014.32
00000227 00000146 1748.13 298.59 702.93 1003.09 1886.59 730.20 2189.86 678.70 2028.11 863.43 1971.36 1055.69 2231.21 1015.03
00000228 00000147 1748.52 298.01 702.60 1004.48 1886.97 730.24 2190.13 679.02 2028.16 862.85 1971.26 1055.60 2231.14 1015.16
00000229 00000148 1742.57 296.74 701.58 1002.13 1878.51 729.83 2180.05 677.28 2016.45 863.59 1962.01 1054.92 2218.92 1013.57
00000230 00000149 1728.47 288.28 702.60 1010.53 1863.75 724.65 2166.28 675.40 2002.82 859.97 1948.10 1052.73 2206.08 1014.12
00000231 00000150 1712.87 283.54 708.76 1013.42 1854.25 719.87 2157.44 675.49 1996.54 855.07 1939.18 1049.98 2194.72 1015.21
00000232 00000151 1703.78 287.96 706.05 1005.48 1845.99 715.33 2148.89 674.71 1983.37 850.26 1926.91 1049.55 2179.97 1017.92
00000233 00000152 1704.16 287.99 705.78 1006.00 1846.27 715.43 2148.64 674.63 1983.37 850.10 1926.97 1049.86 2179.90 1018.10
00000234 00000153 1715.09 282.79 696.05 1011.36 1833.01 724.20 2128.22 660.51 1960.85 853.43 1920.52 1068.51 2167.09 1014.77
00000235 00000154 1705.43 273.02 695.13 1013.02 1823.27 717.42 2120.92 655.80 1950.61 844.79 1916.15 1066.29 2158.16 1015.06
00000236 00000155 1696.23 254.44 699.67 1020.24 1817.98 694.99 2118.34 637.79 1948.48 830.78 1906.42 1047.12 2154.56 1000.48
00000237 00000156 1685.67 227.84 713.70 1040.97 1807.09 675.94 2112.44 614.59 1937.61 814.24 1900.71 1036.06 2150.92 985.85
00000238 00000157 1685.90 229.44 714.00 1038.62 1807.63 675.12 2112.44 614.08 1938.27 813.93 1901.24 1035.70 2150.28 985.71
00000239 00000158 1662.98 254.31 728.41 1028.74 1803.68 684.14 2093.78 624.53 1930.07 831.02 1882.49 1029.28 2133.47 983.53
00000240 00000159 1655.00 254.86 727.89 1028.42 1795.76 686.50 2087.11 627.29 1923.06 836.33 1872.75 1029.38 2127.55 983.81
00000241 00000160 1647.92 258.95 727.97 1027.14 1788.70 685.25 2082.49 626.86 1918.67 837.64 1863.37 1030.10 2119.80 985.20
00000242 00000161 1644.35 262.52 725.35 1031.73 1784.43 690.54 2077.79 630.41 1916.46 843.42 1861.63 1042.28 2112.62 995.97
00000243 00000162 1643.58 260.86 725.54 1033.48 1783.83 690.49 2077.63 630.32 1916.13 843.67 1861.51 1042.74 2112.72 996.35
00000244 00000163 1636.12 262.94 724.16 1042.84 1776.40 695.16 2073.99 635.18 1913.43 847.19 1856.51 1051.08 2107.13 1004.73
