Video ID: 	TH-aSuv_VzI
H: 	1080
W: 	1080
FPS: 	25.0

FRAME INDEX X0 Y0 W H [Landmarks (5 Points)]

00002598 00000000 513.51 128.21 366.59 562.64 663.22 341.43 802.77 376.49 742.91 462.57 642.34 532.90 757.44 561.85
00002599 DELETE   524.18 130.76 369.58 547.89 677.91 344.75 819.25 384.79 759.49 464.20 653.40 523.98 773.83 556.93
00002600 00000002 537.68 132.08 365.95 553.36 701.13 339.94 834.24 391.86 770.38 469.75 666.02 525.37 773.06 569.01
00002601 00000003 544.21 134.25 363.45 557.33 710.25 340.89 840.45 396.98 777.52 471.14 667.68 526.70 776.79 573.73
00002602 00000004 545.91 135.83 364.73 553.60 712.92 341.45 841.71 398.81 778.64 471.64 668.54 523.25 778.81 571.17
00002603 00000005 545.92 134.59 365.35 547.24 710.02 340.72 839.23 398.88 773.74 469.68 668.31 518.56 775.72 567.08
00002604 00000006 544.58 133.31 367.66 543.02 704.24 338.32 836.37 392.68 768.38 469.52 669.63 517.39 775.24 562.76
00002605 00000007 538.20 139.64 368.24 530.45 691.98 338.17 829.94 388.89 757.52 463.41 661.50 514.50 771.87 556.82
00002606 00000008 528.26 127.97 369.57 539.22 672.95 336.12 813.16 384.51 742.14 454.22 647.36 514.02 758.42 554.18
00002607 DELETE   523.95 126.44 362.03 538.14 652.88 335.84 796.78 374.68 723.05 452.61 632.02 514.66 749.04 547.25
00002608 DELETE   517.70 131.77 359.56 531.78 640.54 330.61 785.72 373.71 703.23 452.70 614.39 512.10 737.13 548.42
00002609 00000011 509.13 129.45 356.65 536.03 625.26 331.59 769.12 372.98 683.78 450.60 598.18 510.38 723.49 545.81
00002610 00000012 494.19 134.40 362.30 522.95 604.97 328.17 753.83 366.23 664.41 450.85 588.63 507.50 709.97 539.95
00002611 00000013 489.02 134.96 359.38 525.52 596.03 328.98 744.28 364.62 653.23 451.15 578.61 507.02 701.87 537.70
00002612 00000014 482.57 137.22 363.39 528.99 591.10 328.98 739.27 362.79 646.74 448.63 573.94 509.65 693.52 538.94
00002613 00000015 480.13 139.62 362.14 536.31 589.02 327.65 736.06 360.72 642.94 446.92 572.30 514.70 687.83 543.70
00002614 00000016 477.41 139.16 363.69 543.74 587.50 327.30 736.52 361.11 643.23 447.80 568.48 517.33 686.78 547.10
00002615 00000017 475.96 139.08 365.42 539.69 588.97 329.66 739.68 363.03 648.55 450.98 571.28 516.39 694.20 545.45
00002616 00000018 477.36 133.60 365.50 547.78 598.01 331.49 746.04 364.45 662.52 452.66 580.89 516.57 706.77 545.05
00002617 00000019 484.28 131.79 365.10 552.06 616.17 333.88 761.40 374.00 682.42 456.91 594.10 518.49 719.84 552.42
00002618 00000020 491.05 133.42 368.30 550.73 635.67 334.87 776.15 382.21 701.17 462.95 607.01 517.22 729.72 556.67
00002619 00000021 499.25 130.10 366.30 554.31 650.02 337.36 789.51 388.73 717.74 466.38 616.51 516.46 738.41 558.94
00002620 00000022 506.89 130.84 366.81 552.46 657.01 343.50 793.87 392.34 724.66 470.72 623.90 518.86 744.37 559.38
00002621 00000023 512.76 133.60 367.77 547.43 665.05 348.75 799.01 398.00 730.22 474.18 630.75 519.68 747.22 560.56
00002622 00000024 524.86 132.81 366.24 549.80 667.14 352.01 806.16 394.84 740.21 474.97 639.28 522.94 760.40 558.07
00002623 00000025 525.25 132.69 368.46 550.74 674.13 356.36 813.01 400.56 747.13 478.84 645.04 527.65 763.58 563.98
00002624 00000026 526.49 136.39 368.03 549.44 679.61 360.58 816.28 403.42 754.32 484.01 650.71 530.42 769.50 565.63
00002625 00000027 535.96 147.59 356.69 541.34 692.21 361.84 825.57 403.33 766.68 489.99 658.59 535.60 777.33 570.53
00002626 00000028 528.60 147.35 368.44 549.05 691.56 362.03 825.66 409.40 767.61 490.13 658.80 536.85 771.80 575.82
00002627 00000029 526.74 147.87 367.19 545.89 687.84 363.12 824.05 409.75 763.86 492.10 653.94 535.87 769.66 574.28
00002628 00000030 519.91 138.67 371.15 550.73 677.28 360.93 815.25 409.17 749.21 488.06 642.67 530.10 759.56 569.50
00002629 00000031 515.87 134.24 366.68 553.15 661.35 360.08 800.92 403.46 729.81 488.33 629.35 533.20 746.76 569.44
00002630 00000032 510.88 128.28 365.21 559.92 656.28 358.57 795.00 400.43 722.73 485.38 627.97 537.67 737.63 573.11
00002631 00000033 511.29 125.72 360.52 561.94 657.00 359.14 793.37 400.02 725.14 485.57 631.15 541.53 737.37 576.33
00002632 00000034 507.94 134.22 361.88 550.37 656.60 361.01 793.93 398.51 727.23 485.91 636.19 543.33 741.13 575.10
00002633 00000035 505.72 133.89 361.75 549.89 656.16 360.52 793.33 397.03 728.11 486.45 636.54 543.99 740.38 574.97
00002634 00000036 504.62 138.37 359.59 548.87 656.75 360.47 790.81 398.60 727.25 486.08 636.89 546.50 735.88 579.07
00002635 00000037 503.99 142.19 358.80 545.22 654.65 361.04 790.30 398.71 726.08 487.59 634.83 549.63 732.33 581.96
00002636 00000038 503.54 143.72 359.50 545.45 652.88 362.96 790.30 399.27 725.71 489.89 632.23 551.33 733.69 582.47
00002637 00000039 505.39 140.60 356.19 548.62 652.00 362.72 788.36 398.73 725.00 490.05 632.02 549.54 737.22 580.15
00002638 00000040 504.85 140.82 357.11 552.65 653.60 362.29 788.52 399.25 726.15 490.31 633.03 549.90 738.34 581.32
00002639 00000041 505.73 147.02 356.48 550.27 654.00 364.64 788.99 401.68 726.84 492.70 630.65 551.51 739.56 582.82
00002640 00000042 507.07 145.48 354.46 552.87 654.37 365.23 789.27 402.51 727.79 494.10 630.22 551.43 741.01 582.85
00002641 00000043 507.63 144.14 355.12 554.61 655.47 365.49 790.29 403.27 728.83 495.07 630.52 551.17 741.61 583.06
00002642 00000044 509.61 143.30 354.55 556.54 655.35 367.05 791.87 403.36 730.50 497.63 631.29 551.45 744.56 582.03
00002643 00000045 511.13 142.65 353.88 558.28 653.90 369.41 792.98 403.58 729.85 499.91 630.70 553.27 746.39 582.16
00002644 00000046 511.13 144.65 354.78 556.74 653.88 371.13 792.89 405.74 729.01 502.38 630.62 554.47 745.39 583.78
00002645 00000047 512.35 144.26 353.98 557.39 653.87 372.46 792.19 407.21 727.88 503.59 629.49 554.43 744.39 583.90
00002646 00000048 511.32 145.75 355.28 557.50 653.46 374.08 791.69 408.48 727.46 504.51 628.80 555.46 743.08 584.81
00002647 00000049 511.55 144.92 355.02 561.68 652.92 375.38 790.84 409.39 725.96 505.48 628.10 556.78 742.17 585.88
00002648 00000050 508.86 149.58 355.81 556.00 647.61 373.98 787.70 406.42 722.32 503.66 624.34 556.79 740.79 584.59
00002649 00000051 506.53 150.30 355.24 550.17 643.71 373.20 784.98 405.84 717.54 502.60 620.58 553.60 737.97 581.47
00002650 00000052 503.75 146.22 357.21 555.82 641.02 370.76 782.67 404.01 715.34 500.83 618.23 553.22 735.71 581.65
00002651 00000053 502.27 147.21 356.41 551.57 639.07 369.22 780.23 401.19 713.16 496.87 619.78 553.14 733.30 580.47
00002652 00000054 497.60 137.26 358.78 556.54 639.62 363.26 779.01 397.36 712.76 489.38 620.72 548.49 729.66 577.55
00002653 00000055 493.98 142.50 361.28 541.07 633.81 357.61 775.60 397.27 700.41 486.60 614.53 540.38 719.51 573.93
00002654 00000056 493.28 138.32 360.36 534.48 621.28 346.07 766.15 392.28 678.58 474.36 596.33 522.87 707.70 561.91
00002655 00000057 485.94 145.44 367.43 512.15 603.47 336.17 751.63 389.45 649.61 465.64 573.10 509.51 685.63 554.69
00002656 00000058 489.41 145.05 362.24 516.92 594.83 331.87 744.07 388.25 633.88 461.62 558.63 507.71 675.62 555.97
00002657 00000059 491.24 147.13 362.37 517.89 596.05 330.63 743.51 389.14 631.61 458.27 556.08 505.55 674.81 555.65
00002658 00000060 493.75 151.61 366.14 516.26 601.46 329.60 747.01 391.15 634.27 457.92 560.62 504.21 676.32 556.66
00002659 00000061 500.72 144.58 370.64 540.53 611.94 334.94 758.98 394.13 646.61 458.07 569.64 511.13 687.37 560.99
00002660 00000062 504.99 149.45 372.70 551.99 622.77 337.44 768.59 400.14 656.62 461.70 573.51 516.23 693.76 569.65
00002661 00000063 505.17 159.29 383.83 553.03 631.10 331.17 778.20 401.98 657.61 458.72 574.50 518.86 691.27 580.02
00002662 00000064 514.14 156.23 371.84 550.01 633.73 341.45 780.47 409.13 667.18 471.26 582.96 523.69 701.37 581.45
00002663 00000065 523.49 159.12 365.51 549.36 632.67 352.14 781.07 413.95 669.12 482.03 585.16 531.53 706.08 585.10
00002664 00000066 527.53 164.09 364.16 543.06 633.39 357.19 784.25 418.49 673.93 492.61 587.88 535.35 714.12 588.31
00002665 00000067 524.58 173.59 374.52 538.63 638.67 359.61 786.89 425.38 674.93 495.30 591.82 533.26 720.54 589.44
00002666 00000068 525.11 176.16 373.03 539.42 640.42 364.45 787.33 429.00 680.22 499.85 594.50 537.96 722.52 593.30
00002667 00000069 524.21 175.44 374.59 540.99 642.11 366.26 789.62 433.91 683.14 506.85 593.93 540.39 721.93 598.32
00002668 00000070 526.88 172.50 371.28 551.19 645.14 371.73 793.00 438.91 687.71 514.04 596.08 546.27 724.10 604.13
00002669 00000071 526.83 180.30 370.93 547.71 645.75 377.00 793.50 444.87 687.25 523.52 596.65 552.36 720.71 611.00
00002670 00000072 525.85 178.62 372.37 551.91 645.86 378.97 793.10 448.99 685.46 528.10 595.26 553.94 719.35 614.24
00002671 00000073 495.42 159.50 366.40 519.10 600.42 353.56 746.87 411.12 635.43 485.61 562.62 516.21 694.06 564.90
00002672 00000074 489.42 155.34 373.90 511.99 593.00 336.17 741.32 404.84 617.24 469.66 549.20 500.59 679.04 558.61
00002673 00000075 475.01 152.07 388.47 508.04 587.80 318.94 735.33 398.42 604.94 448.80 535.80 482.94 665.51 549.53
00002674 00000076 470.28 150.13 400.59 504.93 592.48 316.95 733.42 402.29 598.71 441.50 529.31 471.73 663.10 541.90
00002675 00000077 477.36 161.83 396.00 496.74 596.85 308.78 741.20 408.31 597.75 446.49 533.18 469.34 664.18 552.04
00002676 00000078 493.63 174.24 394.84 502.76 614.98 327.79 756.77 429.58 619.31 463.57 546.97 482.63 684.60 566.64
00002677 00000079 507.12 174.63 389.82 509.52 625.38 336.52 771.50 426.41 642.72 474.06 570.11 500.15 697.79 574.87
00002678 00000080 513.72 175.46 392.27 506.44 632.83 335.55 779.40 422.75 650.58 472.33 576.51 498.87 704.86 571.91
00002679 00000081 510.93 166.61 392.47 510.78 633.73 325.28 781.26 409.40 656.16 459.36 577.23 493.42 700.94 564.55
00002680 00000082 510.86 164.13 388.91 503.91 633.08 315.55 779.43 400.89 649.76 444.27 572.31 481.69 697.73 553.34
00002681 00000083 512.35 161.79 385.74 505.33 633.07 317.88 779.22 400.27 654.35 451.15 576.80 486.57 700.70 555.68
00002682 00000084 514.01 163.13 383.55 512.91 629.44 332.28 775.08 410.57 652.53 470.70 581.02 501.16 699.52 567.14
00002683 00000085 510.74 164.02 383.09 523.46 621.75 344.96 768.54 420.28 644.58 482.32 574.87 520.09 691.97 583.46
00002684 00000086 505.60 165.52 383.33 519.22 616.16 344.98 761.00 418.72 638.88 478.02 569.29 519.39 680.83 581.10
00002685 00000087 501.10 156.65 385.40 518.29 611.99 334.30 753.45 405.78 635.15 462.53 568.22 505.12 679.36 564.28
00002686 00000088 498.71 146.29 379.27 532.17 610.67 329.79 754.20 397.90 635.63 454.20 564.05 505.53 675.26 562.67
00002687 00000089 495.14 151.86 368.87 527.37 601.59 330.81 744.39 400.76 621.14 464.12 556.45 509.10 666.94 568.59
00002688 00000090 484.66 160.56 374.73 521.65 588.49 339.17 735.43 405.94 612.24 472.78 546.15 518.31 657.26 575.44
00002689 00000091 477.04 160.97 372.70 524.05 579.88 344.10 724.75 409.72 602.46 479.12 539.26 522.66 650.50 578.95
00002690 00000092 470.97 157.13 369.41 523.24 573.19 341.15 717.76 403.16 598.55 471.02 533.56 517.43 647.95 570.57
00002691 00000093 463.02 147.90 376.00 521.10 568.55 332.49 712.90 393.44 595.44 462.30 529.08 505.14 645.62 557.26
00002692 00000094 455.54 144.05 377.94 519.67 560.98 329.36 704.70 390.03 587.96 454.93 523.48 499.68 640.42 550.79
00002693 00000095 449.69 139.21 376.62 529.12 553.96 328.56 698.05 391.90 576.96 450.95 507.00 502.70 627.03 556.57
00002694 00000096 447.94 144.07 366.53 514.52 543.78 328.85 688.07 399.30 559.71 463.45 498.97 501.37 611.73 561.54
00002695 00000097 443.51 144.15 369.41 515.61 540.60 326.31 684.01 399.53 553.72 460.12 493.40 498.13 606.46 560.72
00002696 00000098 437.86 142.07 376.24 507.57 536.94 315.49 679.95 393.04 547.97 446.55 487.01 483.86 602.35 549.97
00002697 00000099 434.02 139.41 383.54 509.32 538.22 306.22 681.40 386.87 542.74 430.85 482.59 473.46 597.03 542.07
00002698 00000100 437.15 141.75 381.50 510.96 539.17 306.03 679.62 386.02 539.24 428.70 483.30 473.77 595.30 541.95
00002699 00000101 436.99 146.24 384.30 511.01 539.59 310.49 681.28 392.65 540.20 437.89 485.58 479.95 597.37 549.68
00002700 00000102 441.65 147.43 375.35 508.81 541.55 316.24 681.98 396.31 543.95 445.48 488.02 486.90 598.38 555.09
00002701 00000103 440.48 146.58 379.33 507.39 542.11 312.91 683.58 393.11 544.02 437.85 487.80 481.13 599.36 549.49
00002702 00000104 442.87 143.81 380.17 506.86 545.04 307.58 685.61 388.48 546.26 431.38 489.38 475.12 600.41 544.02
00002703 00000105 445.11 148.10 379.88 505.51 547.57 309.38 688.12 391.30 548.73 435.41 492.54 477.04 603.18 546.42
00002704 00000106 450.37 149.78 376.34 505.67 550.62 317.79 690.11 395.88 554.18 444.64 498.88 487.17 606.81 553.12
00002705 00000107 451.09 150.47 377.79 508.57 549.84 321.83 690.40 396.87 555.88 447.09 500.33 491.90 609.88 555.37
00002706 00000108 451.24 149.30 374.59 508.15 549.36 319.06 690.09 394.52 555.77 443.18 499.91 488.80 611.00 552.56
00002707 00000109 450.17 149.15 374.24 509.53 548.76 318.80 689.12 394.29 555.11 444.33 499.66 489.41 609.63 553.30
00002708 00000110 450.33 148.85 373.11 510.66 545.78 324.78 688.90 395.42 555.94 452.12 499.94 497.55 610.08 557.60
00002709 00000111 448.80 148.35 371.69 513.31 544.37 326.06 688.36 397.03 555.86 454.12 497.99 499.59 609.34 560.12
00002710 00000112 446.01 145.64 370.38 511.55 540.39 322.54 683.32 394.61 551.69 450.75 493.92 494.97 605.16 556.53
00002711 00000113 445.98 142.66 367.08 516.99 537.05 321.14 680.01 392.22 547.15 450.82 492.40 496.52 605.36 557.37
00002712 00000114 442.12 142.66 369.13 521.60 532.54 323.50 676.09 393.47 542.33 455.48 488.97 500.63 603.39 560.64
00002713 00000115 439.34 146.77 370.38 517.41 530.87 323.38 673.43 393.46 539.03 453.55 487.70 501.10 598.00 561.21
00002714 00000116 437.32 146.48 372.20 519.38 531.28 321.42 673.30 392.01 538.89 451.23 486.94 498.27 598.45 558.82
00002715 00000117 438.70 146.79 370.29 520.88 533.18 321.30 674.74 393.02 540.23 452.86 488.01 497.95 600.97 559.37
00002716 00000118 438.48 149.21 372.07 524.25 533.33 324.05 675.09 394.75 541.53 456.48 488.84 503.28 602.53 563.82
00002717 00000119 441.27 148.66 369.25 521.70 533.78 325.68 676.48 394.70 543.14 457.74 491.82 505.66 602.76 564.84
00002718 00000120 444.34 143.89 366.01 526.97 536.86 322.40 679.26 389.81 547.40 451.31 493.33 505.00 601.84 563.17
00002719 00000121 449.22 147.02 361.74 524.69 540.05 324.86 683.13 387.91 553.50 453.01 500.65 511.78 603.81 566.26
00002720 00000122 454.75 147.58 362.39 531.57 542.66 333.19 688.07 394.75 557.35 461.86 505.27 519.07 611.77 571.95
00002721 00000123 458.30 152.41 358.35 529.17 546.34 341.62 690.45 400.67 564.85 468.99 511.86 525.85 619.60 576.38
00002722 00000124 455.32 152.54 361.59 530.90 545.61 341.65 690.14 399.91 565.05 469.03 511.89 526.19 620.20 576.03
00002723 00000125 452.51 148.34 363.54 534.96 541.56 339.56 687.96 398.28 560.66 468.31 508.70 525.25 618.07 575.51
00002724 00000126 450.87 157.80 364.65 529.84 539.33 342.50 684.88 399.47 558.99 472.22 509.29 530.28 616.14 579.09
00002725 00000127 453.91 151.92 361.52 539.20 541.80 349.38 687.27 404.53 564.17 479.33 513.15 536.60 621.10 583.86
00002726 00000128 456.14 152.86 359.72 542.53 543.48 353.55 690.31 407.55 569.36 485.90 515.46 540.60 627.33 586.74
00002727 00000129 454.65 151.44 364.33 551.38 543.40 359.55 694.93 408.91 573.54 488.22 514.01 547.30 632.33 589.14
00002728 00000130 453.59 154.46 365.60 549.87 542.56 367.60 694.10 414.02 575.66 495.69 514.81 550.05 639.46 589.53
00002729 00000131 454.83 146.35 361.94 558.35 539.83 366.73 690.14 412.94 575.61 500.04 518.49 551.50 646.11 590.31
00002730 00000132 451.70 154.81 361.77 546.08 542.26 367.55 691.53 411.61 580.65 500.06 523.21 551.83 646.35 589.51
00002731 00000133 452.37 154.44 358.44 543.58 543.59 368.28 693.52 410.24 586.96 500.02 524.61 551.78 648.29 587.83
00002732 00000134 450.91 155.22 358.39 541.70 544.84 369.77 694.23 411.33 589.70 501.47 526.32 551.36 648.86 587.05
00002733 00000135 448.00 152.95 358.63 545.59 536.12 369.41 685.69 410.52 575.64 500.49 517.12 551.31 639.87 587.12
00002734 00000136 590.49 207.10 378.85 488.05 749.61 362.74 874.42 447.05 787.14 489.87 682.75 527.31 779.44 598.45
00002735 00000137 589.07 203.27 381.10 493.71 750.60 360.76 876.15 445.34 789.81 489.66 684.09 528.02 781.24 599.29
00002736 00000138 580.85 189.42 382.42 497.01 746.73 354.93 875.17 436.87 795.42 479.58 686.99 516.37 789.91 585.22
00002737 00000139 583.92 171.76 379.16 501.55 741.18 342.70 878.68 413.84 790.74 467.58 684.09 510.91 793.53 570.37
00002738 00000140 565.56 181.17 386.61 507.62 733.11 343.70 864.31 411.01 784.68 466.34 675.93 522.85 774.80 578.94
00002739 00000141 557.82 173.34 386.97 515.54 724.10 349.05 855.81 412.11 774.54 472.64 669.86 526.81 765.87 579.49
00002740 00000142 554.52 173.34 382.37 518.18 708.98 356.47 847.76 415.38 761.85 478.07 660.32 533.45 765.18 582.98
00002741 00000143 550.14 159.75 372.19 533.08 703.33 358.82 836.68 413.33 757.30 480.04 661.46 538.62 758.20 584.67
00002742 00000144 536.96 154.44 373.91 538.36 690.65 350.04 828.88 401.10 748.92 469.55 655.47 539.44 749.64 582.61
00002743 00000145 517.24 149.54 375.68 529.06 673.61 341.59 808.66 392.71 733.03 461.69 637.94 524.10 738.37 567.20
00002744 00000146 513.77 135.13 365.31 530.94 649.28 336.16 798.97 375.22 720.36 448.70 626.12 522.03 740.33 555.22
00002745 00000147 507.28 136.44 359.22 527.93 634.70 332.78 781.04 370.45 703.45 440.97 613.14 520.13 725.79 552.42
00002746 DELETE   482.44 134.53 374.20 523.17 609.20 327.19 762.59 366.14 674.10 435.81 590.47 509.99 710.08 542.92
00002747 DELETE   472.12 143.50 370.02 513.68 584.26 320.31 736.53 360.55 638.21 432.03 560.63 497.41 688.42 531.20
00002748 00000150 459.89 143.93 370.09 517.12 567.04 324.54 721.36 360.70 618.63 433.20 547.11 503.71 670.49 534.53
00002749 00000151 454.08 135.46 357.69 524.74 547.66 330.76 696.55 360.18 598.07 445.65 540.21 515.12 656.20 540.43
00002750 00000152 446.95 132.14 355.30 530.19 531.21 338.25 679.77 363.65 578.45 451.13 523.32 520.49 640.65 542.86
00002751 00000153 436.33 130.53 356.88 527.23 511.62 338.07 660.57 360.30 552.77 446.96 502.60 521.54 615.99 542.03
00002752 00000154 429.58 130.48 351.13 528.04 500.61 336.40 647.93 359.44 534.64 440.70 489.98 519.97 599.37 540.97
00002753 00000155 422.16 129.59 346.32 520.88 490.80 331.80 634.62 358.67 527.15 441.13 484.99 512.20 591.14 535.91
00002754 00000156 419.93 127.76 344.75 523.73 486.44 331.83 630.24 357.60 522.17 439.72 482.43 511.93 589.85 534.52
00002755 00000157 417.05 126.50 346.10 532.45 487.19 331.16 628.24 354.25 521.60 435.97 484.59 514.56 589.41 534.91
00002756 00000158 415.31 128.10 349.18 539.14 487.58 331.05 630.96 353.45 524.33 438.50 487.11 520.58 593.15 540.12
00002757 00000159 415.91 128.26 347.91 539.76 488.80 333.50 633.03 355.79 528.89 444.77 488.94 521.97 599.00 541.29
00002758 00000160 415.20 130.08 347.29 523.55 488.39 332.80 634.23 359.09 529.19 446.24 486.03 512.56 598.67 535.18
00002759 00000161 415.12 130.83 346.32 520.22 490.40 332.28 635.40 359.96 531.49 444.80 486.69 508.22 600.54 531.89
00002760 00000162 417.65 128.65 345.99 526.05 490.76 333.66 636.76 358.84 533.68 446.41 489.74 513.93 601.31 535.87
00002761 00000163 420.69 127.44 344.86 532.69 489.78 336.36 635.86 357.06 533.95 446.85 492.39 522.38 599.15 540.89
00002762 00000164 419.38 127.47 354.91 541.77 497.10 339.20 645.48 358.27 538.04 446.38 491.39 522.13 607.68 539.23
00002763 00000165 423.44 133.00 358.98 530.22 509.35 339.61 664.36 358.61 563.11 449.84 504.19 517.90 627.62 534.99
00002764 DELETE   436.67 126.63 363.16 532.43 539.09 339.28 699.21 355.83 613.02 450.56 539.34 517.59 676.17 531.95
00002765 DELETE   458.54 117.65 351.97 535.74 583.93 344.62 735.32 355.07 674.31 449.23 585.64 517.51 718.32 525.94
00002766 00000168 475.65 128.75 345.29 540.98 617.13 349.58 759.43 356.26 719.96 445.06 627.79 530.08 744.47 535.53
00002767 00000169 478.81 127.56 345.01 538.09 620.80 348.57 763.62 359.28 720.67 446.63 624.24 527.25 742.68 536.08
00002768 DELETE   467.51 130.07 352.24 530.19 599.19 343.63 747.09 359.36 686.58 452.52 593.12 519.51 720.47 532.94
