Video ID: 	A6DlE2o-TIw
H: 	1080
W: 	1920
FPS: 	25.0

FRAME INDEX X0 Y0 W H [Landmarks (5 Points)]

00001025 00000000 646.75 113.00 351.80 566.82 802.09 363.06 950.62 343.79 936.27 443.16 827.55 544.23 959.38 528.39
00001026 00000001 362.42 46.00 253.77 361.24
00001027 00000002 639.50 112.71 356.98 551.46 792.68 357.48 950.42 346.94 925.14 436.33 809.37 526.70 952.40 518.91
00001028 00000003 353.88 41.86 252.84 360.55
00001029 DELETE   349.61 39.78 252.37 360.21
00001030 DELETE   348.29 38.71 251.95 360.00
00001031 00000006 346.98 37.64 251.53 359.79
00001032 00000007 345.67 36.57 251.11 359.58
00001033 DELETE   344.36 35.50 250.69 359.37
00001034 00000009 343.04 34.43 250.27 359.15
00001035 00000010 346.67 35.84 249.98 358.55
00001036 00000011 692.21 102.77 359.78 558.70 854.77 327.42 1009.02 347.57 973.43 436.70 851.31 522.29 976.65 541.70
00001037 00000012 698.47 109.58 357.76 555.88 865.04 331.63 1013.61 358.19 971.90 444.10 857.84 517.74 980.97 540.29
00001038 00000013 357.57 40.04 249.11 356.72
00001039 00000014 720.96 127.97 356.55 543.69 884.25 348.40 1036.03 373.71 993.87 458.44 870.44 523.38 1001.91 545.94
00001040 00000015 731.46 137.92 358.68 542.95 895.32 351.27 1050.76 377.85 1010.79 467.92 874.81 530.69 1011.52 554.89
00001041 00000016 370.07 45.24 248.85 355.51
00001042 00000017 746.08 135.99 357.72 556.73 911.76 359.38 1066.18 382.83 1030.78 475.02 892.30 540.16 1032.65 561.29
00001043 00000018 747.70 132.96 359.06 581.47 915.81 359.30 1065.55 385.61 1032.11 476.21 896.63 542.86 1034.69 566.49
00001044 00000019 753.47 129.72 362.35 585.91 922.54 361.34 1071.98 386.71 1036.70 478.32 903.94 544.19 1041.60 566.24
00001045 00000020 756.02 126.30 366.28 586.90 924.56 362.08 1077.36 386.51 1037.90 478.60 906.43 542.77 1046.81 563.64
00001046 00000021 756.29 126.84 367.54 579.59 922.50 362.13 1079.00 384.14 1036.47 477.08 908.13 542.13 1050.10 561.08
00001047 00000022 756.58 125.24 366.55 582.08 921.22 365.12 1079.30 384.28 1038.00 477.69 909.11 542.49 1054.89 558.95
00001048 00000023 754.69 128.48 366.19 581.83 919.06 367.11 1078.48 383.29 1038.76 478.09 909.69 546.23 1056.14 560.37
00001049 00000024 749.80 131.03 365.96 579.89 915.91 369.16 1074.53 380.08 1039.46 479.97 908.17 548.15 1055.91 558.40
00001050 00000025 748.81 130.58 362.64 579.61 921.60 377.27 1072.94 382.58 1045.68 485.97 905.94 553.78 1054.11 559.95
00001051 00000026 743.95 132.32 358.25 583.19 907.18 374.87 1061.97 381.36 1033.07 482.29 899.91 551.17 1048.15 558.46
00001052 00000027 739.12 134.37 355.21 584.32 901.42 376.16 1055.08 383.31 1027.80 483.16 892.94 553.34 1041.45 561.44
00001053 00000028 731.85 132.17 355.57 582.17 893.74 375.81 1048.00 383.21 1019.32 484.93 884.48 553.13 1032.24 561.80
00001054 00000029 723.96 137.58 354.88 571.45 885.87 378.95 1036.91 381.00 1009.76 485.08 879.97 552.03 1025.53 556.36
00001055 00000030 712.28 138.35 359.54 567.73 878.66 382.07 1028.07 379.63 1004.19 485.90 873.94 550.53 1019.59 551.30
00001056 00000031 692.83 136.82 372.58 572.01 860.05 384.19 1016.61 380.30 986.53 482.08 863.03 555.81 1007.78 552.28
00001057 00000032 687.14 140.66 371.22 573.86 854.30 380.87 1011.56 381.50 979.74 481.25 854.65 556.99 998.91 557.83
00001058 00000033 684.48 143.29 363.23 577.31 847.25 376.90 1002.61 376.76 975.24 479.86 847.26 557.67 993.06 558.30
00001059 00000034 681.82 142.13 359.99 578.50 841.57 373.52 995.83 373.51 971.57 478.35 841.78 555.78 988.87 556.76
00001060 00000035 680.78 131.46 356.17 582.41 837.86 369.13 990.67 370.63 966.32 475.52 836.86 551.52 981.69 553.89
00001061 00000036 679.86 128.54 354.20 578.30 837.03 369.92 987.15 371.29 964.27 471.33 833.82 546.72 977.96 549.27
00001062 00000037 683.00 136.70 352.22 556.46 851.37 374.69 994.94 379.58 973.19 472.16 833.10 543.29 970.11 550.32
00001063 00000038 681.89 133.77 352.24 552.13 850.48 367.79 995.78 374.49 972.54 465.60 833.82 537.29 970.44 545.92
00001064 00000039 682.93 130.60 350.60 550.39 845.62 359.30 995.27 366.83 969.31 459.63 835.37 533.32 973.33 542.41
00001065 00000040 681.85 124.55 350.19 549.03 845.35 356.63 993.84 360.41 969.51 457.30 840.57 533.48 972.99 539.16
00001066 00000041 682.90 119.74 351.37 552.49 843.70 354.23 996.23 357.44 969.09 455.60 846.31 537.33 977.37 541.69
00001067 00000042 683.99 118.85 354.17 559.49 846.79 357.72 997.19 359.74 972.01 457.63 850.91 544.78 978.14 547.95
00001068 00000043 686.19 120.29 355.03 569.82 853.34 361.67 1000.98 362.56 980.50 462.10 862.22 558.47 982.46 560.05
00001069 00000044 685.30 120.06 355.98 575.61 851.08 360.52 989.46 364.94 971.93 461.79 863.18 554.90 975.23 559.50
00001070 00000045 688.56 120.20 354.91 573.50 855.49 358.42 992.84 365.14 974.36 463.27 867.08 555.81 976.45 561.92
00001071 00000046 690.44 121.56 354.69 576.18 856.22 355.84 996.69 366.43 974.59 464.40 865.78 556.75 977.30 565.97
00001072 00000047 360.77 54.06 251.59 352.43
00001073 00000048 692.44 122.89 356.57 569.76 861.37 359.00 1006.04 370.85 979.09 468.29 867.88 555.30 980.69 565.70
00001074 00000049 692.29 123.99 358.03 559.71 861.83 361.35 1009.69 373.22 978.03 468.71 868.51 551.77 982.45 562.20
00001075 00000050 693.24 127.27 357.83 550.96 861.10 364.58 1010.93 375.20 976.38 471.06 867.44 548.48 983.95 558.03
00001076 00000051 695.21 127.66 356.01 547.38 859.68 365.51 1011.60 377.66 974.04 472.02 863.33 544.51 985.10 555.29
00001077 00000052 697.26 128.56 358.69 545.24 859.45 365.12 1014.29 378.60 972.73 472.13 861.71 542.21 986.47 554.17
00001078 00000053 698.13 131.97 359.53 540.83 860.57 365.59 1016.51 379.28 973.33 472.12 862.83 542.44 986.57 554.74
00001079 00000054 698.74 131.88 359.60 538.34 860.20 364.27 1017.57 378.32 973.89 470.01 864.04 540.60 988.54 553.13
00001080 00000055 701.25 131.77 357.53 535.56 860.28 362.50 1017.72 375.53 973.11 468.94 864.33 536.66 991.38 548.32
00001081 00000056 703.02 130.60 357.73 535.85 861.69 360.04 1018.07 374.08 973.57 467.86 864.26 534.62 990.77 547.25
00001082 00000057 705.22 130.60 357.89 543.03 865.34 358.51 1016.44 375.46 973.57 468.33 864.27 538.71 985.43 554.02
00001083 00000058 707.52 126.40 361.00 557.24 868.36 354.24 1018.10 377.05 975.85 466.94 861.42 541.83 981.64 562.01
00001084 00000059 372.45 56.69 248.37 348.73
00001085 00000060 719.70 130.69 360.70 539.16 878.95 348.95 1028.91 377.91 979.75 461.92 866.91 531.78 982.87 558.10
00001086 00000061 723.15 134.99 365.92 534.58 886.57 342.19 1038.80 377.16 986.66 462.64 871.04 532.56 984.60 563.56
00001087 00000062 379.28 58.59 248.68 346.37
00001088 00000063 381.55 59.23 248.78 345.58
00001089 00000064 383.83 59.86 248.88 344.79
00001090 00000065 385.59 60.25 248.80 344.53
00001091 00000066 387.35 60.65 248.72 344.26
00001092 00000067 751.90 143.33 355.52 539.61 906.05 353.95 1066.12 385.28 1019.06 470.90 889.47 546.45 1011.64 573.93
00001093 00000068 753.12 145.10 356.41 538.76 905.47 356.19 1066.52 385.69 1018.92 471.32 889.73 545.72 1014.09 571.81
00001094 00000069 752.90 146.97 358.07 536.59 906.85 356.69 1066.01 388.47 1018.94 474.59 892.41 547.69 1012.39 575.44
00001095 00000070 751.93 145.14 359.16 538.82 908.53 356.97 1066.94 388.28 1020.23 475.69 896.05 550.42 1014.03 577.69
00001096 00000071 751.45 142.68 357.13 541.78 906.93 359.25 1067.62 384.17 1021.79 476.01 897.74 553.84 1017.32 575.57
00001097 00000072 749.57 137.99 355.86 548.81 903.27 358.43 1063.54 381.16 1018.94 476.62 902.25 560.10 1016.83 579.38
00001098 00000073 746.69 138.53 356.04 551.19 899.22 360.92 1057.71 380.84 1013.50 477.81 902.64 564.41 1014.40 580.90
00001099 00000074 749.73 137.25 355.29 552.32 891.88 358.98 1055.15 380.05 1007.79 475.90 892.03 563.95 1008.34 581.53
00001100 00000075 748.61 138.66 356.62 560.18 891.35 359.80 1051.78 381.39 1006.74 477.10 886.41 560.89 1006.70 579.06
00001101 00000076 750.57 141.13 354.32 558.39 895.07 361.02 1052.79 382.03 1009.09 480.38 886.94 558.11 1009.76 576.17
00001102 00000077 752.46 139.75 351.37 553.01 897.33 367.78 1057.38 381.26 1017.01 479.03 894.95 560.69 1017.50 572.79
00001103 00000078 756.65 144.28 344.77 543.46 900.77 375.80 1058.67 379.13 1024.73 483.00 905.27 563.89 1026.32 568.64
00001104 00000079 758.10 150.54 340.50 533.85 905.31 381.21 1057.36 379.34 1029.93 485.00 910.25 561.00 1030.46 562.19
00001105 00000080 393.97 65.55 247.55 343.02
00001106 00000081 394.32 66.67 247.04 342.87
00001107 00000082 394.67 67.78 246.53 342.71
00001108 00000083 763.66 173.52 336.76 534.97 929.34 396.82 1067.54 391.95 1050.61 507.63 912.30 565.25 1040.48 566.10
00001109 00000084 395.38 70.01 245.52 342.41
00001110 00000085 394.84 70.21 245.38 342.38
00001111 00000086 394.31 70.41 245.25 342.35
00001112 00000087 393.77 70.61 245.12 342.32
00001113 00000088 393.24 70.81 244.98 342.28
00001114 00000089 757.10 171.00 337.87 553.63 920.15 404.34 1055.29 392.74 1040.75 508.06 925.44 590.19 1034.27 583.45
00001115 00000090 758.33 173.58 339.03 560.16 919.20 407.00 1057.76 393.50 1042.68 511.24 926.79 597.49 1039.66 588.88
00001116 00000091 756.84 180.29 338.37 555.00 918.78 412.55 1056.96 395.62 1045.06 517.53 927.74 604.48 1037.36 593.30
00001117 00000092 391.68 76.09 244.94 343.11
00001118 00000093 391.34 77.78 244.98 343.39
00001119 00000094 391.00 79.48 245.01 343.68
00001120 00000095 389.87 81.19 245.18 343.93
00001121 00000096 388.74 82.90 245.35 344.18
00001122 00000097 387.60 84.62 245.52 344.43
00001123 00000098 386.47 86.33 245.69 344.68
00001124 00000099 385.34 88.04 245.87 344.93
00001125 00000100 383.10 89.25 246.06 345.34
00001126 00000101 380.86 90.45 246.25 345.75
00001127 00000102 378.62 91.66 246.45 346.16
00001128 00000103 376.39 92.86 246.64 346.57
00001129 00000104 374.15 94.07 246.84 346.98
CROP_BBOX: 386 0 1371 917
