Video ID: 	_3k4xpjlFn0
H: 	1080
W: 	1920
FPS: 	29.97002997002997

FRAME INDEX X0 Y0 W H [Landmarks (5 Points)]

00003297 00000000 567.87 103.38 461.87 644.63 614.63 402.65 777.51 359.45 658.33 517.12 691.45 617.00 820.54 579.86
00003298 00000001 560.93 98.55 462.87 641.33 607.06 399.58 765.64 355.17 647.77 514.33 687.98 610.65 812.26 572.31
00003299 00000002 553.23 98.93 464.12 644.30 600.43 402.95 756.40 353.20 639.07 512.71 684.46 613.58 809.17 570.66
00003300 00000003 543.20 97.71 457.43 658.35 589.99 402.31 750.89 356.58 633.27 510.18 666.94 616.18 804.86 577.07
00003301 00000004 541.33 92.08 453.16 664.49 584.79 397.15 743.04 351.99 623.90 504.04 657.94 611.32 795.79 572.45
00003302 00000005 532.96 79.18 462.50 657.86 579.03 387.22 727.79 338.52 613.16 498.37 655.65 603.33 785.50 561.88
00003303 00000006 529.36 69.01 464.23 658.38 574.15 383.73 726.55 336.22 610.16 489.09 639.92 596.09 771.97 556.69
00003304 00000007 526.50 66.29 462.07 654.44 571.51 381.62 725.23 334.01 607.07 481.10 631.12 590.81 764.19 551.77
00003305 00000008 521.50 64.79 464.88 656.55 568.49 380.17 725.02 333.22 606.12 481.25 628.57 590.68 764.13 552.09
00003306 00000009 519.17 66.08 467.77 662.57 567.98 380.41 724.55 331.93 605.33 484.96 632.31 594.43 770.06 554.18
00003307 00000010 519.93 67.25 466.91 671.33 567.45 378.92 726.95 331.80 602.82 488.01 631.54 598.57 774.25 558.81
00003308 00000011 522.50 67.72 464.54 685.65 571.37 378.86 732.54 331.11 603.73 488.41 634.60 603.98 781.92 563.04
00003309 00000012 529.06 67.24 462.15 693.40 580.76 377.23 748.80 329.85 615.44 484.15 639.90 604.30 793.26 563.86
00003310 00000013 540.72 61.62 456.96 700.84 592.46 369.91 768.62 331.37 629.39 480.10 640.99 599.56 802.62 566.55
00003311 DELETE   549.88 54.49 447.86 696.75 601.11 360.88 786.89 333.47 649.48 478.01 638.96 587.55 808.92 564.28
00003312 00000015 549.78 69.65 446.09 660.55 610.15 357.28 807.43 341.23 677.12 478.62 648.33 577.16 825.86 561.74
00003313 00000016 557.34 66.41 449.43 653.07 621.84 361.29 827.43 344.63 700.65 483.55 660.09 572.50 844.61 556.47
00003314 00000017 560.34 67.23 447.12 650.20 631.21 366.04 840.40 349.07 717.03 488.04 667.74 572.75 857.25 556.80
00003315 00000018 560.27 68.18 446.29 654.92 637.14 368.14 848.65 349.76 729.65 490.76 675.56 578.00 864.51 561.13
00003316 00000019 560.98 71.68 445.18 665.55 641.52 369.98 852.32 349.73 736.56 492.08 681.97 586.07 867.96 567.92
00003317 00000020 559.48 74.18 444.37 667.95 640.49 370.66 849.84 350.12 736.87 493.52 681.84 588.85 866.19 570.52
00003318 00000021 555.74 76.04 441.42 668.01 635.60 373.98 840.96 350.93 729.84 493.27 679.12 592.07 859.51 571.85
00003319 00000022 551.15 79.09 440.69 669.52 628.84 377.35 831.91 352.64 723.57 494.42 673.37 595.29 853.31 573.62
00003320 00000023 548.56 83.89 439.97 665.31 622.11 380.32 824.89 354.16 715.87 498.67 667.75 595.94 850.56 572.99
00003321 00000024 547.41 85.00 436.19 662.25 617.26 383.31 816.79 356.28 708.54 503.26 664.85 598.39 844.16 574.85
00003322 00000025 545.66 92.95 431.67 648.94 612.17 389.95 808.99 361.67 700.62 507.68 659.71 600.52 837.41 576.15
00003323 00000026 542.99 96.09 429.05 641.20 606.99 392.97 805.44 367.02 691.52 508.67 652.65 600.18 831.75 577.96
00003324 00000027 541.99 99.08 426.88 635.04 604.42 393.70 801.16 368.97 686.50 508.80 649.30 599.18 827.22 578.11
00003325 00000028 542.86 98.40 423.71 635.27 607.08 403.18 798.78 382.68 683.49 507.55 646.98 595.26 824.45 576.67
00003326 00000029 543.43 99.97 422.30 634.40 607.37 403.11 795.98 381.03 681.45 505.46 648.49 595.74 822.01 575.99
00003327 00000030 543.95 97.95 419.48 640.10 602.13 396.99 789.01 371.36 675.40 503.85 644.95 598.60 817.06 576.67
00003328 00000031 543.81 97.24 418.40 642.83 598.65 390.90 783.92 363.22 670.47 499.73 643.26 600.55 810.64 577.44
00003329 00000032 543.09 93.91 416.77 642.66 596.57 386.01 778.01 359.55 663.54 492.96 639.66 597.20 800.58 575.43
00003330 00000033 542.29 92.57 417.82 643.75 596.33 383.81 775.46 357.61 660.05 489.32 639.66 596.66 796.11 575.17
00003331 00000034 544.20 96.15 417.22 639.19 598.69 381.94 775.83 356.36 660.17 485.65 640.75 594.52 794.33 573.74
00003332 00000035 543.39 96.63 419.31 630.84 597.57 380.55 775.35 355.44 658.25 480.84 638.58 591.04 790.42 570.50
00003333 00000036 542.55 95.93 419.03 623.78 596.85 377.81 775.26 354.70 657.48 477.98 635.25 586.46 785.92 567.40
00003334 00000037 542.32 96.91 418.09 619.80 596.47 373.95 774.87 352.58 656.44 473.58 632.13 582.55 782.26 564.91
00003335 00000038 543.36 98.72 417.68 624.05 598.61 372.57 776.48 350.83 654.90 468.23 631.09 582.62 781.83 564.80
00003336 00000039 545.84 98.86 417.32 628.86 600.98 374.08 777.66 351.94 655.20 468.33 633.33 586.06 782.30 568.17
00003337 00000040 546.93 103.25 416.67 629.91 602.97 375.85 778.56 354.42 656.66 470.89 634.80 590.34 780.98 573.58
00003338 00000041 548.72 105.79 415.31 630.06 604.72 378.23 779.39 356.72 657.57 473.55 636.78 593.85 780.47 577.35
00003339 00000042 551.44 107.41 411.67 631.21 608.26 381.11 779.73 360.34 659.66 476.81 642.41 599.24 779.70 583.49
00003340 00000043 554.63 110.28 408.50 631.06 614.43 382.31 786.56 367.46 663.99 483.18 644.70 602.27 780.43 591.09
00003341 00000044 557.74 113.55 409.05 629.65 621.13 388.41 799.19 376.07 677.39 494.68 650.99 607.63 790.04 598.27
00003342 00000045 561.33 119.77 410.47 626.87 625.42 394.78 809.20 381.68 688.74 503.47 658.58 615.83 799.28 605.82
00003343 00000046 564.53 121.54 418.92 630.42 629.36 399.52 819.84 385.99 698.73 511.23 663.44 622.28 809.49 611.76
00003344 00000047 570.02 120.51 419.80 630.39 636.72 401.80 827.02 388.82 706.22 515.35 669.96 621.70 817.95 611.35
00003345 00000048 573.51 119.26 423.22 632.57 643.49 399.74 838.40 387.44 716.35 514.95 677.85 622.28 828.75 612.42
00003346 00000049 578.38 111.02 420.88 638.40 653.18 394.84 851.86 386.56 729.42 515.90 685.83 620.41 838.79 613.80
00003347 00000050 588.62 107.13 421.06 637.47 661.80 396.28 864.00 390.71 748.05 509.47 690.29 614.77 844.95 611.36
00003348 00000051 597.01 109.20 418.04 636.95 671.36 396.99 871.87 393.52 756.37 511.86 696.84 614.27 849.63 612.36
00003349 00000052 601.17 111.92 417.12 641.66 676.10 399.50 875.79 395.94 759.73 515.28 701.44 619.68 851.85 617.98
00003350 00000053 602.71 113.81 417.10 645.10 678.04 401.51 878.75 396.53 762.17 517.01 704.31 623.38 855.62 620.55
00003351 00000054 605.14 113.42 415.37 643.52 680.93 402.95 881.06 399.03 764.06 519.30 705.71 623.10 856.91 621.07
00003352 00000055 604.16 117.64 416.40 635.97 681.94 404.80 882.51 402.29 765.64 521.55 705.28 621.84 856.84 621.00
00003353 00000056 603.90 121.46 416.24 633.07 682.60 406.37 881.95 405.48 765.40 522.69 703.99 621.95 854.68 622.46
00003354 00000057 603.52 126.17 414.92 633.26 681.79 407.88 879.18 406.02 764.22 521.09 702.65 623.44 851.75 623.34
00003355 00000058 601.18 126.29 415.62 642.38 678.03 409.04 875.87 405.04 760.13 520.36 700.14 626.25 851.20 624.27
00003356 00000059 597.65 124.07 416.63 634.21 670.62 410.78 871.47 406.87 755.57 525.44 693.14 620.91 853.08 618.60
00003357 00000060 589.46 123.24 420.62 634.19 665.42 411.76 868.48 409.12 751.12 525.84 686.83 617.49 850.93 616.02
00003358 00000061 583.45 128.08 418.42 623.62 658.50 414.32 858.89 410.78 738.23 527.64 687.86 623.30 855.28 618.54
00003359 00000062 579.72 130.46 418.32 629.66 654.57 414.37 848.01 408.95 729.11 530.53 688.54 630.95 845.83 624.87
00003360 00000063 575.02 131.38 418.37 637.65 650.38 417.67 838.65 413.24 722.51 534.67 684.19 636.54 833.81 631.71
00003361 00000064 565.84 134.94 420.43 635.11 635.89 421.48 821.89 417.25 707.04 541.35 672.47 638.65 822.84 633.68
00003362 00000065 558.22 140.36 423.12 627.95 624.46 423.47 813.70 419.67 696.87 544.73 661.42 640.46 813.79 635.63
00003363 00000066 555.07 142.17 416.26 623.31 613.98 424.92 803.96 422.84 681.99 549.15 647.01 641.60 800.79 638.33
00003364 00000067 548.49 140.49 414.57 628.06 603.81 429.94 787.90 427.49 666.20 551.04 635.70 642.58 788.82 638.67
00003365 00000068 543.12 136.99 415.03 634.19 590.50 432.05 772.88 424.29 649.58 550.09 623.15 646.16 770.65 639.99
00003366 00000069 534.81 138.70 415.16 633.41 583.03 436.32 765.72 426.50 643.23 552.81 613.94 646.11 763.45 637.99
00003367 00000070 528.60 139.63 418.96 630.83 578.55 434.61 757.69 425.45 636.46 549.82 608.32 643.25 754.56 635.41
00003368 00000071 521.35 138.36 425.17 627.95 573.90 427.07 751.43 417.81 628.56 541.74 604.15 636.91 746.06 628.93
00003369 DELETE   509.92 131.24 434.45 629.27 568.01 420.01 744.90 410.86 621.32 536.03 600.63 631.58 740.97 623.16
00003370 00000073 506.79 135.88 425.33 622.21 558.10 415.74 733.13 409.81 603.28 530.13 589.68 622.21 729.33 617.38
00003371 00000074 501.63 124.81 430.97 633.93 549.25 411.03 726.08 401.44 594.39 526.03 584.65 623.11 724.49 615.18
00003372 00000075 500.37 126.50 430.57 635.22 545.51 407.76 722.54 396.09 590.73 520.01 581.23 623.50 718.28 614.27
00003373 00000076 493.02 135.71 426.54 619.51 536.75 409.66 710.94 397.66 576.84 521.08 568.35 626.39 713.63 614.09
00003374 00000077 489.67 131.67 427.98 626.05 536.24 412.61 705.78 395.49 571.54 518.67 570.29 623.10 702.97 609.06
00003375 00000078 484.88 130.84 427.86 629.76 527.96 417.50 692.92 396.70 559.24 516.74 564.87 625.77 694.13 608.57
00003376 00000079 485.96 131.03 424.68 636.42 522.86 416.35 682.61 394.47 548.13 520.59 559.34 636.91 688.94 617.08
00003377 00000080 487.70 130.98 419.95 638.55 525.58 417.45 677.21 397.79 546.21 522.00 563.19 639.44 681.29 621.72
00003378 00000081 496.45 135.97 408.90 635.38 533.77 426.67 673.77 410.51 544.40 521.58 564.73 640.51 677.61 625.60
00003379 00000082 499.43 136.44 408.50 632.01 536.17 426.67 675.66 412.31 544.77 523.50 566.42 639.66 678.98 626.18
00003380 00000083 498.27 133.27 415.36 630.96 535.06 423.90 676.84 410.70 545.81 527.59 568.51 636.92 684.91 623.89
00003381 00000084 506.06 131.13 415.27 629.11 539.11 419.29 678.39 404.89 552.05 527.16 577.43 626.28 686.99 614.30
00003382 00000085 508.58 126.22 418.09 637.36 542.15 415.72 680.55 400.32 552.52 525.87 581.70 627.02 690.28 613.89
00003383 00000086 511.68 124.59 422.42 644.53 544.32 415.66 689.58 393.00 561.16 516.72 587.69 628.98 699.64 610.17
00003384 00000087 516.89 126.38 425.03 642.84 551.43 414.15 694.29 396.14 563.59 518.63 592.42 626.51 706.23 610.94
00003385 00000088 521.58 122.87 424.31 645.88 555.55 411.76 697.08 398.42 564.41 520.27 592.59 625.09 707.83 613.05
00003386 00000089 528.36 121.50 422.65 652.36 563.26 410.34 702.65 399.56 567.74 521.55 598.19 626.76 712.36 616.13
00003387 00000090 535.98 129.30 420.82 645.79 570.70 407.86 706.86 397.99 569.16 522.77 606.76 627.97 720.68 617.35
00003388 00000091 540.41 130.26 420.30 641.23 573.88 406.01 711.08 398.36 571.29 520.51 607.22 625.98 719.63 617.30
00003389 00000092 542.88 123.57 418.08 639.82 576.46 405.06 714.84 399.93 573.09 517.64 606.40 621.91 718.41 615.37
00003390 00000093 545.76 120.61 416.10 632.27 581.84 407.03 711.81 399.93 575.80 511.26 610.91 611.05 715.67 603.46
00003391 00000094 546.82 120.49 416.43 630.86 581.53 407.97 711.53 400.31 576.45 512.07 610.93 611.48 715.19 603.46
00003392 00000095 547.54 123.94 415.21 628.36 582.05 410.68 712.44 403.06 576.89 514.09 610.07 613.64 713.67 605.85
00003393 00000096 551.85 129.36 413.36 621.87 576.45 404.26 711.41 402.85 581.22 521.62 605.36 619.29 708.10 618.08
00003394 00000097 547.54 129.72 412.58 626.24 575.57 410.98 714.40 406.17 578.58 524.34 605.03 629.89 706.51 623.52
00003395 00000098 547.11 125.34 413.28 636.69 576.20 409.29 712.61 406.03 576.35 524.93 604.39 633.14 699.50 628.42
00003396 00000099 550.01 127.10 411.19 631.61 577.61 403.82 703.00 402.66 571.90 519.87 604.46 627.15 687.73 626.12
00003397 00000100 546.74 124.88 414.19 635.54 576.49 401.50 706.38 401.47 572.66 518.05 601.83 626.24 689.21 626.33
00003398 00000101 543.24 123.52 416.66 639.86 573.27 401.18 708.60 401.36 573.90 520.52 599.72 627.89 691.59 628.19
00003399 00000102 539.13 122.47 418.86 650.90 571.97 408.33 713.50 404.47 575.84 522.76 598.28 633.51 698.96 629.18
00003400 00000103 539.72 125.93 418.05 651.86 572.34 411.38 714.87 405.42 576.86 527.56 603.81 637.19 707.74 630.41
00003401 00000104 535.59 128.77 421.31 649.97 569.10 416.20 714.53 406.22 577.04 528.77 603.35 638.07 714.65 627.57
00003402 00000105 532.59 133.58 425.36 651.33 566.27 421.93 712.25 405.53 575.27 529.55 604.37 642.27 718.10 626.43
00003403 00000106 528.67 131.77 429.51 652.67 563.48 423.71 710.95 405.73 573.96 529.65 601.06 642.94 716.96 626.09
00003404 00000107 522.19 131.71 433.91 650.93 559.61 423.99 710.62 406.16 573.81 529.19 596.24 641.79 717.03 625.32
00003405 00000108 517.56 135.45 436.35 644.63 554.28 426.49 708.18 407.38 574.20 532.70 593.44 644.05 716.30 626.60
00003406 00000109 516.17 134.68 438.05 651.69 551.72 429.45 707.56 408.94 573.32 537.73 592.82 648.71 718.14 630.08
00003407 00000110 512.43 132.49 440.04 657.77 550.03 431.28 706.46 409.89 572.44 538.86 590.42 649.18 718.52 629.90
00003408 00000111 510.70 133.85 439.97 655.28 548.62 431.12 705.41 408.68 572.70 538.63 589.82 648.93 716.87 629.04
00003409 00000112 510.38 132.13 440.11 654.96 549.76 430.99 707.93 407.56 575.32 537.15 590.39 647.89 718.01 627.23
00003410 00000113 510.56 129.02 441.34 656.67 550.87 430.93 712.34 405.84 579.07 535.17 591.09 648.29 720.56 626.37
00003411 00000114 511.02 127.87 442.30 657.01 552.56 429.32 718.10 405.21 584.01 534.20 590.66 646.79 722.71 625.77
00003412 00000115 514.88 127.71 439.79 654.52 557.77 430.00 723.46 405.18 589.97 530.85 594.94 644.47 727.60 622.57
00003413 00000116 518.14 129.12 441.66 648.19 561.19 426.09 731.46 404.46 595.67 530.63 598.24 642.26 735.01 622.67
00003414 00000117 527.00 133.10 440.63 648.02 567.76 423.85 738.57 399.35 600.04 525.59 604.80 640.39 743.65 618.34
00003415 00000118 534.58 128.93 441.99 669.01 578.92 418.97 748.37 396.38 603.83 522.42 609.57 645.61 750.65 625.49
00003416 00000119 544.39 119.80 439.38 684.87 589.97 417.68 754.46 391.02 610.29 518.66 620.56 645.12 761.97 623.98
00003417 00000120 557.32 121.75 435.44 683.54 604.03 412.61 770.94 391.43 629.42 513.06 635.46 639.27 779.13 622.52
CROP_BBOX: 277 0 1454 1062
