Video ID: 	bB2hSyyUlKQ
H: 	1080
W: 	1920
FPS: 	24.0

FRAME INDEX X0 Y0 W H [Landmarks (5 Points)]

00068157 00000000 944.72 118.79 448.46 644.25 1009.39 384.83 1220.74 360.90 1080.92 463.08 1038.28 610.77 1207.13 592.04
00068158 DELETE   951.71 113.90 445.50 660.40 1014.21 381.05 1223.33 356.54 1079.71 459.58 1043.30 612.20 1213.24 592.70
00068159 00000002 958.30 115.32 441.50 667.61 1019.82 378.76 1229.42 355.57 1086.46 458.66 1049.34 615.14 1216.05 596.87
00068160 00000003 961.22 112.96 443.07 670.19 1023.47 378.28 1232.36 354.67 1089.29 459.18 1052.17 615.31 1217.88 596.59
00068161 00000004 962.13 109.41 443.18 675.26 1025.22 377.55 1234.67 354.71 1091.63 459.61 1052.54 614.64 1220.57 596.63
00068162 00000005 962.46 112.24 444.51 668.87 1025.36 377.27 1234.12 352.48 1092.00 456.90 1053.96 612.90 1221.00 593.26
00068163 00000006 960.96 115.19 443.09 668.00 1023.21 374.83 1231.90 348.73 1091.17 453.79 1053.12 612.36 1221.38 591.50
00068164 00000007 958.29 113.65 444.06 669.30 1022.23 372.03 1228.94 346.20 1088.52 451.55 1051.77 610.69 1218.89 590.06
00068165 00000008 955.81 113.26 445.70 664.59 1020.97 370.52 1226.97 345.43 1088.70 449.21 1051.37 608.81 1213.11 589.12
00068166 00000009 952.45 110.60 448.40 655.16 1018.35 372.30 1224.91 345.25 1087.29 451.20 1051.00 607.08 1210.65 585.72
00068167 00000010 951.60 113.33 448.37 648.27 1016.85 373.69 1223.80 346.34 1085.77 451.87 1049.41 606.69 1208.46 585.09
00068168 00000011 949.97 110.79 450.29 648.27 1014.98 374.60 1222.65 347.47 1083.79 453.38 1047.12 607.74 1206.45 586.38
00068169 00000012 949.12 112.63 449.99 647.18 1013.30 376.76 1221.93 348.79 1083.30 455.59 1046.51 609.64 1206.37 587.65
00068170 00000013 948.76 113.53 450.64 645.43 1012.91 377.83 1221.28 349.81 1083.15 457.48 1046.53 610.70 1206.03 588.66
00068171 00000014 947.53 113.75 451.56 645.84 1012.13 378.14 1220.45 349.96 1082.82 457.60 1046.48 610.73 1205.34 588.52
00068172 00000015 946.46 113.40 451.93 644.84 1011.48 377.74 1220.42 350.22 1083.69 457.09 1045.83 610.15 1204.89 588.39
00068173 00000016 945.70 112.36 453.66 646.60 1011.37 377.79 1220.15 349.85 1083.29 456.73 1044.93 609.63 1204.43 587.58
00068174 00000017 944.26 114.65 454.46 644.14 1009.96 378.62 1218.89 349.70 1082.66 456.99 1044.73 609.92 1204.52 587.01
00068175 00000018 942.41 113.82 456.87 645.87 1009.25 379.16 1218.43 349.79 1081.94 457.16 1044.70 610.66 1203.09 587.40
00068176 00000019 940.60 112.29 457.27 647.73 1008.59 379.64 1217.00 350.94 1080.65 458.22 1043.72 610.88 1201.73 588.14
00068177 00000020 938.58 113.33 457.13 646.92 1006.29 379.16 1216.42 350.73 1079.54 458.03 1041.77 610.76 1201.76 588.25
00068178 00000021 936.72 111.81 457.74 650.11 1005.56 378.41 1214.13 350.10 1077.46 457.61 1040.26 610.48 1199.85 588.07
00068179 00000022 935.04 113.81 458.20 647.65 1004.10 379.33 1213.58 350.35 1076.31 457.46 1039.44 610.88 1199.66 587.86
00068180 00000023 934.02 114.11 457.58 646.27 1003.32 379.93 1212.69 350.85 1077.07 457.45 1038.51 611.19 1199.10 588.05
00068181 00000024 934.15 113.28 458.18 646.10 1002.92 379.08 1211.17 349.83 1075.14 457.28 1037.74 610.24 1197.86 587.02
00068182 00000025 934.53 113.12 458.35 647.54 1002.94 378.85 1211.36 349.17 1074.94 456.70 1037.94 609.90 1199.17 586.29
00068183 00000026 935.51 112.76 458.12 648.77 1003.40 378.67 1212.76 349.24 1075.20 456.46 1037.77 610.24 1199.57 586.92
00068184 00000027 938.12 113.02 456.23 648.88 1004.05 378.67 1213.24 348.60 1075.83 456.52 1038.76 611.43 1200.42 587.68
00068185 00000028 940.90 113.10 455.84 649.36 1005.93 379.46 1213.87 348.33 1076.45 457.02 1041.34 612.35 1202.22 587.79
00068186 00000029 944.08 113.80 453.99 647.53 1008.59 379.48 1216.89 348.77 1080.27 457.41 1044.61 612.67 1205.77 588.31
00068187 00000030 947.86 114.39 450.67 646.39 1010.05 379.49 1219.58 347.70 1083.26 457.34 1046.28 612.34 1210.85 586.99
00068188 00000031 951.67 113.34 447.80 645.87 1013.46 376.69 1222.12 345.30 1085.87 455.22 1049.76 610.75 1214.52 585.66
00068189 DELETE   956.21 114.76 444.22 644.63 1014.40 375.81 1225.06 343.66 1087.94 453.79 1049.94 610.99 1218.27 585.19
00068190 00000033 958.76 114.08 445.90 650.52 1018.99 373.90 1226.25 342.05 1090.67 451.52 1054.27 608.93 1221.26 583.19
00068191 00000034 960.99 119.87 442.72 645.42 1024.29 379.82 1224.70 351.84 1090.26 450.85 1054.98 608.04 1216.64 585.50
00068192 DELETE   961.83 116.69 447.25 645.47 1028.28 383.10 1227.94 355.33 1093.66 448.82 1056.54 604.28 1220.03 581.73
00068193 00000036 961.03 116.10 448.92 643.66 1029.26 377.12 1229.52 351.32 1093.22 449.23 1056.05 600.08 1219.70 579.21
00068194 DELETE   961.17 109.91 447.16 645.76 1028.21 374.77 1229.17 350.16 1093.02 449.76 1055.86 599.20 1216.27 579.76
00068195 00000038 959.17 102.67 446.90 650.79 1024.82 371.29 1226.00 347.35 1089.43 449.89 1051.75 599.23 1210.18 580.57
00068196 00000039 954.87 103.62 449.37 648.97 1021.77 370.98 1223.83 345.49 1087.36 448.84 1049.93 598.70 1208.27 578.68
00068197 00000040 950.34 101.29 452.29 651.23 1017.86 372.97 1220.34 345.06 1083.07 447.10 1046.88 598.76 1204.78 576.77
00068198 00000041 944.67 106.62 455.34 647.80 1012.66 374.07 1216.57 344.14 1079.48 446.71 1043.27 599.80 1200.87 576.13
00068199 00000042 934.19 109.35 460.52 646.27 1006.59 376.63 1210.05 345.42 1074.96 446.56 1038.94 603.68 1191.98 578.92
00068200 00000043 923.43 124.99 453.41 635.13 992.90 373.33 1201.14 343.48 1070.44 453.48 1032.38 610.18 1197.76 585.45
00068201 00000044 918.69 125.06 454.59 639.78 987.77 376.64 1194.15 345.10 1064.00 454.97 1029.94 614.07 1194.32 587.49
00068202 00000045 917.25 134.18 453.26 633.18 989.74 389.99 1191.16 355.18 1064.29 450.22 1030.87 614.79 1196.48 585.68
00068203 00000046 919.03 132.82 451.55 634.69 991.22 388.96 1194.44 354.11 1067.69 448.72 1032.96 616.11 1199.66 587.12
00068204 00000047 919.44 126.51 452.90 639.14 992.72 383.70 1201.81 347.31 1074.51 446.66 1035.31 616.80 1205.87 586.73
00068205 00000048 926.69 113.21 453.49 652.61 1002.56 377.75 1206.52 341.15 1082.43 447.11 1039.00 606.70 1203.05 576.65
00068206 00000049 928.50 110.99 457.79 657.81 1004.12 374.52 1209.99 337.76 1084.76 446.99 1041.98 607.75 1208.07 577.49
00068207 00000050 931.77 111.01 462.96 651.52 1003.65 379.49 1209.96 339.73 1078.65 445.71 1045.27 610.46 1207.18 578.59
00068208 00000051 935.37 112.49 460.63 649.33 1004.77 381.11 1210.84 339.05 1079.67 445.13 1046.35 610.56 1210.96 576.68
00068209 DELETE   938.18 110.15 460.45 650.85 1006.63 381.67 1211.21 339.24 1080.53 444.79 1047.52 609.45 1211.96 575.38
00068210 00000053 940.47 107.65 460.30 652.84 1009.20 381.86 1212.88 338.97 1081.71 444.33 1049.79 608.67 1214.47 574.22
00068211 00000054 943.76 109.04 457.79 652.33 1011.87 381.71 1216.25 340.27 1084.35 445.83 1052.98 609.76 1215.91 576.42
00068212 00000055 948.88 110.08 453.76 653.35 1015.09 380.72 1219.11 341.25 1087.25 447.53 1056.40 609.79 1219.08 577.81
00068213 00000056 953.32 110.24 451.61 653.52 1018.82 379.78 1222.87 342.44 1090.30 448.31 1058.39 609.55 1221.19 579.26
00068214 00000057 956.66 111.57 448.60 653.69 1020.80 378.69 1225.05 342.60 1092.47 449.28 1059.98 609.04 1223.17 579.64
00068215 00000058 958.26 109.36 448.47 654.91 1021.98 376.94 1228.20 341.73 1094.11 448.05 1059.52 608.15 1224.49 579.61
00068216 00000059 958.96 109.68 449.03 655.80 1022.94 376.64 1229.24 340.88 1095.20 447.96 1060.51 607.80 1226.70 578.71
00068217 00000060 959.25 110.51 448.85 657.03 1022.92 377.02 1228.75 341.67 1094.46 447.83 1059.95 608.16 1226.37 579.35
00068218 00000061 959.77 108.57 448.11 660.79 1023.42 377.18 1229.38 342.02 1094.37 449.82 1060.34 609.13 1227.20 580.39
00068219 00000062 958.67 104.73 449.46 671.45 1024.44 379.44 1229.57 344.57 1093.15 450.76 1060.77 610.62 1227.96 582.05
00068220 00000063 958.28 113.97 450.31 672.70 1028.57 388.46 1225.37 353.80 1091.91 447.60 1061.22 612.65 1227.29 583.64
00068221 DELETE   953.40 109.98 454.02 671.39 1022.11 389.16 1220.75 357.36 1082.57 446.70 1051.78 610.35 1217.82 584.17
00068222 DELETE   944.67 107.38 453.80 660.59 1012.46 376.36 1216.89 353.95 1075.32 446.32 1036.12 599.79 1206.89 581.98
00068223 00000066 942.95 105.58 449.63 655.59 1011.76 369.42 1219.59 352.84 1076.02 446.65 1029.60 594.73 1201.77 582.16
00068224 00000067 940.20 101.19 451.74 659.75 1012.23 364.59 1220.37 352.42 1075.68 447.21 1025.86 593.17 1199.55 584.07
00068225 00000068 941.32 107.52 451.87 654.32 1012.68 363.82 1221.48 352.81 1075.54 447.50 1027.00 593.53 1199.97 585.42
00068226 00000069 941.94 105.32 453.09 652.31 1013.40 365.17 1224.42 354.88 1079.61 451.55 1027.24 596.54 1200.86 589.10
00068227 00000070 942.89 98.93 452.40 649.44 1013.90 367.32 1226.77 355.52 1083.61 454.64 1027.83 598.01 1205.45 589.27
00068228 00000071 944.50 99.85 451.80 649.14 1014.53 371.15 1228.16 356.09 1085.84 456.44 1031.89 601.95 1209.51 590.38
00068229 00000072 948.73 101.51 449.38 655.67 1017.02 374.11 1230.13 356.77 1085.61 457.52 1037.11 604.89 1213.59 591.59
00068230 00000073 950.18 105.26 448.77 655.45 1016.80 377.43 1230.02 358.56 1085.90 459.04 1038.83 607.68 1214.84 593.03
00068231 00000074 951.94 109.12 446.70 653.67 1016.62 378.18 1230.14 357.92 1086.37 458.77 1040.29 608.34 1216.91 592.45
00068232 00000075 950.85 106.30 448.03 657.05 1016.54 378.27 1229.16 356.91 1085.75 456.94 1040.45 608.30 1215.73 591.59
00068233 00000076 947.05 103.49 451.58 658.80 1016.23 375.56 1227.24 354.20 1085.14 454.86 1040.21 606.13 1212.60 589.48
00068234 00000077 946.00 105.08 452.06 658.61 1015.62 372.78 1224.76 351.64 1084.18 452.16 1039.85 604.01 1209.14 587.56
00068235 00000078 945.35 108.48 453.22 654.65 1013.84 372.64 1223.46 350.63 1083.68 452.50 1039.37 603.20 1209.75 585.98
00068236 00000079 945.85 107.19 453.34 658.22 1014.81 373.56 1223.22 350.91 1082.70 451.92 1040.08 603.66 1209.50 585.93
00068237 00000080 948.04 105.67 452.41 656.95 1015.59 375.42 1223.94 350.63 1083.71 452.88 1042.34 604.90 1211.24 585.46
00068238 00000081 950.61 103.03 450.60 654.32 1016.98 374.56 1225.90 350.45 1085.12 453.63 1042.41 603.56 1211.55 584.84
00068239 00000082 951.63 105.16 450.31 649.35 1018.57 373.52 1227.95 351.04 1088.01 455.26 1042.92 601.65 1213.76 584.17
00068240 00000083 952.85 102.66 450.05 651.84 1020.41 373.40 1228.53 352.22 1088.61 455.61 1043.95 601.09 1212.60 584.70
00068241 00000084 953.67 103.78 449.18 650.69 1020.81 375.02 1229.16 353.63 1088.80 456.59 1044.17 602.34 1211.67 585.86
00068242 00000085 954.78 104.87 448.11 654.08 1020.88 375.56 1229.11 355.55 1087.20 456.51 1044.29 603.73 1208.51 588.45
00068243 00000086 951.79 104.12 449.26 657.93 1019.75 376.33 1228.01 356.67 1086.37 456.82 1042.75 605.51 1205.08 590.58
00068244 00000087 949.61 104.12 449.38 657.42 1019.36 379.10 1224.70 359.74 1084.89 456.53 1042.38 605.34 1206.12 590.38
00068245 00000088 946.88 106.64 453.78 661.79 1018.49 387.19 1223.55 364.68 1085.12 452.91 1041.42 608.03 1211.68 590.02
00068246 00000089 946.88 107.70 454.19 661.83 1020.36 385.94 1223.92 364.99 1086.28 453.57 1043.19 608.65 1212.78 591.66
00068247 00000090 947.07 106.96 452.87 659.14 1021.19 380.94 1228.34 361.36 1090.28 454.94 1044.03 606.55 1213.28 591.08
00068248 00000091 949.98 104.94 451.18 655.74 1023.69 379.90 1231.19 360.66 1093.37 454.16 1047.06 604.02 1212.42 589.06
00068249 00000092 950.22 107.79 446.75 651.43 1022.61 374.11 1233.41 353.61 1100.87 453.20 1046.91 599.06 1219.37 582.56
00068250 00000093 952.84 101.88 449.06 653.67 1025.85 373.14 1231.85 356.02 1093.80 451.81 1047.34 597.03 1210.99 583.75
00068251 00000094 952.54 100.76 449.68 652.60 1025.63 369.98 1231.88 352.92 1094.69 450.78 1045.44 594.41 1213.03 581.31
00068252 00000095 952.11 102.72 450.68 647.79 1025.81 366.76 1232.97 349.64 1097.36 449.08 1045.46 591.55 1215.42 578.49
00068253 00000096 950.40 109.05 446.70 641.43 1022.41 360.40 1231.55 341.38 1100.68 445.90 1045.51 586.54 1223.50 570.84
00068254 00000097 950.98 102.42 452.26 646.98 1026.18 360.58 1232.70 344.17 1096.40 444.00 1042.65 585.48 1219.30 572.97
00068255 00000098 950.36 102.84 453.15 647.37 1025.41 362.04 1233.74 343.71 1097.99 444.65 1043.97 588.28 1222.07 574.20
00068256 00000099 951.03 104.27 452.10 649.69 1024.98 365.90 1233.62 345.59 1097.11 446.14 1045.25 593.32 1221.66 577.61
00068257 00000100 952.38 105.87 449.02 653.00 1024.62 367.83 1232.10 347.61 1095.68 447.41 1046.83 596.88 1219.41 581.25
00068258 00000101 951.48 102.90 450.03 654.76 1022.49 370.90 1229.64 348.50 1093.12 450.05 1047.49 599.59 1217.83 582.12
00068259 00000102 950.15 98.04 449.89 656.88 1020.25 373.43 1228.98 350.23 1089.97 452.51 1045.03 600.51 1219.02 582.14
00068260 00000103 948.45 97.23 451.73 655.52 1018.24 376.12 1224.90 350.37 1088.02 453.24 1046.09 602.95 1217.03 582.48
00068261 00000104 947.94 97.61 451.49 653.29 1017.33 375.81 1222.96 350.03 1086.69 453.31 1045.28 602.40 1215.98 581.97
00068262 00000105 945.68 98.72 453.00 651.91 1015.83 376.36 1222.83 350.25 1086.53 452.67 1043.03 601.46 1215.65 580.68
00068263 00000106 944.33 101.58 454.28 651.96 1014.05 377.70 1222.95 349.96 1086.79 451.61 1042.04 602.63 1218.07 580.30
00068264 00000107 943.32 104.68 455.25 656.71 1013.23 378.29 1220.48 350.04 1084.33 450.74 1042.49 604.88 1215.74 582.13
00068265 00000108 944.07 102.91 455.34 657.13 1014.08 377.29 1220.29 350.29 1083.53 449.67 1041.27 603.37 1213.69 581.84
00068266 00000109 946.94 103.38 452.14 654.13 1016.34 372.98 1223.11 349.00 1086.24 448.20 1041.10 599.78 1214.42 580.87
00068267 00000110 951.79 108.18 447.63 644.98 1021.50 368.03 1228.75 347.10 1091.74 444.78 1041.96 593.44 1218.11 577.10
00068268 00000111 956.66 109.78 447.03 643.18 1029.17 362.22 1235.96 344.73 1097.30 439.94 1045.73 587.06 1222.06 573.55
00068269 00000112 963.98 114.27 448.55 640.68 1034.94 358.26 1242.44 341.75 1099.92 433.49 1049.29 583.61 1225.64 570.48
00068270 00000113 964.93 125.19 449.19 632.55 1038.81 351.36 1254.66 334.23 1115.17 424.70 1054.42 584.08 1235.33 570.70
00068271 00000114 967.70 121.39 453.36 631.37 1042.60 352.14 1259.72 336.60 1121.51 426.54 1059.48 583.13 1242.31 570.56
00068272 00000115 970.39 116.77 454.06 629.30 1044.68 354.49 1263.58 339.57 1125.68 429.96 1064.25 583.87 1248.21 571.37
00068273 00000116 971.37 116.49 455.25 627.02 1045.42 355.23 1264.33 340.86 1126.89 432.46 1065.96 583.95 1251.27 571.48
00068274 00000117 970.90 115.91 454.47 621.74 1048.94 354.43 1264.10 345.05 1125.05 439.72 1063.36 577.57 1249.72 569.76
00068275 00000118 970.13 114.92 453.81 623.61 1048.14 358.45 1261.57 349.35 1123.55 441.54 1061.92 577.79 1248.02 570.11
00068276 DELETE   969.05 115.32 452.59 631.48 1045.85 368.71 1258.60 352.83 1120.33 441.65 1060.41 582.82 1248.03 569.77
00068277 DELETE   968.25 114.83 452.20 638.30 1041.71 371.94 1250.77 352.65 1113.29 439.86 1057.78 588.02 1240.01 572.03
00068278 DELETE   964.27 110.08 452.00 647.04 1037.98 369.41 1247.01 345.85 1109.47 437.48 1056.64 588.50 1238.24 569.14
00068279 00000122 962.95 108.18 452.16 643.71 1037.66 366.36 1245.30 344.17 1110.35 437.35 1056.36 585.43 1235.95 567.31
00068280 00000123 958.54 115.89 451.73 632.25 1031.11 364.77 1241.93 339.66 1113.77 440.62 1058.86 587.05 1242.75 566.57
00068281 00000124 955.53 114.03 450.09 635.70 1027.51 365.07 1240.09 340.77 1110.95 445.91 1057.01 589.52 1241.12 569.78
00068282 00000125 953.74 117.33 450.58 632.60 1025.64 367.53 1237.91 342.83 1109.20 451.58 1058.05 592.71 1240.82 572.42
00068283 00000126 953.69 116.73 449.51 635.51 1023.92 373.63 1237.02 348.17 1106.81 454.87 1054.68 597.98 1237.96 576.96
CROP_BBOX: 656 0 1674 969
