Video ID: 	sGUTxWYoUUo
H: 	1080
W: 	1920
FPS: 	29.97002997002997

FRAME INDEX X0 Y0 W H [Landmarks (5 Points)]

00032914 00000000 966.72 225.81 454.09 624.81 1029.79 408.00 1222.48 420.95 1068.54 554.84 1048.24 660.87 1214.98 669.52
00032915 00000001 965.24 225.54 451.53 621.79 1025.49 410.21 1215.49 424.15 1059.36 557.96 1043.19 663.34 1209.77 672.63
00032916 00000002 964.80 232.57 449.82 617.75 1021.94 417.84 1215.55 427.56 1060.85 570.52 1045.50 671.90 1214.24 677.37
00032917 DELETE   966.07 240.98 456.22 613.49 1026.30 421.42 1222.64 432.37 1066.61 581.03 1052.02 674.45 1222.71 680.85
00032918 DELETE   971.74 242.47 454.99 610.36 1034.76 427.98 1236.39 435.00 1086.00 590.75 1064.02 678.46 1236.55 681.48
00032919 DELETE   976.28 231.49 453.80 627.33 1044.89 434.60 1246.51 435.22 1104.31 591.87 1076.67 684.51 1251.42 681.75
00032920 00000006 978.64 231.11 453.53 630.63 1050.23 437.94 1250.40 435.98 1112.69 590.07 1084.97 686.64 1257.99 681.76
00032921 00000007 977.32 231.28 452.86 635.25 1048.69 438.41 1246.47 437.16 1108.47 592.66 1083.94 688.76 1256.69 684.35
00032922 00000008 978.20 251.70 450.99 615.15 1043.55 444.13 1240.94 447.08 1102.43 593.34 1077.80 684.29 1248.21 684.00
00032923 00000009 973.06 262.64 452.20 603.53 1039.01 441.57 1234.79 450.31 1093.87 593.41 1071.42 679.03 1243.61 683.18
00032924 00000010 970.36 263.41 451.17 605.88 1036.25 440.54 1232.19 451.30 1090.95 594.97 1068.20 678.70 1241.74 684.52
00032925 00000011 969.87 265.93 448.86 604.94 1036.74 441.37 1230.71 450.48 1091.79 592.38 1068.45 678.76 1242.17 683.25
00032926 00000012 971.86 256.72 448.27 613.74 1038.81 440.79 1232.43 447.33 1093.51 589.60 1071.27 678.21 1245.84 680.44
00032927 00000013 973.37 247.23 446.95 619.46 1041.09 438.86 1236.81 444.36 1099.24 588.47 1071.99 676.75 1247.70 678.45
00032928 00000014 970.49 234.46 450.09 624.84 1041.03 432.72 1242.49 434.52 1099.23 588.47 1070.55 678.55 1250.26 676.93
00032929 00000015 972.17 230.27 447.70 625.72 1043.36 430.51 1243.95 432.14 1100.91 580.67 1069.38 674.16 1248.29 672.43
00032930 00000016 972.19 227.92 446.09 621.90 1041.62 427.25 1239.65 429.82 1096.67 574.48 1066.76 670.74 1240.72 670.08
00032931 00000017 969.50 230.34 448.84 617.92 1038.61 426.06 1236.46 430.41 1091.90 574.36 1063.31 669.14 1236.26 670.13
00032932 00000018 968.53 233.87 448.86 614.44 1036.07 427.64 1234.66 432.83 1089.24 578.12 1060.51 670.21 1234.53 671.95
00032933 00000019 968.44 244.66 450.01 615.31 1037.32 433.10 1234.10 439.49 1093.25 579.01 1063.93 672.20 1236.67 675.11
00032934 00000020 970.32 242.27 447.50 620.22 1040.42 435.32 1237.31 441.36 1098.62 583.93 1068.14 672.84 1242.94 675.13
00032935 00000021 968.31 241.18 452.59 615.16 1041.76 433.61 1243.84 436.95 1102.06 588.60 1067.56 675.63 1247.75 675.61
00032936 00000022 973.47 244.93 448.97 618.19 1043.12 437.46 1242.01 440.88 1103.74 584.29 1072.85 674.20 1249.07 674.21
00032937 00000023 974.20 246.22 446.63 619.48 1042.99 435.66 1239.63 439.13 1101.74 580.88 1071.55 675.46 1247.77 675.70
00032938 00000024 972.84 249.75 446.41 622.31 1041.71 434.98 1234.57 438.31 1095.79 578.67 1072.62 680.01 1243.74 679.95
00032939 00000025 971.96 247.76 445.16 628.70 1040.89 433.44 1232.58 437.00 1093.64 577.51 1070.98 680.90 1241.06 681.10
00032940 00000026 971.49 243.32 445.93 630.78 1040.35 432.74 1233.12 436.41 1093.17 575.38 1070.91 679.86 1241.74 680.13
00032941 00000027 972.34 237.81 448.30 628.25 1041.16 432.70 1236.26 435.83 1097.93 576.76 1071.57 675.63 1244.46 675.48
00032942 00000028 973.67 231.56 446.47 634.60 1043.29 431.39 1239.65 434.66 1101.97 576.83 1073.72 674.57 1246.62 674.61
00032943 00000029 970.13 224.74 449.79 635.24 1044.83 427.84 1244.34 429.77 1104.24 580.45 1072.30 677.15 1248.22 675.80
00032944 00000030 968.91 225.87 449.26 631.21 1041.91 428.01 1241.36 430.62 1100.99 580.30 1068.32 677.49 1241.34 677.09
00032945 00000031 966.34 224.64 448.71 627.43 1036.64 424.95 1233.83 430.71 1090.82 577.45 1059.92 675.01 1226.49 677.78
00032946 00000032 965.71 240.86 446.81 612.53 1033.01 425.84 1230.66 434.35 1089.72 571.84 1057.96 674.38 1217.39 680.21
00032947 00000033 969.18 241.85 438.44 606.63 1034.62 427.82 1225.54 435.05 1084.16 575.42 1059.70 673.03 1214.01 679.15
00032948 00000034 965.29 243.67 445.27 611.41 1033.17 426.23 1229.67 434.87 1089.05 573.46 1059.55 675.73 1216.34 681.70
00032949 00000035 964.67 233.72 451.11 615.32 1034.77 424.36 1232.13 431.40 1088.96 576.51 1057.61 674.61 1219.84 678.85
00032950 00000036 972.27 227.70 443.02 622.95 1043.77 429.22 1236.99 436.28 1098.84 578.99 1071.37 673.97 1227.77 679.62
00032951 00000037 970.69 228.00 446.52 620.31 1041.83 424.28 1241.27 431.45 1096.94 577.82 1064.18 675.95 1228.71 680.18
00032952 00000038 971.30 228.37 447.17 621.09 1042.23 423.97 1240.59 431.55 1095.50 577.29 1064.28 676.33 1227.51 680.79
00032953 00000039 971.60 229.45 447.63 625.48 1042.83 422.96 1239.39 430.91 1093.52 575.40 1064.76 677.46 1228.05 681.95
00032954 00000040 971.15 230.25 450.08 627.15 1042.26 420.46 1241.10 428.30 1093.28 574.42 1064.61 678.56 1230.82 682.85
00032955 00000041 975.19 214.05 446.48 639.19 1045.82 420.46 1246.08 427.00 1099.41 571.82 1067.43 675.35 1237.46 678.65
00032956 00000042 978.80 202.27 446.05 641.83 1049.87 422.06 1253.74 426.25 1109.68 567.85 1072.83 672.44 1244.67 673.80
00032957 00000043 982.85 203.72 444.75 635.41 1055.29 422.59 1257.75 425.78 1117.32 562.91 1078.01 669.71 1249.55 670.13
00032958 00000044 984.98 199.94 444.72 641.93 1060.46 417.75 1261.74 420.44 1122.73 559.22 1082.63 666.31 1251.02 666.13
00032959 00000045 987.34 203.91 444.24 633.78 1060.81 415.17 1262.50 417.84 1122.47 556.26 1083.28 663.57 1250.22 663.49
00032960 00000046 987.76 201.99 442.18 629.84 1058.53 415.37 1263.34 419.34 1121.24 556.64 1080.96 664.17 1251.35 665.36
00032961 00000047 987.51 199.45 442.94 631.62 1057.38 416.20 1263.93 419.73 1120.82 557.72 1080.41 664.76 1251.82 665.67
00032962 00000048 986.96 200.79 444.08 630.72 1058.10 416.33 1264.86 420.70 1122.40 560.52 1080.50 666.84 1249.73 668.46
00032963 00000049 987.63 205.69 443.75 630.32 1063.54 416.83 1264.29 422.21 1124.27 561.74 1083.88 664.50 1245.76 666.83
00032964 00000050 986.93 203.69 443.87 633.76 1064.43 417.53 1264.44 423.48 1126.32 563.45 1084.19 664.07 1245.50 666.97
00032965 00000051 985.90 201.72 445.27 637.91 1063.91 418.64 1264.30 423.09 1126.34 562.68 1084.60 665.59 1247.15 667.09
00032966 00000052 985.78 201.94 444.83 639.34 1064.29 418.69 1264.17 422.83 1126.26 562.21 1084.64 665.79 1247.24 666.95
00032967 00000053 985.98 200.71 445.46 641.56 1063.62 419.36 1263.71 422.62 1125.66 561.81 1085.89 666.85 1249.08 667.13
00032968 00000054 986.66 197.79 445.26 645.23 1065.58 417.59 1265.27 421.48 1127.37 562.18 1086.90 665.07 1250.11 665.81
00032969 00000055 987.88 201.91 445.24 639.75 1066.87 415.89 1265.62 420.22 1128.25 561.83 1088.93 663.76 1250.48 664.76
00032970 00000056 989.52 206.23 444.78 633.03 1069.10 415.34 1265.30 420.13 1129.34 560.87 1091.45 661.47 1250.96 662.71
00032971 00000057 990.48 203.34 442.92 635.29 1070.36 417.43 1266.17 421.79 1131.43 560.21 1092.22 661.60 1253.12 662.54
00032972 00000058 992.13 204.40 442.73 631.56 1072.16 420.71 1268.22 424.71 1133.39 559.16 1094.16 661.06 1255.43 661.72
00032973 00000059 993.83 205.86 441.46 627.04 1072.74 422.69 1269.53 426.26 1135.16 559.92 1094.16 661.43 1257.79 661.80
00032974 00000060 994.51 203.94 443.41 630.79 1075.49 424.67 1274.17 427.83 1140.17 561.45 1096.24 662.50 1262.01 662.58
00032975 00000061 994.95 204.64 442.71 631.53 1077.78 425.52 1278.67 428.61 1144.53 562.89 1098.48 661.07 1268.66 661.16
00032976 00000062 995.80 208.07 444.54 631.40 1080.94 426.43 1282.92 429.97 1149.98 567.06 1100.86 661.48 1273.45 662.15
00032977 00000063 999.01 212.90 444.03 625.26 1085.09 426.15 1287.08 430.55 1154.30 567.21 1104.92 659.86 1277.45 661.01
00032978 00000064 1001.26 209.57 449.43 643.36 1090.50 420.86 1297.28 435.71 1160.50 571.08 1110.35 657.53 1280.57 668.81
00032979 00000065 1003.25 215.77 449.23 635.84 1094.01 422.85 1300.92 438.58 1164.71 573.22 1113.70 658.50 1282.29 670.60
00032980 00000066 1007.51 209.87 447.73 642.82 1098.21 423.41 1305.87 440.65 1169.58 574.69 1117.16 659.65 1285.91 673.05
00032981 00000067 1011.32 211.02 448.32 640.49 1103.53 423.97 1311.91 443.10 1177.07 576.23 1120.49 658.05 1289.25 673.13
00032982 00000068 1016.11 213.10 446.16 635.68 1108.38 425.30 1317.25 446.24 1183.13 578.04 1121.83 656.87 1292.40 673.57
00032983 00000069 1019.43 213.03 446.88 632.30 1110.82 428.34 1318.62 447.53 1184.45 581.19 1125.25 657.09 1297.60 672.07
00032984 00000070 1022.48 222.57 445.92 623.81 1114.91 430.78 1321.40 448.62 1188.65 581.29 1129.52 658.44 1303.18 672.24
00032985 00000071 1023.88 226.33 445.62 621.16 1119.42 432.83 1323.62 450.12 1193.25 583.51 1135.04 658.22 1307.81 671.46
00032986 00000072 1024.01 232.57 445.87 617.54 1120.31 434.02 1324.33 451.32 1195.26 586.23 1136.22 659.03 1309.17 672.25
00032987 00000073 1022.76 234.07 447.18 618.10 1121.04 435.35 1325.85 451.73 1197.23 587.96 1137.86 661.08 1310.57 673.50
00032988 00000074 1021.51 238.92 447.09 616.38 1120.86 436.84 1324.87 452.23 1197.99 588.96 1138.22 662.55 1310.73 674.11
00032989 00000075 1020.52 250.44 447.96 609.19 1120.07 436.55 1324.21 451.72 1197.82 588.86 1138.00 665.04 1309.45 676.46
00032990 00000076 1017.98 248.61 447.82 612.45 1119.14 436.23 1322.63 452.09 1197.37 588.85 1136.29 666.45 1306.67 678.69
00032991 00000077 1016.41 245.02 449.92 614.95 1115.90 437.28 1321.70 451.93 1195.93 591.61 1136.14 670.17 1304.69 681.44
00032992 00000078 1014.52 247.58 450.46 615.35 1114.28 437.22 1320.20 450.74 1195.37 591.62 1136.11 672.54 1302.48 682.91
00032993 00000079 1012.72 246.65 450.60 620.08 1113.46 437.85 1319.20 450.53 1195.44 591.20 1136.42 674.67 1300.98 684.34
00032994 00000080 1012.15 246.01 449.54 626.05 1112.77 439.49 1318.51 450.53 1196.11 590.99 1136.89 678.77 1299.06 687.08
00032995 00000081 1010.25 243.57 449.84 631.32 1111.21 439.13 1316.61 449.51 1196.49 594.92 1139.77 681.37 1296.90 689.12
00032996 00000082 1007.65 239.80 448.47 635.28 1107.04 442.16 1312.67 450.41 1192.55 598.47 1138.91 683.64 1296.95 689.36
00032997 00000083 1006.66 241.28 451.59 625.45 1103.21 451.76 1310.23 455.93 1188.73 602.14 1133.50 687.18 1300.26 687.28
00032998 00000084 1002.88 243.75 453.18 620.72 1098.00 451.12 1306.59 455.63 1182.73 601.30 1126.78 684.09 1297.56 684.52
00032999 00000085 998.60 237.27 453.90 633.27 1095.85 445.18 1305.45 455.10 1180.66 599.73 1122.58 680.28 1288.81 687.54
00033000 00000086 999.06 240.17 452.99 621.26 1092.85 451.35 1302.77 457.26 1176.36 601.30 1118.38 680.49 1293.95 682.15
00033001 00000087 996.43 245.16 452.76 615.89 1088.60 451.55 1297.86 456.01 1170.63 598.60 1113.94 679.81 1288.56 680.33
00033002 00000088 992.63 244.19 453.21 612.52 1081.85 451.22 1290.59 454.32 1162.12 596.39 1108.37 679.34 1282.58 679.13
00033003 DELETE   993.40 246.78 448.47 610.87 1074.42 447.76 1280.80 452.49 1146.87 591.94 1096.80 675.77 1273.09 677.17
00033004 DELETE   984.74 246.57 452.04 607.11 1062.61 439.08 1267.94 440.47 1128.85 582.46 1085.28 677.55 1264.42 676.46
00033005 00000091 980.08 236.23 447.87 617.41 1051.22 432.60 1252.83 436.75 1106.99 581.41 1073.64 677.98 1249.92 678.70
00033006 00000092 972.33 235.37 451.22 618.41 1041.75 428.62 1243.16 434.44 1094.76 581.26 1066.04 676.58 1240.54 678.81
00033007 00000093 970.48 235.09 448.29 614.38 1037.73 428.99 1238.05 434.35 1090.53 580.01 1061.44 674.90 1235.18 677.10
00033008 00000094 968.46 229.96 446.45 613.74 1034.99 427.77 1236.91 433.21 1090.79 577.71 1060.16 672.16 1233.35 674.64
00033009 00000095 965.88 222.01 446.98 617.48 1033.03 424.78 1236.76 430.30 1090.99 573.99 1059.57 668.63 1235.06 671.05
00033010 00000096 961.97 207.11 443.93 634.80 1031.46 421.32 1234.31 425.80 1091.21 569.87 1058.27 666.72 1231.12 668.70
00033011 00000097 958.69 200.48 445.01 662.80 1033.58 421.63 1229.87 430.85 1094.45 570.81 1063.42 669.55 1223.31 675.24
00033012 00000098 955.43 202.82 444.09 666.43 1032.27 422.50 1228.08 428.50 1096.65 570.00 1066.86 674.86 1221.26 678.24
00033013 00000099 951.31 197.13 444.38 673.11 1030.40 422.84 1227.27 428.17 1097.56 570.29 1066.60 677.25 1219.35 680.19
00033014 00000100 947.23 193.64 446.17 677.17 1027.78 424.86 1225.01 429.40 1096.31 573.21 1064.79 679.92 1217.24 682.32
00033015 00000101 942.30 193.06 450.45 666.73 1022.97 435.08 1212.64 431.04 1085.39 578.15 1060.34 686.83 1209.15 683.34
00033016 00000102 930.60 209.08 460.19 650.68 1006.30 443.94 1202.75 438.36 1070.04 590.86 1046.23 695.25 1196.66 690.93
00033017 DELETE   919.04 226.99 467.55 644.37 993.06 452.19 1184.11 446.77 1049.76 600.93 1031.90 705.21 1178.62 701.00
00033018 DELETE   910.72 261.26 471.07 620.20 973.88 456.85 1167.71 457.81 1027.02 612.97 1016.74 713.11 1162.15 712.81
00033019 DELETE   904.14 251.70 466.20 638.96 963.31 464.75 1149.99 470.97 1008.40 634.69 1007.87 719.86 1152.16 724.75
00033020 00000106 899.33 276.46 459.61 612.69 958.35 466.51 1142.15 477.96 998.54 643.38 1001.20 723.68 1142.63 733.08
00033021 00000107 893.83 278.16 464.80 614.08 952.37 470.03 1138.06 481.29 995.28 645.97 995.16 726.35 1139.33 735.78
00033022 00000108 889.96 273.94 466.34 619.11 951.70 470.55 1137.50 479.28 996.73 642.96 993.55 725.46 1139.54 732.74
00033023 00000109 890.39 259.74 462.07 631.21 953.36 469.69 1136.37 475.02 999.09 636.07 993.38 720.90 1139.14 725.56
00033024 00000110 893.11 255.02 459.82 632.52 954.57 464.97 1138.30 467.59 997.94 623.91 991.53 715.59 1140.70 718.17
00033025 00000111 897.93 262.94 461.43 615.75 956.42 457.32 1142.25 457.48 1003.41 610.15 993.55 708.51 1141.52 708.87
00033026 00000112 904.57 263.97 458.22 604.93 962.80 448.79 1147.97 448.73 1011.28 599.64 1001.72 698.21 1146.45 697.91
CROP_BBOX: 689 0 1669 1033
