Video ID: 	ODMEe76Duw8
H: 	1080
W: 	1920
FPS: 	29.97002997002997

FRAME INDEX X0 Y0 W H [Landmarks (5 Points)]

00000875 00000000 1040.03 155.20 394.10 555.71 1074.79 386.87 1222.36 356.89 1101.82 462.16 1109.99 582.69 1223.77 561.56
00000876 00000001 1040.75 150.23 393.43 554.18 1079.39 386.95 1225.75 355.09 1106.57 458.73 1114.45 580.59 1222.98 557.62
00000877 00000002 1047.21 136.91 395.07 566.17 1090.23 380.62 1232.96 354.52 1116.10 451.17 1117.53 572.37 1222.80 550.66
00000878 00000003 1052.28 145.28 396.25 556.57 1094.47 376.76 1242.23 348.70 1123.91 448.04 1122.47 570.00 1231.41 546.88
00000879 DELETE   1057.35 148.63 394.75 558.75 1100.91 372.97 1258.32 343.03 1138.52 444.92 1131.44 575.65 1244.36 550.97
00000880 00000005 1062.86 149.17 392.37 562.36 1115.01 367.62 1272.17 338.54 1158.65 440.62 1155.76 579.51 1257.69 555.16
00000881 00000006 1065.15 161.75 390.88 553.67 1126.90 367.11 1278.34 339.53 1180.10 435.95 1167.95 576.01 1274.08 555.03
00000882 00000007 1070.00 165.04 388.39 543.68 1137.03 364.16 1290.87 338.77 1200.10 433.81 1180.24 570.69 1290.50 551.63
00000883 00000008 1075.04 155.15 393.33 547.59 1146.13 363.19 1304.89 338.78 1215.49 432.28 1188.76 561.84 1308.26 543.36
00000884 00000009 1079.59 151.54 396.16 551.43 1155.60 365.93 1320.71 329.07 1235.42 429.56 1204.68 565.86 1331.98 536.61
00000885 DELETE   1085.46 159.41 395.24 542.70 1171.24 364.15 1333.98 328.71 1258.01 425.59 1221.07 564.62 1343.87 536.72
00000886 DELETE   1090.31 155.05 395.04 542.84 1180.01 367.98 1344.44 327.92 1278.03 430.87 1235.93 565.68 1363.86 532.51
00000887 00000012 1098.45 157.64 395.71 536.33 1189.32 370.43 1353.92 328.68 1291.90 431.26 1247.94 564.11 1379.67 528.88
00000888 00000013 1102.38 158.08 397.92 537.39 1196.12 375.52 1360.43 332.01 1299.57 436.83 1256.79 568.52 1387.69 531.40
00000889 00000014 1107.03 159.73 399.33 542.38 1197.52 380.88 1362.42 341.74 1294.27 448.89 1255.75 574.52 1387.56 540.86
00000890 00000015 1112.69 165.55 400.75 549.81 1199.01 376.64 1368.57 351.46 1290.88 452.48 1249.18 576.38 1376.97 556.47
00000891 00000016 1118.44 168.07 396.99 550.42 1195.38 380.54 1365.96 355.86 1282.24 463.18 1247.20 588.12 1371.42 568.66
00000892 00000017 1121.89 175.69 398.10 545.94 1197.19 386.65 1368.55 362.36 1281.84 469.38 1251.04 593.62 1371.83 574.59
00000893 00000018 1126.95 179.74 399.28 550.36 1205.74 387.62 1377.33 367.54 1290.07 478.21 1261.05 599.50 1380.08 583.66
00000894 00000019 1136.98 178.79 396.77 558.79 1218.43 390.35 1384.69 369.00 1303.26 481.85 1274.71 603.89 1393.21 586.69
00000895 00000020 1146.23 179.81 396.99 560.45 1230.13 394.86 1392.34 370.41 1315.24 481.26 1284.71 606.36 1401.69 587.21
00000896 00000021 1153.79 186.69 395.78 553.57 1238.55 399.43 1399.59 373.12 1322.12 485.01 1288.59 606.29 1409.93 585.91
00000897 00000022 1158.24 190.13 393.58 546.95 1242.06 401.78 1401.88 375.75 1323.02 484.44 1288.20 601.90 1413.23 581.87
00000898 00000023 1161.97 193.83 393.10 539.47 1242.52 403.20 1404.26 376.92 1320.94 479.51 1283.91 597.81 1412.63 577.74
00000899 00000024 1163.66 191.58 392.79 534.89 1241.12 403.66 1401.65 377.19 1314.63 476.53 1280.01 592.92 1409.66 572.56
00000900 00000025 1165.95 192.20 390.32 528.41 1239.44 402.16 1400.36 378.50 1306.14 474.13 1271.93 587.76 1403.18 569.99
00000901 00000026 1166.08 196.11 391.70 521.62 1237.33 400.15 1397.78 376.48 1299.96 470.23 1265.99 583.62 1397.04 566.09
00000902 00000027 1166.45 192.95 389.51 523.70 1235.59 396.90 1395.48 375.23 1295.03 466.65 1260.79 580.14 1392.42 564.41
00000903 00000028 1167.43 190.18 388.30 525.85 1232.87 395.27 1392.81 373.18 1288.92 462.64 1256.78 580.18 1387.94 564.01
00000904 00000029 1169.68 190.66 385.81 525.11 1233.19 392.45 1393.93 372.11 1285.60 460.15 1252.67 577.64 1384.61 563.17
00000905 00000030 1172.12 188.30 383.66 529.10 1234.37 393.46 1393.53 372.60 1285.06 460.87 1253.46 579.20 1385.06 564.44
00000906 00000031 1174.22 186.56 383.15 530.52 1235.52 394.19 1395.79 371.72 1286.03 460.11 1254.89 580.15 1388.59 563.94
00000907 00000032 1175.91 190.31 382.30 526.93 1238.84 395.64 1399.95 372.72 1291.51 462.27 1258.52 580.97 1392.44 564.61
00000908 00000033 1177.66 190.67 383.58 528.89 1242.52 397.99 1408.25 373.67 1299.68 462.20 1263.85 585.75 1401.40 567.87
00000909 00000034 1181.66 191.28 381.44 529.04 1249.91 400.46 1414.76 377.89 1310.80 463.17 1272.97 585.50 1410.11 568.87
00000910 00000035 1186.17 194.98 380.18 525.47 1256.38 396.51 1420.97 377.04 1322.93 461.49 1289.87 589.41 1412.85 574.38
00000911 00000036 1187.78 196.96 381.52 526.07 1259.37 398.58 1423.85 378.50 1325.33 462.88 1294.69 593.79 1416.02 578.01
00000912 00000037 1191.16 197.81 381.45 529.00 1261.84 401.23 1424.52 380.47 1324.23 464.55 1295.12 596.47 1415.84 580.03
00000913 00000038 1192.39 199.63 381.44 529.86 1263.32 402.62 1425.96 382.65 1323.59 464.08 1293.67 597.35 1414.27 581.43
00000914 00000039 1192.18 200.62 381.87 534.11 1264.86 403.55 1427.26 383.92 1325.02 464.76 1294.41 599.88 1413.60 584.02
00000915 00000040 1193.25 200.87 381.46 537.75 1267.18 402.15 1429.35 384.17 1325.46 466.74 1298.11 600.09 1416.07 585.41
00000916 00000041 1193.62 197.55 381.66 541.53 1269.36 400.48 1432.08 384.18 1329.28 466.66 1299.82 599.51 1417.51 586.21
00000917 00000042 1186.94 194.07 386.55 545.42 1265.60 400.71 1431.04 383.02 1331.62 465.94 1299.37 600.10 1418.01 585.76
00000918 00000043 1183.25 194.99 380.61 536.65 1259.61 400.35 1424.40 382.97 1326.13 471.32 1281.74 593.08 1412.40 581.21
00000919 00000044 1175.10 194.96 381.01 529.67 1249.70 398.76 1411.92 380.34 1313.76 470.37 1271.11 591.00 1396.57 578.77
00000920 00000045 1172.52 193.19 377.71 531.83 1244.64 404.38 1404.16 384.62 1304.29 467.34 1265.88 591.46 1390.61 578.22
00000921 00000046 1169.92 198.64 374.24 526.80 1243.98 402.33 1404.85 386.54 1305.66 467.83 1263.51 589.88 1388.14 580.20
00000922 00000047 1167.16 197.76 377.07 531.37 1244.98 396.37 1412.16 383.11 1314.11 467.03 1265.30 592.87 1391.89 585.21
00000923 00000048 1161.28 197.40 381.81 537.72 1243.01 395.62 1412.19 384.54 1317.77 470.29 1265.60 599.48 1389.19 593.19
00000924 00000049 1157.37 192.65 381.89 546.03 1238.71 394.79 1409.61 386.30 1311.43 474.05 1260.34 597.57 1391.53 593.07
00000925 00000050 1151.40 191.57 381.74 546.59 1233.17 394.48 1405.30 390.22 1304.73 478.79 1251.43 594.82 1383.99 593.93
00000926 00000051 1143.53 186.62 383.08 549.53 1225.58 393.02 1400.25 392.07 1296.46 474.48 1241.95 592.67 1378.07 594.06
00000927 00000052 1137.87 185.53 383.13 548.65 1218.44 390.84 1390.34 392.95 1284.79 472.98 1229.05 588.83 1363.71 592.75
00000928 00000053 1132.59 180.75 379.18 561.33 1206.45 391.57 1373.60 390.39 1257.89 471.10 1218.86 597.02 1345.68 596.24
00000929 00000054 1126.51 183.56 375.59 565.42 1196.74 385.41 1366.04 381.31 1249.96 464.85 1212.68 600.39 1341.38 597.54
00000930 00000055 1116.28 197.99 375.61 561.53 1186.66 390.06 1360.47 371.50 1241.74 459.90 1196.42 595.30 1335.94 582.68
00000931 00000056 1110.41 187.11 376.12 572.94 1176.65 382.32 1349.29 369.63 1229.92 460.73 1186.30 592.53 1335.34 584.03
00000932 00000057 1101.11 177.09 377.67 583.91 1165.73 383.72 1333.49 370.50 1215.12 463.01 1177.37 594.92 1322.13 585.91
00000933 00000058 1087.79 180.09 376.34 581.41 1156.81 387.27 1327.65 377.40 1211.24 460.69 1166.02 597.03 1308.95 591.38
00000934 00000059 1074.56 182.84 381.45 573.21 1146.11 388.30 1314.68 382.28 1200.59 463.80 1156.55 598.79 1291.21 596.04
00000935 00000060 1065.17 172.92 386.09 571.60 1137.95 386.99 1303.34 382.62 1192.46 464.48 1151.78 596.38 1278.62 595.02
00000936 00000061 1060.88 174.54 382.36 553.43 1132.72 384.59 1299.26 381.27 1189.79 463.89 1145.39 587.21 1273.96 586.13
00000937 00000062 1054.06 169.78 387.42 552.78 1121.33 385.32 1292.56 380.27 1174.13 467.98 1139.20 590.75 1264.16 588.09
00000938 00000063 1044.58 168.58 391.15 556.00 1113.10 385.40 1287.27 378.22 1171.38 466.67 1133.89 591.89 1260.51 587.46
00000939 00000064 1039.22 174.92 391.03 552.63 1108.82 385.59 1286.37 378.49 1173.14 469.85 1133.46 595.69 1261.81 590.86
00000940 00000065 1038.70 180.46 390.93 550.43 1107.99 387.44 1287.43 382.32 1171.98 474.45 1132.57 598.93 1262.37 595.40
00000941 00000066 1039.01 184.71 391.46 548.89 1109.41 393.74 1287.88 387.04 1174.92 480.33 1134.76 603.65 1265.45 598.65
00000942 00000067 1039.66 191.86 391.65 545.44 1110.77 402.23 1289.27 392.39 1178.93 485.57 1134.90 607.87 1267.70 600.50
00000943 00000068 1040.03 197.07 392.29 545.60 1112.93 408.38 1288.41 398.59 1180.14 490.31 1137.09 610.06 1267.15 602.47
00000944 00000069 1042.96 196.13 391.94 550.28 1115.92 415.58 1288.49 404.15 1180.91 495.47 1140.28 616.42 1267.44 607.43
00000945 00000070 1043.86 195.95 390.15 552.77 1116.18 418.86 1286.63 407.63 1178.86 499.59 1139.63 618.99 1266.14 610.49
00000946 00000071 1053.22 201.31 381.59 546.65 1116.08 418.51 1289.78 413.26 1173.19 497.23 1132.24 613.93 1262.25 609.38
00000947 00000072 1051.21 194.56 387.24 555.80 1124.83 426.03 1289.20 414.51 1183.40 502.79 1147.17 620.09 1271.32 611.22
00000948 00000073 1054.64 193.37 386.80 558.38 1124.40 424.80 1296.95 417.64 1187.37 502.43 1143.89 616.88 1283.87 611.09
00000949 00000074 1056.25 198.08 386.04 558.84 1126.74 428.95 1299.42 420.43 1191.38 504.63 1146.52 620.54 1287.96 613.81
00000950 00000075 1055.66 200.43 387.65 562.65 1126.34 427.95 1301.40 419.04 1191.00 507.51 1146.20 622.37 1290.41 615.55
00000951 00000076 1056.05 198.88 391.97 569.14 1127.32 426.26 1302.35 416.27 1191.43 507.22 1147.87 623.04 1293.00 615.45
00000952 00000077 1057.75 197.38 391.90 573.29 1130.22 424.71 1303.99 416.01 1193.76 508.01 1149.43 622.99 1294.56 616.57
00000953 00000078 1060.22 196.89 392.45 576.76 1133.67 424.69 1305.47 414.71 1197.42 506.92 1154.36 623.11 1299.53 615.65
00000954 00000079 1065.65 209.98 386.65 566.47 1138.73 426.39 1307.10 417.51 1204.21 503.18 1160.09 618.41 1302.38 612.35
00000955 00000080 1068.83 211.77 385.63 566.49 1144.20 426.44 1310.32 417.58 1210.42 502.02 1167.17 618.30 1308.01 612.22
00000956 00000081 1076.38 215.31 383.67 564.30 1148.34 425.74 1312.39 419.05 1210.49 502.55 1170.64 615.44 1312.09 611.03
00000957 00000082 1081.49 215.50 383.82 561.27 1152.13 425.43 1316.38 416.36 1212.93 499.60 1175.14 613.74 1316.99 607.33
00000958 00000083 1087.35 216.93 380.56 554.85 1154.62 424.31 1320.75 413.99 1214.10 497.12 1175.50 610.99 1319.37 603.96
00000959 00000084 1089.09 215.31 382.19 551.74 1156.59 422.94 1324.19 411.37 1214.00 494.01 1175.17 607.33 1321.53 599.14
00000960 00000085 1090.87 221.74 380.18 538.50 1158.33 418.45 1326.26 408.16 1214.37 491.29 1173.55 601.54 1319.98 594.77
00000961 00000086 1093.37 205.85 382.01 549.31 1159.41 409.94 1331.19 401.65 1217.02 491.69 1173.28 600.54 1324.15 595.74
00000962 00000087 1094.92 207.10 380.80 541.33 1161.74 406.21 1334.06 398.16 1218.07 486.73 1172.98 597.07 1321.43 592.98
00000963 00000088 1099.97 206.96 379.32 537.20 1163.05 405.18 1335.31 396.44 1218.17 485.85 1173.96 595.33 1322.42 590.89
00000964 00000089 1103.94 200.71 378.66 538.27 1166.85 402.86 1336.48 395.34 1220.61 484.84 1177.98 590.27 1326.91 586.66
00000965 00000090 1107.34 200.13 378.07 535.08 1172.06 399.81 1342.04 393.57 1227.84 485.23 1181.52 588.19 1329.92 585.63
00000966 00000091 1108.81 200.46 379.49 529.13 1176.92 401.59 1349.66 395.57 1236.72 484.87 1186.86 589.61 1334.05 587.17
00000967 00000092 1107.87 200.47 379.08 529.17 1179.08 402.63 1354.85 398.33 1250.91 482.94 1191.48 596.84 1333.51 594.69
00000968 00000093 1114.68 195.82 377.42 530.28 1186.67 402.38 1360.62 400.69 1255.80 485.08 1197.80 597.32 1335.69 597.06
00000969 00000094 1121.37 189.50 376.26 535.53 1193.00 402.51 1365.35 404.66 1258.01 486.66 1201.33 596.48 1337.81 599.29
00000970 00000095 1123.85 194.83 373.80 529.99 1200.18 408.35 1370.04 411.02 1264.13 486.96 1204.69 596.33 1340.89 600.00
00000971 00000096 1125.48 193.93 373.37 531.04 1203.28 411.27 1371.70 413.03 1265.79 486.57 1207.31 596.08 1342.49 598.87
00000972 00000097 1125.11 191.46 374.43 534.58 1199.93 411.12 1370.89 411.51 1262.75 487.56 1205.18 598.19 1341.23 599.87
00000973 00000098 1117.60 189.66 375.81 536.57 1195.45 409.06 1372.93 415.36 1255.04 493.06 1198.67 592.29 1347.34 599.98
00000974 00000099 1112.09 199.45 376.84 532.68 1186.30 414.89 1363.56 417.08 1245.60 497.14 1190.84 596.83 1338.44 601.31
00000975 00000100 1107.28 211.22 381.29 533.67 1176.93 425.24 1354.56 416.68 1237.82 499.90 1187.39 612.07 1337.95 605.99
00000976 00000101 1106.40 214.74 378.33 536.23 1170.50 430.34 1345.37 423.11 1225.57 504.98 1179.18 614.90 1331.29 609.97
00000977 00000102 1101.39 221.84 379.70 537.71 1163.76 432.12 1334.25 427.14 1213.24 508.06 1170.50 616.21 1318.17 613.52
00000978 00000103 1098.43 224.44 378.27 536.52 1158.62 435.38 1325.94 430.15 1206.58 513.48 1165.35 618.40 1309.09 616.08
00000979 00000104 1094.25 229.32 380.60 533.95 1153.66 437.69 1320.04 431.84 1199.73 513.83 1160.56 619.81 1303.93 616.99
00000980 00000105 1090.38 230.59 381.52 529.70 1148.61 436.94 1314.47 434.39 1195.27 515.95 1155.87 617.93 1296.85 617.69
00000981 00000106 1088.27 232.23 380.28 527.16 1146.24 436.32 1309.93 434.51 1193.38 516.14 1154.17 618.42 1291.84 618.66
00000982 00000107 1087.52 228.13 378.55 529.46 1143.33 433.53 1307.55 432.71 1191.04 516.30 1151.75 616.92 1287.42 618.01
00000983 00000108 1086.14 224.33 378.92 534.11 1141.45 431.33 1307.35 430.77 1189.94 514.81 1149.80 616.71 1285.88 618.05
00000984 00000109 1085.56 224.32 378.24 532.04 1140.53 431.12 1306.56 430.17 1190.12 515.03 1149.70 616.25 1285.17 617.17
00000985 00000110 1084.71 222.13 377.55 533.58 1139.67 430.79 1306.30 429.78 1190.16 514.98 1148.89 615.97 1284.32 616.78
00000986 00000111 1084.25 221.47 376.86 534.10 1139.47 430.72 1305.91 429.01 1191.37 514.83 1149.34 615.86 1284.79 616.17
00000987 00000112 1083.82 223.06 376.24 532.11 1139.30 430.85 1305.72 428.51 1192.02 513.94 1149.79 615.78 1285.04 615.65
00000988 00000113 1083.19 221.75 376.72 535.02 1139.36 430.03 1305.91 427.92 1192.91 513.98 1149.41 616.02 1284.44 616.24
00000989 00000114 1082.63 222.38 375.74 536.21 1139.45 429.83 1304.97 428.15 1193.24 514.69 1149.96 616.40 1284.21 616.85
00000990 00000115 1082.35 222.78 375.08 537.23 1141.59 429.65 1305.94 428.80 1197.33 515.29 1153.00 616.92 1283.79 618.00
00000991 00000116 1080.71 218.84 375.95 538.55 1142.32 428.53 1307.14 426.55 1202.41 515.31 1158.06 620.17 1283.99 620.02
00000992 00000117 1077.17 215.43 378.59 539.93 1142.60 427.72 1307.43 423.30 1206.63 513.57 1162.82 621.24 1283.93 618.96
00000993 00000118 1075.39 214.61 380.76 536.89 1141.58 426.04 1307.16 418.71 1208.09 511.88 1165.27 621.30 1283.53 616.53
00000994 00000119 1075.53 212.70 381.60 539.73 1142.78 426.01 1309.31 416.43 1208.23 506.61 1166.00 619.38 1283.86 613.10
00000995 00000120 1074.50 200.55 379.15 554.74 1149.28 431.00 1311.31 424.40 1208.58 505.59 1165.83 621.85 1287.95 619.13
00000996 00000121 1078.92 215.07 379.62 548.56 1150.67 427.95 1313.46 419.17 1212.58 499.54 1171.05 622.65 1287.56 617.60
00000997 00000122 1079.85 215.58 381.55 555.99 1152.40 423.95 1315.63 418.83 1211.86 497.87 1170.69 618.94 1293.03 617.05
00000998 00000123 1081.17 216.95 379.51 560.20 1153.10 418.84 1318.91 415.30 1212.72 496.05 1171.09 616.61 1299.72 615.98
00000999 00000124 1083.14 219.56 377.63 557.60 1155.87 414.31 1321.90 411.59 1215.23 494.71 1173.30 613.24 1303.65 613.25
00001000 00000125 1085.48 216.22 378.07 557.84 1159.98 409.42 1325.58 406.12 1220.81 493.19 1177.54 610.04 1306.07 609.54
00001001 00000126 1088.19 211.02 376.50 560.93 1161.56 406.19 1326.90 401.11 1223.03 490.60 1180.53 609.87 1307.46 608.24
00001002 00000127 1089.33 207.26 377.02 560.92 1165.46 404.25 1332.11 399.43 1229.72 492.07 1184.60 608.71 1312.02 607.09
00001003 00000128 1089.46 192.81 375.43 570.34 1169.37 403.18 1334.85 397.46 1236.31 496.82 1186.10 611.48 1321.05 608.77
00001004 00000129 1089.42 189.07 378.45 573.79 1172.68 403.52 1342.95 394.20 1247.71 494.42 1193.07 614.58 1329.26 608.69
00001005 00000130 1090.22 194.16 379.73 567.90 1179.81 401.50 1353.25 393.20 1261.42 491.33 1200.97 611.87 1339.92 606.44
00001006 00000131 1095.31 189.09 379.26 567.44 1187.38 397.22 1359.59 391.50 1272.46 487.29 1211.63 605.00 1351.92 601.09
00001007 00000132 1094.16 188.69 382.34 553.39 1190.25 399.12 1363.31 393.10 1279.72 486.80 1215.26 598.95 1355.38 595.16
00001008 00000133 1096.34 185.24 379.95 551.02 1190.44 398.34 1364.53 391.48 1280.60 484.78 1217.45 598.29 1356.40 594.02
00001009 00000134 1094.77 184.94 379.43 551.41 1188.56 397.12 1361.55 389.29 1279.41 485.32 1215.86 600.21 1350.59 595.27
00001010 00000135 1091.90 185.76 381.55 551.11 1186.14 396.43 1357.74 387.70 1275.97 485.76 1215.51 600.93 1347.17 595.10
00001011 00000136 1091.38 189.74 380.72 549.13 1182.87 396.14 1355.12 386.10 1270.26 486.87 1211.13 601.00 1344.64 594.19
00001012 00000137 1089.35 189.90 381.24 546.10 1180.15 394.19 1354.25 384.05 1267.99 486.50 1209.53 600.64 1343.47 593.65
00001013 00000138 1089.00 188.87 382.58 546.83 1178.27 393.29 1353.17 384.74 1263.34 485.57 1203.80 598.69 1340.36 593.18
00001014 00000139 1088.64 187.69 382.95 547.37 1177.85 393.36 1353.22 384.54 1262.99 486.43 1204.47 598.91 1341.47 593.05
00001015 00000140 1088.15 186.99 383.31 547.63 1177.96 392.45 1353.49 382.96 1264.46 485.62 1205.53 599.18 1341.26 592.71
00001016 00000141 1088.60 184.26 383.06 550.11 1179.62 391.72 1354.07 382.63 1266.37 484.89 1206.62 598.54 1341.75 592.49
00001017 00000142 1088.81 181.98 383.84 552.56 1179.38 390.75 1354.73 380.54 1267.20 482.79 1206.65 597.70 1343.65 590.74
00001018 00000143 1087.50 182.91 384.49 553.17 1178.65 389.71 1351.64 380.61 1265.31 484.62 1204.51 597.47 1340.01 591.48
00001019 00000144 1087.35 181.40 384.18 556.36 1176.92 391.58 1348.82 382.04 1261.94 485.55 1203.76 598.78 1338.80 592.16
00001020 00000145 1086.79 182.92 382.87 555.85 1175.42 392.96 1345.79 383.25 1259.04 486.99 1203.03 599.71 1336.46 592.89
00001021 00000146 1085.57 183.79 384.01 556.48 1175.29 393.97 1344.64 383.28 1259.17 488.15 1205.23 601.49 1336.47 593.71
00001022 00000147 1087.15 181.88 383.67 560.14 1178.05 391.44 1346.40 381.33 1261.09 487.64 1206.63 600.71 1336.87 593.40
00001023 00000148 1087.39 180.48 385.44 564.14 1179.62 390.19 1349.08 379.90 1263.93 486.12 1208.52 600.67 1341.08 593.06
00001024 00000149 1087.67 179.33 385.11 567.57 1179.38 389.55 1349.14 378.22 1263.19 485.25 1208.59 602.48 1340.63 594.01
00001025 00000150 1088.26 178.61 382.86 568.82 1178.09 389.19 1347.23 377.33 1261.84 485.80 1207.69 603.78 1337.97 594.97
00001026 00000151 1088.09 179.58 382.39 566.73 1175.61 390.85 1344.75 378.56 1257.58 486.13 1205.52 604.39 1336.05 595.32
00001027 00000152 1086.96 179.48 383.08 567.04 1174.73 391.17 1344.32 378.42 1257.70 485.33 1206.57 606.19 1335.91 596.67
00001028 00000153 1087.38 177.69 383.43 560.58 1178.30 391.37 1347.77 380.48 1264.31 486.02 1209.77 603.06 1338.33 595.20
00001029 00000154 1089.18 177.18 384.68 560.19 1180.93 390.86 1353.36 380.38 1268.27 487.00 1211.49 603.10 1341.56 595.60
00001030 00000155 1089.21 179.51 384.96 559.00 1182.10 390.84 1356.15 381.44 1271.06 487.31 1211.92 602.32 1344.01 595.72
00001031 00000156 1088.80 182.11 383.84 558.95 1181.91 395.51 1353.89 386.28 1271.42 493.23 1215.54 606.71 1343.92 600.04
00001032 00000157 1088.79 183.71 381.57 563.91 1181.53 399.20 1352.61 390.61 1269.91 498.82 1213.34 611.24 1341.24 605.16
00001033 00000158 1089.25 185.84 380.15 569.01 1183.07 403.03 1350.07 394.73 1269.91 501.39 1215.17 616.32 1338.90 610.38
00001034 00000159 1089.98 185.25 380.49 576.87 1184.22 401.12 1351.90 395.52 1267.87 500.53 1209.62 615.72 1338.97 612.02
00001035 00000160 1090.58 186.03 379.16 573.12 1184.26 398.08 1352.93 392.73 1266.83 498.63 1207.88 611.63 1340.85 608.16
00001036 00000161 1087.29 179.65 385.59 570.49 1180.72 396.69 1350.81 390.88 1263.75 495.53 1202.91 601.59 1344.22 597.57
00001037 00000162 1084.10 174.73 389.16 568.71 1176.21 394.18 1348.07 385.16 1261.27 489.07 1201.02 596.82 1345.37 590.21
