Video ID: 	7s8suGyf3sU
H: 	1080
W: 	1920
FPS: 	23.976023976023978

FRAME INDEX X0 Y0 W H [Landmarks (5 Points)]

00011318 00000000 733.09 132.07 382.29 560.50 869.91 383.42 1039.09 373.05 977.22 484.67 876.74 555.75 1026.00 547.62
00011319 00000001 730.84 124.95 386.54 564.35 869.05 370.38 1036.85 369.86 977.65 482.92 878.19 547.91 1028.59 547.57
00011320 00000002 736.33 129.15 381.36 565.65 874.02 384.76 1041.43 374.41 981.43 486.13 879.74 556.55 1028.77 548.47
00011321 DELETE   739.06 133.34 378.93 564.53 877.75 391.77 1044.07 382.34 983.82 490.57 879.87 557.17 1031.22 549.70
00011322 00000004 735.85 133.59 384.69 562.23 873.88 384.24 1041.20 384.96 980.74 492.13 879.14 550.05 1036.17 551.22
00011323 00000005 735.12 133.60 386.90 565.39 875.58 384.94 1042.16 384.44 983.22 495.70 880.10 551.37 1037.48 551.38
00011324 00000006 735.49 137.05 386.58 562.84 876.19 385.97 1042.07 384.23 983.44 500.69 880.73 553.89 1036.54 552.92
00011325 00000007 739.63 139.25 382.47 567.36 880.38 396.58 1043.84 387.81 984.73 502.76 879.35 560.41 1032.29 553.71
00011326 00000008 739.77 139.71 382.63 566.71 879.59 395.71 1043.46 386.80 984.47 503.96 879.60 560.11 1032.93 553.38
00011327 00000009 739.82 140.25 382.62 566.16 880.51 395.34 1043.45 387.39 984.46 504.25 880.25 560.47 1031.87 554.53
00011328 00000010 740.20 141.25 382.16 565.29 881.52 395.20 1043.57 387.73 985.16 504.61 881.09 560.28 1031.77 554.72
00011329 00000011 741.92 135.86 381.50 567.71 879.85 391.59 1048.26 388.16 983.79 498.63 885.33 553.03 1035.11 552.56
00011330 00000012 742.30 134.34 382.09 569.50 880.73 392.39 1048.63 388.97 984.38 499.24 885.93 553.55 1035.03 553.13
00011331 00000013 742.96 133.29 382.46 569.88 881.35 392.85 1049.40 389.88 984.72 499.93 886.43 554.36 1035.39 554.24
00011332 00000014 744.01 135.29 382.00 568.19 881.54 394.05 1049.85 392.12 984.07 501.77 885.62 554.96 1034.86 555.66
00011333 00000015 745.29 132.25 381.74 571.79 880.86 396.05 1048.75 394.28 982.11 502.53 883.50 555.43 1033.61 556.13
00011334 00000016 744.06 136.54 383.14 569.19 878.79 395.30 1046.24 396.08 977.76 504.77 878.90 554.19 1028.88 557.07
00011335 00000017 741.46 137.92 385.92 568.02 872.50 390.57 1041.93 397.05 968.02 503.77 868.51 554.07 1019.15 561.94
00011336 00000018 737.59 135.82 390.88 573.90 863.93 384.04 1038.13 398.08 954.28 505.11 856.02 553.42 1008.04 567.67
00011337 00000019 737.53 139.71 390.46 567.17 860.49 383.13 1034.13 401.35 945.81 506.92 848.58 553.31 999.17 570.83
00011338 00000020 738.64 140.52 389.20 566.68 859.50 383.11 1032.62 402.15 943.38 508.48 847.12 553.72 997.45 571.85
00011339 00000021 739.70 143.63 391.00 564.35 862.47 386.32 1036.58 402.85 948.45 507.88 851.41 553.99 1003.62 570.33
00011340 DELETE   745.46 146.45 387.74 561.63 870.62 394.30 1041.11 402.49 960.26 513.16 861.38 554.66 1015.23 564.52
00011341 DELETE   749.76 161.10 385.51 544.31 880.05 398.51 1050.64 402.36 974.49 518.07 874.69 556.90 1029.91 562.78
00011342 DELETE   755.21 161.27 382.31 539.24 888.08 401.96 1058.01 399.92 987.57 520.29 886.20 556.54 1043.41 557.44
00011343 00000025 758.07 158.22 379.59 536.15 893.61 403.44 1064.38 399.15 996.72 519.11 892.33 556.05 1048.18 554.98
00011344 00000026 757.59 159.00 380.16 533.72 893.63 402.56 1065.57 398.06 997.52 518.75 892.02 555.83 1048.49 554.72
00011345 DELETE   756.52 157.74 381.43 537.32 890.33 401.38 1060.96 398.33 991.88 519.37 887.49 554.22 1046.00 554.53
00011346 00000028 753.72 155.26 384.39 541.01 886.29 400.58 1056.92 400.76 983.80 519.58 882.69 554.44 1039.75 557.49
00011347 00000029 751.28 155.02 385.76 545.11 883.88 399.59 1055.23 402.10 980.53 520.77 878.22 553.98 1037.12 558.96
00011348 00000030 751.14 155.48 385.83 546.02 884.70 400.20 1055.59 402.77 981.84 521.68 878.57 554.19 1037.88 559.26
00011349 00000031 751.71 152.79 384.86 545.73 885.99 401.45 1057.12 402.23 984.34 520.84 881.23 554.81 1039.99 558.37
00011350 00000032 752.01 151.34 384.39 545.24 886.29 401.62 1057.56 401.74 984.98 520.62 881.95 555.00 1040.40 557.97
00011351 00000033 751.91 149.24 384.63 545.40 885.77 401.67 1057.52 401.75 984.32 520.07 881.60 555.17 1039.96 558.05
00011352 00000034 751.48 149.00 384.72 545.46 885.15 402.08 1056.84 402.65 983.12 519.62 880.86 555.35 1038.57 558.59
00011353 00000035 751.74 147.77 384.11 547.56 885.00 402.44 1056.77 403.24 982.98 519.17 880.30 555.33 1038.94 558.68
00011354 00000036 751.43 147.55 385.05 550.25 884.87 401.96 1056.59 403.76 982.33 519.58 879.05 555.39 1038.10 559.62
00011355 00000037 751.41 145.07 385.40 552.65 884.72 402.12 1056.17 403.63 982.21 518.52 879.07 555.25 1038.50 559.20
00011356 00000038 751.43 144.00 385.57 554.57 884.95 402.17 1056.08 403.46 982.38 518.29 879.56 555.52 1038.83 559.19
00011357 00000039 751.59 142.17 385.56 556.43 884.79 402.11 1055.78 403.02 982.47 517.91 879.82 555.63 1039.19 558.93
00011358 00000040 752.12 144.78 385.50 553.81 884.82 402.51 1056.01 403.17 982.54 518.67 880.23 556.26 1039.29 559.35
00011359 00000041 752.91 144.16 384.88 554.72 884.76 402.50 1056.27 402.81 982.59 518.38 880.62 556.91 1039.43 559.72
00011360 00000042 753.41 146.01 384.60 555.32 884.92 402.40 1056.37 403.16 983.05 519.19 881.24 557.48 1040.12 560.62
00011361 00000043 753.04 148.68 385.48 555.14 885.03 402.38 1056.43 403.73 983.23 519.73 881.70 558.51 1039.50 562.19
00011362 00000044 752.66 145.57 386.92 563.75 884.98 401.99 1055.75 404.17 982.77 519.48 881.49 558.97 1039.86 563.20
00011363 00000045 752.53 144.75 386.98 566.56 884.66 401.91 1055.57 404.29 982.47 518.96 881.20 559.64 1039.77 563.86
00011364 00000046 751.96 144.02 388.29 571.04 884.07 401.56 1054.66 404.74 981.66 519.02 881.29 561.34 1038.56 566.06
00011365 00000047 751.37 143.65 389.20 574.74 883.94 402.12 1053.19 405.79 980.77 519.02 882.10 563.83 1036.20 568.83
00011366 00000048 751.29 144.34 389.25 573.69 883.64 401.68 1052.99 405.64 980.23 518.31 881.69 563.58 1035.90 568.82
00011367 00000049 751.32 142.89 389.28 575.41 883.26 401.93 1053.06 405.49 980.09 518.08 881.22 563.09 1036.88 567.95
00011368 00000050 751.18 143.59 389.34 573.94 883.25 401.90 1053.24 405.42 980.12 518.13 881.21 562.81 1036.81 567.65
00011369 00000051 751.26 143.12 389.27 573.64 883.42 401.89 1053.03 405.59 979.87 517.73 881.23 562.52 1036.12 567.52
00011370 00000052 751.48 143.70 388.97 573.14 883.55 402.55 1053.40 406.94 979.86 518.64 880.51 562.28 1036.52 567.89
00011371 00000053 752.21 141.98 389.03 574.51 883.73 404.75 1054.29 409.51 980.16 518.83 881.35 563.11 1037.68 568.72
00011372 00000054 751.79 143.19 389.21 572.99 883.69 404.25 1054.50 409.24 980.41 519.09 881.33 563.00 1037.60 568.87
00011373 00000055 752.27 142.02 388.72 573.07 884.40 403.35 1054.65 408.02 981.16 518.39 881.28 561.67 1037.92 567.38
00011374 00000056 752.34 142.47 388.90 573.62 885.15 402.65 1055.56 407.40 982.39 518.10 881.52 561.76 1038.56 567.56
00011375 00000057 752.09 141.55 389.52 578.79 885.01 402.95 1055.92 408.44 982.25 517.59 880.85 563.22 1038.73 569.42
00011376 00000058 748.61 144.98 394.02 579.78 891.90 399.49 1054.84 412.05 988.24 519.31 883.62 571.54 1033.68 582.98
00011377 00000059 751.83 139.03 390.83 586.47 885.56 403.62 1056.57 409.66 982.71 517.83 880.78 565.60 1038.56 572.14
00011378 00000060 753.80 141.79 388.63 572.01 886.08 404.10 1058.02 409.83 983.03 516.55 883.64 565.56 1035.80 572.01
00011379 00000061 755.58 140.74 387.20 567.62 887.50 404.19 1058.14 408.99 983.71 516.30 887.25 567.66 1032.22 573.51
00011380 00000062 755.83 140.67 386.94 568.81 888.09 403.87 1057.54 408.16 984.94 516.18 889.45 570.97 1030.47 576.60
00011381 00000063 756.32 134.56 385.99 573.96 887.50 403.03 1057.08 405.33 985.30 514.79 890.92 573.34 1029.52 577.57
00011382 DELETE   756.61 125.72 386.22 577.77 890.34 399.48 1055.79 406.92 983.77 504.07 890.00 564.12 1026.94 572.28
00011383 DELETE   753.29 121.92 391.59 576.13 887.57 381.20 1059.91 390.93 986.29 489.97 890.15 557.28 1030.92 567.58
00011384 DELETE   753.79 106.74 390.75 582.34 883.40 366.05 1058.31 381.01 981.31 479.02 884.61 547.47 1030.46 561.71
00011385 00000067 751.14 108.50 391.10 578.19 879.78 363.30 1056.07 376.36 978.68 477.86 881.05 544.09 1031.57 556.88
00011386 00000068 748.95 105.71 391.67 585.27 878.27 364.01 1054.40 377.24 977.54 478.89 878.43 544.77 1030.68 557.65
00011387 00000069 747.89 101.04 393.40 591.68 879.17 360.72 1052.83 374.35 978.60 473.09 880.34 544.96 1027.61 558.00
00011388 00000070 747.00 98.69 393.77 589.65 879.56 357.57 1052.02 368.83 979.62 469.77 881.63 540.72 1029.47 551.67
00011389 00000071 745.60 100.74 393.77 574.02 879.35 355.05 1054.41 362.89 980.33 466.95 883.84 536.32 1033.51 544.54
00011390 00000072 744.51 98.30 393.61 570.16 879.94 352.71 1054.68 360.13 981.49 464.47 884.50 534.89 1033.25 542.66
00011391 00000073 745.12 97.19 393.96 574.96 880.81 352.09 1054.27 359.67 982.54 463.21 888.66 537.92 1031.80 545.89
00011392 00000074 745.57 99.85 393.28 576.51 880.45 355.11 1053.95 362.91 983.20 464.79 890.45 541.93 1031.23 550.06
00011393 00000075 745.49 98.36 393.28 581.46 879.76 355.61 1053.11 364.97 982.39 466.89 889.34 544.88 1029.39 554.25
00011394 00000076 745.40 102.28 394.03 576.57 879.11 356.11 1052.36 365.51 980.80 467.13 888.72 544.40 1029.00 553.87
00011395 00000077 746.79 99.97 394.45 579.53 879.36 355.95 1052.77 366.31 979.49 466.72 887.22 543.52 1027.91 553.77
00011396 00000078 747.60 98.55 395.36 586.51 881.11 355.44 1052.79 367.50 979.36 466.93 885.45 542.78 1025.64 554.59
00011397 00000079 748.34 100.52 394.98 582.54 881.61 356.24 1053.41 367.19 980.31 467.34 886.29 540.95 1028.53 551.67
00011398 00000080 748.68 101.00 395.17 580.42 881.85 355.88 1054.52 366.81 980.73 467.80 886.57 540.50 1029.61 551.16
00011399 00000081 748.66 95.99 395.06 583.71 881.60 355.59 1055.40 366.30 981.06 467.15 886.30 539.54 1031.57 549.73
00011400 00000082 748.48 97.59 395.58 581.17 881.55 354.99 1055.89 365.22 981.23 467.06 886.57 539.01 1032.41 548.86
00011401 00000083 748.63 97.45 395.07 578.86 881.96 354.85 1056.47 364.48 982.03 467.49 887.58 538.72 1033.47 548.04
00011402 00000084 748.43 101.09 395.23 574.72 881.70 355.56 1056.34 364.58 982.00 468.43 887.70 538.69 1034.29 547.57
00011403 00000085 748.29 103.74 395.33 572.17 881.90 356.11 1056.24 365.31 982.09 468.98 887.75 538.57 1034.26 547.73
00011404 00000086 748.15 105.30 395.60 570.89 882.25 355.93 1056.39 365.09 982.43 469.38 887.85 538.55 1034.04 547.77
00011405 00000087 748.70 104.49 395.18 573.36 882.43 356.23 1055.95 365.67 982.19 469.44 887.38 538.56 1033.37 548.05
00011406 00000088 749.36 103.28 394.54 575.63 882.96 357.08 1055.64 366.53 982.13 469.53 887.11 538.69 1032.68 548.12
00011407 00000089 749.43 107.26 394.13 574.31 883.49 357.18 1054.81 367.69 982.01 470.47 886.93 539.28 1031.30 549.78
00011408 00000090 749.76 105.05 394.03 580.98 883.40 357.48 1053.78 368.91 981.09 470.70 885.58 539.93 1029.71 551.20
00011409 00000091 750.23 100.53 393.37 587.20 882.57 358.32 1053.67 369.85 980.64 470.63 884.31 540.55 1030.00 551.70
00011410 00000092 750.43 100.37 393.12 588.96 882.01 359.01 1053.54 371.17 979.89 471.20 883.49 540.94 1030.18 552.59
00011411 00000093 750.71 98.52 392.90 591.01 881.38 359.96 1053.99 372.25 979.85 471.79 883.16 541.59 1031.18 553.19
00011412 00000094 750.89 96.68 392.88 592.99 881.16 360.55 1054.04 372.73 979.89 472.21 883.35 542.10 1031.57 553.52
00011413 00000095 750.94 97.32 392.81 592.11 881.44 360.45 1054.23 372.79 980.15 472.50 883.38 541.95 1031.52 553.52
00011414 00000096 750.90 96.72 392.95 592.40 881.74 360.52 1054.76 372.71 980.82 472.21 883.69 541.72 1032.12 553.08
00011415 00000097 750.86 98.77 392.93 591.52 881.57 361.88 1053.72 372.87 981.44 472.28 884.73 542.12 1033.52 552.44
00011416 00000098 750.56 97.76 393.48 594.15 881.92 361.36 1054.55 373.09 981.87 472.06 883.49 541.70 1033.81 552.43
00011417 00000099 750.66 95.80 393.29 597.22 882.51 361.03 1054.60 373.53 982.14 471.94 883.09 541.96 1032.94 553.36
00011418 00000100 750.19 97.88 393.93 595.26 882.66 360.76 1055.13 373.23 982.52 472.16 883.01 541.94 1033.06 553.38
00011419 00000101 750.52 96.96 393.85 596.12 882.74 360.44 1055.39 373.22 982.59 471.78 883.38 542.06 1033.25 553.71
00011420 00000102 750.41 96.94 393.77 596.56 882.61 360.39 1055.33 372.87 983.00 471.66 883.97 542.48 1033.89 553.86
00011421 00000103 750.28 97.89 393.91 596.39 882.69 360.02 1055.16 373.08 982.82 471.47 883.39 542.65 1032.89 554.60
00011422 00000104 750.09 98.79 393.93 593.41 882.27 359.43 1055.41 371.85 982.48 471.55 882.90 541.80 1032.69 553.25
00011423 00000105 750.18 97.69 394.00 592.41 882.31 358.06 1055.32 369.43 982.46 471.27 883.97 541.51 1032.06 552.30
00011424 00000106 749.48 102.46 394.08 586.71 882.89 356.92 1054.41 367.92 982.88 471.46 885.53 541.57 1030.87 552.34
00011425 00000107 749.83 99.59 393.61 588.40 883.16 356.55 1055.46 368.40 983.70 470.14 887.23 543.46 1030.19 555.04
00011426 00000108 748.72 101.91 394.33 581.44 882.29 355.43 1057.14 367.26 984.28 470.45 888.14 544.66 1031.39 556.35
00011427 00000109 747.90 103.95 395.25 578.69 882.26 353.96 1057.02 365.75 983.86 470.69 887.33 543.53 1031.13 555.21
00011428 00000110 748.51 100.24 395.88 590.39 883.65 353.36 1054.56 367.63 982.23 471.34 885.76 543.91 1025.86 557.95
00011429 00000111 748.54 103.63 395.28 589.72 883.11 354.98 1053.88 367.93 982.60 472.46 883.77 542.74 1029.02 555.39
00011430 00000112 748.57 103.33 395.01 588.40 882.79 355.96 1054.23 368.22 982.81 471.87 884.52 543.11 1029.78 555.11
00011431 00000113 749.10 101.61 394.80 588.80 883.00 356.02 1054.41 367.66 983.06 471.31 886.45 543.38 1029.87 554.87
00011432 00000114 749.58 102.64 394.48 586.22 883.08 356.59 1054.80 368.11 983.38 470.83 887.91 544.03 1030.10 555.49
00011433 00000115 749.92 100.17 393.31 583.90 881.58 358.57 1056.09 368.98 983.68 469.57 889.85 544.98 1033.71 555.12
00011434 00000116 749.94 98.09 392.66 583.84 881.42 358.74 1057.38 369.34 984.49 470.25 889.58 545.80 1034.55 555.93
00011435 00000117 750.54 99.67 392.04 581.53 881.73 359.53 1057.33 370.27 984.44 470.66 889.45 544.87 1035.22 555.04
00011436 00000118 750.60 99.28 392.85 584.48 882.25 359.57 1057.44 370.28 984.55 471.51 888.55 544.37 1034.98 554.59
00011437 00000119 750.81 99.39 393.64 588.11 884.42 357.17 1055.57 368.57 984.58 470.68 888.21 543.26 1030.35 554.46
00011438 00000120 751.22 102.05 392.83 577.11 884.33 356.87 1058.03 367.15 986.35 469.96 891.62 543.06 1034.44 553.13
00011439 00000121 750.50 106.02 393.43 568.91 884.47 355.88 1059.11 365.42 986.98 469.48 892.11 542.13 1035.36 551.69
00011440 00000122 749.77 105.30 393.79 567.89 884.80 355.10 1059.43 364.49 986.93 468.70 891.81 540.52 1035.07 549.97
00011441 00000123 749.75 104.06 394.61 574.08 883.42 355.36 1058.73 365.81 985.52 468.96 889.94 541.70 1034.91 551.98
00011442 00000124 750.06 103.98 395.47 579.94 884.46 355.04 1056.23 366.63 983.72 469.15 888.43 541.39 1029.99 552.87
00011443 00000125 749.64 103.84 395.71 577.71 885.05 353.49 1057.13 364.72 984.79 467.83 890.37 540.77 1030.67 552.00
00011444 00000126 749.40 101.53 395.22 576.24 884.88 352.91 1059.51 363.43 987.22 466.74 892.21 540.20 1035.14 550.48
00011445 00000127 749.48 101.12 394.12 572.67 886.46 352.64 1060.59 362.90 988.73 466.37 894.13 540.07 1035.18 550.12
00011446 00000128 749.51 103.65 394.85 572.59 886.04 354.23 1060.22 364.28 988.82 468.17 893.27 540.49 1036.12 550.41
00011447 00000129 749.88 102.29 394.83 580.00 885.50 355.52 1059.13 365.72 988.38 470.21 892.56 543.10 1035.26 553.24
00011448 00000130 750.67 101.94 394.00 584.71 888.45 352.84 1057.66 365.53 988.35 467.26 894.15 544.32 1029.30 556.92
00011449 00000131 749.75 96.83 392.61 579.23 887.63 348.97 1059.52 360.84 989.57 463.07 896.05 540.33 1032.83 551.72
00011450 00000132 748.88 92.49 392.97 577.97 887.36 342.83 1059.58 355.37 989.11 457.60 896.95 536.03 1033.43 547.78
00011451 00000133 747.45 87.90 393.52 583.32 885.70 342.18 1058.92 355.85 987.19 455.03 891.92 533.46 1033.12 545.79
00011452 00000134 747.08 87.16 392.87 588.21 885.64 343.53 1056.57 357.32 985.35 453.31 890.42 533.22 1031.22 545.43
00011453 00000135 745.67 89.80 393.95 584.68 885.01 345.32 1056.85 356.79 986.11 455.93 889.34 532.72 1032.58 543.20
00011454 00000136 743.96 93.19 394.44 577.06 884.18 345.34 1056.89 356.38 985.83 456.82 888.23 532.11 1031.87 542.52
00011455 00000137 742.60 94.79 395.37 574.07 883.44 345.49 1056.40 356.28 985.23 457.46 886.90 531.54 1031.20 541.89
00011456 00000138 741.55 94.11 396.67 575.98 881.82 345.49 1055.78 355.37 983.73 459.38 886.97 533.60 1030.10 543.35
00011457 00000139 740.96 93.86 397.01 577.90 880.43 345.92 1055.40 356.11 983.03 460.56 886.19 535.08 1030.18 544.99
00011458 00000140 741.60 97.69 397.26 576.94 880.25 347.09 1055.19 356.66 982.96 463.24 886.65 536.50 1030.40 546.16
00011459 00000141 741.68 102.17 397.41 576.13 879.74 348.93 1053.57 357.79 982.50 464.68 887.55 538.04 1030.59 547.17
00011460 00000142 741.59 99.94 397.13 582.55 879.14 350.64 1052.16 360.33 981.06 465.32 884.93 539.93 1027.83 549.68
00011461 00000143 741.28 102.92 396.67 579.15 878.79 352.04 1051.35 361.55 980.26 466.19 885.18 540.90 1026.83 550.56
00011462 00000144 741.60 103.12 394.40 580.19 878.13 353.30 1050.44 363.72 979.61 467.05 883.62 541.84 1025.48 552.38
00011463 00000145 741.56 102.32 393.79 580.84 877.51 354.19 1050.89 364.77 979.83 467.23 883.97 542.18 1026.94 552.68
00011464 00000146 740.33 98.86 393.94 582.69 877.67 353.90 1050.84 364.10 980.47 466.81 884.93 542.42 1027.59 552.46
00011465 00000147 739.83 96.95 393.55 582.72 876.92 353.07 1050.98 362.79 980.61 465.85 885.03 542.01 1028.38 551.62
00011466 00000148 737.89 99.79 392.84 577.94 875.11 354.90 1049.29 362.14 979.80 465.90 885.20 542.18 1028.97 549.82
00011467 00000149 733.29 108.66 392.29 566.63 868.17 365.77 1040.45 365.54 975.03 471.79 888.20 551.85 1024.99 551.62
00011468 00000150 731.55 105.35 392.70 569.77 867.50 363.89 1040.42 363.53 974.72 471.34 886.03 550.85 1023.50 550.54
00011469 00000151 730.74 105.55 392.84 572.49 867.63 364.46 1039.21 364.03 973.80 470.46 884.51 550.94 1022.31 550.65
00011470 00000152 731.02 106.10 392.17 576.57 867.56 365.11 1038.29 365.68 972.79 473.31 881.49 551.59 1021.34 552.08
00011471 00000153 732.02 108.34 390.95 578.89 869.12 366.30 1037.01 368.00 973.14 473.01 881.15 553.46 1018.80 554.73
00011472 00000154 736.34 99.82 391.50 588.19 871.67 352.93 1044.59 362.70 973.83 468.28 874.45 540.06 1022.27 550.19
00011473 00000155 735.14 91.97 393.43 589.11 873.50 351.17 1046.47 359.92 976.16 464.70 876.59 537.44 1023.90 546.49
00011474 00000156 731.89 105.78 390.49 569.20 870.16 361.68 1040.75 362.45 976.29 466.27 882.76 542.50 1025.11 543.59
00011475 00000157 731.34 106.74 390.32 566.86 869.79 360.82 1040.45 361.21 976.53 464.78 882.60 540.55 1025.84 541.51
00011476 00000158 731.33 107.24 390.02 568.00 869.86 361.89 1040.46 361.78 976.50 468.15 882.01 542.58 1024.85 543.07
00011477 00000159 731.01 104.24 391.15 574.29 868.20 364.12 1040.18 365.32 975.04 470.67 878.92 544.15 1025.80 545.42
00011478 00000160 731.13 108.26 391.28 573.17 868.15 365.66 1040.13 365.86 975.27 472.55 878.89 546.48 1025.73 546.86
00011479 00000161 735.43 100.24 390.98 581.38 872.21 355.62 1046.75 363.12 976.57 468.28 876.37 538.95 1027.96 546.92
00011480 00000162 735.82 100.62 390.60 581.93 871.83 357.76 1046.85 364.95 976.41 469.80 877.05 540.81 1028.22 548.46
00011481 00000163 736.11 98.88 391.25 585.50 872.24 358.41 1046.89 365.98 976.08 471.07 877.24 541.70 1027.37 549.60
00011482 00000164 736.43 97.72 391.54 587.98 872.15 359.06 1047.03 367.03 975.68 471.87 877.16 542.25 1027.31 550.44
00011483 00000165 736.45 94.87 392.71 592.63 872.28 359.72 1047.51 367.82 976.09 471.41 877.02 542.88 1027.36 551.05
00011484 00000166 737.12 93.75 392.26 593.09 871.83 359.91 1047.57 368.21 975.70 470.96 877.10 542.94 1027.60 551.18
00011485 00000167 737.16 94.48 392.71 590.99 871.79 360.16 1047.61 368.30 975.32 471.09 877.21 543.04 1027.53 551.10
