Video ID: 	v5ubWA7ThbE
H: 	1080
W: 	1920
FPS: 	25.0

FRAME INDEX X0 Y0 W H [Landmarks (5 Points)]

00067707 00000000 418.00 239.56 429.30 583.09 577.36 492.53 772.46 471.47 716.61 604.77 608.52 692.93 773.02 674.86
00067708 00000001 415.60 235.07 431.04 586.22 572.01 489.31 769.00 469.42 711.06 599.23 604.51 689.59 772.15 672.33
00067709 DELETE   406.88 226.39 431.75 591.62 559.97 476.80 758.44 463.20 699.53 584.41 592.77 681.34 762.10 668.87
00067710 DELETE   396.05 220.85 422.89 589.06 540.57 461.99 738.64 450.36 675.50 568.65 577.11 675.26 735.78 664.84
00067711 DELETE   381.78 203.09 425.63 590.72 524.16 459.59 719.79 441.89 652.52 563.99 561.02 665.50 716.42 652.86
00067712 00000005 376.12 199.25 422.96 580.67 514.39 451.11 708.75 430.28 641.01 554.33 555.73 655.30 711.81 639.98
00067713 00000006 375.36 194.78 421.98 580.75 512.91 448.42 706.41 425.50 640.71 549.57 557.63 653.72 713.12 636.26
00067714 00000007 375.41 197.82 421.90 587.52 510.43 452.52 703.89 432.11 635.31 557.68 552.18 657.95 706.92 643.15
00067715 00000008 370.36 208.22 428.59 597.43 509.16 464.94 705.47 449.13 632.50 574.72 542.82 667.06 700.55 656.23
00067716 00000009 374.60 229.81 427.85 588.03 515.88 476.92 708.91 466.88 638.41 588.33 541.94 680.02 706.80 671.92
00067717 00000010 378.47 234.97 430.05 587.30 518.59 487.18 713.49 476.01 641.57 597.43 546.12 687.27 711.81 678.23
00067718 DELETE   378.13 232.55 427.97 585.57 514.66 489.33 712.65 479.35 636.56 591.34 536.37 680.89 710.81 673.60
00067719 DELETE   369.09 221.59 433.07 589.26 506.31 481.31 706.87 467.03 626.99 581.98 528.69 666.87 701.39 656.49
00067720 00000013 367.38 207.63 432.17 594.27 502.56 466.86 703.29 454.66 622.07 574.85 526.86 660.42 694.95 652.19
00067721 00000014 367.49 207.20 430.91 598.38 505.95 462.96 701.56 455.95 622.19 577.20 535.75 669.16 683.60 665.81
00067722 00000015 370.78 207.94 430.89 598.72 509.82 462.09 704.88 455.00 626.72 575.89 545.36 675.56 685.63 672.01
00067723 00000016 372.89 201.05 425.86 601.51 509.62 452.56 701.90 448.63 623.86 563.21 544.56 669.67 681.91 669.23
00067724 00000017 368.28 194.05 425.59 600.07 504.27 441.98 698.51 440.57 618.31 552.48 537.79 661.46 676.24 663.09
00067725 00000018 357.05 193.68 425.46 589.99 488.38 440.33 687.58 434.06 612.44 554.66 531.41 665.83 674.09 657.87
00067726 00000019 355.68 193.10 425.66 587.53 487.42 440.05 687.81 431.33 613.16 553.53 531.49 664.07 676.67 653.77
00067727 00000020 358.53 190.53 422.36 587.55 488.86 438.28 686.64 427.67 614.77 547.23 531.41 659.00 678.89 647.45
00067728 00000021 364.54 180.21 423.53 600.29 500.51 432.34 693.30 428.02 615.48 537.48 534.02 645.91 678.40 644.32
00067729 00000022 365.76 179.47 423.50 602.18 503.12 431.49 694.88 428.33 617.75 539.04 535.79 646.66 678.59 646.14
00067730 00000023 370.30 185.93 422.00 598.58 510.04 432.05 696.41 432.35 621.32 540.74 543.71 650.34 675.55 653.26
00067731 00000024 375.28 185.96 422.98 609.44 517.12 431.95 700.19 433.64 628.53 541.91 550.24 655.88 678.34 660.14
00067732 00000025 378.37 181.54 422.59 617.08 521.01 427.56 701.20 430.69 631.59 535.09 553.55 653.65 681.49 658.74
00067733 00000026 376.28 177.56 426.12 607.77 520.54 424.45 702.51 425.94 632.28 531.04 553.86 647.02 684.11 650.59
00067734 00000027 378.20 175.37 426.04 603.97 519.13 423.84 706.08 425.36 632.04 533.11 549.10 643.01 688.30 646.22
00067735 00000028 378.97 178.89 425.28 601.92 519.83 426.76 708.45 427.12 634.39 538.36 547.79 643.73 691.19 646.08
00067736 00000029 379.29 179.01 425.10 602.17 519.82 426.62 710.06 427.01 636.28 536.74 542.90 638.46 696.31 640.54
00067737 00000030 377.15 176.87 426.39 606.88 519.77 425.29 707.77 425.14 637.06 534.38 541.27 634.53 697.92 635.97
00067738 00000031 377.05 176.33 425.32 608.72 519.46 425.66 708.38 425.13 638.09 535.61 541.55 636.28 698.66 637.43
00067739 00000032 379.58 179.94 422.98 601.76 521.04 428.82 714.63 426.60 642.52 542.00 546.03 643.11 702.48 643.01
00067740 00000033 383.27 185.98 422.29 596.16 525.70 434.48 720.92 431.25 648.07 548.32 550.34 649.37 705.00 648.63
00067741 00000034 384.96 186.56 422.89 600.13 527.82 437.93 724.68 434.38 652.71 551.11 551.90 652.18 709.69 650.98
00067742 00000035 385.95 186.32 422.56 601.09 529.33 438.63 723.40 435.37 653.45 550.30 550.81 649.47 709.14 648.55
00067743 00000036 385.57 186.83 423.53 599.26 529.75 441.14 724.07 435.87 655.00 550.36 547.33 644.21 713.89 641.21
00067744 00000037 386.70 188.63 423.26 595.89 530.89 443.41 725.98 437.10 656.59 552.67 546.53 642.97 716.63 638.95
00067745 00000038 387.63 190.56 423.07 595.09 533.56 444.28 727.40 437.79 659.50 554.16 548.37 643.24 718.27 639.02
00067746 00000039 387.75 188.62 423.97 598.68 534.32 442.80 728.96 436.82 660.53 552.70 546.71 640.55 720.39 636.75
00067747 00000040 387.48 187.69 424.15 601.66 534.25 442.53 729.22 436.68 661.25 552.48 545.97 640.82 720.97 637.05
00067748 00000041 387.39 189.92 424.18 600.42 535.24 444.63 729.36 437.77 662.50 555.40 546.61 641.33 721.52 636.89
00067749 00000042 387.17 194.66 424.76 597.96 537.44 447.79 731.58 441.79 665.04 558.89 549.00 643.18 723.24 639.36
00067750 00000043 388.64 192.74 424.96 602.04 538.72 449.30 733.23 443.14 666.52 561.34 550.88 645.08 725.21 640.98
00067751 00000044 389.00 193.23 425.06 606.02 539.86 449.61 733.16 443.29 667.57 560.84 552.43 645.92 726.12 641.57
00067752 00000045 389.20 195.05 425.29 606.52 541.43 448.14 733.23 442.04 669.35 559.10 554.36 645.29 727.18 640.97
00067753 00000046 389.89 193.55 425.44 607.57 542.61 445.88 733.93 440.35 670.61 557.07 554.57 643.94 727.32 640.12
00067754 00000047 390.79 191.83 424.97 609.75 543.36 444.76 734.29 439.44 671.32 555.74 554.16 642.20 728.62 638.48
00067755 00000048 391.28 191.95 424.67 609.66 544.04 444.76 734.85 439.80 672.11 555.85 554.11 641.66 728.99 638.21
00067756 00000049 391.86 192.13 424.61 610.47 544.75 445.56 736.02 440.63 673.40 557.29 554.98 642.69 730.07 639.21
00067757 00000050 391.27 205.71 425.12 597.33 546.08 441.94 735.19 439.92 675.48 555.00 557.22 642.08 730.21 640.29
00067758 00000051 392.92 191.79 424.17 610.51 545.66 445.11 736.62 439.74 674.46 556.50 554.38 640.38 731.96 636.57
00067759 00000052 393.38 191.25 423.54 608.37 546.71 443.51 736.11 438.09 674.77 554.27 554.09 637.06 731.95 633.27
00067760 00000053 393.77 187.30 424.66 606.92 546.75 439.74 738.29 433.76 675.28 552.85 552.94 632.80 733.69 628.85
00067761 00000054 394.38 183.50 424.65 602.48 546.56 437.63 740.20 430.42 675.32 551.27 555.01 631.28 734.33 626.45
00067762 00000055 394.96 178.34 424.33 603.61 547.20 434.42 740.42 426.02 676.76 548.50 559.69 632.17 734.10 626.24
00067763 00000056 395.02 173.73 423.89 605.81 546.00 430.92 739.81 422.70 675.24 547.30 569.56 642.42 729.84 636.11
00067764 00000057 395.97 170.32 422.93 606.73 547.17 429.00 739.65 419.34 676.93 546.48 576.52 645.11 731.82 637.35
00067765 00000058 397.66 165.93 420.96 610.53 550.53 426.92 740.51 417.39 680.39 543.39 578.72 643.79 732.18 636.02
00067766 00000059 400.28 161.50 423.43 618.99 558.84 424.33 749.88 419.87 688.84 537.56 581.96 639.70 738.19 635.62
00067767 00000060 404.87 165.46 423.84 614.64 575.75 426.31 760.71 421.59 706.51 536.67 594.62 635.05 748.91 630.38
00067768 00000061 418.12 166.71 421.22 609.64 595.61 420.38 779.29 414.84 733.55 529.49 616.76 628.96 769.98 626.02
00067769 00000062 423.95 163.56 426.59 608.05 619.26 420.78 792.25 411.93 756.59 532.46 642.52 629.61 782.10 623.43
00067770 00000063 434.14 164.39 424.74 603.56 637.13 423.87 800.86 412.80 773.48 536.46 664.20 635.95 790.90 627.66
00067771 00000064 444.83 165.17 418.22 600.65 647.75 425.62 810.46 416.08 784.93 535.62 680.87 640.21 799.80 632.94
00067772 00000065 450.73 163.75 416.19 600.96 653.18 426.65 816.11 416.26 791.01 533.65 690.83 644.79 805.27 636.69
00067773 00000066 454.93 162.91 413.61 602.27 656.20 425.22 819.20 415.77 793.19 532.48 692.40 644.35 806.21 636.91
00067774 00000067 453.19 162.08 416.00 603.88 655.11 423.02 819.28 415.22 792.28 531.17 686.37 639.95 804.46 633.93
00067775 00000068 450.95 162.87 419.40 604.96 653.44 420.58 818.64 414.56 790.07 531.46 679.17 636.39 802.84 631.92
00067776 00000069 450.24 165.24 421.30 603.46 651.83 420.73 819.21 414.21 789.95 532.52 673.52 635.25 802.83 630.62
00067777 00000070 448.73 167.02 424.37 599.66 648.92 425.93 819.83 419.67 786.86 535.61 669.20 634.36 801.89 629.95
00067778 00000071 444.56 167.73 425.74 600.18 640.48 431.66 814.19 423.83 778.51 539.34 660.99 635.43 798.75 629.70
00067779 00000072 437.87 168.24 429.64 602.95 630.17 431.37 805.87 424.07 765.88 539.70 650.33 633.94 791.16 628.81
00067780 00000073 428.86 170.26 429.86 604.54 615.64 429.35 790.72 421.52 747.62 539.00 634.36 630.64 777.64 625.74
00067781 00000074 414.43 177.94 426.76 597.68 589.74 427.61 777.77 417.89 732.02 539.30 611.23 636.65 767.70 627.32
00067782 00000075 403.83 175.64 422.22 609.45 573.81 432.95 753.52 423.85 702.67 544.53 591.27 636.48 746.17 628.68
00067783 00000076 388.35 173.99 423.18 603.65 547.62 435.99 732.50 418.40 680.66 544.47 572.44 638.96 730.55 625.50
00067784 00000077 376.01 179.56 425.22 594.14 526.42 441.07 711.55 422.73 655.44 540.42 554.88 635.42 716.65 621.73
00067785 00000078 369.03 178.77 421.26 596.58 512.88 440.40 698.34 420.92 639.41 537.86 544.93 634.21 708.62 619.05
00067786 00000079 366.48 179.01 418.97 595.35 510.02 440.38 694.81 419.00 637.45 536.20 545.63 634.81 708.27 617.84
00067787 00000080 370.16 176.44 421.50 594.33 515.16 439.85 698.29 415.51 644.06 535.65 555.39 635.53 714.40 616.21
00067788 00000081 376.48 179.61 421.07 590.70 523.33 444.27 706.83 416.19 655.52 539.59 565.42 639.17 724.82 617.02
00067789 00000082 382.36 184.64 419.19 586.69 528.07 451.13 713.79 421.39 660.51 546.29 568.00 644.99 728.13 621.54
00067790 00000083 382.62 190.34 420.24 587.49 528.19 453.98 717.38 426.65 661.05 554.97 564.33 649.20 726.50 627.89
00067791 00000084 378.67 193.87 425.17 590.19 524.35 453.74 714.76 429.46 655.85 558.83 560.14 651.40 720.81 632.97
00067792 00000085 377.65 194.39 423.90 588.63 521.44 451.88 712.04 430.16 650.07 559.15 561.94 655.27 714.30 639.33
00067793 00000086 376.10 194.97 423.24 584.07 520.14 452.48 710.58 429.27 648.04 560.14 563.01 655.81 713.41 638.59
00067794 00000087 374.07 192.85 422.55 586.16 517.74 453.35 707.52 428.00 647.15 558.90 562.77 655.46 714.94 636.09
00067795 00000088 369.62 194.67 422.88 586.79 511.43 455.57 703.95 429.03 642.07 559.52 557.30 655.28 713.49 634.49
00067796 00000089 365.68 192.96 421.85 592.08 505.92 457.44 698.15 429.69 636.84 559.68 552.04 655.84 709.90 633.84
00067797 00000090 359.10 191.46 418.60 587.53 494.29 457.05 686.96 427.41 631.35 558.81 544.37 662.71 700.39 635.93
00067798 00000091 355.28 188.99 421.73 591.24 489.95 456.08 682.31 424.30 626.98 557.02 541.35 661.74 698.18 632.89
00067799 00000092 353.59 188.31 421.81 591.74 487.65 454.25 678.93 421.09 623.90 552.96 539.52 660.86 695.62 630.79
00067800 00000093 352.23 189.34 422.62 591.85 486.90 453.25 675.05 419.38 621.83 546.49 540.05 659.37 693.57 628.44
00067801 00000094 349.34 185.19 425.28 596.78 485.29 449.60 673.26 415.23 620.22 541.77 537.26 656.43 691.93 625.03
00067802 00000095 350.68 177.48 424.08 601.17 486.39 444.10 674.96 409.57 621.62 535.10 537.14 650.33 693.22 619.00
00067803 00000096 352.66 174.13 424.17 601.51 486.88 438.62 677.30 405.01 622.26 530.82 537.69 646.98 695.28 616.35
00067804 00000097 358.84 166.67 426.12 604.52 495.13 430.50 683.12 406.58 620.81 523.15 540.13 633.64 699.96 614.26
00067805 00000098 361.51 167.06 427.14 598.17 498.01 426.49 685.13 403.52 622.38 519.87 546.18 630.85 702.00 612.41
00067806 00000099 363.76 167.22 424.72 591.85 503.04 421.19 685.82 401.70 625.16 516.14 552.88 627.23 700.67 611.71
00067807 00000100 366.11 168.94 423.76 586.19 505.43 418.12 687.75 398.54 628.09 513.89 557.32 625.57 702.94 609.94
00067808 00000101 369.52 165.12 422.81 590.18 506.88 415.04 689.72 395.70 629.69 511.73 558.24 623.71 703.77 608.19
00067809 00000102 371.50 163.30 422.39 590.96 509.17 413.35 690.55 394.08 631.12 509.00 559.84 621.98 705.29 606.16
00067810 00000103 372.70 161.42 422.19 593.26 511.01 412.67 691.08 392.63 632.89 507.62 562.90 620.96 707.33 604.38
00067811 00000104 373.57 161.43 421.59 590.83 512.71 412.90 692.12 391.37 635.03 506.03 566.06 620.63 709.22 602.96
00067812 00000105 374.14 162.19 422.12 589.48 512.94 413.31 693.59 390.58 636.34 505.72 567.96 621.59 711.53 602.95
00067813 00000106 373.66 162.45 423.15 589.09 513.66 414.29 694.96 390.60 638.25 506.77 568.86 622.71 712.59 603.51
00067814 00000107 374.53 162.99 422.34 588.06 515.11 416.55 696.38 392.91 639.75 511.08 570.32 624.75 712.92 605.80
00067815 00000108 374.17 166.81 424.52 585.52 516.05 419.43 699.75 393.82 642.75 517.49 573.50 629.79 715.46 609.34
00067816 00000109 377.17 167.82 423.29 587.35 518.38 424.46 700.99 396.14 646.30 523.73 579.01 637.59 717.45 615.25
00067817 00000110 379.40 170.00 422.26 586.95 520.63 427.42 703.49 397.28 651.56 527.86 585.17 643.86 721.32 619.83
00067818 00000111 380.08 170.51 421.32 584.83 521.44 428.47 703.90 397.38 654.19 527.82 588.91 647.66 722.83 622.87
00067819 00000112 380.38 169.10 421.35 585.76 522.10 428.44 703.90 396.92 655.17 526.78 589.66 647.58 723.65 622.47
00067820 00000113 380.39 167.89 420.88 586.76 521.83 425.98 703.61 395.35 654.09 524.42 587.42 643.08 722.72 618.86
00067821 00000114 379.70 168.55 420.22 586.10 521.48 423.32 702.93 394.20 652.80 521.29 584.28 638.29 721.16 615.39
00067822 00000115 379.38 167.41 419.34 587.23 521.94 421.87 702.00 394.13 652.21 519.50 582.73 635.36 720.19 613.45
00067823 00000116 378.16 168.00 421.08 586.37 521.22 420.52 703.07 393.35 652.21 517.85 580.24 632.99 720.80 611.41
00067824 00000117 377.70 166.21 422.94 586.69 521.55 420.87 704.96 392.49 653.75 515.83 579.41 630.57 723.70 608.14
00067825 00000118 378.34 165.63 422.41 588.14 522.63 421.36 705.46 392.57 655.57 515.74 579.74 630.13 724.93 607.24
00067826 00000119 377.67 167.18 423.53 590.33 523.25 421.60 705.65 393.51 655.93 517.61 577.97 630.08 725.22 607.66
00067827 00000120 379.02 166.84 423.02 595.94 523.58 422.41 706.25 394.68 656.92 519.40 574.55 630.42 726.56 608.30
00067828 00000121 379.68 167.70 423.44 599.90 523.47 423.13 708.01 395.89 658.35 521.15 570.04 630.14 728.38 608.80
00067829 00000122 380.76 166.78 423.44 602.10 524.39 423.60 710.06 396.55 659.82 522.98 567.53 629.72 729.14 608.67
00067830 00000123 381.52 167.12 424.57 600.84 524.47 424.73 711.86 397.02 660.67 523.40 567.08 628.91 731.44 607.43
00067831 00000124 381.65 167.66 425.06 594.69 524.87 426.02 714.85 396.57 662.04 523.14 567.87 627.54 734.78 604.61
00067832 00000125 382.96 167.21 424.99 593.98 525.49 426.05 717.65 396.20 663.92 523.02 566.96 626.15 736.95 602.77
00067833 00000126 384.48 167.00 425.05 594.93 526.85 423.87 720.93 394.73 666.73 521.78 567.11 624.84 740.01 602.01
00067834 00000127 384.81 166.10 425.65 596.67 529.02 421.10 723.34 394.00 669.49 520.56 568.88 624.12 741.35 602.80
00067835 00000128 387.04 160.97 425.95 603.87 531.96 418.71 725.74 393.31 672.63 517.52 570.63 622.39 743.48 602.24
00067836 00000129 390.07 155.57 425.02 611.68 535.85 415.16 728.55 392.22 677.27 514.41 571.08 620.03 745.73 601.70
00067837 00000130 394.37 151.65 424.17 613.74 539.36 409.44 733.28 389.56 681.05 508.49 575.56 617.02 748.98 600.54
00067838 00000131 397.69 150.29 423.83 610.50 545.46 406.89 738.68 388.37 687.52 503.22 581.24 612.93 752.34 597.20
00067839 00000132 399.99 150.55 422.82 604.90 551.28 402.61 743.11 386.02 694.07 497.72 589.56 610.39 754.56 595.73
00067840 00000133 405.72 149.45 416.73 602.51 558.18 401.30 744.18 382.94 699.66 496.34 607.06 616.01 754.28 599.69
00067841 00000134 409.46 145.87 413.79 602.08 563.06 399.23 749.30 379.19 706.58 496.78 618.45 621.38 758.01 603.51
00067842 00000135 410.32 143.59 413.70 604.14 566.58 396.62 751.28 375.65 712.22 494.16 624.67 621.72 760.62 602.96
00067843 00000136 412.28 139.48 411.36 602.39 570.86 394.48 751.69 374.74 713.72 490.99 628.52 619.62 757.49 601.91
00067844 00000137 411.26 137.58 411.42 598.63 570.77 392.71 752.59 372.82 713.35 488.34 626.83 615.52 756.50 597.50
00067845 00000138 409.62 137.18 412.60 592.67 564.74 395.51 751.91 377.28 708.15 484.62 621.63 613.14 756.59 596.21
00067846 00000139 405.60 135.42 412.97 592.72 559.09 393.94 745.14 374.42 701.11 483.38 617.51 611.24 750.38 593.20
00067847 00000140 400.46 138.53 413.49 590.90 551.85 389.91 736.39 370.99 692.13 482.64 610.92 610.10 742.15 592.70
00067848 00000141 394.52 139.47 414.17 590.48 544.66 388.67 728.64 371.53 682.25 482.12 602.34 609.31 733.44 593.70
00067849 00000142 391.66 142.54 414.45 590.80 539.65 390.38 723.78 375.66 675.26 482.23 594.60 609.84 728.22 596.55
00067850 00000143 389.93 143.63 414.27 592.73 537.68 392.15 720.66 378.30 671.98 483.21 590.66 610.63 724.47 598.20
00067851 00000144 388.20 144.49 415.08 593.34 535.80 393.60 719.61 379.56 669.20 484.10 588.22 610.12 723.09 597.77
00067852 00000145 385.61 147.72 416.49 592.42 534.07 394.84 716.14 380.83 665.60 484.78 584.08 609.59 718.94 597.57
00067853 00000146 381.52 147.02 419.39 599.22 532.07 395.56 711.46 380.52 663.72 487.15 577.89 607.94 717.27 595.23
00067854 00000147 377.86 148.71 420.94 596.59 529.56 397.05 709.16 382.34 661.78 488.52 573.16 605.39 716.94 592.96
00067855 00000148 373.99 149.07 421.76 593.93 526.16 397.40 706.55 382.48 658.75 488.69 567.06 601.93 715.00 589.54
00067856 00000149 372.03 150.14 421.15 592.89 523.46 396.15 705.73 382.39 656.74 488.07 561.48 600.88 713.86 589.48
00067857 00000150 370.03 151.35 422.05 593.17 522.91 395.63 705.45 383.05 656.13 488.49 560.81 602.02 712.95 591.61
00067858 00000151 370.72 150.87 421.71 592.03 526.60 398.26 706.26 384.76 658.86 492.12 567.94 604.58 712.66 593.52
00067859 00000152 374.71 151.85 421.67 592.82 531.07 401.88 710.76 387.65 663.22 498.90 573.28 608.13 717.38 596.46
00067860 00000153 377.98 155.49 424.48 593.69 535.02 406.33 719.63 392.64 670.39 507.86 576.17 614.95 725.62 603.58
00067861 00000154 383.12 155.51 426.31 603.36 541.91 413.98 726.56 397.69 678.66 518.47 579.78 622.48 732.27 609.05
00067862 00000155 390.36 163.90 422.23 601.43 551.78 424.75 735.55 403.84 689.43 532.47 585.47 632.54 736.80 615.70
00067863 00000156 397.86 169.34 422.62 606.39 561.50 434.42 745.86 413.85 697.18 543.81 591.05 640.00 744.29 623.16
00067864 00000157 406.17 178.81 421.97 607.66 576.00 447.37 756.67 430.19 707.73 556.83 598.27 647.66 752.14 633.00
00067865 00000158 413.65 196.37 424.34 584.28 579.67 449.06 768.04 432.93 718.37 560.34 610.11 652.98 764.87 637.94
00067866 00000159 420.94 206.84 422.09 577.76 586.58 457.44 777.64 441.63 727.24 566.84 615.77 659.99 772.84 645.44
00067867 00000160 424.35 212.18 422.49 580.37 595.80 463.67 781.67 446.85 738.03 572.82 621.01 667.84 773.30 653.24
00067868 00000161 425.13 217.12 422.50 582.28 597.30 468.25 783.92 450.33 741.76 578.02 621.23 672.57 776.16 657.79
00067869 00000162 421.80 224.03 422.76 582.23 596.64 469.04 780.27 449.67 740.94 578.43 619.99 674.96 772.97 659.24
00067870 00000163 420.28 217.86 420.22 580.19 590.54 466.64 775.42 445.14 735.37 573.34 618.00 671.12 771.56 653.23
00067871 00000164 419.23 207.72 420.55 577.80 582.51 460.43 769.57 437.80 725.47 563.68 615.95 661.32 772.21 641.38
00067872 00000165 418.67 194.64 419.78 580.58 578.25 447.11 766.39 419.92 722.01 548.21 616.58 649.77 772.61 625.71
00067873 00000166 418.24 175.01 421.21 593.79 579.84 439.31 761.10 415.93 714.68 537.38 613.98 636.59 767.82 616.66
00067874 DELETE   420.65 169.00 422.19 597.69 577.41 424.30 759.28 403.76 713.62 519.39 615.97 627.30 770.54 609.05
00067875 00000168 431.25 158.69 417.12 602.86 585.07 408.41 767.60 397.12 722.81 500.19 620.72 616.35 776.26 606.48
CROP_BBOX: 180 0 1223 971
