Video ID: 	U_UCoQtKRwE
H: 	1080
W: 	1920
FPS: 	25.0

FRAME INDEX X0 Y0 W H [Landmarks (5 Points)]

00000978 00000000 555.27 176.70 477.05 705.04 765.20 524.61 944.62 464.59 928.56 615.06 814.43 730.70 969.01 681.34
00000979 00000001 549.88 168.82 480.41 718.20 746.28 529.71 930.81 466.02 907.78 618.63 800.16 733.23 962.30 680.83
00000980 00000002 543.63 160.06 480.18 733.41 739.65 530.92 927.40 475.64 896.82 627.82 789.39 734.33 954.50 688.51
00000981 00000003 539.88 158.71 483.34 737.89 732.38 527.50 923.54 479.07 885.96 628.80 784.82 734.95 950.56 694.40
00000982 00000004 538.65 159.97 483.93 736.64 729.71 527.79 923.11 480.83 883.89 628.20 781.07 736.09 948.83 696.79
00000983 00000005 539.86 165.24 484.09 731.31 728.00 526.83 922.70 480.75 881.59 628.06 779.44 735.87 947.73 697.37
00000984 00000006 540.34 165.17 483.29 733.14 728.49 529.38 925.05 485.71 881.52 628.13 779.54 736.32 948.64 699.61
00000985 00000007 541.02 169.70 483.57 731.34 732.01 528.73 925.37 484.62 884.13 631.07 778.83 739.32 946.20 702.53
00000986 00000008 543.00 175.01 482.63 728.36 732.40 533.11 925.16 485.12 887.46 634.09 779.73 742.60 946.76 703.37
00000987 00000009 542.44 179.40 486.91 726.56 737.40 539.41 932.82 492.47 893.59 639.95 784.01 747.90 950.98 708.72
00000988 DELETE   545.77 185.16 487.09 728.01 745.89 546.39 940.93 499.25 901.53 645.79 789.17 754.76 955.33 715.57
00000989 00000011 560.70 186.62 479.12 729.63 756.40 550.36 952.02 508.26 908.69 646.46 794.02 755.98 963.86 720.84
00000990 00000012 572.43 191.44 475.80 725.67 771.28 546.21 964.79 508.02 921.51 646.03 805.24 757.34 972.69 725.50
00000991 00000013 577.48 194.13 478.83 723.99 783.12 539.09 975.07 502.41 934.46 646.99 813.80 754.80 980.24 724.48
00000992 00000014 587.43 181.74 481.40 735.16 782.42 535.51 983.92 505.53 937.60 639.78 814.20 746.93 990.42 722.26
00000993 DELETE   594.70 182.17 478.36 731.75 788.38 532.85 987.72 504.70 941.14 636.37 819.92 743.29 994.38 719.91
00000994 DELETE   603.25 180.77 473.94 730.30 792.24 529.89 989.91 501.99 942.62 633.07 822.59 740.40 997.35 717.25
00000995 DELETE   605.56 174.68 476.79 733.50 798.32 521.24 994.13 496.93 946.85 632.31 827.71 736.67 999.69 716.09
00000996 00000018 608.43 176.44 478.11 730.89 805.36 520.75 998.41 494.08 955.93 633.26 833.85 735.54 1005.15 713.04
00000997 00000019 611.78 173.79 479.22 733.25 811.25 521.07 1003.42 495.06 961.69 631.30 840.77 735.43 1009.51 713.27
00000998 DELETE   616.02 175.59 478.68 729.48 815.46 517.49 1007.55 491.20 965.64 628.18 847.56 735.91 1014.22 713.61
00000999 DELETE   617.38 172.37 479.38 731.87 826.30 511.02 1015.07 487.73 976.54 627.09 855.37 733.89 1018.61 713.81
00001000 DELETE   618.84 169.84 482.81 739.70 834.67 501.50 1021.08 475.61 987.41 621.03 862.85 734.11 1024.26 711.77
00001001 00000023 621.19 169.25 483.44 743.35 843.74 499.90 1024.64 472.92 996.15 620.63 870.34 735.05 1025.38 711.73
00001002 00000024 623.64 171.84 485.01 740.47 851.02 498.60 1030.02 471.85 1004.99 620.16 873.64 733.88 1030.07 710.82
00001003 00000025 625.98 165.43 483.76 747.68 854.64 500.10 1033.90 475.18 1009.76 621.44 873.77 733.33 1032.26 711.76
00001004 DELETE   628.99 166.81 482.36 745.56 859.82 498.17 1037.40 476.16 1014.11 619.07 877.89 730.70 1036.01 711.44
00001005 00000027 633.79 164.72 482.70 745.88 865.06 493.52 1044.54 474.80 1018.32 616.42 881.29 728.08 1040.56 711.36
00001006 00000028 636.40 165.16 482.76 737.78 866.09 494.83 1048.36 471.19 1020.71 616.14 885.22 727.14 1044.99 706.34
00001007 00000029 639.84 164.60 482.24 735.17 871.22 495.03 1053.83 474.98 1026.47 613.78 891.19 725.41 1047.80 707.64
00001008 00000030 641.21 163.61 483.92 736.92 876.49 493.07 1060.67 469.50 1038.15 611.95 896.75 728.57 1053.87 708.55
00001009 00000031 644.03 165.72 487.90 731.74 893.87 492.61 1069.10 466.91 1056.03 611.88 908.32 728.15 1057.74 707.55
00001010 00000032 653.69 162.76 482.15 739.76 903.14 499.08 1081.27 468.04 1072.91 619.90 913.71 733.11 1071.53 708.68
00001011 00000033 679.51 174.37 466.53 732.27 930.11 513.48 1094.82 479.69 1093.57 628.57 938.44 743.13 1081.66 716.81
00001012 DELETE   693.78 197.45 460.59 715.89 956.82 524.42 1114.85 493.08 1123.18 638.47 958.83 752.74 1092.46 729.36
00001013 00000035 707.36 205.75 464.17 716.65 966.40 544.65 1133.34 495.04 1145.88 650.27 974.87 768.59 1115.53 731.49
00001014 00000036 723.59 209.60 450.68 714.25 981.88 565.62 1139.44 519.09 1149.80 668.40 995.14 786.82 1116.69 752.48
00001015 00000037 725.65 207.17 451.45 717.28 990.47 564.64 1146.77 521.29 1162.48 673.39 1001.49 787.86 1126.86 755.29
00001016 00000038 723.32 207.98 454.71 719.58 985.76 557.98 1145.32 520.78 1154.36 671.28 998.95 786.69 1124.45 758.51
00001017 00000039 717.69 204.55 460.67 716.63 978.33 553.71 1143.29 513.37 1149.65 667.87 995.46 784.40 1122.01 754.19
00001018 00000040 719.15 205.19 458.14 719.19 977.70 553.86 1142.58 512.46 1149.58 667.23 994.36 785.05 1122.81 754.30
00001019 00000041 716.10 202.42 459.13 728.50 977.80 555.93 1140.54 511.65 1151.38 669.43 996.94 788.94 1124.61 755.43
00001020 00000042 722.50 200.86 454.67 733.55 983.36 561.57 1144.87 516.49 1157.96 674.62 1002.15 793.86 1129.76 760.00
00001021 00000043 727.50 203.61 450.36 725.50 996.68 572.42 1146.19 526.80 1164.72 682.00 1008.39 794.58 1126.67 760.35
00001022 00000044 730.71 203.58 449.49 724.21 996.10 568.92 1149.48 523.49 1165.41 679.40 1009.96 792.34 1132.48 757.71
00001023 00000045 730.56 198.99 452.33 726.74 993.06 563.84 1149.99 516.79 1166.23 674.20 1008.61 787.39 1136.10 751.78
00001024 00000046 731.02 197.28 452.51 722.62 992.12 555.26 1152.85 516.82 1161.72 667.35 1009.46 780.47 1137.07 751.43
00001025 00000047 730.32 191.86 453.27 724.86 990.47 551.47 1155.96 512.17 1160.78 666.32 1005.61 777.95 1135.55 748.46
00001026 00000048 729.57 192.53 454.11 726.63 989.45 551.55 1156.64 512.10 1160.70 668.22 1003.41 779.36 1135.62 749.68
00001027 00000049 731.86 197.55 453.24 719.92 986.47 553.58 1156.28 513.26 1157.10 669.21 1002.67 780.09 1136.96 749.70
00001028 00000050 730.75 191.79 456.45 725.51 990.00 549.80 1157.50 507.80 1161.52 667.93 1002.01 776.55 1135.46 745.12
00001029 00000051 726.28 192.94 459.37 721.39 988.56 546.20 1153.31 504.74 1160.67 663.56 1001.30 773.41 1132.14 742.66
00001030 00000052 727.38 190.51 460.02 723.38 989.16 538.50 1156.78 499.63 1160.93 660.64 1002.14 771.09 1133.77 741.88
00001031 00000053 726.33 186.69 462.28 729.31 989.91 541.06 1156.00 501.75 1159.75 662.59 1001.92 772.38 1133.05 742.92
00001032 00000054 730.63 188.58 459.05 730.27 992.82 543.44 1161.62 503.64 1163.80 665.38 1004.97 775.21 1137.83 745.44
00001033 00000055 728.52 185.61 461.59 735.78 992.39 540.63 1160.33 503.33 1162.21 663.56 1006.50 776.00 1136.61 747.97
00001034 00000056 727.24 183.64 461.96 730.96 993.01 532.35 1158.54 495.04 1164.12 654.00 1002.51 766.99 1133.71 739.30
00001035 00000057 726.65 181.56 457.83 728.92 990.11 524.31 1148.43 490.41 1158.59 642.98 999.38 758.54 1124.84 733.34
00001036 00000058 721.20 185.62 458.05 719.67 986.36 527.92 1145.18 489.76 1158.63 639.25 996.45 757.80 1120.61 729.36
00001037 00000059 712.50 181.10 459.13 724.11 980.97 523.04 1138.14 483.06 1156.06 636.55 992.68 757.31 1113.55 727.21
00001038 00000060 705.86 189.96 457.05 711.59 971.15 529.13 1126.62 481.15 1147.04 636.75 986.31 757.13 1109.84 720.43
00001039 00000061 699.20 189.68 456.05 708.97 959.75 530.97 1114.86 479.97 1135.21 635.52 982.76 757.45 1105.51 718.09
00001040 DELETE   704.86 179.48 452.35 717.53 940.42 531.75 1111.15 474.59 1117.73 631.44 973.88 756.12 1114.86 710.71
00001041 00000063 697.64 187.40 443.83 713.84 938.96 536.45 1097.82 482.38 1112.36 630.70 970.12 756.83 1099.94 714.61
00001042 DELETE   695.03 184.38 440.69 718.03 937.58 537.74 1095.52 483.33 1111.49 633.59 971.38 760.35 1098.68 718.00
00001043 00000065 698.43 190.93 434.44 710.86 932.67 545.71 1094.46 484.10 1109.47 636.36 965.86 762.67 1098.04 715.08
00001044 00000066 685.48 181.10 457.96 725.79 949.96 520.44 1107.04 481.23 1125.32 635.13 974.64 761.73 1097.03 731.32
00001045 00000067 697.79 188.15 433.40 715.49 933.87 531.34 1091.35 480.35 1107.64 629.17 964.47 757.20 1093.78 717.83
00001046 00000068 692.04 180.67 440.39 720.49 932.42 527.73 1091.94 477.08 1104.98 624.76 962.36 754.48 1093.70 715.22
00001047 00000069 680.08 166.58 461.92 722.19 950.22 515.18 1103.51 484.88 1117.55 626.01 967.16 747.30 1082.36 723.84
00001048 00000070 691.07 177.14 439.63 708.56 934.12 528.26 1090.14 470.11 1109.61 623.81 968.85 751.93 1093.63 706.74
00001049 00000071 685.39 164.89 460.13 717.50 949.96 514.55 1103.15 479.49 1119.82 622.40 976.06 748.20 1088.95 720.77
00001050 00000072 706.51 169.78 436.66 713.59 934.49 528.41 1103.43 466.93 1112.37 620.49 982.16 752.56 1115.72 703.45
00001051 00000073 708.17 175.73 435.85 707.05 938.68 533.48 1101.82 466.99 1119.22 623.01 990.17 757.07 1118.93 704.10
00001052 00000074 700.76 186.62 442.38 701.41 951.44 535.93 1101.24 472.16 1129.45 631.18 994.98 761.10 1108.42 711.89
00001053 00000075 704.15 184.79 443.41 704.39 956.45 534.86 1107.43 471.49 1135.35 634.56 995.85 761.48 1110.52 712.94
00001054 00000076 715.82 178.63 440.22 708.81 952.10 538.34 1110.12 467.23 1133.70 632.07 993.69 761.06 1123.13 704.98
00001055 00000077 711.03 177.74 445.88 720.15 970.85 532.70 1116.41 473.95 1147.78 635.35 1001.08 759.73 1111.63 714.96
00001056 00000078 723.71 178.70 440.87 726.05 970.57 534.86 1125.19 474.52 1153.45 627.84 999.37 757.95 1129.46 711.06
00001057 00000079 715.11 178.89 453.02 726.04 977.96 522.06 1125.81 477.36 1152.02 630.42 998.87 755.43 1112.74 721.77
00001058 00000080 714.41 176.45 454.30 725.78 978.21 523.24 1127.67 480.32 1151.37 627.47 999.83 753.26 1114.27 720.67
00001059 00000081 715.41 178.35 454.30 718.42 977.84 522.34 1128.31 477.43 1151.95 624.94 999.34 750.91 1114.30 716.98
00001060 00000082 715.74 180.34 454.69 719.61 979.49 525.53 1129.60 479.68 1153.42 628.86 998.82 753.40 1114.56 718.76
00001061 00000083 727.07 177.89 442.23 728.47 974.04 530.17 1129.52 474.16 1157.00 626.71 999.64 755.60 1133.98 711.92
00001062 00000084 724.10 183.15 454.41 725.34 981.47 531.82 1136.48 484.53 1156.19 642.13 998.91 759.52 1124.09 724.42
00001063 00000085 724.29 179.56 455.60 732.59 983.56 531.21 1140.13 483.64 1160.00 642.54 995.93 758.88 1126.42 723.68
00001064 00000086 730.39 182.56 441.78 728.22 972.03 531.67 1136.05 475.98 1157.23 631.90 992.13 757.95 1135.74 714.84
00001065 00000087 716.53 183.29 456.96 726.46 978.59 525.96 1136.22 483.39 1154.29 635.53 988.81 754.80 1117.17 723.09
00001066 00000088 719.91 183.62 449.18 732.22 962.48 531.74 1131.45 474.49 1149.46 633.59 977.27 758.03 1126.94 714.15
00001067 00000089 711.38 184.77 454.73 730.50 965.50 525.22 1127.63 477.09 1143.44 637.34 977.69 757.31 1114.09 720.82
00001068 00000090 708.56 182.21 451.26 731.96 960.50 528.03 1118.76 476.10 1137.16 635.29 977.79 757.99 1109.96 718.39
00001069 00000091 706.27 178.65 449.74 736.67 953.62 528.43 1113.75 477.35 1131.32 633.35 973.16 756.93 1110.43 717.63
00001070 00000092 703.05 182.65 448.14 726.38 945.39 532.28 1104.58 477.64 1120.80 631.57 971.46 756.39 1107.81 714.11
00001071 00000093 700.13 188.97 445.80 711.74 937.53 537.22 1097.15 475.47 1111.68 632.09 970.32 757.69 1104.91 709.49
00001072 00000094 694.27 190.25 449.52 711.16 929.10 533.04 1095.15 470.31 1109.00 629.97 963.77 756.24 1104.02 707.43
00001073 00000095 689.17 195.70 449.05 706.43 920.63 538.53 1089.44 472.23 1104.09 630.64 953.76 756.18 1100.65 704.59
00001074 00000096 668.88 189.04 470.20 716.53 922.96 520.11 1086.48 467.01 1099.70 627.07 951.94 755.23 1089.63 712.21
00001075 DELETE   671.76 189.31 455.99 719.08 895.97 548.68 1067.23 480.44 1078.80 632.44 936.28 754.84 1089.61 700.40
00001076 DELETE   646.42 196.90 478.24 722.21 902.34 536.16 1072.33 469.59 1083.93 634.20 935.13 767.89 1074.60 713.84
00001077 DELETE   638.45 200.46 465.46 721.58 885.41 548.35 1050.05 476.10 1066.36 645.52 923.10 771.31 1059.80 714.04
00001078 00000100 625.08 194.83 471.07 729.73 862.93 546.78 1032.58 479.87 1038.01 643.64 904.74 770.39 1046.76 716.81
00001079 DELETE   620.84 200.63 467.86 724.12 834.95 548.72 1017.01 488.30 1006.39 645.98 882.00 767.07 1037.16 718.43
00001080 DELETE   609.17 189.72 470.66 738.63 815.68 555.81 1000.49 496.19 984.25 645.83 866.88 767.37 1023.97 718.48
00001081 00000103 600.10 181.05 477.57 747.75 802.39 552.67 994.24 498.45 969.51 649.76 857.81 766.57 1019.17 721.93
00001082 00000104 594.93 177.29 479.23 752.11 794.74 549.34 989.14 500.77 959.77 649.69 850.99 766.75 1014.16 726.23
00001083 00000105 592.11 176.81 477.76 743.96 788.85 545.76 986.04 499.25 955.14 644.96 845.03 761.20 1009.80 722.36
00001084 00000106 583.89 184.74 480.26 724.60 792.96 540.89 985.97 494.43 951.68 645.99 847.07 765.11 997.72 725.96
00001085 00000107 585.55 184.74 481.03 719.29 795.27 539.41 989.38 495.18 953.83 644.17 847.42 762.43 999.71 725.11
00001086 00000108 594.81 174.90 478.65 735.20 791.66 541.44 991.48 495.34 957.40 643.78 847.76 757.18 1012.69 718.87
00001087 00000109 600.74 179.27 473.06 731.82 803.19 538.63 998.31 491.34 970.91 643.99 852.99 755.89 1016.39 716.82
00001088 00000110 601.97 190.40 475.65 727.48 805.80 537.39 1001.46 489.14 978.80 640.21 854.67 755.37 1022.82 715.72
00001089 00000111 607.74 199.25 473.10 715.90 814.80 532.47 1002.51 489.15 981.10 634.34 859.47 753.02 1020.44 717.81
00001090 00000112 616.36 196.92 471.65 714.83 829.33 534.36 1010.18 490.30 990.49 630.79 870.23 751.40 1022.41 715.69
00001091 00000113 622.28 194.81 473.19 716.75 843.52 528.68 1017.26 485.44 1003.46 630.50 882.17 752.74 1028.59 717.73
00001092 00000114 624.56 194.42 474.77 719.95 858.72 520.81 1028.75 483.76 1019.45 628.33 891.33 752.65 1034.99 722.51
00001093 00000115 628.56 192.93 474.69 722.52 871.55 516.07 1037.79 479.97 1032.62 627.01 901.20 752.41 1040.02 722.89
00001094 00000116 637.12 189.72 474.92 723.54 876.44 512.26 1050.44 480.89 1039.26 626.04 907.75 751.94 1049.30 726.00
00001095 00000117 645.03 186.01 474.67 726.95 892.00 509.52 1063.09 480.64 1055.40 627.13 920.00 753.29 1056.85 729.63
00001096 00000118 651.67 189.77 468.94 717.98 907.11 515.43 1071.95 473.85 1084.36 623.69 938.43 749.91 1076.57 716.82
00001097 00000119 678.17 185.96 457.93 711.01 944.78 500.61 1101.10 475.80 1117.99 618.44 982.27 750.03 1097.53 728.50
00001098 00000120 694.34 193.74 444.07 687.06 952.06 517.15 1098.75 468.25 1121.49 616.49 997.89 748.15 1106.90 708.46
00001099 DELETE   713.70 187.45 439.37 678.24 972.26 516.70 1112.69 469.91 1136.72 614.14 1015.91 739.87 1113.78 703.16
00001100 00000122 715.51 188.01 439.14 673.75 988.36 523.14 1116.53 473.12 1154.36 616.28 1027.13 741.95 1113.79 703.40
00001101 00000123 716.78 189.21 440.92 679.01 984.57 528.32 1122.24 478.03 1153.91 621.71 1023.32 747.29 1119.00 708.33
00001102 00000124 719.67 192.56 443.87 678.28 985.99 529.61 1126.42 478.95 1158.20 621.62 1022.70 748.88 1122.41 710.10
00001103 00000125 725.90 195.26 445.47 677.75 988.95 527.46 1133.80 479.10 1163.20 620.65 1026.38 749.63 1131.73 712.39
00001104 00000126 733.82 200.87 441.82 669.72 995.43 525.71 1143.41 487.51 1166.68 622.99 1031.92 748.33 1140.96 718.50
CROP_BBOX: 337 0 1491 1080
