Video ID: 	x9wdSrUkwEM
H: 	2160
W: 	3840
FPS: 	25.0

FRAME INDEX X0 Y0 W H [Landmarks (5 Points)]

00043367 00000000 2013.07 592.09 785.90 1071.75 2317.09 986.47 2659.26 1036.37 2508.87 1250.69 2297.28 1397.62 2539.69 1436.36
00043368 00000001 2013.11 574.47 789.99 1084.09 2312.04 990.06 2662.25 1041.95 2508.38 1257.90 2294.04 1396.85 2551.30 1437.29
00043369 00000002 2009.59 587.33 789.37 1083.38 2311.73 995.14 2657.92 1045.58 2506.70 1264.56 2292.41 1402.90 2545.53 1441.99
00043370 00000003 2003.83 575.91 794.58 1104.28 2311.00 1001.11 2652.38 1047.82 2505.91 1273.24 2291.49 1413.60 2532.92 1449.77
00043371 00000004 1998.43 586.74 785.62 1087.15 2306.91 1003.25 2644.36 1043.54 2497.87 1270.97 2284.17 1409.42 2523.84 1440.42
00043372 00000005 1988.49 583.82 782.63 1073.04 2290.51 998.17 2634.43 1038.85 2479.96 1258.05 2268.34 1395.34 2518.05 1425.95
00043373 00000006 1968.12 566.82 792.44 1068.26 2272.28 989.93 2613.78 1043.53 2448.93 1242.20 2253.48 1365.95 2499.67 1412.19
00043374 00000007 1967.32 617.78 771.85 1010.27 2259.48 977.27 2590.87 1013.25 2446.44 1223.44 2237.08 1363.47 2486.16 1391.20
00043375 00000008 1941.78 572.02 785.21 1057.93 2245.61 969.66 2576.50 1012.58 2428.03 1231.38 2227.55 1358.50 2475.23 1396.21
00043376 DELETE   1931.71 549.05 787.00 1085.61 2226.04 958.78 2563.57 999.35 2418.69 1220.20 2208.88 1355.19 2473.15 1391.73
00043377 00000010 1922.54 527.09 790.31 1109.06 2218.86 951.32 2560.00 993.09 2416.54 1213.68 2196.93 1349.31 2472.00 1387.43
00043378 00000011 1916.26 560.29 791.97 1074.20 2214.41 948.52 2557.89 984.15 2412.50 1210.16 2192.08 1343.66 2476.70 1376.43
00043379 00000012 1913.78 552.51 790.03 1066.35 2208.78 945.52 2554.40 975.55 2408.74 1201.31 2193.31 1335.84 2477.53 1363.72
00043380 00000013 1918.90 523.47 788.63 1081.05 2202.68 936.74 2552.05 961.18 2408.29 1187.85 2209.55 1338.81 2478.84 1361.75
00043381 00000014 1925.28 541.29 782.03 1055.21 2203.68 930.53 2554.43 955.83 2406.44 1177.30 2225.57 1338.20 2481.32 1360.56
00043382 00000015 1926.88 532.58 782.00 1058.20 2208.95 925.42 2557.91 950.69 2413.56 1166.76 2237.22 1335.17 2485.54 1357.22
00043383 00000016 1934.57 532.66 770.83 1053.30 2213.99 923.58 2567.20 956.34 2433.17 1152.47 2244.44 1329.84 2507.47 1354.69
00043384 00000017 1934.91 522.54 771.19 1042.87 2209.12 917.26 2570.52 954.19 2431.56 1142.13 2229.61 1306.59 2512.46 1336.17
00043385 00000018 1923.54 513.64 781.28 1049.46 2202.56 905.06 2561.67 950.52 2416.97 1122.42 2203.54 1283.56 2496.86 1321.90
00043386 DELETE   1919.76 527.26 778.50 1028.27 2188.55 898.30 2557.18 944.63 2401.06 1111.56 2183.22 1275.55 2486.08 1315.30
00043387 00000020 1917.08 523.30 779.16 1023.99 2182.56 893.05 2550.06 940.97 2385.71 1106.73 2170.84 1269.99 2472.30 1311.15
00043388 00000021 1919.08 519.73 777.91 1024.72 2184.76 884.20 2547.16 936.40 2380.31 1095.73 2168.17 1263.37 2467.20 1307.83
00043389 00000022 1922.40 509.76 779.14 1032.70 2189.39 880.91 2551.79 936.39 2383.11 1097.94 2170.81 1258.66 2473.79 1305.67
00043390 DELETE   1922.45 507.40 780.79 1035.82 2191.41 884.21 2555.75 941.11 2387.91 1104.40 2173.17 1258.28 2479.40 1306.30
00043391 00000024 1920.84 490.46 784.13 1055.39 2192.10 892.66 2559.77 949.16 2397.66 1116.95 2173.09 1261.64 2486.09 1309.61
00043392 00000025 1926.26 493.09 779.62 1057.56 2201.81 888.73 2563.49 944.87 2407.91 1107.54 2180.15 1260.22 2491.71 1308.00
00043393 00000026 1925.91 502.98 775.24 1051.10 2210.24 881.38 2565.88 936.55 2418.86 1097.86 2187.14 1256.08 2497.04 1303.47
00043394 00000027 1914.93 496.65 782.14 1055.24 2203.15 876.62 2557.19 933.22 2412.43 1096.36 2181.23 1254.48 2483.60 1302.44
00043395 00000028 1900.91 508.82 787.33 1043.23 2187.16 878.11 2538.66 931.61 2392.72 1096.92 2171.29 1261.77 2458.62 1306.61
00043396 00000029 1885.71 518.42 781.08 1033.68 2171.81 874.29 2517.55 925.36 2365.66 1092.19 2163.67 1266.17 2426.25 1307.85
00043397 00000030 1879.08 522.46 772.49 1022.11 2157.04 874.16 2507.57 923.08 2343.99 1094.42 2155.32 1270.25 2409.57 1308.93
00043398 00000031 1872.18 517.13 774.40 1026.51 2153.49 875.97 2504.40 922.36 2341.56 1093.65 2155.85 1272.04 2407.90 1307.51
00043399 00000032 1874.71 515.93 769.63 1022.26 2153.00 869.66 2505.81 915.40 2343.57 1086.86 2157.74 1267.22 2409.46 1301.92
00043400 00000033 1876.02 502.74 767.54 1026.03 2153.05 858.71 2503.61 904.42 2342.37 1074.28 2154.91 1257.11 2406.68 1291.75
00043401 00000034 1875.94 494.20 764.65 1028.32 2147.74 855.38 2500.08 903.36 2336.97 1066.90 2147.46 1250.32 2404.03 1286.84
00043402 00000035 1875.46 501.39 763.32 1019.43 2147.32 854.37 2498.19 902.67 2334.82 1065.20 2145.52 1246.83 2401.66 1283.62
00043403 00000036 1876.89 497.80 765.18 1023.40 2149.13 852.92 2500.21 902.10 2336.64 1066.04 2147.76 1246.77 2403.44 1284.34
00043404 00000037 1883.44 487.92 764.29 1035.12 2157.30 849.55 2507.68 898.74 2349.04 1068.78 2157.67 1250.53 2409.89 1288.41
00043405 00000038 1889.16 489.18 765.30 1035.02 2168.01 848.18 2515.79 897.98 2364.93 1068.79 2168.52 1250.84 2421.03 1289.71
00043406 00000039 1895.47 498.72 766.16 1025.19 2174.99 850.14 2522.28 899.54 2369.86 1067.66 2172.92 1250.21 2428.02 1289.21
00043407 00000040 1899.01 499.82 765.79 1023.32 2175.28 850.38 2521.53 900.82 2368.51 1066.82 2170.31 1247.40 2428.28 1287.62
00043408 00000041 1898.81 502.84 769.16 1019.81 2173.38 848.79 2520.64 899.78 2364.62 1065.75 2167.57 1245.35 2425.71 1285.89
00043409 00000042 1897.66 503.71 768.72 1018.28 2171.69 848.59 2517.94 898.93 2361.95 1066.17 2164.58 1244.38 2422.26 1284.65
00043410 00000043 1897.66 499.23 769.40 1021.01 2171.16 848.02 2518.39 898.62 2363.81 1063.38 2165.55 1243.51 2424.27 1283.89
00043411 00000044 1901.17 502.50 770.39 1019.49 2177.79 849.70 2527.04 898.18 2373.39 1065.55 2173.38 1245.53 2436.45 1284.10
00043412 00000045 1901.33 505.86 771.74 1017.26 2185.09 851.81 2533.00 900.46 2384.35 1068.69 2178.54 1243.60 2447.35 1282.48
00043413 00000046 1901.64 495.43 769.96 1027.41 2187.53 850.60 2535.17 903.07 2389.27 1066.99 2171.83 1236.12 2449.92 1278.98
00043414 00000047 1898.38 492.20 770.14 1029.97 2183.54 844.48 2528.50 898.72 2383.34 1058.34 2167.34 1231.10 2439.36 1275.23
00043415 00000048 1893.97 491.02 766.01 1033.86 2171.94 840.98 2518.17 895.04 2368.91 1055.74 2155.51 1227.27 2432.87 1271.75
00043416 00000049 1892.17 495.55 763.18 1028.11 2164.08 836.34 2512.35 892.28 2359.21 1054.72 2145.34 1224.12 2424.84 1271.02
00043417 00000050 1897.92 484.00 765.31 1035.11 2167.60 837.19 2515.99 888.71 2363.70 1050.81 2152.39 1226.93 2430.02 1270.06
00043418 00000051 1912.11 465.40 770.25 1047.61 2189.48 832.75 2541.52 886.15 2390.37 1053.54 2177.93 1229.52 2454.59 1273.79
00043419 00000052 1928.65 466.01 762.91 1037.10 2204.75 833.64 2558.46 880.75 2405.95 1056.60 2199.27 1233.73 2475.99 1273.59
00043420 00000053 1935.78 463.95 760.18 1032.64 2209.82 831.16 2564.04 877.61 2410.53 1056.78 2205.35 1233.68 2478.40 1272.98
00043421 00000054 1936.22 476.71 764.23 1025.39 2209.07 830.08 2563.29 883.61 2399.43 1059.63 2192.81 1233.60 2467.99 1279.33
00043422 00000055 1931.66 501.82 770.33 1006.00 2200.29 831.70 2552.48 892.92 2379.52 1063.18 2174.73 1231.81 2447.98 1284.05
00043423 00000056 1931.30 506.94 769.75 1001.86 2199.83 829.37 2550.27 894.09 2374.29 1060.25 2169.83 1226.71 2443.01 1282.24
00043424 00000057 1931.93 507.87 773.87 1014.13 2210.37 841.13 2555.51 902.43 2382.84 1072.53 2174.64 1227.39 2438.42 1275.57
00043425 00000058 1941.85 497.11 774.64 1020.86 2230.67 848.41 2571.21 903.53 2414.85 1071.57 2198.06 1232.04 2466.63 1275.48
00043426 DELETE   1955.17 502.93 769.70 1003.81 2252.47 851.97 2591.67 897.41 2443.40 1066.00 2225.82 1232.59 2489.51 1268.02
00043427 00000060 1956.07 487.18 768.35 1013.63 2254.43 845.36 2589.59 888.59 2448.38 1057.46 2232.57 1226.35 2488.20 1260.24
00043428 00000061 1946.89 477.84 767.99 1025.43 2239.15 836.40 2573.18 886.88 2429.57 1053.92 2214.23 1223.00 2467.04 1263.03
00043429 DELETE   1936.20 486.10 765.59 1013.27 2220.18 834.47 2560.25 898.74 2403.39 1052.99 2192.93 1221.81 2458.10 1276.59
00043430 DELETE   1928.63 482.66 765.70 1009.59 2204.93 833.85 2543.29 901.25 2383.61 1035.22 2175.63 1210.65 2436.41 1267.68
00043431 DELETE   1921.56 458.42 766.09 1027.99 2192.47 828.85 2537.25 896.17 2378.03 1034.58 2167.11 1207.92 2430.13 1264.67
00043432 00000065 1910.18 447.40 770.63 1042.84 2190.09 820.10 2535.05 883.57 2379.89 1035.02 2170.60 1213.54 2426.29 1266.68
00043433 00000066 1896.34 462.57 766.62 1028.74 2180.34 817.34 2528.37 872.53 2377.91 1032.53 2171.83 1219.62 2421.66 1264.01
00043434 00000067 1875.99 469.49 761.31 1022.03 2163.90 818.89 2512.61 865.11 2367.95 1026.37 2162.48 1220.85 2413.08 1256.28
00043435 00000068 1853.39 475.18 764.52 1013.10 2145.37 822.31 2491.23 862.53 2346.08 1034.11 2143.82 1220.96 2388.07 1250.39
00043436 00000069 1822.17 468.78 774.46 1022.97 2119.49 826.84 2459.97 860.92 2324.08 1040.05 2122.39 1220.31 2362.10 1245.74
00043437 00000070 1801.31 480.29 768.71 1015.48 2093.81 827.70 2434.45 865.77 2299.22 1041.24 2091.72 1220.43 2338.43 1249.96
00043438 00000071 1788.46 460.52 760.53 1032.98 2067.33 826.92 2418.61 868.94 2279.57 1043.40 2062.90 1219.42 2343.29 1255.35
00043439 00000072 1774.80 450.60 766.58 1047.66 2052.79 832.38 2404.19 872.68 2268.56 1042.85 2052.42 1219.82 2332.32 1254.12
00043440 00000073 1763.38 446.35 771.18 1057.84 2045.46 833.33 2397.83 878.05 2262.27 1044.26 2041.46 1220.69 2323.26 1258.07
00043441 00000074 1754.22 454.03 771.28 1052.44 2038.22 831.25 2391.77 876.86 2254.28 1042.71 2033.48 1224.19 2309.29 1262.01
00043442 00000075 1747.74 453.96 772.95 1055.43 2032.39 829.13 2387.68 875.25 2248.79 1044.55 2029.99 1228.14 2301.29 1266.17
00043443 00000076 1751.12 457.00 768.98 1047.90 2031.08 826.21 2387.15 872.04 2244.71 1045.71 2028.10 1227.13 2298.17 1265.38
00043444 00000077 1753.08 454.43 767.81 1049.30 2035.21 823.60 2388.81 871.07 2246.87 1042.12 2027.59 1224.21 2295.95 1264.29
00043445 00000078 1753.86 456.90 775.20 1059.89 2041.42 821.57 2392.42 872.07 2250.29 1039.13 2025.89 1224.86 2297.01 1267.50
00043446 00000079 1761.27 468.00 768.82 1043.10 2056.54 825.55 2392.42 885.28 2254.56 1031.31 2033.14 1217.73 2295.17 1268.05
00043447 00000080 1774.34 470.71 755.92 1028.29 2064.63 822.45 2397.40 886.77 2260.99 1015.85 2036.34 1205.99 2298.66 1260.84
00043448 00000081 1774.88 456.89 759.27 1032.92 2083.47 819.43 2399.51 892.63 2266.71 1013.08 2053.01 1192.77 2304.06 1255.35
00043449 00000082 1781.76 437.36 764.13 1047.02 2086.52 811.83 2409.50 887.26 2273.50 1015.64 2059.21 1192.20 2311.82 1256.83
00043450 00000083 1782.79 447.12 775.89 1037.01 2091.85 802.11 2421.70 872.44 2267.33 1018.44 2056.26 1187.42 2305.07 1246.52
00043451 00000084 1787.27 430.97 777.51 1047.94 2097.18 797.79 2430.55 870.29 2275.13 1013.81 2063.90 1184.74 2313.48 1245.33
00043452 00000085 1793.24 427.44 780.62 1051.26 2107.02 795.20 2440.96 870.99 2285.20 1012.01 2072.32 1182.28 2322.91 1245.26
00043453 00000086 1806.93 457.78 772.39 1022.06 2116.55 795.56 2443.37 873.75 2295.48 1021.13 2078.04 1180.24 2319.78 1242.27
00043454 00000087 1817.20 453.31 778.91 1018.78 2130.39 796.29 2459.25 875.44 2314.17 1023.94 2095.00 1179.75 2337.54 1242.12
00043455 00000088 1816.43 422.52 783.86 1057.46 2148.28 803.91 2478.29 882.59 2335.06 1028.15 2117.43 1186.75 2362.47 1250.70
00043456 00000089 1834.49 448.53 771.31 1024.39 2152.88 800.96 2482.31 874.96 2345.37 1025.07 2122.54 1190.28 2364.87 1247.39
00043457 00000090 1841.17 451.75 771.80 1019.10 2157.99 799.43 2490.03 873.28 2350.90 1024.78 2130.04 1190.82 2372.82 1247.35
00043458 00000091 1848.61 450.13 768.52 1020.82 2163.78 798.93 2497.75 871.68 2356.30 1028.81 2137.67 1193.82 2382.55 1249.36
00043459 00000092 1855.77 452.38 766.34 1018.26 2168.90 799.25 2503.37 871.24 2359.91 1028.80 2142.49 1194.23 2387.01 1249.08
00043460 00000093 1860.38 458.86 764.36 1012.52 2170.94 797.94 2507.02 869.95 2361.05 1028.09 2144.00 1194.30 2388.16 1249.18
00043461 00000094 1861.83 460.20 766.96 1013.16 2170.72 798.69 2508.98 869.51 2358.88 1029.72 2143.71 1197.01 2388.02 1250.73
00043462 00000095 1870.98 450.86 764.57 1024.74 2177.98 798.47 2514.96 872.34 2363.72 1031.73 2148.68 1198.68 2392.93 1255.31
00043463 00000096 1879.98 450.09 763.98 1027.43 2182.18 798.56 2521.13 873.14 2370.31 1028.39 2155.44 1198.23 2402.37 1256.10
00043464 00000097 1888.59 452.39 763.99 1024.22 2188.48 797.92 2531.23 874.03 2381.33 1028.89 2162.68 1196.38 2416.24 1256.55
00043465 00000098 1896.62 453.47 759.44 1022.06 2196.18 801.54 2538.32 879.74 2393.07 1027.18 2169.51 1192.94 2431.13 1256.08
00043466 00000099 1890.21 443.53 771.16 1032.02 2211.99 806.97 2542.81 885.84 2409.13 1027.20 2192.80 1188.76 2442.75 1253.57
00043467 00000100 1891.97 451.29 769.15 1023.50 2212.08 806.19 2543.22 885.83 2413.21 1025.37 2186.92 1185.54 2441.78 1252.40
00043468 00000101 1894.55 452.47 759.85 1021.76 2196.38 793.09 2538.15 876.31 2397.70 1024.88 2151.71 1182.81 2429.02 1253.01
00043469 00000102 1882.99 451.28 759.99 1022.72 2183.96 790.31 2527.42 871.11 2380.88 1024.51 2138.40 1184.64 2414.99 1251.70
00043470 00000103 1870.37 456.73 764.33 1016.77 2176.35 801.23 2518.06 879.52 2367.90 1027.86 2139.70 1187.10 2406.42 1249.26
00043471 00000104 1865.47 459.97 767.76 1018.26 2179.17 830.82 2504.43 910.91 2358.60 1034.86 2138.74 1190.40 2397.36 1254.24
00043472 00000105 1867.12 466.15 766.16 1022.43 2180.49 835.64 2506.09 915.36 2361.79 1037.78 2136.42 1195.42 2402.00 1259.79
00043473 00000106 1865.73 472.35 761.75 1019.13 2174.07 833.78 2500.19 908.56 2355.99 1037.22 2127.30 1195.34 2394.62 1256.18
00043474 00000107 1859.49 473.06 766.27 1016.70 2165.53 831.88 2500.81 909.41 2351.98 1037.49 2113.89 1190.57 2400.75 1253.81
00043475 00000108 1858.91 483.92 766.08 1002.08 2164.52 819.23 2503.17 893.65 2353.67 1036.52 2116.21 1187.01 2402.51 1246.98
00043476 00000109 1854.83 482.36 768.28 1007.17 2162.52 815.81 2499.66 887.75 2350.90 1041.26 2113.44 1187.91 2397.47 1245.93
00043477 00000110 1853.60 477.57 771.78 1018.65 2166.69 812.91 2500.28 887.97 2353.09 1046.56 2112.65 1189.97 2392.64 1250.94
00043478 00000111 1857.62 473.20 772.41 1040.68 2176.40 809.15 2505.05 889.87 2360.96 1050.84 2109.58 1200.68 2382.22 1267.78
00043479 00000112 1855.38 468.20 775.20 1050.91 2173.05 808.29 2505.49 890.97 2360.17 1051.07 2104.62 1208.41 2377.37 1277.29
00043480 00000113 1861.73 460.25 769.38 1034.90 2171.29 799.78 2510.61 883.98 2363.41 1037.79 2105.32 1192.26 2389.80 1263.14
00043481 00000114 1837.53 426.55 782.84 1064.61 2150.25 795.69 2495.70 880.84 2346.12 1020.92 2101.49 1183.79 2381.20 1255.57
00043482 00000115 1834.13 423.80 790.12 1040.29 2145.50 780.30 2498.19 871.47 2328.60 987.95 2091.48 1151.84 2378.64 1227.75
00043483 00000116 1828.01 433.01 793.64 1021.09 2131.65 771.70 2484.75 866.60 2292.63 982.68 2064.87 1140.64 2352.36 1219.18
00043484 00000117 1832.34 417.81 791.62 1023.64 2134.83 768.39 2485.05 869.58 2291.91 977.72 2069.59 1130.15 2354.89 1213.67
00043485 00000118 1837.76 417.38 790.10 1016.54 2142.10 773.24 2489.01 874.32 2302.02 981.03 2082.39 1130.01 2363.89 1213.02
00043486 00000119 1846.57 428.98 789.26 1004.73 2159.29 775.43 2507.14 882.32 2329.96 987.83 2099.83 1128.84 2384.13 1216.85
00043487 00000120 1857.84 424.42 783.06 1016.82 2172.53 778.51 2514.94 880.21 2351.33 992.84 2120.42 1138.60 2397.97 1223.11
00043488 00000121 1867.12 433.75 777.65 1011.04 2183.61 778.80 2521.06 881.20 2365.48 996.26 2132.00 1142.77 2404.18 1228.09
00043489 00000122 1869.63 451.19 775.69 997.98 2188.37 782.90 2523.51 880.46 2368.64 1005.02 2136.47 1150.36 2403.20 1231.37
00043490 00000123 1873.01 453.05 775.87 998.32 2192.19 782.60 2525.04 879.08 2369.41 1009.09 2140.83 1155.18 2402.50 1235.09
00043491 00000124 1872.89 458.31 779.03 995.10 2193.80 783.01 2525.09 877.76 2368.49 1011.08 2144.68 1158.04 2401.54 1235.86
00043492 00000125 1876.08 468.47 774.18 990.35 2182.79 778.24 2520.57 875.43 2354.81 1011.84 2129.94 1162.55 2388.87 1240.07
00043493 00000126 1878.58 466.96 774.94 998.98 2185.39 780.22 2521.00 874.40 2356.38 1012.10 2139.46 1170.13 2390.37 1244.31
00043494 00000127 1886.22 471.41 769.88 994.28 2188.04 782.33 2523.87 873.68 2361.47 1011.75 2146.86 1173.09 2397.10 1244.95
00043495 00000128 1885.03 465.21 769.65 999.34 2188.00 781.92 2525.72 874.34 2365.53 1010.70 2145.98 1171.68 2402.57 1244.95
00043496 00000129 1885.11 456.75 768.30 1006.32 2186.50 781.85 2525.72 873.87 2366.99 1010.43 2145.84 1171.73 2405.03 1244.98
00043497 00000130 1883.08 460.80 768.01 1000.94 2185.89 783.25 2524.82 874.25 2365.04 1012.31 2144.37 1171.95 2403.10 1244.28
00043498 00000131 1877.61 449.86 773.32 1010.24 2196.00 788.54 2525.60 874.01 2375.37 1015.73 2161.74 1168.71 2411.54 1237.97
00043499 00000132 1876.31 445.23 771.62 1010.66 2193.48 787.68 2524.53 875.02 2374.38 1010.96 2159.17 1163.64 2412.77 1234.60
00043500 00000133 1872.88 443.40 773.27 1010.71 2190.94 788.61 2522.98 876.67 2372.65 1011.30 2154.70 1160.86 2411.53 1232.47
00043501 00000134 1871.03 441.11 773.10 1014.35 2187.66 789.06 2523.02 878.17 2371.23 1011.52 2147.89 1159.36 2411.62 1232.55
00043502 00000135 1867.15 434.38 777.14 1037.85 2190.20 786.61 2520.08 879.32 2371.15 1014.21 2143.39 1162.99 2403.60 1239.94
00043503 00000136 1868.71 450.42 769.34 1030.56 2177.41 785.13 2516.76 873.57 2359.78 1015.14 2125.18 1176.78 2389.58 1248.04
00043504 00000137 1862.14 453.84 776.38 1032.66 2176.26 782.51 2518.56 881.15 2356.36 1014.53 2118.95 1168.99 2391.07 1248.06
00043505 00000138 1859.40 450.41 778.42 1037.54 2174.59 780.77 2516.69 880.84 2356.42 1009.75 2117.26 1168.18 2389.30 1248.58
00043506 00000139 1850.85 429.36 788.40 1074.32 2178.28 781.04 2516.20 883.38 2368.54 1008.15 2120.21 1171.21 2393.68 1256.41
00043507 00000140 1857.80 463.83 773.40 1024.62 2169.88 781.69 2507.82 868.69 2351.90 1009.43 2110.77 1175.33 2373.04 1245.06
00043508 00000141 1857.62 462.99 771.97 1028.23 2163.47 781.88 2505.62 866.13 2347.59 1008.07 2104.85 1177.16 2371.64 1245.56
00043509 00000142 1853.16 461.78 775.48 1031.99 2159.94 781.01 2502.69 864.27 2344.62 1007.10 2100.60 1177.04 2368.03 1244.89
00043510 00000143 1854.19 460.00 775.31 1034.64 2156.61 780.91 2501.38 863.27 2341.84 1004.19 2100.30 1177.77 2366.62 1244.99
00043511 00000144 1851.27 453.67 776.86 1041.25 2151.31 780.30 2498.29 862.41 2338.79 1002.36 2100.11 1179.07 2365.00 1245.87
00043512 00000145 1848.36 457.97 776.76 1036.53 2146.41 781.97 2493.36 862.45 2333.48 1001.48 2097.85 1179.37 2362.43 1244.74
00043513 00000146 1848.69 449.98 772.55 1040.16 2144.77 801.24 2480.72 876.22 2327.63 1001.60 2099.46 1179.01 2363.52 1241.38
00043514 00000147 1846.55 446.77 771.49 1042.47 2143.77 800.13 2479.61 875.64 2327.10 1005.01 2099.05 1179.06 2360.37 1241.47
00043515 00000148 1847.02 437.13 773.66 1046.34 2140.66 796.45 2483.11 870.40 2331.94 1009.27 2102.51 1184.36 2363.95 1244.47
00043516 00000149 1835.05 406.67 779.74 1071.39 2145.13 798.87 2487.47 875.50 2338.61 1003.80 2117.91 1181.43 2380.76 1244.48
00043517 00000150 1840.52 406.46 774.91 1062.48 2136.55 800.30 2487.72 876.18 2331.24 1008.22 2119.62 1177.62 2390.98 1240.30
00043518 00000151 1846.69 410.69 770.92 1053.99 2134.98 801.86 2491.99 874.25 2331.99 1010.13 2127.74 1179.39 2401.57 1239.03
00043519 00000152 1849.22 419.17 769.99 1050.95 2138.13 806.15 2494.51 875.72 2336.75 1017.09 2132.64 1183.40 2405.92 1240.56
00043520 00000153 1852.91 417.50 768.20 1055.31 2142.66 807.45 2498.16 877.90 2343.97 1018.55 2139.05 1185.90 2411.51 1244.01
00043521 00000154 1856.57 419.43 768.07 1059.41 2147.14 809.85 2502.04 879.78 2350.56 1021.97 2143.43 1191.58 2416.94 1249.57
00043522 00000155 1854.79 429.46 770.82 1059.00 2152.09 812.18 2506.63 881.89 2354.35 1029.86 2144.08 1196.67 2418.18 1254.35
00043523 00000156 1858.69 453.69 764.35 1034.60 2147.00 811.22 2503.31 876.63 2347.77 1030.00 2132.63 1203.40 2406.97 1253.85
