Video ID: 	cezpTGAkqUU
H: 	2160
W: 	3840
FPS: 	60.0

FRAME INDEX X0 Y0 W H [Landmarks (5 Points)]

00008719 00000000 1548.13 953.36 563.42 837.72 1826.54 1396.05 2059.60 1299.97 2047.74 1513.72 1903.65 1657.55 2074.19 1589.57
00008720 00000001 1550.73 958.23 565.36 841.13 1831.66 1398.08 2063.30 1301.54 2054.36 1514.87 1906.07 1660.14 2078.48 1591.97
00008721 00000002 1556.23 957.69 568.24 842.56 1838.68 1399.73 2068.16 1304.00 2058.63 1517.27 1913.37 1660.30 2082.64 1592.50
00008722 DELETE   1561.34 960.09 566.29 840.84 1847.38 1402.82 2072.41 1308.13 2064.28 1521.28 1918.42 1660.04 2084.25 1592.68
00008723 DELETE   1567.06 966.89 562.02 837.73 1861.94 1407.35 2077.60 1314.66 2072.33 1523.82 1927.28 1660.56 2086.39 1596.27
00008724 00000005 1574.26 979.75 564.24 826.64 1876.30 1410.16 2086.75 1318.97 2087.63 1523.63 1934.49 1661.47 2091.04 1598.13
00008725 DELETE   1581.72 993.25 570.42 812.24 1885.21 1409.23 2097.12 1327.39 2094.29 1527.90 1941.74 1664.55 2096.67 1607.58
00008726 00000007 1584.30 999.11 571.18 806.64 1889.31 1409.39 2110.58 1330.93 2102.56 1526.87 1943.35 1667.15 2101.76 1613.08
00008727 00000008 1588.17 991.68 573.57 818.80 1899.51 1415.12 2120.16 1333.44 2113.02 1530.16 1948.73 1668.08 2108.74 1611.96
00008728 00000009 1594.30 986.96 574.89 828.06 1912.52 1418.07 2129.50 1338.20 2124.42 1528.05 1957.03 1668.84 2114.84 1614.90
00008729 00000010 1598.55 989.90 573.15 828.54 1921.96 1422.19 2135.43 1338.57 2134.72 1531.72 1961.82 1671.97 2119.70 1615.25
00008730 DELETE   1610.70 992.91 569.31 825.65 1930.13 1423.58 2142.23 1340.78 2140.12 1534.90 1971.68 1671.27 2127.35 1614.51
00008731 00000012 1617.50 1000.25 567.70 815.88 1939.41 1424.90 2146.62 1345.23 2146.65 1534.08 1979.30 1669.31 2131.89 1614.75
00008732 DELETE   1625.11 1000.49 568.81 817.28 1948.79 1426.87 2154.01 1345.07 2157.88 1533.46 1987.75 1671.57 2139.23 1616.04
00008733 00000014 1630.32 994.77 571.01 827.12 1956.62 1429.45 2162.27 1344.67 2168.52 1534.55 1993.19 1675.44 2146.23 1618.61
00008734 00000015 1636.39 1000.76 569.71 822.12 1963.10 1435.74 2168.08 1353.84 2172.67 1538.64 1999.03 1678.88 2150.95 1624.22
00008735 00000016 1640.45 1001.75 572.34 824.60 1968.21 1440.75 2173.21 1359.03 2179.41 1542.85 2002.16 1683.58 2155.03 1629.22
00008736 00000017 1648.39 1011.43 568.06 814.24 1973.95 1444.44 2173.65 1365.12 2182.66 1542.25 2010.88 1685.70 2158.42 1633.09
00008737 00000018 1653.36 1019.96 567.33 805.96 1976.89 1446.06 2176.52 1367.76 2184.06 1544.63 2014.70 1688.83 2161.65 1636.53
00008738 00000019 1656.72 1025.32 565.92 798.54 1983.58 1447.64 2176.95 1367.36 2189.83 1542.48 2021.85 1687.29 2163.20 1633.92
00008739 DELETE   1662.30 1032.85 561.93 790.55 1985.65 1448.14 2176.89 1369.33 2190.06 1541.84 2024.47 1684.94 2164.36 1632.39
00008740 DELETE   1666.15 1031.74 560.10 789.81 1990.58 1447.87 2178.10 1367.52 2194.00 1538.85 2024.73 1682.12 2162.99 1628.82
00008741 DELETE   1670.66 1032.15 559.14 785.58 1992.80 1447.93 2179.90 1364.67 2197.57 1535.41 2027.27 1679.87 2166.22 1624.71
00008742 00000023 1663.28 1030.09 555.91 784.79 1985.32 1444.60 2179.32 1359.94 2197.30 1529.37 2021.73 1682.30 2164.46 1626.26
00008743 00000024 1665.49 1026.93 557.40 785.40 1985.65 1442.61 2182.72 1354.61 2198.80 1528.92 2025.01 1680.74 2169.73 1621.73
00008744 DELETE   1669.55 1026.94 555.15 783.64 1986.45 1439.91 2185.80 1350.97 2200.27 1529.47 2026.65 1679.44 2173.48 1619.39
00008745 00000026 1670.05 1020.16 556.62 785.01 1987.22 1438.78 2185.92 1349.14 2198.99 1528.01 2027.85 1675.80 2174.63 1615.37
00008746 DELETE   1673.73 1018.53 550.95 788.54 1986.11 1435.68 2185.22 1348.41 2199.60 1526.17 2026.44 1675.60 2173.70 1617.32
00008747 DELETE   1672.76 1014.56 554.79 789.36 1985.58 1435.48 2186.05 1348.17 2198.05 1524.55 2028.58 1674.56 2175.44 1616.31
00008748 00000029 1671.72 1007.88 556.06 795.86 1980.94 1432.94 2186.14 1342.79 2195.62 1524.16 2028.52 1673.26 2178.95 1612.82
00008749 DELETE   1671.53 1005.58 556.76 794.43 1979.10 1432.97 2186.35 1342.02 2193.00 1524.28 2026.95 1671.40 2178.49 1610.29
00008750 00000031 1670.45 1008.12 556.03 792.40 1978.48 1429.56 2187.34 1340.64 2191.99 1523.29 2025.50 1669.95 2178.44 1610.25
00008751 00000032 1668.72 1001.43 556.15 798.06 1976.25 1430.27 2186.55 1342.10 2189.04 1527.42 2021.95 1670.31 2175.68 1611.33
00008752 00000033 1665.91 1006.16 556.08 793.24 1974.67 1429.54 2185.99 1343.11 2186.75 1527.00 2018.46 1668.18 2173.37 1610.24
00008753 00000034 1664.67 1004.70 556.49 796.39 1971.88 1428.64 2185.01 1343.27 2183.30 1532.76 2013.89 1669.44 2170.16 1611.90
00008754 DELETE   1660.84 1003.66 562.09 798.29 1969.52 1430.46 2184.33 1346.53 2180.94 1537.64 2009.38 1673.19 2167.42 1616.70
00008755 00000036 1658.47 1002.83 562.47 801.21 1968.02 1429.60 2184.28 1347.46 2179.04 1539.37 2006.66 1674.43 2164.45 1619.25
00008756 00000037 1660.60 1006.94 562.40 796.75 1968.59 1429.12 2184.63 1350.64 2176.86 1543.00 2004.62 1675.41 2161.05 1622.59
00008757 00000038 1662.70 1007.32 559.92 800.01 1966.53 1429.58 2184.03 1352.69 2174.84 1546.12 2000.50 1675.49 2158.71 1623.74
00008758 DELETE   1660.49 1007.56 560.62 804.46 1965.75 1429.30 2182.25 1354.96 2173.12 1548.86 1995.66 1674.51 2154.76 1624.79
00008759 DELETE   1658.05 1012.71 563.82 798.62 1965.14 1428.16 2181.96 1356.33 2169.97 1550.25 1994.87 1676.30 2151.69 1628.04
00008760 00000041 1657.79 1010.23 564.57 806.08 1963.54 1426.82 2182.57 1356.59 2169.76 1552.73 1989.69 1675.92 2150.46 1628.83
00008761 00000042 1659.58 1009.44 562.27 810.45 1963.08 1426.67 2181.06 1358.09 2168.33 1555.88 1986.97 1676.48 2146.67 1630.52
00008762 DELETE   1660.32 1007.67 564.47 814.24 1966.24 1424.30 2181.41 1358.61 2169.47 1557.09 1985.90 1675.06 2143.32 1631.20
00008763 00000044 1661.92 1004.36 566.26 820.99 1969.66 1421.71 2182.40 1359.52 2171.19 1556.35 1986.30 1674.45 2142.53 1633.30
00008764 00000045 1665.71 1007.82 566.13 818.25 1974.36 1421.48 2184.12 1361.55 2175.59 1556.04 1986.76 1671.66 2142.89 1632.15
00008765 00000046 1669.99 1006.22 569.33 819.18 1979.59 1419.51 2191.87 1359.83 2181.61 1554.94 1990.50 1672.43 2147.98 1633.01
00008766 DELETE   1676.05 1008.87 570.27 815.83 1987.90 1417.68 2199.19 1365.95 2187.35 1551.58 1994.30 1672.86 2150.63 1639.47
00008767 00000048 1688.05 1011.59 565.07 804.30 1997.05 1405.99 2206.51 1366.03 2185.39 1549.96 2001.08 1669.52 2149.75 1643.92
00008768 00000049 1692.33 1002.57 570.81 812.43 2005.29 1405.19 2211.69 1367.85 2190.33 1547.77 2004.66 1667.89 2150.89 1644.81
00008769 00000050 1701.40 1003.57 573.84 809.37 2015.27 1402.99 2217.33 1374.35 2192.44 1549.33 2010.74 1668.61 2149.93 1651.75
00008770 00000051 1711.69 1000.03 571.43 809.60 2022.80 1402.09 2224.87 1378.90 2197.33 1549.46 2014.22 1666.53 2153.57 1653.65
00008771 00000052 1716.20 1000.85 570.45 814.92 2029.04 1406.09 2227.17 1387.71 2201.54 1553.38 2015.45 1669.20 2153.40 1659.74
00008772 00000053 1725.17 1013.76 570.16 799.21 2036.65 1402.41 2232.69 1388.93 2204.92 1556.36 2016.95 1668.85 2152.46 1662.52
00008773 00000054 1730.61 1020.63 568.65 786.72 2050.20 1401.44 2233.65 1398.80 2212.36 1557.85 2018.54 1663.64 2149.25 1663.84
00008774 00000055 1737.03 1030.46 569.58 779.12 2060.29 1401.78 2240.98 1403.45 2219.86 1562.60 2019.16 1662.25 2150.25 1666.07
00008775 00000056 1740.96 1029.67 575.63 781.56 2072.02 1400.27 2247.41 1408.67 2227.00 1565.74 2024.89 1662.38 2149.15 1670.10
00008776 00000057 1748.97 1030.35 578.83 779.82 2084.80 1398.97 2254.40 1405.94 2237.94 1567.03 2030.45 1662.53 2147.60 1669.71
00008777 DELETE   1755.20 1021.80 580.16 784.15 2093.47 1393.14 2261.39 1400.04 2246.42 1563.71 2036.06 1660.65 2150.89 1668.05
00008778 00000059 1760.33 1014.89 585.74 791.36 2101.96 1390.62 2269.04 1398.78 2254.53 1563.65 2039.38 1658.93 2152.30 1667.57
00008779 DELETE   1771.36 1007.37 585.16 797.20 2117.25 1384.56 2279.42 1393.07 2266.42 1562.48 2051.47 1655.89 2159.69 1664.75
00008780 DELETE   1784.61 1021.77 578.26 781.94 2128.05 1376.22 2287.90 1390.33 2273.33 1560.41 2057.82 1649.86 2166.10 1663.45
00008781 00000062 1799.97 1013.79 574.69 787.17 2137.76 1378.09 2294.92 1396.43 2279.89 1562.76 2064.71 1649.24 2170.69 1665.56
00008782 00000063 1813.82 1026.69 561.95 769.53 2145.34 1370.74 2295.44 1403.12 2283.52 1556.44 2064.32 1637.93 2170.27 1664.82
00008783 DELETE   1826.22 1009.62 559.82 781.96 2150.70 1369.47 2301.59 1406.86 2289.43 1555.16 2068.68 1634.96 2171.61 1663.88
00008784 00000065 1834.89 996.56 560.49 804.90 2159.92 1373.91 2296.36 1403.54 2297.76 1560.02 2079.71 1635.55 2168.96 1659.67
00008785 00000066 1841.67 988.31 560.85 817.40 2163.88 1374.77 2303.09 1403.30 2305.55 1558.49 2082.88 1636.32 2172.42 1659.98
00008786 00000067 1843.77 988.49 564.86 819.22 2170.51 1372.38 2307.53 1403.81 2309.81 1559.44 2085.00 1634.46 2173.79 1660.29
00008787 00000068 1851.53 995.95 564.11 815.64 2180.16 1371.79 2311.82 1404.01 2315.39 1567.27 2086.94 1638.24 2171.53 1665.01
00008788 00000069 1850.51 1002.58 578.49 810.74 2189.30 1363.07 2332.72 1408.83 2322.12 1569.85 2076.30 1630.97 2170.57 1668.91
00008789 00000070 1856.17 1017.67 584.84 802.51 2199.11 1364.54 2339.87 1413.80 2324.86 1577.44 2079.25 1632.19 2173.38 1673.29
00008790 DELETE   1869.26 1028.35 570.61 801.81 2206.44 1370.96 2335.42 1414.52 2327.71 1583.08 2082.23 1636.51 2168.36 1675.54
00008791 00000072 1873.70 1042.52 574.91 789.86 2211.46 1378.11 2338.70 1420.28 2328.21 1586.02 2086.95 1637.37 2172.83 1675.33
00008792 00000073 1880.60 1045.66 579.36 790.86 2217.11 1386.29 2344.48 1430.97 2332.41 1590.62 2089.12 1641.83 2172.37 1680.18
00008793 00000074 1884.78 1066.54 582.45 771.06 2223.04 1397.68 2345.07 1441.58 2331.33 1597.48 2092.56 1643.50 2169.92 1681.54
00008794 00000075 1881.55 1077.06 595.87 764.81 2225.11 1404.97 2347.89 1455.86 2325.90 1608.74 2092.95 1648.40 2167.21 1690.77
00008795 00000076 1882.00 1094.75 604.65 749.41 2229.78 1407.19 2355.26 1464.76 2325.96 1621.46 2091.57 1652.27 2168.10 1699.38
00008796 00000077 1891.14 1099.11 609.40 743.03 2228.88 1408.71 2377.82 1476.31 2331.71 1631.61 2085.08 1657.37 2176.85 1714.20
00008797 00000078 1889.67 1115.34 612.27 727.71 2230.09 1420.66 2375.60 1483.59 2327.12 1639.50 2085.94 1664.81 2171.87 1718.20
00008798 00000079 1891.87 1122.25 606.25 726.76 2230.53 1429.49 2370.22 1485.98 2325.40 1649.64 2083.75 1671.59 2165.61 1721.53
00008799 00000080 1891.39 1122.58 612.64 730.84 2233.12 1430.59 2372.91 1491.07 2326.34 1654.70 2082.16 1674.92 2162.31 1727.11
00008800 00000081 1892.76 1124.79 605.97 730.46 2233.34 1433.11 2369.49 1490.76 2324.59 1657.04 2085.29 1679.12 2163.07 1729.22
00008801 00000082 1893.34 1127.61 605.67 732.94 2236.96 1432.12 2370.44 1491.82 2325.98 1663.38 2083.52 1681.09 2159.06 1733.37
00008802 00000083 1893.61 1131.60 603.12 734.41 2238.19 1432.81 2369.74 1493.07 2324.67 1666.90 2082.49 1684.01 2157.95 1737.21
00008803 00000084 1894.64 1134.78 602.33 733.01 2239.22 1434.72 2370.21 1496.06 2324.37 1668.72 2081.58 1685.59 2157.59 1739.50
00008804 00000085 1893.22 1130.52 606.92 739.48 2238.54 1436.00 2370.98 1495.72 2325.51 1670.02 2080.27 1689.50 2155.55 1741.95
00008805 00000086 1894.57 1129.40 604.55 741.55 2237.96 1439.03 2368.95 1497.91 2324.95 1670.15 2080.34 1689.04 2154.42 1740.46
00008806 00000087 1895.41 1129.60 610.69 736.80 2234.84 1444.62 2372.21 1499.95 2325.68 1670.82 2080.46 1691.13 2156.15 1739.45
00008807 00000088 1894.37 1124.71 610.23 742.65 2231.00 1449.62 2370.39 1503.16 2325.88 1671.27 2082.57 1695.59 2159.12 1741.71
00008808 00000089 1894.49 1121.30 610.50 746.09 2230.35 1451.80 2369.01 1506.02 2326.02 1670.26 2082.71 1694.78 2159.22 1741.06
00008809 00000090 1894.30 1117.98 611.02 749.57 2230.60 1453.22 2368.91 1505.82 2326.83 1671.25 2082.14 1694.98 2157.89 1740.23
00008810 00000091 1893.92 1127.73 609.14 738.72 2231.05 1453.38 2368.79 1502.07 2327.04 1668.82 2082.96 1694.06 2159.84 1737.40
00008811 00000092 1893.97 1134.64 605.79 732.78 2232.24 1449.23 2369.21 1498.55 2327.54 1667.83 2083.17 1694.21 2161.15 1738.45
00008812 00000093 1897.15 1135.18 604.62 729.58 2232.57 1448.77 2369.49 1499.88 2325.84 1665.61 2085.71 1692.99 2162.62 1737.80
00008813 00000094 1898.35 1130.66 605.58 735.16 2235.51 1442.68 2373.08 1494.91 2328.64 1663.52 2087.12 1690.03 2165.38 1736.29
00008814 00000095 1898.55 1128.61 602.95 736.11 2239.51 1436.65 2371.28 1490.84 2329.01 1660.04 2090.60 1684.76 2166.99 1732.74
00008815 00000096 1901.52 1120.24 600.61 741.55 2239.17 1433.83 2373.50 1488.15 2332.33 1655.12 2095.35 1682.98 2173.74 1730.35
00008816 00000097 1901.85 1113.49 597.64 748.79 2238.87 1431.94 2370.29 1485.03 2333.09 1652.22 2096.77 1683.07 2172.84 1729.54
00008817 00000098 1902.54 1110.60 595.90 750.30 2240.23 1427.24 2371.23 1483.53 2335.36 1649.90 2097.40 1678.33 2174.76 1727.39
00008818 00000099 1902.63 1103.89 598.28 752.72 2240.20 1424.88 2373.92 1481.38 2338.18 1645.80 2101.46 1677.98 2180.64 1726.31
00008819 00000100 1902.05 1100.60 598.94 756.91 2241.05 1423.12 2374.44 1478.60 2340.94 1642.57 2102.77 1676.96 2182.04 1724.74
00008820 00000101 1901.19 1098.28 600.50 758.20 2242.68 1420.78 2376.94 1478.52 2343.79 1642.37 2103.43 1675.36 2184.53 1724.77
00008821 00000102 1901.15 1095.89 601.45 760.21 2242.45 1417.36 2379.90 1474.67 2348.11 1639.92 2106.38 1676.42 2190.59 1725.46
00008822 00000103 1901.64 1095.49 603.71 758.15 2245.18 1415.25 2383.67 1474.17 2350.96 1638.72 2110.21 1674.31 2194.50 1724.45
00008823 00000104 1903.80 1100.50 596.33 752.16 2244.05 1415.39 2380.66 1474.27 2352.15 1637.10 2111.54 1673.79 2196.56 1723.79
00008824 00000105 1903.10 1102.96 602.64 746.25 2243.26 1416.22 2387.00 1475.59 2354.56 1636.36 2110.32 1670.93 2202.34 1721.51
00008825 00000106 1901.55 1091.92 607.43 753.79 2244.59 1412.88 2390.83 1470.99 2358.86 1635.00 2113.12 1671.95 2205.36 1720.98
00008826 00000107 1902.77 1097.47 599.44 748.21 2243.34 1410.80 2388.06 1469.72 2358.15 1630.56 2115.07 1670.11 2208.28 1719.72
00008827 00000108 1902.01 1099.22 601.03 745.91 2243.89 1408.45 2387.49 1468.97 2357.27 1627.18 2113.82 1666.70 2206.56 1717.59
00008828 00000109 1901.12 1101.67 598.00 743.79 2242.32 1407.30 2384.00 1465.32 2356.60 1622.41 2113.86 1666.29 2205.22 1715.52
00008829 00000110 1902.80 1086.28 599.20 759.73 2247.16 1408.31 2381.79 1459.00 2355.92 1621.30 2123.90 1665.89 2207.50 1711.89
00008830 00000111 1902.86 1068.22 603.85 776.50 2246.62 1402.96 2383.93 1455.61 2354.37 1617.11 2123.97 1662.69 2206.44 1709.99
00008831 00000112 1901.04 1069.89 606.11 774.95 2246.99 1398.89 2385.34 1455.68 2354.84 1615.30 2124.22 1662.43 2207.77 1712.33
00008832 00000113 1902.19 1072.94 604.65 770.21 2246.81 1394.42 2387.65 1454.12 2356.67 1613.73 2123.45 1657.99 2211.25 1710.65
00008833 00000114 1907.05 1074.05 596.34 762.41 2247.02 1382.71 2382.72 1457.71 2353.89 1602.78 2118.44 1648.69 2201.94 1705.32
00008834 00000115 1905.98 1065.61 592.84 773.37 2248.71 1381.79 2377.82 1452.10 2353.69 1601.01 2119.65 1648.67 2198.52 1702.16
00008835 00000116 1907.19 1063.45 587.56 772.28 2246.35 1379.34 2375.39 1451.72 2350.42 1597.27 2119.48 1645.98 2198.44 1700.44
00008836 00000117 1906.27 1063.32 589.50 773.21 2247.87 1377.52 2374.71 1447.00 2350.85 1594.17 2121.31 1645.24 2198.63 1697.98
00008837 00000118 1904.82 1064.65 592.39 772.15 2247.41 1376.02 2375.26 1444.08 2350.91 1592.34 2120.48 1644.55 2198.31 1696.74
00008838 00000119 1904.90 1069.05 595.66 767.22 2246.01 1374.57 2378.31 1443.59 2350.07 1590.50 2118.89 1642.94 2201.76 1696.28
00008839 00000120 1904.56 1068.33 599.26 767.36 2244.87 1371.43 2382.57 1441.08 2350.74 1588.38 2117.29 1641.73 2204.49 1695.74
00008840 00000121 1902.08 1067.88 599.39 767.69 2243.28 1368.45 2380.19 1437.46 2349.87 1586.93 2111.89 1638.64 2199.37 1693.11
00008841 00000122 1899.33 1058.22 598.09 777.70 2240.99 1367.62 2377.41 1432.79 2349.85 1586.28 2109.99 1637.80 2197.45 1689.97
00008842 00000123 1900.17 1055.21 592.67 783.74 2238.86 1367.01 2374.07 1432.98 2348.17 1585.84 2107.86 1639.35 2194.07 1691.87
00008843 00000124 1900.65 1043.47 587.79 796.01 2235.72 1365.76 2370.12 1429.51 2346.85 1585.07 2106.54 1638.45 2192.37 1689.36
00008844 00000125 1899.52 1042.55 590.31 796.30 2236.35 1364.36 2371.49 1427.31 2346.07 1584.03 2106.41 1637.47 2192.72 1688.03
00008845 00000126 1900.77 1036.47 587.95 802.20 2235.26 1363.09 2372.27 1426.45 2346.05 1583.36 2106.33 1636.72 2194.56 1687.45
00008846 00000127 1900.21 1036.99 588.67 802.68 2234.59 1363.57 2371.42 1425.90 2344.57 1584.82 2104.11 1637.60 2192.12 1687.90
00008847 00000128 1898.97 1030.33 586.69 809.08 2233.94 1363.25 2368.06 1424.60 2343.01 1585.59 2104.29 1635.88 2189.27 1685.72
00008848 00000129 1896.36 1041.45 590.18 794.59 2233.31 1363.54 2369.72 1426.17 2341.51 1584.35 2106.04 1634.14 2194.02 1685.05
00008849 00000130 1895.85 1039.66 587.56 796.57 2233.82 1363.91 2368.42 1427.16 2342.35 1585.42 2105.42 1633.15 2193.25 1684.72
00008850 00000131 1895.27 1038.21 586.48 798.79 2234.19 1363.34 2367.84 1426.35 2342.64 1584.86 2104.89 1632.81 2192.51 1684.38
00008851 00000132 1894.90 1035.26 582.83 800.77 2233.37 1362.87 2365.68 1426.51 2340.47 1584.98 2104.27 1631.63 2191.16 1683.64
00008852 00000133 1894.11 1033.73 583.89 801.71 2231.67 1364.69 2364.28 1425.14 2339.27 1584.58 2103.39 1633.50 2188.58 1683.06
00008853 00000134 1892.80 1030.91 585.92 801.83 2229.24 1364.23 2365.92 1424.31 2339.00 1582.60 2105.77 1634.71 2193.08 1683.38
00008854 00000135 1894.28 1024.93 583.83 801.16 2227.43 1363.26 2368.08 1421.46 2340.20 1580.68 2107.97 1635.23 2196.88 1681.91
00008855 00000136 1891.79 1030.40 584.89 788.72 2225.69 1363.06 2368.25 1423.33 2338.76 1579.31 2110.80 1633.60 2201.45 1681.14
00008856 00000137 1893.16 1023.05 583.21 789.31 2224.62 1362.90 2369.21 1426.57 2336.35 1579.66 2112.78 1632.48 2203.42 1681.15
00008857 00000138 1892.82 1018.94 584.43 790.71 2221.70 1361.74 2369.50 1428.04 2333.69 1578.73 2111.07 1632.60 2202.80 1682.65
00008858 00000139 1893.87 1012.88 572.73 786.51 2218.44 1357.31 2362.62 1431.27 2328.85 1576.23 2108.97 1629.00 2199.87 1683.09
00008859 00000140 1893.37 1016.15 562.35 776.32 2213.99 1354.50 2358.48 1433.54 2324.51 1574.36 2104.43 1625.22 2198.67 1682.73
00008860 00000141 1892.44 1024.40 552.40 769.58 2216.19 1359.54 2339.21 1429.78 2323.92 1580.64 2110.90 1625.82 2192.04 1678.09
00008861 00000142 1885.48 1019.48 557.35 770.21 2212.08 1354.81 2339.12 1427.35 2324.43 1577.37 2107.18 1623.86 2192.12 1677.62
00008862 00000143 1880.46 1022.10 559.47 766.10 2208.89 1354.01 2339.41 1426.52 2324.30 1574.89 2106.35 1621.50 2195.28 1675.39
00008863 00000144 1877.03 1018.58 564.77 768.43 2208.13 1350.81 2340.69 1421.49 2323.34 1570.24 2106.21 1619.15 2196.36 1671.83
00008864 00000145 1874.12 1014.14 563.45 773.07 2204.81 1348.34 2336.08 1419.43 2320.83 1568.07 2101.74 1617.67 2190.97 1670.75
00008865 00000146 1872.67 1015.88 565.09 773.03 2203.48 1347.33 2335.16 1415.60 2319.07 1565.61 2101.98 1615.73 2190.54 1667.21
00008866 00000147 1869.59 1013.51 567.15 779.23 2200.12 1344.09 2333.25 1411.89 2317.68 1561.67 2099.40 1614.74 2189.50 1666.28
00008867 00000148 1868.02 1011.47 564.24 782.78 2199.12 1342.02 2329.77 1408.36 2316.58 1559.92 2098.46 1613.29 2187.98 1664.24
00008868 00000149 1865.46 1011.95 564.88 783.84 2196.28 1340.68 2328.51 1409.60 2314.77 1558.40 2096.29 1611.71 2188.46 1664.64
00008869 00000150 1862.32 1015.72 567.73 780.34 2197.32 1339.59 2325.01 1402.19 2314.58 1553.84 2096.80 1610.60 2185.20 1659.93
00008870 00000151 1863.94 1011.78 567.69 773.97 2187.82 1336.19 2336.91 1403.80 2308.13 1554.19 2089.74 1604.73 2187.12 1659.75
00008871 00000152 1850.15 1015.75 588.00 780.91 2196.92 1332.20 2331.96 1390.82 2320.69 1546.61 2093.29 1606.17 2186.66 1653.97
00008872 00000153 1846.56 1014.39 591.07 780.16 2193.13 1331.24 2332.75 1389.73 2318.66 1544.18 2091.84 1606.65 2188.09 1654.30
00008873 00000154 1857.84 1009.05 568.86 776.14 2187.51 1333.28 2329.12 1394.50 2317.41 1543.05 2091.08 1609.46 2186.38 1656.27
