Video ID: 	zTFpjrS8Ujk
H: 	1080
W: 	1920
FPS: 	25.0

FRAME INDEX X0 Y0 W H [Landmarks (5 Points)]

00008975 00000000 772.04 129.99 354.08 540.38 879.82 350.44 1035.87 341.40 975.21 445.21 926.04 552.45 1036.66 545.47
00008976 00000001 774.00 133.84 354.27 528.62 882.07 350.95 1040.83 342.09 980.17 445.96 930.47 549.72 1044.52 542.61
00008977 00000002 774.29 135.23 354.21 521.93 881.50 349.37 1040.53 339.96 978.43 445.10 930.71 548.65 1042.71 541.01
00008978 00000003 770.83 133.00 351.88 525.79 875.58 346.40 1030.47 336.88 968.46 441.79 922.05 550.65 1027.95 543.09
00008979 00000004 771.27 134.57 348.24 526.61 867.19 354.51 1015.43 342.65 945.75 444.11 915.78 555.11 1011.35 545.40
00008980 00000005 769.55 140.55 353.23 522.58 861.55 357.91 1017.77 343.54 950.40 449.42 905.93 557.62 1013.22 547.15
00008981 00000006 770.07 138.75 353.85 522.98 864.99 356.01 1021.55 343.69 955.86 444.74 908.73 553.96 1017.88 545.01
00008982 00000007 771.41 141.44 355.25 520.09 869.43 356.47 1025.95 343.27 962.68 443.41 915.09 552.37 1025.57 542.26
00008983 00000008 771.13 142.91 355.40 518.78 868.04 357.16 1024.96 343.96 960.42 446.00 913.42 552.27 1024.88 542.01
00008984 00000009 769.87 139.96 353.72 523.97 863.66 358.98 1020.87 345.64 953.55 448.90 907.02 555.58 1018.50 545.61
00008985 00000010 771.36 138.74 353.47 524.88 863.31 358.12 1021.73 345.66 953.28 449.38 904.78 552.98 1019.94 543.65
00008986 00000011 772.55 140.84 354.42 520.82 866.90 357.10 1026.21 345.37 959.31 448.44 909.68 549.64 1026.84 540.44
00008987 00000012 773.26 129.63 351.10 528.09 877.76 347.04 1031.51 340.71 969.56 441.09 921.16 541.38 1033.95 536.62
00008988 00000013 774.62 129.51 352.14 523.83 878.68 345.72 1037.19 339.67 972.81 442.25 922.73 541.03 1039.45 536.33
00008989 00000014 775.45 129.68 351.59 523.28 879.05 345.82 1037.47 340.20 972.59 441.24 922.82 540.33 1039.45 536.01
00008990 00000015 775.07 130.60 352.16 529.27 880.42 346.73 1037.34 339.53 973.10 440.18 923.39 544.90 1035.43 539.31
00008991 00000016 777.64 126.76 351.15 536.50 886.55 348.27 1041.12 339.55 981.02 442.01 930.69 549.86 1036.95 543.17
00008992 00000017 782.99 128.43 348.32 535.25 895.98 352.98 1048.69 341.86 993.99 445.11 942.91 552.37 1045.87 543.70
00008993 DELETE   789.87 130.17 347.86 525.22 912.32 360.33 1058.66 344.04 1017.13 447.46 966.76 556.47 1064.14 543.72
00008994 DELETE   801.04 127.09 351.72 526.62 926.32 364.42 1080.50 342.89 1039.84 450.31 983.82 554.96 1091.54 536.91
00008995 DELETE   817.60 128.71 346.16 522.27 953.40 362.08 1102.76 338.22 1071.81 441.32 1008.32 553.24 1115.16 533.03
00008996 00000021 829.45 138.54 348.72 513.12 971.18 361.87 1117.71 332.23 1091.19 435.03 1027.88 553.03 1135.19 528.37
00008997 00000022 835.09 139.89 347.13 510.69 975.29 363.28 1121.25 329.44 1096.11 435.08 1032.95 552.26 1140.69 523.91
00008998 00000023 828.09 139.71 354.24 514.51 968.59 366.05 1120.33 333.17 1091.54 441.47 1023.80 556.44 1136.80 528.94
00008999 00000024 823.37 135.64 352.48 522.96 962.94 366.05 1114.20 336.78 1083.62 445.15 1017.27 559.25 1127.72 534.59
00009000 00000025 823.25 139.17 348.82 525.35 962.37 366.54 1109.47 341.93 1079.49 447.17 1016.19 562.71 1122.96 541.84
00009001 00000026 825.60 138.95 350.02 520.01 967.07 366.51 1114.66 337.81 1086.12 444.41 1019.37 558.68 1127.70 534.72
00009002 00000027 828.42 139.27 350.71 518.11 970.54 367.02 1117.87 334.23 1091.24 441.13 1023.37 555.63 1134.22 528.28
00009003 00000028 827.12 135.34 352.33 517.93 968.29 366.67 1117.94 332.93 1090.10 438.44 1021.75 552.50 1135.38 524.42
00009004 00000029 819.94 132.33 354.49 519.60 959.65 367.30 1112.92 336.56 1081.74 442.82 1013.96 553.67 1128.14 527.75
00009005 00000030 817.08 141.12 351.02 514.50 952.23 365.92 1106.51 339.63 1071.30 446.90 1006.63 554.49 1120.80 531.98
00009006 00000031 815.52 140.80 352.19 511.92 951.17 364.49 1107.07 339.45 1070.74 445.80 1004.05 550.52 1120.64 529.02
00009007 00000032 816.87 130.44 353.37 518.85 955.12 364.97 1110.18 337.58 1077.10 443.07 1006.78 547.60 1124.53 524.45
00009008 00000033 820.30 131.60 353.43 515.36 964.72 363.37 1116.58 332.70 1088.31 436.27 1013.91 543.96 1130.59 518.66
00009009 00000034 822.50 134.02 351.51 514.89 966.63 362.48 1117.20 331.60 1090.47 433.85 1015.56 544.06 1132.24 518.66
00009010 00000035 818.84 133.70 352.28 519.65 961.68 363.59 1111.67 333.56 1082.96 440.14 1012.61 549.88 1125.45 524.78
00009011 00000036 817.84 136.93 350.03 520.52 955.23 365.26 1106.91 337.79 1074.41 443.57 1008.07 554.05 1121.30 530.72
00009012 00000037 817.32 139.52 349.78 522.87 954.23 364.15 1108.20 338.78 1074.35 445.28 1005.47 555.17 1122.78 533.50
00009013 00000038 817.64 136.65 351.55 527.04 958.70 364.95 1111.52 337.72 1081.22 443.73 1008.72 555.02 1126.57 531.94
00009014 00000039 819.07 135.99 351.77 523.79 962.15 365.85 1113.19 335.56 1085.82 441.90 1013.00 554.07 1128.93 528.65
00009015 00000040 817.65 131.99 353.33 523.20 959.54 365.42 1112.48 335.36 1083.81 442.29 1012.77 553.12 1128.23 527.86
00009016 00000041 816.33 134.33 353.34 522.60 957.18 365.26 1111.22 336.99 1080.28 444.01 1009.75 553.54 1126.60 529.60
00009017 00000042 817.26 136.17 351.66 523.99 961.12 365.39 1111.62 337.46 1083.68 444.31 1013.22 555.87 1126.08 532.17
00009018 00000043 822.65 140.70 349.52 519.92 967.54 365.74 1114.28 336.30 1090.26 443.61 1021.64 557.83 1129.85 532.87
00009019 00000044 826.35 143.92 349.00 517.82 970.72 365.57 1117.09 334.52 1093.32 443.67 1024.86 558.16 1133.59 531.74
00009020 00000045 824.37 138.61 351.32 521.82 969.20 367.48 1116.76 334.93 1092.86 444.74 1024.65 559.22 1134.28 531.54
00009021 00000046 823.03 141.26 351.61 516.82 967.02 368.92 1117.01 336.06 1090.95 447.95 1022.64 560.28 1132.50 532.39
00009022 00000047 824.29 141.13 352.55 517.09 968.44 369.75 1118.31 336.78 1092.34 448.81 1024.16 560.99 1134.21 532.99
00009023 00000048 828.05 141.00 351.93 515.90 972.98 370.14 1120.34 336.82 1096.08 447.14 1028.90 560.37 1137.70 532.27
00009024 00000049 831.67 145.49 348.53 508.89 974.98 367.08 1122.77 333.35 1095.90 447.76 1030.61 560.54 1136.82 532.22
00009025 00000050 830.18 143.86 349.70 508.94 973.59 367.53 1120.62 334.04 1093.73 445.40 1028.72 558.32 1134.84 530.20
00009026 00000051 826.80 142.92 352.50 508.52 967.50 367.45 1119.66 335.14 1088.45 445.98 1023.45 557.89 1132.44 530.78
00009027 00000052 823.59 137.67 354.12 513.05 965.31 368.16 1117.53 336.87 1086.10 447.32 1020.35 557.93 1129.91 531.86
00009028 00000053 824.50 139.45 354.84 511.27 965.94 367.88 1118.55 336.36 1086.56 446.31 1020.42 556.95 1130.90 530.61
00009029 00000054 829.04 144.89 352.79 510.46 971.82 369.22 1120.25 337.79 1091.75 445.95 1026.19 559.02 1134.10 532.62
00009030 00000055 831.63 146.63 350.71 509.31 974.79 368.20 1122.78 337.76 1093.68 446.68 1029.03 560.46 1135.94 534.79
00009031 00000056 826.48 141.11 354.15 512.17 969.48 371.28 1119.70 339.47 1089.88 446.92 1024.53 559.60 1133.67 532.97
00009032 00000057 819.34 135.11 355.02 519.31 960.11 371.22 1112.83 342.94 1079.30 452.02 1013.53 559.70 1124.99 535.86
00009033 00000058 815.93 143.39 352.43 515.92 951.00 371.83 1106.43 347.10 1069.90 455.55 1007.66 563.26 1119.48 541.88
00009034 00000059 815.36 143.61 350.07 512.62 950.87 370.97 1108.02 346.25 1071.67 456.39 1006.91 560.70 1120.79 539.06
00009035 00000060 815.68 139.23 351.34 515.37 954.20 372.11 1109.69 343.28 1076.59 453.73 1010.30 559.61 1123.74 534.78
00009036 00000061 817.56 133.11 350.25 520.74 959.65 373.01 1111.32 340.74 1082.82 450.58 1015.18 559.51 1126.43 532.19
00009037 00000062 818.39 133.01 350.21 524.70 962.20 373.30 1110.84 339.21 1084.93 449.83 1016.38 559.78 1127.56 531.07
00009038 00000063 817.22 138.29 350.05 522.69 958.81 375.01 1108.24 340.55 1080.91 451.72 1010.47 557.19 1126.19 528.09
00009039 00000064 817.47 142.04 349.37 518.91 957.29 374.99 1107.14 341.69 1078.71 453.09 1008.36 555.99 1125.05 527.74
00009040 00000065 817.16 140.23 350.62 518.63 958.11 374.58 1108.82 340.92 1080.18 452.95 1009.51 555.91 1125.63 527.52
00009041 00000066 821.36 137.01 348.83 523.05 963.84 375.80 1112.97 340.79 1086.07 451.21 1014.89 559.89 1128.64 530.56
00009042 00000067 821.54 139.36 351.28 518.66 966.59 376.72 1112.96 341.01 1088.20 451.62 1021.93 563.25 1129.41 533.34
00009043 00000068 818.92 137.00 353.80 516.46 964.62 378.47 1111.12 342.84 1085.52 454.67 1021.35 563.83 1126.39 534.18
00009044 00000069 819.48 140.33 351.89 514.40 963.38 382.90 1108.43 347.07 1081.89 460.26 1020.36 566.64 1123.87 536.61
00009045 00000070 819.52 143.40 350.74 515.97 961.47 385.03 1107.31 350.14 1080.08 462.31 1019.32 570.19 1123.81 540.92
00009046 00000071 819.54 140.37 350.90 518.59 961.47 383.31 1108.67 349.44 1081.06 461.31 1019.66 569.43 1125.88 540.92
00009047 00000072 819.49 136.02 352.04 521.39 962.74 379.74 1110.69 345.15 1084.46 457.77 1020.32 566.14 1127.95 537.19
00009048 00000073 820.21 134.34 352.59 522.09 963.90 378.29 1112.13 343.28 1085.86 455.69 1020.87 564.94 1128.90 535.73
00009049 00000074 819.70 135.47 353.39 520.20 962.69 378.67 1112.19 344.24 1085.07 455.98 1019.47 564.69 1128.34 535.99
00009050 00000075 820.73 138.45 351.87 518.09 959.57 379.57 1109.47 346.05 1079.31 459.43 1017.08 565.56 1125.83 537.46
00009051 00000076 820.63 144.04 350.88 516.79 956.38 381.68 1107.47 350.45 1074.37 462.42 1014.08 567.91 1123.49 541.56
00009052 00000077 819.96 145.00 350.35 518.54 955.76 382.19 1106.60 352.23 1073.20 463.41 1011.95 568.85 1121.80 543.50
00009053 00000078 820.23 138.92 350.92 525.40 961.13 381.79 1109.17 351.16 1079.90 462.14 1016.68 570.82 1123.56 545.04
00009054 00000079 821.93 136.58 352.12 526.00 965.31 382.02 1115.25 345.62 1088.79 461.13 1019.45 569.18 1130.29 538.85
00009055 00000080 822.21 137.48 350.34 523.05 963.62 381.20 1113.31 345.12 1085.76 460.37 1017.98 567.48 1128.53 537.40
00009056 00000081 820.23 142.24 348.49 520.16 957.73 381.38 1107.82 350.91 1076.81 460.12 1012.91 567.59 1122.88 541.92
00009057 00000082 818.65 146.02 347.17 517.73 954.83 379.91 1105.28 353.31 1071.70 462.33 1011.55 570.66 1118.13 548.10
00009058 00000083 819.50 144.18 345.89 518.77 956.10 380.31 1105.47 351.69 1073.98 460.25 1011.67 567.73 1120.65 543.47
00009059 00000084 820.07 142.18 348.58 520.77 957.75 378.60 1108.01 348.01 1077.99 456.38 1013.10 565.42 1124.51 539.54
00009060 00000085 821.71 140.11 349.68 521.90 963.76 378.41 1111.20 344.58 1084.56 454.54 1017.52 565.56 1126.97 537.16
00009061 00000086 822.90 140.75 349.28 521.87 964.90 378.93 1112.15 344.23 1085.56 455.15 1019.57 566.95 1127.99 537.78
00009062 00000087 824.24 141.69 347.84 522.91 965.71 381.01 1111.19 346.11 1085.75 456.83 1020.26 568.47 1127.27 539.15
00009063 00000088 825.56 141.10 349.11 524.31 967.98 380.82 1115.12 345.43 1090.02 456.44 1022.61 569.23 1130.70 539.52
00009064 00000089 827.19 140.95 353.75 525.68 968.50 381.10 1118.66 343.27 1093.15 454.50 1023.89 568.45 1136.93 536.74
00009065 00000090 827.55 139.62 355.37 526.46 969.51 380.25 1121.06 341.30 1096.62 452.76 1022.98 565.52 1139.04 532.92
00009066 00000091 828.58 144.05 354.65 525.54 969.94 379.60 1121.66 341.38 1096.62 453.30 1023.62 567.33 1138.74 535.31
00009067 00000092 826.33 146.84 341.04 521.03 974.59 370.89 1111.84 342.17 1092.29 448.65 1034.38 562.53 1125.65 539.95
00009068 00000093 831.91 148.00 346.94 530.97 972.89 378.72 1119.88 343.18 1098.68 455.40 1022.36 570.04 1136.01 540.01
00009069 00000094 831.72 149.34 347.82 531.16 972.87 380.60 1121.08 343.34 1099.64 455.80 1022.41 570.62 1138.42 539.08
00009070 00000095 827.58 145.46 340.66 527.39 974.52 373.03 1113.66 341.52 1093.53 450.63 1029.03 561.87 1132.26 536.53
00009071 00000096 826.97 143.84 342.27 521.10 973.82 373.64 1112.66 339.95 1092.96 447.91 1032.94 562.02 1130.47 534.98
00009072 00000097 827.30 143.68 342.23 518.28 973.42 374.28 1113.09 339.46 1093.38 446.96 1033.96 562.24 1130.23 534.49
00009073 00000098 827.06 145.42 342.88 515.84 973.07 374.91 1112.96 340.13 1093.33 446.55 1034.36 562.73 1130.06 535.18
00009074 00000099 826.96 145.47 342.82 515.72 973.37 376.04 1112.81 341.57 1093.47 447.31 1036.28 564.37 1129.54 537.06
00009075 00000100 827.15 145.25 342.39 517.57 973.18 377.09 1112.74 342.61 1092.81 447.57 1035.78 565.62 1129.58 538.32
00009076 00000101 828.13 144.99 341.07 519.42 973.35 377.98 1112.36 344.25 1092.21 448.85 1034.32 566.79 1129.48 540.29
00009077 00000102 827.78 146.43 340.61 520.19 974.66 378.35 1112.49 346.68 1092.95 449.42 1032.93 567.54 1128.33 542.88
00009078 00000103 828.20 149.18 340.89 517.80 974.41 379.50 1112.56 347.32 1093.23 450.67 1034.32 568.29 1130.19 543.18
00009079 00000104 828.94 150.14 341.19 518.17 975.24 381.02 1114.30 347.72 1094.81 452.20 1035.64 569.42 1132.53 543.35
00009080 00000105 829.67 151.72 340.97 516.78 976.20 382.25 1115.16 349.56 1095.74 452.85 1036.13 569.62 1132.94 544.24
00009081 00000106 828.14 151.78 341.63 517.31 975.68 382.98 1114.91 350.93 1094.52 454.07 1034.47 570.03 1131.70 545.21
00009082 00000107 823.69 152.18 342.21 516.83 971.36 379.62 1114.29 351.50 1089.98 458.08 1025.89 570.15 1125.41 548.87
00009083 00000108 830.84 147.67 341.55 518.84 959.93 383.44 1113.58 356.26 1083.76 461.37 1010.60 572.56 1122.07 551.29
00009084 00000109 824.73 153.92 344.11 512.44 948.33 382.51 1105.83 358.08 1068.30 463.26 1000.99 571.73 1114.11 552.37
00009085 00000110 821.71 153.74 343.13 512.67 945.57 380.86 1101.39 359.33 1063.92 466.06 997.82 571.28 1108.64 554.20
00009086 00000111 821.88 154.66 343.53 512.43 946.80 380.46 1101.86 359.33 1064.24 465.30 998.30 571.32 1108.37 554.65
00009087 00000112 824.68 154.92 342.59 512.14 951.69 380.78 1107.01 356.86 1072.24 462.38 1002.83 571.21 1114.16 552.50
00009088 00000113 824.72 153.95 342.30 512.57 954.29 380.23 1109.01 354.06 1075.83 462.96 1006.31 572.51 1114.41 552.01
00009089 00000114 824.81 154.87 341.85 511.18 953.78 379.99 1108.67 354.24 1074.70 462.30 1005.73 572.06 1114.02 551.85
00009090 00000115 820.46 150.13 343.83 516.89 946.20 379.93 1102.14 357.66 1065.43 463.69 998.47 571.53 1109.27 553.77
00009091 00000116 815.74 151.40 343.59 519.59 934.30 382.58 1088.62 358.53 1049.39 465.30 988.60 573.21 1097.71 554.06
00009092 00000117 804.63 151.28 345.85 523.47 924.65 386.95 1083.68 365.32 1038.30 476.28 980.03 575.82 1094.62 557.73
00009093 00000118 799.88 149.73 346.34 529.36 918.56 386.06 1077.62 368.74 1030.58 477.50 970.95 575.90 1084.93 561.71
00009094 00000119 799.72 150.08 345.36 533.07 917.25 385.64 1076.39 370.12 1028.53 478.66 967.50 578.32 1080.38 565.85
00009095 00000120 799.86 147.91 346.28 532.35 919.18 386.16 1078.54 369.33 1031.30 478.61 970.60 577.33 1084.44 563.72
00009096 00000121 803.52 147.73 344.82 529.76 925.02 387.91 1085.18 366.47 1041.12 476.78 980.33 577.51 1095.86 559.64
00009097 00000122 807.28 149.44 342.11 517.09 930.96 388.99 1086.71 364.75 1045.16 475.34 986.85 574.45 1097.96 554.12
00009098 00000123 807.05 150.61 342.85 511.25 931.04 386.61 1086.52 361.27 1045.66 474.57 989.36 574.52 1097.80 553.23
00009099 00000124 806.05 153.79 342.23 516.74 927.25 384.06 1084.89 362.00 1041.58 475.27 984.03 574.05 1094.60 555.48
00009100 DELETE   801.42 147.31 342.73 519.60 919.12 381.64 1076.11 363.80 1029.37 474.48 973.41 572.47 1081.34 557.89
00009101 00000126 797.09 143.76 342.53 518.91 912.10 380.32 1066.50 363.76 1017.83 472.80 964.92 569.15 1070.06 555.63
00009102 00000127 796.44 140.97 342.00 520.82 909.32 380.17 1064.30 364.43 1014.28 472.97 961.29 567.84 1068.18 554.83
00009103 00000128 795.93 140.60 342.06 519.27 909.34 380.70 1064.15 364.50 1014.24 471.92 961.47 567.63 1069.36 554.14
00009104 00000129 794.94 140.92 341.99 518.81 907.96 380.27 1061.75 363.79 1012.70 471.85 960.68 567.75 1067.43 554.02
00009105 00000130 792.82 138.45 344.52 520.46 903.64 377.68 1055.00 366.60 1002.49 471.91 953.27 565.74 1057.48 556.58
00009106 DELETE   791.18 134.34 342.99 530.55 894.33 382.01 1045.96 379.05 986.78 471.85 937.49 563.17 1043.88 560.93
00009107 DELETE   790.78 137.06 339.87 545.74 891.11 382.35 1036.38 379.03 980.83 468.81 928.59 568.40 1029.22 567.05
00009108 DELETE   788.67 134.36 342.89 550.28 891.88 380.62 1037.96 377.51 982.07 467.81 929.27 567.13 1032.04 565.77
00009109 00000134 791.59 136.45 342.22 548.35 898.26 378.36 1045.92 372.84 991.93 468.64 938.50 567.70 1045.38 563.84
00009110 00000135 793.69 135.30 341.38 549.03 903.19 375.69 1049.90 369.20 999.13 469.05 944.21 568.58 1049.54 563.87
00009111 00000136 793.26 133.74 341.02 552.69 900.35 372.93 1047.16 366.36 995.01 468.05 941.65 568.76 1046.66 564.18
00009112 00000137 792.72 133.18 339.92 558.90 897.68 370.30 1043.44 364.18 988.70 464.51 935.56 568.46 1041.69 564.56
00009113 00000138 794.00 133.00 339.31 563.23 900.30 369.21 1045.77 363.81 992.73 464.82 937.39 569.66 1044.13 566.35
00009114 00000139 796.29 138.82 339.18 552.80 906.35 369.75 1053.97 363.25 1004.08 464.86 944.32 567.29 1054.72 562.69
00009115 00000140 797.44 135.86 340.88 534.17 908.69 369.47 1058.71 359.34 1009.47 465.62 951.68 560.42 1059.53 552.51
00009116 00000141 796.99 134.58 343.81 528.13 910.22 368.78 1062.54 357.25 1012.50 466.08 955.70 559.45 1062.68 550.22
00009117 00000142 796.94 133.46 344.03 527.19 912.70 368.86 1064.10 354.84 1015.73 467.49 962.02 561.90 1065.01 550.53
00009118 00000143 798.45 137.83 344.45 519.18 917.45 369.40 1070.85 352.87 1023.16 469.55 968.93 562.84 1072.75 549.28
00009119 00000144 799.60 137.98 344.97 523.45 922.96 368.12 1075.31 352.38 1029.77 468.34 974.83 564.08 1078.80 551.06
00009120 00000145 801.60 138.27 342.55 530.76 925.86 365.72 1077.66 350.59 1033.86 467.09 978.07 569.03 1079.55 556.69
00009121 00000146 804.13 139.96 340.13 545.49 927.18 366.96 1077.71 353.59 1034.56 469.13 974.55 573.34 1079.99 562.84
00009122 00000147 806.47 140.57 342.45 543.43 924.25 362.50 1076.03 349.62 1030.72 466.24 965.23 570.70 1071.03 560.97
00009123 00000148 808.09 141.54 341.81 542.03 926.67 365.00 1079.11 350.78 1034.77 466.71 968.40 571.87 1075.90 561.04
00009124 00000149 803.76 142.29 342.59 534.51 930.11 370.99 1084.35 354.23 1042.05 469.43 980.48 572.78 1088.04 559.10
00009125 00000150 804.30 141.84 343.54 526.50 930.64 372.40 1085.31 353.27 1043.83 469.61 985.96 571.31 1091.13 555.29
00009126 00000151 804.10 143.71 344.47 522.83 928.99 372.96 1084.44 352.63 1042.07 469.57 985.41 571.10 1090.50 554.18
00009127 00000152 803.70 144.32 344.44 523.46 925.63 373.54 1082.38 352.90 1038.22 470.45 983.44 572.86 1088.65 555.82
00009128 00000153 802.50 144.85 345.57 526.38 924.26 376.68 1081.82 356.88 1037.23 470.06 980.34 574.16 1087.90 557.96
00009129 00000154 801.76 145.60 347.12 527.33 923.69 380.65 1082.96 360.45 1038.23 471.84 979.82 574.43 1090.99 557.79
00009130 00000155 802.87 150.44 346.57 524.30 925.04 384.40 1084.01 362.56 1040.36 473.84 981.40 576.18 1093.79 558.03
00009131 00000156 803.80 151.94 346.00 522.43 924.64 386.19 1084.38 364.18 1040.17 474.49 981.72 577.81 1094.65 559.37
00009132 00000157 803.50 151.94 345.86 527.59 924.05 387.39 1084.17 365.68 1039.83 477.11 980.52 579.48 1095.15 561.23
00009133 00000158 809.57 151.67 345.32 528.10 923.69 382.29 1078.26 365.27 1033.23 474.67 974.64 579.50 1082.95 565.96
00009134 00000159 809.28 153.09 345.58 526.36 924.21 382.67 1079.43 365.44 1034.13 476.36 975.31 579.70 1083.64 565.95
00009135 00000160 810.24 154.71 343.96 521.56 925.33 382.67 1080.48 364.66 1035.47 476.10 976.80 579.01 1084.23 564.69
00009136 00000161 810.90 155.87 342.85 517.79 925.65 383.00 1080.48 365.64 1035.28 475.63 977.18 579.27 1083.35 565.60
00009137 00000162 810.87 154.57 342.79 518.75 924.87 383.87 1081.34 365.55 1035.43 477.08 976.69 580.01 1084.66 565.54
00009138 00000163 809.80 153.97 343.41 521.44 924.49 382.89 1080.14 366.35 1034.26 477.59 975.06 579.57 1082.57 566.49
00009139 00000164 809.35 153.58 344.20 526.10 925.98 382.28 1079.43 367.23 1034.23 478.23 974.01 580.40 1078.96 568.86
00009140 00000165 808.95 157.98 345.66 537.09 928.08 382.24 1079.79 367.06 1036.36 479.57 973.73 585.90 1078.49 574.27
