Video ID: 	SbYP_7tPM6E
H: 	1080
W: 	1920
FPS: 	25.0

FRAME INDEX X0 Y0 W H [Landmarks (5 Points)]

00087826 00000000 593.71 170.89 445.48 632.20 778.21 455.81 966.70 400.18 936.75 569.03 839.50 679.73 984.50 634.35
00087827 00000001 592.36 154.57 445.70 638.87 779.75 444.47 967.14 387.64 939.92 556.52 837.97 667.82 984.95 621.53
00087828 00000002 590.93 143.64 447.61 636.04 778.15 436.42 967.39 377.20 939.94 550.22 835.04 657.94 983.04 610.11
00087829 00000003 588.37 139.30 449.06 634.69 777.53 429.32 965.54 365.35 942.75 542.44 835.79 652.50 983.60 600.76
00087830 00000004 585.27 133.61 453.14 636.57 776.92 423.42 962.34 360.58 940.44 531.91 831.59 643.91 981.14 592.69
00087831 00000005 584.68 131.66 453.60 637.43 774.84 417.88 955.44 355.41 935.16 519.26 833.31 637.56 980.47 585.88
00087832 DELETE   582.47 131.72 456.03 641.71 769.66 416.37 952.45 352.63 932.26 516.48 827.60 635.80 981.30 583.14
00087833 00000007 579.92 129.13 459.21 646.52 764.28 417.49 946.68 351.53 926.90 513.00 825.04 634.71 981.16 580.57
00087834 00000008 579.85 126.97 458.71 650.87 759.24 422.38 941.93 351.54 924.05 513.62 823.97 636.56 983.29 578.79
00087835 00000009 580.23 136.56 458.24 640.16 757.26 426.51 942.08 353.34 922.79 518.35 826.51 639.14 984.99 579.40
00087836 00000010 579.42 142.50 457.98 639.46 752.29 433.84 939.05 363.24 916.97 528.32 828.11 650.73 983.74 592.62
00087837 00000011 581.11 154.33 456.37 638.74 751.09 445.39 939.26 375.22 916.21 539.29 832.61 664.68 985.88 606.83
00087838 DELETE   585.01 168.10 450.80 644.03 754.59 459.85 941.61 387.72 919.62 556.84 837.56 680.95 989.16 621.26
00087839 DELETE   582.72 183.44 465.77 642.51 760.42 479.77 949.21 408.71 926.44 573.42 832.34 695.30 989.31 636.86
00087840 DELETE   586.08 202.84 462.54 633.74 765.93 488.13 953.60 419.81 930.14 592.15 834.63 708.95 987.90 652.55
00087841 00000015 589.52 209.20 461.82 633.15 771.90 493.32 960.21 425.43 936.35 602.22 838.67 717.20 990.25 661.03
00087842 00000016 591.14 210.07 462.52 631.39 774.50 495.12 965.03 428.26 940.12 604.29 841.85 719.63 992.46 664.36
00087843 00000017 591.92 210.18 462.88 630.80 776.30 495.75 967.40 429.50 941.44 605.72 842.95 720.35 993.19 665.56
00087844 00000018 593.63 210.75 461.50 630.30 777.49 495.10 969.21 430.47 941.01 605.84 842.92 719.69 993.54 666.17
00087845 00000019 594.94 207.36 461.02 633.40 779.67 494.40 969.59 429.96 942.42 603.38 844.70 718.98 993.91 665.43
00087846 00000020 595.87 208.08 461.15 630.74 781.01 493.74 970.75 430.09 942.48 603.28 845.02 717.35 994.07 664.43
00087847 00000021 596.36 207.81 460.75 630.86 781.23 493.06 971.57 429.90 942.74 603.46 845.04 716.89 994.73 664.31
00087848 00000022 596.28 205.83 461.02 633.32 780.57 492.21 970.77 429.16 941.87 602.24 844.87 716.24 995.14 663.63
00087849 00000023 595.80 207.43 460.23 632.04 780.15 492.17 970.19 430.96 940.40 602.50 842.85 716.35 992.60 665.34
00087850 00000024 594.88 207.74 459.94 632.13 778.63 491.72 968.86 429.78 939.42 602.92 841.99 716.96 991.62 665.30
00087851 00000025 593.12 207.91 459.30 632.57 777.38 492.23 966.55 430.06 938.61 601.84 840.01 716.60 989.44 664.97
00087852 00000026 590.31 211.13 460.41 630.36 776.42 492.15 964.77 429.84 937.84 602.41 838.22 716.77 986.97 665.22
00087853 00000027 588.16 213.09 460.06 628.14 774.57 492.27 960.93 430.90 934.89 601.94 835.86 715.41 983.77 664.77
00087854 00000028 586.87 213.65 459.29 628.82 771.05 492.36 958.07 430.38 931.69 602.42 831.78 715.09 982.10 664.07
00087855 00000029 585.79 212.27 458.41 627.72 769.21 492.38 955.77 429.83 929.99 601.89 829.91 713.41 980.66 662.01
00087856 00000030 585.51 211.85 457.73 628.87 767.86 491.18 954.64 428.79 928.15 602.45 828.54 713.30 979.50 661.95
00087857 00000031 583.82 210.98 458.03 628.11 765.69 489.19 953.11 428.40 925.41 600.96 826.97 710.72 978.65 660.43
00087858 00000032 582.82 209.11 457.46 628.98 764.23 489.40 951.14 428.44 923.61 600.35 825.24 709.34 977.48 658.93
00087859 00000033 581.52 210.26 458.34 628.59 762.16 489.68 950.07 430.03 921.01 601.61 822.60 708.84 976.82 659.54
00087860 00000034 580.32 212.00 458.07 627.34 760.43 489.86 949.26 431.21 919.68 602.33 822.11 710.16 975.64 661.78
00087861 00000035 579.49 209.45 458.16 630.70 759.56 489.79 948.06 432.41 918.00 602.89 821.75 710.77 974.58 663.19
00087862 00000036 578.93 208.76 457.90 632.52 758.29 490.00 946.76 432.54 916.77 602.71 820.82 711.00 974.39 663.31
00087863 00000037 577.78 210.09 458.64 631.24 757.99 491.05 946.09 431.77 917.59 602.47 820.19 710.93 974.35 662.00
00087864 00000038 577.48 210.02 458.63 629.95 756.91 490.03 945.27 431.31 916.10 602.93 819.21 710.18 973.67 661.65
00087865 00000039 577.14 209.18 458.59 630.72 756.96 489.36 945.18 431.39 915.55 602.63 819.21 709.57 973.49 661.50
00087866 00000040 576.29 208.25 458.57 631.39 756.49 488.79 944.49 431.00 914.93 602.45 818.46 708.81 972.67 660.94
00087867 00000041 575.14 209.51 458.40 629.85 755.45 488.80 943.13 430.61 914.34 601.71 818.16 708.72 971.87 660.73
00087868 00000042 573.81 207.02 458.25 631.47 754.12 489.53 940.35 431.22 912.50 600.74 816.35 708.38 969.50 660.40
00087869 00000043 571.31 205.74 459.71 631.71 753.93 490.28 938.70 431.07 911.98 599.60 816.44 707.55 967.78 658.87
00087870 00000044 570.00 206.79 459.82 629.77 753.44 490.23 936.83 431.30 910.96 598.36 816.22 708.14 964.90 659.60
00087871 00000045 568.08 201.84 459.60 634.26 752.15 491.07 934.73 432.31 909.00 597.52 814.64 707.97 962.55 659.45
00087872 00000046 566.61 202.09 459.70 634.63 749.84 490.57 933.86 432.20 907.30 597.52 813.66 708.73 961.99 660.41
00087873 00000047 564.79 200.94 459.70 634.08 747.77 488.99 932.60 431.50 905.55 596.32 812.45 707.83 961.14 660.25
00087874 00000048 562.75 201.62 460.89 632.79 747.10 488.39 931.49 431.75 904.30 596.15 812.31 707.56 959.93 660.53
00087875 00000049 560.86 200.72 460.45 631.86 745.40 488.35 929.82 431.76 902.48 595.34 810.79 706.85 958.36 659.89
00087876 00000050 556.84 199.88 462.59 632.74 743.25 489.02 928.92 432.42 901.98 596.64 809.18 707.08 957.87 659.99
00087877 00000051 555.12 203.44 462.33 628.79 741.64 489.61 927.98 433.51 901.09 596.72 807.77 706.29 957.16 659.61
00087878 00000052 553.03 201.43 464.14 630.88 740.61 491.21 926.97 434.10 900.67 597.20 806.69 706.53 956.35 659.21
00087879 00000053 551.78 201.52 464.62 630.22 739.42 490.79 925.64 433.36 899.12 596.43 806.19 705.82 955.78 658.23
00087880 00000054 552.39 203.00 463.93 627.15 738.69 490.84 924.75 433.69 897.54 596.39 806.11 705.35 955.49 658.12
00087881 00000055 550.45 197.74 463.37 633.12 738.10 490.59 923.20 433.28 897.67 595.80 805.70 706.48 954.17 658.93
00087882 00000056 558.53 200.70 452.99 636.24 728.26 490.18 929.62 432.95 895.47 599.58 808.75 705.76 960.21 659.92
00087883 00000057 557.25 199.33 453.31 636.63 726.75 490.16 928.47 433.38 893.80 599.65 807.98 705.24 959.91 659.56
00087884 00000058 555.68 195.20 452.88 640.99 725.52 490.02 926.83 432.23 893.33 599.77 807.78 705.30 959.73 658.70
00087885 00000059 555.16 194.00 452.08 643.40 724.45 489.99 925.88 431.01 892.98 599.82 808.08 705.44 961.81 657.61
00087886 00000060 553.48 196.21 452.99 644.11 721.90 489.24 924.22 430.22 890.80 600.47 805.60 706.30 960.61 658.54
00087887 00000061 551.51 195.04 454.16 646.44 720.72 486.28 922.13 429.32 889.00 598.11 806.08 706.42 958.20 660.49
00087888 00000062 550.33 194.79 454.76 648.48 719.25 488.38 920.95 430.19 887.38 599.25 804.10 706.53 958.06 659.68
00087889 00000063 548.95 198.70 456.98 642.15 717.90 491.06 919.47 432.79 884.98 601.05 801.40 705.83 955.21 659.06
00087890 00000064 544.90 201.42 461.65 643.56 715.76 491.88 916.79 434.97 882.27 601.78 798.07 708.83 951.18 663.22
00087891 00000065 541.98 202.12 464.01 646.45 714.64 496.05 915.58 439.53 881.17 605.89 794.98 713.11 947.96 667.81
00087892 00000066 540.85 205.16 465.09 647.82 713.81 499.31 915.33 443.24 880.28 608.94 793.09 715.72 947.48 670.70
00087893 00000067 541.81 207.54 465.35 649.59 714.29 501.22 915.86 444.98 880.53 610.94 791.21 717.97 947.97 672.70
00087894 00000068 544.05 209.91 466.86 650.84 724.38 505.37 910.22 451.57 881.91 609.50 785.04 718.22 943.70 674.29
00087895 00000069 543.97 210.58 468.91 652.48 726.50 508.87 911.86 455.75 883.11 611.23 782.48 718.81 942.05 675.96
00087896 00000070 544.99 205.76 465.27 652.18 725.62 506.97 908.80 453.02 882.44 607.79 787.11 716.52 943.93 672.38
00087897 00000071 542.46 205.53 466.25 646.90 723.93 503.71 908.41 449.56 882.95 606.75 791.95 715.94 946.21 671.19
00087898 00000072 540.44 204.09 467.43 644.05 725.37 502.21 909.94 448.68 884.61 606.49 795.68 716.58 946.07 672.15
00087899 00000073 541.54 202.25 463.83 637.95 726.33 501.63 912.82 447.28 885.85 607.82 800.86 714.52 948.71 669.31
00087900 00000074 545.36 203.20 459.43 643.87 719.58 503.15 921.79 444.15 888.05 612.60 803.61 718.68 953.82 670.94
00087901 00000075 545.57 206.33 457.33 643.15 720.39 501.69 921.54 445.11 888.37 612.23 805.49 720.25 952.76 674.60
00087902 00000076 545.43 204.65 457.92 647.93 719.83 502.05 921.11 445.43 888.50 612.06 806.80 722.57 954.33 676.67
00087903 00000077 545.95 204.95 459.08 647.99 719.54 502.43 921.57 445.71 887.83 612.59 806.60 722.77 955.31 676.65
00087904 00000078 545.46 204.19 460.89 650.83 718.50 503.59 921.78 445.20 887.49 613.80 804.80 722.88 957.02 675.25
00087905 00000079 545.86 205.38 461.65 649.58 717.41 504.73 920.44 444.59 886.38 614.43 802.80 722.76 956.53 673.81
00087906 00000080 545.42 205.75 461.97 649.48 717.68 502.84 920.13 443.91 886.09 613.16 802.12 720.29 956.20 672.44
00087907 00000081 545.37 203.10 460.98 650.71 718.00 497.33 917.89 439.43 885.60 607.00 803.26 714.62 956.68 667.58
00087908 00000082 545.70 196.78 460.18 649.30 716.82 492.38 917.46 434.16 884.15 601.38 804.98 710.49 956.47 663.19
00087909 00000083 547.34 188.07 459.63 655.99 714.18 486.85 915.94 425.52 883.10 591.90 804.98 705.49 961.32 655.38
00087910 00000084 546.22 183.37 459.74 663.48 712.16 481.54 911.96 420.99 880.38 584.22 803.00 703.40 958.90 653.84
00087911 00000085 544.29 182.37 462.12 668.55 711.19 481.28 911.92 420.77 880.32 584.91 800.29 704.85 958.43 655.35
00087912 00000086 536.25 199.18 468.71 644.76 716.91 488.85 909.03 422.13 879.96 587.04 793.05 717.26 945.91 660.11
00087913 00000087 541.70 193.60 462.48 652.81 724.38 494.79 906.67 438.94 883.10 597.84 799.94 716.21 947.77 669.41
00087914 00000088 543.77 195.38 462.36 654.28 727.86 498.14 908.72 445.59 884.13 601.66 804.76 720.53 947.24 676.72
00087915 00000089 547.58 199.49 460.95 648.53 730.25 497.21 911.05 444.12 885.95 600.53 809.45 720.46 950.82 676.46
00087916 00000090 546.00 197.70 460.22 643.73 731.01 494.76 911.50 441.81 886.51 598.33 809.61 717.11 948.20 673.29
00087917 00000091 544.74 195.23 459.95 641.14 730.85 492.27 910.72 437.52 886.88 594.34 808.35 712.66 947.89 666.95
00087918 00000092 550.20 197.19 454.27 643.02 720.72 490.06 918.48 432.94 886.28 594.50 809.70 707.54 956.93 661.27
00087919 00000093 549.15 195.16 455.91 645.16 719.90 487.99 919.33 429.38 887.67 594.36 808.87 706.99 958.39 659.44
00087920 00000094 549.11 197.77 458.69 647.47 718.97 488.81 919.63 429.73 887.47 596.49 807.25 708.28 960.09 660.38
00087921 00000095 540.54 200.69 466.84 638.74 727.18 491.46 909.71 434.23 887.06 594.91 796.83 709.10 947.45 661.49
00087922 00000096 540.19 205.26 467.94 641.38 728.02 492.87 911.11 438.71 887.32 599.47 794.54 712.92 946.05 667.72
00087923 00000097 541.14 205.37 467.45 643.09 728.25 494.09 910.75 439.48 887.96 599.51 794.63 713.07 947.31 667.50
00087924 00000098 540.22 206.10 466.35 638.80 727.99 494.41 911.51 440.52 888.15 600.14 794.18 712.36 945.77 667.51
00087925 00000099 541.04 207.55 464.02 630.89 729.75 494.26 913.19 439.39 889.64 598.91 796.40 709.64 946.13 664.27
00087926 00000100 536.84 208.37 466.03 631.23 726.25 500.91 916.67 434.41 888.62 600.22 788.70 719.88 937.38 664.58
00087927 00000101 535.29 208.41 465.93 633.15 723.10 500.03 912.18 434.59 885.25 598.13 788.27 720.74 936.04 666.24
00087928 00000102 535.29 209.14 463.24 631.77 722.36 496.22 911.58 431.45 884.91 598.13 790.72 721.93 937.08 667.45
00087929 00000103 534.34 207.21 463.42 633.43 722.36 496.34 909.89 430.26 884.77 597.47 794.31 723.51 937.08 667.69
00087930 00000104 534.52 203.27 462.08 636.50 722.84 495.62 908.62 428.03 885.54 593.64 795.25 722.30 938.15 665.21
00087931 00000105 532.17 204.67 465.76 638.29 719.73 491.77 907.17 425.46 883.34 588.60 794.29 722.61 938.02 666.30
00087932 00000106 531.54 202.20 465.65 644.08 717.71 488.91 904.60 424.45 881.21 582.77 793.73 722.80 936.97 667.78
00087933 00000107 532.21 200.29 465.29 648.69 717.30 487.50 905.36 423.60 881.24 579.84 792.06 720.60 939.06 665.99
00087934 00000108 531.13 199.44 467.73 649.96 715.89 486.27 904.53 421.99 880.37 575.93 791.93 718.63 939.76 663.63
00087935 00000109 531.41 199.66 469.34 650.91 717.47 488.78 906.94 421.18 885.46 575.79 792.87 717.01 946.34 659.26
00087936 00000110 533.20 198.62 469.80 652.08 720.14 489.34 909.35 423.20 887.43 576.35 794.66 716.74 947.50 660.33
00087937 00000111 539.53 198.16 465.02 656.67 723.38 487.12 907.02 429.48 887.25 581.49 793.49 711.44 950.14 662.31
00087938 00000112 539.56 206.44 468.76 647.67 725.21 488.31 909.20 432.63 887.99 583.08 794.82 711.49 950.01 664.22
00087939 00000113 542.86 210.78 468.86 646.71 727.78 489.38 910.97 435.47 889.90 585.76 797.30 714.58 952.47 668.88
00087940 00000114 545.27 218.45 470.37 644.16 727.67 491.65 915.04 439.02 890.47 592.11 800.68 721.11 955.62 676.68
00087941 00000115 549.53 221.22 469.73 650.59 728.72 498.76 918.75 444.71 891.91 598.66 803.49 729.78 958.91 684.81
00087942 00000116 552.51 226.40 470.49 661.13 732.29 506.30 921.34 450.91 894.87 608.81 808.50 739.55 963.62 693.57
00087943 00000117 554.23 233.95 470.18 660.74 736.17 516.20 924.66 457.08 902.49 616.11 806.94 745.45 965.09 697.47
00087944 00000118 554.65 239.90 470.57 658.75 735.91 522.88 925.27 463.13 902.84 621.03 810.17 749.90 965.69 701.75
00087945 00000119 557.67 248.57 467.41 652.14 736.99 532.01 927.15 470.01 904.20 628.72 816.14 757.09 966.21 707.24
00087946 00000120 555.20 259.87 475.48 642.82 743.82 534.19 931.35 474.46 906.87 630.23 813.28 760.74 969.14 709.52
00087947 00000121 556.83 264.00 476.53 641.98 742.67 545.42 932.06 482.89 906.96 640.77 811.42 764.95 971.86 711.96
00087948 00000122 557.80 263.05 477.21 650.04 745.43 557.15 932.88 490.89 909.88 652.64 813.16 776.61 970.93 720.76
00087949 00000123 557.56 272.53 475.14 648.66 748.08 564.62 932.39 498.23 912.76 662.83 815.74 784.76 969.89 729.29
00087950 00000124 560.80 279.67 471.13 647.43 747.86 572.23 930.21 506.80 911.62 671.68 817.31 792.52 969.52 739.01
00087951 00000125 563.86 284.77 469.29 647.13 745.97 578.35 930.60 513.45 909.76 677.63 817.78 798.33 971.78 745.28
00087952 00000126 562.80 288.52 469.81 649.60 746.32 583.21 931.21 518.02 911.13 683.52 818.21 805.10 970.89 752.01
00087953 00000127 564.88 288.44 469.81 655.97 746.31 587.15 933.13 519.74 912.53 689.14 820.71 812.13 974.56 757.25
00087954 00000128 566.20 292.26 469.05 659.05 747.06 592.25 933.65 522.71 914.70 692.90 824.06 818.47 977.96 761.71
00087955 00000129 567.83 295.82 468.06 657.50 749.10 594.09 936.68 525.34 916.72 695.40 825.38 820.99 977.98 765.01
00087956 00000130 570.41 300.08 466.57 658.94 752.15 595.43 939.75 527.13 919.26 697.34 826.40 823.85 979.14 768.25
00087957 00000131 573.51 306.56 463.27 653.90 756.41 597.59 942.86 529.22 923.22 700.56 829.72 826.30 980.56 770.58
00087958 00000132 577.53 315.44 460.52 640.10 758.11 597.95 947.55 530.90 924.45 703.68 835.35 826.96 983.35 772.02
00087959 00000133 580.94 320.22 457.88 633.97 760.54 600.96 951.76 534.48 925.61 707.26 837.65 828.20 985.75 773.63
00087960 00000134 587.55 318.77 453.53 634.47 765.76 598.11 957.03 534.45 927.95 708.36 844.94 829.49 988.99 776.83
00087961 00000135 591.32 317.97 451.72 632.58 769.35 594.70 962.22 533.25 931.56 707.88 850.52 829.99 993.44 778.80
00087962 00000136 594.25 312.02 453.27 639.30 771.41 592.68 964.86 531.60 933.95 704.44 855.44 831.01 997.71 780.00
00087963 00000137 596.73 307.01 453.24 640.40 774.20 588.26 967.68 530.52 935.20 702.08 857.40 828.87 998.78 780.61
00087964 00000138 597.32 300.97 455.15 637.54 776.18 584.05 968.96 525.77 936.92 698.12 857.32 821.78 999.06 772.93
00087965 00000139 596.11 296.85 458.82 640.47 776.52 582.30 969.53 521.71 938.88 695.80 855.59 817.60 1001.34 766.75
00087966 00000140 595.00 293.57 461.53 646.89 777.18 582.72 970.56 522.49 940.46 696.24 852.20 818.46 999.20 768.12
00087967 00000141 594.95 294.75 461.10 647.91 779.02 582.59 970.62 523.17 941.04 696.28 849.37 817.79 997.16 768.27
00087968 00000142 595.91 289.97 455.24 652.03 782.03 592.67 970.30 530.01 944.11 697.92 845.55 818.75 992.43 767.61
00087969 00000143 597.50 292.01 454.44 650.12 782.57 590.28 972.26 528.97 944.60 699.27 847.42 818.91 995.47 768.57
00087970 00000144 596.40 290.24 457.47 651.10 779.22 588.49 970.58 526.37 942.47 698.96 846.87 817.30 996.50 766.10
00087971 00000145 595.09 292.60 457.16 645.93 778.31 587.18 970.23 525.11 941.81 699.73 844.53 814.47 994.22 763.58
00087972 00000146 595.02 290.51 458.17 648.67 777.94 586.50 970.66 524.58 942.07 698.79 844.25 814.08 995.33 763.27
00087973 00000147 595.45 289.69 457.16 651.65 777.78 585.39 970.23 525.29 941.01 698.37 845.22 816.50 994.16 766.91
00087974 00000148 595.52 289.75 457.78 652.75 777.91 585.52 970.10 525.46 940.91 697.73 846.29 817.49 994.63 767.81
00087975 00000149 595.02 288.48 457.28 654.35 776.67 587.48 969.25 526.97 940.18 697.76 844.56 816.67 995.18 766.69
00087976 00000150 595.49 290.40 456.74 650.09 776.61 587.00 969.05 526.52 939.28 697.39 845.46 816.71 994.16 766.82
00087977 00000151 594.75 287.25 457.41 650.72 777.06 586.07 969.32 525.87 939.62 695.38 845.10 814.56 993.75 764.96
00087978 00000152 595.07 287.96 458.19 647.87 777.61 584.29 970.42 524.51 940.59 693.90 846.02 812.79 995.40 763.49
00087979 00000153 594.74 286.83 459.28 647.56 777.71 583.32 970.98 524.35 940.49 691.91 845.87 811.56 995.39 762.91
00087980 00000154 593.14 285.25 460.39 646.28 776.19 581.37 969.68 520.39 940.67 689.21 844.74 809.27 994.37 759.11
00087981 00000155 592.20 284.28 459.75 645.91 776.40 576.19 968.19 515.17 941.34 685.51 845.49 805.83 993.65 755.34
00087982 00000156 591.13 281.19 461.27 645.61 776.70 571.93 966.50 512.61 939.83 682.74 846.09 802.86 990.83 753.46
00087983 00000157 590.45 279.77 462.76 644.71 776.81 569.74 966.13 510.03 940.19 680.04 844.97 800.34 990.29 750.71
00087984 00000158 589.53 277.76 463.53 645.71 778.19 567.99 966.05 505.90 942.36 676.12 845.07 798.87 990.51 747.30
00087985 00000159 589.22 277.56 463.99 643.60 777.74 564.39 965.42 503.10 941.17 674.05 844.42 796.28 989.47 745.23
00087986 00000160 588.32 276.77 464.68 643.74 777.07 562.31 965.25 500.32 940.57 672.18 841.92 793.19 989.23 741.55
00087987 00000161 589.34 271.80 463.06 647.25 777.03 560.63 964.81 497.95 939.88 667.36 841.69 791.41 989.45 738.92
00087988 00000162 588.43 266.70 464.59 650.61 776.94 559.49 964.59 496.05 940.27 664.53 841.93 789.57 990.31 736.44
00087989 00000163 586.95 266.17 465.97 649.53 775.04 557.07 963.97 493.72 938.49 662.56 840.17 787.21 990.10 734.13
00087990 00000164 585.94 263.34 466.77 649.98 774.62 554.87 964.26 491.47 938.44 660.12 840.31 785.78 989.41 732.56
00087991 00000165 586.53 262.39 465.73 648.37 774.42 553.99 964.05 490.89 937.11 659.43 839.43 783.62 988.60 730.74
00087992 00000166 585.39 262.71 466.15 647.86 774.34 553.46 962.63 490.36 936.48 658.48 837.79 782.21 986.77 729.45
00087993 00000167 583.40 264.53 467.13 644.95 772.41 552.90 961.77 489.24 935.59 658.60 836.39 781.09 987.02 727.92
00087994 00000168 583.05 264.61 466.63 644.37 771.01 552.87 960.03 489.10 933.51 657.99 835.63 780.43 986.30 727.39
00087995 00000169 583.35 266.83 464.38 641.09 770.65 552.57 959.19 489.39 932.71 658.31 834.86 779.99 985.23 727.29
00087996 00000170 582.65 266.06 465.12 642.52 770.97 552.98 959.88 488.41 934.22 658.66 834.16 780.23 985.48 726.67
