Video ID: 	KlRcUA3eARo
H: 	1080
W: 	1920
FPS: 	25.0

FRAME INDEX X0 Y0 W H [Landmarks (5 Points)]

00004498 00000000 697.37 174.33 415.52 588.80 868.92 385.45 1039.26 417.81 968.26 521.08 845.26 598.83 989.21 626.23
00004499 00000001 710.67 187.79 408.63 561.66 870.28 384.77 1048.40 418.12 976.11 525.51 859.52 601.20 990.66 629.11
00004500 00000002 710.68 184.64 416.05 567.25 880.83 391.97 1050.86 422.86 979.83 525.12 867.18 602.56 992.56 629.70
00004501 00000003 715.67 183.55 413.26 568.24 884.04 391.01 1054.63 421.68 983.86 526.92 868.37 603.16 995.18 630.26
00004502 00000004 717.81 183.83 413.22 570.10 885.82 390.10 1058.51 422.43 986.20 526.89 866.46 603.39 998.60 632.04
00004503 00000005 719.37 187.25 415.12 568.03 887.38 389.74 1060.46 421.30 987.27 527.76 864.65 601.76 1001.13 629.98
00004504 00000006 720.49 185.55 415.45 569.00 889.48 389.31 1061.32 421.34 988.41 526.80 864.77 600.23 1002.23 628.81
00004505 00000007 721.87 186.94 415.49 567.53 892.86 389.13 1063.90 421.22 990.86 526.90 865.53 599.28 1003.72 628.08
00004506 00000008 721.66 187.94 415.47 565.08 892.98 388.95 1063.36 420.83 990.70 525.69 865.08 597.67 1003.88 626.26
00004507 00000009 721.62 186.25 415.05 566.68 891.67 388.63 1063.05 420.94 990.13 525.38 864.10 597.37 1003.89 626.27
00004508 00000010 721.05 183.28 414.98 568.31 889.66 388.84 1061.83 421.21 988.68 525.22 863.54 597.19 1002.58 626.01
00004509 00000011 720.06 183.77 413.74 567.85 887.30 388.83 1060.05 421.05 986.73 525.45 861.89 597.06 1000.85 625.77
00004510 00000012 719.15 183.54 412.50 565.53 886.23 387.95 1059.15 419.98 985.75 524.74 863.05 596.83 999.82 625.24
00004511 00000013 718.43 182.23 412.43 565.60 883.04 388.05 1056.82 419.21 983.77 523.47 862.66 596.06 999.20 623.69
00004512 00000014 716.16 180.18 414.20 568.85 880.13 388.27 1053.81 417.90 982.35 520.87 864.61 595.78 1000.26 622.05
00004513 00000015 714.67 181.24 413.86 566.51 879.76 386.25 1052.13 414.65 981.19 518.81 867.45 596.67 998.94 621.75
00004514 00000016 715.66 176.38 406.70 566.67 879.22 382.43 1049.21 410.79 982.66 509.55 875.07 596.89 1001.02 620.72
00004515 00000017 714.47 174.64 406.97 570.75 878.71 381.47 1049.19 410.67 983.27 507.37 871.29 595.80 1000.34 620.52
00004516 00000018 713.09 170.78 406.97 573.82 876.18 379.83 1048.44 408.87 981.77 504.24 868.54 594.41 1001.47 619.04
00004517 00000019 712.74 167.57 405.26 577.19 873.89 380.11 1046.84 407.81 980.46 504.36 864.41 593.77 1001.06 617.40
00004518 00000020 710.15 164.85 404.70 582.22 870.61 387.53 1040.41 414.23 974.52 505.26 858.54 592.09 998.69 614.86
00004519 DELETE   705.86 164.94 406.83 583.43 868.43 384.68 1038.72 411.67 973.05 504.35 851.82 589.39 995.25 612.28
00004520 00000022 702.53 163.69 407.91 585.39 865.99 382.39 1037.18 413.49 970.48 502.07 844.61 585.57 992.82 611.73
00004521 00000023 697.93 164.42 413.20 586.63 864.53 374.37 1037.87 406.55 969.54 501.72 839.30 583.88 990.36 610.83
00004522 00000024 695.65 164.92 413.98 586.45 861.81 370.01 1034.90 403.53 965.23 498.81 835.86 582.04 988.66 609.76
00004523 00000025 694.18 165.85 413.07 581.35 858.54 368.55 1032.78 402.19 960.70 497.45 833.29 580.20 985.37 608.06
00004524 00000026 692.03 165.89 414.85 578.56 853.92 368.89 1030.50 400.57 955.03 497.41 832.31 580.88 984.01 607.07
00004525 00000027 690.42 166.50 414.53 575.93 850.50 371.00 1027.43 401.63 950.67 498.30 830.64 581.92 981.74 607.30
00004526 00000028 689.41 166.97 413.80 574.75 846.01 374.20 1024.40 400.06 947.53 497.88 836.50 586.62 981.00 607.60
00004527 00000029 688.92 166.99 410.70 573.10 843.71 374.37 1021.56 397.15 946.08 499.04 841.31 590.12 978.59 608.45
00004528 00000030 688.58 167.22 408.95 571.72 842.00 374.49 1018.86 396.17 943.83 498.96 841.35 590.86 976.02 608.42
00004529 00000031 687.52 168.18 408.90 570.34 839.53 374.83 1018.47 395.35 941.74 498.65 841.30 592.94 975.46 609.51
00004530 00000032 686.52 168.03 408.83 570.12 837.61 374.92 1017.00 394.70 940.24 498.77 840.29 594.43 973.01 610.46
00004531 00000033 682.93 163.71 411.52 585.62 832.77 371.09 1013.90 393.55 938.47 498.20 826.71 593.43 971.84 611.74
00004532 00000034 679.62 159.16 413.37 596.24 827.58 370.77 1005.86 395.13 933.69 496.46 815.33 589.14 969.24 609.31
00004533 00000035 677.35 159.63 415.08 596.03 823.49 371.24 1002.52 395.52 929.61 496.75 809.53 586.60 967.10 606.74
00004534 00000036 676.35 161.08 414.09 592.68 820.00 376.00 999.96 396.99 928.00 498.60 809.72 588.12 968.78 605.67
00004535 00000037 676.95 168.37 411.35 581.93 818.77 381.61 997.30 398.89 925.10 506.60 815.47 593.21 966.44 608.02
00004536 00000038 678.71 168.81 409.18 583.26 818.53 385.24 995.33 400.66 922.72 513.92 821.74 600.62 962.98 613.97
00004537 00000039 679.66 168.64 405.88 583.57 820.97 393.25 990.35 410.21 918.68 519.76 826.76 606.72 955.49 621.62
00004538 00000040 679.48 170.72 404.79 583.65 821.90 394.21 988.63 412.02 916.83 516.60 826.32 608.69 949.60 624.73
00004539 00000041 676.90 169.92 406.07 582.94 819.15 388.10 986.63 407.06 914.19 512.43 824.89 606.90 944.99 623.87
00004540 00000042 676.04 164.39 405.90 584.55 815.43 382.49 985.65 401.37 914.49 510.15 821.73 602.11 944.74 618.81
00004541 00000043 675.94 164.33 407.96 581.74 812.02 378.74 987.25 398.77 912.07 506.89 815.82 595.03 948.42 612.53
00004542 00000044 678.11 164.08 406.47 579.75 811.56 374.93 988.36 395.60 911.11 503.61 812.42 590.55 949.49 608.60
00004543 00000045 678.33 167.59 406.83 574.99 810.30 374.05 989.94 397.01 909.81 502.38 807.43 588.69 950.37 608.66
00004544 00000046 679.31 166.79 406.73 576.94 810.99 373.63 989.79 398.09 909.28 501.91 805.20 588.30 948.99 609.61
00004545 00000047 679.86 167.01 407.63 576.52 811.98 373.89 989.71 399.01 908.68 502.76 803.46 587.66 947.50 609.60
00004546 00000048 678.71 166.45 408.01 576.15 810.63 374.92 989.09 399.71 906.80 503.38 801.43 587.34 947.11 608.93
00004547 00000049 678.48 171.07 408.69 571.66 811.10 376.79 989.19 402.28 905.92 505.08 800.45 587.01 946.55 609.18
00004548 00000050 678.80 174.75 409.17 568.39 812.01 379.30 990.47 404.20 906.30 508.06 801.67 588.46 947.85 610.12
00004549 00000051 679.44 174.13 408.98 570.72 812.84 381.97 990.58 407.16 906.74 512.47 801.72 590.24 947.54 612.27
00004550 00000052 680.60 173.70 408.82 573.87 815.36 384.11 990.52 408.62 908.33 516.07 804.62 593.31 948.14 614.87
00004551 00000053 681.58 175.92 407.99 572.45 818.17 386.61 993.43 410.50 911.38 518.42 806.69 595.28 952.05 616.32
00004552 00000054 681.53 178.06 410.48 573.44 821.94 390.18 999.16 413.53 916.88 520.90 810.50 597.82 958.98 618.12
00004553 DELETE   682.48 179.85 410.45 572.39 828.98 393.61 1003.92 416.92 922.59 521.60 816.70 597.94 964.06 617.91
00004554 00000056 683.90 180.84 411.70 572.19 833.35 394.27 1010.04 415.95 930.50 521.08 821.76 600.23 969.80 618.86
00004555 DELETE   684.36 179.89 416.56 574.26 840.77 391.38 1017.07 414.38 937.60 521.49 827.31 600.80 973.93 620.34
00004556 00000058 685.17 177.88 418.98 575.95 842.56 388.36 1021.42 410.98 941.94 518.63 831.21 600.20 978.18 619.09
00004557 00000059 687.10 174.53 418.95 575.44 843.86 385.88 1023.77 408.56 945.06 514.49 836.68 598.98 980.97 617.65
00004558 00000060 688.20 174.28 419.20 572.78 846.03 383.67 1026.40 407.09 948.22 512.96 840.07 597.36 983.34 616.56
00004559 00000061 688.70 173.84 418.60 575.86 846.23 385.31 1026.14 407.18 949.86 515.26 842.62 600.18 985.22 618.00
00004560 00000062 687.99 176.50 418.87 580.31 847.34 388.41 1024.49 409.27 946.46 526.25 846.39 609.61 980.75 626.65
00004561 00000063 688.75 181.74 417.55 585.87 848.35 397.19 1025.16 420.56 944.83 536.45 845.97 623.76 972.04 643.82
00004562 00000064 695.45 202.32 414.04 567.84 843.15 399.35 1027.74 420.52 946.06 548.69 844.57 634.49 963.96 650.92
00004563 00000065 696.43 205.07 413.94 564.06 845.62 400.41 1029.89 424.64 948.19 552.18 842.93 628.26 969.90 647.71
00004564 00000066 695.04 204.79 415.23 557.94 845.69 398.10 1031.05 423.81 950.21 549.65 838.63 618.28 975.25 639.57
00004565 00000067 694.98 201.09 416.05 559.27 845.78 395.38 1030.81 421.91 949.77 546.34 837.99 614.47 975.95 636.41
00004566 00000068 687.83 188.23 420.40 578.19 846.33 396.89 1026.42 423.03 944.63 536.56 835.84 611.64 980.43 633.73
00004567 00000069 692.68 195.43 418.53 563.07 843.54 392.92 1028.74 419.61 946.70 543.37 835.11 611.80 973.91 633.68
00004568 00000070 693.50 196.64 418.10 563.37 841.87 392.68 1027.96 419.69 944.62 543.06 833.69 613.89 971.26 635.90
00004569 00000071 693.37 196.14 418.36 564.47 840.80 392.75 1027.69 419.16 944.01 542.76 832.29 613.57 971.50 635.22
00004570 00000072 693.70 195.63 417.87 562.83 839.47 392.67 1027.26 418.78 942.81 541.99 832.03 612.98 971.02 634.30
00004571 00000073 692.16 196.42 418.53 560.92 836.23 391.58 1024.53 415.20 940.21 540.69 830.78 612.35 969.99 631.61
00004572 00000074 690.50 193.21 420.24 562.90 835.16 389.27 1022.57 412.22 938.62 538.04 830.66 610.37 969.30 628.98
00004573 00000075 684.33 185.46 418.91 571.13 836.23 388.60 1016.24 410.90 933.04 526.11 829.59 607.64 971.68 626.53
00004574 00000076 683.55 182.26 419.80 571.19 834.04 387.82 1015.69 408.83 931.90 523.70 828.80 605.27 972.75 623.04
00004575 00000077 683.40 181.71 417.84 570.35 831.71 386.32 1014.98 405.78 931.39 521.06 829.89 604.19 974.26 620.55
00004576 00000078 683.67 180.28 415.92 569.41 830.95 385.31 1013.50 403.25 931.04 520.06 831.68 603.92 973.88 618.97
00004577 00000079 684.31 175.59 413.04 572.86 830.30 383.77 1012.15 400.98 931.80 518.39 831.29 603.24 972.86 617.65
00004578 00000080 684.45 172.84 411.64 574.75 830.25 382.90 1011.46 400.04 931.93 517.46 831.37 602.62 971.95 616.92
00004579 00000081 684.75 174.16 410.70 571.62 830.03 381.98 1011.38 399.08 931.12 516.77 831.34 601.76 971.66 616.09
00004580 00000082 684.72 174.03 410.55 571.96 829.56 381.02 1011.46 398.49 930.71 517.03 830.67 601.64 971.41 616.21
00004581 00000083 684.71 173.97 410.44 571.97 829.16 380.64 1011.40 398.51 930.52 516.93 829.68 602.38 969.78 617.35
00004582 00000084 684.36 172.98 411.37 574.40 829.52 380.34 1009.99 398.23 930.65 517.39 830.68 604.53 966.45 619.59
00004583 00000085 685.01 171.25 410.11 578.94 829.93 385.09 1008.78 403.14 930.82 518.57 830.44 605.88 967.25 621.14
00004584 00000086 686.08 172.36 405.01 574.53 829.79 393.11 1002.67 408.94 929.04 520.52 830.98 605.20 967.62 618.78
00004585 00000087 685.17 172.88 406.16 574.08 828.57 391.95 1004.54 406.89 929.66 520.54 830.55 604.01 972.02 616.77
00004586 00000088 684.79 172.34 409.20 576.14 830.48 387.05 1009.76 405.39 931.49 517.82 829.84 601.92 973.37 617.23
00004587 00000089 683.89 173.24 411.49 574.35 830.09 382.90 1012.83 400.47 932.65 516.13 830.26 602.77 973.50 617.26
00004588 00000090 683.85 173.15 412.35 574.93 832.65 378.76 1013.38 396.89 934.15 511.48 833.50 601.23 971.99 616.16
00004589 00000091 684.26 171.13 413.15 578.09 834.41 377.17 1015.13 395.68 936.54 509.56 833.06 600.41 974.22 615.54
00004590 00000092 684.06 171.36 413.74 580.69 835.00 379.22 1015.54 397.11 937.43 512.38 833.09 601.57 976.06 616.11
00004591 00000093 684.22 177.10 414.67 577.81 832.44 383.08 1014.64 400.99 936.12 516.20 829.35 604.56 976.18 619.44
00004592 00000094 682.98 183.70 416.26 576.18 833.03 387.13 1014.12 407.13 933.92 523.13 824.52 606.46 973.39 623.57
00004593 00000095 683.68 186.14 416.54 575.11 835.67 388.86 1015.16 409.87 934.55 527.81 826.80 608.43 973.08 626.39
00004594 00000096 684.75 183.15 417.90 576.70 838.16 388.00 1017.42 408.21 936.71 528.85 838.08 610.96 975.27 627.82
00004595 00000097 686.53 179.07 417.91 577.25 838.87 386.78 1018.22 405.45 937.92 526.06 841.54 610.87 975.39 626.37
00004596 00000098 686.43 177.85 418.43 576.34 838.02 386.34 1019.07 404.76 938.20 522.92 842.02 608.98 978.07 624.07
00004597 00000099 686.75 177.55 418.33 576.74 837.78 385.78 1019.47 404.49 938.30 521.82 840.89 607.80 979.01 623.04
00004598 00000100 686.00 178.11 419.08 578.92 838.00 385.93 1019.16 404.86 938.07 522.50 838.06 608.17 978.12 623.75
00004599 00000101 686.63 176.30 418.78 581.19 837.97 386.30 1018.42 405.69 936.95 523.08 836.25 608.34 976.32 624.38
00004600 00000102 686.25 179.81 419.68 575.45 837.75 387.13 1017.81 405.71 935.73 524.96 837.92 607.84 975.84 623.24
00004601 00000103 686.22 180.32 419.61 573.45 836.98 387.68 1017.41 405.92 935.48 523.61 836.28 605.94 977.25 621.08
00004602 00000104 686.64 177.68 419.21 575.21 837.11 387.09 1017.97 405.63 936.41 520.97 835.68 604.71 977.91 620.01
00004603 00000105 685.90 177.43 420.69 576.91 836.98 384.41 1018.47 404.46 935.69 519.49 833.07 603.53 975.82 620.03
00004604 00000106 686.53 173.28 418.58 580.65 836.97 383.29 1017.14 403.77 935.81 518.12 830.23 602.32 974.50 619.18
CROP_BBOX: 431 0 1352 930
