Video ID: 	do2XMULXZTo
H: 	1080
W: 	1920
FPS: 	25.0

FRAME INDEX X0 Y0 W H [Landmarks (5 Points)]

00003108 00000000 776.91 192.71 411.70 573.99 827.07 399.35 963.20 458.73 809.44 543.36 817.09 607.16 928.30 653.63
00003109 DELETE   762.09 177.44 414.59 599.62 811.42 400.11 954.45 458.70 788.33 537.04 800.76 610.72 908.32 657.66
00003110 00000002 754.51 186.22 409.55 592.59 795.70 402.90 943.54 460.95 778.62 542.91 790.82 613.14 906.89 659.68
00003111 00000003 749.18 195.75 404.29 583.52 781.36 404.80 936.30 463.40 774.26 551.83 783.96 616.59 904.83 664.18
00003112 00000004 738.92 194.16 403.35 585.69 773.02 403.71 928.37 468.36 767.81 557.41 776.46 618.30 894.18 670.79
00003113 00000005 737.43 201.99 400.04 581.86 773.51 410.00 920.89 475.33 761.91 563.78 775.79 623.68 887.91 676.37
00003114 00000006 737.85 207.11 400.53 587.41 775.11 426.68 906.71 478.73 761.64 575.43 777.54 634.96 888.22 675.49
00003115 00000007 723.48 210.95 408.57 593.97 765.39 431.28 903.53 480.95 758.03 582.14 768.83 638.30 887.83 678.20
00003116 DELETE   719.47 221.56 405.04 586.04 758.50 433.62 892.83 490.08 746.59 587.24 761.75 639.48 873.56 684.33
00003117 00000009 713.53 232.95 400.95 572.00 752.61 438.55 884.37 494.54 736.22 586.64 755.52 645.21 859.20 689.73
00003118 00000010 702.88 228.26 405.50 580.25 742.28 439.00 875.96 493.20 718.31 582.42 747.79 652.52 846.52 695.15
00003119 00000011 703.05 239.57 400.55 567.05 738.10 440.36 867.76 488.63 711.01 581.90 748.96 658.36 837.69 696.83
00003120 00000012 700.13 245.85 402.57 557.77 734.14 440.05 865.42 485.70 711.69 582.41 747.36 658.21 834.88 695.22
00003121 00000013 701.03 245.94 401.24 559.28 734.32 441.23 866.27 485.13 712.50 583.46 746.70 662.15 831.84 698.09
00003122 00000014 704.42 233.57 401.91 579.22 739.88 444.22 869.89 487.78 715.99 585.16 750.52 668.83 832.02 703.86
00003123 00000015 718.18 238.84 390.69 578.56 748.53 448.32 870.27 494.32 727.61 593.69 755.35 668.05 840.77 705.03
00003124 00000016 721.18 252.75 393.38 571.55 748.86 451.95 877.71 506.09 738.05 606.98 755.31 671.25 845.95 714.78
00003125 00000017 728.68 250.05 394.86 580.04 756.28 457.84 886.22 513.99 746.40 614.45 760.14 676.14 853.48 721.36
00003126 00000018 729.84 259.80 410.21 580.39 769.05 460.20 904.95 524.37 762.30 628.73 776.02 677.87 880.92 728.79
00003127 00000019 731.72 250.53 409.79 592.03 765.95 460.53 927.06 524.76 770.23 637.85 783.18 687.73 898.13 739.10
00003128 00000020 735.29 257.31 412.39 588.76 768.62 465.84 933.45 523.87 777.52 642.53 792.31 693.53 910.87 739.90
00003129 00000021 736.05 261.24 415.08 584.08 769.22 466.50 936.09 523.90 778.92 643.03 793.09 694.29 913.67 740.05
00003130 00000022 735.46 262.54 414.69 582.49 769.65 466.71 935.79 524.15 778.96 642.20 792.12 693.23 913.39 739.07
00003131 00000023 735.18 261.46 414.65 587.81 769.82 468.36 936.09 525.26 779.10 645.19 793.25 695.58 914.89 740.89
00003132 00000024 734.16 259.90 414.74 593.18 770.41 469.07 936.63 527.83 779.93 647.21 792.81 697.07 914.11 743.66
00003133 00000025 734.75 260.97 413.86 594.53 770.68 469.61 936.48 527.78 779.25 647.52 792.95 700.14 912.67 746.26
00003134 00000026 734.16 260.41 414.83 595.65 770.25 469.99 935.71 528.90 779.14 649.13 793.00 700.17 912.41 746.87
00003135 00000027 731.90 259.40 415.24 595.00 769.11 469.32 932.88 529.50 776.09 647.41 790.94 700.57 905.67 748.55
00003136 00000028 730.83 260.47 413.28 591.60 768.56 470.06 929.73 533.05 774.02 648.31 788.80 699.22 900.85 749.66
00003137 00000029 728.14 263.63 412.58 585.47 767.39 470.35 927.53 535.88 773.10 649.47 786.50 695.99 900.03 748.29
00003138 00000030 728.87 274.12 418.92 578.99 772.86 476.27 928.78 536.28 771.34 644.84 778.28 697.66 894.94 744.47
00003139 00000031 728.74 279.11 419.24 574.17 774.39 476.64 928.82 536.38 772.34 644.57 780.22 696.78 895.20 743.27
00003140 00000032 728.58 270.06 418.77 582.94 776.76 486.22 926.45 543.60 772.05 645.38 781.93 697.85 895.93 742.25
00003141 00000033 731.65 267.37 417.18 584.98 778.96 487.26 927.45 542.72 774.94 646.00 785.01 698.29 898.66 741.27
00003142 00000034 733.19 263.32 413.49 588.34 770.81 476.16 933.77 534.13 781.24 646.88 792.60 696.83 911.56 743.04
00003143 00000035 740.08 262.15 410.60 589.75 774.20 470.94 940.17 528.32 783.82 645.44 796.05 696.99 918.05 742.43
00003144 00000036 741.65 260.47 415.30 592.22 776.78 467.71 945.97 522.65 788.52 643.70 798.53 695.70 925.26 738.50
00003145 00000037 743.15 254.97 418.77 595.51 779.96 464.20 949.00 518.08 789.80 640.97 800.96 695.54 928.00 737.29
00003146 00000038 744.92 243.09 420.41 604.06 784.11 462.74 951.05 512.89 791.97 636.54 804.63 695.63 927.14 734.16
00003147 00000039 745.87 236.34 420.38 610.71 788.00 459.34 955.03 507.76 796.55 632.31 806.17 692.45 930.35 729.04
00003148 00000040 753.89 218.41 419.76 626.37 795.37 459.57 953.42 504.71 799.73 621.50 805.32 685.68 933.99 722.27
00003149 00000041 753.73 221.01 421.64 616.70 795.78 453.40 956.39 499.20 800.34 613.10 804.66 675.15 937.61 712.00
00003150 00000042 751.56 231.59 426.75 600.48 797.40 446.39 966.19 491.01 807.01 607.46 809.37 672.39 941.24 706.81
00003151 00000043 755.51 217.99 427.36 611.07 799.66 449.61 960.33 485.62 807.67 600.94 809.14 666.10 945.92 695.14
00003152 00000044 756.43 214.89 423.88 608.26 802.43 445.44 961.43 480.12 807.27 594.07 812.82 661.20 949.71 688.98
00003153 00000045 757.86 212.45 422.27 611.34 802.66 441.84 961.83 475.74 807.76 592.44 813.81 658.46 952.15 685.37
00003154 00000046 756.31 216.88 424.88 606.58 802.98 438.48 963.33 472.28 806.02 588.47 813.41 656.81 952.42 683.73
00003155 00000047 755.64 217.00 427.47 606.24 802.18 438.14 961.03 470.22 803.76 587.07 814.81 657.52 952.52 683.02
00003156 00000048 753.96 217.52 430.46 604.77 798.90 439.59 960.86 468.42 804.25 586.60 813.02 660.63 950.46 683.68
00003157 00000049 753.97 218.17 428.31 605.06 797.46 441.09 958.62 466.88 803.30 586.10 812.67 663.34 949.24 683.99
00003158 00000050 754.26 220.91 419.58 610.70 790.22 438.39 956.95 465.66 798.14 591.36 803.74 671.06 941.82 691.54
00003159 00000051 754.30 219.77 417.15 611.66 788.02 437.54 954.22 466.97 795.01 593.34 801.20 669.96 938.78 692.42
00003160 00000052 751.74 212.09 418.59 619.31 785.58 437.64 951.44 468.05 792.80 592.86 798.59 669.60 935.42 693.25
00003161 00000053 747.00 211.39 421.19 617.58 779.70 437.27 946.88 468.88 787.73 594.29 796.51 668.44 932.83 693.10
00003162 00000054 744.37 214.99 420.38 613.87 776.80 437.59 944.00 471.53 785.48 596.97 794.71 667.89 931.39 694.26
00003163 00000055 737.99 216.94 427.55 603.03 775.47 435.05 946.46 471.52 792.04 598.33 799.30 664.98 929.40 693.68
00003164 00000056 734.21 221.56 430.26 601.37 775.36 445.69 939.19 480.44 789.66 603.61 801.37 666.61 928.41 693.18
00003165 00000057 739.87 225.48 419.40 598.17 780.60 453.54 932.63 483.17 787.39 602.49 801.36 667.73 928.92 690.24
00003166 00000058 738.39 216.29 419.04 610.07 779.13 449.68 933.05 480.89 786.90 601.29 797.24 666.73 927.41 690.83
00003167 00000059 733.41 215.48 429.73 606.46 773.16 437.36 942.98 473.51 789.69 600.71 797.33 665.60 927.80 693.66
00003168 00000060 733.82 218.52 428.90 601.41 773.41 436.51 942.77 472.48 789.24 597.56 798.41 664.02 928.26 691.85
00003169 00000061 733.96 217.04 429.43 604.03 773.80 436.46 943.78 472.25 789.80 598.13 798.71 665.19 928.86 692.87
00003170 00000062 732.51 219.56 430.04 602.33 773.15 438.57 943.46 475.75 790.87 601.22 797.87 665.40 928.27 694.26
00003171 00000063 737.51 229.26 419.83 593.12 780.08 448.57 937.96 485.28 787.39 604.27 796.10 665.48 927.62 693.92
00003172 00000064 738.02 238.24 419.26 582.71 778.18 451.11 936.81 491.64 786.61 611.89 797.05 668.40 925.90 699.68
00003173 00000065 728.87 247.19 425.93 582.56 770.35 447.84 937.56 494.34 787.58 616.73 797.00 668.57 923.68 704.92
00003174 00000066 733.45 248.18 425.26 590.11 779.25 461.96 936.68 502.09 783.01 618.99 794.53 675.58 922.84 707.37
00003175 00000067 730.85 249.97 425.95 593.45 776.58 466.32 934.03 505.20 784.30 625.69 792.86 683.05 918.61 714.00
00003176 00000068 730.30 254.38 425.07 592.02 776.56 468.17 931.83 508.23 784.04 627.21 793.92 686.07 917.82 717.68
00003177 00000069 728.85 255.02 425.33 591.28 775.90 468.84 931.43 510.22 782.79 628.15 792.20 686.98 915.20 719.62
00003178 00000070 727.77 251.13 426.14 594.79 775.09 470.31 930.36 509.57 783.09 627.39 792.60 687.17 914.72 718.03
00003179 00000071 728.38 250.11 425.31 596.69 774.83 469.57 930.13 509.60 781.72 627.59 791.85 687.42 914.06 718.93
00003180 00000072 729.12 252.81 423.85 598.91 774.64 470.60 928.43 509.45 780.48 628.73 793.90 689.54 916.59 719.75
00003181 00000073 728.95 255.00 422.11 597.64 772.54 470.06 926.40 510.35 778.93 632.42 794.10 693.08 914.02 724.36
00003182 00000074 732.80 256.42 410.17 589.53 767.16 469.95 918.98 514.91 778.65 644.26 789.08 691.77 910.46 727.51
00003183 00000075 730.69 258.01 411.56 591.69 765.56 469.75 916.58 515.57 776.01 643.48 784.93 694.93 902.04 731.68
00003184 00000076 727.46 255.70 412.61 593.25 765.07 471.92 909.46 519.79 775.03 644.67 785.24 696.72 895.62 735.38
00003185 00000077 726.81 257.59 409.09 586.58 762.57 477.96 901.84 521.66 773.47 645.22 785.90 698.41 894.55 733.41
00003186 00000078 721.42 249.23 409.62 587.46 754.70 473.89 896.19 512.66 770.95 638.76 778.33 696.20 890.16 727.28
00003187 00000079 716.49 246.57 411.62 587.88 750.71 469.28 891.39 507.45 764.40 629.81 770.62 687.14 881.46 717.97
00003188 00000080 712.52 244.95 414.51 580.37 749.57 459.39 891.57 504.41 761.81 628.42 772.85 675.95 882.93 711.93
00003189 00000081 714.89 240.73 409.07 577.02 749.35 456.02 891.45 498.48 758.18 620.39 773.65 670.42 881.98 704.32
00003190 00000082 716.79 241.61 413.22 574.15 752.15 454.35 893.47 493.78 761.87 618.45 781.81 667.11 892.68 698.22
00003191 00000083 716.74 246.49 418.94 571.57 753.65 452.52 897.73 493.14 765.06 621.80 790.06 664.68 909.03 695.77
00003192 00000084 717.43 249.85 418.74 567.37 754.68 453.30 900.23 491.65 767.85 623.50 796.22 664.53 919.29 693.52
00003193 00000085 714.91 247.02 428.00 577.16 758.83 459.25 907.33 491.73 767.50 619.36 797.20 670.33 918.99 693.72
00003194 00000086 716.90 250.35 427.09 576.09 759.10 460.81 908.57 495.86 765.70 619.51 794.57 673.27 915.32 698.82
00003195 00000087 718.28 247.41 426.70 580.18 760.38 459.50 910.16 496.89 766.59 619.52 793.56 673.59 911.92 701.11
00003196 00000088 723.42 239.92 424.98 583.62 765.10 453.92 915.97 492.16 769.55 615.02 797.81 668.14 917.85 696.94
00003197 DELETE   727.94 214.09 429.19 605.26 767.50 451.29 923.36 481.97 775.96 607.39 796.61 670.66 925.27 693.04
00003198 DELETE   738.88 191.69 423.88 620.67 781.55 434.38 943.56 470.80 800.71 594.86 799.70 652.00 937.47 680.78
00003199 DELETE   746.32 191.20 430.16 615.45 801.37 433.27 973.46 463.20 833.77 589.07 809.83 646.07 955.55 670.92
00003200 00000092 754.40 193.83 426.20 606.29 814.87 422.55 992.27 455.97 851.37 586.04 819.66 637.68 966.48 665.84
00003201 00000093 760.68 206.08 430.00 589.17 825.06 413.07 1008.49 450.61 863.11 579.89 825.13 631.77 971.59 663.87
00003202 00000094 769.29 211.40 427.35 587.24 834.13 411.28 1014.24 452.78 868.90 580.06 830.98 631.70 973.30 666.83
00003203 00000095 774.59 211.81 426.83 592.42 840.61 416.30 1018.49 459.01 872.50 577.08 835.20 636.92 975.60 671.61
00003204 00000096 776.13 217.19 424.02 590.50 839.53 419.52 1016.21 463.55 868.81 583.14 836.12 641.97 974.97 677.60
00003205 00000097 772.96 220.52 426.24 595.30 833.85 424.63 1008.21 467.08 861.48 597.42 835.29 648.87 974.59 683.94
00003206 00000098 770.91 206.21 423.27 615.25 826.52 429.96 1002.61 474.72 854.70 604.00 827.86 656.71 970.95 694.29
00003207 00000099 767.49 205.08 426.23 619.37 823.09 438.39 1003.45 481.06 853.79 606.93 824.08 667.48 965.87 701.76
00003208 DELETE   765.16 211.99 424.05 627.64 811.33 456.70 986.48 497.33 847.55 629.61 821.11 684.06 957.49 718.32
00003209 00000101 761.10 224.49 421.54 632.84 804.23 474.88 977.13 515.28 836.67 649.32 814.97 706.51 943.27 740.39
00003210 DELETE   759.20 254.13 419.07 614.97 805.80 492.96 972.01 536.87 830.34 665.25 814.43 724.09 939.08 760.05
00003211 00000103 742.88 271.33 432.81 624.90 788.85 513.03 962.98 556.85 814.82 692.78 800.49 744.45 935.51 780.61
00003212 00000104 734.23 289.75 438.38 613.10 783.83 521.41 962.47 560.57 812.70 699.43 804.31 754.53 933.79 785.91
00003213 00000105 729.88 298.19 434.03 610.51 778.74 523.14 949.80 563.36 800.07 701.45 802.45 757.69 933.77 788.78
00003214 00000106 729.06 299.63 431.21 607.44 774.52 524.44 943.56 561.48 799.26 696.42 799.89 753.78 926.84 782.76
00003215 00000107 721.51 307.80 434.85 596.61 767.22 525.14 938.56 561.45 792.42 698.18 794.13 752.30 925.81 780.59
00003216 00000108 718.92 313.69 435.86 596.02 765.19 530.74 934.13 564.50 789.20 702.86 793.38 760.83 922.74 787.25
00003217 00000109 712.37 319.91 439.18 588.56 761.15 535.55 927.58 568.52 787.03 707.18 792.51 765.37 917.07 790.95
00003218 00000110 706.23 323.52 440.32 585.92 757.14 536.58 925.00 573.41 782.12 708.11 783.98 763.93 910.75 792.68
00003219 00000111 698.75 326.46 442.09 581.60 750.90 536.84 922.65 576.70 778.96 711.00 776.72 764.22 903.70 795.43
00003220 00000112 698.38 324.14 441.09 584.15 751.59 536.71 924.22 578.00 780.40 713.69 777.11 765.36 902.70 797.74
00003221 00000113 704.60 325.28 434.43 580.51 757.98 546.01 923.29 584.15 784.25 715.07 781.85 768.02 904.17 797.77
00003222 00000114 707.42 318.29 436.63 584.01 759.46 545.05 923.94 582.35 786.61 709.66 781.32 763.08 904.34 792.24
00003223 00000115 707.08 310.31 423.61 579.79 753.26 530.28 918.11 577.34 782.74 708.34 777.16 743.98 908.28 781.86
00003224 00000116 710.48 291.94 422.87 592.87 754.56 521.98 915.47 564.51 768.53 678.83 775.54 738.20 896.58 771.18
00003225 00000117 706.55 270.53 424.25 603.39 750.76 504.93 915.05 546.47 764.96 669.02 769.16 728.31 891.31 760.79
00003226 00000118 699.35 269.11 425.47 595.16 750.86 487.68 908.63 536.85 760.50 657.63 765.87 707.57 885.24 745.32
00003227 00000119 700.49 260.33 425.08 597.11 747.35 480.74 906.80 524.40 758.00 643.66 763.62 702.69 882.72 736.04
00003228 00000120 703.73 248.53 419.67 603.71 742.24 477.04 893.95 516.19 757.55 643.87 757.27 698.62 880.38 730.97
00003229 00000121 703.95 254.92 421.30 590.80 743.46 472.13 895.53 509.37 759.81 639.12 757.71 692.38 881.86 723.20
00003230 00000122 705.82 259.09 421.54 583.68 747.96 467.46 897.56 504.68 761.82 631.22 763.81 683.94 886.01 714.56
00003231 00000123 712.21 261.76 420.45 577.55 752.82 466.02 900.23 499.65 765.65 626.29 771.97 680.96 891.71 708.37
00003232 00000124 717.74 249.15 420.31 585.02 755.88 462.03 903.18 491.15 772.06 619.98 777.99 677.68 895.13 701.48
00003233 00000125 720.08 242.59 421.89 588.73 758.81 458.41 906.31 487.73 773.46 617.06 783.26 675.42 898.75 698.87
00003234 00000126 726.93 242.61 419.59 590.38 762.94 459.38 910.50 484.49 778.21 617.23 794.77 681.63 905.69 701.30
00003235 00000127 728.44 249.51 420.83 584.71 765.53 461.20 917.07 488.20 783.24 623.79 799.46 685.11 913.80 705.93
00003236 00000128 728.27 261.13 422.81 573.89 765.75 462.03 919.60 494.19 782.38 628.45 796.26 686.68 913.84 711.48
00003237 00000129 726.83 257.64 428.37 581.86 770.21 464.74 926.12 497.40 781.91 620.51 793.17 686.11 910.49 711.97
00003238 00000130 726.71 257.05 428.36 581.14 770.55 465.05 927.11 497.32 782.86 619.46 792.73 686.00 910.34 711.59
00003239 00000131 726.56 256.71 429.35 580.10 769.80 464.69 927.19 497.23 782.74 620.03 792.55 684.98 911.27 710.71
00003240 00000132 726.02 254.46 429.36 582.00 769.72 464.75 926.79 496.96 783.35 620.09 792.52 685.08 910.80 710.52
00003241 00000133 726.52 250.78 427.68 587.24 771.24 465.30 927.86 499.25 782.82 621.17 792.29 685.54 911.51 712.42
00003242 00000134 727.53 254.48 425.17 586.89 772.19 464.20 929.24 500.08 782.36 622.60 792.07 687.54 910.25 716.05
00003243 00000135 733.83 247.61 410.70 586.51 769.12 463.18 924.60 497.88 784.29 626.24 786.53 692.33 901.58 720.37
00003244 00000136 735.35 249.31 408.64 585.58 769.86 463.47 923.78 496.74 784.51 625.01 784.58 697.19 892.85 724.23
00003245 00000137 733.20 250.68 409.77 590.89 767.86 465.40 920.79 500.49 783.56 631.11 786.18 697.11 896.04 725.72
00003246 00000138 729.89 244.25 413.20 607.75 763.87 470.00 916.24 507.92 777.91 638.86 785.22 698.89 904.09 729.63
00003247 DELETE   721.29 263.67 424.98 598.66 764.46 489.26 917.61 526.35 773.32 644.79 786.86 708.83 903.80 736.83
00003248 00000140 712.91 268.69 429.02 602.53 756.55 502.27 913.31 538.55 770.36 663.31 784.21 718.76 907.63 745.21
00003249 00000141 703.89 271.70 433.98 603.68 748.80 507.84 907.92 544.74 767.16 677.15 780.01 730.14 902.71 757.86
00003250 00000142 701.30 281.27 432.25 601.33 744.49 514.06 906.11 549.94 767.74 686.34 782.16 738.37 905.37 765.37
00003251 00000143 699.00 291.16 429.66 595.19 742.91 523.45 903.40 556.86 768.00 693.38 782.35 743.67 906.65 768.27
00003252 00000144 692.59 311.64 430.04 578.62 741.23 533.05 892.30 566.01 769.36 706.70 786.13 745.24 903.84 770.57
00003253 00000145 686.02 315.03 437.32 578.10 739.39 537.74 892.83 571.46 768.87 710.27 785.10 748.30 904.09 774.09
00003254 00000146 684.08 309.30 437.42 588.54 731.97 542.56 886.73 574.24 762.60 713.64 777.44 754.92 896.58 779.15
00003255 00000147 682.70 315.73 434.17 585.64 728.89 543.37 885.17 576.68 756.85 715.97 771.40 758.17 890.26 784.04
00003256 00000148 681.14 315.11 437.00 586.48 726.12 541.36 883.72 578.55 750.90 718.40 767.13 758.64 886.49 787.70
00003257 00000149 683.20 314.45 435.89 584.52 727.61 539.94 882.32 576.32 750.73 714.42 766.25 758.60 881.30 787.15
00003258 00000150 685.82 316.20 432.74 581.29 730.29 537.79 884.73 574.94 753.30 713.07 764.44 757.68 880.11 787.08
00003259 00000151 687.41 314.53 432.30 582.75 731.42 535.99 886.28 572.82 754.83 712.07 764.14 757.40 881.31 786.48
00003260 00000152 687.00 313.53 431.94 583.24 731.13 537.13 886.04 573.26 755.23 713.42 764.81 759.10 882.00 787.67
00003261 00000153 686.41 312.29 431.92 584.53 730.91 536.77 885.56 572.63 755.33 713.93 766.01 758.29 884.28 786.56
00003262 00000154 684.56 305.47 431.79 589.65 726.90 535.55 883.30 571.53 750.36 712.81 764.24 756.91 882.98 785.12
00003263 00000155 683.49 302.70 432.47 590.55 725.36 532.53 882.58 568.95 746.76 707.51 763.25 752.57 883.13 781.00
00003264 00000156 679.75 306.99 437.41 585.97 729.08 523.85 893.75 565.95 757.02 702.07 765.16 747.75 881.54 779.73
00003265 00000157 683.07 308.47 434.75 581.96 731.80 522.64 893.77 563.94 757.01 695.93 767.19 744.24 882.17 775.67
00003266 00000158 687.71 308.62 431.96 580.16 736.95 523.32 896.40 564.98 758.79 693.05 769.91 742.09 883.99 773.84
00003267 00000159 694.43 316.04 427.43 573.59 742.79 524.85 900.04 566.68 762.82 693.22 772.54 742.29 886.16 774.12
00003268 00000160 697.37 312.25 431.98 582.11 743.94 528.73 902.22 570.00 766.02 697.24 774.77 745.00 891.03 776.38
00003269 00000161 699.76 319.39 434.97 576.27 749.13 532.34 908.46 572.23 771.65 700.86 780.98 746.68 899.48 777.08
00003270 00000162 704.35 317.34 433.52 576.36 752.86 531.79 911.23 569.90 774.57 698.52 786.99 744.90 905.24 773.99
00003271 00000163 707.22 313.52 433.44 578.81 755.67 531.10 912.64 566.98 776.67 696.11 790.46 743.27 908.50 770.50
00003272 00000164 706.40 310.12 431.87 582.91 757.73 533.28 910.29 569.35 777.17 695.70 792.48 741.26 909.81 768.30
00003273 00000165 704.10 312.15 432.68 585.96 753.74 534.86 907.61 570.24 774.57 700.27 789.95 746.47 907.87 772.82
00003274 00000166 697.60 312.05 436.76 590.65 745.23 540.39 902.45 575.39 770.55 709.19 785.46 755.60 902.96 781.38
00003275 DELETE   689.90 327.14 439.71 580.44 738.59 551.49 897.17 590.89 763.85 726.15 780.28 768.21 898.58 796.68
00003276 00000168 692.36 345.82 432.75 565.79 737.29 566.99 894.19 606.05 764.02 741.30 779.63 778.83 894.48 808.40
00003277 00000169 683.08 344.90 439.82 574.69 731.35 578.57 892.94 610.29 764.63 751.46 777.69 793.92 893.99 817.98
00003278 00000170 678.62 346.89 438.63 575.52 728.56 579.27 890.08 612.51 762.00 752.47 778.56 794.00 894.08 818.80
