Video ID: 	NVVTUvg5vpE
H: 	1080
W: 	1920
FPS: 	23.976023976023978

FRAME INDEX X0 Y0 W H [Landmarks (5 Points)]

00000644 00000000 815.74 110.17 378.46 504.42 913.07 318.93 1092.20 286.15 1025.44 362.55 963.30 502.50 1113.00 475.14
00000645 00000001 814.43 116.03 377.35 508.19 905.59 315.65 1084.07 283.06 1011.35 362.18 953.37 504.80 1101.76 477.95
00000646 00000002 813.62 117.62 382.24 523.65 901.06 310.27 1079.33 280.22 999.57 357.28 940.95 504.81 1094.85 480.51
00000647 00000003 818.52 110.78 383.27 526.71 912.80 307.38 1094.09 278.76 1014.92 352.82 950.63 502.25 1106.31 478.69
00000648 00000004 828.52 108.26 383.39 525.98 932.72 302.49 1110.82 278.69 1044.71 344.79 974.29 496.28 1124.80 476.36
00000649 DELETE   841.28 119.57 377.53 520.61 953.22 296.03 1121.67 279.43 1065.88 348.97 1004.46 492.65 1139.25 479.50
00000650 00000006 844.74 122.51 371.35 536.58 952.58 295.87 1119.39 277.93 1067.16 356.73 1008.94 507.99 1136.25 494.17
00000651 DELETE   837.56 122.27 372.62 551.52 937.31 305.61 1106.88 283.61 1048.55 365.25 993.42 523.64 1121.52 506.57
00000652 DELETE   830.54 142.75 378.44 538.79 918.12 317.66 1083.90 290.16 1012.34 372.16 962.20 528.09 1090.39 506.58
00000653 00000009 825.76 141.02 378.38 524.97 910.88 318.78 1080.09 290.04 995.71 375.14 948.45 522.92 1081.77 499.82
00000654 DELETE   825.30 119.51 391.80 525.85 914.64 307.70 1096.84 294.13 1005.18 370.55 947.73 493.86 1105.29 483.33
00000655 00000011 833.13 119.92 388.05 517.42 927.91 310.47 1107.73 294.56 1026.90 370.58 964.43 493.26 1121.88 480.74
00000656 00000012 834.50 127.62 387.48 510.93 930.44 319.79 1113.07 302.26 1032.56 383.27 970.30 502.30 1128.89 488.64
00000657 DELETE   830.97 139.04 391.15 512.10 928.47 334.91 1109.64 317.13 1028.37 403.60 968.93 512.28 1127.52 498.15
00000658 00000014 828.26 146.75 389.30 512.85 925.37 346.13 1108.22 326.85 1023.83 417.69 966.42 524.21 1125.33 508.26
00000659 00000015 827.54 156.26 390.80 513.50 928.69 349.35 1108.61 334.45 1025.58 430.80 967.03 531.83 1122.25 519.41
00000660 00000016 827.03 165.82 390.59 507.57 927.67 354.75 1111.58 340.74 1027.51 438.52 965.34 535.47 1127.72 523.50
00000661 00000017 836.08 172.57 382.21 499.59 929.36 360.79 1109.36 345.07 1026.92 443.55 950.25 536.38 1120.60 521.78
00000662 00000018 829.59 166.48 382.16 504.23 921.29 364.94 1105.65 341.63 1028.94 449.98 951.12 540.01 1124.96 520.77
00000663 00000019 826.66 165.70 384.00 506.51 918.43 364.37 1103.04 342.74 1024.03 449.45 945.20 538.09 1121.60 520.21
00000664 00000020 822.91 163.74 385.50 507.25 916.19 363.40 1100.51 343.53 1021.50 448.94 940.69 535.94 1117.07 519.31
00000665 00000021 819.76 163.73 386.20 506.12 913.71 362.97 1098.56 344.18 1017.97 448.96 936.36 535.05 1113.94 519.44
00000666 00000022 819.57 166.47 383.44 504.94 912.84 363.21 1095.12 344.39 1015.89 448.13 934.75 534.58 1110.93 519.05
00000667 00000023 817.91 165.66 383.53 506.93 910.33 363.26 1093.03 343.31 1013.56 447.96 933.77 535.86 1109.58 519.22
00000668 00000024 814.32 165.43 385.39 507.72 908.63 364.14 1090.54 343.20 1013.19 448.39 932.82 536.35 1107.80 518.79
00000669 00000025 813.81 166.90 386.60 507.92 906.81 364.48 1089.51 342.10 1010.65 448.06 931.11 536.86 1107.00 518.04
00000670 00000026 813.30 164.78 386.23 510.43 905.17 362.88 1087.57 339.83 1008.47 445.63 928.29 535.27 1105.30 515.92
00000671 00000027 812.74 162.76 385.64 509.49 903.30 360.29 1085.63 336.28 1005.74 440.34 926.78 533.26 1103.42 513.13
00000672 00000028 813.35 162.54 385.44 509.39 902.10 358.46 1083.99 334.39 1002.49 437.68 924.95 531.30 1101.57 511.29
00000673 00000029 814.29 160.60 381.71 510.15 899.40 356.01 1081.79 330.21 999.11 435.42 923.25 531.25 1100.25 509.91
00000674 00000030 813.82 156.49 382.87 512.07 897.30 353.08 1079.73 326.86 993.86 431.65 921.21 529.39 1097.51 507.48
00000675 00000031 814.09 156.30 381.90 509.80 895.21 353.97 1076.44 326.58 988.18 429.83 919.32 529.54 1094.03 506.60
00000676 00000032 814.14 155.11 380.89 508.40 894.52 354.06 1075.06 327.00 985.47 428.95 917.37 529.14 1091.80 506.59
00000677 00000033 815.49 156.18 379.63 505.69 896.91 352.10 1076.72 326.23 987.50 426.80 919.37 527.55 1092.23 506.13
00000678 00000034 817.18 151.96 380.18 518.30 900.26 348.41 1081.80 324.61 995.70 425.60 925.38 530.40 1095.00 511.34
00000679 00000035 819.53 150.88 380.18 530.27 905.30 344.29 1086.18 321.91 1003.01 423.32 934.20 531.79 1099.47 513.03
00000680 00000036 821.87 154.75 374.98 534.62 907.10 340.00 1085.99 317.44 1003.34 416.30 934.85 533.63 1097.48 515.08
00000681 00000037 820.59 155.63 374.24 534.01 904.57 334.59 1082.59 312.82 996.54 410.19 930.40 530.98 1089.63 513.74
00000682 00000038 817.33 158.82 372.36 527.55 899.53 332.83 1076.08 311.32 988.66 408.42 924.36 529.03 1080.79 512.56
00000683 00000039 813.46 159.22 370.61 519.04 896.87 328.55 1070.75 309.46 984.99 406.50 920.34 522.83 1072.64 508.78
00000684 00000040 811.36 153.65 374.64 508.68 897.77 323.23 1073.39 305.22 985.33 403.54 920.31 516.15 1073.57 501.53
00000685 00000041 812.26 145.61 381.20 496.94 898.83 321.93 1077.57 304.70 990.26 391.97 927.87 503.03 1087.86 489.89
00000686 00000042 815.40 144.11 379.59 489.74 906.11 320.58 1083.84 304.89 999.46 389.25 933.79 497.28 1093.68 485.71
00000687 00000043 815.15 139.44 377.48 485.84 910.45 318.49 1086.80 307.01 1004.50 385.97 935.84 492.79 1092.31 484.94
00000688 00000044 812.33 137.03 376.41 486.49 905.26 317.79 1083.11 305.52 999.57 382.96 929.86 491.72 1087.63 483.54
00000689 00000045 806.53 138.04 376.33 490.36 895.39 314.98 1072.93 303.45 985.75 379.26 919.56 490.32 1077.80 482.63
00000690 00000046 798.41 139.12 379.42 488.12 886.99 315.16 1064.04 306.56 973.90 379.63 908.97 489.47 1066.27 484.17
00000691 00000047 793.41 145.49 376.20 480.14 878.49 317.07 1054.64 306.71 961.17 380.85 899.82 488.70 1056.28 481.96
00000692 00000048 790.84 147.37 376.35 482.14 876.63 320.98 1051.83 311.25 959.54 384.35 897.84 489.85 1053.66 483.28
00000693 DELETE   789.23 150.56 374.62 481.89 882.29 332.48 1050.89 321.70 963.62 391.07 901.79 491.63 1052.80 484.44
00000694 00000050 791.22 150.16 376.45 484.62 887.02 332.35 1056.26 322.94 972.59 393.28 907.18 492.58 1059.08 486.35
00000695 DELETE   797.44 153.57 377.32 480.90 891.67 323.53 1066.43 315.10 982.25 390.06 912.71 492.34 1068.94 487.17
00000696 DELETE   806.19 147.93 375.67 482.57 901.54 321.33 1078.67 314.33 993.57 391.20 921.86 493.36 1077.90 489.76
00000697 00000053 810.30 143.42 378.82 485.82 911.85 318.36 1089.56 312.23 1009.61 389.34 932.43 493.49 1089.61 490.15
00000698 00000054 815.74 141.29 379.41 496.26 916.99 316.71 1092.90 308.56 1012.30 389.13 938.48 499.59 1091.70 493.99
00000699 00000055 819.52 146.96 373.61 509.73 913.14 316.16 1088.84 301.39 1005.14 387.25 936.99 520.17 1079.39 507.93
00000700 00000056 820.58 143.39 371.64 531.56 907.59 312.14 1086.24 298.07 1000.33 383.21 939.13 534.76 1069.27 525.10
00000701 00000057 819.90 142.46 375.63 535.96 906.18 312.99 1088.09 299.94 996.04 387.55 934.93 538.82 1064.37 530.43
00000702 00000058 821.91 136.24 376.10 518.49 915.46 318.35 1097.04 309.56 1004.73 397.01 939.12 528.21 1076.22 521.49
00000703 00000059 825.48 137.32 381.88 516.15 924.37 318.63 1110.25 316.10 1019.47 399.71 951.37 521.12 1095.47 519.49
00000704 00000060 832.13 137.68 379.94 511.78 933.16 322.49 1119.97 320.48 1027.05 400.85 960.51 520.48 1107.92 519.17
00000705 00000061 835.69 142.60 380.99 509.96 936.26 322.77 1122.04 321.59 1029.99 401.42 963.85 520.19 1108.92 519.48
00000706 00000062 835.76 143.20 381.78 504.88 935.74 319.56 1121.58 319.49 1028.51 394.55 959.72 514.34 1107.52 514.37
00000707 00000063 833.87 141.74 384.75 505.57 934.07 310.00 1121.23 311.41 1027.26 384.79 957.13 504.93 1107.19 505.99
00000708 00000064 830.48 136.64 383.54 505.50 930.60 305.88 1117.67 306.12 1024.59 379.86 952.53 502.73 1103.27 503.02
00000709 00000065 828.31 132.37 381.59 517.74 930.63 310.93 1111.28 305.46 1023.61 385.34 950.89 511.94 1098.14 507.80
00000710 00000066 823.37 132.81 381.48 515.18 922.55 313.03 1104.82 308.42 1012.20 389.10 940.80 509.80 1094.25 506.75
00000711 00000067 821.52 142.99 379.10 508.37 915.75 316.90 1099.25 312.30 1005.80 395.04 934.41 510.85 1092.19 508.09
00000712 00000068 816.81 146.55 377.69 505.37 911.20 319.58 1093.02 313.20 999.94 400.52 928.31 519.18 1079.73 513.70
00000713 00000069 812.61 149.01 376.65 505.64 907.05 319.76 1089.80 313.33 994.86 401.21 920.81 519.88 1073.98 514.91
00000714 00000070 807.55 149.61 377.60 506.36 903.19 318.67 1085.27 312.65 989.20 402.07 914.44 519.07 1067.08 514.77
00000715 00000071 806.33 153.65 373.30 511.84 898.14 317.27 1079.30 311.62 981.12 401.83 908.17 519.15 1061.36 515.35
00000716 00000072 805.34 155.57 368.55 517.96 894.91 318.67 1075.79 313.64 978.04 404.66 904.19 522.60 1058.69 519.69
00000717 00000073 801.42 155.28 372.72 520.57 894.09 318.45 1073.80 314.80 976.57 406.47 901.73 520.63 1056.45 518.89
00000718 00000074 797.50 154.34 377.09 517.88 894.21 317.49 1072.59 314.21 976.17 404.95 901.67 517.61 1055.21 516.06
00000719 00000075 796.40 155.24 377.56 514.61 892.87 317.16 1070.54 312.75 975.23 404.30 902.53 516.59 1055.32 513.94
00000720 00000076 796.63 154.15 377.72 511.47 892.30 316.65 1071.75 312.46 974.40 402.14 902.35 516.50 1056.07 514.10
00000721 00000077 800.72 152.20 375.19 512.84 894.20 316.83 1075.03 311.15 978.38 401.86 905.94 519.50 1057.93 515.95
00000722 00000078 804.31 150.97 375.53 510.18 898.92 317.82 1081.04 314.16 983.84 402.94 910.34 521.10 1062.57 518.80
00000723 00000079 810.07 150.27 375.77 507.56 904.12 321.40 1086.33 313.16 993.04 405.35 923.95 524.82 1072.15 518.14
00000724 00000080 813.49 144.16 378.98 508.61 908.46 322.08 1092.42 314.65 998.95 403.99 929.43 523.13 1077.19 516.78
00000725 00000081 817.71 141.44 375.43 507.67 911.27 321.97 1094.17 314.43 1001.02 403.05 932.53 522.30 1078.80 515.82
00000726 00000082 816.55 142.58 375.68 511.44 910.11 322.21 1094.50 314.66 1000.43 401.51 931.35 525.05 1077.32 518.85
00000727 00000083 813.59 149.71 373.70 518.99 905.74 321.10 1084.92 310.81 992.72 397.64 928.64 530.11 1060.86 522.94
00000728 DELETE   807.57 139.44 368.47 544.76 900.03 318.37 1069.17 309.65 986.87 383.98 924.17 533.18 1053.31 528.74
00000729 DELETE   795.19 136.70 368.61 546.98 884.36 317.91 1054.50 304.90 968.86 378.59 911.87 537.98 1036.02 529.79
00000730 DELETE   786.18 155.90 367.18 530.15 871.84 315.06 1034.79 299.16 949.69 378.82 901.48 532.32 1019.69 522.30
00000731 00000087 771.45 139.08 374.18 534.41 860.48 315.35 1038.01 305.59 948.26 393.64 891.53 529.50 1026.13 522.12
00000732 00000088 775.97 144.11 379.38 507.47 867.72 312.61 1048.27 307.03 954.01 388.13 893.74 507.31 1036.73 503.66
00000733 00000089 784.54 141.22 388.95 503.01 882.79 309.35 1066.34 308.36 970.90 383.36 901.29 497.37 1050.53 497.98
00000734 00000090 795.53 144.50 388.77 498.83 896.41 309.55 1079.90 311.16 982.80 385.77 907.80 497.93 1061.71 501.39
00000735 00000091 803.55 147.39 384.70 493.84 905.91 313.18 1086.30 312.69 989.33 398.26 915.42 507.86 1065.00 507.81
00000736 00000092 808.65 145.10 383.43 498.56 909.51 319.19 1089.78 317.58 994.70 405.58 921.87 517.68 1068.37 516.42
00000737 00000093 811.11 145.59 381.36 505.80 909.39 324.93 1092.72 322.33 998.87 411.18 924.27 527.42 1069.11 525.24
00000738 00000094 809.23 152.70 380.86 507.50 905.97 333.89 1089.17 330.33 995.41 416.75 921.65 535.84 1068.72 533.05
00000739 00000095 808.68 158.44 379.88 510.48 905.59 344.21 1087.16 338.64 998.79 427.06 924.88 543.70 1071.74 539.15
00000740 00000096 807.91 162.81 379.72 515.24 903.92 351.36 1086.95 344.21 999.15 433.25 926.00 550.32 1074.76 544.32
00000741 00000097 808.18 167.83 378.03 512.92 903.41 354.44 1086.20 348.28 997.88 438.62 924.86 552.77 1075.03 547.80
00000742 00000098 806.16 172.47 375.61 506.90 902.60 352.97 1083.27 348.28 994.55 439.62 922.97 550.24 1067.52 546.82
00000743 00000099 804.44 176.80 376.40 496.32 900.52 350.02 1078.51 345.07 988.60 436.51 919.26 544.14 1060.55 540.62
00000744 00000100 799.79 173.07 377.54 490.21 898.79 344.79 1072.53 338.99 987.29 432.89 915.08 533.68 1054.55 529.47
00000745 00000101 792.89 167.55 385.23 491.92 895.36 338.56 1066.80 333.34 980.06 426.84 911.07 526.94 1048.56 522.92
00000746 00000102 789.51 163.20 387.76 491.45 892.94 334.10 1063.08 329.76 975.44 424.40 907.05 519.80 1046.35 516.40
00000747 00000103 786.83 162.76 387.80 491.57 890.24 333.42 1061.11 329.64 973.58 424.96 904.72 519.00 1044.15 515.92
00000748 00000104 784.87 162.02 386.74 493.01 887.96 336.23 1058.24 329.54 973.75 426.90 908.75 525.22 1041.45 519.73
00000749 00000105 783.27 162.75 386.61 493.25 886.47 338.92 1057.59 329.20 975.58 428.57 912.47 532.51 1040.50 524.08
00000750 00000106 784.39 161.84 384.22 493.99 886.58 340.58 1058.29 331.08 976.94 428.68 912.58 536.13 1041.40 527.75
00000751 00000107 785.21 162.61 383.82 493.83 888.29 339.75 1059.45 329.59 979.51 427.55 915.19 537.46 1042.31 528.46
00000752 00000108 785.96 161.88 386.31 495.86 890.68 337.57 1061.06 327.64 980.46 424.84 915.15 536.34 1039.37 527.87
00000753 00000109 787.98 158.41 382.90 497.05 890.16 335.78 1062.45 327.35 977.27 422.37 909.12 533.57 1045.38 526.53
00000754 00000110 789.23 156.66 384.39 493.87 890.32 334.69 1065.34 326.64 975.81 419.27 906.28 528.34 1049.92 521.69
00000755 00000111 790.49 156.58 386.16 493.61 891.62 331.51 1067.57 322.75 976.78 417.56 907.63 525.33 1050.61 518.32
00000756 00000112 792.92 157.02 384.92 491.71 894.75 328.62 1069.24 320.85 979.97 416.28 910.22 522.29 1049.76 516.36
00000757 00000113 795.80 152.94 382.43 494.62 897.11 325.46 1072.67 318.22 985.02 415.38 915.82 522.25 1052.64 516.76
00000758 00000114 797.17 151.95 381.83 493.14 898.68 322.17 1075.87 316.36 986.30 412.43 916.26 519.33 1055.80 514.72
00000759 00000115 796.47 150.89 382.75 492.77 898.33 320.03 1077.03 315.95 984.75 411.39 914.77 517.94 1054.81 514.64
00000760 00000116 794.09 150.01 385.61 495.87 896.11 322.20 1075.69 317.43 982.02 411.80 911.81 521.88 1054.99 517.79
00000761 00000117 794.29 148.91 385.36 496.11 894.41 326.16 1073.11 319.87 979.52 412.74 909.48 524.42 1054.50 519.13
00000762 00000118 793.03 151.28 385.97 497.11 893.84 329.51 1071.02 323.91 977.25 414.59 905.91 524.71 1052.19 520.36
00000763 00000119 792.45 157.22 385.43 500.33 895.45 334.11 1070.09 329.25 978.29 416.94 906.86 526.49 1052.47 522.98
00000764 00000120 794.05 162.16 381.96 510.54 894.35 335.01 1070.38 330.51 977.69 419.48 907.05 531.53 1050.65 528.53
00000765 00000121 794.39 163.01 380.94 512.61 893.54 334.06 1069.69 329.04 976.72 419.63 905.89 531.78 1049.33 528.67
00000766 00000122 794.41 162.62 380.39 509.04 895.96 327.53 1070.51 321.41 981.29 416.30 910.94 527.67 1044.66 523.75
00000767 00000123 795.91 160.77 379.73 507.36 898.99 319.53 1073.33 313.98 985.47 409.93 914.74 523.81 1043.75 520.42
00000768 00000124 804.43 164.92 370.31 507.37 905.48 313.38 1075.03 308.61 991.53 397.26 923.05 520.33 1047.40 518.18
00000769 00000125 807.57 161.24 371.10 512.41 908.85 307.71 1076.82 301.73 996.42 383.44 929.35 518.49 1050.00 516.54
00000770 00000126 807.21 151.43 374.01 518.51 907.46 302.25 1078.96 296.75 999.44 370.89 931.93 513.96 1056.45 511.97
00000771 00000127 807.85 131.39 372.40 534.61 908.85 293.64 1082.35 291.72 1003.82 364.50 927.33 508.28 1060.47 509.75
00000772 00000128 811.26 127.36 370.74 535.17 910.76 291.09 1082.90 290.33 1003.59 359.75 926.96 504.90 1057.48 507.63
00000773 00000129 814.30 125.38 369.23 533.67 913.63 288.51 1086.55 289.81 1003.89 358.77 926.55 504.45 1056.07 508.96
00000774 00000130 815.16 122.98 372.73 530.52 916.53 288.53 1088.87 291.18 1005.13 358.43 927.07 501.00 1057.33 506.36
00000775 00000131 815.72 124.93 375.26 523.65 919.17 288.83 1091.00 294.37 1005.50 363.15 926.40 498.50 1055.92 506.07
00000776 00000132 814.74 127.24 379.42 516.43 922.98 291.58 1094.59 300.21 1008.89 367.57 927.44 496.11 1058.29 506.01
00000777 00000133 813.19 127.08 383.72 513.61 924.77 294.79 1099.51 308.77 1010.22 375.28 925.61 496.59 1059.21 510.45
00000778 00000134 813.30 133.13 385.44 510.83 926.30 301.60 1106.39 316.90 1010.67 384.27 927.16 504.28 1064.58 518.83
00000779 00000135 811.75 136.49 388.81 508.24 925.47 310.63 1107.02 328.92 1006.82 397.97 926.56 512.27 1061.23 529.29
00000780 00000136 816.15 143.90 385.80 501.79 918.16 313.82 1102.90 332.92 997.79 412.15 918.73 520.66 1052.97 537.00
00000781 00000137 819.12 152.95 381.16 500.32 919.30 323.06 1104.26 346.67 996.71 421.23 916.10 525.20 1055.99 545.22
00000782 00000138 820.67 169.60 379.39 487.79 919.32 331.40 1099.73 354.56 993.91 431.55 915.24 526.96 1055.52 546.81
00000783 00000139 818.73 173.31 379.57 493.69 917.08 337.21 1097.08 361.20 990.01 438.49 911.38 532.03 1053.18 552.84
00000784 00000140 814.55 180.43 383.04 501.01 917.40 341.53 1095.95 365.16 992.44 447.24 914.33 540.45 1049.73 561.05
00000785 00000141 814.77 182.15 382.17 504.02 914.67 347.27 1095.57 370.40 989.76 455.68 912.67 549.86 1047.16 570.10
00000786 00000142 813.12 184.17 382.24 499.79 914.81 353.67 1095.43 376.28 992.20 461.71 913.51 553.78 1051.44 573.35
00000787 00000143 814.10 183.70 379.09 498.68 915.43 356.97 1094.74 375.51 996.31 466.65 917.83 558.69 1048.31 574.81
00000788 00000144 812.38 183.65 378.79 501.71 914.75 357.57 1092.30 377.88 993.57 470.90 913.71 559.98 1042.70 577.72
00000789 00000145 812.28 182.19 378.33 505.51 914.77 358.01 1091.38 376.33 994.22 471.92 916.84 562.98 1041.90 579.05
00000790 00000146 810.86 183.43 379.65 506.74 915.53 357.22 1089.00 372.77 995.55 468.69 921.66 563.06 1039.30 576.76
00000791 00000147 807.67 186.15 380.73 507.35 919.18 357.58 1085.70 369.15 999.33 463.67 926.92 564.76 1033.33 575.04
00000792 00000148 808.42 183.76 380.78 516.04 917.07 356.09 1086.94 363.35 1001.13 461.44 929.72 572.98 1032.88 580.17
00000793 00000149 807.67 182.70 379.97 522.27 913.13 349.97 1085.25 355.40 1000.32 451.98 926.53 573.29 1031.01 579.24
00000794 00000150 807.91 180.84 375.73 526.11 913.60 352.18 1079.21 356.98 998.84 443.66 928.33 569.08 1035.98 574.72
00000795 00000151 809.14 178.21 373.52 526.20 915.77 351.84 1079.12 356.23 1000.39 437.28 928.83 564.22 1039.04 569.91
00000796 DELETE   810.74 172.08 375.63 532.06 916.36 342.52 1085.49 347.82 1003.44 429.89 927.88 561.13 1042.68 567.89
00000797 00000153 810.79 160.13 379.02 536.47 919.24 338.04 1092.28 341.82 1012.26 423.99 931.45 553.82 1053.10 559.02
00000798 00000154 812.59 152.22 382.12 531.49 923.13 332.75 1104.35 338.16 1020.45 419.54 934.48 545.29 1065.56 550.83
00000799 00000155 815.21 148.44 380.57 522.02 925.19 331.71 1108.16 335.31 1025.32 414.15 941.00 539.70 1074.33 543.14
00000800 00000156 818.77 143.83 376.49 515.57 927.89 327.99 1112.95 332.74 1031.09 411.18 945.51 535.79 1081.55 539.88
00000801 00000157 818.21 141.35 377.85 512.69 927.69 326.27 1112.73 330.08 1031.12 406.64 946.17 532.33 1083.99 535.31
00000802 00000158 816.21 141.29 377.89 512.51 925.27 323.51 1108.92 327.09 1026.83 408.31 943.71 532.27 1077.55 535.23
00000803 00000159 814.92 144.44 377.42 511.82 922.16 321.12 1103.50 323.94 1020.35 408.49 937.62 532.19 1069.93 535.40
00000804 00000160 812.68 147.00 380.24 510.59 917.85 320.39 1098.95 323.34 1010.91 407.90 931.53 531.09 1062.91 534.39
00000805 00000161 811.47 147.53 381.57 508.69 916.31 320.63 1096.20 324.25 1003.99 407.10 926.14 527.88 1059.11 531.92
00000806 00000162 808.60 148.25 382.94 507.07 913.77 317.46 1094.39 323.39 998.91 406.32 919.96 522.92 1056.98 529.01
00000807 00000163 806.21 147.06 384.46 506.09 910.69 315.68 1092.03 323.95 992.24 405.68 914.48 520.05 1054.22 528.03
00000808 00000164 804.41 146.35 386.96 502.37 909.04 315.05 1090.66 326.08 987.48 407.14 910.61 516.63 1053.81 526.51
00000809 00000165 806.81 143.93 381.65 498.34 910.67 314.54 1097.32 334.43 991.66 402.34 912.73 507.55 1060.65 526.12
00000810 00000166 808.06 141.77 383.95 498.34 913.26 314.91 1098.42 333.93 994.74 401.11 915.75 506.05 1062.57 523.89
