Video ID: 	SiLRglf6mEk
H: 	1080
W: 	1920
FPS: 	29.97002997002997

FRAME INDEX X0 Y0 W H [Landmarks (5 Points)]

00001199 00000000 698.71 252.01 401.32 614.25 762.64 491.21 917.62 537.93 768.60 619.44 740.36 703.47 861.95 740.68
00001200 DELETE   690.39 232.80 400.22 636.60 741.17 487.83 897.77 526.02 749.01 614.45 732.05 705.45 859.74 735.84
00001201 DELETE   680.79 241.98 394.23 626.07 717.03 488.62 895.08 517.66 729.44 613.40 717.18 713.90 854.62 738.47
00001202 00000003 676.85 228.94 392.57 638.34 724.80 485.36 884.03 513.72 739.48 609.38 722.40 704.78 849.77 727.75
00001203 00000004 674.22 225.49 392.12 642.10 722.48 485.45 882.26 511.14 741.00 606.62 720.02 703.69 846.74 724.88
00001204 00000005 673.84 224.25 391.10 642.07 721.17 483.31 882.33 508.56 741.18 606.67 719.24 703.16 846.82 724.16
00001205 00000006 669.09 232.95 400.22 638.12 724.40 488.35 895.15 515.04 743.11 599.67 715.50 705.68 846.89 728.16
00001206 00000007 669.32 232.04 402.63 636.37 727.54 483.79 899.35 511.87 747.43 595.47 717.18 701.78 849.61 725.49
00001207 00000008 674.94 235.09 400.98 625.40 723.36 482.47 904.10 497.56 747.11 591.58 724.53 710.36 861.41 723.93
00001208 DELETE   685.94 221.40 397.26 635.98 737.26 478.11 900.92 496.62 755.77 588.85 733.76 696.53 861.40 711.88
00001209 00000010 690.60 226.19 401.48 628.35 747.39 476.52 911.28 496.29 765.24 586.68 741.60 693.45 868.20 710.26
00001210 00000011 699.38 231.89 401.34 622.00 760.53 477.96 923.61 496.33 778.73 584.29 749.82 693.05 878.71 708.40
00001211 00000012 706.72 233.89 403.76 620.76 767.24 480.19 934.24 497.28 786.23 584.84 756.68 695.91 891.84 709.67
00001212 00000013 716.97 236.61 402.32 620.22 781.11 478.88 950.01 497.09 803.43 585.36 767.71 696.71 905.88 712.42
00001213 DELETE   726.17 230.80 404.09 627.69 791.05 475.74 961.33 494.30 812.60 583.04 777.42 696.45 917.84 712.44
00001214 00000015 733.78 230.04 402.82 632.60 800.18 475.11 971.06 495.12 822.08 585.58 786.21 693.95 930.60 711.05
00001215 00000016 738.68 229.47 400.84 634.29 805.39 480.35 978.28 498.48 830.54 588.21 792.27 697.30 936.56 713.04
00001216 00000017 746.51 227.21 397.06 640.37 811.87 480.38 979.97 500.43 844.05 588.29 803.40 697.72 931.58 715.53
00001217 00000018 747.91 227.73 395.51 638.08 817.57 482.60 984.07 504.87 850.69 592.43 807.07 698.49 932.42 718.11
00001218 00000019 749.64 231.64 396.27 631.24 824.45 482.74 992.09 508.55 858.59 593.86 810.62 698.16 936.14 720.49
00001219 00000020 749.52 230.71 394.96 631.40 826.56 482.64 996.13 509.94 862.42 594.25 811.37 696.02 940.37 719.35
00001220 00000021 742.16 230.95 397.64 630.38 819.77 483.60 995.42 510.94 853.95 599.40 803.41 698.82 947.08 722.23
00001221 00000022 736.90 229.04 399.81 627.34 815.50 481.55 992.99 509.07 852.24 597.45 798.82 696.56 944.17 720.12
00001222 00000023 729.78 228.23 401.99 625.23 810.50 479.78 987.35 506.90 849.37 595.07 792.67 692.50 940.33 715.55
00001223 00000024 724.13 230.46 401.63 622.15 803.60 478.89 980.08 506.23 844.10 592.33 785.98 688.99 935.95 712.07
00001224 00000025 718.38 231.81 400.55 620.76 798.02 478.84 974.65 506.38 838.92 593.44 780.55 689.42 929.97 712.25
00001225 00000026 711.92 232.06 398.89 620.40 791.78 480.00 970.06 507.07 834.61 596.54 776.70 693.29 924.13 715.66
00001226 00000027 705.29 235.78 400.82 618.10 786.57 481.18 965.43 508.84 829.71 597.28 771.72 693.44 920.37 716.00
00001227 00000028 700.52 237.73 402.00 617.36 781.17 482.40 959.91 507.90 823.03 598.81 768.21 696.01 916.49 716.55
00001228 00000029 697.43 237.50 402.22 619.66 777.46 486.28 956.19 510.70 818.73 601.74 765.43 698.35 914.06 717.89
00001229 00000030 695.68 238.19 401.33 620.67 775.45 487.91 953.34 513.18 817.44 605.37 764.98 699.86 913.53 719.97
00001230 00000031 696.00 237.40 400.57 621.14 775.03 489.42 952.25 515.01 816.37 607.95 764.92 700.47 912.92 720.80
00001231 00000032 696.85 236.49 399.89 621.64 775.46 488.88 952.19 514.05 816.24 607.60 765.96 699.96 913.16 719.94
00001232 00000033 698.76 236.27 400.73 621.66 775.55 485.96 953.25 510.98 817.15 606.77 765.73 698.84 915.01 718.58
00001233 00000034 701.17 234.27 399.23 621.78 776.80 482.43 954.34 506.81 817.91 602.94 767.23 696.52 916.10 715.78
00001234 00000035 705.07 236.63 398.55 614.04 779.08 478.39 955.80 501.20 819.48 599.38 770.14 692.73 916.55 710.95
00001235 00000036 709.48 231.46 394.51 613.95 784.49 475.64 959.29 499.11 825.49 596.85 774.77 688.06 919.00 706.85
00001236 00000037 714.35 228.25 396.76 616.15 788.51 472.02 961.01 496.40 825.89 594.87 778.04 684.52 921.83 704.06
00001237 00000038 722.00 218.74 398.49 620.64 794.38 466.29 962.63 491.80 827.97 590.11 785.09 681.52 925.99 701.99
00001238 00000039 726.06 208.94 400.80 625.71 797.57 460.18 972.28 482.79 834.25 584.16 789.16 677.76 935.95 696.03
00001239 00000040 733.74 202.12 402.85 629.53 802.57 454.75 980.04 473.34 839.04 580.17 797.88 676.77 943.72 691.83
00001240 00000041 738.48 199.81 399.96 628.09 809.19 455.18 986.10 473.94 846.07 580.63 805.61 674.49 951.86 689.44
00001241 00000042 742.96 197.01 397.26 625.45 815.01 454.55 991.10 474.43 852.17 581.17 813.07 672.86 957.04 688.43
00001242 00000043 747.53 194.88 395.99 630.60 821.06 452.54 995.59 474.84 857.40 584.55 819.92 671.70 962.13 689.33
00001243 00000044 751.82 199.27 399.81 636.03 833.47 451.31 1009.75 478.08 874.20 578.17 824.31 664.27 964.06 686.79
00001244 00000045 755.30 199.23 402.70 633.23 835.70 451.49 1017.73 475.78 882.63 579.34 829.06 664.74 976.56 684.99
00001245 00000046 758.90 202.53 405.41 626.62 839.56 448.79 1023.29 474.26 887.21 581.23 833.73 664.55 981.59 685.81
00001246 00000047 765.14 209.54 399.34 618.66 842.59 448.89 1027.41 471.70 894.64 583.40 839.79 667.81 986.64 686.40
00001247 00000048 768.64 209.45 398.93 616.91 846.22 448.39 1031.92 470.66 899.43 583.76 843.29 666.08 994.26 684.13
00001248 00000049 772.22 207.67 398.02 617.64 851.69 446.84 1037.94 471.25 904.19 583.52 846.72 663.56 1002.18 683.01
00001249 00000050 774.07 206.64 397.36 617.62 853.86 446.21 1041.82 468.66 908.17 581.96 849.28 663.48 1008.16 681.33
00001250 00000051 773.98 204.88 398.27 620.61 854.86 445.02 1045.84 465.79 912.27 579.25 851.04 662.79 1015.26 679.07
00001251 00000052 775.03 199.35 397.52 633.48 857.63 442.80 1048.77 464.30 915.30 576.52 853.68 661.73 1021.73 678.06
00001252 00000053 771.80 196.51 397.11 636.68 856.84 440.38 1048.03 462.52 917.30 575.11 852.72 661.45 1017.66 678.78
00001253 00000054 762.37 185.59 403.73 644.98 852.46 435.81 1040.87 466.58 907.07 578.37 843.48 655.59 1003.15 680.56
00001254 00000055 757.28 183.73 402.51 648.01 844.87 436.16 1034.94 463.14 904.42 575.22 839.85 656.58 1000.77 678.61
00001255 00000056 747.89 184.31 398.97 641.12 834.77 447.72 1022.67 457.12 899.52 577.28 844.98 668.42 1004.66 674.07
00001256 00000057 740.47 185.22 401.96 640.32 825.94 451.02 1014.75 457.85 889.67 578.61 839.04 671.62 998.60 675.17
00001257 00000058 738.73 188.06 400.82 639.39 821.08 451.04 1009.25 456.95 883.95 578.06 835.28 673.02 994.89 675.76
00001258 00000059 737.64 189.69 401.21 637.36 819.91 453.69 1006.56 459.32 882.32 579.52 834.74 673.20 993.27 675.74
00001259 00000060 739.64 189.32 400.04 636.62 823.42 457.59 1008.10 464.71 886.62 582.32 838.76 673.10 996.29 676.82
00001260 00000061 742.48 191.36 398.71 633.68 826.70 458.87 1010.43 466.00 891.21 586.47 843.71 674.86 999.13 678.58
00001261 00000062 745.12 193.91 398.13 632.18 829.85 461.60 1013.12 468.23 895.31 591.18 848.06 678.19 1001.19 681.58
00001262 00000063 747.92 196.79 396.24 629.90 830.84 464.89 1015.02 471.21 897.44 594.92 848.82 679.73 1003.63 683.16
00001263 00000064 750.11 198.93 394.32 629.04 831.96 467.42 1015.83 472.84 899.17 596.72 850.03 681.85 1005.32 684.68
00001264 00000065 751.54 200.13 393.16 629.02 832.75 468.05 1016.58 473.29 899.94 597.41 850.86 682.55 1006.97 685.29
00001265 00000066 750.91 199.72 393.81 629.34 832.76 466.76 1016.89 471.51 900.51 596.72 851.09 681.35 1007.97 683.62
00001266 00000067 749.92 195.55 393.36 631.25 829.08 466.00 1013.72 470.52 894.92 595.37 847.14 679.72 1005.82 682.06
00001267 00000068 745.31 194.41 397.02 626.51 823.19 462.83 1007.72 467.31 886.47 590.23 842.75 675.09 1001.38 676.66
00001268 00000069 740.31 189.30 397.01 626.76 814.16 460.52 995.14 465.04 874.20 587.05 831.86 670.32 990.91 672.26
00001269 00000070 732.72 190.03 401.01 629.47 806.44 457.44 983.55 462.73 864.41 583.28 821.84 665.02 982.46 667.63
00001270 00000071 727.52 195.12 401.39 627.43 795.75 458.63 974.45 461.95 851.27 583.30 811.10 667.60 973.38 668.71
00001271 00000072 724.22 198.13 395.13 629.95 789.19 460.74 963.60 466.47 837.84 588.19 804.54 672.89 961.89 675.56
00001272 00000073 718.02 206.55 394.34 625.19 785.28 460.88 956.44 471.03 831.36 593.34 796.94 674.38 951.01 680.71
00001273 00000074 713.62 214.35 396.51 623.65 772.16 458.16 956.61 470.93 828.02 598.59 786.15 676.86 946.86 686.99
00001274 00000075 710.86 214.85 394.59 620.02 777.60 464.28 949.86 475.99 825.17 598.90 788.66 678.06 941.30 685.89
00001275 00000076 710.32 216.07 396.45 620.47 777.93 466.66 951.22 477.11 827.12 599.78 790.18 680.36 942.45 687.23
00001276 00000077 715.89 218.42 397.33 619.54 774.88 463.95 960.40 473.97 833.39 600.37 789.60 682.18 948.49 690.20
00001277 00000078 719.85 212.64 393.96 622.23 786.87 466.70 957.64 473.69 834.75 596.51 801.80 681.36 952.57 685.47
00001278 00000079 723.71 209.34 397.37 625.10 790.70 467.03 961.99 471.69 840.94 596.84 808.52 680.21 961.88 682.16
00001279 00000080 727.23 203.37 401.97 628.36 798.52 465.61 971.63 470.89 853.18 597.74 818.04 679.60 972.37 681.99
00001280 00000081 733.86 194.52 400.61 630.04 809.64 460.95 986.27 469.21 867.91 595.43 827.51 674.99 981.81 679.83
00001281 00000082 742.13 187.53 399.98 628.46 821.21 457.94 1005.19 468.54 884.87 595.80 837.48 671.33 995.96 677.66
00001282 00000083 755.27 184.92 400.65 634.52 833.75 450.64 1026.91 466.25 906.51 592.65 845.52 663.64 1006.50 676.36
00001283 00000084 762.20 184.99 404.79 631.93 844.36 450.45 1035.93 465.16 917.11 590.37 856.07 661.65 1016.28 673.45
00001284 00000085 770.23 193.85 409.36 628.94 853.37 450.68 1047.93 462.71 925.89 593.29 865.65 665.29 1029.60 675.00
00001285 00000086 778.43 195.06 406.36 630.17 866.86 456.56 1050.58 464.50 941.79 593.59 884.18 672.50 1035.75 677.76
00001286 00000087 783.46 193.76 409.50 632.75 874.47 459.80 1055.56 465.78 951.39 594.45 893.26 676.67 1043.99 680.06
00001287 00000088 786.58 198.90 407.97 625.04 881.64 464.69 1063.65 468.59 962.66 595.95 901.33 678.36 1052.71 679.82
00001288 00000089 789.41 200.53 406.39 623.77 888.32 466.46 1069.66 470.89 971.89 597.38 908.82 679.39 1059.10 680.99
00001289 00000090 791.48 202.37 405.93 621.43 892.55 468.31 1073.72 472.73 977.62 599.17 912.71 679.98 1064.07 681.77
00001290 00000091 793.06 203.26 405.64 624.35 891.63 462.91 1081.28 470.26 977.36 605.16 907.94 679.34 1066.70 684.70
00001291 00000092 791.76 197.70 405.08 627.99 895.13 471.62 1077.51 476.07 984.28 602.11 915.37 683.19 1068.08 684.95
00001292 00000093 790.16 195.71 405.86 629.25 896.20 471.66 1079.68 475.86 988.30 603.45 917.11 683.99 1069.70 685.58
00001293 00000094 788.68 195.42 407.81 633.32 896.74 471.95 1081.36 476.38 989.94 604.10 917.20 685.08 1071.53 686.79
00001294 00000095 787.26 199.77 409.64 629.60 897.88 473.35 1083.69 477.90 992.60 605.53 917.79 686.51 1072.17 688.51
00001295 00000096 785.91 203.97 411.02 629.85 898.58 475.21 1084.57 480.43 992.46 608.89 917.16 688.31 1072.13 690.98
00001296 00000097 786.36 207.06 410.97 628.09 900.46 476.59 1085.18 484.20 991.96 612.34 915.30 688.58 1070.00 693.45
00001297 00000098 786.73 207.88 411.46 629.16 900.42 479.01 1085.94 486.04 992.03 614.05 915.77 690.47 1071.65 694.91
00001298 00000099 787.09 209.92 411.64 630.10 901.95 481.69 1087.26 488.25 994.43 616.92 916.12 692.56 1073.36 696.81
00001299 00000100 786.91 212.47 412.31 629.50 901.33 483.40 1087.68 488.70 994.52 618.93 915.56 693.41 1075.44 696.74
00001300 00000101 787.01 211.16 412.76 633.66 901.33 483.23 1087.42 488.33 994.70 619.17 915.99 694.59 1075.54 697.67
00001301 00000102 786.61 210.17 413.20 638.96 900.96 482.44 1087.28 487.94 993.96 618.61 915.34 695.42 1075.30 698.74
00001302 00000103 786.02 210.08 413.20 640.90 900.20 481.72 1086.44 487.50 992.51 618.94 914.97 695.73 1074.65 699.25
00001303 00000104 785.44 210.75 412.59 642.05 899.16 480.66 1085.63 487.96 989.95 619.06 913.16 696.24 1072.44 700.89
00001304 00000105 785.72 208.80 412.54 642.60 897.92 479.69 1084.31 487.54 987.97 619.59 913.03 697.03 1070.06 702.05
00001305 00000106 785.57 207.57 413.37 636.86 894.79 479.64 1084.02 487.87 985.61 619.95 910.78 696.71 1068.85 702.05
00001306 00000107 787.35 204.28 411.91 631.73 893.39 478.15 1082.44 485.76 984.50 619.26 912.44 695.45 1067.73 700.01
00001307 00000108 788.33 201.54 411.18 631.82 892.21 478.10 1080.87 485.31 983.52 616.44 912.84 694.99 1066.44 698.99
00001308 00000109 788.99 199.63 411.06 635.23 893.53 475.56 1079.00 485.15 982.46 615.69 911.68 693.93 1061.44 700.05
00001309 00000110 789.59 197.69 410.36 636.01 893.72 473.83 1078.57 483.54 982.24 613.03 912.08 692.27 1060.97 698.37
00001310 00000111 788.99 197.46 409.96 631.73 891.91 473.54 1076.94 482.18 980.51 611.25 910.41 690.02 1060.07 695.51
00001311 00000112 787.21 197.58 410.33 628.51 890.28 472.64 1075.96 481.99 978.52 609.83 907.29 687.30 1058.38 693.35
00001312 00000113 785.84 198.58 410.17 626.07 888.90 471.83 1074.17 482.16 975.79 610.19 904.16 686.07 1054.80 693.15
00001313 00000114 785.52 199.31 409.83 624.98 887.11 471.84 1072.66 481.97 973.87 609.59 903.52 686.31 1053.71 693.18
00001314 00000115 784.10 199.66 411.72 626.56 885.52 472.73 1073.38 484.28 971.34 610.97 899.72 685.97 1053.77 693.99
00001315 00000116 783.59 201.10 414.19 621.32 881.47 474.79 1072.33 483.64 967.83 612.96 899.98 686.73 1057.78 692.48
00001316 00000117 783.17 203.22 414.89 620.51 878.08 473.35 1068.41 481.06 962.78 614.82 897.13 686.52 1056.15 691.55
00001317 00000118 782.44 207.45 413.32 618.62 874.34 470.36 1063.83 478.12 957.68 615.12 894.71 687.12 1051.16 692.43
00001318 00000119 782.29 206.79 411.16 621.24 869.86 469.88 1055.51 480.30 946.73 615.37 886.41 688.68 1039.44 696.46
00001319 00000120 781.54 211.90 409.88 619.60 865.86 471.40 1049.10 483.48 935.87 618.50 880.75 689.67 1033.85 698.74
00001320 00000121 780.39 220.24 407.71 615.03 862.34 471.27 1043.89 485.68 927.40 618.87 875.18 688.93 1027.41 699.77
00001321 00000122 779.18 222.59 408.19 614.19 859.01 471.84 1043.00 488.02 922.27 620.30 870.82 688.69 1026.39 700.78
00001322 00000123 778.19 222.80 407.37 613.97 856.85 471.03 1042.54 488.89 918.87 621.43 866.45 687.79 1023.17 701.28
00001323 00000124 779.79 221.06 405.48 613.36 855.72 470.07 1040.13 486.09 916.45 619.42 868.00 687.32 1022.42 699.24
00001324 00000125 779.95 217.10 406.41 619.58 854.41 467.63 1038.08 481.00 914.07 613.28 867.30 687.28 1022.94 696.89
00001325 00000126 779.48 214.18 406.05 625.48 853.71 462.75 1034.62 475.43 910.33 606.57 867.56 684.43 1022.76 693.29
00001326 00000127 778.61 209.62 404.68 628.50 851.99 459.81 1032.59 474.43 906.79 602.72 864.16 680.31 1020.76 690.69
00001327 00000128 777.00 209.03 403.86 625.85 848.67 457.17 1029.74 473.32 902.71 603.18 860.63 677.74 1017.07 689.33
00001328 00000129 776.07 208.27 402.68 624.47 847.25 456.32 1027.49 472.50 901.08 602.45 858.31 676.76 1012.68 688.80
00001329 00000130 778.48 208.06 405.22 627.70 841.05 448.88 1032.26 471.43 898.93 602.06 851.13 672.67 1014.17 690.76
00001330 00000131 776.19 214.17 404.54 615.61 849.64 459.42 1028.62 479.25 901.21 605.09 858.77 672.15 1016.14 686.71
00001331 00000132 778.80 219.74 403.80 610.78 850.75 462.87 1028.35 483.66 900.09 609.64 860.16 673.91 1017.10 688.97
00001332 00000133 780.24 223.36 403.40 608.21 852.94 466.01 1031.20 486.91 903.52 611.72 860.41 675.33 1019.72 690.56
00001333 00000134 781.65 223.76 403.48 609.94 854.98 468.02 1032.52 488.16 906.22 612.58 861.90 676.89 1022.02 691.57
00001334 00000135 783.48 223.95 403.15 612.14 856.60 470.72 1036.23 490.18 910.19 614.60 863.99 679.55 1026.19 693.80
00001335 00000136 788.07 227.78 400.99 612.26 858.16 473.63 1036.87 491.52 911.14 617.00 867.79 684.94 1028.34 698.05
00001336 00000137 792.46 227.09 399.58 622.27 860.77 474.24 1037.46 488.50 912.99 618.82 874.29 691.68 1031.13 701.78
00001337 00000138 794.24 229.06 398.63 624.14 862.35 478.14 1040.84 489.67 916.06 621.80 878.58 697.20 1035.28 705.20
00001338 00000139 795.38 226.61 399.93 629.51 864.52 479.48 1044.43 490.69 919.61 624.71 881.29 700.14 1039.35 707.69
00001339 00000140 796.12 224.41 400.86 631.61 865.59 479.99 1046.40 491.20 922.66 626.28 883.59 700.67 1042.58 708.05
00001340 00000141 796.85 225.72 401.50 628.00 866.88 480.16 1047.63 490.96 924.33 626.45 885.32 700.08 1044.04 707.07
00001341 00000142 798.18 225.10 400.73 625.68 868.24 480.56 1049.03 491.36 926.24 626.70 886.46 699.19 1045.08 706.21
00001342 00000143 797.56 223.57 401.30 626.24 869.35 479.65 1049.43 490.90 928.39 626.05 887.55 698.74 1044.59 706.21
00001343 00000144 797.35 224.06 401.40 624.97 870.55 478.38 1049.51 491.09 930.07 627.03 888.06 698.83 1042.75 707.73
00001344 00000145 797.86 225.32 402.05 620.90 872.21 479.22 1052.94 492.39 933.37 628.34 889.93 698.58 1044.58 708.06
00001345 00000146 796.38 226.97 402.60 617.68 874.07 477.58 1055.23 490.16 937.75 628.35 892.22 698.58 1045.76 707.79
00001346 00000147 795.54 227.98 404.22 617.11 877.64 477.13 1061.71 490.02 945.74 628.63 895.45 698.76 1050.56 708.42
00001347 00000148 795.23 228.01 406.31 617.04 881.84 475.98 1067.29 488.90 953.34 627.50 899.29 698.59 1053.54 708.35
00001348 00000149 795.62 227.03 405.56 616.21 884.21 475.59 1070.44 488.27 957.80 628.62 902.39 698.39 1056.82 707.92
00001349 00000150 794.67 226.49 405.59 616.99 886.20 474.59 1073.10 486.97 962.83 627.35 903.54 697.60 1058.92 706.83
00001350 00000151 791.47 227.21 407.47 617.75 887.40 474.85 1075.55 487.00 966.74 626.89 903.96 699.81 1058.04 708.73
00001351 00000152 790.43 228.19 405.90 621.35 887.72 474.91 1077.70 486.89 968.63 627.39 902.91 701.71 1058.51 710.63
00001352 00000153 790.07 228.10 403.93 624.28 888.74 476.30 1078.94 487.62 971.04 629.74 904.58 704.16 1060.72 712.41
00001353 00000154 789.28 227.92 405.44 625.48 891.18 477.80 1081.95 488.35 975.20 630.47 907.52 705.30 1063.57 712.84
00001354 00000155 791.41 227.86 404.51 621.93 894.98 477.78 1085.78 488.22 980.08 631.43 909.79 703.39 1065.84 710.96
00001355 00000156 792.64 228.51 404.90 615.26 895.88 481.31 1087.77 488.52 984.60 633.80 911.45 700.96 1071.57 706.19
00001356 00000157 793.79 223.82 406.03 615.47 900.21 485.11 1088.41 491.16 989.74 631.09 914.98 698.14 1073.86 702.44
00001357 00000158 792.88 219.55 407.33 618.65 904.48 481.92 1090.99 488.86 996.32 627.74 919.53 695.95 1075.24 700.76
00001358 00000159 793.17 219.54 408.63 617.66 907.04 480.05 1094.40 487.01 1000.40 625.83 922.63 697.13 1074.95 701.82
00001359 00000160 792.97 220.63 408.47 617.18 910.10 479.16 1097.14 486.04 1005.12 624.79 925.56 697.50 1076.94 702.03
00001360 00000161 792.96 216.93 410.01 617.38 911.01 482.76 1099.53 488.92 1007.20 626.34 925.93 696.63 1079.43 700.72
00001361 00000162 792.54 216.50 410.62 610.64 909.76 488.29 1098.28 492.93 1007.95 627.55 925.14 693.96 1080.91 697.26
00001362 00000163 792.65 219.29 408.66 605.54 908.23 488.95 1094.72 495.21 1004.09 625.48 923.14 690.84 1078.24 695.46
00001363 00000164 792.45 216.32 406.68 603.11 902.93 485.23 1087.95 495.37 993.20 622.41 915.35 687.10 1068.77 694.77
00001364 00000165 785.78 218.44 407.05 603.48 892.66 481.25 1074.51 494.65 975.67 618.77 903.56 687.47 1050.14 697.56
00001365 00000166 776.92 215.25 408.20 612.58 878.69 478.62 1063.03 496.49 957.30 612.86 882.78 685.55 1036.75 699.31
00001366 00000167 778.52 218.94 403.51 604.29 863.64 474.43 1046.68 497.14 926.89 613.48 860.62 674.30 1012.23 693.43
00001367 00000168 768.47 223.18 402.20 606.70 847.17 470.10 1031.53 499.82 906.55 614.23 844.74 673.12 997.68 697.72
