Video ID: 	5N8tkTcaAQk
H: 	1080
W: 	1920
FPS: 	25.0

FRAME INDEX X0 Y0 W H [Landmarks (5 Points)]

00002525 00000000 859.06 151.75 387.04 599.40 997.56 417.96 1175.08 391.64 1138.63 506.93 1036.72 618.34 1188.99 597.02
00002526 00000001 856.02 151.77 389.30 601.97 995.72 419.36 1172.59 392.75 1134.99 510.44 1040.17 623.18 1188.61 600.93
00002527 DELETE   853.90 151.56 390.13 603.74 992.33 418.38 1168.87 390.70 1130.03 511.55 1041.50 625.82 1187.27 602.53
00002528 00000003 851.12 153.22 390.92 603.82 986.62 420.39 1166.58 391.41 1125.67 511.96 1035.77 626.61 1186.59 601.98
00002529 00000004 850.47 154.67 389.31 601.81 983.68 423.95 1164.35 393.63 1120.47 518.39 1032.39 628.31 1184.43 602.48
00002530 DELETE   848.69 157.03 388.99 601.90 980.70 425.30 1163.11 393.83 1119.10 522.71 1030.10 630.99 1183.19 604.28
00002531 00000006 847.06 159.13 388.75 601.00 977.18 423.97 1159.93 392.47 1115.56 522.76 1027.08 630.44 1181.26 603.69
00002532 00000007 845.81 157.40 389.21 598.93 974.50 417.24 1157.28 387.61 1113.27 516.82 1025.56 625.84 1178.92 600.54
00002533 00000008 844.57 156.90 388.27 593.34 973.56 407.88 1154.05 381.39 1112.04 506.22 1024.22 617.33 1173.12 594.76
00002534 00000009 846.28 150.22 383.31 593.93 973.51 397.72 1150.76 376.19 1108.65 489.04 1023.35 608.65 1166.09 590.44
00002535 00000010 843.85 142.49 383.08 588.05 972.27 384.69 1147.11 363.18 1105.19 471.65 1019.37 591.51 1164.12 572.47
00002536 00000011 842.05 134.40 376.33 575.51 972.47 371.71 1146.22 348.27 1106.19 456.71 1019.27 575.99 1160.73 555.60
00002537 00000012 843.94 129.22 372.57 571.00 974.99 362.60 1148.13 344.07 1104.84 439.25 1020.25 562.54 1161.75 546.06
00002538 00000013 844.22 122.92 372.39 572.02 969.30 361.03 1147.03 345.82 1102.52 435.06 1016.99 554.79 1168.69 541.45
00002539 00000014 844.03 126.99 371.79 565.27 970.13 366.63 1151.99 349.30 1105.67 443.05 1018.03 557.74 1171.50 542.48
00002540 00000015 843.71 131.22 371.65 562.22 971.71 373.23 1153.52 355.04 1107.29 456.10 1015.65 562.61 1169.86 546.76
00002541 00000016 848.15 135.74 370.78 563.08 977.24 376.42 1148.90 352.69 1109.73 461.21 1018.10 572.02 1161.74 552.18
00002542 00000017 851.89 140.87 371.24 562.45 977.43 385.35 1150.93 360.59 1109.04 468.62 1019.91 578.99 1165.86 558.17
00002543 00000018 853.88 146.10 373.07 568.72 979.95 393.59 1153.64 370.76 1110.28 477.48 1020.72 586.24 1167.93 566.91
00002544 00000019 855.68 152.57 374.52 582.09 981.61 400.37 1155.77 379.60 1114.26 487.16 1020.73 595.36 1173.06 577.93
00002545 00000020 856.41 160.57 376.96 580.01 981.35 408.70 1157.35 383.28 1117.08 498.45 1017.61 600.43 1177.90 579.50
00002546 00000021 856.57 162.04 376.07 579.07 981.25 413.76 1159.52 389.02 1115.50 504.89 1016.24 604.79 1177.24 584.62
00002547 00000022 857.88 162.26 376.53 581.47 981.53 409.68 1163.30 382.79 1119.67 510.94 1017.74 607.82 1180.75 585.67
00002548 00000023 860.62 160.40 374.85 585.60 983.86 408.71 1162.81 379.45 1123.34 508.31 1017.71 605.78 1183.10 582.18
00002549 00000024 863.74 158.20 374.65 582.21 989.06 405.81 1167.65 382.91 1126.31 504.84 1021.49 603.02 1183.80 584.29
00002550 00000025 868.57 154.92 372.97 580.75 994.25 400.16 1175.28 378.53 1134.26 500.36 1025.16 600.07 1186.16 583.18
00002551 00000026 874.68 150.86 369.53 572.76 999.46 397.01 1183.88 379.12 1138.16 495.76 1030.24 595.76 1189.86 581.38
00002552 00000027 878.67 151.74 367.26 567.53 1003.78 395.65 1186.07 377.29 1141.53 494.31 1033.41 595.11 1189.38 580.57
00002553 00000028 881.23 153.99 369.31 569.30 1007.29 394.16 1188.44 382.50 1141.21 496.96 1034.26 598.55 1184.77 589.63
00002554 00000029 885.92 154.91 369.23 574.18 1010.98 395.83 1192.22 386.89 1140.68 504.09 1035.47 599.01 1188.99 593.04
00002555 00000030 889.44 157.58 368.65 575.68 1013.40 400.19 1194.67 390.37 1140.18 514.11 1040.73 606.67 1190.50 599.83
00002556 00000031 893.69 160.45 367.71 575.48 1016.48 405.13 1196.03 394.21 1140.99 525.95 1045.85 615.07 1190.90 607.12
00002557 00000032 895.48 170.89 368.74 572.87 1019.17 410.69 1196.69 398.79 1140.52 531.25 1048.28 619.19 1191.31 610.16
00002558 00000033 897.59 180.53 367.92 576.68 1023.32 421.26 1198.07 403.99 1145.18 539.57 1048.23 625.57 1197.17 612.36
00002559 00000034 900.68 191.61 366.36 578.66 1025.75 431.56 1198.57 411.64 1145.18 549.58 1043.88 630.81 1199.02 615.60
00002560 00000035 899.23 199.74 372.49 569.64 1022.46 434.87 1200.41 414.04 1148.87 552.42 1037.15 625.54 1204.63 610.05
00002561 00000036 898.18 205.82 374.08 564.76 1024.62 438.34 1198.88 417.99 1149.69 558.57 1035.79 622.72 1203.94 607.92
00002562 00000037 896.74 206.26 375.70 567.95 1024.15 440.67 1199.57 419.58 1151.17 561.54 1034.42 624.35 1205.26 608.97
00002563 00000038 896.12 206.63 376.22 570.27 1023.78 442.07 1200.11 420.84 1151.55 563.47 1034.07 625.28 1206.45 609.80
00002564 00000039 894.21 209.40 376.93 568.20 1023.14 445.12 1199.82 422.43 1152.59 566.49 1031.35 625.13 1206.24 608.64
00002565 00000040 894.60 207.60 378.04 570.54 1022.81 445.68 1200.79 423.96 1152.24 568.03 1031.54 626.02 1207.15 610.19
00002566 00000041 894.35 206.01 378.19 569.91 1022.49 446.42 1200.40 422.25 1152.79 567.04 1035.30 629.44 1207.23 611.55
00002567 00000042 894.18 201.34 376.33 566.89 1023.39 442.74 1204.08 420.45 1151.36 561.68 1050.53 626.46 1215.58 609.46
00002568 00000043 897.05 192.07 372.04 572.05 1026.60 439.51 1204.29 412.79 1152.67 561.18 1050.19 640.37 1201.74 619.83
00002569 00000044 896.79 179.77 375.30 580.51 1027.68 426.93 1207.79 406.44 1154.79 548.32 1054.14 636.22 1203.87 620.22
00002570 00000045 899.48 171.13 376.27 585.41 1029.48 413.49 1209.42 398.70 1160.03 540.79 1063.23 625.66 1212.51 614.10
00002571 00000046 900.60 168.21 377.21 587.95 1029.19 411.64 1212.33 397.17 1160.93 541.30 1062.32 625.65 1214.45 614.14
00002572 00000047 900.35 169.59 379.92 590.49 1029.66 413.41 1212.82 397.67 1162.45 544.25 1061.45 625.38 1216.63 612.88
00002573 00000048 900.43 167.31 382.64 600.75 1029.39 414.42 1212.39 398.17 1163.50 545.43 1062.98 628.79 1218.59 615.67
00002574 00000049 898.91 166.36 384.75 606.45 1028.48 416.31 1212.53 399.08 1163.70 547.31 1063.57 632.13 1220.57 618.18
00002575 00000050 898.29 166.41 385.24 606.22 1027.60 416.46 1213.68 400.22 1163.14 548.34 1062.62 632.86 1219.38 619.84
00002576 00000051 897.30 166.05 387.25 613.21 1025.01 419.72 1213.58 402.55 1161.08 551.44 1062.12 636.06 1222.26 622.10
00002577 00000052 895.62 170.51 387.43 614.50 1022.70 427.34 1212.20 407.24 1159.83 557.13 1059.88 639.75 1223.00 623.57
00002578 00000053 893.51 177.97 387.04 610.00 1022.89 433.21 1210.05 411.86 1158.65 563.75 1058.37 640.31 1221.10 623.26
00002579 00000054 892.32 180.94 386.84 606.57 1019.68 439.89 1209.70 415.52 1155.51 566.43 1058.14 642.60 1222.91 623.03
00002580 00000055 888.12 186.43 391.35 602.58 1017.45 446.61 1205.93 419.37 1154.41 572.68 1042.14 647.86 1213.91 625.88
00002581 00000056 885.51 186.60 392.99 607.47 1017.19 446.70 1204.80 418.54 1155.65 573.03 1036.93 645.84 1212.77 623.07
00002582 00000057 884.30 184.91 394.81 613.48 1017.37 445.87 1203.63 416.50 1156.40 572.92 1032.65 641.79 1212.43 618.12
00002583 00000058 882.38 188.37 396.95 610.02 1015.11 447.90 1201.89 417.07 1154.88 574.43 1031.54 641.54 1213.14 616.57
00002584 00000059 881.10 189.91 397.08 608.03 1013.91 451.41 1200.28 421.71 1153.82 577.10 1030.34 642.89 1211.21 618.95
00002585 00000060 880.36 193.65 395.19 600.94 1009.16 453.37 1199.01 424.91 1148.73 577.16 1028.76 646.24 1208.12 623.03
00002586 00000061 881.35 188.91 393.56 600.98 1009.21 450.63 1199.69 423.45 1147.77 575.31 1033.71 648.70 1207.23 626.44
00002587 00000062 881.17 186.77 393.11 602.75 1008.18 449.49 1197.99 422.53 1145.47 572.67 1034.49 648.05 1206.03 625.75
00002588 00000063 879.92 184.48 393.91 605.83 1008.28 447.39 1197.65 419.87 1146.10 568.91 1034.15 647.27 1205.29 624.41
00002589 00000064 878.28 181.36 394.21 606.05 1009.43 442.64 1198.71 416.33 1147.91 564.68 1034.76 645.34 1203.53 623.56
00002590 00000065 877.47 173.49 394.23 612.41 1006.52 433.61 1197.20 409.32 1144.44 554.25 1034.29 640.45 1201.67 619.65
00002591 00000066 877.14 163.04 397.10 620.00 1004.40 419.57 1195.96 398.30 1140.81 540.46 1030.46 630.84 1200.12 612.49
00002592 00000067 881.25 147.05 389.71 632.34 1007.00 398.42 1198.08 385.23 1138.51 522.33 1030.42 623.20 1198.14 612.50
00002593 00000068 886.73 139.00 389.32 633.11 1013.73 379.46 1200.86 375.83 1139.20 499.97 1035.71 611.90 1191.54 609.69
00002594 00000069 893.90 131.19 386.71 634.70 1018.79 363.67 1207.81 362.33 1141.62 482.00 1040.01 601.24 1194.88 600.28
00002595 00000070 896.78 119.59 384.16 647.71 1016.09 351.96 1207.27 350.16 1145.86 477.26 1048.69 604.53 1195.34 601.73
00002596 00000071 899.67 129.93 387.21 634.50 1019.30 360.80 1210.85 357.07 1150.54 485.40 1050.57 605.54 1199.72 601.24
00002597 00000072 901.11 134.42 391.81 632.58 1021.41 376.07 1212.11 367.57 1151.15 499.31 1054.88 612.75 1210.95 604.42
00002598 00000073 900.66 138.50 397.67 633.61 1022.79 385.60 1213.15 375.51 1153.74 510.71 1055.68 619.11 1214.23 609.60
00002599 00000074 899.81 141.10 401.92 639.39 1023.61 390.31 1214.68 379.65 1156.61 522.62 1055.10 624.43 1215.87 614.80
00002600 00000075 899.28 145.31 403.55 642.95 1023.67 399.11 1213.92 385.41 1158.70 531.38 1058.85 631.33 1221.48 619.36
00002601 00000076 900.27 148.43 400.64 650.33 1027.77 413.64 1217.20 398.95 1162.20 537.35 1059.30 637.70 1225.46 625.36
00002602 00000077 900.57 149.42 401.24 661.96 1028.34 417.61 1218.13 400.23 1166.38 540.06 1055.77 642.70 1228.08 628.79
00002603 00000078 898.65 150.64 405.78 652.34 1027.11 420.36 1216.74 401.36 1165.15 545.24 1053.86 640.23 1227.78 625.09
00002604 00000079 896.97 152.50 406.70 644.42 1026.78 419.84 1220.03 399.95 1166.62 548.00 1060.12 643.35 1232.37 626.99
00002605 00000080 892.88 151.08 410.84 649.80 1025.59 416.96 1222.06 399.51 1166.77 550.60 1058.77 648.57 1228.95 634.55
00002606 00000081 890.00 149.65 414.48 661.47 1023.28 418.53 1221.35 402.98 1165.41 552.95 1056.70 654.17 1224.71 641.77
00002607 00000082 886.22 148.02 418.29 668.77 1020.35 421.63 1221.48 406.39 1163.94 558.79 1052.83 658.30 1222.41 646.27
00002608 00000083 884.09 151.76 421.25 669.78 1020.09 426.21 1221.37 408.52 1165.61 567.00 1050.84 661.47 1221.89 647.88
00002609 00000084 883.14 155.03 421.39 666.17 1017.44 432.50 1223.54 414.03 1163.09 573.07 1049.07 663.92 1223.44 649.39
00002610 00000085 880.19 156.71 424.02 666.27 1016.15 435.78 1224.57 417.29 1162.08 577.38 1046.40 664.84 1223.45 650.40
00002611 00000086 876.79 157.70 425.76 669.44 1014.21 437.26 1222.76 420.05 1158.91 577.88 1039.36 662.60 1221.29 649.26
00002612 00000087 873.95 158.31 426.47 672.05 1012.21 439.83 1221.20 420.70 1157.11 580.76 1031.08 659.32 1221.49 644.77
00002613 00000088 870.07 160.39 429.08 668.20 1009.09 443.84 1220.04 423.85 1154.19 582.26 1024.05 655.55 1222.98 640.46
00002614 00000089 868.70 164.32 428.11 660.04 1005.21 447.42 1217.71 423.04 1151.24 582.48 1022.46 653.22 1225.88 634.49
00002615 00000090 867.76 164.61 426.92 656.43 1001.82 444.42 1215.99 419.30 1148.29 580.95 1018.57 650.83 1224.55 631.71
00002616 00000091 866.41 162.69 426.49 657.22 999.70 442.79 1214.09 417.97 1145.87 580.12 1015.83 649.90 1221.72 631.14
00002617 00000092 864.48 159.43 427.14 661.60 997.78 443.41 1212.08 418.12 1144.25 579.25 1014.20 651.38 1219.95 632.08
00002618 00000093 861.65 158.50 425.89 662.07 995.34 444.59 1210.62 419.07 1141.87 581.29 1008.19 650.40 1216.88 631.20
00002619 00000094 855.77 164.43 420.56 655.76 997.46 445.79 1202.36 417.01 1138.99 583.37 1004.91 652.97 1207.39 630.70
00002620 00000095 854.38 163.33 420.96 653.61 995.09 444.61 1198.33 415.20 1135.74 581.13 1004.20 650.39 1205.64 627.46
00002621 00000096 852.12 162.52 421.14 648.32 991.31 439.77 1195.59 411.30 1131.03 578.22 1000.47 645.05 1203.30 622.77
00002622 00000097 847.19 159.44 424.14 647.36 986.93 434.45 1190.93 407.62 1124.82 575.26 997.37 640.93 1199.07 619.86
00002623 00000098 843.86 154.70 423.93 649.36 980.58 430.64 1186.19 404.52 1119.95 568.56 993.60 637.63 1195.72 617.00
00002624 00000099 840.97 147.71 425.08 653.36 974.16 426.44 1180.23 402.19 1113.92 561.93 990.68 637.34 1189.05 618.08
00002625 00000100 838.82 145.16 426.61 657.63 969.89 422.21 1174.96 398.02 1109.70 555.92 990.77 638.39 1184.48 619.36
00002626 00000101 839.33 138.04 424.75 659.46 966.88 414.92 1171.83 393.87 1105.21 546.25 991.72 637.53 1178.89 620.57
00002627 00000102 841.69 130.59 423.37 659.70 968.86 404.65 1171.23 389.84 1101.65 536.63 997.45 634.70 1173.15 621.86
00002628 00000103 845.67 126.78 422.36 644.08 973.57 394.06 1178.57 383.94 1105.54 527.44 1000.51 622.11 1177.90 612.46
00002629 00000104 857.15 126.54 415.27 629.57 984.50 386.19 1187.12 382.55 1111.63 514.90 1005.96 611.28 1181.90 607.38
00002630 00000105 872.60 121.61 407.07 630.66 998.43 379.55 1198.67 373.69 1123.19 505.76 1011.74 602.40 1184.82 597.62
00002631 00000106 887.03 111.65 407.49 623.19 1009.86 359.93 1217.20 367.42 1135.94 480.88 1021.80 578.96 1200.19 586.23
00002632 00000107 901.31 103.99 400.85 623.73 1022.00 345.77 1227.80 356.31 1148.63 472.91 1031.50 569.92 1211.41 579.09
00002633 00000108 910.05 110.05 406.57 623.80 1041.07 339.41 1243.12 353.79 1164.59 464.24 1041.69 568.11 1218.26 578.67
00002634 00000109 917.49 103.19 411.65 631.32 1052.48 337.96 1256.08 351.40 1181.03 455.13 1053.12 564.48 1232.24 574.23
00002635 00000110 930.40 104.78 408.19 623.05 1065.03 342.36 1266.86 353.23 1191.56 461.85 1066.79 567.85 1238.54 576.03
00002636 00000111 936.09 113.60 406.03 614.83 1074.74 348.63 1273.38 361.34 1199.87 471.83 1075.13 571.29 1243.18 581.56
00002637 00000112 939.21 118.16 405.58 617.45 1082.92 358.65 1275.23 371.57 1205.76 482.27 1083.97 582.59 1244.06 593.28
00002638 00000113 938.22 121.34 410.15 628.32 1082.53 366.06 1276.17 380.96 1205.51 491.12 1081.68 591.12 1245.68 603.41
00002639 00000114 937.14 121.87 414.87 634.87 1080.02 370.31 1275.55 382.29 1204.61 501.47 1082.04 601.55 1245.54 611.15
00002640 00000115 934.77 122.17 416.44 642.37 1079.30 372.59 1274.73 382.42 1204.45 508.47 1085.58 610.43 1247.49 617.31
00002641 00000116 932.00 123.00 417.54 646.86 1076.36 375.81 1272.77 384.86 1202.77 515.69 1084.00 615.86 1247.15 621.69
00002642 00000117 927.89 122.75 421.95 654.87 1074.11 378.76 1273.19 389.85 1199.77 521.47 1080.82 621.94 1245.38 629.08
00002643 00000118 922.98 125.52 424.86 666.12 1073.89 380.86 1271.00 392.73 1199.64 523.77 1079.24 626.66 1243.57 634.64
00002644 00000119 918.70 128.19 427.95 676.06 1070.13 381.44 1269.27 394.17 1196.26 525.30 1073.49 630.96 1240.17 639.47
00002645 00000120 911.78 132.58 434.88 679.23 1061.17 381.28 1272.88 395.93 1193.52 526.25 1068.09 631.40 1234.48 641.70
00002646 00000121 912.38 129.27 431.79 688.14 1058.76 378.01 1270.78 393.66 1191.60 520.65 1063.37 633.85 1233.75 644.94
00002647 00000122 913.43 128.63 430.53 685.38 1060.72 376.58 1269.48 392.38 1191.22 517.97 1060.70 626.80 1234.01 638.56
00002648 00000123 915.06 116.77 427.77 685.68 1061.73 373.47 1266.32 387.14 1191.46 520.33 1062.90 627.62 1238.74 636.70
00002649 00000124 915.83 120.55 429.59 668.26 1061.76 375.54 1264.89 385.64 1190.84 520.33 1072.18 624.98 1241.79 631.05
00002650 00000125 917.02 122.61 430.99 664.53 1062.30 378.66 1265.92 386.53 1191.00 523.39 1076.57 628.26 1242.56 632.36
00002651 00000126 918.10 128.40 429.83 660.38 1060.44 380.95 1266.21 387.82 1188.68 531.96 1075.41 634.39 1241.87 637.87
00002652 00000127 918.95 130.27 428.76 666.55 1058.52 387.08 1264.23 391.74 1186.82 538.63 1074.21 642.37 1240.95 644.16
00002653 00000128 920.11 132.24 426.95 670.42 1058.15 395.59 1261.48 397.61 1187.08 546.77 1075.07 649.15 1241.40 649.17
00002654 00000129 920.90 140.23 422.54 661.89 1055.87 403.25 1256.90 403.39 1183.17 552.28 1073.69 650.37 1240.30 649.24
00002655 00000130 918.11 143.66 425.25 665.16 1055.02 409.09 1255.74 410.56 1182.14 554.09 1068.79 650.26 1238.38 650.75
00002656 00000131 915.98 144.99 425.28 667.86 1053.85 410.32 1252.64 412.67 1179.82 555.73 1063.85 648.65 1236.57 649.97
00002657 00000132 911.79 148.37 424.53 663.93 1049.58 410.64 1248.28 414.14 1176.82 556.23 1057.63 646.30 1233.60 648.80
00002658 00000133 908.22 153.10 422.10 653.52 1044.18 415.53 1243.40 416.45 1171.03 560.39 1052.35 645.78 1229.91 646.55
00002659 00000134 904.14 156.66 418.29 645.99 1038.49 418.73 1238.44 417.73 1165.88 562.55 1049.89 644.43 1226.83 643.72
00002660 00000135 901.44 161.19 412.04 641.98 1034.37 421.59 1231.85 419.66 1161.29 568.15 1047.54 644.80 1222.66 643.51
00002661 00000136 894.79 168.94 416.34 627.92 1027.46 425.46 1229.69 425.28 1154.35 573.37 1037.16 641.84 1214.96 643.10
00002662 00000137 889.76 175.40 415.02 618.38 1019.48 427.93 1223.19 427.50 1143.34 574.18 1028.64 636.83 1212.34 637.93
00002663 00000138 887.99 174.17 416.33 626.24 1015.24 425.36 1220.17 426.93 1137.47 574.70 1021.59 634.65 1209.33 637.46
00002664 00000139 888.46 172.20 417.02 629.30 1017.01 422.49 1222.53 423.84 1140.51 573.89 1022.16 632.50 1211.63 635.24
00002665 00000140 889.30 165.47 418.76 634.83 1018.93 417.58 1224.82 414.96 1147.88 569.11 1024.84 629.91 1218.20 629.51
00002666 00000141 895.41 153.52 418.91 643.95 1022.35 415.75 1228.02 409.65 1152.76 563.52 1027.76 625.90 1227.14 622.22
00002667 00000142 898.20 153.23 418.44 643.41 1027.14 415.18 1230.91 408.80 1156.94 560.47 1029.68 620.76 1233.11 616.69
00002668 00000143 900.11 150.52 419.08 648.03 1030.30 417.06 1234.57 407.50 1162.27 562.50 1032.61 621.12 1239.82 614.29
00002669 00000144 901.03 153.00 420.73 648.88 1032.84 417.64 1238.60 406.55 1166.93 563.13 1031.92 621.87 1243.45 614.05
00002670 00000145 900.01 149.31 423.63 658.70 1035.16 417.34 1240.26 406.72 1169.78 564.53 1031.78 622.15 1245.07 614.68
00002671 00000146 901.07 145.79 423.18 665.54 1036.38 417.73 1240.89 408.30 1170.48 563.97 1030.21 621.28 1245.44 614.55
00002672 00000147 900.38 144.09 424.55 666.52 1036.06 419.08 1241.17 406.09 1171.76 564.49 1028.73 619.32 1247.97 609.87
00002673 00000148 900.98 143.60 424.47 667.04 1037.17 418.12 1241.88 403.99 1172.59 565.57 1027.14 615.65 1250.68 605.37
00002674 00000149 901.37 145.12 426.09 667.35 1040.00 420.17 1246.06 404.29 1178.40 566.19 1027.88 615.50 1255.50 603.95
00002675 00000150 901.37 148.63 430.30 665.46 1045.70 421.05 1253.23 405.51 1185.77 571.96 1030.44 618.15 1257.47 607.50
00002676 00000151 903.50 157.71 430.84 656.64 1052.23 428.23 1261.87 417.47 1191.31 585.16 1034.84 627.89 1255.46 621.82
00002677 00000152 907.99 168.94 429.00 646.71 1056.00 437.81 1267.14 425.28 1194.44 594.56 1040.08 634.83 1261.31 627.38
00002678 00000153 911.55 170.11 429.97 642.78 1064.71 440.38 1274.88 423.31 1205.73 592.71 1048.92 635.33 1269.73 624.03
00002679 00000154 920.58 161.67 432.72 647.29 1068.65 432.45 1282.51 410.43 1213.25 584.74 1056.39 622.38 1281.37 609.09
00002680 00000155 928.95 154.54 430.36 646.40 1078.07 422.94 1284.79 403.91 1219.27 574.55 1063.48 612.75 1282.37 601.40
00002681 00000156 933.72 153.81 432.69 639.94 1086.47 419.69 1289.43 402.90 1224.82 571.45 1069.32 605.87 1287.39 596.06
00002682 00000157 942.15 150.66 427.97 641.98 1092.78 418.62 1296.91 401.79 1231.94 568.26 1076.85 605.95 1296.13 595.97
00002683 00000158 944.46 154.80 427.00 640.10 1096.31 423.91 1300.09 403.61 1239.92 573.63 1082.27 612.58 1300.46 600.05
00002684 00000159 946.88 165.56 425.44 633.51 1099.38 431.97 1304.12 408.34 1247.52 578.75 1086.69 620.68 1304.01 605.68
00002685 00000160 946.88 166.65 428.87 632.08 1101.61 436.21 1304.73 408.24 1250.68 576.94 1091.92 622.07 1307.93 603.44
00002686 00000161 950.64 156.86 426.97 631.90 1102.60 428.99 1305.36 392.55 1257.78 564.05 1100.55 617.32 1316.95 591.79
00002687 00000162 947.23 144.02 427.52 623.05 1097.04 415.67 1296.88 372.70 1255.88 538.78 1102.71 600.22 1320.82 568.64
00002688 00000163 950.27 129.79 414.80 622.44 1096.86 397.11 1287.68 362.28 1250.38 509.30 1102.03 581.60 1309.56 554.81
