Video ID: 	dRfQGp5Y85U
H: 	1080
W: 	1920
FPS: 	23.976026221881842

FRAME INDEX X0 Y0 W H [Landmarks (5 Points)]

00000951 00000000 875.30 252.33 366.66 530.88 950.46 471.88 1115.63 488.39 1004.79 581.55 953.99 652.06 1090.43 667.22
00000952 00000001 875.50 253.15 367.26 532.49 950.11 476.54 1116.39 490.49 1006.78 584.79 959.23 656.48 1096.52 669.36
00000953 DELETE   878.12 253.99 367.11 523.88 949.54 474.07 1116.87 488.66 1006.83 583.98 961.34 654.36 1100.34 667.38
00000954 00000003 881.67 256.65 365.84 513.72 952.23 473.52 1117.44 488.85 1008.38 583.42 964.03 649.98 1100.83 663.48
00000955 00000004 881.14 271.80 365.69 496.97 949.50 476.95 1115.84 492.93 1007.63 589.72 964.08 650.71 1102.75 665.01
00000956 00000005 881.46 276.48 368.02 497.85 950.14 480.02 1116.35 496.73 1006.32 597.13 965.87 653.90 1104.79 668.96
00000957 00000006 883.13 283.15 367.54 496.46 949.38 483.25 1115.43 503.23 1002.94 604.58 965.24 654.96 1107.49 672.30
00000958 DELETE   876.72 289.88 376.39 493.76 945.99 486.69 1113.48 505.23 1002.66 609.29 966.29 659.05 1108.10 674.93
00000959 00000008 887.14 296.87 370.17 488.30 952.04 487.15 1117.13 506.58 999.41 607.71 963.95 654.07 1107.57 668.02
00000960 DELETE   883.83 284.47 374.78 500.04 948.22 479.79 1116.24 503.51 1003.89 613.28 973.91 649.34 1117.72 666.88
00000961 00000010 883.91 281.51 375.80 501.61 948.13 475.06 1114.30 499.69 1001.72 610.11 976.82 646.81 1119.10 664.73
00000962 00000011 883.44 279.74 378.57 504.19 949.73 474.65 1114.98 498.74 1002.89 608.61 977.87 647.53 1120.06 664.95
00000963 00000012 897.60 281.65 367.77 517.22 961.76 478.57 1123.42 501.75 1009.95 613.63 986.65 656.36 1128.38 672.17
00000964 DELETE   899.15 282.89 368.26 517.72 963.22 485.23 1125.34 504.29 1015.80 616.30 989.75 662.75 1128.92 675.73
00000965 DELETE   902.60 285.93 366.32 515.18 965.01 490.21 1128.86 506.95 1019.21 617.37 993.36 666.58 1131.69 678.01
00000966 00000015 904.98 283.77 367.76 516.43 966.89 491.79 1135.36 507.12 1023.99 616.94 995.18 669.26 1133.76 679.68
00000967 00000016 913.68 285.14 370.19 510.54 974.31 491.07 1143.72 503.99 1033.36 612.21 1006.53 674.82 1134.80 684.37
00000968 00000017 912.83 284.14 376.75 510.59 976.88 486.94 1148.75 501.01 1038.14 612.06 1011.73 674.66 1138.78 684.89
00000969 DELETE   917.74 285.16 376.59 509.05 979.60 488.02 1152.86 499.76 1042.01 611.41 1015.71 676.83 1142.82 684.95
00000970 00000019 920.66 283.86 377.48 513.90 982.92 487.83 1157.75 497.81 1047.75 612.93 1020.95 678.63 1149.53 685.11
00000971 00000020 933.52 287.20 372.46 509.95 992.39 491.22 1166.56 499.89 1055.35 610.99 1033.63 680.09 1156.71 685.07
00000972 00000021 943.29 297.62 368.97 502.47 1000.32 492.31 1174.61 503.97 1061.97 612.03 1036.97 677.42 1163.86 684.78
00000973 00000022 950.77 300.35 367.14 503.55 1006.89 491.65 1179.58 505.74 1064.41 613.41 1039.62 677.37 1167.48 686.73
00000974 00000023 948.09 297.30 375.73 499.40 1013.01 494.84 1179.99 509.22 1071.52 615.79 1042.25 675.10 1173.55 687.02
00000975 00000024 956.88 288.30 375.71 512.50 1016.32 491.20 1175.00 500.06 1071.98 615.43 1051.70 680.73 1174.66 687.27
00000976 00000025 957.72 288.36 374.97 516.27 1015.64 488.71 1183.64 504.61 1065.60 613.83 1044.20 675.13 1170.68 685.74
00000977 00000026 959.97 287.70 372.99 512.77 1017.29 487.92 1182.87 504.62 1064.44 612.77 1041.68 670.78 1168.61 682.18
00000978 00000027 960.76 285.87 372.68 510.72 1017.57 488.20 1183.10 504.50 1064.48 611.15 1039.55 668.21 1168.54 679.46
00000979 00000028 965.09 283.62 370.40 507.75 1019.16 487.86 1179.25 503.62 1064.43 607.38 1039.80 667.38 1162.79 678.45
00000980 00000029 960.26 278.16 375.00 513.59 1016.27 479.39 1181.51 496.05 1062.31 605.38 1036.72 667.76 1158.43 679.96
00000981 00000030 958.67 276.64 370.01 509.79 1013.87 463.04 1185.46 490.42 1068.42 607.40 1036.56 661.05 1161.95 684.10
00000982 00000031 953.66 273.06 371.96 508.22 1008.64 454.34 1182.08 482.95 1063.51 604.20 1032.97 655.46 1159.44 679.37
00000983 00000032 952.57 273.07 375.25 506.17 1012.08 459.96 1171.75 479.82 1052.04 590.34 1027.43 650.73 1158.94 667.81
00000984 00000033 952.24 273.43 372.02 505.28 1011.31 460.34 1170.92 481.39 1050.17 591.80 1025.85 646.63 1162.21 664.61
00000985 00000034 951.60 273.60 371.19 504.71 1010.98 460.63 1170.55 481.02 1050.77 592.62 1026.12 645.88 1163.85 663.43
00000986 00000035 950.46 275.11 371.91 503.38 1010.30 462.05 1170.42 481.91 1050.70 593.13 1026.01 645.98 1164.98 663.07
00000987 00000036 949.06 273.57 372.03 504.14 1006.69 455.08 1167.17 474.11 1045.57 588.82 1026.32 650.00 1156.25 666.70
00000988 00000037 947.92 270.92 372.24 507.19 1006.08 453.54 1166.30 470.90 1046.10 586.46 1025.86 653.13 1150.64 668.58
00000989 00000038 942.00 267.41 378.05 513.00 1003.74 452.97 1164.45 467.84 1046.85 586.05 1026.05 656.77 1146.80 670.10
00000990 00000039 941.89 267.22 379.09 516.03 1004.65 454.20 1164.58 467.27 1048.36 585.19 1027.42 659.47 1146.07 671.29
00000991 00000040 945.83 263.77 376.07 521.55 1006.99 459.39 1161.44 471.78 1048.69 584.32 1029.87 660.92 1146.04 672.24
00000992 00000041 949.03 267.92 375.02 516.36 1007.60 459.20 1160.52 471.39 1047.68 584.13 1030.26 660.86 1146.18 672.01
00000993 00000042 952.52 266.18 374.07 517.79 1009.99 458.67 1162.03 470.39 1049.48 582.43 1032.73 660.32 1148.84 671.21
00000994 00000043 957.13 266.46 376.09 518.81 1013.26 459.48 1163.60 470.40 1050.10 581.34 1035.82 659.83 1151.87 669.94
00000995 00000044 954.89 263.70 384.24 521.72 1009.32 448.66 1181.37 474.11 1058.02 592.72 1038.76 656.40 1158.12 677.28
00000996 00000045 957.26 264.33 385.92 519.94 1013.75 449.84 1187.12 475.97 1062.93 594.17 1043.54 655.36 1167.85 676.38
00000997 00000046 962.87 266.80 384.34 521.48 1021.96 450.52 1189.74 479.78 1066.71 595.38 1050.22 650.88 1181.75 673.38
00000998 00000047 966.37 266.65 388.09 526.10 1028.13 450.96 1194.76 480.64 1072.15 596.33 1056.34 647.20 1196.58 669.03
00000999 00000048 985.14 256.41 389.70 547.44 1049.51 456.19 1212.90 477.04 1082.51 593.74 1070.93 651.70 1218.34 665.47
00001000 00000049 992.47 253.28 385.94 549.29 1053.61 453.00 1219.90 476.99 1082.97 595.01 1072.97 650.08 1221.99 666.71
00001001 00000050 998.26 262.22 383.58 525.98 1060.64 454.73 1225.72 483.71 1091.71 597.39 1074.92 641.59 1223.97 664.92
00001002 00000051 1009.19 258.00 380.44 528.03 1063.37 452.03 1232.84 488.04 1100.31 602.60 1080.68 639.55 1230.93 667.89
00001003 00000052 1024.21 261.06 376.49 523.17 1078.58 448.47 1252.37 493.19 1122.00 603.33 1088.23 641.51 1229.56 678.27
00001004 00000053 1024.68 256.18 384.82 534.64 1084.38 444.44 1261.66 487.33 1132.06 600.11 1094.17 647.33 1232.79 682.59
00001005 00000054 1033.72 258.26 381.79 531.86 1094.31 441.94 1269.88 489.17 1137.57 599.63 1100.91 649.07 1234.98 688.07
00001006 00000055 1040.68 262.24 380.52 529.47 1100.67 442.57 1279.74 488.66 1148.33 598.92 1105.82 648.27 1246.53 686.32
00001007 00000056 1039.25 256.77 382.73 540.62 1107.55 435.05 1288.42 481.35 1162.02 595.08 1108.92 630.44 1270.32 667.59
00001008 00000057 1036.41 256.33 380.93 542.16 1107.55 433.22 1287.14 478.07 1165.96 592.76 1104.83 619.60 1277.53 655.38
00001009 00000058 1032.41 255.73 380.05 537.40 1104.61 432.50 1284.43 476.16 1165.14 593.01 1101.69 614.19 1278.78 649.31
00001010 00000059 1025.87 265.17 377.64 519.13 1100.40 443.43 1272.74 469.06 1155.80 590.38 1088.76 612.11 1271.51 635.00
00001011 00000060 1002.58 260.44 381.76 519.45 1083.94 429.95 1260.71 462.33 1140.93 578.66 1073.26 604.05 1252.62 631.85
00001012 00000061 998.99 254.09 381.73 522.78 1076.49 427.78 1257.27 457.43 1133.15 578.63 1065.59 606.32 1251.68 629.48
00001013 00000062 992.40 249.54 377.51 525.34 1064.41 422.13 1245.36 452.21 1121.70 577.87 1059.34 604.05 1245.19 627.26
00001014 00000063 979.82 246.96 378.61 525.50 1052.86 420.88 1232.73 449.76 1115.16 574.03 1051.77 599.98 1234.27 622.92
00001015 00000064 959.71 239.61 384.04 530.80 1033.33 414.16 1216.46 443.65 1102.07 565.81 1034.64 591.00 1217.47 615.75
00001016 00000065 959.97 241.22 373.88 520.87 1030.64 422.11 1204.72 451.04 1084.31 567.10 1021.81 588.97 1202.52 614.02
00001017 00000066 951.15 238.55 376.97 524.71 1023.07 418.87 1198.25 448.11 1076.28 560.78 1014.64 587.56 1193.26 612.89
00001018 00000067 946.22 229.79 377.32 530.23 1015.39 414.36 1190.77 444.42 1065.99 556.53 1009.40 586.25 1185.41 611.99
00001019 00000068 925.54 227.42 375.21 525.82 1002.83 401.71 1178.34 436.99 1057.50 559.46 991.11 581.50 1170.85 610.80
00001020 00000069 925.61 228.02 365.61 527.32 991.27 399.12 1168.29 437.62 1040.44 552.81 983.69 582.81 1163.60 610.62
00001021 00000070 913.30 229.16 370.84 517.59 981.95 397.18 1161.20 438.33 1032.02 550.58 976.42 581.76 1153.14 612.27
00001022 00000071 904.81 224.86 368.01 519.81 976.99 402.80 1153.93 440.36 1029.97 548.90 971.67 580.94 1147.14 608.68
00001023 00000072 896.46 227.14 364.90 510.60 961.94 414.20 1138.56 446.37 1024.20 548.90 962.41 582.19 1134.17 606.79
00001024 00000073 893.90 222.40 368.87 516.30 959.28 428.64 1127.21 446.22 1014.82 548.09 963.18 591.01 1129.28 605.66
00001025 00000074 896.22 222.82 361.69 515.76 954.53 430.64 1119.34 445.23 1008.93 548.56 967.40 603.33 1117.88 615.01
00001026 00000075 895.76 222.50 358.95 523.84 952.64 436.17 1114.13 446.39 1008.08 547.19 971.20 618.46 1109.45 626.87
00001027 00000076 886.79 222.40 359.71 532.26 945.81 435.26 1108.22 449.32 995.83 550.64 965.06 621.83 1094.13 635.29
00001028 00000077 884.72 223.85 357.93 528.05 943.30 434.59 1105.78 450.11 993.91 551.07 962.07 620.75 1089.66 635.42
00001029 00000078 883.45 238.04 356.28 515.20 933.35 432.37 1106.48 447.53 989.23 548.90 957.19 624.69 1082.80 635.07
00001030 00000079 879.77 233.13 357.57 515.42 932.71 430.51 1103.87 447.09 988.63 547.15 954.04 620.69 1080.54 632.50
00001031 00000080 868.50 232.94 362.88 503.20 925.46 427.58 1098.93 446.63 983.94 546.89 942.03 612.17 1074.66 626.19
00001032 00000081 864.18 232.31 361.94 500.21 921.54 426.21 1095.40 448.48 979.63 547.45 934.74 608.87 1070.00 625.57
00001033 00000082 859.30 229.32 363.19 504.08 918.55 427.22 1092.22 449.51 976.75 545.79 932.63 608.98 1067.01 625.98
00001034 00000083 856.79 226.85 362.81 508.11 915.76 429.01 1090.47 450.68 975.37 547.91 929.95 609.92 1067.98 626.77
00001035 00000084 845.79 229.80 361.94 504.78 907.65 427.98 1082.13 451.04 968.74 549.98 921.98 603.54 1063.67 621.39
00001036 00000085 844.91 236.04 358.56 500.03 904.70 428.91 1077.22 452.59 961.69 552.34 913.10 599.62 1063.94 617.69
00001037 00000086 839.43 233.90 363.80 505.46 903.32 424.07 1073.92 449.49 959.60 556.01 911.42 596.31 1064.65 615.19
00001038 00000087 840.19 235.21 363.84 506.54 903.67 417.66 1071.37 444.15 956.39 556.06 913.38 594.91 1063.37 614.52
00001039 00000088 833.76 235.25 369.25 504.79 902.67 408.38 1067.58 437.87 953.43 551.59 908.81 586.06 1054.82 610.64
00001040 00000089 839.06 244.75 361.07 495.37 906.20 404.40 1074.97 444.83 955.22 552.90 905.27 584.83 1057.04 615.69
00001041 00000090 837.27 244.65 363.95 496.97 907.07 405.31 1076.02 447.74 956.01 554.62 904.13 582.58 1061.68 614.62
00001042 00000091 836.63 245.57 364.12 497.32 907.59 405.97 1076.06 449.26 957.18 555.62 902.83 581.37 1064.09 613.86
00001043 00000092 827.61 235.83 366.37 517.48 899.47 408.33 1064.39 438.30 954.11 551.34 899.69 580.29 1063.73 605.57
00001044 00000093 829.72 242.30 360.49 508.43 901.55 411.37 1062.40 442.25 951.98 553.85 901.89 587.43 1060.55 614.05
00001045 00000094 826.59 239.18 365.38 508.22 898.46 413.15 1059.45 437.26 953.79 551.15 908.40 595.59 1056.21 616.39
00001046 00000095 828.50 238.08 360.10 501.56 896.45 413.16 1057.16 434.44 952.11 547.67 908.55 596.19 1047.95 614.59
00001047 00000096 823.53 235.84 365.27 497.63 892.86 404.49 1058.46 431.92 946.32 551.14 901.35 586.69 1043.84 610.32
00001048 00000097 822.21 235.56 366.71 497.57 892.61 404.30 1057.29 433.59 944.84 550.76 900.84 582.36 1047.91 607.23
00001049 00000098 822.02 240.64 365.85 492.86 893.13 407.13 1056.67 435.89 945.08 551.72 899.55 582.33 1050.64 606.63
00001050 00000099 822.00 243.65 364.55 490.79 893.22 405.87 1057.57 437.12 944.29 553.70 898.45 583.37 1049.30 609.80
00001051 00000100 821.07 242.50 366.73 498.61 892.15 406.68 1058.09 438.08 944.33 554.65 900.60 585.28 1049.56 611.60
00001052 00000101 820.28 240.26 366.84 497.55 890.80 407.45 1056.23 438.86 942.07 555.46 901.02 586.95 1045.00 613.42
00001053 00000102 823.66 237.66 362.55 499.70 889.49 408.52 1058.63 449.12 941.03 551.12 894.76 585.45 1043.43 616.85
00001054 00000103 823.12 229.70 364.11 501.43 881.01 421.12 1049.46 444.08 932.78 552.47 898.39 601.28 1039.51 620.10
00001055 00000104 813.63 223.67 370.56 506.25 876.54 424.31 1048.30 445.28 930.92 551.58 894.44 601.05 1036.35 618.44
00001056 00000105 816.28 226.08 366.30 503.52 877.49 425.74 1046.24 446.30 928.79 548.89 891.46 597.71 1036.85 614.90
00001057 00000106 817.01 229.15 363.56 500.84 878.19 425.37 1043.24 447.46 926.77 547.67 887.76 592.63 1035.15 611.50
00001058 00000107 815.37 231.47 360.72 500.32 878.27 422.74 1040.82 450.05 923.32 546.64 881.90 587.66 1031.41 611.06
00001059 00000108 814.47 231.94 356.75 501.66 878.66 416.06 1037.60 448.87 917.19 546.30 880.40 582.91 1028.26 610.92
00001060 00000109 813.15 234.95 356.80 499.09 877.29 415.83 1038.14 446.58 918.15 546.44 880.25 583.67 1026.83 609.94
00001061 00000110 810.38 235.83 360.27 498.24 875.83 417.46 1037.86 446.84 918.72 549.09 879.81 583.29 1029.39 608.33
00001062 00000111 806.80 235.62 357.52 493.37 872.97 414.28 1040.91 446.84 918.21 555.36 876.29 581.84 1035.63 609.46
00001063 00000112 807.32 242.80 358.57 492.14 873.38 412.25 1039.33 447.38 918.11 560.77 874.12 589.41 1031.90 617.36
00001064 00000113 809.71 245.59 358.94 489.36 873.89 411.50 1038.96 448.71 917.13 561.44 876.16 593.37 1024.50 622.88
00001065 00000114 821.08 242.82 355.57 489.28 878.86 418.23 1040.58 446.79 922.33 552.90 887.41 601.21 1016.81 625.23
00001066 00000115 824.56 240.23 352.61 495.75 881.85 417.51 1040.69 442.61 926.00 549.49 893.32 606.30 1015.23 627.80
00001067 00000116 823.41 240.58 355.96 503.28 881.54 421.17 1044.48 442.06 931.24 549.52 898.10 609.46 1031.76 627.50
00001068 00000117 824.45 241.71 353.13 507.40 882.96 424.16 1044.07 442.67 932.34 552.85 900.30 611.45 1037.64 627.57
00001069 00000118 826.21 239.66 351.48 509.41 882.73 429.12 1044.57 447.79 930.92 553.78 898.97 616.12 1035.92 632.24
00001070 00000119 821.65 246.30 354.79 500.32 883.32 419.85 1050.58 450.30 930.43 560.90 898.08 609.71 1028.28 635.28
00001071 00000120 825.68 242.80 352.89 498.47 884.22 432.79 1047.39 455.19 934.54 555.97 896.03 615.22 1032.84 634.58
00001072 00000121 821.75 244.25 354.48 496.36 882.90 421.52 1051.63 451.30 933.08 561.28 893.61 603.71 1031.67 628.60
00001073 00000122 820.68 241.23 355.83 497.54 882.26 422.04 1052.73 452.50 932.85 561.29 891.04 603.84 1030.11 629.35
00001074 00000123 819.03 243.98 354.27 490.68 878.97 428.93 1055.30 454.72 931.68 552.64 885.06 610.94 1016.77 630.40
00001075 00000124 817.94 241.19 354.37 496.50 877.38 433.20 1051.77 458.95 931.33 551.73 890.91 621.03 1007.20 640.37
00001076 00000125 819.13 243.57 353.77 495.71 877.26 434.06 1054.00 458.32 933.67 551.63 891.23 624.15 1010.10 642.33
00001077 00000126 820.32 245.79 353.42 495.18 877.29 432.29 1054.01 457.40 933.19 551.31 889.24 623.10 1010.84 642.02
00001078 00000127 817.93 244.61 355.81 495.73 878.05 430.79 1054.88 456.46 933.76 549.98 890.09 618.18 1016.11 637.49
00001079 00000128 819.44 242.30 351.38 495.04 880.24 427.54 1054.47 454.71 932.67 547.35 887.11 607.99 1018.58 628.56
00001080 00000129 821.22 242.23 349.62 494.29 881.32 427.58 1053.69 453.36 933.29 545.71 888.76 607.42 1017.13 627.00
00001081 00000130 816.57 240.11 352.45 497.93 881.70 427.29 1054.14 453.26 934.61 546.25 884.83 603.91 1018.86 623.89
00001082 00000131 811.76 235.79 354.44 491.39 882.71 424.99 1048.90 450.73 939.71 547.69 890.93 601.62 1023.56 624.03
00001083 00000132 812.55 234.94 356.11 501.29 881.40 431.08 1044.61 447.03 941.44 547.56 894.09 605.41 1025.90 618.82
00001084 00000133 803.87 225.38 360.73 511.32 881.57 424.65 1047.92 451.70 937.95 551.05 891.75 605.21 1022.00 629.21
00001085 00000134 802.07 223.44 361.95 514.68 879.80 426.18 1049.30 451.13 939.57 551.09 894.97 609.49 1025.49 631.57
00001086 00000135 802.78 222.65 360.10 513.31 880.18 425.96 1049.10 450.55 939.10 548.84 892.44 606.39 1024.99 627.90
00001087 00000136 810.00 222.60 349.86 511.51 876.88 416.07 1043.12 442.49 928.21 540.32 874.30 593.59 1012.92 614.63
00001088 00000137 807.23 216.23 351.47 511.95 877.61 410.53 1043.13 438.22 926.37 536.48 869.72 585.62 1014.69 607.75
00001089 00000138 804.46 215.43 354.44 510.79 875.40 407.54 1042.18 434.85 924.87 534.26 867.00 581.91 1014.60 604.00
00001090 00000139 806.05 220.26 352.33 506.04 872.89 402.19 1040.08 431.09 920.96 534.71 868.69 583.34 1008.82 606.67
00001091 00000140 801.63 218.63 355.21 514.45 864.02 401.22 1032.05 424.44 915.53 534.63 874.79 604.25 997.49 622.70
00001092 00000141 794.71 217.86 360.38 513.92 860.11 400.57 1029.58 424.32 913.40 534.58 871.73 602.53 995.23 621.32
00001093 00000142 796.78 223.90 358.28 509.29 859.78 399.95 1029.00 427.52 910.00 534.55 868.00 601.44 992.36 623.08
00001094 DELETE   794.65 223.29 360.80 510.96 859.19 401.16 1027.92 430.41 908.61 536.29 866.33 602.57 989.42 625.60
00001095 00000144 791.54 223.54 359.42 511.73 854.12 401.71 1021.79 433.12 901.89 538.73 858.40 602.22 986.06 627.26
00001096 00000145 789.32 221.56 358.23 512.19 850.97 400.62 1018.55 431.63 897.57 537.11 855.12 601.13 983.31 626.06
00001097 00000146 789.33 229.20 354.57 504.36 846.46 398.85 1016.55 428.97 893.45 536.42 854.26 603.02 983.80 626.55
00001098 00000147 784.85 224.65 356.11 510.75 843.37 397.71 1012.22 431.22 887.89 537.97 848.09 597.28 985.66 623.08
00001099 00000148 780.53 231.91 356.33 507.71 842.95 397.37 1008.09 435.91 883.45 541.06 841.28 586.99 988.97 615.94
00001100 00000149 775.82 233.53 357.36 506.09 841.28 399.20 1006.20 437.47 882.31 542.41 840.08 584.93 989.39 613.53
00001101 00000150 778.75 240.28 354.80 499.51 840.93 397.49 1005.27 438.54 880.07 543.63 837.78 584.75 988.10 615.47
00001102 00000151 779.57 236.19 353.20 499.28 840.72 397.70 1006.23 439.12 879.76 544.93 836.52 582.57 989.65 614.04
00001103 00000152 774.13 235.47 355.72 499.63 838.85 399.70 1006.27 441.29 881.15 548.48 835.22 581.17 991.67 612.66
00001104 00000153 774.77 238.72 355.14 498.71 837.89 399.67 1006.26 441.24 880.49 548.49 834.57 582.45 991.53 613.93
00001105 00000154 774.43 234.41 354.26 504.11 838.40 406.05 1005.15 444.53 883.25 549.98 835.56 585.88 989.39 615.15
00001106 00000155 771.82 237.40 357.92 508.04 837.02 410.99 1006.54 445.67 885.05 550.00 839.92 596.26 986.29 622.10
00001107 00000156 773.02 234.46 355.53 506.82 833.50 417.31 1006.25 449.53 884.15 550.25 840.75 603.84 981.22 628.19
00001108 00000157 770.65 234.65 355.44 503.02 831.73 419.67 1006.12 450.62 885.19 550.26 836.05 602.33 979.79 626.12
00001109 00000158 768.20 231.84 356.66 505.18 829.41 419.76 1006.26 451.46 884.47 548.44 830.80 600.48 979.19 625.07
00001110 00000159 769.29 232.62 357.98 500.93 829.73 420.45 1006.76 452.66 884.49 547.19 830.99 599.49 976.70 624.53
00001111 00000160 767.72 228.65 356.75 501.16 828.97 425.09 1004.79 454.20 887.03 547.69 831.82 601.01 976.67 624.42
00001112 00000161 767.18 229.82 357.22 501.93 828.56 425.03 1004.59 454.19 887.71 547.64 833.39 601.37 976.31 624.80
00001113 00000162 766.21 231.80 357.63 502.80 828.41 424.56 1006.26 453.91 888.33 548.36 834.23 603.69 976.93 627.25
00001114 00000163 764.66 231.37 358.82 502.65 827.48 424.39 1006.23 452.43 890.04 548.37 835.53 603.95 976.90 626.60
00001115 00000164 763.87 227.16 359.32 508.34 827.63 426.46 1008.09 450.77 894.23 547.70 838.83 607.38 979.78 627.44
00001116 00000165 767.72 222.97 357.16 514.65 830.64 428.69 1009.48 451.73 895.57 547.13 842.01 609.56 981.42 628.89
00001117 00000166 767.96 224.95 357.23 515.52 832.93 429.87 1009.88 454.61 897.12 547.85 842.59 608.29 981.90 629.01
