Video ID: 	gA3L8Cy4Pnk
H: 	1080
W: 	1920
FPS: 	23.976023976023978

FRAME INDEX X0 Y0 W H [Landmarks (5 Points)]

00049056 00000000 859.50 140.82 450.37 626.71 941.78 408.17 1134.84 398.39 1019.54 517.71 975.71 626.70 1116.73 619.95
00049057 00000001 861.63 135.89 460.03 641.51 943.51 411.11 1128.52 394.04 1013.56 517.42 977.88 629.06 1122.96 615.38
00049058 00000002 865.57 137.67 459.23 639.14 948.69 411.50 1132.53 396.86 1017.27 518.02 979.90 625.43 1125.16 613.78
00049059 00000003 872.73 137.33 455.61 645.00 955.94 411.02 1138.03 397.14 1021.59 515.81 985.87 627.79 1126.84 616.81
00049060 00000004 875.11 139.42 453.45 649.83 959.78 411.72 1139.54 397.73 1024.03 516.25 991.00 632.19 1127.00 621.19
00049061 00000005 875.68 145.96 450.57 639.83 960.46 408.20 1145.79 397.67 1037.32 520.20 991.49 632.36 1133.76 623.25
00049062 00000006 879.37 142.05 452.69 648.13 962.87 414.49 1142.83 401.78 1028.46 523.20 996.41 635.56 1135.11 625.42
00049063 00000007 877.64 147.47 451.95 641.32 958.55 412.76 1146.89 400.46 1035.97 527.66 994.30 637.42 1142.04 626.56
00049064 00000008 881.47 138.21 454.42 648.00 961.27 417.00 1142.82 403.35 1027.82 529.05 997.91 636.56 1146.49 625.38
00049065 00000009 881.34 140.95 456.02 659.96 963.49 417.83 1142.38 402.72 1026.97 526.79 999.54 641.36 1140.82 629.32
00049066 00000010 880.98 142.74 455.77 659.88 963.87 416.83 1142.04 402.53 1025.72 525.47 997.74 642.44 1134.90 631.23
00049067 00000011 879.65 138.32 454.13 647.26 958.97 415.67 1138.92 401.70 1022.60 524.75 994.60 635.37 1135.47 624.10
00049068 00000012 877.85 136.89 454.04 644.77 957.48 415.26 1137.41 401.06 1021.72 523.40 993.31 633.36 1133.89 621.70
00049069 00000013 879.13 136.71 454.74 644.88 958.70 413.85 1140.44 399.33 1023.62 520.21 991.61 631.37 1133.53 619.74
00049070 00000014 880.37 138.62 454.32 645.65 960.09 414.46 1139.74 399.84 1023.56 520.65 992.67 633.59 1131.84 621.98
00049071 DELETE   879.26 138.47 453.67 644.10 958.49 414.82 1137.97 400.61 1022.24 521.88 991.78 634.68 1130.17 623.26
00049072 00000016 881.61 139.09 453.41 643.77 960.08 415.52 1139.80 401.06 1023.95 522.71 994.08 635.02 1133.97 623.40
00049073 00000017 882.68 140.49 454.80 645.32 962.39 415.02 1142.19 400.60 1026.90 522.86 997.04 634.98 1136.36 623.50
00049074 00000018 879.60 147.61 453.18 634.66 960.44 411.54 1147.65 398.47 1037.97 525.07 996.87 635.22 1143.93 623.08
00049075 00000019 881.64 148.34 453.78 631.32 962.24 416.39 1149.72 401.78 1040.67 528.41 1002.65 636.28 1150.95 622.73
00049076 00000020 883.36 149.61 457.13 633.22 963.54 419.80 1155.50 404.73 1043.48 532.14 1004.14 636.87 1161.93 622.80
00049077 00000021 886.77 153.51 458.43 632.93 968.15 423.75 1157.98 408.62 1048.26 536.36 1011.73 641.09 1166.63 627.11
00049078 00000022 893.48 158.72 455.08 639.94 977.98 428.12 1161.97 412.39 1057.76 542.76 1025.42 650.23 1171.27 636.60
00049079 00000023 899.27 158.98 454.88 660.47 985.73 430.98 1168.32 419.64 1057.18 555.85 1028.69 657.91 1171.13 648.24
00049080 00000024 894.96 160.69 451.62 647.64 979.36 428.80 1164.37 416.28 1058.75 548.83 1023.39 655.82 1172.08 644.84
00049081 00000025 891.74 151.13 453.66 652.22 974.98 427.62 1154.11 415.03 1040.50 542.31 1016.12 649.22 1154.29 638.93
00049082 00000026 880.79 153.25 450.47 636.06 959.80 422.76 1146.50 406.48 1039.63 535.66 1004.63 645.09 1151.89 630.51
00049083 00000027 872.01 146.71 458.42 648.34 953.49 426.79 1132.15 408.29 1021.67 536.55 999.64 646.18 1138.73 630.87
00049084 00000028 866.07 152.33 462.69 650.31 947.09 431.82 1124.57 411.10 1012.79 539.00 993.31 650.34 1133.00 633.36
00049085 00000029 865.81 151.54 460.74 648.10 944.82 431.11 1124.98 414.30 1010.11 546.30 986.22 648.33 1133.13 634.50
00049086 00000030 867.46 152.50 461.13 647.19 946.17 430.39 1126.00 414.35 1011.57 548.00 987.51 648.17 1134.08 635.09
00049087 00000031 871.04 150.09 461.05 655.42 951.69 430.40 1131.19 414.80 1017.74 549.18 994.46 650.55 1139.41 637.87
00049088 00000032 874.11 149.79 462.01 655.74 956.96 430.50 1136.33 413.99 1025.22 550.19 1001.13 651.63 1145.49 638.27
00049089 00000033 876.42 147.63 463.14 656.23 961.27 430.03 1142.62 413.15 1031.87 549.60 1004.18 648.67 1153.38 634.97
00049090 00000034 876.19 147.22 466.32 657.31 964.10 428.08 1147.22 410.28 1036.48 544.68 1006.70 645.92 1158.18 631.34
00049091 00000035 876.72 150.07 467.72 661.94 967.51 427.88 1149.56 407.79 1041.53 541.66 1011.97 648.52 1161.67 631.87
00049092 00000036 876.41 153.04 466.61 671.75 967.44 428.32 1148.59 407.13 1040.70 542.62 1013.97 657.16 1162.20 639.52
00049093 00000037 875.31 154.45 465.94 677.28 966.01 430.63 1145.40 409.16 1037.76 545.97 1012.61 660.13 1161.70 642.22
00049094 00000038 874.62 155.49 466.54 677.14 965.60 431.75 1144.37 410.34 1037.34 547.78 1012.34 660.98 1160.93 643.12
00049095 00000039 875.17 155.04 466.88 673.78 965.67 431.64 1144.39 409.37 1037.42 546.44 1013.33 660.25 1161.36 641.70
00049096 00000040 873.77 151.65 467.23 666.01 963.20 431.46 1144.28 409.99 1036.47 547.14 1009.36 656.97 1158.65 639.16
00049097 00000041 874.80 150.03 464.88 659.87 963.30 430.71 1145.90 410.11 1037.12 544.93 1006.94 652.24 1156.90 635.39
00049098 00000042 877.48 150.41 465.56 660.60 966.89 427.38 1150.37 407.67 1041.08 539.80 1008.32 648.88 1160.66 632.58
00049099 00000043 879.51 151.32 465.57 661.74 970.33 427.78 1151.86 407.30 1043.85 539.65 1014.97 650.89 1162.04 633.85
00049100 00000044 878.30 155.54 462.23 651.43 967.68 425.54 1155.14 406.78 1054.43 539.89 1014.60 649.37 1168.47 633.79
00049101 00000045 881.82 156.53 461.31 652.67 969.37 428.44 1155.80 409.09 1055.70 547.95 1020.46 655.17 1171.96 638.90
00049102 00000046 883.11 160.05 464.77 658.36 974.26 434.70 1163.11 414.59 1065.14 557.59 1027.52 665.44 1176.97 648.88
00049103 00000047 884.66 163.92 465.64 658.75 980.69 439.28 1167.15 418.25 1073.09 562.26 1037.68 671.47 1179.69 654.39
00049104 00000048 884.39 163.99 467.26 666.93 978.49 445.14 1170.09 422.78 1072.33 569.49 1035.03 677.53 1187.60 658.87
00049105 00000049 881.79 161.73 468.29 667.36 974.59 442.56 1165.23 420.25 1067.10 565.95 1031.85 674.74 1183.40 656.21
00049106 00000050 882.54 160.36 465.68 669.22 974.48 437.83 1162.28 416.01 1064.72 561.14 1031.04 673.40 1178.30 655.60
00049107 00000051 881.54 158.65 466.41 668.07 972.30 437.51 1162.40 416.38 1062.69 561.16 1025.56 670.61 1178.74 653.19
00049108 00000052 882.57 160.12 466.20 663.67 973.04 437.41 1162.05 416.29 1062.71 561.28 1026.73 669.63 1177.24 652.24
00049109 00000053 885.25 160.55 464.42 659.89 976.08 435.91 1162.46 414.91 1064.93 559.41 1032.55 670.07 1174.36 652.91
00049110 00000054 885.30 160.70 461.78 662.53 976.33 433.97 1160.03 413.90 1063.87 557.96 1032.45 670.48 1169.47 654.27
00049111 00000055 885.66 159.65 462.37 664.75 976.21 433.98 1160.33 413.92 1063.32 557.08 1031.97 670.07 1170.86 653.66
00049112 00000056 887.34 161.06 461.77 657.25 975.88 433.89 1161.63 414.85 1061.95 556.44 1030.76 667.50 1173.04 651.71
00049113 00000057 888.35 162.05 460.54 655.88 977.65 436.83 1164.98 418.06 1064.60 560.34 1031.14 665.68 1180.02 649.75
00049114 00000058 889.43 165.60 462.34 649.24 979.15 438.37 1169.46 420.59 1066.58 563.44 1032.11 665.92 1186.16 650.47
00049115 00000059 895.96 168.94 459.57 651.33 987.22 442.67 1175.16 428.15 1071.80 568.96 1036.37 667.96 1190.72 654.87
00049116 00000060 910.44 173.60 454.39 651.63 1001.36 452.90 1188.14 443.84 1080.00 583.22 1043.35 671.92 1187.04 664.65
00049117 00000061 922.77 187.26 450.51 646.84 1015.37 465.54 1210.40 461.55 1099.22 595.25 1051.40 683.18 1196.72 680.71
00049118 00000062 929.79 191.77 447.51 645.52 1025.78 469.40 1219.28 464.90 1111.22 597.28 1060.51 687.92 1205.02 685.05
00049119 00000063 929.42 183.92 447.91 653.11 1026.63 462.34 1219.33 455.95 1115.00 593.34 1066.39 687.71 1205.34 683.54
00049120 00000064 922.94 179.30 450.80 657.70 1019.18 457.51 1210.46 448.54 1107.11 584.45 1063.27 685.71 1200.71 679.19
00049121 00000065 916.86 172.01 452.20 661.07 1013.12 450.15 1201.32 439.50 1098.67 577.69 1059.67 677.67 1199.58 669.36
00049122 00000066 916.37 171.48 452.04 652.58 1009.18 449.79 1196.91 437.28 1092.35 575.22 1052.43 669.68 1198.26 659.45
00049123 00000067 914.15 169.44 451.95 647.60 1006.72 446.63 1194.80 434.25 1088.57 571.81 1046.89 664.07 1195.08 653.54
00049124 00000068 914.84 167.29 451.45 650.76 1008.83 440.64 1196.80 431.52 1089.83 566.97 1043.67 658.90 1193.56 651.19
00049125 00000069 919.31 163.31 448.33 650.09 1011.59 433.43 1200.93 427.21 1092.24 560.12 1042.77 652.75 1193.00 647.65
00049126 00000070 921.69 158.95 448.14 648.08 1013.19 427.06 1204.15 420.35 1095.02 551.93 1041.09 646.11 1196.33 640.26
00049127 00000071 922.11 154.89 449.84 646.14 1012.87 420.42 1205.53 413.88 1095.10 543.67 1039.14 642.23 1196.76 636.06
00049128 00000072 919.23 161.12 450.60 638.31 1009.54 420.03 1202.95 419.77 1089.11 539.15 1038.89 643.13 1199.72 641.09
00049129 00000073 921.07 154.43 449.89 654.63 1013.60 418.98 1203.35 412.71 1094.21 541.55 1038.73 643.46 1194.13 637.79
00049130 00000074 922.55 157.35 448.92 659.86 1016.30 421.60 1207.17 417.02 1098.89 547.61 1042.12 649.84 1196.06 646.25
00049131 00000075 924.21 161.68 447.42 670.82 1017.72 425.87 1209.46 424.37 1100.87 557.98 1047.29 662.06 1197.80 661.64
00049132 00000076 925.95 165.75 446.47 674.55 1020.29 432.07 1212.04 430.51 1104.72 562.65 1051.22 670.66 1199.79 670.37
00049133 00000077 925.12 166.17 446.62 674.04 1019.72 433.07 1212.38 431.07 1105.24 563.06 1050.87 670.89 1201.19 670.27
00049134 00000078 923.66 162.35 448.37 670.16 1016.63 431.01 1211.72 426.77 1103.55 559.88 1048.60 666.99 1203.65 664.25
00049135 00000079 924.35 161.50 447.31 664.42 1017.40 427.43 1212.18 422.33 1104.37 556.49 1048.88 661.88 1202.56 658.39
00049136 00000080 923.41 161.20 447.79 667.37 1017.63 427.47 1210.97 421.89 1104.04 556.04 1048.82 661.53 1201.10 657.74
00049137 00000081 921.08 161.26 448.77 673.37 1015.88 427.61 1206.95 421.35 1101.53 557.82 1048.97 663.88 1200.70 659.45
00049138 00000082 920.14 161.23 449.95 671.94 1015.65 428.67 1207.11 422.41 1101.99 559.41 1051.81 665.81 1200.25 661.34
00049139 00000083 918.96 159.86 449.36 660.91 1014.03 430.91 1207.57 423.49 1102.12 562.61 1053.62 665.35 1198.85 659.97
00049140 00000084 916.51 158.01 452.84 659.68 1012.33 431.90 1206.45 422.59 1099.17 561.27 1049.34 660.78 1199.36 653.65
00049141 00000085 915.60 157.34 452.63 653.25 1010.67 429.00 1203.04 418.34 1096.27 557.14 1047.97 656.96 1197.14 648.43
00049142 00000086 914.39 162.89 451.05 644.07 1004.89 427.26 1199.81 421.39 1091.02 551.91 1045.63 659.18 1199.37 652.98
00049143 00000087 913.41 162.18 451.18 639.44 1004.07 425.08 1198.37 419.31 1088.88 546.90 1043.98 654.31 1198.58 648.02
00049144 00000088 913.54 161.70 451.04 640.10 1004.45 424.47 1198.70 419.20 1089.45 547.24 1043.47 653.66 1198.60 647.80
00049145 00000089 913.07 162.23 451.29 639.86 1004.56 426.17 1198.90 420.87 1089.92 548.88 1043.13 653.89 1198.74 647.96
00049146 00000090 914.49 162.23 450.05 639.23 1006.16 425.75 1199.69 420.79 1091.11 548.14 1043.96 652.75 1199.53 647.13
00049147 00000091 914.19 160.88 449.40 638.95 1006.21 422.90 1200.54 419.47 1091.35 545.35 1041.13 649.61 1199.49 645.19
00049148 00000092 915.67 162.35 447.43 636.48 1006.39 425.45 1199.97 422.52 1091.34 546.47 1042.04 650.36 1198.45 646.28
00049149 00000093 915.13 165.02 445.89 644.47 1008.57 434.27 1201.85 432.14 1092.05 555.11 1041.44 656.35 1197.25 653.18
00049150 00000094 915.78 166.41 447.26 658.15 1013.35 438.31 1197.67 434.56 1093.63 564.86 1049.21 663.37 1187.36 660.60
00049151 00000095 913.47 169.10 448.52 661.74 1011.03 437.18 1195.58 434.41 1091.80 566.18 1048.99 670.71 1182.55 669.13
00049152 00000096 913.29 167.08 447.91 657.94 1009.86 433.72 1196.15 430.34 1090.59 565.74 1047.72 665.57 1183.09 663.55
00049153 00000097 910.65 171.52 448.32 648.21 1002.75 434.28 1192.67 429.99 1086.11 562.16 1039.86 666.18 1188.64 661.93
00049154 00000098 911.65 169.43 448.34 646.24 1000.22 434.21 1193.51 429.84 1083.26 562.90 1037.08 663.29 1193.61 658.55
00049155 00000099 913.64 168.77 447.75 642.44 1000.83 432.75 1193.97 430.83 1082.50 562.46 1036.88 661.45 1192.12 658.59
00049156 00000100 914.66 168.07 446.67 643.50 1001.29 431.73 1194.04 430.13 1082.70 561.23 1036.90 661.31 1191.93 658.65
00049157 00000101 914.79 167.45 448.03 645.77 1001.63 430.65 1194.02 427.33 1083.39 560.29 1039.26 662.61 1193.11 658.57
00049158 00000102 915.00 166.63 447.42 643.28 1002.36 430.68 1194.99 427.40 1084.20 558.87 1040.15 661.97 1192.88 657.92
00049159 00000103 913.02 166.95 447.61 639.95 999.79 430.41 1192.81 426.33 1082.01 558.76 1038.09 661.32 1191.14 656.66
00049160 00000104 912.76 166.92 447.27 643.68 998.71 430.27 1192.47 425.99 1081.25 558.73 1035.27 661.05 1191.43 656.37
00049161 00000105 911.21 167.86 449.32 645.07 998.39 430.44 1190.51 425.57 1079.53 556.97 1032.44 656.43 1191.80 651.21
00049162 00000106 908.06 166.21 449.44 642.30 995.59 430.38 1185.79 424.14 1075.68 555.83 1030.28 654.17 1189.22 647.74
00049163 00000107 907.87 166.25 448.31 648.15 995.47 429.51 1184.84 423.09 1075.27 555.21 1028.98 656.75 1187.94 650.31
00049164 00000108 907.57 164.88 447.43 655.11 995.98 429.87 1182.84 421.59 1075.62 555.14 1035.09 666.97 1184.85 659.10
00049165 00000109 906.11 158.78 454.23 674.89 1001.01 425.83 1181.83 417.61 1075.93 557.04 1039.25 665.46 1180.85 658.80
00049166 00000110 905.00 158.36 453.98 667.42 997.79 425.02 1180.72 416.72 1072.57 555.13 1035.56 661.08 1178.40 654.32
00049167 00000111 903.90 153.18 455.96 662.55 994.16 420.01 1179.94 411.19 1067.56 544.64 1029.98 653.37 1175.81 646.03
00049168 00000112 905.67 154.08 448.91 639.90 989.01 415.26 1178.34 408.06 1065.34 536.50 1026.47 647.66 1178.28 640.28
00049169 00000113 914.79 156.80 450.60 639.58 1001.87 418.19 1192.55 414.16 1079.50 540.58 1040.20 650.94 1190.01 646.11
00049170 00000114 928.48 157.92 448.06 661.93 1020.74 426.03 1217.49 419.50 1110.55 557.15 1056.40 664.40 1205.28 660.05
00049171 00000115 944.05 164.78 442.04 665.83 1039.15 436.47 1230.94 433.12 1127.37 567.34 1071.25 671.93 1220.81 670.73
00049172 00000116 949.43 168.06 441.01 654.80 1046.02 436.44 1240.37 435.12 1135.41 567.13 1074.12 666.55 1231.59 666.73
00049173 00000117 945.37 169.41 441.92 650.71 1046.38 435.07 1243.31 437.02 1137.08 568.32 1069.66 662.76 1228.92 665.82
00049174 00000118 939.16 166.55 443.72 653.09 1041.50 433.28 1239.87 436.41 1131.61 567.36 1062.74 662.93 1217.91 667.17
00049175 00000119 931.10 167.37 442.15 649.52 1033.89 430.62 1230.76 432.97 1123.93 564.44 1060.55 662.51 1204.68 666.17
00049176 00000120 927.97 160.19 444.01 651.37 1029.12 420.81 1226.42 420.03 1121.16 551.79 1057.88 657.70 1200.18 658.44
00049177 00000121 931.60 157.98 444.53 656.92 1035.77 414.50 1231.88 416.51 1127.52 542.76 1058.86 653.40 1201.59 656.53
00049178 00000122 937.81 155.70 444.78 662.64 1045.81 413.78 1243.41 420.20 1138.76 541.66 1061.68 647.83 1215.41 654.44
00049179 00000123 944.09 159.88 442.09 664.58 1058.56 418.51 1253.44 429.34 1151.50 548.63 1066.86 651.72 1221.88 662.49
00049180 00000124 952.89 164.11 438.55 649.06 1065.51 422.82 1262.28 430.57 1160.65 552.69 1076.98 650.84 1240.25 658.53
00049181 00000125 957.65 168.13 443.13 637.74 1073.17 422.14 1269.70 429.75 1169.58 550.91 1087.24 646.45 1249.74 653.57
00049182 00000126 964.55 170.06 443.94 635.17 1082.30 422.56 1279.38 431.38 1179.79 549.10 1095.52 645.19 1261.82 652.53
00049183 00000127 971.99 171.03 448.00 646.50 1093.73 424.53 1292.26 436.77 1193.41 553.33 1107.38 653.07 1272.51 662.86
00049184 00000128 980.99 174.49 450.86 668.82 1116.00 424.97 1313.80 444.06 1217.21 564.58 1119.38 668.00 1274.97 680.98
00049185 00000129 990.59 170.10 444.46 664.26 1129.45 432.11 1325.22 456.56 1224.53 561.01 1121.50 655.76 1284.74 676.94
00049186 00000130 985.57 167.90 450.37 660.48 1125.39 434.16 1322.82 452.94 1222.96 559.95 1128.41 656.06 1292.72 670.41
00049187 00000131 983.75 164.94 451.57 662.56 1121.24 428.13 1319.82 445.76 1220.86 555.96 1127.63 654.98 1291.68 668.30
00049188 00000132 989.52 167.21 445.63 663.17 1123.88 428.12 1318.83 448.82 1218.55 561.26 1122.19 653.39 1281.65 671.57
00049189 00000133 988.01 174.05 447.69 660.11 1118.31 434.43 1314.73 453.11 1212.59 571.63 1123.03 663.90 1277.24 680.36
00049190 00000134 978.76 179.05 452.80 668.60 1106.19 438.73 1304.53 451.99 1206.98 575.61 1119.50 678.09 1272.88 686.78
00049191 00000135 974.13 183.76 450.40 658.61 1093.29 435.84 1295.94 449.33 1194.82 570.22 1108.85 675.66 1264.94 685.03
00049192 00000136 970.36 177.26 445.93 648.09 1084.45 433.29 1282.16 440.90 1181.09 563.30 1103.00 666.30 1260.49 672.80
00049193 00000137 966.36 175.39 439.84 639.59 1074.78 433.79 1267.24 441.48 1166.32 562.00 1092.74 662.87 1243.87 670.08
00049194 00000138 958.46 176.71 440.18 638.51 1064.05 437.32 1258.07 443.43 1154.48 565.19 1082.85 664.59 1235.10 670.97
00049195 00000139 950.83 180.73 440.49 637.83 1047.05 443.19 1244.64 450.01 1133.36 579.68 1066.96 673.16 1217.18 680.21
00049196 00000140 942.77 183.06 437.49 641.95 1033.23 449.44 1230.63 453.65 1118.64 587.33 1057.49 681.10 1201.55 686.20
00049197 00000141 934.14 179.66 442.22 649.19 1024.53 448.41 1220.62 451.10 1108.39 583.52 1051.35 678.54 1196.64 682.27
00049198 00000142 929.60 174.82 445.81 649.28 1019.87 445.67 1217.87 444.18 1104.88 576.67 1049.84 674.39 1199.67 674.58
00049199 00000143 927.16 170.06 447.42 647.19 1016.47 442.89 1215.22 438.15 1102.96 571.04 1048.31 668.32 1201.93 665.50
00049200 00000144 925.19 165.80 447.20 644.96 1011.98 437.45 1211.26 434.73 1096.11 568.34 1043.05 663.65 1197.47 662.04
00049201 00000145 921.21 165.27 446.42 641.00 1008.23 434.90 1203.83 432.18 1089.45 565.54 1038.20 658.17 1191.23 656.19
00049202 00000146 918.25 171.51 442.59 632.01 1002.41 430.66 1196.10 432.03 1079.48 559.62 1034.14 657.85 1188.12 657.73
00049203 00000147 913.97 170.79 443.74 643.28 999.57 429.25 1191.81 428.38 1077.26 556.81 1031.21 661.56 1184.83 659.79
00049204 00000148 911.53 170.68 441.95 650.73 997.91 429.13 1186.14 425.37 1076.46 557.18 1031.62 666.26 1183.39 662.25
00049205 00000149 907.30 162.53 449.29 654.93 994.88 426.54 1184.12 421.73 1069.78 557.05 1023.94 656.73 1177.00 653.03
00049206 00000150 903.88 165.67 444.51 632.97 989.93 427.27 1177.82 423.58 1067.56 549.86 1020.13 650.57 1177.64 646.59
00049207 00000151 899.82 162.90 444.89 631.83 987.59 425.17 1176.17 422.22 1066.07 546.40 1015.44 646.22 1175.27 642.83
00049208 00000152 899.38 162.41 444.44 642.21 985.88 422.93 1173.95 419.41 1063.76 545.28 1015.26 650.13 1174.24 646.57
00049209 00000153 898.76 161.87 444.15 645.56 984.61 422.77 1173.12 418.95 1062.71 546.31 1014.70 653.12 1172.40 649.44
00049210 00000154 897.97 160.73 444.60 641.11 983.49 423.10 1171.24 418.86 1060.68 544.72 1014.42 652.24 1167.84 648.42
00049211 00000155 895.21 160.54 447.24 626.98 981.05 421.51 1170.19 416.72 1060.81 542.99 1015.34 644.12 1165.94 639.57
00049212 00000156 893.62 157.35 448.32 635.27 979.76 419.34 1167.99 413.48 1058.85 540.24 1013.66 645.37 1163.15 640.24
00049213 00000157 895.65 159.79 448.96 639.76 979.94 422.21 1167.24 411.29 1060.31 541.51 1022.94 654.15 1168.68 644.83
00049214 00000158 898.79 163.38 447.38 645.28 985.40 425.04 1171.42 417.22 1064.23 547.54 1022.87 655.69 1175.92 648.63
00049215 00000159 901.04 166.80 448.04 640.56 989.22 432.25 1176.14 424.56 1069.15 556.51 1025.77 656.82 1182.15 649.57
00049216 00000160 903.74 171.25 450.58 643.56 993.43 439.02 1181.77 429.39 1076.52 563.91 1032.66 662.66 1189.48 653.66
00049217 00000161 902.01 171.96 455.49 646.90 995.35 440.73 1184.47 428.07 1082.42 565.64 1039.05 666.35 1194.80 654.87
00049218 00000162 898.78 172.14 455.71 641.15 993.88 440.16 1181.34 424.27 1083.42 564.16 1041.59 664.56 1194.96 650.65
00049219 00000163 898.23 171.57 457.83 642.40 994.79 439.79 1181.28 421.14 1085.67 562.84 1047.03 665.39 1197.97 649.25
00049220 00000164 897.76 171.71 457.12 642.86 996.98 443.03 1182.67 424.17 1089.57 565.09 1050.38 669.41 1196.39 653.35
