Video ID: 	U0Nkvp8nULw
H: 	1080
W: 	1920
FPS: 	25.0

FRAME INDEX X0 Y0 W H [Landmarks (5 Points)]

00029093 00000000 794.04 154.29 374.36 606.96 858.69 431.72 1003.06 419.69 921.36 550.75 917.25 632.75 1038.38 620.66
00029094 00000001 790.91 155.56 373.63 604.31 854.81 433.00 997.31 421.64 916.10 550.08 913.02 633.31 1032.85 621.92
00029095 00000002 789.16 150.75 373.72 604.82 852.97 427.38 997.62 418.53 914.30 547.78 908.53 628.49 1031.82 618.95
00029096 00000003 788.82 144.73 374.16 608.50 851.82 422.73 994.38 410.90 911.66 539.75 907.92 623.79 1031.94 611.48
00029097 00000004 789.05 146.71 374.20 601.64 851.35 420.05 995.95 407.30 911.44 535.72 906.19 620.25 1032.34 607.42
00029098 00000005 789.27 145.09 373.67 605.70 852.48 420.32 995.74 408.47 912.63 537.74 906.47 621.00 1031.91 608.78
00029099 00000006 789.88 150.02 371.75 601.87 852.29 422.24 994.55 411.42 911.07 540.23 906.36 622.06 1030.60 610.69
00029100 00000007 788.47 147.34 372.34 605.26 852.24 422.03 994.24 410.42 912.67 539.09 906.94 621.85 1031.51 609.74
00029101 00000008 785.79 148.82 373.14 598.07 850.28 419.33 994.18 404.77 912.30 531.62 906.45 618.88 1031.92 604.51
00029102 00000009 784.40 146.47 373.30 596.04 850.29 415.28 994.84 398.48 913.09 525.31 905.92 614.09 1032.62 598.13
00029103 00000010 784.17 145.88 372.70 589.95 850.47 412.45 994.78 393.72 914.37 520.36 903.66 607.03 1032.89 590.08
00029104 00000011 790.57 141.62 364.87 590.92 851.86 407.55 998.82 390.92 915.81 505.52 902.23 594.84 1027.23 580.10
00029105 00000012 791.77 129.83 363.36 597.85 853.33 400.57 999.48 385.61 915.66 497.77 902.17 589.11 1026.12 575.71
00029106 00000013 792.48 126.87 364.27 596.00 853.87 393.81 1000.60 380.28 914.91 490.65 901.32 582.18 1027.88 570.20
00029107 00000014 794.63 121.16 361.76 593.90 855.35 388.59 1001.81 375.21 915.29 483.00 902.00 576.01 1027.11 564.69
00029108 00000015 798.16 119.97 360.59 588.76 858.93 383.62 1005.38 370.79 918.38 474.11 903.41 569.45 1029.05 558.75
00029109 00000016 803.59 115.19 357.54 580.57 866.98 375.11 1014.16 362.55 927.71 463.04 908.75 561.95 1032.13 551.84
00029110 00000017 808.34 113.53 359.22 565.89 878.56 366.72 1033.99 356.66 946.56 454.57 915.95 549.60 1044.80 541.72
00029111 DELETE   823.68 116.83 353.48 554.48 895.20 362.70 1055.29 352.29 967.61 449.70 927.44 545.45 1061.49 537.43
00029112 DELETE   840.85 116.36 349.77 548.27 916.57 354.96 1084.62 345.48 993.41 427.95 942.26 536.78 1085.42 530.27
00029113 DELETE   855.39 114.83 346.77 548.02 937.50 342.28 1107.29 337.84 1020.11 415.63 959.21 530.20 1100.17 527.49
00029114 00000021 861.14 109.15 349.17 550.93 963.26 329.57 1125.63 346.07 1051.13 408.61 975.86 513.59 1114.78 528.60
00029115 00000022 873.64 111.41 349.42 543.65 978.98 325.62 1139.93 338.77 1069.41 404.05 993.23 510.48 1129.99 522.76
00029116 00000023 880.83 108.49 346.99 533.74 990.68 323.00 1149.29 340.11 1081.35 401.15 1001.72 506.25 1134.74 521.24
00029117 00000024 885.10 112.17 349.30 527.61 998.67 323.12 1156.28 339.66 1091.25 399.81 1007.74 503.26 1139.88 517.99
00029118 00000025 888.70 113.65 350.17 527.63 1002.95 321.72 1161.13 335.41 1096.92 396.69 1012.10 502.69 1145.16 515.51
00029119 00000026 891.86 114.30 351.03 532.39 1009.58 319.30 1163.93 333.48 1102.54 395.08 1014.74 504.83 1142.06 518.92
00029120 00000027 895.10 116.94 349.44 525.06 1012.79 316.33 1169.08 333.37 1104.10 394.03 1015.10 498.85 1145.11 515.19
00029121 00000028 901.06 119.31 346.49 524.12 1020.21 312.90 1176.09 332.35 1111.05 389.65 1017.70 495.48 1149.02 514.41
00029122 00000029 903.18 117.23 347.25 524.00 1024.11 310.80 1180.18 332.62 1114.48 388.13 1021.34 493.32 1152.14 514.04
00029123 00000030 909.31 118.12 343.01 537.21 1029.75 310.62 1177.52 330.74 1112.29 386.70 1022.07 495.53 1148.62 515.23
00029124 00000031 908.75 118.50 341.72 533.21 1022.39 310.21 1171.44 330.83 1100.84 388.38 1012.74 490.55 1142.81 510.71
00029125 00000032 907.05 117.08 341.59 532.19 1015.91 310.15 1165.75 335.05 1088.84 394.39 1002.70 487.84 1135.49 510.94
00029126 00000033 906.16 113.32 340.78 530.04 1009.70 309.96 1158.78 338.63 1074.81 396.90 993.65 484.50 1126.67 510.51
00029127 00000034 905.21 112.60 341.75 528.75 1008.66 309.89 1158.31 338.66 1074.58 397.06 994.37 484.16 1128.80 509.98
00029128 00000035 906.32 113.49 343.97 528.73 1012.73 311.65 1161.43 337.95 1081.80 399.15 1000.80 486.59 1132.77 510.21
00029129 00000036 909.17 112.67 344.72 529.25 1014.36 311.81 1163.82 337.50 1084.05 397.54 1003.03 486.45 1135.29 509.59
00029130 00000037 912.16 114.32 341.56 532.67 1011.02 311.82 1158.51 336.02 1074.25 396.00 997.08 486.71 1129.20 508.81
00029131 00000038 911.88 115.20 341.17 533.70 1004.72 314.84 1149.44 337.39 1058.60 400.44 987.07 490.32 1115.72 511.70
00029132 00000039 913.71 118.09 339.53 542.64 1000.51 318.49 1147.86 343.60 1050.39 406.72 979.20 499.43 1108.94 523.10
00029133 00000040 916.02 117.79 342.07 545.77 1003.96 322.88 1154.19 350.96 1057.00 412.55 984.92 504.63 1114.16 530.62
00029134 00000041 920.83 118.86 342.29 546.55 1014.39 326.22 1166.94 355.86 1073.51 419.22 996.84 507.44 1128.68 534.41
00029135 00000042 922.76 116.58 342.77 543.12 1016.46 325.95 1169.21 356.95 1077.03 422.15 1001.12 505.13 1132.23 532.69
00029136 00000043 919.19 116.98 347.08 537.19 1010.65 323.45 1163.30 358.60 1063.75 419.80 991.06 499.41 1122.31 530.05
00029137 00000044 914.34 116.69 346.88 530.46 1001.19 323.16 1150.42 358.58 1046.75 423.24 979.59 497.35 1106.34 528.16
00029138 00000045 908.18 114.14 352.35 534.57 994.27 322.48 1144.26 358.99 1036.42 422.97 972.32 498.90 1099.24 530.43
00029139 00000046 909.73 116.46 349.16 537.41 996.62 328.11 1146.77 365.88 1039.23 427.61 973.18 502.73 1100.50 535.68
00029140 00000047 916.27 120.95 346.23 545.90 1005.85 336.27 1157.03 375.61 1052.92 431.10 983.09 510.28 1110.36 544.81
00029141 00000048 918.39 122.62 347.60 548.69 1013.06 341.98 1162.49 382.39 1063.79 439.67 990.62 515.57 1113.82 551.34
00029142 00000049 914.51 108.84 360.05 562.07 1018.95 342.39 1166.85 389.50 1072.52 451.11 993.46 520.98 1105.89 561.69
00029143 00000050 911.61 110.36 361.45 566.00 1013.08 341.90 1163.61 389.11 1063.96 451.85 986.29 523.66 1104.00 564.05
00029144 00000051 907.99 109.08 360.40 573.56 1003.59 340.79 1154.45 390.66 1048.13 453.93 973.46 527.16 1094.14 569.48
00029145 00000052 905.80 112.06 360.64 572.36 998.37 343.49 1148.93 393.73 1040.32 455.92 966.86 529.32 1088.23 571.64
00029146 00000053 911.01 116.20 357.90 576.02 1005.79 349.44 1155.79 402.98 1049.79 465.66 975.22 536.23 1094.48 581.07
00029147 00000054 917.93 124.29 354.81 575.26 1014.71 359.42 1165.32 413.37 1064.33 477.33 985.94 543.12 1103.14 588.85
00029148 00000055 919.50 125.65 358.12 580.60 1017.88 364.58 1171.15 414.47 1071.78 484.83 991.93 550.24 1111.09 592.95
00029149 00000056 919.24 131.89 356.01 580.19 1014.09 369.11 1166.55 419.84 1065.51 487.35 986.69 554.51 1103.50 597.97
00029150 00000057 916.84 132.95 355.37 585.57 1005.80 369.18 1157.87 421.78 1051.92 488.24 978.27 557.59 1094.18 602.26
00029151 00000058 914.46 140.27 352.67 573.47 997.21 374.29 1152.14 417.98 1040.62 498.79 967.58 562.88 1099.57 600.19
00029152 00000059 916.53 143.29 354.67 577.38 1000.39 379.08 1156.68 422.96 1042.97 503.29 970.79 568.16 1104.09 605.61
00029153 00000060 919.86 148.34 353.85 577.66 1010.51 383.34 1166.63 425.95 1060.19 506.92 984.97 572.48 1117.82 608.65
00029154 00000061 921.93 151.92 356.35 573.37 1015.35 385.24 1174.89 428.91 1069.70 512.13 991.02 575.29 1124.89 612.64
00029155 00000062 920.84 151.82 357.16 571.13 1012.32 386.07 1172.64 431.14 1064.02 513.35 986.80 574.27 1121.84 612.63
00029156 00000063 917.58 152.30 356.08 571.10 1003.98 387.28 1162.44 432.98 1050.13 512.47 977.21 573.14 1112.67 611.83
00029157 00000064 915.64 146.97 355.24 573.01 997.51 386.38 1155.94 433.51 1040.22 516.25 969.74 571.83 1105.47 611.37
00029158 00000065 914.71 149.81 355.90 569.19 997.56 387.15 1156.44 433.72 1040.97 516.32 970.19 572.40 1105.86 611.63
00029159 00000066 918.22 151.66 356.50 573.60 1003.82 389.72 1163.27 433.61 1051.57 517.19 978.14 576.48 1114.82 613.62
00029160 00000067 923.83 154.14 354.11 575.16 1012.41 391.76 1171.37 433.07 1064.66 521.04 990.26 581.86 1124.48 617.18
00029161 00000068 925.77 155.84 353.46 574.04 1014.06 390.83 1173.81 432.93 1065.17 522.90 991.55 583.48 1125.21 619.32
00029162 00000069 923.61 154.29 354.83 572.21 1010.17 389.81 1170.32 435.99 1057.91 520.15 983.84 578.15 1119.61 617.30
00029163 00000070 920.47 152.02 355.90 571.16 1003.30 387.01 1163.15 434.42 1047.80 514.97 976.24 574.41 1112.64 614.52
00029164 00000071 921.21 147.77 352.64 574.46 1002.35 384.96 1158.89 431.53 1044.41 511.78 975.60 571.95 1108.44 611.28
00029165 00000072 923.25 150.49 352.29 571.09 1007.04 383.36 1161.15 427.95 1049.88 507.34 981.02 571.17 1109.59 609.38
00029166 00000073 926.24 144.31 357.94 584.88 1021.24 378.14 1169.90 429.52 1064.62 499.65 990.12 564.05 1106.08 609.08
00029167 00000074 922.98 143.83 351.10 587.77 1019.58 380.09 1170.91 424.24 1073.14 506.82 991.50 580.62 1112.80 617.91
00029168 00000075 926.62 145.11 355.04 586.33 1020.22 377.91 1168.19 426.71 1065.39 498.36 992.46 566.26 1107.08 608.93
00029169 00000076 921.05 149.51 349.33 568.72 1003.39 380.56 1156.39 421.40 1046.63 503.45 977.55 569.92 1104.16 605.36
00029170 00000077 913.26 147.65 350.09 563.07 994.44 375.89 1146.77 416.29 1036.64 500.03 968.67 565.85 1096.28 600.64
00029171 00000078 910.75 139.44 348.00 569.55 986.72 375.96 1138.81 415.73 1026.79 493.43 963.41 564.50 1091.91 598.18
00029172 00000079 907.69 129.81 351.71 583.39 987.55 366.28 1139.20 412.79 1032.66 479.91 964.47 558.32 1080.62 597.35
00029173 00000080 903.60 127.40 350.07 579.54 984.34 357.91 1136.33 400.47 1028.53 466.90 962.45 554.16 1079.62 589.99
00029174 00000081 898.60 114.84 352.64 588.33 980.99 351.92 1133.17 392.35 1024.56 455.69 959.44 548.56 1078.05 582.87
00029175 00000082 902.35 114.76 351.25 579.02 984.12 345.64 1135.37 386.49 1027.75 450.75 961.63 539.31 1080.26 573.95
00029176 00000083 912.12 119.53 346.08 571.00 994.22 343.72 1144.18 383.79 1039.44 449.34 969.90 536.18 1091.26 570.39
00029177 00000084 916.38 113.03 346.69 580.86 1002.31 346.30 1151.48 384.13 1052.05 451.94 983.80 538.93 1102.97 571.38
00029178 00000085 916.46 113.25 344.95 577.29 1002.88 347.98 1152.48 386.82 1055.37 456.08 985.30 537.99 1108.17 570.71
00029179 00000086 907.61 118.82 349.52 570.48 992.94 349.30 1145.95 388.02 1043.15 456.56 970.95 537.34 1100.37 569.82
00029180 00000087 893.42 107.00 353.52 579.40 973.97 343.83 1128.68 386.14 1016.32 455.65 948.86 536.29 1077.27 571.85
00029181 00000088 886.12 111.08 345.23 563.62 962.28 347.58 1109.56 390.59 996.26 456.31 942.52 533.31 1057.51 569.86
00029182 00000089 880.40 104.92 342.77 573.13 951.85 344.81 1093.40 385.94 981.68 452.70 935.90 535.90 1045.24 570.41
00029183 00000090 878.45 104.28 339.33 584.16 945.47 344.79 1083.31 379.45 973.95 452.38 932.48 540.28 1040.62 569.47
00029184 00000091 877.95 104.82 335.49 588.36 939.28 348.51 1078.66 378.02 971.51 453.12 930.20 547.45 1037.99 572.61
00029185 00000092 873.22 107.40 337.88 588.73 934.62 352.33 1074.81 381.15 968.87 459.40 929.31 551.84 1038.46 576.20
00029186 00000093 870.32 112.03 338.42 586.63 930.54 358.77 1072.90 388.87 967.16 466.80 927.01 555.64 1038.77 580.60
00029187 00000094 865.63 118.77 338.09 584.53 925.82 366.56 1068.25 397.20 962.53 474.03 923.61 561.31 1035.03 586.62
00029188 00000095 858.62 121.17 339.27 581.15 917.39 369.23 1061.67 401.23 956.46 481.43 918.25 562.50 1032.68 588.23
00029189 00000096 855.17 121.03 337.11 581.15 911.52 371.38 1057.88 400.46 952.37 482.95 913.94 564.12 1030.78 587.49
00029190 00000097 854.71 116.42 335.79 594.36 908.92 374.35 1056.27 399.39 952.45 482.85 914.02 568.69 1031.49 589.08
00029191 00000098 854.15 118.97 335.46 595.53 907.43 376.01 1054.15 397.44 952.12 481.71 915.36 571.06 1031.62 588.91
00029192 00000099 852.70 121.24 334.49 591.64 907.34 375.34 1054.51 394.79 955.75 479.05 917.84 570.43 1033.46 586.88
00029193 00000100 850.76 118.65 336.73 595.63 908.15 374.89 1055.72 392.50 960.96 475.67 920.30 570.29 1036.26 585.50
00029194 00000101 848.34 133.15 335.42 571.87 910.00 376.62 1055.36 381.78 964.01 478.58 929.61 571.39 1042.74 576.80
00029195 00000102 847.66 136.19 335.07 566.50 911.31 377.84 1059.08 380.26 970.42 476.76 933.55 570.01 1050.16 573.10
00029196 00000103 842.18 139.42 339.17 557.16 908.45 381.09 1058.17 382.32 971.63 478.01 932.38 565.62 1053.91 567.58
00029197 00000104 830.72 135.31 346.13 564.30 899.14 387.51 1050.29 387.47 965.59 483.60 928.12 569.57 1051.93 569.93
00029198 00000105 818.31 135.72 350.90 576.80 885.96 397.11 1039.13 395.44 952.53 494.61 913.93 579.11 1042.58 578.30
00029199 00000106 810.64 148.11 350.28 579.55 880.18 407.82 1033.45 408.40 942.73 515.24 903.15 598.23 1032.78 598.47
00029200 00000107 802.85 145.11 349.39 595.06 874.58 411.21 1020.53 419.39 933.33 521.31 895.95 607.84 1014.76 614.55
00029201 00000108 795.47 144.40 350.02 599.54 865.71 410.93 1010.20 421.50 923.62 525.50 889.82 612.68 1006.47 621.00
00029202 00000109 786.62 143.80 354.29 601.70 859.12 408.79 1005.09 421.87 918.32 527.58 882.90 613.30 999.93 623.66
00029203 00000110 783.21 142.49 353.93 605.51 855.40 408.85 1000.81 423.02 913.49 528.45 877.62 614.83 993.11 626.24
00029204 00000111 782.79 145.10 351.77 606.84 853.15 410.16 997.77 422.60 908.90 527.42 876.21 617.93 990.69 627.87
00029205 00000112 783.02 141.49 350.37 607.81 852.64 409.94 997.62 421.68 908.56 525.36 876.19 616.28 992.51 625.51
00029206 00000113 783.74 140.33 350.33 600.67 852.72 406.49 1000.94 419.46 907.86 522.05 873.56 611.77 990.73 622.36
00029207 00000114 791.02 148.21 348.21 590.65 852.94 413.85 1003.43 419.10 909.12 520.85 872.80 603.83 989.68 609.17
00029208 00000115 787.84 142.76 346.40 590.86 857.01 399.67 1002.69 411.89 909.70 509.91 873.24 602.57 990.22 613.13
00029209 00000116 789.90 136.32 343.67 592.64 860.21 395.96 1006.18 408.54 913.46 502.41 873.01 597.84 988.98 609.11
00029210 00000117 799.38 138.38 337.93 578.22 857.83 392.40 1004.55 405.89 906.52 496.42 872.41 585.15 984.70 597.64
00029211 00000118 800.61 132.76 337.04 579.29 858.98 384.02 1004.12 395.66 908.07 486.49 875.58 577.91 988.60 588.68
00029212 00000119 797.77 138.08 337.13 581.26 863.43 385.25 1005.40 394.93 912.86 483.86 877.31 581.05 994.06 590.19
00029213 00000120 797.51 139.08 336.76 580.86 862.19 383.05 1003.08 390.50 911.34 479.28 878.14 580.20 993.12 587.63
00029214 00000121 798.58 130.90 337.34 586.16 857.21 376.03 999.97 382.73 904.83 473.58 876.13 574.44 989.95 581.54
00029215 00000122 796.08 127.68 339.12 580.06 854.43 373.70 1000.19 383.68 902.80 473.56 871.99 569.09 987.46 578.40
00029216 00000123 794.00 127.89 339.80 572.92 852.20 373.00 1001.68 386.03 901.09 476.27 869.11 567.04 986.18 578.43
00029217 00000124 793.79 128.39 340.33 570.96 852.44 374.67 1000.95 388.72 900.82 478.94 869.27 567.87 984.49 580.03
00029218 00000125 795.64 130.05 338.93 573.20 854.10 379.15 1001.49 394.88 901.83 484.44 869.44 570.32 984.01 583.97
00029219 00000126 798.64 134.06 337.02 585.53 855.07 390.51 1000.59 404.20 903.49 499.04 872.11 580.67 987.74 592.72
00029220 00000127 789.29 138.20 343.60 595.19 850.43 401.34 1002.12 401.09 899.03 512.72 879.23 604.19 995.69 603.78
00029221 DELETE   788.89 145.57 344.69 591.41 852.15 409.88 1004.24 409.09 904.85 524.56 883.03 612.52 999.48 610.75
00029222 00000129 791.64 144.83 342.46 594.78 858.98 407.46 1001.62 422.82 910.92 526.67 878.75 610.63 993.75 622.81
00029223 00000130 792.60 144.35 341.75 600.27 858.65 410.16 1001.64 426.90 911.42 532.82 877.26 613.38 994.30 626.19
00029224 00000131 792.21 145.29 342.38 604.93 857.74 413.65 1001.64 432.19 911.27 539.01 876.35 616.58 994.96 630.48
00029225 00000132 791.13 143.40 343.21 608.97 854.37 418.11 1001.48 437.08 910.02 543.97 874.23 620.55 996.28 634.52
00029226 00000133 788.67 145.61 345.07 608.02 851.54 424.30 1003.01 443.16 908.38 550.01 871.79 624.34 998.28 637.81
00029227 DELETE   786.85 160.45 349.93 598.53 849.43 430.29 1004.51 452.07 906.94 558.97 869.96 630.40 996.37 646.67
00029228 00000135 786.77 171.00 350.91 595.46 848.24 440.32 1003.61 463.23 904.10 567.42 868.37 637.24 993.52 655.20
00029229 00000136 787.79 171.23 349.30 605.05 846.74 444.77 1003.68 470.22 902.16 576.47 864.57 645.45 989.99 666.01
00029230 00000137 787.03 172.08 349.51 610.43 844.38 446.58 999.84 471.85 897.69 582.22 863.12 651.20 985.96 671.66
00029231 00000138 787.96 174.53 347.69 609.72 845.97 445.39 997.60 470.68 896.74 578.33 863.16 651.91 980.69 672.63
00029232 00000139 788.68 167.80 348.31 613.09 848.52 437.24 997.53 463.10 895.45 566.85 863.56 644.54 979.65 665.67
00029233 00000140 792.77 156.67 345.54 612.56 856.46 421.70 1001.94 448.58 902.81 550.37 868.11 632.18 980.43 653.82
00029234 DELETE   797.27 147.46 346.32 611.56 862.13 411.67 1007.59 436.30 907.62 536.64 870.89 619.70 987.36 639.05
CROP_BBOX: 564 0 1547 924
