Video ID: 	EmM2j1MzQC4
H: 	1080
W: 	1920
FPS: 	25.0

FRAME INDEX X0 Y0 W H [Landmarks (5 Points)]

00000678 00000000 642.08 283.33 379.98 515.77 758.26 518.66 925.85 465.24 884.92 612.88 818.61 688.52 968.15 644.08
00000679 DELETE   643.88 289.22 378.32 507.53 759.47 520.87 925.83 463.50 887.33 611.34 823.89 689.82 969.43 641.75
00000680 DELETE   643.60 285.33 380.45 509.76 761.14 517.24 927.61 458.82 889.86 606.45 827.67 689.60 970.92 640.36
00000681 DELETE   645.70 279.23 381.87 511.47 763.28 509.87 929.00 452.88 889.95 600.64 831.84 686.92 970.47 638.94
00000682 00000004 649.29 271.23 382.68 512.40 766.17 507.55 931.37 449.71 891.18 597.19 841.45 689.74 971.89 640.80
00000683 00000005 651.54 264.70 384.35 519.42 768.14 503.10 936.22 445.34 893.42 594.27 846.41 689.54 976.24 640.45
00000684 00000006 654.38 262.51 383.47 520.51 770.53 502.37 936.77 444.43 895.11 593.35 850.22 689.47 977.07 640.36
00000685 DELETE   656.62 265.06 381.45 515.02 774.39 504.52 937.71 444.51 898.62 591.92 855.09 689.35 978.27 638.69
00000686 00000008 655.81 265.25 383.86 514.92 775.83 507.92 943.48 443.34 904.84 595.86 854.12 689.33 984.65 634.79
00000687 DELETE   657.55 269.04 383.30 511.34 777.60 509.10 946.25 445.11 907.38 598.25 852.01 689.41 984.57 635.58
00000688 DELETE   659.07 267.85 386.29 511.90 778.46 509.99 947.12 443.75 909.16 598.27 855.92 690.75 988.86 635.01
00000689 00000011 664.04 261.84 387.13 512.16 781.77 506.09 951.75 439.61 911.29 590.85 860.90 685.64 994.48 629.80
00000690 00000012 670.16 255.78 384.87 513.45 788.62 502.31 957.93 435.77 920.44 579.63 868.57 682.32 1000.64 626.23
00000691 00000013 675.26 253.22 381.96 521.45 795.26 488.90 959.46 437.78 925.98 572.84 875.41 675.70 1006.09 634.33
00000692 00000014 680.06 252.16 381.24 519.88 798.91 489.64 964.32 437.43 931.13 571.45 878.43 675.41 1010.42 633.27
00000693 00000015 681.34 248.34 383.42 522.09 804.14 485.62 970.50 433.10 937.30 568.93 881.74 672.62 1012.97 630.09
00000694 00000016 684.60 245.91 383.53 516.21 810.64 484.88 981.69 433.96 943.81 569.01 890.29 660.73 1024.13 618.25
00000695 DELETE   687.48 241.92 381.90 517.03 812.69 482.33 982.21 428.98 946.23 563.25 893.12 657.75 1027.79 612.91
00000696 DELETE   691.43 239.32 380.73 520.20 815.20 479.61 983.92 425.62 948.21 561.18 892.78 654.95 1030.38 609.52
00000697 00000019 693.31 234.66 381.35 518.02 818.28 479.89 986.85 426.48 950.43 559.37 897.49 653.54 1031.71 608.34
00000698 00000020 697.04 231.12 380.98 523.00 820.53 480.61 988.68 426.05 953.21 559.35 898.99 653.54 1035.21 607.18
00000699 00000021 700.83 232.44 378.54 521.81 823.77 479.78 989.14 425.67 955.91 558.26 903.30 655.44 1033.87 609.66
00000700 00000022 704.69 228.42 376.59 516.74 828.02 477.90 991.43 421.60 959.55 556.11 910.62 654.99 1035.47 607.26
00000701 00000023 712.46 223.27 372.23 513.81 835.27 470.96 999.82 412.67 969.51 547.57 915.89 649.88 1043.79 600.36
00000702 00000024 718.83 216.18 370.79 517.57 845.71 460.96 1008.62 408.14 980.03 539.36 920.67 644.18 1048.12 598.90
00000703 00000025 730.51 215.02 368.89 533.33 854.75 455.17 1018.45 408.42 992.08 526.37 912.25 640.92 1048.92 602.89
00000704 00000026 734.11 216.90 366.37 538.45 859.03 457.52 1022.76 415.35 997.13 529.92 909.41 640.00 1052.01 606.28
00000705 DELETE   736.02 228.12 361.25 529.11 865.54 473.17 1024.72 429.66 1004.09 549.14 905.30 641.77 1052.58 608.45
00000706 DELETE   735.73 237.36 359.99 530.75 863.93 487.34 1025.84 442.26 1001.79 562.93 901.82 651.05 1054.79 616.10
00000707 DELETE   729.74 242.55 364.36 530.99 860.76 488.44 1021.61 440.74 999.22 568.59 902.29 656.55 1051.22 619.37
00000708 00000030 724.28 244.21 365.41 531.74 854.11 487.37 1013.87 439.11 992.07 568.75 897.78 656.76 1045.34 618.69
00000709 00000031 720.03 242.91 365.74 533.83 849.44 485.34 1009.94 437.69 986.77 568.52 894.14 656.78 1041.04 618.97
00000710 00000032 715.87 241.48 368.58 533.21 843.79 480.17 1006.77 434.30 980.62 564.70 893.54 655.55 1039.09 618.66
00000711 00000033 713.12 239.79 370.39 531.84 839.31 478.09 1002.60 431.65 974.43 559.42 891.97 653.59 1037.29 616.01
00000712 00000034 712.27 239.57 368.95 528.84 836.62 477.06 999.91 430.19 970.82 556.81 888.68 651.18 1035.77 613.46
00000713 00000035 712.08 236.86 367.87 529.04 835.48 474.84 998.39 426.15 970.50 553.99 886.35 648.85 1035.42 609.99
00000714 00000036 710.14 237.16 370.10 524.13 833.38 471.96 997.44 421.96 967.85 550.16 887.15 648.36 1034.84 608.16
00000715 00000037 705.76 235.43 369.31 523.13 830.49 474.03 996.34 422.86 966.80 549.19 894.33 645.93 1038.50 602.51
00000716 00000038 704.56 226.22 371.24 521.87 827.04 470.45 993.46 417.36 962.62 543.35 896.85 642.47 1038.69 597.17
00000717 00000039 704.00 223.87 374.10 515.41 826.21 468.12 991.83 413.89 961.22 539.95 904.32 642.88 1038.56 596.50
00000718 00000040 704.31 222.70 375.71 513.64 827.40 467.17 991.19 410.77 961.53 539.94 911.51 645.01 1040.37 596.67
00000719 00000041 709.40 220.50 372.90 517.41 833.67 467.72 996.58 409.64 968.28 542.10 917.36 648.10 1044.66 598.45
00000720 00000042 713.95 224.74 369.47 512.01 837.81 471.91 1001.07 411.70 973.30 548.39 924.02 653.17 1048.28 601.69
00000721 00000043 725.69 224.36 368.14 528.58 844.43 468.09 1004.83 410.34 978.58 545.68 916.50 656.32 1044.07 608.87
00000722 00000044 727.94 228.11 369.10 525.97 847.11 473.54 1010.14 415.42 983.45 550.96 917.17 656.12 1050.87 608.43
00000723 00000045 730.91 228.97 372.17 527.29 849.63 476.35 1015.40 415.96 988.13 553.29 914.05 654.35 1057.52 604.89
00000724 00000046 732.34 228.64 373.08 526.31 851.46 478.11 1019.44 417.85 991.27 553.84 910.60 651.34 1060.81 602.38
00000725 00000047 730.69 229.17 376.24 524.65 851.72 475.15 1019.53 414.94 991.83 550.81 909.14 648.38 1060.08 599.62
00000726 00000048 730.12 227.87 376.26 525.14 852.88 472.89 1019.37 413.28 992.75 546.22 906.74 644.82 1058.29 597.01
00000727 00000049 729.13 224.16 375.41 525.68 851.86 469.43 1018.06 411.05 991.09 539.42 906.73 642.96 1056.16 595.96
00000728 00000050 726.45 221.79 374.84 527.35 849.96 466.72 1013.45 406.42 987.99 537.18 905.29 641.49 1051.95 593.24
00000729 00000051 726.21 220.61 373.02 523.91 846.92 463.27 1010.86 402.74 984.01 534.33 905.51 640.54 1050.52 591.77
00000730 00000052 716.81 220.94 373.61 514.06 840.97 461.36 1005.17 402.29 976.49 535.96 918.17 641.11 1050.26 590.68
00000731 00000053 717.52 218.72 372.46 514.80 842.57 460.99 1004.33 402.76 977.88 534.84 926.17 644.78 1050.57 594.90
00000732 00000054 728.33 217.71 365.89 525.38 849.00 457.67 1008.88 401.74 984.99 529.50 921.81 651.04 1043.39 604.68
00000733 00000055 733.26 222.42 363.16 524.12 852.65 465.89 1013.29 410.34 988.10 535.97 926.36 655.07 1048.38 608.76
00000734 00000056 737.25 231.90 364.56 528.20 856.83 476.78 1018.82 425.08 990.60 552.60 926.36 663.39 1054.24 619.93
00000735 00000057 738.13 236.63 367.02 534.17 864.75 485.88 1030.86 434.29 1004.08 564.04 931.33 673.18 1065.42 629.55
00000736 00000058 741.20 237.24 367.57 531.92 871.13 489.41 1036.82 434.45 1014.87 565.77 935.47 673.62 1072.20 627.29
00000737 00000059 743.56 235.91 366.47 530.51 871.80 488.91 1036.09 432.57 1014.13 561.57 937.85 671.73 1072.50 624.35
00000738 00000060 743.63 230.97 366.16 530.51 868.66 485.15 1033.46 429.63 1008.86 554.89 937.09 666.52 1071.77 619.76
00000739 00000061 742.95 226.94 366.90 527.45 865.65 480.53 1032.36 422.24 1006.52 548.98 932.23 660.09 1070.00 611.80
00000740 00000062 743.95 219.85 365.22 526.45 864.58 472.76 1033.67 417.69 1004.20 539.80 930.79 654.16 1067.21 608.59
00000741 00000063 742.74 218.53 368.04 525.62 863.21 468.95 1031.53 414.32 1002.41 534.95 932.09 653.05 1065.89 607.58
00000742 00000064 741.38 218.85 373.54 526.39 862.53 470.06 1033.25 412.00 1004.17 535.01 929.63 651.06 1070.39 603.15
00000743 00000065 743.61 222.76 373.10 523.84 863.89 474.98 1033.45 414.91 1005.14 541.02 928.08 651.65 1071.43 602.61
00000744 00000066 741.85 227.61 374.82 526.86 863.79 480.60 1033.50 420.50 1005.60 551.66 927.02 654.49 1074.23 605.37
00000745 00000067 742.40 228.24 377.35 528.45 865.73 486.30 1034.22 423.30 1008.18 555.64 927.92 656.62 1076.70 605.33
00000746 00000068 746.51 228.09 374.53 524.39 868.80 484.46 1035.46 424.11 1007.06 553.65 934.90 659.74 1073.54 610.28
00000747 00000069 752.00 233.02 376.11 519.82 877.84 471.13 1037.84 424.70 1008.69 548.90 942.43 647.87 1074.61 609.59
00000748 00000070 753.58 231.04 373.99 516.20 879.43 468.93 1039.58 421.23 1010.80 547.16 946.05 646.32 1076.72 607.37
00000749 00000071 756.40 233.04 374.59 514.39 880.52 466.64 1041.77 418.85 1012.69 542.87 946.53 643.40 1079.35 604.28
00000750 00000072 756.01 227.88 370.79 515.44 878.20 465.29 1039.18 416.31 1011.04 537.21 944.28 640.15 1081.22 600.06
00000751 00000073 754.98 224.98 370.33 515.29 878.18 461.79 1038.34 413.01 1011.01 531.51 944.90 638.10 1080.76 598.34
00000752 00000074 754.77 224.22 369.77 516.41 879.77 458.87 1037.93 412.60 1010.01 529.06 944.63 635.87 1078.33 597.77
00000753 00000075 755.31 223.35 367.01 514.73 878.84 458.27 1036.26 412.62 1008.96 528.54 944.30 636.86 1074.20 599.80
00000754 00000076 752.97 224.16 365.93 514.53 877.21 458.02 1035.61 412.78 1007.16 529.89 946.85 642.18 1071.05 605.56
00000755 00000077 744.58 215.77 368.56 523.54 864.57 464.76 1036.45 413.31 1005.31 530.16 932.15 650.18 1068.30 607.38
00000756 00000078 741.20 215.87 366.88 525.80 861.64 464.56 1032.68 413.38 1001.74 532.28 927.64 650.15 1063.88 607.52
00000757 00000079 736.96 219.98 366.32 522.16 860.30 462.14 1027.67 413.42 998.97 532.25 925.20 649.54 1056.51 608.94
00000758 00000080 732.80 219.40 368.03 519.19 858.25 459.54 1023.66 409.65 997.04 529.88 923.67 648.18 1050.63 606.78
00000759 00000081 730.11 218.91 369.77 519.49 854.95 459.21 1018.42 403.88 994.36 529.24 918.73 644.59 1050.61 599.41
00000760 00000082 724.39 222.48 376.67 512.50 850.69 459.15 1016.56 401.30 989.23 529.12 923.33 637.84 1060.04 588.45
00000761 00000083 727.02 222.00 377.66 514.19 851.84 456.53 1016.68 399.92 988.36 525.36 921.98 634.10 1060.42 585.81
00000762 00000084 729.67 221.07 380.29 511.19 855.08 455.69 1020.31 398.28 992.02 524.41 926.14 633.31 1063.62 584.24
00000763 00000085 740.18 227.77 378.29 499.16 865.80 456.40 1023.47 406.48 991.89 522.99 937.28 631.05 1068.64 590.53
00000764 00000086 749.49 225.78 373.02 507.86 876.57 458.61 1032.51 408.91 1004.62 523.64 949.50 636.14 1075.09 595.60
00000765 00000087 751.69 219.06 377.38 511.37 876.51 450.92 1046.31 405.93 1012.61 528.53 964.67 635.73 1095.50 597.76
00000766 00000088 757.88 219.81 373.64 506.14 883.68 451.21 1052.74 406.91 1019.95 530.49 966.89 635.64 1099.38 597.55
00000767 00000089 762.51 216.38 374.15 517.30 889.73 449.25 1055.89 403.53 1024.61 528.96 967.78 631.58 1100.50 592.45
00000768 00000090 767.88 210.28 369.44 526.59 896.37 448.69 1062.93 403.94 1031.71 528.81 961.79 627.34 1103.83 589.10
00000769 00000091 773.98 209.94 369.57 526.88 903.32 446.30 1069.77 400.77 1041.00 529.19 960.93 623.49 1109.32 584.73
00000770 00000092 780.14 212.78 369.38 521.27 909.92 444.10 1074.31 400.26 1048.33 527.12 964.54 620.69 1112.40 583.57
00000771 00000093 783.56 211.99 366.42 518.51 912.13 441.26 1076.73 399.46 1051.04 523.60 964.87 617.81 1113.69 582.60
00000772 00000094 785.41 207.26 365.37 521.86 913.37 439.11 1079.50 398.56 1052.91 521.54 965.23 615.34 1116.12 581.18
00000773 00000095 786.43 206.12 364.54 524.44 913.54 438.17 1079.19 398.24 1051.53 521.30 964.15 614.02 1115.96 580.35
00000774 00000096 785.04 206.44 366.25 525.10 912.16 437.36 1077.82 397.48 1050.28 521.34 962.60 613.77 1115.79 580.06
00000775 00000097 782.81 206.52 364.83 526.01 912.18 436.25 1075.21 396.50 1050.64 521.21 964.38 615.94 1111.73 582.39
00000776 00000098 782.96 202.86 361.38 525.29 914.87 437.10 1074.08 398.70 1050.99 521.88 976.21 620.48 1107.87 587.95
00000777 00000099 783.07 201.64 362.90 520.06 915.51 437.86 1077.81 399.10 1052.83 523.03 981.15 624.90 1110.44 591.67
00000778 00000100 783.57 201.67 361.59 516.37 916.59 437.06 1076.53 400.18 1051.42 523.42 985.80 628.45 1107.92 596.65
00000779 00000101 784.95 198.74 364.17 523.23 919.17 434.77 1079.62 397.16 1053.66 521.44 988.31 626.87 1109.53 594.56
00000780 00000102 788.81 205.82 365.31 519.71 925.13 440.06 1087.85 403.73 1064.17 522.57 990.67 631.67 1116.06 600.24
00000781 00000103 793.84 210.44 365.07 521.46 932.50 443.64 1095.41 409.38 1071.11 522.18 992.84 633.16 1122.54 603.55
00000782 00000104 796.17 213.96 364.74 523.15 936.68 444.38 1102.19 410.71 1078.15 522.95 986.86 629.08 1125.99 600.63
00000783 00000105 798.38 213.23 365.45 523.20 941.15 442.23 1107.94 406.75 1085.89 520.09 983.54 623.04 1129.24 594.12
00000784 00000106 799.80 211.16 362.75 525.94 942.89 438.26 1110.00 403.28 1090.02 519.95 980.39 619.59 1130.32 591.73
00000785 00000107 802.92 209.14 360.49 523.33 942.68 434.05 1111.43 400.44 1089.12 517.95 979.66 615.06 1133.16 588.50
00000786 00000108 802.55 205.94 360.41 523.47 942.42 430.56 1112.62 398.87 1090.76 515.65 975.70 611.49 1132.01 586.89
00000787 00000109 802.92 201.26 361.20 519.73 945.62 427.11 1111.73 394.62 1094.27 508.86 978.33 604.83 1130.79 579.71
00000788 00000110 806.28 197.89 359.61 515.05 954.64 422.78 1115.45 390.96 1104.73 498.29 985.81 598.05 1132.40 573.98
00000789 00000111 812.20 187.85 356.16 521.04 967.44 415.59 1124.26 385.34 1119.33 490.10 994.44 591.05 1138.01 569.02
00000790 00000112 821.19 182.89 355.28 525.65 978.82 406.08 1140.32 380.33 1131.14 486.49 1000.78 587.62 1147.83 569.48
00000791 00000113 828.10 178.00 352.83 530.76 989.64 402.24 1151.54 386.13 1138.03 486.02 1010.87 587.50 1153.26 576.73
00000792 00000114 833.14 178.53 354.45 534.49 1002.05 400.87 1159.57 393.62 1144.64 488.60 1017.02 585.93 1154.90 582.27
00000793 00000115 835.78 178.69 355.31 536.75 1007.76 400.96 1163.07 396.65 1147.07 488.86 1020.31 584.24 1157.53 582.87
00000794 00000116 835.66 177.77 356.02 538.22 1010.59 399.80 1163.83 396.84 1149.90 488.42 1021.17 582.54 1157.55 582.48
00000795 00000117 837.65 180.92 354.58 533.31 1014.05 398.82 1165.26 398.89 1150.89 488.04 1024.04 582.03 1156.35 584.17
00000796 00000118 840.54 181.94 352.54 530.87 1019.70 398.34 1166.26 400.04 1156.15 484.05 1028.43 578.13 1158.26 581.68
00000797 00000119 840.53 181.87 347.42 524.64 1019.73 399.35 1156.02 399.63 1160.81 481.82 1036.10 576.15 1152.93 578.47
00000798 00000120 842.54 186.37 345.00 520.20 1025.22 400.68 1155.45 398.87 1167.55 482.25 1041.68 576.03 1153.91 576.78
00000799 00000121 844.26 186.11 344.52 523.00 1028.30 404.85 1155.19 401.55 1169.55 483.50 1050.01 580.28 1156.03 579.52
00000800 00000122 845.78 189.71 343.37 515.29 1028.55 410.73 1156.36 403.54 1170.91 486.74 1058.62 584.14 1160.12 579.83
00000801 00000123 845.09 191.08 345.51 514.67 1028.05 415.53 1158.19 404.55 1171.58 493.64 1061.04 589.94 1161.81 582.33
00000802 00000124 846.03 195.52 344.01 511.47 1027.75 419.92 1158.39 403.99 1172.54 499.27 1062.04 595.04 1160.77 583.66
00000803 00000125 847.16 198.71 344.17 509.27 1031.13 423.19 1161.26 405.47 1176.35 506.09 1063.48 599.87 1159.53 587.12
00000804 00000126 845.69 198.96 346.53 515.62 1034.45 422.80 1164.59 407.43 1181.74 507.59 1061.23 601.39 1159.38 590.76
00000805 00000127 846.37 197.23 347.07 521.27 1040.43 403.15 1165.43 393.28 1187.83 504.92 1052.52 598.51 1161.08 591.52
00000806 00000128 847.56 196.09 346.95 522.96 1039.59 392.84 1165.56 390.86 1186.90 499.27 1040.26 589.55 1157.08 589.55
00000807 00000129 850.14 193.26 346.91 521.45 1041.64 391.26 1165.47 389.36 1188.20 496.35 1037.95 582.77 1156.51 582.86
00000808 00000130 852.18 193.97 346.17 516.33 1043.98 391.56 1167.03 389.77 1189.79 495.13 1039.74 579.48 1157.89 579.46
00000809 00000131 852.64 195.34 345.91 513.11 1046.56 389.91 1167.26 389.90 1189.27 493.81 1037.73 574.81 1155.19 576.53
00000810 00000132 847.78 197.49 349.56 512.20 1049.12 406.75 1165.77 403.78 1192.39 495.82 1038.82 574.86 1145.39 577.06
00000811 00000133 848.22 194.77 345.16 516.78 1039.76 392.09 1162.35 388.63 1181.96 493.63 1030.42 576.61 1149.70 576.09
00000812 00000134 845.09 190.00 341.91 528.92 1023.26 403.14 1158.56 392.42 1170.26 499.90 1020.84 587.28 1155.76 581.01
00000813 00000135 833.41 191.66 348.96 533.82 1012.21 418.09 1158.82 409.42 1148.03 506.22 1011.81 592.92 1148.19 589.14
00000814 00000136 815.11 196.44 357.08 520.00 973.51 426.09 1130.60 401.31 1117.73 504.13 997.56 602.95 1133.76 584.82
00000815 00000137 800.21 193.08 358.52 521.60 932.12 424.36 1102.37 405.88 1064.22 515.30 966.80 603.48 1113.63 589.06
00000816 00000138 783.72 190.48 358.86 529.60 904.48 423.76 1075.59 404.66 1028.64 520.91 944.26 606.53 1091.98 590.83
00000817 00000139 779.16 195.89 361.41 536.24 892.37 422.34 1059.48 411.95 1002.48 525.15 929.10 611.44 1067.09 603.04
00000818 00000140 778.73 197.55 362.28 540.96 886.23 421.44 1054.96 417.57 986.74 531.00 915.19 609.79 1058.19 606.73
00000819 00000141 785.21 204.36 359.67 527.00 888.67 424.82 1060.30 423.89 984.40 531.12 913.56 606.60 1059.21 606.52
00000820 00000142 797.49 213.87 357.46 518.25 903.19 427.94 1081.85 427.56 1006.36 532.29 921.19 608.62 1074.02 609.63
00000821 00000143 811.83 220.08 356.39 532.06 918.17 427.15 1096.44 432.58 1021.41 531.84 926.70 610.78 1087.20 616.95
00000822 00000144 817.00 222.37 362.91 542.95 926.92 429.60 1093.15 438.22 1025.56 535.45 924.39 610.12 1088.16 618.65
00000823 00000145 824.05 219.93 361.66 557.80 933.25 426.38 1101.47 436.31 1031.18 529.84 925.43 606.86 1097.08 616.68
00000824 00000146 829.20 217.69 360.30 555.33 940.03 424.71 1109.34 432.40 1042.69 526.87 934.90 602.91 1106.68 611.21
00000825 00000147 833.77 216.39 361.33 540.99 952.68 421.01 1128.34 429.61 1059.10 527.99 954.06 602.93 1121.31 612.11
00000826 00000148 833.62 205.85 358.18 526.14 961.77 412.58 1128.90 420.29 1069.14 517.45 953.78 589.30 1122.40 597.11
00000827 00000149 830.12 195.79 368.77 532.56 966.30 400.88 1138.44 412.97 1078.44 511.36 969.04 587.61 1127.53 598.43
00000828 00000150 837.63 191.91 364.31 532.56 972.56 400.11 1143.88 412.28 1084.51 506.91 974.47 584.72 1132.56 595.91
00000829 00000151 848.63 187.38 360.90 535.34 979.19 404.09 1153.11 414.42 1092.44 501.81 985.90 586.65 1143.75 596.28
00000830 DELETE   863.34 186.58 356.70 528.94 988.62 405.45 1158.19 415.86 1097.27 499.30 1002.27 587.68 1147.83 597.48
00000831 00000153 872.59 184.32 359.23 521.90 999.48 400.77 1167.65 412.13 1110.47 493.49 1019.38 590.36 1152.83 600.71
00000832 00000154 884.28 183.67 360.74 521.64 1007.84 400.54 1180.63 410.71 1120.54 493.16 1031.01 592.57 1165.67 602.06
00000833 00000155 892.46 180.49 365.93 523.50 1020.89 397.31 1196.13 413.58 1135.86 493.88 1038.72 589.11 1177.52 603.54
00000834 DELETE   898.78 179.92 370.22 526.16 1029.42 394.85 1209.98 410.66 1149.93 492.95 1050.22 589.03 1192.62 602.48
00000835 00000157 906.43 177.69 365.13 528.14 1035.36 390.83 1217.46 408.21 1154.21 490.54 1055.92 588.92 1198.88 603.93
CROP_BBOX: 411 0 1474 1028
