Video ID: 	9NT0ocT8u3E
H: 	1080
W: 	1920
FPS: 	60.0

FRAME INDEX X0 Y0 W H [Landmarks (5 Points)]

00011723 00000000 335.86 75.97 339.46 457.52
00011724 00000001 336.01 75.17 339.56 457.81
00011725 DELETE   336.17 74.37 339.65 458.09
00011726 00000003 336.33 73.57 339.74 458.38
00011727 00000004 336.49 72.77 339.84 458.67
00011728 00000005 336.65 71.97 339.93 458.96
00011729 00000006 640.78 143.23 559.52 781.41 731.75 512.35 933.47 462.05 802.78 631.27 815.46 771.27 974.88 727.50
00011730 00000007 647.17 150.35 552.05 764.58 724.00 503.19 924.04 456.60 790.29 619.18 809.51 767.11 960.20 727.04
00011731 00000008 650.32 151.16 547.67 766.43 722.52 500.76 921.81 455.46 784.97 616.79 804.04 763.70 958.32 724.58
00011732 00000009 649.50 161.96 548.25 743.76 718.78 503.60 924.75 451.99 783.27 614.96 789.87 759.84 961.52 718.67
00011733 00000010 649.30 144.53 547.44 765.34 720.17 498.03 917.94 452.66 779.14 613.79 797.95 756.12 956.01 716.68
00011734 00000011 649.73 149.29 546.39 753.76 719.74 495.77 917.12 451.60 778.34 611.83 797.67 751.32 955.22 712.92
00011735 00000012 649.22 147.57 544.31 751.54 719.36 493.43 916.30 450.42 778.39 611.05 797.14 748.22 955.54 710.69
00011736 00000013 648.98 143.85 543.88 754.87 718.61 493.05 916.05 449.81 777.68 611.67 797.23 747.92 958.08 709.97
00011737 00000014 646.63 139.41 545.56 759.20 717.39 493.72 917.25 449.77 779.47 612.75 796.50 748.75 959.34 710.25
00011738 00000015 647.53 141.69 546.10 758.31 717.14 496.62 916.25 453.02 777.35 616.07 795.87 749.18 958.57 711.02
00011739 00000016 647.85 147.66 546.11 758.07 716.95 498.54 917.53 456.48 777.27 619.50 794.76 750.43 958.80 713.61
00011740 00000017 648.61 157.96 544.26 748.17 715.91 501.46 918.45 460.21 777.25 623.46 793.92 752.70 958.58 716.60
00011741 00000018 645.34 152.64 545.09 753.31 712.92 503.42 915.82 462.78 775.60 626.70 791.02 755.37 955.20 719.81
00011742 00000019 641.38 152.82 546.62 752.33 709.71 504.07 913.89 463.59 773.03 627.23 786.76 754.74 951.93 719.37
00011743 00000020 637.72 155.65 547.63 747.80 707.35 504.87 913.46 463.80 772.05 626.34 781.91 753.49 948.65 717.82
00011744 00000021 635.55 160.13 546.65 743.11 704.16 504.34 911.46 462.47 770.08 626.64 779.35 752.73 947.85 716.26
00011745 00000022 633.42 164.91 548.31 733.02 703.05 502.61 910.22 460.42 770.19 623.25 778.77 749.38 946.67 712.70
00011746 00000023 630.84 160.80 550.73 737.59 702.21 499.65 909.04 457.72 769.53 619.93 778.03 748.68 944.76 712.36
00011747 00000024 629.69 159.96 551.70 736.89 702.49 498.93 909.19 456.96 770.45 618.93 778.59 747.00 945.41 710.64
00011748 00000025 628.99 157.49 554.14 739.73 702.52 497.95 908.88 456.11 769.62 618.51 778.94 746.52 947.35 709.97
00011749 00000026 628.82 154.71 552.54 742.71 703.03 497.45 910.50 455.99 771.81 618.69 779.32 745.87 948.84 709.68
00011750 00000027 628.33 154.23 553.57 746.76 702.72 498.08 910.74 457.00 771.66 619.91 778.81 747.49 948.70 711.65
00011751 00000028 628.14 157.40 551.38 745.89 703.55 501.69 912.36 459.82 773.18 622.83 779.83 750.97 950.46 714.49
00011752 00000029 626.07 153.10 554.58 750.86 702.25 502.57 913.55 461.12 773.10 624.59 779.65 756.08 949.73 719.79
00011753 00000030 623.71 148.32 556.83 760.58 701.38 503.99 912.43 462.46 773.35 627.42 779.47 759.35 950.29 722.84
00011754 00000031 623.92 154.22 556.71 756.89 701.82 504.45 911.81 463.68 772.01 627.72 780.16 760.41 948.11 724.57
00011755 00000032 622.77 152.98 557.22 759.63 700.92 503.06 911.97 461.66 771.84 626.75 779.47 761.55 949.27 725.11
00011756 00000033 621.85 145.46 558.17 769.77 700.00 501.48 910.48 459.59 769.95 625.09 779.27 762.32 947.60 725.48
00011757 00000034 626.07 153.77 554.09 760.04 702.04 500.04 911.69 457.54 770.74 621.68 780.83 760.21 947.36 723.12
00011758 00000035 624.67 152.15 554.56 755.87 702.07 496.78 911.39 454.40 773.32 618.16 782.09 757.65 946.26 720.75
00011759 00000036 627.15 146.85 553.82 763.64 703.22 495.43 910.47 452.86 772.48 616.79 784.08 757.52 946.33 720.45
00011760 00000037 630.40 150.50 551.93 756.53 705.32 495.24 911.30 451.26 773.14 615.52 786.87 757.61 946.95 719.39
00011761 00000038 633.06 148.17 551.67 760.69 707.13 493.87 911.23 450.82 773.02 613.78 788.25 756.14 947.34 718.71
00011762 00000039 639.48 149.79 548.09 757.24 709.49 493.78 911.34 451.91 772.13 614.60 789.49 755.80 945.02 719.61
00011763 00000040 639.91 149.08 548.20 759.18 711.12 494.79 913.64 452.87 775.29 616.08 792.56 759.87 947.64 723.60
00011764 00000041 640.12 149.66 548.49 762.31 713.39 494.79 915.35 454.13 777.76 617.34 794.35 759.30 949.07 724.17
00011765 00000042 639.75 142.09 550.43 773.05 715.24 495.98 916.80 455.92 779.96 618.41 796.63 761.04 951.38 726.31
00011766 00000043 639.53 145.67 550.94 773.75 715.63 496.65 918.50 456.62 780.47 619.07 795.79 762.09 951.95 727.31
00011767 00000044 640.89 144.08 548.54 777.41 715.60 496.49 917.53 457.57 778.94 619.93 793.80 762.33 950.51 728.51
00011768 00000045 641.73 144.93 548.28 776.68 715.93 496.47 918.39 457.44 779.26 619.19 793.55 762.15 950.64 728.23
00011769 00000046 640.93 144.46 550.83 779.52 715.33 494.63 917.94 455.01 778.23 617.64 793.46 760.54 952.35 726.06
00011770 00000047 643.19 146.35 552.34 780.24 716.64 494.72 917.39 452.51 777.82 614.63 795.79 758.15 956.75 721.17
00011771 00000048 641.74 141.26 553.31 786.99 715.70 492.64 915.79 450.06 776.32 612.44 794.21 755.81 956.39 718.53
00011772 00000049 642.17 147.41 550.62 776.84 715.51 491.22 914.85 448.64 775.88 611.89 793.86 751.35 958.89 713.96
00011773 00000050 641.94 151.05 550.83 772.19 715.70 490.05 914.83 448.06 777.06 612.90 794.37 749.42 961.28 712.38
00011774 00000051 641.55 151.43 551.68 768.88 715.33 490.09 914.55 448.61 776.67 613.11 794.86 749.46 959.43 712.95
00011775 00000052 640.76 149.17 552.23 769.89 715.22 491.17 915.10 450.16 777.05 615.15 794.63 749.45 959.70 713.27
00011776 00000053 640.79 145.63 550.93 769.17 715.32 492.29 915.26 452.66 776.76 616.97 794.43 750.53 958.81 715.47
00011777 00000054 640.89 147.23 550.83 767.49 715.35 493.61 915.98 454.50 777.17 619.15 793.77 750.67 959.49 715.93
00011778 00000055 642.21 149.71 548.78 761.73 715.49 496.27 916.04 456.20 777.31 621.17 795.01 753.17 959.45 717.63
00011779 00000056 642.72 150.82 548.81 757.95 715.45 497.61 916.65 457.93 777.35 621.70 794.28 752.41 957.06 717.37
00011780 00000057 641.82 150.62 549.24 754.54 715.30 497.47 917.12 458.52 778.15 621.32 793.95 750.52 955.75 716.26
00011781 00000058 641.47 150.81 548.69 753.44 715.01 496.47 916.88 457.32 778.69 620.79 793.70 748.77 955.98 714.34
00011782 00000059 641.30 148.46 550.58 755.36 714.96 494.73 916.54 456.10 777.80 618.40 791.99 745.14 956.11 711.08
00011783 00000060 641.19 153.97 549.95 747.63 714.97 493.52 916.52 455.38 777.98 617.20 792.21 742.45 956.17 708.86
00011784 00000061 641.92 156.04 549.19 745.95 715.07 491.97 917.25 454.11 778.18 616.48 791.66 740.92 956.71 707.57
00011785 00000062 642.68 151.49 547.58 750.29 716.29 494.07 917.68 454.12 780.12 615.02 792.77 741.05 958.49 705.94
00011786 00000063 641.27 153.83 547.80 748.19 718.28 495.39 920.38 454.06 781.91 615.58 794.38 742.30 959.99 706.12
00011787 00000064 641.34 150.08 546.64 753.34 717.90 497.99 921.16 451.48 781.64 616.38 794.92 746.33 962.55 705.85
00011788 00000065 642.56 148.13 546.95 756.46 720.23 496.80 921.96 452.20 783.30 614.98 795.70 744.99 962.91 706.05
00011789 00000066 643.30 148.41 547.29 758.05 721.23 495.23 922.64 452.21 782.75 614.61 794.70 744.69 962.56 707.00
00011790 00000067 642.54 149.34 548.43 756.85 719.88 497.58 922.58 452.51 783.94 616.24 795.59 745.94 963.93 706.51
00011791 00000068 641.80 147.74 550.25 755.87 720.39 499.81 923.21 454.19 786.43 616.14 796.12 745.73 963.56 705.90
00011792 00000069 643.18 145.86 550.21 754.94 721.93 499.26 922.66 455.89 786.33 615.20 796.82 744.79 961.52 706.87
00011793 00000070 645.36 149.20 549.50 751.94 723.24 497.99 923.69 457.12 786.24 614.83 796.97 743.19 960.68 707.31
00011794 00000071 648.15 147.72 550.03 753.30 725.10 497.03 925.07 457.27 787.59 612.91 797.75 741.60 961.26 706.65
00011795 00000072 651.25 149.40 549.34 752.00 726.42 496.19 924.80 456.18 787.32 612.00 799.25 740.20 961.50 705.06
00011796 00000073 653.11 149.64 548.65 751.48 727.93 494.54 925.61 454.96 787.88 610.86 799.84 739.34 961.39 704.52
00011797 00000074 653.86 147.75 547.74 752.36 729.37 493.34 925.97 452.75 789.07 607.38 800.09 739.37 958.64 703.86
00011798 00000075 654.93 144.24 548.79 754.10 730.07 492.74 926.09 451.36 789.67 606.54 801.93 739.15 959.65 702.90
00011799 00000076 648.41 146.48 560.99 749.55 723.79 489.07 934.48 447.08 796.66 607.18 797.10 744.01 967.95 708.16
00011800 00000077 649.39 147.86 560.32 748.78 725.03 489.61 934.71 446.90 797.70 606.31 798.71 743.63 969.62 707.14
00011801 00000078 651.49 143.30 559.05 753.06 726.42 488.27 935.85 445.99 798.84 606.61 800.20 742.30 971.55 706.05
00011802 00000079 652.74 142.24 556.40 754.16 728.00 487.35 936.49 446.19 800.48 606.59 801.19 741.43 971.91 706.15
00011803 00000080 653.43 144.73 558.02 752.89 729.07 487.37 937.88 446.69 801.35 607.71 802.78 741.05 973.91 706.03
00011804 00000081 653.87 145.32 558.33 751.58 729.95 486.86 939.14 446.19 802.88 608.22 804.67 740.95 975.10 705.98
00011805 00000082 655.06 150.86 557.83 745.30 730.83 487.50 940.39 446.38 804.35 607.97 805.65 740.70 975.85 705.43
00011806 00000083 655.89 146.34 559.02 752.19 731.72 487.31 941.48 446.50 804.19 607.74 805.62 740.66 977.06 705.54
00011807 00000084 656.66 147.31 557.39 750.48 732.88 486.84 942.36 446.26 805.67 607.79 806.33 740.18 977.10 705.39
00011808 00000085 657.40 141.87 557.91 756.09 734.04 485.48 943.27 446.64 805.85 608.04 806.24 739.22 977.59 705.83
00011809 00000086 658.88 145.83 557.51 752.32 735.73 485.35 944.23 447.67 806.30 608.53 807.38 738.29 977.75 705.95
00011810 00000087 659.56 143.63 558.64 754.73 737.15 485.17 945.20 447.63 806.88 608.81 808.81 737.97 979.52 705.67
00011811 00000088 660.10 145.24 558.56 753.33 737.91 485.24 946.03 447.82 808.18 609.49 810.11 738.17 981.07 705.92
00011812 00000089 661.61 147.46 557.19 751.02 738.48 484.90 947.03 447.54 809.01 609.55 810.26 737.66 981.17 705.50
00011813 00000090 663.81 148.58 556.50 750.46 739.68 484.94 947.96 447.93 809.62 609.31 811.10 737.19 981.24 705.35
00011814 00000091 664.00 152.95 557.69 745.85 740.41 484.62 949.25 448.59 810.15 609.96 811.98 736.78 981.89 705.77
00011815 00000092 666.65 155.97 556.23 741.95 741.92 484.62 950.57 449.50 810.87 610.61 812.49 735.88 982.62 705.65
00011816 00000093 666.96 155.55 557.03 742.30 742.54 484.42 951.39 449.74 811.23 610.64 812.80 735.29 983.80 705.32
00011817 00000094 666.69 155.08 556.22 742.35 742.93 484.09 951.76 449.71 812.32 610.84 812.76 734.87 983.90 705.24
00011818 00000095 666.54 154.41 556.79 743.21 743.22 483.46 952.58 450.08 812.66 611.32 812.05 734.45 984.08 705.73
00011819 00000096 667.58 154.84 557.24 742.94 743.90 483.69 953.13 450.85 812.45 611.91 812.44 734.16 984.73 705.84
00011820 00000097 667.58 153.35 556.07 744.25 744.61 483.05 952.70 450.60 812.54 611.81 812.66 733.46 985.11 705.46
00011821 00000098 667.73 154.56 555.81 742.96 744.58 483.97 952.67 450.78 812.99 612.96 813.44 734.29 986.29 705.60
00011822 00000099 667.22 153.58 556.71 744.42 744.29 484.34 953.45 451.35 813.24 613.40 813.18 734.44 986.91 705.87
00011823 00000100 667.58 153.44 556.25 744.60 744.90 484.68 953.47 451.82 813.23 613.91 813.79 734.22 987.46 705.70
00011824 00000101 667.95 149.59 556.17 748.34 745.41 484.36 953.78 452.16 813.56 613.79 813.72 733.57 987.17 705.61
00011825 00000102 667.49 147.97 556.00 750.51 745.35 484.85 954.02 452.12 814.28 613.99 813.79 734.37 987.85 705.96
00011826 00000103 668.15 149.24 555.37 748.30 745.67 484.07 954.30 451.48 814.58 614.11 814.63 734.12 988.11 705.88
00011827 00000104 668.18 147.70 555.80 751.26 745.94 483.73 954.36 451.35 814.74 614.26 814.48 734.77 988.16 706.62
00011828 00000105 668.02 146.36 556.13 752.32 745.97 483.31 954.09 450.75 814.49 613.77 815.43 735.09 987.96 706.77
00011829 00000106 668.45 149.28 556.02 749.37 745.56 483.13 954.10 450.33 814.27 614.19 815.58 735.59 988.57 707.06
00011830 00000107 668.45 150.98 555.10 747.06 746.40 483.27 954.18 450.25 815.04 613.65 816.27 735.14 988.44 706.51
00011831 00000108 668.55 149.09 555.43 747.83 746.21 482.81 953.72 450.21 814.67 613.61 816.27 734.65 987.66 706.39
00011832 00000109 668.73 151.23 555.09 744.79 746.14 482.91 953.94 450.28 814.88 613.81 816.56 734.75 987.73 706.48
00011833 00000110 668.35 152.85 555.62 742.72 745.95 483.06 953.97 450.36 814.57 614.09 817.13 734.88 988.11 706.53
00011834 00000111 668.35 151.98 555.14 743.35 746.10 482.78 954.03 450.16 814.69 613.58 816.96 734.72 987.81 706.49
00011835 00000112 668.29 153.66 555.18 741.47 746.13 483.06 954.05 450.10 815.00 613.58 817.27 734.46 988.24 705.94
00011836 00000113 667.97 152.57 555.31 742.97 746.11 483.43 954.20 450.00 815.09 613.73 817.06 734.43 988.88 705.51
00011837 00000114 668.57 154.27 554.95 740.22 746.23 483.73 953.86 450.23 815.09 613.67 817.34 733.74 988.43 704.81
00011838 00000115 668.89 156.16 554.36 738.24 746.25 483.85 953.73 450.16 815.21 613.50 817.36 733.57 988.04 704.52
00011839 00000116 668.50 153.31 555.25 740.56 746.10 483.47 954.04 449.70 815.50 613.02 817.05 733.72 988.17 704.58
00011840 00000117 668.79 153.93 554.97 739.77 746.06 483.55 953.93 449.77 815.20 613.01 816.85 733.86 988.00 704.70
00011841 00000118 668.91 154.84 554.67 738.11 745.95 483.65 954.04 449.77 815.27 612.80 816.71 733.37 988.25 704.13
00011842 00000119 669.18 154.48 554.11 737.04 745.71 483.31 954.24 449.71 815.51 612.96 816.02 733.13 988.02 704.13
00011843 00000120 668.98 153.59 554.25 737.97 745.41 483.15 954.73 449.40 815.86 613.05 815.65 733.21 988.93 704.06
00011844 00000121 668.64 153.82 554.94 738.24 745.37 483.53 954.98 448.75 816.59 612.27 815.81 733.67 989.24 703.66
00011845 00000122 669.12 152.14 554.27 740.56 746.18 482.74 955.17 448.77 816.87 612.42 816.03 732.87 989.65 703.57
00011846 00000123 668.21 151.21 555.30 741.88 745.53 482.99 955.30 448.43 816.97 612.68 816.51 734.00 990.42 704.10
00011847 00000124 668.04 149.76 554.96 744.11 746.04 482.94 955.48 448.50 817.28 612.66 816.45 734.27 990.66 704.45
00011848 00000125 668.26 150.37 554.99 744.31 745.60 483.63 955.03 448.67 816.86 612.80 816.43 734.94 990.79 704.64
00011849 00000126 668.23 151.99 554.68 743.97 745.90 483.92 955.05 449.02 816.63 613.03 816.66 735.36 990.84 705.12
00011850 00000127 668.79 152.41 554.54 744.02 746.14 484.06 955.12 449.55 816.24 613.52 816.68 735.71 991.02 705.73
00011851 00000128 668.14 148.97 555.10 749.83 745.97 483.85 955.35 449.88 815.92 614.12 815.22 735.90 991.64 706.27
00011852 00000129 667.63 150.31 554.72 748.58 745.62 484.27 955.47 450.03 816.22 614.05 815.00 736.34 991.10 706.57
00011853 00000130 667.78 150.78 555.46 750.76 745.57 484.81 954.74 450.21 815.11 614.54 815.48 738.12 991.58 707.91
00011854 00000131 667.26 147.97 555.80 754.46 744.94 484.69 955.45 449.56 815.28 614.65 814.53 739.18 992.26 708.53
00011855 00000132 664.22 152.46 553.25 750.01 743.60 490.70 954.84 447.44 817.14 614.83 817.06 742.40 991.89 707.36
00011856 00000133 667.32 144.96 556.49 761.24 745.89 486.47 954.75 450.08 815.21 615.48 816.76 741.68 994.69 709.70
00011857 00000134 664.35 147.92 553.74 754.26 744.62 491.18 955.32 448.67 817.19 614.94 818.67 741.38 992.91 706.93
00011858 00000135 663.77 148.15 554.39 754.23 744.37 491.29 955.27 448.65 817.52 615.87 819.35 741.48 993.97 706.83
00011859 00000136 663.97 143.91 554.13 756.67 743.71 490.98 954.72 448.53 816.64 615.95 818.78 741.59 993.87 707.30
00011860 00000137 664.17 144.93 553.39 752.73 743.13 491.18 954.14 448.44 815.62 615.34 817.70 741.17 992.63 706.78
00011861 00000138 664.66 147.41 552.74 748.25 743.16 490.14 953.85 447.92 814.93 614.97 817.93 740.25 991.65 706.38
00011862 00000139 666.17 142.43 557.82 755.57 743.56 484.98 954.61 449.47 815.12 614.92 815.30 739.57 992.43 708.48
00011863 00000140 666.52 143.01 556.87 754.85 743.49 485.22 954.71 449.59 814.98 614.93 814.87 740.06 992.52 708.88
00011864 00000141 666.35 139.83 557.37 755.37 742.95 484.70 954.27 449.14 814.52 614.72 814.55 739.25 992.16 708.10
00011865 00000142 666.03 139.70 556.95 757.45 742.90 484.63 953.55 449.68 813.33 614.46 813.30 739.00 991.63 708.38
00011866 00000143 665.54 139.78 557.42 756.92 742.97 485.51 953.60 450.21 813.71 614.15 813.40 738.88 991.38 707.99
00011867 00000144 665.97 143.25 556.80 753.46 742.74 486.42 953.35 451.05 813.68 614.59 812.93 738.97 991.55 707.99
00011868 00000145 666.17 148.43 548.75 745.37 740.93 498.40 953.37 452.43 813.19 614.62 813.97 740.84 990.54 703.73
00011869 00000146 662.02 147.39 559.41 752.31 739.58 494.70 952.63 452.44 813.62 618.06 815.86 746.38 992.06 709.54
00011870 00000147 661.15 138.95 559.15 761.03 737.95 491.81 948.65 450.65 809.73 617.85 815.36 747.03 990.35 710.89
00011871 00000148 659.94 134.02 560.70 768.06 737.88 490.87 948.70 450.57 809.92 617.26 813.90 747.73 989.27 712.34
00011872 00000149 660.26 135.55 560.42 766.73 737.34 491.45 948.14 450.82 809.20 617.70 814.17 748.08 988.94 712.41
00011873 00000150 659.66 130.11 560.66 771.73 736.69 491.28 950.40 450.03 809.95 618.17 812.93 748.50 990.42 712.29
00011874 00000151 659.37 134.36 560.62 766.56 738.06 492.88 951.48 452.36 811.22 617.67 812.85 747.06 989.96 711.55
00011875 00000152 659.88 140.57 560.60 761.01 738.88 493.64 953.09 454.30 812.26 616.27 811.52 745.20 989.95 710.79
00011876 00000153 659.48 138.58 559.61 762.03 738.10 490.97 952.84 451.51 812.38 616.16 811.61 744.77 990.22 710.32
00011877 00000154 659.39 136.90 559.46 765.43 738.29 489.73 952.55 450.57 812.44 615.75 810.92 744.02 990.35 709.82
00011878 00000155 660.74 140.22 558.23 762.83 738.35 490.20 952.91 451.68 812.36 618.07 810.78 744.63 993.12 710.65
00011879 00000156 659.70 140.42 557.93 763.40 738.36 489.65 952.90 452.10 813.16 619.98 810.51 744.95 994.27 711.68
00011880 00000157 659.46 140.92 558.15 764.97 739.15 489.24 953.18 452.38 813.80 619.46 810.49 745.55 993.09 713.10
00011881 00000158 657.93 136.68 558.69 770.39 739.85 488.40 953.50 452.15 815.19 619.23 811.49 746.64 991.74 714.90
00011882 00000159 657.67 137.19 558.36 775.43 740.68 488.24 952.46 450.81 815.63 618.90 812.79 747.01 993.65 714.11
00011883 00000160 656.34 139.77 553.78 774.09 739.92 488.57 953.44 444.42 820.56 616.13 818.47 744.83 996.02 708.44
00011884 00000161 657.32 138.27 550.81 776.17 742.07 485.36 953.62 440.98 821.23 611.01 819.97 743.79 994.62 707.57
00011885 00000162 655.44 136.41 552.61 778.01 743.37 482.11 952.80 438.75 820.03 605.01 821.80 742.17 992.39 707.02
00011886 00000163 656.80 146.86 548.32 764.64 742.52 481.83 952.26 435.23 820.67 601.12 821.67 739.45 993.58 701.68
00011887 00000164 658.03 143.21 547.59 764.92 742.60 478.67 951.33 431.08 818.42 597.56 822.34 735.99 995.45 697.54
00011888 00000165 660.22 144.96 544.75 759.72 743.01 477.34 951.07 429.43 818.79 593.99 821.85 733.62 993.80 695.11
00011889 00000166 660.67 137.18 549.24 763.10 742.20 475.81 949.85 429.75 814.83 590.18 817.04 732.77 992.20 693.10
00011890 00000167 661.79 137.62 549.24 759.93 741.74 476.18 950.37 430.31 814.71 591.00 816.49 733.33 991.15 693.95
00011891 00000168 661.34 141.02 551.03 756.66 740.74 485.62 950.35 440.96 809.21 604.21 821.21 737.31 992.30 697.21
00011892 00000169 661.51 142.82 550.59 752.36 739.33 489.72 949.10 444.19 807.81 608.59 820.15 740.18 991.92 699.24
00011893 00000170 662.07 138.71 552.33 753.65 739.30 480.97 950.31 439.58 812.91 602.52 813.70 737.08 988.49 701.27
00011894 00000171 659.68 142.26 552.07 750.74 739.39 490.82 948.92 448.43 808.84 615.09 819.74 742.83 988.54 704.37
00011895 00000172 660.89 134.82 554.22 756.64 737.88 482.20 950.03 442.13 813.14 605.69 811.43 738.94 985.24 704.48
00011896 00000173 345.96 47.06 346.55 475.74
00011897 00000174 658.85 137.21 554.68 752.91 736.64 481.72 951.22 442.28 812.97 605.01 809.15 738.94 984.16 705.02
00011898 00000175 349.22 46.62 346.91 476.58
00011899 00000176 350.85 46.39 347.09 477.00
