Video ID: 	8raFJwf8u54
H: 	1080
W: 	1920
FPS: 	25.0

FRAME INDEX X0 Y0 W H [Landmarks (5 Points)]

00010006 00000000 725.51 119.96 483.36 689.54 969.93 386.03 1159.30 388.87 1131.90 516.54 985.16 636.15 1142.42 638.26
00010007 DELETE   729.11 120.48 480.75 689.25 970.17 389.97 1160.97 390.11 1133.52 519.27 989.65 639.45 1147.20 639.27
00010008 DELETE   730.17 122.08 485.86 688.38 976.80 402.67 1163.08 396.14 1143.25 530.33 994.49 648.59 1149.51 643.47
00010009 DELETE   745.33 127.07 478.37 689.53 993.75 408.06 1174.23 401.40 1159.46 536.97 1011.34 656.69 1161.02 651.64
00010010 00000004 751.96 130.34 477.03 688.28 1002.16 411.93 1179.81 402.85 1169.83 541.21 1017.54 660.73 1166.53 654.13
00010011 DELETE   749.89 132.05 480.59 688.14 998.30 412.94 1179.89 405.46 1165.67 543.48 1011.70 661.57 1164.78 656.44
00010012 DELETE   742.21 129.28 487.19 694.65 988.97 412.30 1175.57 405.36 1156.73 545.18 1001.86 661.93 1158.90 657.23
00010013 00000007 739.78 127.97 486.78 697.04 982.96 411.93 1169.67 405.65 1148.16 545.72 1000.40 664.04 1153.16 659.71
00010014 00000008 741.59 127.86 486.71 695.61 983.29 417.50 1172.68 407.65 1148.94 549.03 1011.97 669.51 1161.85 661.42
00010015 DELETE   747.34 134.10 482.52 684.38 990.05 424.33 1178.25 418.33 1150.84 548.79 1025.41 671.09 1166.69 665.55
00010016 DELETE   750.06 136.05 477.40 685.89 990.69 428.50 1178.83 418.39 1152.62 553.28 1031.32 678.12 1168.59 669.40
00010017 DELETE   747.06 138.07 477.57 687.69 986.98 426.01 1171.76 415.34 1147.29 552.84 1029.86 679.85 1163.57 671.03
00010018 00000012 741.89 135.93 479.36 691.03 978.34 424.47 1164.82 415.03 1137.96 552.06 1021.06 678.14 1157.48 670.24
00010019 DELETE   743.16 135.78 478.50 693.51 979.47 424.20 1164.99 413.64 1140.16 552.75 1020.81 678.72 1158.65 669.80
00010020 DELETE   746.29 139.40 477.72 693.13 987.50 427.43 1171.09 414.74 1152.27 556.53 1023.01 681.08 1163.16 670.71
00010021 00000015 753.87 145.93 474.51 686.39 996.11 430.22 1177.93 418.77 1158.83 559.52 1028.40 681.40 1167.66 672.38
00010022 00000016 753.15 147.90 475.65 685.38 995.27 430.66 1176.22 419.24 1158.32 559.04 1026.32 680.76 1166.63 671.84
00010023 00000017 745.87 144.29 480.65 687.82 981.16 428.92 1170.85 418.88 1144.18 559.52 1011.11 679.46 1159.67 671.48
00010024 00000018 739.31 143.37 483.73 688.06 970.26 427.33 1165.96 418.41 1134.71 556.89 1005.23 678.61 1156.37 671.19
00010025 00000019 740.48 143.24 482.93 690.48 973.52 428.06 1167.33 417.67 1138.44 556.54 1011.58 681.47 1160.02 672.65
00010026 00000020 747.34 146.72 478.72 690.98 987.68 431.52 1172.48 419.10 1152.36 559.43 1021.12 683.57 1163.59 673.83
00010027 00000021 753.65 152.60 479.04 691.12 999.00 432.33 1178.13 419.86 1164.51 561.88 1023.75 682.96 1166.92 674.03
00010028 00000022 752.30 155.64 482.10 688.51 999.28 432.42 1179.02 423.12 1164.72 563.13 1012.07 678.11 1160.74 672.52
00010029 00000023 745.81 155.91 484.92 686.72 988.99 434.41 1175.19 424.79 1156.06 566.82 996.15 675.28 1155.13 669.82
00010030 00000024 740.89 154.78 487.81 686.73 975.66 433.68 1169.16 426.69 1141.73 566.29 978.04 669.59 1148.42 666.25
00010031 00000025 738.64 153.80 486.85 683.67 970.25 434.81 1164.17 426.81 1135.58 565.09 973.03 666.92 1145.41 662.82
00010032 00000026 739.90 154.12 487.75 680.37 972.88 433.83 1167.89 424.29 1139.06 563.33 976.49 665.50 1148.36 660.13
00010033 00000027 743.58 156.98 486.31 677.60 983.82 435.17 1173.00 423.37 1150.98 564.76 987.29 667.77 1152.90 660.79
00010034 00000028 746.27 153.62 483.90 682.82 992.27 431.22 1176.50 422.20 1159.07 562.21 995.96 669.76 1154.84 664.84
00010035 00000029 744.70 150.93 484.21 686.04 992.36 428.37 1175.28 420.27 1157.75 561.64 996.45 668.87 1153.90 664.46
00010036 00000030 741.73 150.17 484.72 688.28 984.78 428.16 1171.54 421.47 1150.33 561.89 988.44 667.77 1150.38 664.47
00010037 00000031 734.35 147.28 486.96 690.12 971.63 427.57 1163.34 421.91 1137.66 559.50 976.57 665.50 1142.97 662.77
00010038 00000032 726.85 163.34 491.55 674.68 957.70 419.67 1163.64 416.85 1123.48 562.48 968.35 669.13 1141.69 666.96
00010039 00000033 724.51 162.69 490.82 676.03 955.69 419.84 1160.23 416.29 1121.09 563.19 967.27 669.91 1139.10 666.95
00010040 00000034 725.65 164.51 489.32 676.94 958.99 420.99 1161.88 415.78 1126.04 562.28 970.62 670.50 1141.95 666.28
00010041 00000035 728.68 151.56 486.11 687.57 966.70 431.05 1157.59 422.04 1137.01 558.68 975.54 667.26 1141.10 662.00
00010042 00000036 732.06 148.16 482.20 690.08 973.05 429.76 1159.30 421.07 1140.78 558.63 981.48 667.35 1141.79 662.24
00010043 00000037 730.93 147.02 482.64 691.03 973.58 428.42 1158.44 419.91 1141.42 557.61 984.29 667.32 1142.39 662.20
00010044 00000038 729.86 148.03 482.11 689.61 969.52 428.69 1154.87 420.26 1136.30 556.42 985.36 668.02 1141.67 662.68
00010045 00000039 728.24 159.12 482.66 679.36 963.81 417.16 1161.08 412.83 1129.88 554.49 988.20 672.53 1146.47 667.92
00010046 00000040 727.93 157.13 482.13 681.65 962.71 415.91 1160.11 411.68 1129.17 553.60 990.35 673.91 1146.27 669.11
00010047 00000041 729.64 155.20 481.17 683.35 965.03 415.26 1160.81 411.89 1130.24 552.00 998.69 676.02 1149.27 671.27
00010048 00000042 735.52 144.81 478.68 696.03 973.26 426.91 1155.53 416.18 1136.18 553.90 1002.63 673.63 1149.10 665.41
00010049 00000043 739.91 143.75 477.31 693.20 978.14 427.46 1163.55 415.73 1143.04 556.58 1008.57 675.29 1155.15 666.17
00010050 00000044 738.88 141.88 478.44 690.42 979.39 435.47 1169.34 421.32 1147.68 555.09 1006.75 675.15 1157.12 664.22
00010051 00000045 737.28 141.41 478.55 691.34 972.48 433.30 1167.03 420.50 1141.69 553.47 997.14 671.82 1154.70 662.24
00010052 00000046 734.40 144.97 482.98 690.29 968.17 433.25 1160.21 420.81 1138.07 554.08 988.49 669.57 1149.90 660.78
00010053 00000047 734.12 146.39 485.01 689.88 967.04 433.92 1156.77 419.41 1137.94 555.77 982.57 668.19 1147.88 658.03
00010054 00000048 734.54 148.01 486.54 687.02 969.32 434.24 1159.57 419.25 1141.64 557.49 978.12 665.35 1148.11 655.28
00010055 00000049 735.33 147.43 487.67 684.42 971.80 432.72 1161.34 417.07 1143.04 557.82 979.07 663.96 1149.02 653.41
00010056 00000050 733.58 147.24 488.87 683.30 970.34 430.92 1159.97 416.54 1141.08 556.54 976.62 661.65 1147.73 652.15
00010057 00000051 729.99 147.83 491.53 679.79 965.17 431.53 1159.82 417.23 1136.25 556.68 971.51 659.76 1145.68 650.35
00010058 00000052 728.31 150.20 493.10 675.82 963.01 433.85 1159.81 418.07 1134.16 558.69 970.91 659.49 1146.09 648.85
00010059 00000053 731.15 150.81 491.80 676.55 964.93 434.24 1161.91 419.88 1136.16 559.03 973.31 661.05 1147.93 651.46
00010060 00000054 735.19 149.00 489.11 687.87 968.83 432.55 1162.94 421.35 1139.83 559.86 972.30 664.23 1147.43 657.29
00010061 00000055 733.32 146.31 490.45 702.34 967.63 428.21 1162.51 420.62 1140.21 556.76 965.82 664.79 1146.25 660.89
00010062 00000056 731.52 142.49 488.73 709.60 965.87 425.82 1158.34 419.41 1136.17 555.79 962.54 663.79 1142.71 660.69
00010063 00000057 731.63 140.30 488.74 709.28 965.82 423.56 1157.15 418.17 1134.15 553.67 964.59 661.76 1142.80 659.28
00010064 00000058 733.82 136.17 485.62 706.61 969.37 421.69 1158.04 413.64 1139.52 549.51 971.49 659.10 1146.19 654.52
00010065 00000059 734.52 135.13 483.35 697.22 974.24 420.03 1159.86 407.60 1146.55 545.79 979.38 656.72 1149.15 648.70
00010066 00000060 731.86 131.54 483.95 689.65 974.39 416.18 1160.00 403.86 1143.18 542.99 988.30 655.24 1149.10 646.43
00010067 00000061 730.86 126.08 481.08 687.80 970.00 412.13 1155.98 401.81 1134.99 537.82 993.28 654.24 1148.15 646.21
00010068 00000062 736.79 124.34 471.26 686.08 970.96 404.25 1157.99 397.69 1132.36 527.89 1004.03 653.95 1152.31 647.70
00010069 00000063 732.82 126.14 469.61 685.00 963.63 404.61 1151.34 395.84 1124.78 530.66 1001.44 657.07 1148.02 649.01
00010070 00000064 723.96 124.93 472.42 692.53 953.81 402.56 1142.09 395.91 1114.74 530.58 991.42 660.37 1138.84 653.76
00010071 00000065 717.32 127.37 472.18 690.72 942.96 402.18 1133.07 393.68 1104.03 526.51 982.79 661.57 1131.36 653.54
00010072 00000066 713.50 124.98 473.51 689.05 937.00 401.23 1129.03 390.95 1099.11 520.54 977.97 656.73 1129.29 647.05
00010073 00000067 715.12 121.47 475.32 684.16 945.63 395.37 1135.40 384.70 1113.57 507.33 988.87 646.44 1138.71 636.24
00010074 DELETE   722.24 114.86 474.75 690.74 958.93 388.88 1143.69 381.11 1126.62 501.79 1001.85 642.49 1147.58 634.44
00010075 DELETE   733.35 113.20 471.88 696.27 970.66 393.73 1155.37 384.66 1138.31 510.60 1014.96 650.90 1156.56 642.13
00010076 00000070 738.19 116.72 470.06 702.25 975.74 398.83 1159.53 393.22 1142.24 517.70 1019.61 660.08 1158.11 654.76
00010077 DELETE   727.70 116.37 477.36 708.02 969.39 408.90 1148.88 406.34 1131.35 526.23 1010.77 661.08 1148.84 658.32
00010078 DELETE   738.53 120.86 477.62 688.22 975.48 412.97 1166.84 411.34 1147.23 514.52 1028.91 650.50 1168.94 647.99
00010079 00000073 742.54 118.06 473.28 692.01 1000.96 399.42 1168.05 399.19 1161.55 517.55 1038.37 646.52 1165.24 644.79
00010080 DELETE   744.08 110.85 470.34 688.31 1005.22 386.19 1168.82 388.68 1164.93 503.79 1037.34 630.89 1164.23 631.30
00010081 DELETE   742.45 100.42 471.79 691.58 988.99 378.59 1167.36 378.33 1158.74 490.30 1032.87 622.87 1169.67 622.03
00010082 00000076 734.07 96.21 473.58 685.30 970.78 376.70 1154.23 376.77 1140.23 484.93 1023.80 621.31 1159.79 620.65
00010083 00000077 730.47 95.79 473.89 684.80 969.85 377.75 1149.10 377.05 1136.36 483.92 1026.59 620.73 1157.65 619.28
00010084 00000078 734.93 96.92 470.95 685.45 977.37 376.46 1153.49 377.09 1144.70 482.95 1033.45 620.05 1162.74 619.65
00010085 00000079 737.78 93.96 470.14 690.38 983.07 375.06 1158.37 376.22 1152.59 488.35 1033.47 622.68 1162.78 623.03
00010086 00000080 737.36 91.80 471.12 692.28 984.55 375.59 1161.22 378.87 1152.90 492.18 1031.25 624.24 1160.84 626.25
00010087 00000081 737.38 93.83 470.96 693.26 984.51 379.27 1163.91 384.07 1152.29 500.51 1023.01 627.77 1156.24 631.31
00010088 DELETE   739.96 110.71 466.87 684.97 994.65 383.52 1172.19 390.52 1157.15 509.64 1023.11 637.43 1155.08 641.86
00010089 00000083 735.70 109.02 471.18 696.20 999.19 387.43 1162.77 394.95 1155.59 520.03 1022.82 639.86 1148.63 644.95
00010090 00000084 743.32 106.92 469.12 697.28 994.90 386.22 1173.51 394.49 1162.17 510.81 1030.88 636.30 1163.34 642.52
00010091 00000085 744.07 105.58 467.08 694.21 993.34 385.80 1172.41 391.73 1162.48 508.07 1031.41 634.81 1164.61 638.96
00010092 00000086 742.29 110.41 468.18 690.94 997.63 385.01 1173.45 387.53 1163.47 506.92 1029.29 640.17 1160.78 640.81
00010093 00000087 741.92 108.34 468.24 694.49 998.38 385.21 1174.28 387.28 1165.07 509.01 1028.85 642.76 1158.71 643.38
00010094 00000088 743.64 102.19 467.86 701.73 992.60 388.83 1170.27 389.85 1162.07 510.92 1032.48 639.54 1164.00 639.92
00010095 00000089 742.77 105.35 471.63 707.74 990.90 391.07 1173.52 393.44 1164.57 515.81 1023.38 644.37 1164.00 646.01
00010096 00000090 733.99 112.23 478.71 713.25 995.86 393.08 1165.76 393.18 1162.77 527.05 1011.46 653.85 1151.29 653.82
00010097 00000091 734.65 115.37 478.27 711.81 993.90 395.40 1166.66 395.16 1160.85 530.76 1009.65 656.01 1151.29 655.71
00010098 00000092 737.81 117.82 477.41 705.66 995.46 398.29 1168.90 399.29 1159.50 533.93 1011.95 656.84 1151.19 657.77
00010099 00000093 740.02 122.11 477.71 701.28 996.15 402.67 1172.96 400.53 1163.01 538.16 1012.61 660.09 1156.16 658.72
00010100 00000094 740.70 123.10 478.54 701.92 996.36 406.09 1172.86 401.39 1164.42 542.94 1010.52 663.89 1155.42 660.96
00010101 00000095 740.63 126.41 481.65 700.89 992.44 408.91 1172.53 403.88 1159.79 546.53 1005.64 666.13 1154.36 663.03
00010102 00000096 740.05 124.11 485.65 706.56 990.65 409.75 1174.47 405.85 1158.77 547.50 998.19 666.48 1153.02 664.55
00010103 00000097 742.02 128.11 485.62 701.40 991.92 411.24 1176.46 407.80 1159.56 550.01 998.33 666.61 1154.09 665.13
00010104 00000098 745.17 131.01 485.49 699.23 995.02 414.70 1180.87 410.30 1162.68 553.01 1003.56 668.35 1159.90 665.92
00010105 00000099 748.46 134.26 483.72 696.17 996.07 419.10 1180.86 413.06 1162.48 555.38 1005.81 669.58 1160.78 665.74
00010106 00000100 750.80 138.64 482.30 689.57 995.81 422.04 1180.61 413.89 1160.71 557.28 1007.39 670.63 1160.77 665.12
00010107 00000101 751.73 140.02 481.85 685.01 995.83 423.03 1180.81 414.22 1159.82 556.73 1009.03 669.08 1161.58 662.86
00010108 00000102 755.17 140.65 480.55 686.26 997.94 423.24 1181.78 414.18 1161.12 555.72 1011.62 668.83 1164.62 662.30
00010109 00000103 758.09 140.92 480.21 688.08 999.86 422.67 1183.53 413.75 1163.19 554.85 1013.02 669.56 1166.56 663.15
00010110 00000104 759.49 141.03 479.59 687.41 1000.79 422.77 1184.09 414.49 1162.78 555.73 1015.76 670.10 1167.16 664.00
00010111 00000105 761.12 139.54 477.77 687.27 1001.66 421.75 1184.54 414.12 1160.85 554.72 1023.87 671.65 1168.99 665.56
00010112 00000106 765.12 138.91 472.72 690.22 1004.54 420.00 1183.65 414.03 1159.85 552.19 1036.27 675.08 1172.63 669.87
00010113 00000107 766.16 140.51 469.99 689.60 1007.09 419.75 1184.48 414.09 1162.55 551.88 1041.24 676.85 1173.36 671.88
00010114 00000108 768.04 140.12 469.74 692.28 1010.10 421.12 1187.03 416.59 1165.62 553.20 1041.15 677.06 1173.26 673.08
00010115 00000109 767.31 145.36 470.36 694.21 1008.36 407.39 1197.64 415.13 1167.03 546.50 1041.68 672.15 1182.89 674.95
00010116 00000110 766.92 145.21 473.56 695.36 1007.82 406.81 1198.70 414.17 1168.63 546.52 1032.79 668.47 1181.07 671.47
00010117 00000111 766.91 138.85 474.26 696.60 1009.73 419.44 1188.66 414.30 1169.12 550.40 1025.29 668.55 1173.38 664.66
00010118 00000112 764.08 139.56 477.08 694.74 1007.42 421.05 1188.44 414.61 1169.18 552.12 1021.45 668.86 1171.90 664.06
00010119 00000113 762.82 139.74 477.37 693.44 1004.52 421.22 1187.05 414.56 1166.31 553.18 1016.92 668.78 1169.35 664.04
00010120 00000114 759.48 137.19 478.81 695.06 1003.24 419.52 1184.84 412.56 1165.21 552.27 1013.20 668.20 1166.05 663.52
00010121 00000115 757.04 135.18 477.98 694.44 1001.27 417.68 1180.98 410.89 1163.36 551.00 1011.02 666.85 1162.06 662.50
00010122 00000116 751.11 132.97 479.93 689.73 997.14 416.15 1179.83 409.87 1162.62 550.42 1003.50 663.05 1158.40 659.31
00010123 00000117 747.25 132.49 481.20 686.09 992.28 414.96 1175.94 408.00 1157.96 548.13 999.45 659.52 1156.37 655.19
00010124 00000118 740.24 129.06 483.84 691.11 986.78 412.25 1170.85 406.06 1151.85 546.33 994.36 656.62 1151.79 652.84
00010125 00000119 736.92 127.01 483.47 692.99 981.17 410.80 1166.03 405.52 1144.93 545.71 989.92 655.46 1147.76 652.25
00010126 00000120 733.83 127.43 480.90 690.05 977.68 410.39 1162.71 405.01 1141.93 543.75 990.14 655.16 1145.10 651.79
00010127 00000121 732.25 124.61 476.98 693.55 974.09 408.44 1156.89 402.46 1136.73 540.77 996.81 657.87 1144.32 653.45
00010128 00000122 737.71 124.95 469.11 693.26 971.84 402.58 1158.15 400.00 1132.69 532.37 1005.27 658.74 1151.74 655.76
00010129 00000123 733.69 120.66 468.81 698.81 968.53 402.23 1151.34 399.68 1127.21 532.19 1001.87 658.31 1145.21 655.59
00010130 00000124 730.37 123.18 468.10 694.34 963.23 401.51 1146.53 397.99 1121.47 533.00 997.08 658.34 1140.49 654.77
00010131 00000125 728.71 122.77 467.66 691.58 960.50 398.34 1145.18 395.89 1119.37 529.25 996.25 655.95 1140.00 652.95
00010132 00000126 729.83 122.61 466.17 690.03 961.16 396.50 1146.72 394.44 1120.15 527.34 997.79 655.31 1140.95 652.48
00010133 00000127 731.00 121.74 466.18 691.22 964.03 395.68 1148.65 393.80 1123.20 525.63 1001.23 655.70 1142.16 653.22
00010134 00000128 731.95 119.11 468.18 690.95 966.96 394.36 1151.21 392.21 1127.43 522.32 1006.72 654.88 1144.47 652.28
00010135 00000129 735.15 117.36 468.56 691.13 970.55 392.95 1156.42 390.94 1131.67 520.75 1010.72 653.62 1149.09 651.00
00010136 00000130 737.14 115.31 472.36 691.26 972.81 396.80 1161.47 397.03 1138.07 515.57 1019.03 645.88 1155.63 645.12
00010137 00000131 742.48 116.43 473.42 689.00 981.18 399.29 1169.94 398.80 1148.90 522.50 1022.44 646.51 1162.40 645.32
00010138 00000132 743.62 116.95 472.66 690.08 980.92 400.83 1169.22 400.05 1149.07 523.01 1019.41 645.91 1161.47 644.69
00010139 00000133 738.22 120.90 471.17 689.75 980.53 397.20 1165.88 396.24 1144.86 522.06 1008.38 650.06 1153.65 648.53
00010140 00000134 733.74 118.70 471.58 690.48 976.13 394.89 1159.35 393.16 1139.63 517.99 1004.28 645.93 1150.08 643.66
00010141 00000135 731.52 117.87 472.80 686.81 973.05 391.06 1158.02 389.24 1137.71 513.43 1004.47 641.62 1150.54 639.06
00010142 00000136 732.35 115.27 471.06 688.66 974.22 387.48 1160.63 387.20 1140.27 508.93 1009.51 641.05 1153.32 639.33
00010143 00000137 731.34 115.06 471.95 689.40 972.25 387.40 1158.22 387.22 1139.00 507.24 1011.54 642.62 1153.13 640.97
00010144 00000138 728.80 115.73 472.89 686.70 968.24 387.06 1153.03 388.37 1132.02 507.55 1009.54 643.59 1147.61 643.45
00010145 00000139 728.47 115.16 471.67 689.63 967.59 387.06 1150.23 388.95 1129.26 509.19 1008.20 645.01 1144.03 645.28
00010146 00000140 732.52 112.85 469.95 691.64 971.03 386.10 1154.02 387.43 1133.51 506.14 1015.33 645.67 1149.90 645.21
00010147 00000141 736.27 111.67 468.08 692.84 975.33 386.32 1157.13 386.39 1138.82 504.81 1022.47 646.56 1156.01 644.84
00010148 00000142 738.74 111.34 468.08 693.37 973.22 391.31 1153.60 388.70 1136.90 502.26 1036.87 642.88 1163.06 639.02
00010149 00000143 740.20 114.67 467.09 689.62 976.06 391.60 1157.36 392.44 1138.87 505.24 1035.42 643.70 1161.44 642.80
00010150 00000144 740.70 111.71 468.42 694.06 981.78 390.23 1162.42 394.19 1144.96 508.57 1035.41 644.31 1162.24 645.96
00010151 00000145 741.59 110.56 468.55 696.42 984.35 389.64 1164.92 395.11 1147.63 510.33 1034.72 643.76 1162.47 646.76
00010152 00000146 741.48 115.31 466.12 692.41 986.16 387.37 1166.29 391.88 1147.37 512.66 1025.18 649.21 1156.44 651.73
00010153 00000147 739.12 114.11 467.32 694.66 983.89 385.92 1164.59 391.35 1145.84 509.53 1021.32 646.26 1155.30 649.29
00010154 00000148 735.38 110.08 470.53 701.53 980.66 384.44 1162.29 388.82 1143.64 508.78 1017.03 646.35 1153.70 648.42
00010155 00000149 734.08 111.57 474.92 707.58 979.63 384.32 1163.99 388.75 1145.13 511.12 1010.03 648.20 1154.84 650.80
00010156 00000150 734.53 112.59 478.22 712.04 984.24 386.52 1167.76 388.32 1151.56 514.21 1005.70 649.53 1156.43 650.73
00010157 00000151 730.81 114.31 483.70 708.67 985.72 390.26 1159.98 390.83 1151.72 523.40 998.39 647.96 1147.79 648.53
00010158 00000152 738.22 109.78 479.98 703.08 981.11 389.48 1171.12 395.00 1154.90 516.88 1000.77 637.56 1157.62 641.89
00010159 00000153 736.60 108.81 482.11 699.99 981.28 389.77 1171.19 395.09 1153.87 516.94 1001.71 635.55 1156.81 639.82
00010160 00000154 736.23 108.58 481.85 697.98 981.93 389.98 1171.45 395.30 1153.86 516.66 1002.98 634.22 1156.79 638.49
00010161 00000155 737.52 110.00 480.75 695.21 984.01 390.06 1172.86 394.46 1156.08 516.93 1005.72 634.71 1157.46 638.30
00010162 00000156 739.41 109.78 479.91 694.40 985.05 390.21 1173.87 393.70 1156.92 516.78 1007.37 634.64 1158.89 637.46
00010163 00000157 740.28 109.91 479.49 694.67 985.97 390.89 1174.47 393.32 1158.79 516.70 1009.52 635.06 1160.97 637.06
00010164 00000158 740.93 110.48 478.92 693.72 986.86 391.50 1175.36 394.34 1159.36 517.98 1011.61 636.67 1161.90 638.95
00010165 00000159 740.91 111.97 478.50 691.17 986.30 392.52 1175.03 395.46 1157.10 518.98 1016.05 639.39 1162.02 641.43
00010166 00000160 741.08 112.56 478.52 692.14 984.31 393.43 1174.91 396.43 1154.95 519.50 1015.05 640.86 1162.20 642.72
00010167 00000161 742.41 113.55 477.93 693.82 983.25 394.09 1175.38 396.23 1154.05 519.79 1015.46 641.94 1164.70 642.86
00010168 00000162 743.10 114.26 477.21 691.57 985.12 394.57 1176.07 396.36 1156.12 519.92 1018.59 642.43 1165.64 643.20
00010169 00000163 737.87 117.82 479.08 693.19 993.29 395.35 1168.50 394.60 1154.44 528.89 1015.45 649.72 1154.86 648.48
00010170 00000164 745.51 113.59 476.88 691.04 988.06 392.97 1176.44 395.78 1157.83 517.32 1024.38 642.06 1167.82 643.61
00010171 00000165 737.59 115.35 479.85 699.03 995.37 393.36 1167.38 395.10 1155.83 525.99 1014.81 647.94 1152.79 649.00
