Video ID: 	THRGS84ItIw
H: 	1080
W: 	1920
FPS: 	25.0

FRAME INDEX X0 Y0 W H [Landmarks (5 Points)]

00037805 00000000 888.78 194.44 400.89 632.74 1032.79 452.22 1213.35 444.67 1163.92 578.87 1039.08 662.49 1209.89 655.55
00037806 DELETE   879.89 188.60 410.52 641.90 1024.18 448.39 1212.99 440.61 1156.04 570.67 1041.34 656.76 1210.46 650.95
00037807 DELETE   873.92 185.30 415.44 643.99 1015.34 447.06 1207.60 441.31 1145.72 566.08 1031.56 656.54 1203.38 652.71
00037808 00000003 873.15 185.24 416.43 649.77 1010.45 447.50 1204.41 444.32 1137.30 567.10 1023.72 658.25 1197.33 656.24
00037809 00000004 876.01 186.78 414.29 645.97 1006.43 445.46 1201.40 445.69 1130.01 565.66 1018.36 657.53 1190.00 658.53
00037810 00000005 870.82 201.92 418.19 633.57 1008.33 448.48 1198.68 447.82 1128.50 575.66 1011.26 662.55 1188.55 662.84
00037811 00000006 873.78 194.01 418.83 647.97 1006.30 448.76 1201.00 449.93 1126.83 573.29 1013.69 660.64 1188.14 662.50
00037812 00000007 873.87 198.46 420.11 642.95 1006.98 451.44 1202.75 450.72 1130.38 575.26 1015.77 662.23 1191.71 662.52
00037813 00000008 879.65 200.15 419.14 641.62 1010.90 452.58 1206.63 452.33 1133.25 575.92 1021.05 662.32 1196.67 662.68
00037814 00000009 886.65 201.04 416.63 640.30 1016.36 452.08 1212.30 451.68 1136.99 576.63 1024.92 661.56 1200.72 661.91
00037815 00000010 882.60 203.10 422.56 638.76 1018.38 454.20 1214.64 452.74 1142.96 578.13 1030.16 663.12 1206.49 662.34
00037816 00000011 880.63 200.11 427.40 641.22 1022.37 454.96 1219.98 454.24 1148.00 578.90 1032.16 663.19 1209.93 663.12
00037817 00000012 883.98 199.78 427.09 642.89 1029.16 454.26 1227.02 453.67 1155.88 582.43 1036.55 664.77 1213.87 664.70
00037818 00000013 889.11 195.03 423.68 642.05 1033.16 453.44 1230.33 453.07 1161.04 581.20 1038.83 660.52 1217.28 660.87
00037819 00000014 890.90 190.21 425.12 644.67 1037.64 452.05 1234.37 451.81 1165.58 579.17 1044.45 660.36 1220.30 660.84
00037820 00000015 890.61 192.24 427.38 641.88 1040.53 451.55 1237.46 451.56 1168.62 577.80 1048.09 661.76 1221.82 662.53
00037821 00000016 891.48 191.90 427.20 643.00 1041.46 452.41 1238.59 452.97 1170.30 579.23 1048.77 662.45 1223.72 663.80
00037822 00000017 894.80 195.29 425.46 641.66 1044.23 451.99 1239.79 452.76 1172.28 579.46 1050.50 662.69 1224.89 664.28
00037823 00000018 897.78 198.37 425.60 641.36 1053.66 452.79 1239.18 457.42 1178.26 581.30 1054.92 664.51 1228.01 668.03
00037824 00000019 900.64 198.89 424.47 642.52 1056.72 452.11 1240.65 457.51 1180.52 579.28 1056.53 664.58 1229.01 668.87
00037825 00000020 903.88 196.46 422.99 644.30 1059.00 451.42 1242.59 457.45 1182.40 577.41 1058.25 663.89 1230.32 668.71
00037826 00000021 902.19 193.55 425.80 647.79 1062.15 450.02 1245.10 458.67 1185.56 576.95 1058.78 662.63 1229.76 669.68
00037827 00000022 902.50 195.10 425.94 645.00 1062.84 449.04 1246.55 458.77 1186.34 574.58 1059.85 661.82 1230.17 669.58
00037828 00000023 903.37 194.86 423.93 644.11 1061.52 446.51 1246.11 459.30 1183.68 571.39 1058.39 659.31 1228.43 669.39
00037829 00000024 901.54 193.71 421.27 642.46 1058.91 444.25 1243.76 458.89 1179.92 569.21 1054.35 657.23 1223.49 668.70
00037830 00000025 900.32 194.85 419.27 641.34 1056.50 441.88 1240.93 457.65 1176.30 569.12 1048.88 656.00 1218.83 668.54
00037831 00000026 897.24 191.92 417.32 643.27 1047.77 441.20 1239.06 452.61 1170.01 566.53 1048.05 655.24 1216.06 665.47
00037832 00000027 897.32 188.00 413.25 646.72 1043.34 440.19 1235.41 451.82 1163.21 569.90 1040.93 654.02 1210.63 664.55
00037833 00000028 886.97 182.72 417.99 650.29 1035.88 438.97 1229.33 449.62 1158.97 565.32 1035.84 653.28 1207.36 662.84
00037834 00000029 882.32 179.92 417.35 649.02 1028.17 439.20 1221.38 447.79 1150.97 561.54 1031.81 651.42 1202.02 659.11
00037835 00000030 880.26 179.57 411.14 644.31 1020.81 436.52 1213.13 442.34 1146.55 559.58 1027.89 650.03 1195.86 655.82
00037836 00000031 877.11 170.55 410.27 648.24 1017.39 433.74 1209.34 439.23 1142.41 556.85 1028.51 648.45 1194.89 653.91
00037837 00000032 876.87 169.15 407.89 643.51 1017.73 429.90 1209.82 435.59 1143.34 551.64 1032.31 644.52 1197.15 650.05
00037838 00000033 874.23 166.61 407.21 638.49 1018.93 425.95 1207.24 429.02 1146.94 542.67 1035.80 639.27 1198.97 642.67
00037839 00000034 878.23 169.38 403.49 631.48 1021.20 420.15 1206.77 424.01 1149.75 537.10 1036.65 633.10 1200.82 637.01
00037840 00000035 879.56 165.24 399.83 621.55 1021.95 415.60 1210.24 418.19 1152.22 532.33 1036.30 627.86 1204.83 630.26
00037841 00000036 877.07 163.46 400.67 619.66 1021.96 415.30 1209.20 414.91 1151.98 530.02 1035.47 624.66 1204.30 624.35
00037842 00000037 874.00 163.13 403.76 628.32 1018.89 414.72 1207.16 415.62 1150.12 529.63 1033.13 627.83 1202.24 628.70
00037843 00000038 876.62 167.94 401.91 622.02 1017.48 420.48 1204.50 420.94 1152.59 539.11 1036.99 637.72 1193.27 638.03
00037844 00000039 870.66 168.04 406.24 622.88 1012.08 420.56 1201.45 420.27 1148.90 539.70 1034.13 638.55 1192.09 638.25
00037845 00000040 863.72 169.65 412.86 626.37 1006.40 420.85 1194.80 417.64 1141.63 535.97 1029.64 638.08 1190.25 634.86
00037846 00000041 860.91 169.97 415.97 628.45 1005.17 419.29 1192.38 416.50 1139.27 535.31 1026.75 637.29 1187.61 634.54
00037847 00000042 858.37 172.21 416.83 629.54 1004.15 418.08 1191.47 416.86 1136.82 536.50 1024.73 638.45 1184.92 637.02
00037848 00000043 857.33 171.42 416.66 635.27 1005.82 416.18 1190.12 417.17 1134.91 537.50 1022.80 639.61 1177.51 640.28
00037849 00000044 851.66 170.58 420.00 634.46 1001.71 415.09 1189.71 416.04 1131.67 537.71 1020.75 640.85 1173.45 641.16
00037850 00000045 847.65 170.50 423.98 631.59 999.77 414.90 1188.13 416.89 1128.03 533.82 1018.33 637.76 1172.04 638.67
00037851 00000046 840.43 162.31 427.42 636.68 995.17 415.29 1182.52 417.11 1119.02 533.50 1011.90 636.01 1167.78 637.46
00037852 00000047 840.12 162.47 425.03 634.52 995.23 415.36 1179.88 420.57 1114.91 534.07 1009.64 633.65 1163.45 637.62
00037853 00000048 839.72 162.62 424.94 637.05 994.93 417.24 1179.70 422.19 1115.26 535.50 1006.57 633.66 1163.25 637.40
00037854 00000049 841.51 163.37 421.44 631.71 994.62 418.69 1178.10 423.13 1113.94 535.79 1006.15 632.05 1161.75 635.49
00037855 00000050 841.41 163.73 419.51 623.84 993.90 419.32 1177.66 423.14 1112.90 535.63 1005.92 628.86 1161.39 632.01
00037856 00000051 839.40 162.61 418.22 620.36 990.65 418.73 1176.86 420.95 1111.65 535.16 1003.20 626.25 1162.71 628.36
00037857 00000052 838.05 160.86 419.08 619.93 987.77 415.65 1174.82 417.19 1109.25 532.80 1000.54 624.42 1162.13 625.94
00037858 00000053 838.17 156.46 417.89 626.84 985.49 413.35 1172.11 413.08 1107.32 530.31 998.22 624.17 1161.35 624.23
00037859 00000054 833.16 154.45 421.11 628.40 982.48 410.74 1169.96 409.14 1106.83 526.03 998.16 623.41 1161.13 621.83
00037860 00000055 835.00 154.02 415.82 625.86 980.38 410.25 1166.66 406.67 1106.40 522.94 997.56 621.20 1160.49 617.84
00037861 00000056 834.89 152.63 414.38 623.28 979.20 409.99 1164.20 405.37 1103.95 521.91 998.16 619.85 1158.71 615.60
00037862 00000057 832.00 151.73 415.74 618.23 975.96 409.28 1163.98 402.75 1102.77 518.87 999.07 617.84 1159.99 612.00
00037863 00000058 830.68 151.81 415.34 616.04 975.31 408.24 1162.42 402.43 1102.19 516.67 997.93 614.09 1160.44 608.71
00037864 00000059 827.51 151.35 418.19 614.25 972.24 406.23 1162.00 401.64 1100.14 513.69 995.52 610.26 1160.46 605.75
00037865 00000060 823.15 152.64 418.31 610.83 971.57 406.19 1160.94 404.37 1098.77 511.90 993.30 607.05 1157.96 604.63
00037866 00000061 823.57 152.56 418.43 609.87 972.74 405.93 1159.16 407.83 1096.63 509.08 992.55 605.15 1153.65 605.62
00037867 00000062 821.93 151.97 417.47 610.37 970.94 405.02 1157.91 408.11 1094.42 508.64 988.46 604.74 1151.20 606.39
00037868 00000063 823.16 151.03 417.73 615.57 972.60 404.46 1158.19 409.53 1094.51 508.76 988.04 606.20 1149.01 609.52
00037869 00000064 823.58 148.82 417.25 622.08 973.46 403.84 1157.88 410.06 1095.74 508.65 987.88 607.18 1148.13 611.30
00037870 00000065 822.99 150.44 419.04 624.57 974.82 403.03 1159.14 410.70 1096.76 507.37 986.90 607.44 1147.50 612.70
00037871 00000066 824.19 148.52 418.82 632.91 974.34 401.02 1159.01 410.37 1096.38 506.01 987.14 609.35 1147.78 615.92
00037872 00000067 822.96 159.23 422.59 630.91 975.56 398.69 1159.39 411.53 1093.49 506.34 992.93 616.53 1139.15 625.07
00037873 00000068 826.81 160.95 417.40 636.18 973.09 399.03 1157.81 411.99 1089.83 506.70 987.74 619.20 1136.47 627.96
00037874 00000069 822.51 172.84 419.91 628.99 966.57 400.64 1154.86 412.76 1084.12 503.94 979.47 620.72 1135.97 628.93
00037875 00000070 821.57 171.53 418.58 630.82 962.86 400.35 1153.13 413.83 1078.53 507.18 971.36 622.61 1130.39 632.13
00037876 00000071 819.90 160.01 423.00 638.63 959.76 404.16 1152.43 417.22 1077.30 513.47 966.59 623.54 1132.36 634.19
00037877 00000072 824.30 159.63 422.66 639.89 967.14 406.35 1156.42 417.65 1084.00 520.18 975.39 627.18 1137.43 636.25
00037878 00000073 830.64 156.66 419.21 642.01 976.18 408.91 1164.66 419.69 1093.30 525.72 982.66 630.14 1143.83 638.78
00037879 00000074 835.15 164.36 414.19 633.52 980.90 414.76 1171.38 420.83 1102.89 529.00 993.08 635.68 1154.22 640.42
00037880 00000075 836.37 168.45 414.93 629.55 985.10 421.77 1176.79 426.85 1109.21 536.24 996.98 638.18 1158.84 642.23
00037881 00000076 836.87 170.30 416.00 624.15 991.41 424.50 1180.13 429.16 1115.26 539.29 1004.28 640.04 1160.99 644.05
00037882 00000077 836.47 169.21 417.43 622.65 992.53 424.46 1181.19 429.97 1115.77 538.58 1002.60 637.21 1159.77 642.00
00037883 00000078 835.32 169.79 416.68 615.64 991.58 424.12 1177.80 427.21 1113.68 537.96 1003.13 633.38 1158.74 636.19
00037884 00000079 827.37 169.87 421.62 609.75 983.52 422.67 1172.52 424.33 1106.62 534.10 995.98 625.93 1157.83 627.51
00037885 00000080 828.76 166.09 418.74 611.45 975.17 420.28 1166.09 421.14 1095.48 533.33 991.64 626.10 1153.46 626.81
00037886 00000081 826.34 161.98 419.29 618.41 970.90 413.70 1159.42 415.58 1088.63 529.75 985.52 623.43 1147.87 624.94
00037887 00000082 824.94 162.19 418.32 622.22 968.80 410.33 1154.82 412.24 1086.84 520.30 982.82 619.26 1146.59 620.73
00037888 00000083 822.83 160.60 419.61 623.28 964.35 402.82 1152.11 409.39 1083.83 507.91 977.22 613.61 1142.02 618.60
00037889 00000084 816.95 155.01 424.88 621.63 959.36 396.93 1154.33 405.79 1081.35 499.44 970.10 607.95 1141.64 614.33
00037890 00000085 815.75 151.95 423.01 617.86 959.33 394.54 1153.60 401.70 1084.57 492.33 972.48 602.48 1143.81 607.29
00037891 00000086 814.14 156.28 424.70 608.02 955.59 388.85 1151.69 394.97 1081.92 483.23 973.55 598.46 1144.69 602.27
00037892 00000087 814.54 153.68 421.83 609.02 953.79 385.26 1151.40 392.17 1080.47 475.63 971.35 594.74 1145.36 599.36
00037893 00000088 814.60 149.53 418.98 606.99 952.24 383.77 1150.38 389.94 1079.23 470.53 970.93 591.50 1144.92 595.56
00037894 00000089 817.35 148.49 415.37 603.57 951.97 379.80 1148.15 385.63 1077.33 466.00 969.89 587.81 1143.34 591.60
00037895 00000090 820.22 147.81 413.53 603.77 950.44 378.14 1147.29 383.03 1074.03 461.95 969.00 586.29 1143.48 589.62
00037896 00000091 816.59 149.00 418.36 600.61 948.73 377.98 1146.37 380.82 1072.35 459.31 966.08 583.22 1143.18 584.69
00037897 00000092 815.98 148.76 420.42 597.53 950.24 375.76 1144.94 377.55 1073.67 452.13 969.61 580.70 1142.98 581.43
00037898 00000093 815.32 148.11 421.13 595.26 948.90 371.77 1144.37 372.87 1074.33 444.26 971.46 577.23 1143.60 576.95
00037899 00000094 818.13 147.80 418.56 594.20 949.39 366.59 1148.66 370.75 1076.81 435.55 970.12 573.38 1146.42 575.78
00037900 00000095 819.95 146.54 418.42 600.40 949.85 364.67 1146.94 370.05 1074.77 431.47 970.72 572.14 1142.91 575.64
00037901 00000096 821.81 149.33 415.45 596.89 951.83 359.99 1150.32 370.10 1079.66 426.03 971.75 569.69 1146.82 577.59
00037902 00000097 823.20 148.15 415.00 597.11 954.08 357.48 1151.23 369.21 1081.16 424.21 973.82 567.36 1147.91 576.65
00037903 00000098 829.20 146.35 410.70 598.08 957.53 356.27 1153.23 365.03 1082.19 423.23 977.76 566.41 1151.10 573.50
00037904 00000099 830.84 146.88 409.37 589.02 959.85 357.93 1153.59 364.15 1085.29 426.84 981.59 566.59 1151.23 571.44
00037905 00000100 830.97 145.59 411.43 586.43 962.06 360.04 1153.49 362.78 1084.29 437.54 987.42 567.81 1148.95 569.04
00037906 00000101 834.38 145.79 407.75 588.29 968.24 366.30 1158.10 370.76 1087.23 455.02 990.11 575.13 1147.25 577.53
00037907 00000102 839.06 147.38 408.48 595.21 972.51 377.23 1164.46 379.18 1092.21 469.02 998.56 585.61 1156.30 585.57
CROP_BBOX: 540 0 1585 1041
