Video ID: 	S6tULGLTBww
H: 	1080
W: 	1920
FPS: 	25.0

FRAME INDEX X0 Y0 W H [Landmarks (5 Points)]

00008418 00000000 606.60 158.52 433.90 547.82 723.38 344.49 920.87 314.55 849.38 457.42 791.05 575.08 938.25 548.30
00008419 00000001 606.52 168.11 435.39 536.59 721.63 343.40 921.36 312.94 846.89 455.93 791.34 574.38 940.81 546.93
00008420 00000002 608.15 166.63 435.31 535.49 725.12 346.03 922.67 311.46 851.66 456.04 795.55 572.90 947.50 541.92
00008421 00000003 611.79 171.14 435.26 534.66 729.92 344.34 926.58 311.00 857.33 456.57 800.44 573.42 952.02 543.23
00008422 00000004 617.12 162.77 434.93 546.58 735.72 351.74 931.94 316.01 863.60 460.04 805.90 577.26 961.49 545.18
00008423 00000005 618.73 167.16 445.80 551.31 739.91 359.24 938.36 320.37 870.48 470.54 809.80 578.62 978.07 543.60
00008424 00000006 626.97 158.52 441.85 561.19 748.76 362.72 948.29 326.31 877.73 474.81 811.70 579.41 983.74 546.61
00008425 00000007 629.95 148.67 441.47 576.56 750.53 364.34 951.87 327.48 881.67 474.52 813.54 582.77 987.09 548.90
00008426 00000008 631.86 147.06 440.31 579.68 750.70 363.78 953.33 326.42 880.65 476.09 815.02 585.47 986.63 551.04
00008427 00000009 633.02 153.39 441.06 578.98 752.84 359.99 955.17 327.62 882.45 476.55 812.90 585.61 983.20 555.34
00008428 00000010 635.33 147.87 438.47 583.61 757.44 357.81 958.93 329.27 885.07 473.65 815.84 588.61 976.19 561.56
00008429 DELETE   639.38 149.11 436.34 572.93 768.12 360.55 964.08 341.59 888.10 477.93 817.34 587.39 963.34 569.23
00008430 00000012 641.84 161.97 435.36 561.83 772.11 356.95 968.82 340.89 892.10 475.27 815.77 586.33 962.86 570.80
00008431 00000013 649.00 156.58 433.65 575.15 774.25 355.92 973.27 342.15 891.37 472.30 812.95 585.38 967.30 572.01
00008432 00000014 649.29 154.24 433.31 577.05 775.68 357.07 978.49 343.00 896.44 473.79 813.09 585.37 975.74 571.92
00008433 DELETE   651.28 134.70 446.98 594.90 781.01 353.17 979.92 342.91 893.94 472.53 824.10 579.41 979.05 572.55
00008434 00000016 657.04 136.36 446.73 590.75 788.01 349.57 985.36 340.36 900.80 471.57 831.28 576.73 985.37 570.24
00008435 00000017 667.88 148.54 434.35 584.14 792.18 338.61 996.92 340.08 912.46 464.17 827.19 578.69 985.73 578.51
00008436 00000018 674.94 151.04 430.62 579.13 797.07 331.04 1004.58 334.76 917.60 463.96 830.97 574.04 991.31 575.48
00008437 00000019 679.83 150.40 431.58 578.89 803.57 330.38 1012.17 338.18 921.59 462.72 834.97 573.04 992.51 578.21
00008438 00000020 679.67 145.39 439.19 589.79 810.35 336.40 1019.26 342.28 930.34 463.67 844.43 578.31 1001.30 581.13
00008439 00000021 682.94 133.19 445.23 609.29 817.29 344.05 1028.99 346.39 942.61 478.47 857.04 591.20 1011.75 590.63
00008440 00000022 687.72 134.60 446.78 609.41 829.18 350.07 1036.33 352.78 952.23 489.77 864.48 594.45 1017.53 594.12
00008441 00000023 693.74 167.47 450.16 579.10 835.61 358.06 1045.51 358.69 957.64 501.52 870.37 598.10 1028.54 595.99
00008442 DELETE   697.30 180.39 450.35 571.34 838.78 362.40 1048.94 366.08 958.09 508.26 868.82 597.66 1033.06 598.57
00008443 00000025 701.88 184.54 451.12 572.90 840.10 358.98 1045.16 367.58 953.95 499.95 870.21 594.06 1026.72 600.85
00008444 00000026 704.23 188.27 450.28 573.88 841.25 357.64 1047.22 371.14 951.35 502.71 857.65 591.83 1021.04 603.15
00008445 DELETE   703.24 193.47 454.32 567.14 842.87 354.21 1049.83 371.28 949.66 499.30 848.52 585.89 1017.81 600.36
00008446 00000028 703.21 186.85 450.57 568.79 848.12 353.96 1057.20 368.75 959.45 502.67 848.48 580.68 1023.67 591.18
00008447 00000029 700.76 165.88 452.44 580.96 843.42 354.48 1052.71 364.20 960.09 496.55 848.94 579.43 1025.27 586.46
00008448 00000030 697.85 153.82 452.61 592.57 842.93 351.71 1049.90 360.52 961.62 489.31 848.52 574.96 1029.13 580.80
00008449 00000031 694.50 149.69 454.79 597.47 837.79 348.30 1045.01 354.14 959.52 481.77 848.11 572.30 1031.87 575.44
00008450 00000032 689.13 130.86 457.07 618.78 835.12 343.20 1043.29 349.84 960.65 477.22 845.70 567.97 1032.78 571.77
00008451 00000033 684.42 137.94 458.62 609.56 824.63 344.16 1036.03 344.19 949.92 479.47 843.29 567.94 1032.94 565.90
00008452 00000034 680.87 147.06 457.82 599.02 815.16 346.41 1027.57 343.47 941.14 476.50 835.75 564.04 1033.21 559.33
00008453 00000035 678.62 161.57 453.45 579.74 810.32 348.75 1018.62 344.79 933.44 477.18 829.90 563.18 1024.26 558.38
00008454 00000036 677.23 153.53 446.37 586.82 804.73 348.57 1010.56 343.03 928.08 478.24 826.19 561.40 1018.47 555.34
00008455 00000037 671.12 153.42 444.79 584.46 797.98 346.65 1003.49 339.12 922.60 477.28 824.89 560.42 1013.54 552.45
00008456 DELETE   665.47 153.26 444.49 581.02 790.61 343.41 997.23 336.01 914.76 476.14 819.32 557.46 1008.05 549.23
00008457 00000039 656.96 152.51 444.45 581.18 783.88 342.41 989.10 334.48 907.81 470.48 812.93 559.31 999.32 550.38
00008458 00000040 649.32 120.06 449.55 609.43 779.53 347.06 976.50 331.40 897.98 468.76 814.13 563.59 991.32 551.37
00008459 00000041 648.25 150.27 446.75 578.62 773.27 347.43 978.96 327.20 900.35 467.10 809.42 568.79 990.58 549.39
00008460 00000042 648.96 153.35 442.58 576.12 769.42 346.53 975.17 324.37 896.74 466.47 811.66 577.63 985.42 556.32
00008461 00000043 647.71 157.57 442.75 568.51 766.46 347.48 971.26 324.58 892.22 466.62 811.82 578.90 981.79 556.99
00008462 00000044 647.81 160.22 438.91 564.27 767.78 349.80 970.36 326.77 893.31 467.88 813.23 579.84 980.47 558.03
00008463 00000045 647.78 159.73 437.52 569.18 768.93 353.28 969.76 330.52 892.53 468.19 816.35 583.99 977.97 562.58
00008464 00000046 647.19 167.00 438.98 560.26 775.25 363.24 977.54 341.89 901.40 476.70 818.90 585.03 985.24 565.02
00008465 00000047 652.32 172.88 435.31 557.33 781.47 363.02 985.69 341.65 911.16 477.12 823.62 585.01 993.86 564.89
00008466 DELETE   652.74 136.32 447.01 590.47 790.85 356.34 993.45 338.33 917.76 472.71 837.38 575.86 1000.73 562.27
00008467 00000049 663.62 126.41 444.07 599.94 802.03 350.54 1003.83 334.81 931.24 471.52 844.56 573.14 1011.47 561.15
00008468 00000050 670.13 149.45 438.71 584.02 812.57 340.69 1016.20 336.26 945.10 460.84 847.03 571.76 1017.48 566.33
00008469 00000051 673.00 137.44 445.47 602.27 822.97 341.15 1027.26 343.45 953.86 468.66 846.41 570.36 1018.11 570.44
00008470 00000052 677.61 130.16 447.73 611.65 830.50 343.00 1036.78 347.44 964.47 473.02 853.00 578.00 1020.16 579.75
00008471 00000053 688.29 157.30 436.46 586.00 833.99 349.67 1043.63 350.38 970.01 483.27 864.76 588.48 1025.98 587.31
00008472 00000054 690.43 156.64 438.03 587.29 844.56 351.92 1051.86 353.67 979.75 486.47 877.50 594.62 1034.20 594.13
00008473 00000055 694.40 156.39 439.32 587.22 850.32 350.63 1055.66 351.52 983.84 486.69 882.08 593.44 1037.59 592.18
00008474 00000056 701.36 159.14 436.58 586.63 855.61 348.22 1058.75 351.36 986.55 485.51 882.38 588.59 1041.72 589.31
00008475 00000057 704.89 147.96 441.19 603.90 862.24 346.85 1066.00 355.03 988.03 486.49 875.38 585.78 1041.85 590.90
00008476 00000058 704.49 160.60 448.26 589.16 865.30 349.09 1068.79 359.88 988.55 493.95 866.20 580.62 1039.29 588.39
00008477 00000059 704.12 184.88 454.63 561.86 866.26 349.47 1071.93 366.31 985.35 495.48 863.34 572.73 1036.57 586.72
00008478 00000060 704.58 184.44 454.97 560.10 867.19 347.50 1071.50 365.23 984.44 493.39 860.86 568.19 1036.68 582.73
00008479 DELETE   701.82 159.52 455.05 584.16 864.59 344.51 1068.50 360.23 984.19 490.71 853.38 565.60 1039.91 577.75
00008480 00000062 699.96 145.25 455.89 599.41 863.34 342.75 1068.69 357.69 984.89 484.64 851.44 561.85 1044.24 573.54
00008481 00000063 698.59 149.36 456.47 593.79 861.41 341.23 1066.60 357.59 982.16 485.77 850.14 561.70 1040.05 574.51
00008482 00000064 698.63 151.83 455.30 591.93 859.28 341.88 1063.63 356.72 979.93 484.00 850.02 562.95 1037.15 574.49
00008483 00000065 698.31 147.43 453.06 598.39 856.58 342.48 1060.90 355.33 977.82 481.10 852.01 564.35 1039.21 574.06
00008484 00000066 699.80 146.93 452.37 598.37 854.92 341.33 1060.85 349.78 979.19 479.36 856.09 568.23 1040.20 574.21
00008485 00000067 697.05 137.35 451.16 607.68 853.04 341.30 1057.77 349.20 977.99 477.37 858.28 571.27 1035.37 576.80
00008486 00000068 694.71 145.53 452.87 599.93 847.80 340.17 1054.54 348.23 973.85 478.91 854.91 574.23 1030.46 579.73
00008487 00000069 692.49 142.10 456.09 605.68 847.26 342.86 1053.02 351.22 971.99 480.43 854.15 575.41 1027.76 581.13
00008488 00000070 691.78 152.26 452.02 593.59 844.19 345.81 1050.98 353.07 969.45 486.82 852.74 578.87 1023.60 583.79
00008489 00000071 687.45 156.70 453.69 586.52 841.71 345.98 1047.40 355.25 963.34 490.30 851.53 579.22 1016.41 585.38
00008490 00000072 686.96 158.40 452.28 584.17 837.24 346.21 1046.89 354.29 959.80 491.75 850.27 581.03 1015.72 586.40
00008491 00000073 686.28 163.35 451.72 574.21 838.30 347.07 1048.89 355.17 961.01 496.21 850.52 580.94 1011.63 586.47
00008492 00000074 686.73 165.11 449.56 571.30 838.59 350.21 1047.05 356.58 961.20 497.84 853.83 581.60 1013.12 585.55
00008493 DELETE   684.33 176.03 451.53 559.52 838.09 352.73 1046.67 358.07 961.51 497.73 854.43 581.63 1014.30 584.94
00008494 00000076 684.12 175.95 454.73 558.56 837.30 354.07 1045.64 358.35 961.51 497.33 853.85 579.21 1017.84 581.54
00008495 00000077 684.47 161.94 452.18 571.80 838.10 351.74 1045.09 353.99 963.07 493.40 856.42 578.45 1016.86 578.89
00008496 00000078 684.97 167.98 453.95 566.21 839.03 351.73 1046.60 354.08 965.84 492.55 856.82 578.41 1021.14 578.89
00008497 00000079 685.52 171.30 455.09 561.80 842.98 352.61 1049.25 355.59 968.29 494.60 858.38 579.95 1019.31 580.99
00008498 00000080 689.74 169.32 450.84 569.42 844.86 355.37 1054.57 358.67 973.78 498.34 858.72 584.78 1026.27 586.17
00008499 00000081 695.57 174.08 447.91 563.09 849.39 354.98 1057.77 360.14 975.16 502.05 860.10 586.12 1023.16 589.50
00008500 00000082 697.45 155.73 447.56 581.65 856.68 352.42 1060.98 358.90 982.66 498.33 866.61 583.93 1027.67 588.27
00008501 00000083 699.59 139.83 449.67 594.50 857.72 346.81 1066.34 356.53 986.11 495.02 867.51 583.56 1030.93 590.50
00008502 00000084 701.73 151.20 451.74 584.13 865.90 344.29 1067.96 365.17 982.32 493.57 865.38 576.13 1016.78 596.72
00008503 00000085 701.28 161.19 448.72 573.76 869.31 346.99 1071.06 360.90 993.66 498.15 870.41 583.26 1020.36 594.11
00008504 00000086 702.72 183.36 462.54 557.02 867.97 352.63 1076.79 367.22 985.08 503.73 867.43 586.25 1014.25 598.28
00008505 00000087 702.46 182.11 460.53 563.11 867.11 355.60 1074.44 371.84 985.69 504.23 868.01 588.66 1018.88 602.32
00008506 00000088 700.63 190.31 463.15 557.80 865.49 352.83 1074.24 370.17 980.92 501.04 860.98 584.31 1016.71 598.70
00008507 00000089 700.33 161.41 448.67 579.44 869.46 344.15 1069.37 361.20 990.34 488.75 867.92 578.57 1024.60 591.84
00008508 00000090 701.33 153.93 448.72 584.14 868.53 338.79 1072.59 353.91 995.77 481.19 866.41 574.03 1033.75 585.88
00008509 00000091 696.03 153.70 458.01 580.93 874.20 339.55 1072.78 362.67 996.95 485.49 861.67 561.16 1027.12 583.52
00008510 00000092 698.80 142.76 454.58 589.73 873.59 340.55 1077.79 364.75 996.54 487.04 858.96 558.04 1035.82 581.60
00008511 00000093 700.44 138.47 455.50 595.98 874.76 342.03 1077.04 368.72 993.14 491.51 856.79 558.13 1032.89 583.81
00008512 00000094 701.50 137.52 452.69 602.51 872.53 343.47 1071.75 369.92 989.06 494.63 853.23 560.09 1028.49 585.53
00008513 00000095 700.63 150.01 452.72 589.04 871.53 344.39 1070.04 372.14 986.59 495.71 853.34 562.66 1022.50 589.29
00008514 DELETE   700.76 161.46 454.48 574.76 869.44 343.26 1067.34 369.47 983.91 494.45 855.60 562.77 1020.92 587.74
00008515 00000097 699.95 146.36 451.82 589.73 869.52 341.62 1069.03 366.25 985.56 490.20 859.82 564.36 1023.78 588.06
00008516 00000098 700.95 131.51 450.36 601.35 868.97 341.16 1069.90 363.22 985.71 488.29 861.02 564.67 1023.45 586.35
00008517 00000099 698.81 137.58 453.58 592.64 866.66 339.78 1068.63 359.96 983.56 486.21 861.76 566.49 1019.31 586.43
00008518 00000100 702.15 146.81 446.83 579.55 861.36 334.86 1066.05 350.20 983.15 480.73 861.88 568.40 1025.80 580.10
00008519 00000101 696.76 143.22 454.60 588.32 863.17 332.94 1066.59 357.10 977.51 479.73 853.22 562.76 1013.67 585.64
00008520 00000102 695.16 143.57 454.89 589.50 861.05 330.97 1063.70 356.30 974.01 479.33 849.79 562.73 1009.55 586.45
00008521 00000103 695.89 153.93 450.79 575.90 853.80 325.60 1061.68 348.53 970.55 471.52 846.66 563.20 1010.33 581.13
00008522 00000104 692.61 141.65 453.47 593.40 862.68 331.09 1061.43 357.51 974.88 477.87 848.21 557.84 1009.73 582.21
00008523 00000105 697.28 150.75 448.21 588.82 864.47 338.35 1058.31 360.98 976.50 480.95 850.92 562.48 1010.63 584.08
00008524 00000106 700.58 150.01 444.95 591.32 865.49 335.55 1061.73 360.57 977.66 480.77 849.85 560.14 1013.14 584.03
00008525 00000107 701.05 142.81 449.23 596.96 866.88 332.33 1063.32 356.38 978.46 476.34 851.35 558.85 1017.09 581.85
00008526 00000108 705.05 147.16 448.56 594.33 867.56 332.45 1062.25 354.18 979.16 472.96 855.34 560.11 1021.96 581.26
00008527 DELETE   707.81 144.53 448.39 595.90 869.79 330.90 1064.60 352.26 982.72 471.50 857.90 557.93 1025.81 578.79
00008528 00000110 717.35 153.81 443.24 586.69 872.39 323.96 1072.87 347.61 988.57 468.41 860.09 556.03 1039.82 574.88
00008529 00000111 722.06 150.89 439.95 593.72 873.50 326.74 1076.36 348.25 992.70 472.02 863.19 559.28 1048.66 576.41
00008530 00000112 726.30 151.38 440.78 591.33 876.61 329.16 1079.50 348.90 995.62 473.77 870.66 560.96 1053.00 576.23
00008531 00000113 732.85 143.15 439.73 598.16 879.53 333.21 1086.83 353.52 1000.45 477.00 875.92 560.25 1063.24 575.81
00008532 00000114 740.05 149.24 439.28 591.78 882.65 334.31 1092.38 355.07 1003.64 479.45 877.19 560.08 1068.44 576.26
00008533 00000115 742.76 137.22 445.04 605.82 887.74 339.26 1096.16 357.38 1009.06 484.62 882.43 560.78 1072.32 574.85
00008534 00000116 747.08 141.11 447.09 600.90 891.81 343.89 1101.05 362.05 1010.92 488.97 887.12 561.10 1076.61 575.39
00008535 00000117 746.59 158.63 452.12 582.54 893.30 346.76 1104.90 368.61 1008.61 493.60 887.94 562.82 1075.26 580.32
00008536 00000118 747.47 174.71 453.37 562.32 895.13 350.31 1106.30 372.46 1007.65 500.46 888.14 565.50 1072.11 583.83
00008537 00000119 746.97 179.34 458.97 561.77 894.15 355.57 1107.77 378.22 1005.57 504.63 885.24 568.05 1074.44 586.90
00008538 00000120 748.02 185.22 458.12 553.68 894.40 359.76 1106.22 382.27 1004.24 505.87 887.76 571.18 1072.31 589.93
00008539 00000121 747.45 178.15 459.32 563.32 895.45 364.80 1103.96 384.97 1004.78 510.54 891.00 574.31 1073.45 591.04
00008540 00000122 747.06 177.39 458.52 564.85 894.09 366.18 1102.26 386.41 1002.60 511.98 890.64 575.34 1071.63 592.07
00008541 00000123 746.86 168.31 458.18 580.37 893.14 368.94 1100.66 387.68 1002.33 511.32 892.25 579.89 1072.23 595.21
00008542 00000124 738.54 144.92 468.28 600.65 892.94 374.90 1097.44 395.57 998.56 522.66 890.50 580.81 1062.46 599.00
00008543 00000125 743.38 165.68 455.72 588.03 889.55 370.61 1096.77 389.89 998.57 515.49 887.83 585.61 1066.81 601.75
00008544 00000126 740.77 172.81 457.65 581.56 887.35 370.17 1095.67 390.04 996.88 513.86 884.56 585.03 1065.44 602.00
00008545 00000127 739.54 174.74 458.05 578.50 885.59 366.50 1094.67 385.81 995.25 510.60 884.74 585.50 1062.96 601.88
00008546 00000128 741.24 173.78 452.72 575.95 885.99 364.12 1094.60 382.89 996.80 509.06 887.23 586.86 1061.48 602.80
00008547 00000129 741.02 177.87 452.67 571.71 885.73 360.83 1096.19 381.10 996.03 509.59 885.79 587.29 1057.94 604.32
00008548 00000130 740.97 179.42 450.92 570.55 885.95 358.37 1096.59 380.17 996.78 509.74 884.32 587.83 1055.19 606.28
00008549 00000131 742.44 176.25 450.16 572.31 886.55 357.59 1096.46 379.06 996.52 509.03 883.51 586.95 1055.41 604.96
00008550 00000132 742.72 179.77 450.73 568.82 887.28 357.01 1096.96 379.03 996.41 508.00 882.32 584.43 1055.28 602.97
00008551 00000133 741.70 183.79 451.15 563.34 886.69 356.94 1099.05 378.69 997.78 504.60 884.93 583.77 1060.46 602.03
00008552 00000134 741.10 189.97 451.78 556.98 886.96 357.06 1098.11 379.12 997.61 506.88 884.25 583.00 1058.40 601.85
00008553 00000135 740.56 186.94 454.39 559.18 887.31 357.81 1098.71 379.35 997.19 507.48 884.14 582.80 1058.07 601.03
00008554 00000136 739.95 177.04 456.91 571.11 887.37 358.67 1101.10 380.54 998.64 506.74 883.93 582.69 1061.15 600.95
00008555 00000137 740.19 180.01 455.26 566.63 888.18 360.05 1100.94 381.91 1000.00 508.20 885.77 583.02 1062.67 601.46
00008556 00000138 739.87 181.37 455.33 567.00 889.07 359.56 1100.82 382.10 999.65 509.46 885.68 583.33 1059.99 602.36
00008557 00000139 739.99 180.72 455.57 566.34 888.79 359.59 1101.69 381.40 1000.47 508.45 887.55 584.15 1061.63 602.45
00008558 00000140 739.66 185.74 457.51 563.71 888.51 358.09 1102.67 378.72 1002.33 508.10 889.98 588.21 1061.59 605.37
00008559 00000141 740.65 182.14 456.79 569.05 888.67 356.02 1104.45 376.80 1004.27 505.73 892.35 591.46 1061.04 608.34
00008560 00000142 739.54 180.60 458.15 571.89 891.35 357.50 1104.45 377.80 1006.10 506.45 894.19 591.36 1061.35 607.82
00008561 00000143 739.87 180.75 459.66 573.74 893.84 358.58 1106.52 380.10 1007.45 511.63 892.27 594.37 1058.94 611.89
00008562 00000144 741.10 173.11 460.54 582.00 897.29 364.15 1108.00 384.05 1010.50 516.97 896.64 600.37 1059.80 616.53
00008563 00000145 742.89 179.65 458.21 578.41 898.73 360.82 1111.57 382.31 1014.16 516.43 896.36 606.54 1054.37 624.44
00008564 00000146 744.43 180.10 462.31 579.47 904.93 354.07 1116.99 377.44 1018.67 512.15 898.21 606.03 1044.81 625.43
00008565 00000147 746.27 173.36 463.06 584.95 909.45 354.26 1119.25 376.66 1024.73 510.27 904.72 605.34 1047.65 623.72
00008566 00000148 749.60 188.46 463.35 567.27 912.08 357.97 1121.48 381.85 1024.15 513.29 907.71 601.86 1051.73 621.73
00008567 00000149 752.94 186.74 461.59 568.03 916.36 362.57 1123.62 386.16 1027.42 514.97 915.75 606.04 1056.12 625.60
00008568 00000150 753.51 185.66 461.54 566.98 924.08 367.82 1122.72 392.59 1030.89 515.51 920.64 603.45 1056.36 624.03
00008569 00000151 755.02 189.27 462.31 562.60 930.10 371.74 1123.70 397.79 1034.70 516.99 920.45 600.93 1056.98 622.74
00008570 00000152 754.31 190.75 462.64 568.42 928.88 366.34 1125.58 395.87 1034.56 517.45 912.44 599.02 1056.26 624.04
00008571 00000153 759.01 208.14 464.35 552.62 920.73 361.64 1127.18 392.58 1025.66 515.15 907.43 594.64 1060.09 621.41
00008572 00000154 758.45 207.96 466.81 549.33 920.84 358.40 1128.56 391.50 1024.12 512.81 905.16 590.96 1059.73 619.35
00008573 00000155 758.39 203.51 464.22 555.45 920.80 357.54 1126.85 390.54 1025.36 510.23 906.41 589.43 1062.79 617.76
00008574 00000156 755.00 191.99 465.70 566.76 920.88 354.21 1130.58 387.98 1028.77 516.29 902.79 590.80 1064.86 619.04
00008575 00000157 755.31 190.86 464.80 566.79 919.33 355.50 1129.08 385.96 1028.13 517.55 905.30 591.08 1069.43 616.61
00008576 00000158 752.95 186.20 465.23 568.67 914.44 355.72 1125.33 383.89 1025.40 515.38 902.30 587.93 1070.72 611.19
00008577 00000159 751.89 178.54 464.74 576.54 910.93 358.46 1125.53 384.41 1025.26 513.69 903.56 588.09 1076.71 609.13
00008578 00000160 751.28 178.78 463.99 575.01 908.98 359.84 1122.29 384.15 1022.90 513.90 901.62 586.41 1076.94 606.13
00008579 00000161 749.10 180.12 460.92 570.48 905.77 362.50 1117.38 383.27 1021.91 514.50 903.03 584.89 1078.43 601.81
00008580 00000162 747.76 179.53 461.78 575.06 903.94 365.11 1114.74 386.28 1019.44 513.69 898.91 584.87 1078.28 602.30
00008581 00000163 746.23 183.04 463.30 570.89 903.00 364.32 1112.98 386.16 1017.54 513.81 898.84 583.68 1076.30 601.68
00008582 00000164 745.77 185.01 461.95 569.66 900.59 363.77 1111.82 385.81 1015.96 513.37 898.56 585.15 1076.29 603.41
00008583 00000165 744.07 184.93 462.65 568.34 896.89 360.98 1110.23 383.65 1012.63 512.06 895.71 583.85 1073.64 602.25
00008584 00000166 742.68 180.79 462.01 572.42 894.46 361.37 1106.57 381.52 1009.00 509.32 896.00 583.40 1072.62 599.46
00008585 00000167 742.56 185.89 460.28 567.05 892.40 358.75 1103.68 380.97 1004.17 509.78 890.21 580.44 1067.73 598.44
