Video ID: 	BdI9UER4tZ4
H: 	1080
W: 	1920
FPS: 	25.0

FRAME INDEX X0 Y0 W H [Landmarks (5 Points)]

00006820 00000000 986.47 172.92 472.56 567.79 1042.09 362.32 1265.22 352.54 1099.70 451.60 1055.04 592.54 1242.82 583.91
00006821 00000001 988.99 173.00 471.18 565.96 1044.06 359.90 1269.44 352.86 1103.52 451.58 1056.39 590.80 1246.58 584.34
00006822 00000002 991.13 179.23 461.73 562.19 1050.15 362.97 1277.40 353.52 1106.83 450.05 1058.90 592.83 1250.64 585.04
00006823 00000003 990.29 175.94 461.58 563.32 1050.29 361.41 1279.82 353.43 1110.20 448.33 1058.17 591.19 1252.98 584.72
00006824 00000004 989.73 177.14 459.77 561.18 1051.38 360.96 1280.11 353.30 1112.19 447.66 1058.63 589.39 1253.66 583.28
00006825 00000005 987.40 166.32 469.65 570.82 1047.73 357.03 1274.28 351.09 1112.36 448.46 1057.90 586.06 1250.46 580.41
00006826 00000006 984.19 167.34 469.94 571.66 1044.40 357.13 1271.19 351.91 1108.86 450.91 1055.01 588.11 1247.68 583.18
00006827 00000007 979.22 166.45 474.64 573.92 1039.44 356.96 1266.67 351.47 1103.36 452.07 1050.22 591.06 1240.44 586.36
00006828 00000008 975.76 167.36 473.33 575.05 1034.08 358.42 1262.61 351.46 1098.00 450.17 1044.79 593.39 1236.80 587.71
00006829 00000009 972.04 165.84 469.34 577.16 1029.13 357.47 1252.73 350.80 1090.13 451.33 1041.56 592.51 1227.07 587.24
00006830 00000010 969.80 169.10 463.55 573.98 1024.26 357.54 1246.31 351.03 1086.22 453.62 1037.11 591.05 1221.98 585.70
00006831 00000011 965.77 168.09 463.71 575.36 1019.23 360.33 1240.19 353.23 1080.48 455.18 1032.94 593.27 1217.39 587.39
00006832 00000012 962.51 172.60 460.94 572.33 1021.91 360.93 1244.31 353.94 1078.49 459.07 1036.64 595.84 1219.37 589.42
00006833 00000013 958.51 184.39 454.92 553.90 1018.23 358.93 1234.85 354.37 1081.23 458.59 1036.68 590.34 1210.13 587.07
00006834 00000014 955.81 188.09 453.88 551.16 1015.56 361.54 1232.51 356.88 1078.03 462.29 1035.13 592.32 1209.00 588.95
00006835 00000015 953.70 193.57 454.98 550.09 1012.13 364.39 1229.04 360.13 1073.73 467.06 1033.38 594.50 1208.59 591.66
00006836 00000016 950.26 194.09 454.11 549.56 1006.25 367.95 1226.39 361.15 1071.15 469.01 1028.96 599.14 1206.58 594.21
00006837 00000017 947.84 207.51 454.85 541.55 1004.30 373.01 1225.35 364.32 1071.46 470.02 1026.31 603.30 1205.23 596.80
00006838 DELETE   943.98 216.20 457.63 540.93 1002.51 381.42 1225.44 372.58 1071.21 472.82 1021.70 606.85 1205.76 599.80
00006839 00000019 942.00 218.86 459.65 542.26 1000.37 380.92 1227.32 374.78 1072.94 477.92 1020.16 610.60 1205.64 605.57
00006840 00000020 941.50 216.69 459.19 546.94 999.36 384.27 1225.98 376.47 1071.57 484.05 1020.15 615.58 1202.76 609.40
00006841 00000021 939.46 214.87 460.69 551.89 997.12 386.96 1225.73 377.55 1069.65 487.06 1017.36 619.76 1200.00 612.29
00006842 00000022 938.12 211.26 460.48 556.38 997.41 388.42 1224.63 379.05 1069.71 489.55 1017.52 621.17 1198.60 613.80
00006843 00000023 937.73 211.84 459.86 558.38 996.82 388.72 1224.95 381.68 1068.98 493.32 1015.18 621.44 1198.88 615.54
00006844 00000024 936.93 219.02 462.21 555.97 993.54 391.59 1222.31 381.07 1063.44 498.32 1018.36 631.68 1200.46 623.82
00006845 00000025 936.14 216.87 460.63 557.81 996.52 393.17 1222.28 386.69 1065.42 498.28 1015.09 625.89 1194.13 620.08
00006846 00000026 937.13 227.33 461.65 554.07 993.23 393.96 1219.28 385.07 1061.47 502.83 1018.33 634.39 1198.12 627.92
00006847 00000027 937.94 234.44 461.05 549.76 992.19 395.44 1218.32 387.66 1060.91 505.71 1017.17 635.47 1198.35 629.82
00006848 00000028 938.95 236.23 460.12 551.26 992.03 399.12 1215.40 391.13 1060.47 509.88 1017.56 638.05 1196.03 632.31
00006849 00000029 939.42 231.72 461.57 556.65 991.84 400.17 1215.18 391.75 1060.19 512.09 1018.65 639.61 1196.67 633.41
00006850 00000030 938.87 236.42 462.68 553.82 991.68 403.03 1214.63 393.62 1060.53 512.83 1019.88 641.84 1197.04 634.90
00006851 00000031 939.47 239.18 463.53 552.88 991.66 403.83 1214.49 394.55 1060.50 514.24 1021.02 643.46 1198.10 636.54
00006852 00000032 940.71 237.57 462.74 553.68 993.14 404.24 1215.37 394.53 1062.01 514.27 1022.54 643.46 1199.35 636.21
00006853 00000033 943.08 239.96 460.32 550.25 995.10 403.48 1216.78 394.83 1064.38 514.46 1024.80 643.66 1201.52 637.27
00006854 00000034 944.17 238.14 459.59 551.84 997.34 403.09 1218.18 395.76 1066.33 514.93 1026.11 643.27 1202.22 638.04
00006855 00000035 943.93 235.91 462.08 555.20 997.84 403.15 1219.54 396.52 1066.87 516.29 1026.61 643.38 1203.84 638.72
00006856 00000036 944.35 236.94 460.88 554.85 998.68 402.41 1221.02 395.95 1068.40 516.11 1027.09 644.10 1203.97 639.58
00006857 00000037 944.70 241.88 460.96 550.35 999.21 403.26 1220.55 396.99 1068.83 517.99 1029.27 645.34 1204.76 641.03
00006858 00000038 945.96 241.11 459.19 549.74 1000.02 403.45 1221.38 398.15 1069.95 519.56 1029.86 646.28 1204.29 642.84
00006859 00000039 945.84 240.67 459.46 550.49 1000.86 403.49 1221.34 399.04 1071.11 521.15 1031.64 647.23 1204.51 644.43
00006860 00000040 945.77 246.83 459.24 544.17 1002.23 406.66 1220.23 403.66 1071.08 524.90 1032.45 647.54 1203.67 645.99
00006861 00000041 945.46 248.70 456.74 544.02 1007.31 416.46 1220.48 414.53 1075.70 530.82 1033.01 648.49 1204.68 648.18
00006862 00000042 945.50 247.38 456.97 549.65 1009.25 419.25 1220.66 418.49 1074.81 536.05 1035.11 651.81 1203.35 652.26
00006863 00000043 942.95 247.05 459.86 553.56 1004.60 421.43 1216.73 418.63 1069.55 541.67 1033.28 655.41 1203.72 654.07
00006864 00000044 942.01 248.84 460.73 554.39 1002.45 421.73 1216.85 417.33 1068.97 542.65 1032.34 657.82 1204.14 655.30
00006865 00000045 940.85 244.71 460.70 556.94 1000.77 421.78 1217.35 415.73 1069.18 540.35 1030.62 657.68 1204.15 653.83
00006866 00000046 940.77 246.27 460.38 550.74 999.72 419.78 1218.37 412.87 1070.76 535.04 1028.96 654.15 1204.88 649.61
00006867 00000047 939.46 249.80 460.52 543.58 997.74 413.48 1219.10 407.51 1071.13 530.68 1028.43 651.11 1204.44 647.23
00006868 00000048 939.13 247.14 461.82 544.95 997.61 411.37 1218.15 405.20 1070.39 527.93 1028.63 650.31 1202.79 646.27
00006869 00000049 939.53 250.06 462.18 541.18 998.06 410.76 1218.89 404.72 1072.02 527.87 1030.10 649.28 1204.68 645.28
00006870 00000050 939.05 247.61 462.01 544.88 999.13 412.90 1219.88 407.04 1073.11 530.85 1030.69 650.30 1205.29 646.50
00006871 00000051 941.11 248.70 460.48 545.77 1000.81 418.13 1220.03 410.76 1073.60 534.33 1031.77 653.60 1206.15 648.74
00006872 00000052 940.80 247.03 460.27 551.91 1000.86 424.16 1218.29 415.71 1072.43 539.71 1031.43 657.38 1205.03 651.66
00006873 00000053 940.21 249.11 460.21 551.64 1000.37 425.44 1216.28 417.47 1070.80 542.18 1030.86 657.94 1205.21 652.63
00006874 00000054 939.40 245.40 459.40 555.09 1001.91 428.28 1215.26 420.28 1070.41 543.13 1031.99 658.58 1204.94 653.06
00006875 00000055 938.09 243.42 460.65 555.76 1000.76 426.19 1216.55 418.51 1072.22 538.98 1030.94 656.01 1206.23 650.64
00006876 00000056 940.87 248.27 458.21 545.33 1001.08 426.18 1214.91 418.78 1069.38 535.26 1029.36 652.92 1204.54 647.89
00006877 00000057 939.65 248.15 460.27 541.73 1000.14 420.73 1214.16 414.95 1068.18 533.05 1030.02 650.65 1202.87 646.78
00006878 00000058 941.13 247.39 459.99 542.58 998.59 417.00 1215.84 410.11 1069.15 530.31 1028.77 649.68 1204.71 645.03
00006879 00000059 942.71 248.94 460.14 540.61 999.37 413.05 1216.61 407.01 1069.84 528.13 1030.63 648.34 1204.38 644.36
00006880 00000060 943.65 249.34 461.24 540.81 1000.45 412.78 1217.58 406.87 1070.95 528.20 1032.62 648.37 1205.86 644.41
00006881 00000061 944.75 245.86 461.15 543.77 1002.56 416.34 1219.21 409.25 1072.87 530.51 1035.15 650.27 1207.65 645.37
00006882 00000062 947.07 242.63 458.64 549.57 1005.14 418.43 1220.72 411.68 1074.39 533.68 1036.82 652.57 1209.12 647.84
00006883 00000063 947.24 244.24 458.95 550.28 1006.68 421.28 1220.89 413.86 1076.05 536.62 1038.79 654.43 1209.89 649.20
00006884 00000064 949.18 248.21 459.31 547.36 1008.19 421.83 1221.85 415.03 1076.29 537.38 1039.77 654.62 1210.77 650.05
00006885 00000065 954.05 247.82 455.63 544.33 1011.23 420.92 1224.59 415.11 1078.43 535.80 1042.59 653.42 1212.85 649.55
00006886 00000066 957.51 245.42 452.93 542.47 1013.13 417.60 1227.69 412.41 1081.65 533.22 1045.53 651.15 1214.19 647.58
00006887 00000067 960.95 235.85 461.53 556.27 1015.61 418.03 1229.28 407.75 1076.96 533.88 1043.91 653.35 1216.83 643.19
00006888 00000068 962.16 238.35 463.18 552.79 1018.06 417.51 1232.65 405.92 1079.78 529.21 1045.04 650.26 1223.22 638.89
00006889 00000069 965.02 237.53 463.00 553.95 1020.95 418.77 1234.48 407.98 1081.68 530.21 1048.26 649.79 1224.99 639.14
00006890 00000070 968.36 250.24 452.03 538.87 1031.88 425.99 1237.85 413.79 1097.01 526.58 1058.58 644.14 1225.14 631.60
00006891 00000071 970.73 249.04 455.53 540.94 1033.01 427.95 1240.41 416.11 1100.28 530.49 1061.30 647.71 1225.63 635.85
00006892 00000072 972.86 251.19 455.71 539.43 1034.79 428.65 1242.24 415.65 1102.86 531.36 1063.51 649.03 1228.72 636.11
00006893 00000073 974.52 248.49 456.32 542.44 1036.09 428.69 1244.20 414.97 1105.60 530.72 1064.81 650.36 1229.78 637.22
00006894 00000074 974.79 245.17 455.76 546.12 1036.42 427.16 1246.74 413.37 1108.35 529.86 1065.05 649.55 1231.40 636.78
00006895 00000075 975.27 242.87 457.10 549.19 1036.54 425.69 1255.29 416.55 1099.47 526.07 1059.09 653.90 1241.05 645.64
00006896 00000076 976.69 247.64 458.94 542.28 1040.77 428.00 1250.54 413.14 1112.61 527.06 1066.34 646.48 1236.96 633.12
00006897 00000077 976.40 248.47 460.57 540.81 1038.02 423.21 1252.12 407.89 1113.96 526.39 1066.10 646.35 1237.96 632.45
00006898 00000078 977.75 242.37 459.01 552.69 1033.85 416.55 1256.24 406.74 1107.55 530.67 1059.47 648.14 1244.80 641.57
00006899 00000079 979.27 240.57 458.25 554.54 1035.31 418.18 1259.13 408.40 1110.78 532.05 1060.31 649.85 1245.94 643.44
00006900 00000080 980.38 240.39 459.42 555.97 1038.16 418.92 1261.55 410.19 1113.01 533.69 1063.12 650.70 1247.16 645.20
00006901 00000081 982.19 242.10 459.27 554.12 1038.34 417.73 1261.65 411.05 1113.03 534.33 1062.78 650.32 1247.42 646.44
00006902 00000082 983.47 245.51 458.29 550.99 1039.74 418.29 1261.64 412.83 1112.92 534.04 1063.63 649.37 1247.85 646.42
00006903 00000083 983.05 240.06 459.13 556.19 1039.34 418.22 1262.51 412.03 1112.73 534.12 1063.55 650.33 1248.81 646.79
00006904 00000084 983.28 240.26 458.95 555.33 1039.40 418.58 1262.16 411.99 1112.58 533.83 1063.79 650.17 1248.62 646.39
00006905 00000085 982.01 239.55 460.79 556.70 1038.91 417.99 1262.33 411.27 1112.42 534.38 1063.55 650.48 1248.62 646.59
00006906 00000086 982.99 239.83 460.12 556.79 1039.68 417.71 1262.35 411.67 1111.70 533.89 1063.62 650.54 1247.78 647.29
00006907 00000087 981.87 240.07 461.36 556.97 1039.75 419.92 1262.16 412.54 1113.01 534.52 1064.14 651.12 1247.89 646.86
00006908 00000088 981.15 242.03 461.14 555.07 1039.14 420.39 1261.19 413.77 1112.05 535.10 1063.33 650.77 1247.34 647.03
00006909 00000089 982.26 242.06 460.86 556.56 1039.73 422.11 1261.89 414.25 1113.16 535.05 1063.49 652.26 1247.43 647.60
00006910 00000090 976.21 239.36 465.55 560.34 1038.96 423.76 1264.19 417.31 1106.24 533.95 1061.76 656.63 1246.66 650.83
00006911 00000091 976.10 239.11 465.97 562.40 1039.07 423.81 1263.34 417.76 1105.97 534.99 1062.33 656.71 1246.00 651.16
00006912 00000092 975.70 241.59 465.98 560.64 1038.75 423.75 1262.18 417.77 1106.44 536.08 1063.55 657.54 1245.75 651.84
00006913 00000093 975.72 241.83 465.61 561.50 1038.63 424.04 1261.94 417.97 1106.33 536.18 1062.97 657.63 1245.43 651.94
00006914 00000094 975.50 242.64 465.84 561.26 1038.34 423.78 1261.41 417.92 1105.24 537.18 1062.39 657.43 1245.57 651.95
00006915 00000095 975.28 242.58 465.32 561.94 1038.35 423.31 1261.79 417.19 1106.26 537.70 1062.60 658.02 1245.03 652.37
00006916 00000096 974.56 241.45 465.79 563.96 1037.72 423.61 1261.50 417.75 1105.56 538.65 1062.12 658.47 1245.14 652.97
00006917 00000097 974.75 244.14 465.09 561.78 1037.47 423.74 1261.13 418.51 1104.26 539.01 1061.14 659.30 1244.77 654.43
00006918 00000098 974.42 243.88 464.91 562.56 1037.30 424.00 1260.14 418.89 1103.45 539.85 1061.54 660.09 1244.05 655.24
00006919 00000099 974.07 245.91 464.11 561.30 1036.91 424.53 1259.20 419.34 1103.46 541.06 1061.83 660.90 1243.75 655.99
00006920 00000100 973.86 248.26 462.77 558.41 1035.77 424.14 1258.19 418.56 1102.80 540.88 1060.89 661.20 1243.48 655.98
00006921 00000101 972.38 247.54 462.85 559.37 1034.71 424.24 1257.94 418.45 1103.02 541.83 1060.23 661.39 1243.79 655.93
00006922 00000102 973.17 245.86 460.45 563.61 1034.94 425.03 1254.93 420.08 1100.70 544.20 1060.70 662.54 1241.87 657.72
00006923 00000103 971.56 248.50 460.29 563.06 1034.10 425.08 1253.59 422.44 1099.30 547.66 1059.96 663.22 1240.68 660.21
00006924 00000104 970.70 249.32 461.23 564.30 1032.26 425.93 1252.37 422.57 1097.01 549.46 1059.11 665.13 1241.17 661.29
00006925 00000105 969.95 249.52 458.81 565.85 1030.79 427.64 1250.43 423.75 1096.29 551.74 1058.63 666.93 1239.71 662.61
00006926 00000106 968.40 250.08 461.11 566.34 1029.23 428.40 1248.96 424.60 1094.58 553.33 1058.63 667.58 1240.64 663.04
00006927 00000107 966.99 251.21 461.15 566.78 1028.40 430.53 1249.40 425.71 1095.49 554.81 1058.34 669.06 1241.36 663.58
00006928 00000108 965.58 253.15 460.80 565.30 1026.69 432.87 1248.05 427.62 1094.30 556.75 1057.44 671.29 1239.94 665.49
00006929 00000109 961.26 262.79 464.86 556.82 1024.34 433.22 1244.04 430.70 1089.32 559.45 1055.22 669.64 1236.36 665.91
00006930 00000110 959.60 257.56 469.95 556.43 1021.86 438.60 1242.56 436.99 1087.35 562.83 1051.83 673.25 1236.24 670.04
00006931 00000111 963.50 266.41 466.37 549.10 1022.30 439.14 1244.04 436.70 1087.31 562.80 1051.97 674.78 1238.37 671.04
00006932 00000112 957.04 269.75 469.51 552.44 1020.27 439.58 1244.82 434.84 1090.70 563.82 1051.95 674.39 1238.43 668.83
00006933 00000113 955.99 268.72 470.00 553.84 1018.86 438.55 1243.68 434.87 1090.13 565.17 1051.27 673.77 1236.52 669.02
00006934 00000114 955.54 270.79 470.53 551.74 1017.54 438.34 1243.31 433.32 1088.58 563.84 1050.29 673.68 1237.93 667.73
00006935 00000115 955.24 261.71 468.40 558.60 1018.43 435.70 1241.44 430.53 1088.19 560.30 1050.98 670.96 1236.02 665.07
00006936 00000116 956.54 257.69 465.33 558.49 1018.48 430.88 1240.71 428.16 1086.39 557.33 1049.78 667.88 1232.48 664.09
00006937 00000117 956.60 256.46 465.67 557.98 1018.47 429.94 1239.99 427.43 1085.96 555.51 1050.23 665.63 1233.17 661.82
00006938 00000118 957.04 258.13 464.64 557.29 1018.16 430.17 1239.44 427.99 1084.55 555.96 1049.81 667.00 1232.83 663.40
00006939 00000119 955.24 267.39 468.47 552.82 1017.70 436.49 1241.46 433.29 1086.82 562.38 1050.59 671.96 1234.88 667.66
00006940 00000120 954.40 274.19 471.17 552.14 1016.02 443.86 1241.22 439.86 1085.82 571.80 1048.04 676.83 1235.58 671.65
00006941 00000121 956.58 284.15 470.86 545.49 1016.88 448.65 1240.88 448.25 1084.62 577.54 1049.16 685.49 1236.99 683.33
00006942 00000122 954.50 286.41 471.10 553.89 1018.00 452.01 1240.80 455.09 1085.99 587.44 1048.22 688.94 1234.94 689.66
00006943 00000123 953.03 295.82 470.69 549.02 1018.09 456.94 1240.48 461.05 1088.08 593.01 1047.88 692.22 1235.60 693.70
00006944 00000124 954.40 289.19 470.12 559.14 1019.18 460.21 1241.33 466.19 1088.43 596.97 1048.47 694.44 1235.14 697.66
00006945 00000125 954.69 296.61 470.02 552.91 1019.59 461.79 1241.00 468.16 1088.44 599.36 1048.84 696.43 1234.81 699.94
00006946 00000126 954.81 294.02 469.71 558.49 1019.71 463.26 1240.37 469.47 1088.47 602.11 1050.26 698.83 1234.42 702.12
00006947 00000127 956.42 291.69 468.81 562.02 1020.53 467.06 1241.14 472.52 1089.52 603.96 1052.83 701.55 1236.77 704.21
00006948 00000128 955.41 298.47 469.35 556.61 1020.79 466.75 1241.35 473.00 1091.01 605.33 1052.84 701.48 1236.33 704.75
00006949 00000129 954.74 300.73 470.93 554.21 1021.30 463.18 1242.00 469.53 1091.48 605.04 1054.01 701.70 1235.72 705.08
00006950 00000130 955.53 303.50 470.82 552.61 1022.63 462.73 1243.47 468.80 1092.51 605.39 1054.99 701.65 1236.44 704.93
00006951 00000131 956.92 305.51 470.06 550.73 1024.78 463.38 1246.49 470.22 1095.32 606.47 1056.32 702.10 1238.54 705.93
00006952 00000132 956.54 306.54 471.87 549.83 1025.25 462.85 1247.48 470.78 1096.04 608.31 1057.49 702.78 1238.76 707.47
00006953 00000133 957.35 310.89 470.70 545.71 1026.43 463.20 1248.25 470.89 1097.61 607.30 1058.52 703.05 1239.31 707.53
00006954 00000134 957.36 309.20 471.37 548.42 1027.39 464.17 1248.63 471.57 1099.39 609.26 1060.01 703.60 1239.02 707.72
00006955 00000135 957.41 310.86 471.39 546.84 1028.09 464.27 1248.63 471.57 1100.12 609.87 1060.66 703.76 1238.48 707.79
00006956 00000136 957.44 307.29 472.43 550.45 1028.59 463.73 1251.00 471.94 1100.91 609.25 1060.28 702.99 1240.06 707.76
00006957 00000137 958.05 307.04 472.59 550.21 1028.63 463.10 1250.66 470.84 1100.85 608.05 1059.80 702.29 1240.62 706.61
00006958 00000138 958.54 300.63 472.12 555.62 1029.00 460.09 1251.54 468.85 1100.70 606.04 1059.26 699.85 1242.06 704.98
00006959 00000139 959.73 290.49 472.94 566.11 1028.92 459.74 1251.71 468.75 1099.30 605.37 1058.68 699.26 1241.58 704.65
00006960 00000140 961.02 288.57 473.30 567.65 1029.64 457.45 1252.14 465.90 1098.40 602.17 1058.34 699.02 1240.76 704.01
00006961 00000141 962.09 284.87 470.82 571.79 1029.44 455.88 1250.46 462.91 1096.89 599.71 1057.78 699.24 1240.15 703.17
00006962 00000142 962.32 286.60 471.63 570.07 1030.38 454.31 1250.62 462.24 1096.88 597.53 1057.95 698.09 1237.85 702.86
00006963 00000143 963.43 279.96 471.14 577.24 1032.15 452.55 1251.13 460.37 1097.92 595.55 1058.65 696.98 1236.59 701.78
00006964 00000144 964.68 277.53 469.38 577.89 1031.63 450.80 1250.51 457.43 1097.63 593.54 1058.85 695.72 1237.36 699.57
00006965 00000145 964.17 276.97 471.93 578.53 1032.02 449.36 1251.04 455.74 1099.13 592.26 1059.39 694.20 1237.45 697.76
00006966 00000146 964.17 277.28 472.95 578.09 1031.57 448.71 1251.06 453.52 1099.51 589.73 1060.37 692.21 1240.97 694.20
00006967 00000147 964.36 281.75 473.80 570.39 1030.86 447.59 1250.79 451.94 1097.74 587.01 1061.21 691.61 1241.59 693.16
00006968 00000148 964.01 289.17 473.09 561.11 1030.17 447.08 1250.20 450.65 1097.85 583.98 1061.49 690.54 1243.16 691.27
00006969 00000149 965.10 284.74 472.90 561.59 1029.75 446.46 1251.25 448.59 1096.71 581.65 1061.09 689.90 1244.40 689.58
00006970 00000150 963.59 282.01 473.94 562.10 1030.40 442.08 1252.88 442.86 1098.16 581.58 1060.03 683.46 1240.27 682.15
00006971 00000151 965.11 284.48 472.15 555.45 1030.77 439.79 1253.56 439.99 1099.64 577.35 1060.47 681.26 1240.90 679.49
00006972 00000152 969.26 276.90 473.51 555.68 1028.93 441.69 1252.35 439.09 1096.48 572.07 1062.38 684.13 1247.90 679.90
00006973 00000153 967.11 272.21 470.72 558.91 1030.89 435.85 1255.28 432.05 1102.23 568.49 1061.74 675.69 1245.06 670.41
00006974 00000154 970.45 262.47 475.78 560.16 1029.37 432.54 1256.85 429.46 1098.01 565.17 1062.10 674.67 1254.34 669.86
00006975 00000155 972.18 255.76 475.73 564.90 1030.89 429.54 1257.48 426.22 1099.42 563.32 1064.10 672.49 1255.29 667.40
00006976 00000156 972.60 253.87 476.65 563.62 1030.92 427.26 1257.53 423.75 1098.88 560.38 1063.73 671.16 1254.68 666.00
00006977 00000157 974.09 249.35 477.12 567.34 1032.38 425.62 1257.11 422.07 1098.81 557.60 1063.99 668.27 1253.46 663.02
00006978 00000158 974.35 243.30 477.32 572.92 1032.96 424.43 1256.78 420.94 1099.61 556.17 1063.98 666.14 1251.84 660.99
00006979 00000159 972.17 249.70 471.45 570.23 1034.77 422.86 1258.25 419.34 1103.83 553.52 1065.01 663.86 1247.66 659.66
00006980 00000160 972.25 247.55 470.92 570.66 1034.77 422.60 1257.24 418.34 1103.68 552.04 1065.67 662.78 1247.56 658.02
00006981 00000161 972.36 246.43 470.79 569.53 1035.20 420.68 1257.16 417.93 1103.45 550.46 1065.24 661.26 1246.54 657.74
00006982 00000162 971.45 250.30 468.11 562.84 1037.69 422.70 1257.18 419.79 1105.30 545.85 1066.59 659.61 1246.08 656.22
00006983 00000163 971.91 247.52 466.75 564.52 1035.91 425.33 1255.83 418.79 1105.17 544.11 1066.18 659.96 1247.26 653.40
