Video ID: 	MxMaf0cj-bI
H: 	1080
W: 	1920
FPS: 	25.0

FRAME INDEX X0 Y0 W H [Landmarks (5 Points)]

00001500 00000000 884.05 183.51 383.62 515.80 951.79 389.58 1103.23 404.60 981.04 466.96 941.41 566.68 1064.19 581.41
00001501 00000001 879.97 188.55 389.77 523.14 953.48 391.07 1108.23 409.42 983.07 470.17 940.12 571.11 1066.87 588.47
00001502 00000002 874.49 190.15 390.18 538.10 949.07 394.81 1103.52 413.59 977.17 474.53 936.40 581.06 1061.81 598.89
00001503 00000003 869.09 191.83 384.11 532.28 939.84 401.46 1095.29 420.46 967.08 483.47 926.19 585.01 1050.43 602.58
00001504 00000004 865.37 198.78 376.21 515.55 931.53 405.26 1082.10 423.44 958.16 489.87 917.61 586.31 1035.56 601.94
00001505 00000005 864.31 194.90 372.15 515.74 925.34 404.76 1076.96 422.42 952.73 487.02 914.14 588.06 1022.48 603.24
00001506 00000006 862.32 194.67 373.75 519.40 923.72 405.62 1075.99 423.26 951.33 488.84 912.86 591.40 1021.26 606.57
00001507 00000007 862.30 195.88 378.78 521.16 935.35 412.50 1079.20 427.10 949.11 487.53 921.19 590.25 1028.26 603.22
00001508 00000008 861.34 198.52 378.94 525.51 935.81 414.03 1080.20 429.09 950.20 489.78 920.94 592.52 1029.79 606.19
00001509 00000009 860.53 201.01 379.34 526.88 936.97 416.02 1080.94 431.82 952.39 491.66 922.03 594.20 1029.59 608.55
00001510 00000010 860.11 203.21 380.05 525.01 936.82 415.95 1081.77 433.07 953.64 492.74 920.94 594.83 1028.89 610.31
00001511 00000011 860.66 201.25 379.39 528.52 937.54 416.57 1083.11 434.66 954.35 492.22 920.24 595.07 1028.85 611.47
00001512 00000012 861.47 200.64 381.50 532.83 939.57 416.35 1085.22 434.62 956.92 492.43 922.62 596.40 1030.79 612.78
00001513 00000013 864.08 197.01 381.68 530.23 939.50 414.42 1088.40 431.53 958.18 491.94 923.10 595.63 1034.06 610.92
00001514 00000014 866.00 197.45 383.60 535.86 944.17 416.29 1091.66 431.40 962.12 490.68 930.67 600.06 1035.41 613.50
00001515 00000015 868.94 200.62 384.95 546.84 947.26 418.84 1097.65 434.70 969.04 494.30 936.78 604.94 1045.27 618.08
00001516 00000016 878.01 208.10 378.84 545.01 942.38 417.43 1102.34 430.21 979.65 507.63 938.95 605.62 1068.94 618.55
00001517 00000017 879.93 205.58 382.87 551.23 946.39 411.82 1108.88 426.49 982.41 504.73 940.98 604.84 1074.46 619.51
00001518 00000018 875.71 188.71 396.80 557.39 958.01 402.41 1120.98 426.40 993.17 498.71 944.21 593.34 1079.00 614.80
00001519 00000019 880.98 188.05 394.71 541.14 963.84 396.74 1126.60 422.10 999.77 491.00 947.80 580.84 1084.22 603.21
00001520 00000020 886.51 187.69 392.09 524.33 968.43 396.75 1130.80 418.75 1007.73 485.95 954.10 572.94 1090.71 592.22
00001521 DELETE   894.16 185.52 390.11 518.70 974.94 395.17 1140.33 415.35 1019.13 482.70 963.30 569.27 1103.72 586.81
00001522 00000022 901.97 179.90 390.51 520.15 984.34 391.17 1149.44 411.92 1029.17 479.69 974.50 567.46 1112.17 585.21
00001523 00000023 910.71 180.58 392.45 527.14 1000.47 394.10 1153.40 415.83 1044.99 474.08 987.64 568.78 1105.36 586.92
00001524 00000024 918.98 180.40 391.76 529.22 1009.83 390.00 1163.10 413.56 1054.45 468.84 993.85 569.46 1112.15 589.54
00001525 DELETE   927.73 177.53 395.12 536.19 1017.45 383.13 1174.22 407.89 1061.39 462.47 1001.30 564.39 1125.02 586.39
00001526 00000026 933.22 177.16 399.35 524.10 1020.39 381.26 1179.76 404.60 1065.40 457.41 1004.46 558.30 1129.90 579.16
00001527 00000027 939.42 174.69 398.64 517.81 1025.22 377.41 1185.83 401.34 1068.95 454.48 1009.33 552.41 1135.30 573.72
00001528 00000028 943.41 173.67 399.49 513.11 1030.93 372.35 1192.95 401.33 1074.00 454.29 1014.55 546.03 1142.00 571.23
00001529 00000029 945.28 173.99 397.62 510.90 1034.94 372.24 1194.76 401.34 1078.50 455.19 1019.14 544.73 1145.04 570.08
00001530 00000030 947.08 173.31 395.57 512.32 1035.32 373.53 1195.45 400.53 1080.09 455.70 1021.30 547.21 1147.06 570.95
00001531 00000031 946.35 171.78 395.87 510.62 1032.61 372.79 1192.27 398.29 1075.15 454.54 1018.65 545.73 1142.05 568.22
00001532 00000032 945.38 169.31 393.61 508.10 1029.12 370.93 1188.30 395.06 1072.03 453.21 1014.84 543.19 1138.78 564.32
00001533 00000033 942.07 168.14 394.46 508.52 1027.13 369.19 1186.78 392.62 1071.96 451.41 1014.02 543.10 1136.17 563.57
00001534 00000034 941.73 168.76 394.83 511.63 1027.68 370.68 1188.81 391.38 1075.84 450.89 1018.26 545.48 1140.55 563.76
00001535 00000035 942.25 170.90 396.64 509.73 1032.68 372.92 1195.31 393.84 1085.78 451.13 1025.34 544.95 1151.80 563.31
00001536 00000036 947.64 172.71 395.15 512.47 1041.29 377.23 1204.85 399.37 1098.06 455.58 1034.42 548.12 1166.20 567.29
00001537 00000037 953.34 179.30 394.43 511.48 1052.26 380.52 1215.30 405.53 1110.88 459.19 1043.08 550.70 1179.87 571.73
00001538 00000038 958.05 182.76 392.75 511.11 1058.09 384.09 1219.66 408.48 1116.86 462.87 1050.10 555.97 1184.33 576.27
00001539 00000039 956.88 181.56 395.73 514.06 1059.02 384.49 1221.43 412.30 1116.70 464.77 1048.20 554.97 1184.72 577.84
00001540 00000040 956.34 183.77 395.27 516.85 1060.63 385.54 1221.54 414.58 1117.06 466.34 1046.92 556.41 1183.28 580.66
00001541 00000041 957.42 182.34 395.48 520.34 1062.08 384.85 1223.13 414.57 1118.54 467.86 1047.56 557.04 1184.28 581.92
00001542 00000042 958.35 182.23 397.25 517.80 1063.05 382.35 1226.53 413.15 1121.12 465.24 1048.59 554.49 1187.44 580.10
00001543 00000043 959.90 179.01 397.89 524.21 1066.47 379.99 1231.01 411.22 1126.28 464.05 1050.65 554.58 1190.88 580.88
00001544 00000044 961.79 178.20 397.47 535.68 1071.45 378.38 1234.69 407.90 1131.07 463.68 1052.71 556.34 1193.79 582.02
00001545 00000045 961.61 180.01 395.79 534.75 1069.67 378.75 1233.50 407.51 1128.71 463.54 1051.20 555.79 1194.77 580.97
00001546 00000046 958.23 182.39 395.25 536.30 1063.74 377.38 1228.70 403.95 1120.21 460.95 1043.14 555.64 1190.41 579.50
00001547 00000047 950.74 178.82 397.52 543.38 1056.36 372.32 1223.83 397.75 1112.14 453.97 1034.41 555.49 1183.68 578.53
00001548 00000048 945.07 178.94 398.11 543.28 1048.88 366.85 1219.84 394.43 1104.95 450.54 1024.98 554.04 1176.39 578.94
00001549 00000049 940.35 179.95 397.73 539.97 1041.17 367.84 1212.09 393.17 1096.89 449.52 1019.13 553.29 1171.07 576.13
00001550 00000050 936.79 177.74 401.60 532.57 1033.46 372.86 1206.84 397.34 1092.58 453.98 1017.06 552.71 1169.80 574.31
00001551 00000051 939.13 176.84 399.78 522.89 1032.24 377.98 1201.43 402.04 1089.21 461.14 1018.74 550.40 1168.57 571.40
00001552 00000052 944.71 181.25 396.01 512.55 1038.34 378.72 1205.37 404.28 1093.24 461.78 1023.26 546.61 1171.98 568.81
00001553 00000053 946.08 181.37 396.14 511.19 1043.21 375.92 1208.91 404.37 1097.90 460.23 1026.58 543.23 1173.62 567.89
00001554 00000054 945.73 181.68 395.75 509.97 1040.49 376.78 1206.48 404.66 1094.30 460.53 1024.19 546.05 1168.60 570.34
00001555 00000055 940.82 180.91 398.62 511.52 1032.40 378.66 1198.26 405.40 1083.87 461.33 1014.86 548.80 1157.89 572.19
00001556 00000056 933.39 180.23 401.03 512.69 1022.98 382.82 1187.08 407.41 1073.50 462.83 1006.04 553.02 1146.23 574.00
00001557 00000057 928.14 179.26 393.85 518.32 1016.81 385.89 1177.14 411.78 1065.42 471.10 997.39 557.93 1134.42 580.02
00001558 00000058 924.32 183.77 387.69 528.35 1014.55 388.41 1171.58 415.60 1060.47 476.26 996.87 564.35 1130.41 587.54
00001559 00000059 922.36 185.19 390.34 541.27 1010.71 393.29 1171.32 418.63 1056.01 480.76 997.44 574.85 1132.82 596.38
00001560 00000060 921.74 184.66 389.77 539.70 1010.21 395.22 1171.00 420.09 1055.54 483.35 996.34 575.73 1132.14 596.91
00001561 00000061 921.20 187.34 388.92 531.19 1009.84 396.90 1170.29 420.56 1056.20 483.49 995.70 573.92 1131.16 594.06
00001562 00000062 919.50 189.57 389.58 521.56 1008.98 399.60 1168.46 421.15 1057.19 483.58 995.08 573.99 1129.43 592.14
00001563 00000063 916.63 192.28 390.90 517.22 1005.94 402.59 1165.01 423.30 1054.16 486.72 993.90 574.79 1125.74 592.04
00001564 00000064 915.12 192.73 389.29 515.08 1001.51 406.50 1161.38 426.51 1049.96 490.32 992.03 577.88 1120.30 594.38
00001565 00000065 919.43 192.48 385.84 516.04 1002.07 411.22 1156.74 427.32 1036.42 489.08 991.14 586.28 1107.72 600.58
00001566 00000066 915.98 193.65 387.51 530.41 1000.57 415.71 1155.91 431.08 1036.22 494.74 991.76 595.04 1107.28 608.81
00001567 00000067 911.05 194.13 391.23 543.52 988.08 413.54 1155.29 430.85 1036.37 510.77 988.32 601.66 1115.77 615.72
00001568 00000068 908.21 195.30 391.94 547.18 985.99 412.96 1152.40 430.17 1034.22 511.09 986.36 602.20 1115.46 615.99
00001569 00000069 905.76 195.03 391.20 548.19 982.99 412.38 1148.48 429.12 1031.80 510.95 983.51 601.56 1113.04 614.86
00001570 00000070 903.54 194.14 389.43 551.12 978.89 412.48 1142.85 427.89 1026.57 508.72 979.59 602.96 1109.64 615.03
00001571 00000071 901.79 200.65 384.26 552.37 977.05 414.20 1138.03 432.20 1014.48 506.01 970.42 605.21 1099.18 619.58
00001572 00000072 894.03 191.49 391.79 541.79 972.89 412.34 1139.45 424.95 1018.89 509.60 971.38 593.88 1109.37 606.01
00001573 00000073 889.71 194.50 392.33 524.34 967.88 410.24 1133.56 423.62 1013.09 504.21 964.49 585.87 1103.16 598.09
00001574 00000074 888.29 194.31 390.26 519.30 965.63 408.51 1128.52 422.02 1010.11 501.47 961.42 583.40 1097.09 595.71
00001575 00000075 887.58 191.07 389.46 523.63 964.91 405.50 1124.13 419.35 1006.35 498.83 958.13 581.65 1091.10 594.30
00001576 00000076 884.15 195.25 388.55 515.78 961.16 402.17 1117.41 416.75 999.58 493.20 952.25 576.48 1082.70 590.24
00001577 00000077 877.84 194.25 386.48 514.80 953.71 399.45 1107.94 414.60 990.47 486.24 945.45 575.50 1071.88 590.11
00001578 DELETE   865.93 197.18 382.18 511.48 938.26 402.26 1090.96 417.44 974.39 484.49 930.06 577.42 1054.25 591.30
00001579 00000079 856.80 199.13 370.48 511.60 915.99 408.99 1070.50 419.65 948.70 491.39 909.46 589.96 1027.53 599.25
00001580 00000080 850.55 206.80 374.96 516.25 911.28 413.19 1067.86 427.27 945.95 503.58 908.58 597.89 1028.29 609.50
00001581 DELETE   861.27 204.76 381.91 531.96 933.37 422.11 1087.70 432.21 970.88 507.60 935.38 604.59 1056.83 612.80
00001582 00000082 873.80 211.35 391.19 518.53 950.41 422.00 1116.17 433.20 1000.21 515.64 953.93 593.04 1093.10 603.18
00001583 00000083 881.40 210.49 389.22 515.16 958.99 421.45 1123.63 430.73 1009.11 516.14 963.35 591.45 1102.92 600.23
00001584 00000084 879.05 205.29 389.98 525.36 955.53 418.37 1116.76 428.90 1001.54 511.84 957.94 591.33 1092.13 601.41
00001585 00000085 871.01 206.47 387.68 527.38 944.30 416.64 1104.00 427.13 986.54 504.56 947.13 596.10 1076.22 606.00
00001586 00000086 869.32 196.22 386.25 534.63 945.53 420.96 1094.17 423.45 976.61 490.08 948.82 598.14 1057.45 600.19
00001587 00000087 868.29 197.63 384.57 519.01 941.97 405.80 1096.73 412.31 985.39 488.07 945.54 586.05 1067.21 593.44
00001588 00000088 871.82 192.43 386.47 514.33 944.24 397.25 1099.76 403.09 988.24 479.06 945.62 576.91 1071.44 583.74
00001589 00000089 874.18 184.67 386.99 520.37 944.31 392.92 1101.97 397.91 988.17 474.88 945.60 575.42 1073.75 581.42
00001590 00000090 877.81 180.81 384.42 527.55 945.47 390.66 1099.30 394.59 985.36 472.67 950.27 579.26 1070.63 584.67
00001591 00000091 878.52 179.61 381.01 533.49 946.30 390.76 1096.47 393.77 983.94 472.10 952.54 584.39 1063.87 589.56
00001592 00000092 878.59 179.82 381.62 528.69 946.10 390.71 1096.59 394.30 983.37 471.59 951.08 582.68 1062.49 588.09
00001593 00000093 877.43 179.82 383.54 527.06 944.80 390.23 1099.30 397.15 983.33 472.47 946.96 578.69 1065.90 586.57
00001594 00000094 876.70 181.66 384.25 525.19 944.45 389.77 1099.62 397.04 981.97 471.21 945.51 577.29 1066.92 585.38
00001595 00000095 876.62 181.63 384.58 526.78 944.85 389.27 1099.86 396.63 982.92 471.90 946.38 577.84 1068.68 586.05
00001596 00000096 877.56 178.91 386.90 530.59 946.01 387.84 1101.27 395.65 984.13 470.27 947.01 575.77 1071.00 584.29
00001597 00000097 880.79 180.09 387.00 528.45 949.32 388.08 1103.41 394.46 987.39 470.83 951.27 575.42 1072.70 582.90
00001598 00000098 884.40 178.91 387.08 531.24 954.05 389.91 1108.05 395.41 992.85 473.78 955.26 575.70 1077.88 582.55
00001599 00000099 887.32 176.65 388.89 531.04 958.82 391.66 1115.73 398.24 1000.38 479.25 960.06 574.66 1085.31 582.03
00001600 00000100 889.63 181.35 388.42 521.24 962.18 395.94 1121.53 402.80 1005.40 484.88 962.06 574.78 1092.07 581.86
00001601 00000101 890.67 187.24 387.06 513.03 964.78 398.62 1123.27 405.66 1009.10 486.65 963.82 574.76 1094.50 581.80
00001602 00000102 890.00 187.07 387.87 514.68 964.69 398.34 1123.82 405.74 1008.89 486.85 963.23 574.68 1094.44 582.10
00001603 00000103 887.90 187.11 389.51 519.55 962.13 397.11 1120.79 403.53 1005.06 485.92 962.02 576.81 1089.63 583.81
00001604 00000104 884.97 188.40 390.12 524.48 957.97 396.65 1112.69 401.93 997.45 483.24 957.46 580.80 1079.29 587.39
00001605 00000105 883.20 190.93 386.63 527.88 954.83 395.88 1105.98 402.38 989.96 481.08 953.32 585.67 1069.27 593.85
00001606 00000106 882.99 190.93 384.78 530.55 954.59 396.75 1104.88 403.77 988.52 482.20 952.57 587.96 1067.14 596.69
00001607 00000107 883.00 192.14 387.67 530.42 956.78 398.83 1109.08 405.86 992.23 483.82 953.55 588.35 1070.80 597.04
CROP_BBOX: 698 0 1564 892
