Video ID: 	Cp-W3orDH60
H: 	1080
W: 	1920
FPS: 	25.0

FRAME INDEX X0 Y0 W H [Landmarks (5 Points)]

00003625 00000000 624.25 297.54 506.22 677.45 706.94 572.31 931.30 564.77 797.99 751.37 769.02 818.13 947.40 811.76
00003626 00000001 622.50 291.94 504.47 682.22 704.78 568.00 927.07 557.69 793.02 740.41 765.96 814.10 943.88 805.38
00003627 DELETE   619.53 311.55 504.51 652.68 700.96 558.60 928.54 548.09 791.07 727.03 758.43 804.92 940.89 796.25
00003628 00000003 614.77 290.86 506.25 666.46 696.59 547.65 926.56 536.00 787.59 713.21 750.28 796.32 936.23 786.69
00003629 00000004 610.24 265.17 505.12 686.77 693.35 534.57 921.41 525.47 782.18 697.88 741.82 785.45 931.37 777.71
00003630 00000005 607.87 265.50 505.83 687.64 690.84 526.60 922.69 520.21 776.36 687.29 740.92 778.70 929.63 770.72
00003631 00000006 607.54 269.94 505.91 683.61 690.21 528.26 922.04 522.03 775.41 689.48 740.43 779.51 929.65 771.69
00003632 00000007 604.58 263.14 510.28 697.58 689.27 534.15 923.31 529.29 777.14 701.82 740.71 785.04 933.14 778.47
00003633 00000008 607.69 294.56 506.18 670.33 688.58 549.52 922.75 541.30 778.68 718.13 744.07 798.43 932.50 790.11
00003634 00000009 606.66 295.16 505.57 680.27 691.46 558.75 924.44 553.53 781.93 732.00 748.21 808.39 935.65 802.89
00003635 00000010 605.85 293.56 505.76 684.94 692.05 564.02 925.07 559.93 782.94 740.08 748.70 812.74 936.34 808.32
00003636 00000011 604.13 298.06 505.50 679.19 688.69 560.36 922.60 555.78 779.75 733.84 744.64 810.35 933.02 805.62
00003637 00000012 601.12 300.29 509.78 669.62 684.43 551.16 922.87 546.26 776.50 723.62 741.99 802.08 929.42 796.86
00003638 00000013 600.18 287.49 509.82 676.02 682.34 545.03 918.98 537.38 772.94 712.94 736.58 794.99 926.84 787.24
00003639 00000014 602.57 289.56 507.20 671.00 682.70 540.28 919.10 533.09 772.67 708.54 737.41 792.77 926.06 785.24
00003640 00000015 600.73 287.35 509.29 673.25 682.17 541.15 919.51 533.80 773.69 711.96 738.35 793.72 928.01 786.05
00003641 00000016 598.44 278.95 511.79 689.71 683.48 549.04 920.85 541.35 776.70 721.01 742.29 802.11 930.58 794.40
00003642 00000017 594.53 275.75 511.79 702.94 679.04 559.88 917.25 551.32 774.97 735.15 740.20 813.88 930.62 805.49
00003643 00000018 594.58 276.27 509.10 705.72 677.32 565.89 913.40 557.55 771.34 741.51 737.76 817.94 926.79 809.78
00003644 00000019 596.11 275.67 509.59 707.34 679.55 565.63 915.48 557.87 772.94 740.85 739.66 817.95 928.15 810.21
00003645 00000020 594.82 283.49 512.97 699.05 677.93 560.55 916.56 553.06 771.76 733.98 737.30 815.07 928.80 807.70
00003646 00000021 594.39 304.11 514.80 673.53 674.90 554.21 915.99 549.67 767.69 728.63 733.66 808.08 925.18 803.07
00003647 00000022 593.50 302.36 512.51 673.38 669.01 552.37 908.21 546.56 758.22 725.58 726.00 804.72 920.36 798.77
00003648 00000023 584.05 300.68 520.15 679.52 660.73 555.22 899.92 548.05 752.76 731.17 720.24 809.16 915.85 802.08
00003649 00000024 577.72 294.04 520.73 691.71 655.30 566.35 891.99 557.17 743.87 741.45 715.80 820.03 908.41 811.65
00003650 00000025 574.06 303.97 519.24 688.02 650.64 574.57 882.68 564.39 737.29 750.48 714.02 826.31 901.35 816.98
00003651 00000026 572.20 307.88 518.70 684.63 646.60 575.86 875.37 564.17 731.06 747.96 710.09 826.78 895.83 816.06
00003652 00000027 570.32 295.71 515.88 695.61 644.80 572.24 870.14 560.77 725.12 741.31 705.68 824.81 890.19 814.34
00003653 00000028 570.43 296.42 516.30 690.89 644.08 569.02 868.84 556.98 724.15 737.24 705.63 822.84 888.47 811.96
00003654 00000029 570.44 292.60 518.13 696.06 646.18 568.54 873.83 556.97 728.61 738.59 708.30 822.48 894.16 811.86
00003655 00000030 572.04 285.40 518.62 706.74 651.12 571.59 881.87 561.95 735.45 745.21 712.28 824.82 900.98 815.77
00003656 00000031 572.89 296.74 522.63 698.73 651.60 573.89 884.89 564.54 737.73 750.19 713.03 826.18 903.53 817.47
00003657 00000032 574.28 293.29 520.11 701.45 652.96 572.03 884.61 562.44 735.42 741.67 711.03 825.78 900.65 816.83
00003658 00000033 574.21 301.97 523.94 687.30 644.67 562.04 879.31 550.58 726.02 730.03 702.90 818.25 895.12 807.76
00003659 00000034 574.56 292.58 523.23 694.31 644.16 556.20 877.32 544.95 723.60 723.99 702.03 812.85 894.37 802.56
00003660 00000035 575.07 290.89 524.90 695.69 644.68 554.08 879.34 542.52 725.24 723.04 702.78 811.83 896.98 801.21
00003661 00000036 576.16 293.92 522.44 695.37 646.46 559.13 880.11 547.56 728.10 729.10 705.26 816.87 898.30 806.17
00003662 00000037 570.88 301.58 524.42 691.92 643.89 568.43 879.92 557.18 728.08 738.18 703.41 825.51 895.57 815.30
00003663 00000038 568.02 305.47 522.85 685.44 638.50 565.68 870.61 553.51 718.57 733.35 698.75 824.72 885.47 813.94
00003664 00000039 567.87 296.99 523.75 694.47 637.97 559.25 867.93 546.01 714.11 722.24 693.97 817.46 886.01 805.39
00003665 00000040 567.51 279.55 527.68 708.71 638.18 553.54 872.93 539.53 716.54 718.18 692.74 813.44 889.49 801.04
00003666 00000041 569.91 281.17 530.11 707.17 640.40 552.57 875.78 538.92 720.29 719.80 696.44 812.46 893.52 800.13
00003667 00000042 571.09 295.20 528.73 694.93 641.56 558.26 875.13 545.73 721.05 725.57 700.00 816.35 893.52 804.80
00003668 00000043 568.97 300.40 525.55 690.53 637.58 559.68 870.26 546.34 714.88 723.88 694.15 818.15 887.34 806.03
00003669 00000044 563.41 291.75 526.73 698.95 632.37 557.82 864.01 544.38 706.82 721.99 688.66 818.19 881.05 806.04
00003670 00000045 561.08 289.33 528.85 701.59 630.64 557.25 862.17 544.05 703.59 722.12 687.22 817.88 879.37 805.93
00003671 00000046 561.24 294.95 528.78 695.15 631.44 559.15 863.39 547.36 705.90 726.89 688.98 819.42 879.98 808.72
00003672 00000047 561.93 303.20 527.31 690.90 632.97 566.72 862.20 554.64 707.41 734.34 692.43 825.77 878.67 814.83
00003673 00000048 554.69 305.63 528.67 689.50 628.16 570.03 858.50 557.49 705.05 736.38 689.98 826.97 874.97 815.74
00003674 00000049 551.64 307.58 529.39 683.68 624.15 565.74 856.80 554.10 700.44 732.93 682.79 823.80 870.38 813.61
00003675 00000050 551.39 296.14 527.19 694.89 624.27 562.06 854.62 551.07 698.12 728.28 679.79 820.37 869.62 810.70
00003676 00000051 553.32 297.98 525.66 691.81 625.06 562.70 855.61 550.94 699.47 729.59 681.66 820.86 871.08 810.58
00003677 00000052 555.19 309.68 529.12 680.21 627.46 565.54 857.92 553.21 703.33 733.62 688.36 824.59 872.63 813.77
00003678 00000053 550.46 300.38 529.70 692.31 625.19 568.52 856.64 556.69 701.91 736.29 688.26 825.47 872.45 815.00
00003679 00000054 547.87 298.63 526.99 690.79 622.25 564.30 852.97 553.84 698.63 732.90 681.01 822.04 867.60 812.93
00003680 00000055 547.11 286.75 526.39 701.52 621.13 560.92 849.93 548.49 695.96 726.12 677.64 819.25 865.51 808.60
00003681 00000056 549.31 277.71 525.16 709.21 623.36 558.51 850.22 545.88 695.47 723.37 678.29 815.94 867.61 805.05
00003682 00000057 550.19 281.73 528.37 705.03 623.75 560.59 853.73 547.17 699.88 727.54 682.08 817.67 871.35 806.06
00003683 00000058 553.87 297.55 526.92 691.00 626.40 563.68 856.41 550.99 702.76 732.13 686.16 820.86 876.03 809.58
00003684 00000059 552.18 292.98 528.25 695.55 625.52 562.76 855.56 551.22 701.22 731.34 684.17 820.01 873.47 809.75
00003685 00000060 550.22 274.29 525.87 713.55 624.19 559.41 852.71 546.98 697.61 724.43 678.74 816.62 868.33 806.00
00003686 00000061 547.42 267.94 525.07 718.27 622.19 555.89 850.09 543.29 694.92 721.96 675.96 815.27 865.66 804.65
00003687 00000062 547.01 265.39 524.86 721.81 622.11 555.92 849.86 543.30 695.03 722.98 676.00 814.93 866.73 804.21
00003688 00000063 545.59 278.93 526.83 707.69 620.91 559.27 851.31 547.89 697.60 728.68 677.83 817.15 868.08 807.40
00003689 00000064 542.10 284.48 526.14 703.76 619.17 560.99 850.01 551.57 695.94 732.79 676.94 820.20 865.29 812.06
00003690 00000065 534.58 283.41 527.18 705.19 612.32 560.15 847.06 549.46 691.48 727.82 667.28 820.41 858.28 811.38
00003691 00000066 532.23 280.14 526.60 707.42 609.06 556.89 842.33 546.41 685.42 724.25 662.32 815.67 853.85 806.79
00003692 00000067 530.70 275.46 525.44 710.46 607.54 556.11 840.45 544.59 684.00 722.08 661.02 814.50 853.31 804.74
00003693 00000068 530.50 277.75 525.85 708.85 607.39 557.06 840.70 545.73 684.55 723.86 661.97 816.70 853.58 807.12
00003694 00000069 528.60 289.50 528.70 698.93 606.27 562.54 842.99 549.97 688.25 731.67 665.47 822.79 855.45 812.18
00003695 00000070 527.21 302.30 527.69 687.89 603.81 568.65 840.81 553.10 687.99 736.01 665.96 826.39 855.23 813.17
00003696 00000071 524.01 294.07 528.27 696.60 599.05 563.96 836.70 550.89 681.43 734.32 657.87 825.08 849.51 814.10
00003697 00000072 521.24 286.89 528.77 701.52 597.15 559.20 833.43 546.99 676.70 727.95 653.46 818.98 847.49 808.65
00003698 00000073 523.18 271.07 527.43 716.24 600.24 556.34 834.84 544.15 678.14 724.23 654.60 817.56 848.09 807.27
00003699 00000074 526.38 288.34 529.09 700.50 602.48 561.42 837.68 547.71 682.43 728.61 660.55 820.95 851.88 809.34
00003700 00000075 532.76 294.46 525.74 694.04 607.93 564.52 843.11 552.74 688.08 734.08 668.01 823.93 855.34 814.04
00003701 00000076 534.41 305.53 524.69 683.85 607.17 564.98 843.40 553.70 687.34 735.67 667.85 824.62 855.56 815.05
00003702 00000077 529.29 297.86 526.71 693.13 601.79 563.21 838.28 551.82 680.63 734.30 660.98 824.77 850.19 815.25
00003703 00000078 525.98 297.19 528.25 691.77 596.63 561.83 832.96 549.23 673.92 732.17 655.79 822.97 846.49 812.28
00003704 00000079 523.54 295.07 527.72 694.29 593.50 559.67 828.09 547.83 667.27 729.63 650.21 821.07 840.20 811.30
00003705 00000080 523.12 295.10 528.32 698.98 586.24 554.00 820.88 548.41 651.32 727.20 638.51 818.30 830.35 812.52
00003706 00000081 518.14 301.14 527.41 689.59 574.34 555.70 807.62 548.83 636.83 727.44 627.03 818.81 818.37 811.94
00003707 00000082 518.59 313.78 499.82 680.04 565.94 560.29 787.97 555.83 626.79 731.41 623.18 821.39 801.62 816.40
00003708 00000083 506.14 316.07 503.92 683.48 557.28 566.53 776.15 566.35 611.66 737.39 606.77 825.77 783.53 825.03
00003709 00000084 488.14 296.10 520.39 713.55 544.32 563.83 764.73 567.29 592.68 738.66 588.78 830.26 772.65 832.53
00003710 00000085 482.02 290.03 517.41 720.15 538.36 564.30 758.31 568.61 585.01 737.38 582.35 831.35 764.17 834.36
00003711 00000086 474.76 294.76 524.34 715.10 537.16 566.91 757.16 568.83 587.21 737.77 583.94 831.98 766.14 832.90
00003712 00000087 472.71 294.44 528.60 718.93 535.89 565.31 759.30 568.94 588.42 740.11 583.47 831.89 769.72 834.14
00003713 00000088 470.14 295.19 531.28 717.68 535.07 565.57 758.55 568.96 588.25 740.54 583.89 831.91 769.96 833.91
00003714 00000089 466.82 293.75 533.00 719.15 531.77 564.57 757.68 567.58 586.48 739.90 580.77 832.22 768.15 833.92
00003715 00000090 467.01 296.44 533.36 715.41 531.36 564.50 757.07 567.67 585.71 740.74 581.00 831.76 768.77 833.59
00003716 00000091 465.67 293.43 534.53 719.24 531.69 564.92 757.73 567.68 587.39 741.29 581.65 831.99 769.99 833.47
00003717 00000092 470.57 292.02 532.71 722.99 537.32 569.15 761.57 572.73 593.06 747.41 586.29 834.32 775.13 836.44
00003718 00000093 480.69 303.76 529.80 717.01 548.30 578.92 771.01 581.00 607.18 758.91 599.14 843.79 784.47 844.90
00003719 00000094 485.52 318.95 534.29 708.34 554.96 587.94 781.65 588.33 618.20 774.28 608.70 854.18 797.05 853.85
00003720 00000095 493.09 319.65 529.03 707.48 560.35 588.78 785.78 588.18 622.26 771.44 613.51 852.35 801.22 850.94
00003721 00000096 496.03 307.30 530.48 714.93 562.38 583.94 786.92 583.65 624.59 763.41 616.01 847.25 802.82 845.83
00003722 00000097 501.64 300.51 526.25 719.23 567.05 581.36 791.53 579.79 630.46 757.23 619.63 840.90 806.55 838.19
00003723 00000098 506.85 298.16 524.25 721.86 573.29 580.82 798.72 578.75 638.01 755.54 624.78 840.49 812.99 837.20
00003724 00000099 508.99 309.53 528.89 713.03 578.10 584.90 806.73 582.70 647.79 761.54 631.37 844.15 820.85 840.31
00003725 00000100 510.22 309.92 530.95 710.41 581.03 583.46 810.03 581.30 650.13 756.97 633.69 840.96 821.51 837.02
00003726 00000101 512.46 305.27 525.16 713.34 580.19 577.58 809.45 573.76 648.16 747.91 629.89 836.07 820.47 830.89
00003727 00000102 513.38 298.25 532.61 713.30 577.27 573.82 808.11 570.45 639.23 748.60 628.25 834.00 818.49 829.97
00003728 00000103 512.03 307.50 528.22 705.20 581.81 573.56 813.16 570.39 652.72 744.83 635.04 832.59 824.33 827.71
00003729 00000104 513.07 303.57 539.22 708.09 585.39 578.62 816.84 575.03 657.00 758.82 644.84 838.24 829.35 834.07
00003730 00000105 514.82 305.04 539.21 707.65 586.63 579.20 819.98 576.07 658.52 759.73 645.43 839.87 830.72 836.04
00003731 00000106 515.57 312.04 534.86 700.94 589.92 574.97 823.49 570.85 663.36 743.90 645.20 833.31 832.38 827.24
00003732 00000107 519.61 300.63 535.68 706.99 589.12 569.99 825.00 568.61 657.63 746.16 642.86 831.62 830.95 829.49
00003733 00000108 522.40 299.17 532.01 707.22 591.82 567.86 827.17 568.50 659.83 747.31 645.17 828.61 833.45 828.12
00003734 00000109 523.93 303.56 532.13 703.97 594.62 569.95 831.52 570.02 664.92 749.35 648.92 830.14 837.77 829.22
00003735 00000110 521.30 312.02 534.33 693.96 598.85 569.44 835.49 571.29 673.53 745.80 654.74 829.23 840.65 827.72
00003736 00000111 526.90 294.64 527.78 710.13 597.53 572.59 832.20 564.11 672.03 744.86 657.00 836.89 844.11 829.24
00003737 00000112 528.44 288.70 526.67 712.88 599.88 568.69 836.21 561.20 675.33 742.70 657.42 833.98 844.81 827.36
00003738 00000113 532.47 297.64 526.65 700.53 602.52 565.88 839.55 560.14 677.17 742.90 661.23 831.08 847.93 826.02
00003739 00000114 535.07 293.87 525.90 703.01 607.05 568.23 843.06 562.12 682.39 744.47 665.39 830.61 851.12 825.40
00003740 00000115 538.69 293.38 526.25 704.68 610.88 570.03 844.77 565.32 685.85 746.10 669.17 831.37 853.24 827.26
00003741 00000116 542.83 293.12 526.52 701.26 614.53 565.80 848.55 563.84 686.63 743.20 671.94 827.13 854.17 825.35
00003742 00000117 546.26 299.00 526.28 693.05 616.14 562.90 851.77 559.91 689.03 737.48 670.97 825.30 855.99 822.70
00003743 00000118 546.86 302.20 527.79 687.83 617.14 560.53 853.83 558.20 690.03 736.01 671.86 823.23 856.98 821.34
00003744 00000119 547.40 292.74 527.00 699.41 619.97 561.65 852.08 559.57 691.36 738.40 675.48 824.27 858.18 822.60
00003745 00000120 551.49 302.34 528.30 690.83 622.60 566.35 854.53 562.97 694.80 743.63 682.07 827.10 861.45 824.12
00003746 00000121 553.12 300.42 528.00 693.48 623.38 564.47 856.35 562.17 694.89 742.91 681.76 827.15 862.16 825.10
00003747 00000122 553.07 298.37 527.61 692.38 623.38 559.52 857.99 558.06 694.93 736.04 677.81 823.36 860.82 822.30
00003748 00000123 553.51 303.50 526.85 683.16 622.97 556.33 859.20 555.74 695.13 733.57 675.52 820.23 860.17 820.08
00003749 00000124 553.34 301.65 528.07 685.47 623.28 556.43 858.89 556.09 695.79 734.77 676.51 819.99 860.60 820.03
00003750 00000125 553.03 297.92 527.49 694.23 623.59 561.68 857.51 559.78 695.17 741.76 680.83 824.60 862.24 823.12
00003751 00000126 553.75 302.01 527.68 693.57 624.34 564.16 857.76 563.00 695.52 743.81 681.81 826.77 861.32 825.76
00003752 00000127 557.27 304.52 525.95 691.47 626.77 561.50 859.82 562.06 695.66 742.24 682.32 827.00 858.83 827.71
00003753 00000128 552.61 294.89 528.33 698.16 624.14 558.78 859.69 559.89 695.84 738.48 678.00 827.28 853.67 828.96
00003754 00000129 551.40 305.01 526.32 683.64 621.70 557.52 859.14 559.25 695.16 736.04 674.75 824.86 851.58 827.19
00003755 00000130 553.06 303.79 526.61 683.57 623.62 558.22 860.38 558.63 697.30 737.95 678.49 823.16 857.89 824.12
00003756 00000131 559.03 305.03 528.10 688.39 628.15 559.09 862.41 557.66 699.75 740.30 685.08 826.23 863.34 825.21
00003757 00000132 561.33 297.27 526.85 697.87 630.79 560.57 863.18 559.70 700.77 741.05 686.06 827.00 865.09 826.24
00003758 00000133 559.24 304.79 528.51 686.35 628.62 558.24 863.81 556.67 701.43 737.81 683.76 824.33 864.44 823.21
00003759 00000134 555.43 281.40 528.06 706.04 627.14 554.10 860.15 553.54 697.23 729.78 677.07 820.20 859.00 820.16
00003760 00000135 556.08 280.91 529.79 706.61 627.33 551.37 860.13 548.54 698.73 724.76 677.82 819.37 859.15 817.39
00003761 00000136 559.63 279.20 530.49 709.22 631.09 552.58 862.98 548.02 702.89 725.49 683.66 819.39 865.44 815.67
00003762 00000137 563.79 279.36 529.54 713.44 635.38 556.45 866.65 552.06 705.31 731.20 689.50 822.81 872.27 818.89
00003763 00000138 567.58 293.03 528.05 702.22 637.28 559.22 868.31 555.09 707.33 735.14 691.99 825.39 874.49 821.49
00003764 00000139 564.86 281.05 530.28 711.83 636.03 556.23 867.82 551.63 705.63 728.66 688.50 822.37 871.42 818.35
00003765 00000140 567.57 265.54 525.77 724.74 635.74 550.09 864.58 542.57 701.13 717.57 682.68 817.30 869.38 811.07
00003766 00000141 566.45 275.98 529.64 709.48 634.63 543.12 867.36 537.78 702.33 711.20 679.65 810.38 870.08 805.92
00003767 00000142 571.38 265.01 525.84 723.46 638.77 545.80 871.47 540.52 705.50 714.96 683.38 812.90 873.92 808.50
00003768 00000143 573.62 284.37 527.51 707.75 640.92 553.66 875.72 548.32 711.82 725.50 692.25 819.17 881.08 814.27
00003769 00000144 569.95 292.18 529.15 700.70 639.58 557.51 873.93 553.64 710.45 730.48 691.56 823.98 875.97 820.57
00003770 00000145 560.77 283.72 531.31 710.14 632.57 555.61 867.10 550.78 703.55 727.93 684.41 823.27 869.54 819.13
00003771 00000146 562.65 285.14 529.15 706.42 630.86 551.69 863.67 546.77 699.08 720.93 679.25 820.03 864.33 815.92
00003772 00000147 562.39 283.16 529.89 707.39 630.56 550.30 863.19 545.24 699.05 721.14 679.89 819.41 865.09 815.12
00003773 00000148 562.10 279.43 531.64 712.82 633.74 553.66 866.26 550.26 703.16 728.67 686.70 822.20 870.25 819.11
00003774 00000149 563.04 295.43 532.11 698.95 633.03 556.11 867.74 553.00 704.09 733.35 687.98 824.67 871.65 821.74
00003775 00000150 560.92 288.10 531.94 705.81 631.39 555.41 865.43 552.41 700.38 729.51 683.50 823.29 868.65 820.50
00003776 00000151 561.92 280.01 528.09 710.99 631.13 552.00 862.81 548.98 698.40 722.39 679.07 819.58 863.78 817.06
00003777 00000152 564.59 278.72 528.15 712.17 633.17 550.61 864.22 546.79 699.14 719.72 680.51 817.86 866.64 814.54
00003778 00000153 571.40 299.81 529.24 691.40 638.89 553.51 871.58 550.42 706.73 725.53 689.91 819.24 875.52 816.08
00003779 00000154 576.88 301.48 526.49 691.77 642.95 558.37 877.36 555.25 713.12 733.87 695.21 823.74 881.32 820.61
00003780 00000155 577.50 300.54 525.69 692.72 642.86 556.80 876.52 553.07 710.70 729.08 693.26 823.05 879.11 819.53
00003781 00000156 575.77 291.71 525.73 699.50 641.83 551.38 872.84 549.98 706.73 722.62 688.77 817.09 875.35 815.34
00003782 00000157 577.21 275.60 524.18 715.43 642.80 548.29 874.95 545.50 707.07 717.89 685.97 814.00 876.46 811.33
00003783 00000158 581.75 276.59 520.08 715.41 643.90 549.55 878.46 546.25 709.74 720.59 689.77 816.53 881.19 813.40
00003784 00000159 583.84 280.31 519.30 714.72 647.34 553.65 884.80 550.80 716.35 727.09 695.34 821.50 886.17 818.81
00003785 00000160 586.72 297.98 523.22 695.14 649.59 554.36 890.29 551.89 722.08 728.06 698.32 821.43 889.22 819.13
00003786 00000161 589.90 286.04 521.01 708.57 651.53 551.24 891.63 549.38 720.18 721.88 695.28 817.50 889.58 815.72
00003787 00000162 589.03 273.23 516.41 720.47 649.36 548.27 888.48 545.75 717.23 718.46 692.55 816.13 886.70 813.72
00003788 00000163 587.47 280.57 518.14 712.68 649.15 549.30 888.34 547.22 717.71 720.96 693.25 815.87 887.81 813.71
00003789 00000164 588.04 286.63 520.81 708.60 651.94 553.11 891.52 551.62 722.81 727.37 699.15 820.36 892.40 818.74
00003790 00000165 589.00 301.15 524.61 693.07 654.38 553.82 898.36 552.89 729.98 729.01 703.27 820.98 895.23 819.94
00003791 00000166 589.98 285.62 523.67 708.14 654.24 550.16 896.37 549.05 726.36 722.05 699.02 816.03 892.65 814.84
00003792 00000167 591.05 267.79 518.35 727.51 651.54 546.50 893.76 544.50 721.01 714.98 692.32 813.18 890.47 811.18
00003793 00000168 590.83 268.51 516.32 725.07 650.99 546.22 891.28 543.90 720.35 715.77 692.51 813.21 889.32 810.98
00003794 00000169 590.24 290.58 522.03 703.96 654.87 550.84 896.74 549.27 727.49 723.77 700.15 817.19 894.21 815.63
00003795 00000170 590.38 297.42 523.23 696.44 657.06 553.69 900.54 552.97 732.84 729.86 704.84 820.24 896.92 819.42
