Video ID: 	8ydJJCdTKMI
H: 	1080
W: 	1920
FPS: 	25.0

FRAME INDEX X0 Y0 W H [Landmarks (5 Points)]

00005665 00000000 777.95 173.37 358.70 526.15 919.67 376.83 1080.93 384.21 1029.54 474.89 921.47 562.83 1058.20 570.39
00005666 00000001 786.54 183.16 353.49 515.78 929.87 389.95 1087.86 393.17 1041.47 482.43 937.80 567.93 1067.81 572.17
00005667 00000002 794.53 189.11 347.00 510.93 936.67 400.88 1091.44 402.07 1048.17 495.65 951.98 579.08 1070.78 581.56
00005668 00000003 796.95 197.16 346.30 502.96 934.98 410.13 1090.69 406.46 1043.96 510.59 960.63 591.59 1070.09 589.43
00005669 00000004 796.05 201.26 348.61 501.29 932.76 414.01 1091.67 409.44 1042.41 516.00 960.82 597.55 1070.28 594.41
00005670 00000005 794.46 202.32 350.23 500.72 930.96 416.17 1090.35 411.24 1039.47 517.74 959.00 597.13 1069.88 593.48
00005671 00000006 793.75 202.13 350.75 502.01 929.13 416.06 1089.50 411.13 1037.61 518.34 957.57 598.30 1068.92 594.64
00005672 00000007 793.74 200.29 351.18 504.36 927.07 414.77 1089.84 410.18 1037.10 517.81 957.39 600.40 1068.95 597.06
00005673 00000008 793.33 200.48 352.28 505.81 926.15 414.47 1088.97 409.88 1035.56 519.82 956.96 600.99 1068.37 597.57
00005674 00000009 792.37 201.12 353.24 506.29 926.54 415.03 1089.23 410.47 1035.32 521.94 956.46 601.53 1067.77 598.07
00005675 00000010 793.02 201.40 353.35 505.56 926.77 415.74 1089.82 411.48 1035.19 522.10 956.08 601.32 1067.95 598.16
00005676 00000011 793.07 202.32 354.07 504.19 926.79 416.80 1090.15 412.60 1035.14 522.24 955.93 601.14 1068.53 597.99
00005677 00000012 792.67 203.07 354.80 503.23 926.24 417.30 1090.46 413.79 1034.39 521.97 953.14 599.81 1068.47 597.33
00005678 00000013 792.25 202.65 355.49 502.90 925.63 417.16 1090.40 413.74 1033.49 521.35 951.45 598.68 1068.36 596.26
00005679 00000014 791.64 203.45 355.16 499.19 923.53 417.28 1088.45 412.63 1030.69 520.08 946.86 595.71 1067.77 592.44
00005680 00000015 790.38 202.92 354.47 497.51 919.60 414.29 1086.05 410.49 1026.40 514.59 940.58 591.28 1066.00 588.79
00005681 00000016 786.78 197.23 356.57 500.92 915.26 410.48 1082.33 407.38 1022.04 508.97 934.19 585.72 1064.75 583.88
00005682 00000017 782.17 187.77 357.62 503.45 910.96 410.04 1076.88 407.43 1016.09 501.07 929.21 579.23 1061.70 577.64
00005683 00000018 777.19 187.72 359.85 497.35 907.99 409.32 1073.07 406.53 1011.91 494.08 921.30 571.42 1059.34 569.54
00005684 DELETE   772.78 180.56 361.84 497.50 901.57 403.46 1068.27 404.01 1000.19 490.39 912.81 557.93 1053.66 558.73
00005685 00000020 768.56 170.84 361.90 501.19 891.98 392.81 1055.61 389.12 991.71 479.51 903.46 550.54 1045.48 548.92
00005686 00000021 765.70 166.96 360.29 502.80 882.66 388.41 1046.78 386.28 979.21 473.21 891.64 547.07 1036.46 546.49
00005687 00000022 760.47 163.11 361.80 506.79 868.99 385.47 1039.60 385.71 963.33 473.77 888.59 549.48 1034.56 549.65
00005688 00000023 756.81 160.68 358.38 507.33 861.14 376.64 1029.52 385.11 948.23 466.67 875.55 541.41 1020.44 548.68
00005689 00000024 751.88 157.20 359.36 509.33 853.67 370.23 1022.24 382.52 935.41 459.46 861.63 533.99 1008.38 544.90
00005690 00000025 746.91 158.82 360.19 511.07 846.94 365.28 1017.92 380.94 925.21 455.06 849.00 530.51 1000.99 544.21
00005691 00000026 743.77 157.65 361.13 509.71 835.55 362.02 1004.98 378.06 912.22 453.24 833.59 530.58 988.39 545.01
00005692 00000027 740.01 158.73 361.85 510.11 831.12 360.59 999.81 379.01 902.38 453.34 825.91 531.20 978.73 547.64
00005693 00000028 736.79 159.27 361.73 512.79 825.45 360.68 993.81 381.02 891.43 454.98 817.36 531.30 970.76 549.50
00005694 00000029 736.23 161.09 360.51 514.21 822.40 360.47 989.36 381.45 884.42 455.95 812.69 530.92 964.87 549.98
00005695 00000030 736.51 162.48 358.93 514.60 821.09 361.72 986.49 382.95 880.23 456.94 810.66 531.11 962.89 550.44
00005696 00000031 736.73 163.86 357.55 515.03 820.00 363.81 983.87 384.11 878.21 458.39 809.79 531.48 961.91 550.09
00005697 00000032 736.71 165.40 356.68 515.36 818.80 366.31 982.05 385.44 876.60 459.25 809.22 533.04 961.67 550.58
00005698 00000033 736.62 165.46 356.89 513.13 817.71 368.00 980.49 385.91 875.95 460.00 809.64 533.63 960.32 550.15
00005699 00000034 736.57 163.04 357.23 511.53 816.37 369.00 979.54 386.55 874.47 460.75 809.84 535.02 958.57 551.24
00005700 00000035 737.17 160.71 356.17 505.32 815.26 371.11 978.27 387.88 873.91 462.47 810.26 535.67 957.45 550.89
00005701 00000036 736.48 158.73 356.81 501.20 815.54 370.66 979.68 387.65 874.79 461.31 810.69 535.59 958.20 550.60
00005702 00000037 735.92 159.35 357.28 500.39 817.07 368.05 981.56 384.62 878.21 458.28 812.78 534.42 960.45 549.11
00005703 00000038 734.81 157.77 359.03 502.24 818.65 366.16 984.54 382.35 883.01 456.68 815.92 535.40 963.90 549.58
00005704 00000039 735.40 157.66 359.32 503.10 821.35 365.66 986.94 381.32 887.47 455.51 819.70 536.04 967.12 549.66
00005705 00000040 736.70 157.66 358.03 498.81 825.79 363.26 990.10 378.19 895.27 453.45 825.46 533.83 969.02 546.85
00005706 00000041 738.00 153.48 357.33 498.31 829.36 359.34 995.03 373.45 903.34 448.53 831.23 531.22 973.34 543.80
00005707 00000042 740.15 151.19 355.84 496.75 836.72 353.23 1008.50 370.39 909.75 442.32 841.20 525.55 980.69 541.41
00005708 00000043 743.92 150.46 357.04 498.22 841.56 350.99 1015.40 370.65 916.43 440.73 844.77 524.74 986.94 542.51
00005709 00000044 747.52 149.18 356.85 502.23 845.94 350.82 1020.22 371.00 923.59 441.61 849.02 524.94 994.12 543.12
00005710 00000045 748.89 149.83 357.50 502.38 849.30 351.35 1024.01 371.60 928.34 442.37 852.44 525.51 998.18 543.61
00005711 00000046 749.59 148.71 358.08 503.26 850.19 351.33 1025.41 370.25 930.27 442.69 854.21 526.18 999.78 543.21
00005712 00000047 749.25 146.30 358.54 504.69 850.38 350.52 1026.08 367.99 931.93 442.90 856.27 527.12 1001.54 542.96
00005713 00000048 750.07 144.34 359.39 508.03 851.53 348.94 1027.45 365.23 934.35 442.74 859.23 527.69 1004.72 542.52
00005714 00000049 751.31 143.32 360.23 511.96 852.69 348.39 1027.70 364.22 935.71 443.28 860.95 527.82 1006.58 542.26
00005715 00000050 752.78 144.63 359.25 513.88 853.69 350.66 1027.35 365.35 935.98 446.46 862.00 530.10 1006.25 543.63
00005716 00000051 753.08 145.85 358.73 514.21 854.10 353.39 1026.35 367.76 935.47 451.29 862.62 532.02 1005.32 545.25
00005717 00000052 752.39 147.26 358.87 512.99 854.55 354.34 1025.58 368.81 935.49 453.52 863.63 532.76 1004.04 546.07
00005718 00000053 750.86 146.74 360.93 512.58 854.86 356.65 1021.72 370.67 936.98 456.07 868.37 536.02 997.53 548.84
00005719 00000054 750.51 146.61 361.85 515.24 854.99 357.52 1022.54 373.14 937.55 458.19 868.22 538.07 996.35 552.10
00005720 00000055 754.44 149.58 361.44 516.83 856.50 361.11 1023.24 376.24 938.06 461.79 871.16 542.52 997.66 556.03
00005721 00000056 762.00 155.66 359.42 516.33 865.03 367.19 1030.59 377.66 949.09 468.32 882.43 553.36 1006.67 562.95
00005722 00000057 765.82 156.18 359.82 516.73 874.41 372.24 1038.38 379.06 963.47 467.90 892.27 557.69 1010.71 564.63
00005723 00000058 768.85 156.81 358.21 516.57 877.09 372.37 1041.31 379.91 966.11 470.14 895.10 560.13 1011.40 567.64
00005724 00000059 769.44 156.70 358.18 516.99 876.84 371.88 1039.71 379.67 963.69 468.98 895.50 560.29 1009.41 567.98
00005725 00000060 769.24 157.24 358.62 517.62 874.93 371.04 1038.16 380.47 960.54 468.15 890.88 559.14 1006.96 568.19
00005726 00000061 769.14 158.60 357.29 514.41 872.83 370.02 1036.04 381.24 957.02 468.63 886.18 556.87 1005.61 567.42
00005727 00000062 769.56 159.38 356.92 512.68 871.92 370.25 1035.32 381.97 954.63 468.70 884.15 555.15 1005.17 566.04
00005728 00000063 770.43 160.09 357.78 511.82 871.34 370.37 1035.58 382.65 952.13 468.27 881.98 554.79 1004.66 566.00
00005729 00000064 771.06 159.93 357.09 512.44 870.35 371.23 1034.56 384.10 949.03 470.06 879.88 555.31 1002.81 566.99
00005730 00000065 772.56 160.63 356.14 512.23 868.67 372.11 1032.31 385.35 944.38 470.91 877.30 555.84 1000.02 567.77
00005731 00000066 771.79 162.10 356.49 511.18 866.09 372.23 1029.42 386.43 939.12 470.56 873.03 555.61 993.82 568.36
00005732 00000067 772.81 157.57 355.50 517.69 863.95 366.20 1022.53 387.01 923.63 472.23 862.32 553.62 978.38 572.39
00005733 00000068 774.49 158.04 352.83 516.98 861.96 364.99 1018.16 387.97 914.81 469.85 857.21 550.50 972.24 571.10
00005734 00000069 774.77 158.97 352.09 516.22 860.77 363.18 1014.91 387.59 908.71 466.84 853.57 547.56 967.94 569.48
00005735 00000070 775.39 158.71 350.81 517.40 856.63 360.72 1012.23 387.76 902.52 467.76 846.61 542.18 969.12 566.23
00005736 00000071 775.09 161.16 348.44 518.92 852.12 359.30 1008.94 389.70 896.62 469.65 838.26 539.11 969.30 566.06
00005737 00000072 776.65 166.63 342.47 516.40 845.22 364.01 1001.05 393.07 884.17 470.25 829.54 539.22 969.07 564.87
00005738 00000073 774.23 170.19 342.93 511.28 842.29 360.77 996.02 394.52 876.80 467.56 822.05 535.98 962.01 565.67
00005739 00000074 770.61 168.32 348.59 507.93 839.73 353.47 992.88 394.12 871.12 465.61 815.90 528.94 956.28 564.29
00005740 00000075 769.37 167.06 352.20 504.01 839.48 350.68 994.25 394.46 870.51 465.62 813.51 526.95 953.69 565.08
00005741 00000076 769.21 167.82 353.34 501.29 840.76 349.66 995.54 394.06 872.10 465.65 815.71 528.56 952.26 567.29
00005742 00000077 770.23 165.91 352.34 503.31 842.33 350.43 996.38 392.04 874.17 464.52 819.36 531.56 950.41 568.17
00005743 00000078 769.45 163.93 352.17 506.73 842.04 353.44 996.56 391.34 873.62 465.47 820.77 538.24 944.40 572.09
00005744 00000079 769.34 164.32 350.59 507.73 841.11 356.04 995.63 391.98 870.66 467.37 820.70 544.02 939.25 576.34
00005745 00000080 768.31 163.26 349.59 512.55 838.70 356.23 994.86 392.28 869.16 469.38 817.85 547.79 936.75 580.20
00005746 00000081 767.80 164.28 347.36 513.56 836.99 358.50 992.74 393.44 867.04 472.49 817.57 550.51 935.20 581.87
00005747 00000082 765.92 165.57 347.62 515.53 835.81 360.26 991.93 395.05 866.46 475.49 817.32 552.92 934.72 583.99
00005748 00000083 764.57 167.93 347.35 513.18 835.26 362.31 990.07 396.37 866.89 477.55 817.92 553.28 934.80 583.70
00005749 00000084 761.98 169.07 348.92 512.56 833.38 363.07 988.45 397.35 866.46 478.20 816.26 552.80 934.25 583.33
00005750 00000085 759.43 167.33 350.98 512.78 831.75 362.01 987.55 396.92 865.39 477.85 815.41 551.91 933.94 582.93
00005751 00000086 749.56 157.35 355.86 513.00 837.30 360.05 998.61 389.18 892.96 459.62 822.88 541.55 945.68 568.76
00005752 00000087 740.41 147.44 365.14 503.41 843.23 352.41 1006.53 381.25 909.61 455.23 842.13 532.01 960.28 557.17
00005753 00000088 737.00 136.22 364.57 509.37 848.18 344.38 1013.85 369.35 925.19 441.76 849.08 522.87 974.02 545.09
00005754 00000089 736.20 130.46 364.47 515.87 850.10 338.48 1017.92 361.85 932.44 433.23 850.82 521.39 977.59 542.35
00005755 00000090 734.70 131.34 364.06 516.29 847.92 338.59 1017.45 361.84 930.68 432.29 847.79 520.88 977.38 541.89
00005756 00000091 732.14 131.11 363.03 519.89 844.48 339.85 1017.19 362.70 928.92 432.04 844.98 522.91 978.15 543.53
00005757 00000092 730.21 133.52 362.33 520.16 842.63 341.90 1015.23 365.36 926.89 434.66 843.26 524.68 975.88 545.77
00005758 00000093 729.34 134.79 361.38 519.33 840.70 343.39 1012.72 365.84 924.46 435.51 841.84 525.66 973.69 545.93
00005759 00000094 727.55 134.55 361.24 519.63 838.76 344.04 1010.07 365.28 922.42 434.44 840.40 525.29 972.12 544.52
00005760 00000095 725.14 132.97 362.71 519.79 836.76 342.86 1006.26 363.01 920.01 431.93 838.97 524.63 968.77 542.91
00005761 00000096 724.58 129.96 362.47 517.68 836.43 341.72 1003.69 359.81 919.17 430.09 840.47 523.33 967.81 539.81
00005762 00000097 723.49 129.72 362.93 513.07 835.42 341.67 1001.60 357.82 917.26 430.17 840.24 523.24 964.71 537.98
00005763 00000098 723.05 126.41 363.32 514.51 836.52 341.17 999.89 356.18 917.76 429.62 842.90 523.06 963.44 536.78
00005764 00000099 722.30 123.56 364.07 516.51 836.50 339.54 999.60 354.99 917.54 426.86 842.70 522.34 962.79 536.38
00005765 00000100 721.83 122.63 363.95 516.97 836.29 338.85 999.19 354.16 917.83 425.87 843.14 522.90 962.29 536.76
00005766 00000101 721.83 123.37 363.94 516.06 835.88 340.20 998.81 354.15 917.76 428.51 844.05 524.82 962.06 537.53
00005767 00000102 721.71 123.86 364.43 517.27 835.01 342.62 998.68 355.39 917.94 430.88 844.96 527.70 962.66 539.41
00005768 00000103 722.39 122.61 364.62 521.51 835.32 342.99 999.22 354.85 919.23 430.78 846.47 529.87 963.25 540.87
00005769 00000104 724.11 121.47 364.06 524.28 835.94 342.56 999.94 353.82 920.47 428.84 847.22 530.24 964.69 540.83
00005770 00000105 724.65 120.37 366.14 525.32 836.99 340.86 1001.13 352.12 921.58 426.20 847.96 529.16 966.28 539.80
00005771 00000106 724.79 119.43 368.16 526.28 837.26 339.88 1002.28 351.12 922.28 425.40 849.45 528.56 969.07 539.09
00005772 00000107 725.92 119.44 368.85 526.66 838.02 339.69 1003.08 351.01 923.06 425.57 850.15 528.64 970.28 539.26
00005773 00000108 726.42 119.99 369.27 526.25 838.44 340.77 1003.16 351.71 922.92 426.83 851.49 529.44 971.17 539.68
00005774 00000109 726.85 119.27 369.64 528.26 837.74 341.88 1003.19 352.74 922.39 429.18 851.81 530.50 972.43 540.68
00005775 00000110 726.70 120.23 369.89 527.56 836.63 342.61 1002.92 353.00 921.61 430.05 851.82 530.98 973.39 540.77
00005776 00000111 728.23 120.55 369.54 527.24 835.73 343.08 1002.85 352.33 920.77 430.04 851.74 529.50 976.70 538.26
00005777 00000112 728.33 121.18 370.04 526.24 834.71 342.92 1002.57 351.43 919.95 427.38 851.69 527.69 979.04 535.74
00005778 00000113 729.06 120.80 370.70 530.38 833.64 343.70 1002.28 351.45 918.89 426.69 850.84 526.73 981.99 534.13
00005779 00000114 729.47 120.78 370.89 532.35 832.13 344.88 1001.85 350.63 918.35 427.92 851.30 528.44 984.43 534.10
00005780 00000115 730.24 121.33 370.24 534.27 831.61 346.24 1001.27 350.79 918.25 433.45 852.87 531.46 984.37 536.12
00005781 00000116 731.18 120.86 370.25 537.45 830.32 347.41 1001.73 351.63 917.44 435.29 853.01 531.97 988.49 536.04
00005782 00000117 731.47 121.54 371.58 537.31 830.15 348.05 1002.60 350.95 918.33 435.13 854.03 532.25 991.16 535.16
00005783 00000118 731.83 121.44 372.66 538.00 830.24 348.00 1004.15 349.74 918.23 432.37 853.66 533.27 992.02 535.38
00005784 00000119 731.53 121.71 373.80 538.80 829.03 347.53 1004.01 348.02 916.61 431.21 852.99 534.40 991.85 535.64
00005785 00000120 730.96 121.02 374.26 536.56 827.63 348.17 1002.79 347.36 915.53 429.63 853.05 533.81 991.88 533.81
00005786 00000121 728.96 122.02 374.99 529.76 826.07 348.68 999.63 346.42 915.18 428.97 854.01 532.50 990.23 531.27
00005787 00000122 727.74 124.33 374.37 523.04 827.52 350.15 996.40 346.39 916.57 430.51 858.62 532.84 987.88 530.55
00005788 00000123 725.99 124.14 374.48 524.66 825.24 352.44 994.65 347.79 915.26 434.61 858.17 533.45 989.48 530.28
00005789 00000124 724.15 123.18 374.25 529.80 822.11 354.59 991.96 349.78 912.22 437.40 855.96 536.77 987.28 533.41
00005790 00000125 720.45 124.50 375.37 532.67 819.48 356.21 988.94 350.23 909.97 440.20 855.74 541.27 983.94 536.89
00005791 00000126 717.29 125.98 377.94 529.73 815.73 357.30 985.73 349.38 906.42 438.90 853.33 539.49 983.31 533.40
00005792 00000127 715.63 126.96 378.34 527.96 811.36 358.41 982.44 347.20 902.82 439.06 852.55 538.74 985.49 529.79
00005793 00000128 712.85 127.85 379.45 526.93 807.06 360.07 979.19 346.45 899.65 440.73 851.39 539.52 987.10 528.18
00005794 00000129 709.86 127.91 381.61 529.08 802.11 361.56 976.51 345.54 895.02 439.55 848.59 541.01 986.48 527.58
00005795 00000130 707.72 128.39 382.68 529.97 799.45 364.08 973.72 347.17 891.63 439.38 846.39 541.76 984.60 527.48
00005796 00000131 707.20 130.65 382.55 529.83 798.05 365.80 971.47 347.81 889.44 441.74 846.14 542.75 984.72 527.47
00005797 00000132 707.69 132.22 383.29 530.58 798.71 367.47 971.65 348.84 890.12 444.33 847.31 544.96 985.66 529.13
00005798 00000133 709.39 134.31 382.15 528.81 800.54 369.25 972.32 349.36 892.23 445.61 849.79 547.22 986.00 530.47
00005799 00000134 708.93 136.28 383.15 528.96 802.34 369.61 972.52 350.40 893.35 447.58 851.71 549.64 984.18 533.63
00005800 00000135 710.15 137.65 382.23 528.34 803.60 369.05 974.04 350.51 894.33 447.77 852.33 550.49 984.04 535.22
00005801 00000136 711.11 137.44 381.39 528.67 803.90 368.16 975.02 350.88 893.91 446.98 851.99 550.51 983.21 536.40
00005802 00000137 711.93 137.48 380.51 528.40 803.97 367.61 975.49 350.74 893.54 445.94 851.03 550.32 982.56 536.67
00005803 00000138 711.97 137.39 380.13 528.55 802.86 367.71 974.77 350.72 891.96 445.32 849.89 550.25 981.97 536.49
00005804 00000139 712.28 137.53 379.98 529.41 801.72 368.44 974.09 350.67 890.51 445.74 849.21 550.58 982.88 536.07
00005805 00000140 713.16 136.99 379.13 534.55 800.50 369.68 973.01 349.58 888.15 446.25 849.02 552.83 985.15 536.19
00005806 00000141 714.17 137.06 379.80 543.70 799.89 370.79 972.42 348.09 886.75 447.19 847.99 556.13 987.59 537.26
00005807 00000142 716.75 137.74 378.76 547.62 799.61 372.15 972.96 347.64 885.24 448.58 846.65 557.61 989.76 537.25
00005808 00000143 717.61 139.06 380.26 546.16 800.39 373.10 973.24 347.04 886.13 449.93 848.23 557.74 992.18 536.00
00005809 00000144 719.24 139.21 380.19 545.89 801.24 373.84 973.63 346.70 886.80 451.60 849.99 557.80 994.30 535.00
00005810 00000145 720.33 140.58 381.03 546.03 801.00 376.08 972.73 346.46 886.07 452.74 851.07 558.91 996.07 533.89
00005811 00000146 721.85 143.28 380.94 550.75 802.15 377.14 971.50 346.36 885.31 455.12 852.07 562.41 995.85 536.55
00005812 00000147 727.92 151.11 380.29 544.73 803.88 381.88 972.82 347.21 888.23 455.21 853.51 567.29 997.00 538.20
00005813 00000148 727.60 151.75 380.81 546.25 803.12 381.79 971.40 346.42 885.58 454.39 853.56 567.82 996.45 538.14
00005814 00000149 728.34 150.46 380.93 547.62 803.61 380.68 971.48 345.55 885.24 453.94 853.98 567.82 995.97 538.56
CROP_BBOX: 515 0 1339 825
