Video ID: 	Gcj9akf35ls
H: 	1080
W: 	1920
FPS: 	29.97002997002997

FRAME INDEX X0 Y0 W H [Landmarks (5 Points)]

00007681 00000000 801.44 156.49 403.50 599.67 845.21 368.76 975.97 385.05 821.22 481.26 854.19 582.38 980.86 593.32
00007682 00000001 799.82 158.64 406.81 598.77 845.67 366.02 979.52 382.45 821.55 480.36 857.14 581.91 989.55 592.33
00007683 DELETE   802.90 158.86 409.85 592.76 849.98 366.29 992.25 383.40 834.70 479.97 858.75 574.63 1002.66 586.04
00007684 00000003 811.48 149.30 420.22 614.28 861.83 371.14 1004.79 377.80 853.41 474.53 869.67 574.60 1015.00 576.41
00007685 00000004 824.40 152.56 417.94 605.73 871.53 376.13 1029.55 379.39 872.38 466.83 876.55 580.18 1021.64 582.61
00007686 00000005 841.90 149.56 417.33 604.11 894.85 361.90 1059.60 369.14 911.32 465.50 893.09 579.02 1042.19 584.91
00007687 DELETE   856.58 153.60 410.30 601.39 911.82 366.62 1079.78 365.37 941.56 460.13 915.60 583.25 1069.14 582.25
00007688 00000007 863.76 148.49 417.96 598.69 925.60 368.88 1099.55 362.32 967.56 455.48 933.74 576.20 1087.96 570.57
00007689 DELETE   869.30 144.41 422.57 586.02 937.25 366.55 1121.85 359.94 993.22 454.52 949.19 566.68 1108.62 560.84
00007690 00000009 875.47 142.34 418.57 585.27 947.17 366.41 1136.82 356.70 1013.54 452.17 961.56 564.17 1127.45 556.54
00007691 00000010 878.84 144.82 417.36 581.73 955.58 368.35 1144.57 362.58 1023.32 453.96 969.06 566.30 1133.51 561.84
00007692 00000011 884.59 145.30 411.90 580.98 960.59 368.78 1145.48 369.42 1023.73 462.60 969.83 568.16 1125.53 568.66
00007693 00000012 886.21 145.36 407.54 580.55 961.83 368.40 1141.53 375.25 1019.60 466.40 965.77 567.82 1112.40 573.49
00007694 00000013 887.43 145.20 407.10 582.99 958.18 367.90 1137.50 381.46 1005.26 469.95 953.31 567.29 1098.87 578.69
00007695 00000014 885.96 142.43 408.54 586.91 959.34 363.65 1136.87 389.32 994.72 469.71 941.86 562.42 1086.94 584.32
00007696 00000015 877.58 155.01 415.57 580.54 957.26 363.96 1132.19 398.70 983.72 469.32 931.53 559.11 1078.55 588.67
00007697 00000016 868.25 163.64 418.72 582.61 948.90 365.39 1117.12 403.03 966.61 475.76 921.31 563.73 1068.46 595.08
00007698 00000017 860.88 163.96 414.64 584.30 935.38 365.14 1102.67 400.59 951.72 475.12 911.36 566.00 1065.18 595.08
00007699 00000018 848.16 163.24 417.78 590.26 918.40 358.60 1080.18 394.31 923.18 469.30 895.09 565.52 1050.52 594.69
00007700 00000019 844.35 166.42 415.03 581.59 905.71 357.80 1065.96 393.41 901.64 468.75 882.95 566.31 1033.94 595.57
00007701 00000020 839.70 167.87 413.39 573.28 897.86 356.30 1055.47 391.32 889.71 467.14 878.82 564.50 1026.93 592.97
00007702 00000021 836.57 158.03 413.40 587.83 890.26 358.17 1051.88 384.59 887.67 463.98 870.67 573.75 1010.92 596.34
00007703 00000022 832.06 144.26 407.01 637.75 895.05 353.20 1043.80 370.00 889.24 449.77 879.28 588.03 994.40 603.96
00007704 00000023 834.32 146.00 400.84 666.13 895.77 348.24 1044.51 356.74 889.04 437.48 878.66 607.50 989.85 616.25
00007705 00000024 833.21 152.74 401.24 673.86 898.74 343.19 1045.03 352.02 888.71 430.93 879.80 612.70 995.09 620.61
00007706 00000025 832.67 150.95 402.60 677.42 897.64 343.83 1047.12 346.10 891.27 423.47 880.52 613.62 997.16 616.34
00007707 00000026 836.40 148.97 402.19 665.20 902.16 343.98 1050.59 347.26 899.61 424.43 886.11 606.30 1002.82 610.01
00007708 00000027 838.51 148.60 404.80 659.94 902.74 343.39 1054.66 346.18 905.93 422.39 887.16 601.68 1007.28 605.29
00007709 00000028 840.43 147.30 405.98 656.12 901.50 347.53 1062.43 349.27 918.56 426.95 892.84 600.65 1015.04 603.77
00007710 00000029 844.16 137.37 409.04 645.32 906.23 350.58 1080.59 352.37 938.24 433.98 902.37 591.39 1035.59 595.19
00007711 00000030 847.83 138.32 409.15 637.54 910.79 352.76 1091.81 355.47 949.50 440.25 908.09 588.92 1048.64 593.28
00007712 00000031 851.79 138.24 411.22 633.89 917.17 356.51 1095.71 358.47 958.95 445.42 916.81 589.83 1054.92 593.44
00007713 00000032 852.26 136.70 419.90 633.68 923.54 359.56 1103.58 366.69 967.32 453.09 920.29 589.68 1059.63 597.12
00007714 00000033 852.90 145.58 421.10 626.46 928.13 369.58 1110.99 376.27 974.49 460.20 924.13 592.30 1068.40 598.85
00007715 00000034 857.66 151.15 418.37 627.17 935.88 384.32 1116.48 388.17 979.81 465.79 931.84 601.06 1074.73 605.39
00007716 00000035 860.80 150.76 415.71 634.95 934.02 384.19 1112.61 389.08 972.22 473.55 928.08 608.94 1070.68 614.40
00007717 00000036 865.89 155.93 411.37 631.31 933.96 380.55 1104.88 391.33 968.31 478.32 931.72 605.51 1051.27 616.63
00007718 00000037 872.89 162.98 401.53 624.96 935.86 380.39 1099.55 397.53 962.72 485.90 932.50 606.10 1048.66 622.04
00007719 00000038 877.35 169.74 396.33 622.29 935.77 380.81 1093.43 400.61 955.26 488.67 929.80 608.36 1046.39 626.15
00007720 00000039 872.95 163.86 403.16 627.58 934.91 379.23 1088.65 396.76 942.61 488.41 920.46 604.47 1060.11 618.27
00007721 00000040 868.29 166.14 410.27 617.48 934.15 378.08 1091.74 396.57 941.71 482.90 918.05 597.10 1063.52 611.54
00007722 00000041 863.34 165.72 416.71 608.08 931.04 375.25 1091.32 396.60 940.46 479.51 915.52 589.38 1064.73 605.75
00007723 00000042 864.82 163.18 415.66 606.94 930.98 375.60 1090.34 393.42 939.09 473.87 916.48 589.65 1061.15 603.53
00007724 00000043 867.76 157.72 411.84 621.79 933.68 374.27 1089.53 387.96 938.55 470.85 919.96 594.74 1061.99 605.29
00007725 00000044 865.68 156.06 411.02 644.31 933.43 371.08 1086.00 376.55 934.01 466.42 923.36 600.51 1071.98 603.51
00007726 00000045 866.33 153.19 413.58 640.38 930.82 369.10 1088.87 372.06 934.07 462.32 922.75 595.50 1079.71 596.49
00007727 00000046 866.02 153.40 413.73 613.58 929.03 369.77 1088.68 376.99 936.48 461.68 920.44 576.13 1078.68 581.07
00007728 00000047 862.44 158.16 418.22 593.18 919.63 377.51 1086.20 380.67 931.77 459.59 916.44 575.22 1078.53 576.63
00007729 00000048 856.83 153.07 421.51 596.77 911.09 378.44 1078.85 380.69 922.54 461.12 912.52 580.52 1073.11 580.71
00007730 00000049 857.13 161.69 416.51 592.01 912.69 377.74 1076.10 385.12 921.57 461.63 909.55 584.77 1060.62 590.32
00007731 00000050 862.82 172.57 408.67 577.78 919.55 385.46 1076.19 394.67 924.88 465.28 906.87 587.23 1041.22 595.56
00007732 00000051 863.96 171.71 402.34 574.92 911.57 391.44 1067.77 403.60 921.48 477.36 900.33 588.60 1020.34 600.36
00007733 00000052 862.39 179.13 403.60 577.54 921.67 392.38 1073.33 413.02 927.26 491.95 901.67 593.38 1029.34 610.82
00007734 00000053 869.06 191.74 399.20 575.65 919.53 401.99 1075.20 420.58 930.73 499.43 904.66 601.14 1027.71 618.10
00007735 00000054 877.47 193.96 398.81 589.50 930.14 409.34 1087.75 429.96 947.51 511.77 922.34 614.18 1044.31 632.64
00007736 00000055 877.43 202.32 405.48 585.77 930.91 414.22 1095.07 431.49 955.11 518.74 926.78 619.12 1055.93 634.26
00007737 00000056 877.51 204.69 408.83 590.90 934.28 423.70 1096.80 437.30 961.54 525.75 935.39 627.94 1061.59 639.89
00007738 00000057 878.73 207.60 409.53 602.98 935.03 435.07 1094.72 440.90 962.84 533.70 944.63 646.77 1064.91 652.07
00007739 00000058 875.24 213.75 421.52 601.15 936.00 448.89 1103.30 450.27 959.84 544.88 941.95 657.81 1077.95 659.22
00007740 00000059 876.65 220.47 423.44 601.23 935.96 452.21 1104.68 453.61 961.82 552.68 944.94 662.70 1083.17 664.03
00007741 00000060 880.30 226.55 425.70 604.45 943.93 455.49 1110.73 457.84 971.16 552.01 952.32 665.99 1086.86 668.21
00007742 00000061 891.63 234.43 415.92 599.65 950.60 454.18 1119.54 456.86 981.97 563.58 955.88 668.49 1098.48 670.45
00007743 00000062 895.00 233.81 415.68 602.20 956.02 450.82 1127.34 456.17 988.93 562.56 960.01 664.39 1111.75 667.94
00007744 00000063 897.33 232.72 415.95 603.53 960.03 447.91 1130.34 455.46 991.20 558.26 963.82 659.27 1118.88 664.40
00007745 00000064 898.76 230.34 414.96 606.31 963.29 445.53 1131.05 453.62 994.61 555.35 964.79 654.63 1120.45 660.19
00007746 00000065 903.40 228.32 414.98 606.09 965.84 443.75 1133.96 450.39 997.90 551.89 968.80 652.28 1127.88 656.37
00007747 00000066 911.16 224.54 410.41 608.14 972.20 445.70 1139.12 449.91 1006.36 550.08 978.89 652.35 1139.39 654.08
00007748 00000067 918.54 225.33 405.23 604.40 982.77 442.43 1151.91 448.23 1023.50 547.10 987.95 651.68 1145.44 655.16
00007749 00000068 924.66 223.03 403.53 611.73 991.74 443.15 1159.77 447.20 1032.90 544.12 995.42 654.34 1152.39 656.62
00007750 00000069 926.01 217.23 410.00 623.79 997.27 441.53 1165.20 442.42 1038.22 536.89 1000.05 654.05 1156.25 654.17
00007751 00000070 925.26 217.96 407.41 626.83 997.35 441.16 1165.08 438.71 1039.13 532.34 1003.20 658.48 1157.29 656.16
00007752 00000071 926.90 220.03 404.83 623.66 995.68 440.76 1163.87 439.72 1034.05 533.42 999.41 656.65 1154.39 655.55
00007753 00000072 925.94 221.93 403.76 619.42 994.75 441.69 1162.19 445.29 1029.46 537.61 994.57 656.07 1147.32 658.89
00007754 00000073 924.33 224.17 404.45 617.84 993.05 444.26 1160.11 449.79 1027.55 542.59 991.97 658.53 1144.08 662.87
00007755 00000074 922.65 233.15 406.64 614.29 991.04 453.30 1156.71 455.20 1021.45 542.54 990.93 664.43 1143.32 665.63
00007756 00000075 921.80 234.81 406.81 613.22 991.00 463.85 1153.89 465.04 1022.70 547.77 992.42 668.35 1141.07 669.04
00007757 00000076 921.06 237.40 404.22 611.67 986.57 464.30 1148.59 463.82 1016.73 550.66 990.10 670.35 1136.52 669.72
00007758 00000077 917.57 237.36 407.42 605.72 977.05 457.88 1140.62 457.98 1007.11 552.83 983.45 671.79 1126.12 671.81
00007759 00000078 911.13 239.27 415.65 592.40 964.62 459.09 1127.38 456.39 990.49 557.19 974.62 675.84 1100.16 674.58
00007760 00000079 902.73 224.55 413.96 604.64 954.31 458.45 1112.90 456.91 970.85 543.62 963.44 670.62 1078.21 670.20
00007761 00000080 894.49 222.33 417.40 601.05 949.64 454.23 1104.84 450.17 963.90 535.95 957.20 666.66 1066.79 664.05
00007762 00000081 895.07 217.52 413.48 609.60 942.86 447.73 1103.97 445.64 960.22 532.79 949.82 665.48 1067.44 664.45
00007763 00000082 894.80 219.86 411.87 601.84 943.51 445.20 1104.44 443.43 960.73 529.86 948.42 663.62 1064.01 662.88
00007764 00000083 890.51 216.74 415.52 601.63 946.20 446.95 1102.37 444.03 959.51 529.34 951.55 662.92 1060.56 661.17
00007765 00000084 889.69 221.80 410.79 595.99 941.80 453.48 1097.04 450.92 950.26 537.12 946.98 668.67 1054.41 667.41
00007766 00000085 891.07 224.05 405.50 596.88 938.15 456.43 1095.73 457.29 946.57 548.90 946.24 674.45 1054.67 675.66
00007767 00000086 889.07 229.36 410.12 603.65 935.45 461.70 1094.40 460.66 946.77 556.79 947.87 680.61 1063.04 679.98
00007768 00000087 888.10 242.20 418.59 598.90 934.78 465.91 1091.17 464.48 946.39 566.67 951.86 682.30 1074.77 680.93
00007769 00000088 887.79 244.07 419.70 613.17 934.29 469.88 1096.19 466.20 954.18 578.84 949.90 690.23 1088.96 685.73
00007770 00000089 884.78 244.80 425.50 639.43 936.27 470.99 1095.04 466.89 954.15 582.78 955.42 696.65 1106.87 690.95
00007771 00000090 882.88 251.21 427.34 647.32 936.73 469.50 1093.89 464.29 955.07 581.32 958.60 700.61 1110.02 694.56
00007772 00000091 882.94 250.78 428.06 651.65 935.24 466.02 1092.63 461.02 954.15 577.73 955.69 699.72 1108.47 693.62
00007773 00000092 879.88 246.06 430.89 651.45 934.50 463.69 1090.19 460.82 949.80 573.34 950.89 692.72 1105.68 688.05
00007774 00000093 882.78 234.82 427.84 641.53 937.01 462.65 1092.49 458.68 951.08 564.87 949.34 682.70 1100.38 677.14
00007775 00000094 880.64 222.80 435.44 626.69 932.13 457.94 1098.78 451.45 954.65 557.14 941.45 668.32 1101.36 660.40
00007776 00000095 884.05 212.16 441.28 617.60 930.69 457.33 1105.62 445.95 954.24 543.64 946.44 659.70 1108.20 649.66
00007777 00000096 890.68 208.45 439.83 615.22 937.01 451.73 1117.25 439.30 965.88 537.09 951.69 654.79 1118.23 644.76
00007778 00000097 898.53 213.04 435.69 603.10 942.08 447.29 1122.31 431.91 973.30 528.91 956.10 649.20 1126.26 636.77
00007779 00000098 909.75 209.37 432.24 604.28 949.89 443.82 1120.53 428.83 968.36 527.43 964.60 643.94 1123.18 631.71
00007780 00000099 909.93 207.38 435.73 609.56 961.68 437.73 1143.37 426.24 988.80 524.39 970.32 647.21 1142.41 635.82
00007781 00000100 918.42 200.10 436.72 610.75 965.66 432.28 1136.97 420.72 989.40 518.50 981.98 637.57 1140.41 627.61
00007782 00000101 927.25 195.96 437.12 610.62 976.82 423.10 1145.34 415.01 997.89 512.19 991.70 630.82 1149.25 623.18
00007783 00000102 930.41 194.05 430.09 605.51 983.53 419.24 1163.97 410.83 1011.46 507.55 993.11 626.43 1164.27 617.34
00007784 00000103 933.58 188.27 428.98 602.11 988.22 412.38 1165.77 405.13 1013.15 499.87 997.24 617.97 1164.64 609.67
00007785 00000104 932.18 177.56 429.17 604.37 990.85 396.30 1168.50 393.86 1019.25 489.08 994.77 608.50 1162.56 605.00
00007786 00000105 932.64 165.01 428.15 612.10 994.07 387.94 1171.39 388.75 1023.40 483.30 994.74 603.08 1158.56 602.43
00007787 00000106 933.37 157.94 425.58 616.88 996.40 383.91 1172.06 384.96 1024.90 479.56 995.11 602.62 1151.87 602.56
00007788 00000107 934.15 153.24 421.73 622.62 996.36 384.51 1169.40 384.56 1024.03 479.04 995.47 605.16 1148.54 604.36
00007789 00000108 931.46 159.55 420.98 608.97 994.67 386.47 1166.92 387.66 1025.38 485.38 995.60 603.45 1146.44 603.67
00007790 00000109 928.40 169.79 422.07 603.77 991.54 392.63 1162.58 394.48 1023.68 499.24 995.36 608.51 1146.60 608.76
00007791 00000110 932.01 177.64 419.33 610.08 981.83 403.86 1154.21 404.19 1017.93 516.10 997.71 624.39 1135.34 625.86
00007792 00000111 922.45 196.80 426.51 607.91 969.42 421.51 1141.91 418.57 1008.92 540.45 998.90 649.62 1128.70 647.92
00007793 00000112 916.91 215.50 425.01 607.93 966.73 448.06 1130.82 445.28 999.78 566.88 1002.06 672.84 1118.49 670.63
00007794 00000113 909.28 227.31 431.55 605.44 960.38 457.80 1129.09 458.33 997.69 586.23 994.92 682.13 1117.87 682.84
00007795 00000114 907.06 242.49 437.25 604.41 958.33 470.39 1127.22 471.78 994.14 601.60 992.70 694.06 1119.27 695.73
00007796 00000115 908.90 239.33 434.18 612.99 961.12 474.45 1133.23 477.29 1000.27 608.56 994.66 698.78 1123.68 701.88
00007797 00000116 914.55 241.97 428.63 605.36 963.71 471.72 1140.61 473.98 1008.85 605.55 997.45 697.34 1128.48 700.17
00007798 00000117 921.61 237.08 427.99 602.38 970.69 463.06 1149.67 464.75 1018.28 593.93 1001.63 688.48 1134.99 690.85
00007799 00000118 929.04 220.96 429.03 604.11 979.44 454.15 1152.93 455.87 1024.05 580.22 1006.87 668.64 1147.47 670.65
00007800 00000119 932.43 203.02 433.94 613.68 982.63 441.03 1152.72 439.73 1020.56 559.27 1003.73 650.93 1156.54 648.92
00007801 00000120 933.76 202.59 435.07 596.97 985.78 425.23 1160.72 428.06 1026.97 547.48 1005.13 634.97 1163.09 636.30
00007802 00000121 939.32 193.71 428.74 595.06 994.10 410.80 1168.17 419.52 1031.92 531.03 1007.70 620.85 1158.65 627.16
00007803 00000122 944.28 182.41 422.76 606.37 999.76 404.15 1173.85 409.99 1035.90 522.43 1012.24 628.67 1145.75 634.08
00007804 00000123 945.55 171.66 417.18 613.42 1005.20 399.94 1175.50 404.12 1041.61 512.21 1017.93 628.24 1134.66 632.97
00007805 00000124 946.04 166.46 411.06 613.91 1005.62 394.54 1175.35 399.01 1042.25 505.21 1017.89 623.15 1132.44 628.28
00007806 00000125 946.34 169.77 404.90 608.71 1004.25 388.77 1172.36 395.15 1038.89 501.75 1015.96 619.74 1129.68 626.29
00007807 00000126 947.39 173.02 401.23 602.68 1002.86 388.51 1169.67 396.08 1035.01 499.52 1012.67 616.86 1126.91 624.31
00007808 00000127 947.05 173.23 396.97 600.47 1001.73 388.87 1167.40 396.37 1033.72 498.30 1011.26 615.58 1124.74 622.96
00007809 00000128 947.06 170.57 395.18 599.99 1001.87 389.33 1165.28 395.47 1033.89 497.06 1013.20 613.67 1126.75 619.83
00007810 00000129 947.88 170.53 396.21 593.62 1002.46 389.50 1164.88 393.20 1035.27 494.50 1014.57 608.90 1131.91 612.86
CROP_BBOX: 420 0 1562 1080
