Video ID: 	3ZZkROFfgBY
H: 	1080
W: 	1920
FPS: 	23.976023976023978

FRAME INDEX X0 Y0 W H [Landmarks (5 Points)]

00003761 00000000 766.89 236.46 407.62 609.50 829.46 433.39 941.79 428.97 777.44 541.17 792.31 690.68 872.67 686.05
00003762 DELETE   768.31 239.67 402.90 612.65 825.55 438.13 937.21 436.81 777.39 550.79 797.37 693.52 876.33 691.41
00003763 DELETE   762.96 238.21 409.67 625.48 807.78 446.76 942.50 452.35 779.45 566.05 797.01 697.15 902.55 700.33
00003764 DELETE   758.82 233.91 419.50 649.35 812.69 454.12 943.61 459.71 777.20 575.02 802.77 709.26 908.32 712.13
00003765 00000004 756.77 225.80 417.44 667.17 815.27 457.62 939.00 461.79 774.11 576.71 809.78 719.14 904.94 721.17
00003766 DELETE   757.32 224.55 413.97 670.42 814.37 459.27 938.12 463.40 771.27 576.12 805.85 720.13 899.99 722.21
00003767 00000006 756.86 225.06 414.13 663.49 810.88 458.95 935.71 464.45 769.10 573.28 796.65 714.65 891.50 717.85
00003768 DELETE   759.70 226.06 396.74 617.89 801.16 453.12 932.32 460.20 770.66 567.64 790.41 695.47 888.31 700.63
00003769 DELETE   756.78 225.54 394.29 614.98 797.60 450.01 924.61 455.48 760.50 563.35 783.07 694.26 873.27 698.35
00003770 00000009 752.13 223.24 398.34 634.91 797.82 452.01 921.16 456.08 752.04 566.06 781.66 699.76 873.89 702.57
00003771 00000010 745.37 233.78 406.92 651.00 800.91 454.29 918.84 459.57 751.94 570.03 779.28 710.39 867.39 713.89
00003772 00000011 743.38 233.99 404.14 649.17 797.94 453.74 915.49 463.12 749.02 573.56 777.97 708.07 866.78 715.28
00003773 00000012 742.51 234.87 399.67 640.80 793.79 455.03 914.18 463.36 747.64 574.82 775.26 707.80 865.58 714.48
00003774 00000013 739.83 235.62 403.50 647.15 791.60 452.63 914.60 462.12 746.49 574.53 772.65 708.76 865.75 716.40
00003775 00000014 740.76 238.65 400.30 634.88 789.76 450.89 913.16 460.95 744.85 574.22 770.38 704.50 865.23 712.50
00003776 00000015 742.28 239.74 402.85 634.06 790.65 449.73 917.21 461.85 748.19 574.75 771.64 703.60 867.73 713.05
00003777 00000016 745.83 235.30 400.73 636.70 794.22 452.18 920.23 463.28 750.75 574.96 776.15 705.93 870.99 714.38
00003778 00000017 747.50 235.19 401.84 632.52 796.04 451.67 919.49 461.70 751.09 573.37 779.53 703.03 872.51 710.44
00003779 00000018 746.84 233.78 401.32 634.23 795.25 451.33 918.98 460.36 748.95 572.56 777.62 703.71 871.13 710.36
00003780 00000019 746.47 235.04 401.90 631.60 794.87 451.73 918.34 460.82 748.37 573.23 777.41 703.49 870.39 710.28
00003781 00000020 746.85 234.05 403.05 635.82 796.50 451.45 918.40 461.15 749.27 574.04 779.06 703.89 871.16 711.15
00003782 00000021 746.78 235.41 401.40 631.30 796.60 450.96 918.87 460.28 749.19 573.07 779.11 703.77 871.95 710.64
00003783 00000022 745.12 235.78 402.17 628.93 795.56 451.63 917.92 460.58 748.60 571.86 776.67 702.43 869.02 709.13
00003784 00000023 745.79 236.56 401.03 623.44 794.97 451.53 916.80 459.00 749.26 570.88 775.73 702.33 867.01 707.81
00003785 00000024 744.93 233.85 402.10 633.02 797.69 452.30 919.00 459.65 751.05 570.44 779.12 703.27 870.04 708.78
00003786 00000025 744.41 233.27 403.00 639.15 798.93 452.09 918.69 460.58 749.40 570.34 778.46 705.45 868.71 711.69
00003787 00000026 741.26 233.85 407.03 650.34 797.60 453.44 920.48 460.49 749.39 573.16 779.66 711.63 872.92 716.83
00003788 00000027 741.74 233.30 405.30 649.89 797.22 452.85 920.39 460.65 749.84 573.34 779.21 711.04 872.39 716.91
00003789 00000028 742.97 233.75 401.96 642.26 795.18 453.09 919.84 461.34 750.81 572.92 778.24 707.97 872.62 714.17
00003790 00000029 746.52 234.16 399.02 632.00 795.46 453.66 920.43 461.16 753.65 572.01 779.31 705.21 873.65 710.79
00003791 00000030 747.27 233.75 401.14 625.40 795.94 454.96 920.27 460.37 756.30 571.43 782.70 705.00 875.43 708.63
00003792 00000031 747.59 231.76 399.09 632.56 797.77 452.42 923.37 460.43 757.92 572.46 786.35 704.56 882.78 710.15
00003793 00000032 751.98 226.83 402.39 636.79 800.63 452.74 927.11 460.33 762.39 571.14 791.65 703.57 887.70 708.43
00003794 00000033 754.26 227.02 406.71 638.57 805.24 452.53 928.55 459.42 766.81 569.00 794.92 703.34 887.38 707.46
00003795 00000034 757.75 227.79 398.14 624.02 804.61 448.54 929.64 457.39 768.36 563.82 793.22 694.49 885.97 700.56
00003796 00000035 756.32 246.28 400.87 598.12 822.95 449.24 927.48 453.34 766.91 560.41 791.99 688.13 871.29 690.24
00003797 00000036 755.52 248.39 401.28 592.93 820.88 442.81 930.80 451.20 769.01 558.91 788.26 685.69 872.80 691.48
00003798 00000037 759.10 250.30 397.08 589.12 825.37 441.69 933.17 449.97 771.06 560.55 792.79 686.23 873.92 691.89
00003799 00000038 761.21 250.82 397.57 598.70 827.67 440.75 932.94 450.29 771.05 561.36 796.06 689.15 875.98 695.63
00003800 00000039 763.98 252.11 395.42 593.48 826.94 442.53 933.87 451.11 773.10 561.34 795.37 690.20 875.57 696.23
00003801 00000040 764.52 251.24 396.36 595.86 827.04 442.87 934.08 452.29 774.85 563.53 796.40 690.35 877.34 697.31
00003802 00000041 764.67 234.58 407.53 628.39 812.77 447.82 941.39 455.45 777.31 567.57 800.61 700.79 897.91 705.54
00003803 00000042 763.16 234.48 405.86 626.99 812.47 450.22 940.52 457.49 777.63 567.79 800.00 701.32 897.70 705.70
00003804 00000043 763.36 229.82 405.12 629.85 812.03 452.55 938.18 459.28 777.04 569.71 801.67 702.13 896.05 706.12
00003805 00000044 763.33 229.13 407.29 632.64 813.84 455.99 936.10 463.68 772.73 574.81 801.48 706.59 892.25 711.19
00003806 00000045 761.28 234.43 411.44 635.90 815.42 458.76 936.76 465.52 773.76 579.76 804.14 710.34 894.77 713.98
00003807 00000046 760.74 235.52 409.52 631.34 813.88 458.84 936.28 466.29 772.41 579.99 800.43 709.38 890.83 713.84
00003808 00000047 761.78 238.18 399.59 621.32 811.38 459.38 933.57 466.94 770.19 578.51 795.24 706.44 885.75 711.37
00003809 00000048 757.33 238.99 398.98 635.97 812.93 457.56 934.20 466.59 767.38 576.06 796.00 708.66 889.50 714.70
00003810 00000049 754.42 238.87 401.88 638.20 810.71 457.69 930.28 466.64 764.72 578.07 795.31 709.63 888.68 715.44
00003811 00000050 753.27 238.58 392.67 624.05 803.59 455.03 924.38 466.35 758.66 577.29 786.85 702.89 878.43 711.44
00003812 00000051 751.68 241.13 389.41 613.52 798.38 454.48 918.07 465.23 754.50 574.33 780.57 698.78 868.11 707.21
00003813 00000052 748.78 241.11 393.24 617.93 796.08 451.52 914.48 464.40 747.60 576.08 775.77 699.62 862.59 709.92
00003814 00000053 747.13 237.88 393.14 623.81 796.82 451.58 914.22 465.55 746.24 576.31 777.65 699.94 864.29 711.26
00003815 00000054 748.32 238.91 395.43 626.32 796.53 452.61 915.43 466.09 747.90 578.14 777.98 701.68 864.76 712.65
00003816 00000055 750.20 238.86 394.89 627.53 798.37 454.17 918.67 466.88 751.82 578.13 780.29 702.35 868.98 712.65
00003817 00000056 752.62 238.56 396.97 626.54 800.08 454.88 920.09 466.38 753.08 577.45 781.78 703.33 869.47 712.25
00003818 00000057 751.72 236.72 398.15 631.04 800.45 454.55 922.24 465.07 754.45 576.36 782.42 703.79 872.88 711.95
00003819 00000058 755.03 237.95 401.18 635.56 804.45 455.88 921.80 466.39 754.57 576.17 783.90 704.16 872.57 711.86
00003820 00000059 757.68 236.87 404.98 630.41 805.41 459.09 928.04 467.57 763.22 575.87 786.51 703.79 879.14 709.88
00003821 00000060 760.17 234.30 403.04 633.33 805.60 461.23 929.37 468.56 765.79 575.76 787.57 707.36 878.37 712.41
00003822 00000061 763.11 238.97 402.67 620.82 807.52 460.70 935.08 466.18 771.19 579.26 795.08 709.41 887.06 712.51
00003823 00000062 764.83 233.83 404.25 621.76 809.35 462.13 939.47 469.04 776.55 582.02 802.60 707.62 897.47 711.76
00003824 00000063 770.14 252.14 395.08 605.97 820.98 461.92 931.07 467.12 780.18 580.44 807.07 707.35 889.08 711.12
00003825 00000064 774.90 252.27 393.24 615.42 824.18 463.46 938.38 467.56 788.85 582.96 812.85 711.38 898.45 714.51
00003826 00000065 777.41 259.09 395.59 605.61 827.14 463.32 943.20 469.24 792.85 586.56 816.42 711.02 904.60 715.48
00003827 00000066 781.05 255.38 397.12 607.28 825.37 463.12 946.54 470.08 796.00 587.33 814.76 711.01 905.69 716.86
00003828 00000067 783.16 257.51 393.45 596.20 828.18 461.74 949.24 470.12 799.42 586.81 816.61 706.89 906.56 713.93
00003829 00000068 784.30 257.11 395.66 600.66 829.04 462.89 950.70 469.70 800.84 585.26 817.16 708.99 907.08 714.84
00003830 00000069 785.13 257.54 393.50 598.26 828.00 462.55 951.26 469.39 800.36 584.51 816.71 707.75 908.36 713.74
00003831 00000070 785.66 251.46 392.65 604.38 828.96 461.56 952.53 467.51 799.03 580.58 815.79 706.63 908.72 711.83
00003832 00000071 785.11 246.57 392.31 614.65 829.50 460.06 951.00 466.54 797.45 579.36 815.70 707.55 906.61 713.16
00003833 00000072 785.29 246.54 395.85 619.27 829.15 457.32 951.78 462.94 796.59 578.14 816.26 707.03 909.18 711.72
00003834 00000073 785.16 247.46 392.19 606.46 828.84 454.76 950.71 462.09 795.51 574.69 814.26 697.21 908.17 703.70
00003835 00000074 783.53 246.91 391.88 597.33 830.53 456.37 947.70 462.81 795.75 574.83 816.81 692.91 908.58 698.73
00003836 00000075 782.12 246.58 393.08 600.32 829.97 459.25 945.67 462.52 794.77 575.17 815.64 696.15 905.04 699.47
00003837 00000076 781.06 248.75 392.79 601.21 828.86 458.31 945.63 461.81 792.84 573.82 813.48 697.12 904.94 700.34
00003838 00000077 778.83 242.74 391.43 603.82 827.28 457.24 942.36 461.94 788.11 570.60 809.17 695.07 899.43 699.47
00003839 00000078 775.58 246.07 393.48 607.95 823.81 457.30 938.87 462.63 782.17 567.47 805.17 695.08 893.72 699.44
00003840 00000079 771.55 245.03 396.17 604.70 821.95 455.20 938.71 459.35 779.06 568.23 799.18 695.29 888.31 699.15
00003841 00000080 769.51 247.41 397.30 600.97 821.74 453.30 935.33 455.29 776.84 567.36 800.84 694.06 889.34 695.92
00003842 00000081 768.18 250.32 398.74 602.84 820.20 449.92 936.92 450.65 776.94 566.28 799.75 696.63 889.77 697.12
00003843 00000082 765.99 246.00 400.96 607.06 820.15 448.73 936.15 447.97 774.39 565.00 803.37 695.15 893.66 693.95
00003844 00000083 762.81 238.38 401.14 614.58 818.28 448.63 935.34 447.66 773.70 562.90 804.23 694.22 894.70 692.70
00003845 00000084 757.55 243.95 404.16 608.25 816.45 446.34 936.19 446.25 773.76 561.69 800.68 693.01 891.82 692.10
00003846 00000085 756.18 244.45 403.52 614.53 817.69 446.87 934.92 447.30 772.01 562.34 800.37 695.23 891.80 694.56
00003847 00000086 753.73 229.02 410.69 641.37 804.18 449.72 938.73 453.26 773.99 564.04 797.09 702.12 903.56 703.70
00003848 00000087 754.95 230.27 406.08 629.59 802.76 446.96 937.15 452.12 773.05 562.31 795.17 696.44 901.54 699.37
00003849 00000088 753.04 246.25 405.93 597.40 818.79 450.84 929.56 450.52 768.51 562.52 796.47 689.22 882.80 688.18
00003850 00000089 752.96 245.74 404.11 597.55 817.54 450.04 930.36 450.95 768.14 562.68 795.43 688.22 883.05 688.12
00003851 00000090 757.51 234.97 402.77 619.31 801.93 449.35 934.78 454.34 773.47 564.68 794.42 692.43 898.85 695.31
00003852 00000091 758.22 238.80 400.79 614.06 801.32 450.83 936.10 455.90 776.52 567.60 792.94 695.29 897.94 698.32
00003853 00000092 756.28 234.28 411.16 638.79 805.85 450.32 939.52 456.73 776.21 567.21 794.62 699.11 903.64 703.08
00003854 00000093 757.78 233.61 412.29 633.14 807.28 449.29 941.07 454.44 777.83 567.22 799.13 698.80 906.28 701.48
00003855 00000094 760.64 236.21 412.28 629.94 808.51 448.14 942.24 451.30 778.56 565.44 801.86 698.58 908.86 699.34
00003856 00000095 765.27 249.31 400.32 604.62 822.09 445.47 934.52 445.72 775.74 563.86 801.68 693.54 888.50 693.01
00003857 00000096 767.46 250.56 402.12 602.34 822.30 444.40 936.19 443.45 776.49 561.85 800.80 693.52 887.60 691.96
00003858 00000097 769.17 247.30 402.60 604.64 823.90 443.47 937.62 441.48 777.30 560.85 801.20 693.96 886.43 691.82
00003859 00000098 770.11 246.76 404.46 605.39 822.96 444.22 940.08 440.31 777.37 558.47 800.30 694.95 889.75 691.31
00003860 00000099 771.20 245.37 401.77 602.78 825.41 442.52 941.94 439.49 780.10 558.70 803.78 693.74 891.17 690.98
00003861 00000100 772.69 240.03 399.85 604.72 826.29 440.72 943.96 440.64 781.44 555.81 803.95 690.97 890.08 690.65
00003862 00000101 774.95 240.33 401.71 611.30 828.28 445.25 944.94 440.77 783.13 555.13 804.37 695.36 889.23 691.46
00003863 00000102 777.06 238.56 399.47 607.62 828.85 444.32 947.91 442.16 786.10 554.87 805.59 691.57 892.08 689.82
00003864 00000103 777.69 240.53 399.07 603.55 829.09 443.50 950.25 442.18 789.50 555.00 806.65 690.39 894.13 689.35
00003865 00000104 778.78 237.83 400.36 618.54 828.55 442.83 954.63 440.61 791.64 554.92 809.45 694.81 906.75 692.92
00003866 00000105 779.06 231.60 400.84 622.00 828.21 439.88 955.47 439.39 789.47 551.09 807.31 691.62 907.21 691.44
00003867 00000106 780.26 230.90 398.87 621.83 831.06 437.10 958.17 436.93 791.79 549.05 810.54 689.68 910.54 689.57
00003868 00000107 781.72 232.65 399.38 619.05 833.68 435.94 960.52 433.25 794.29 548.33 813.88 691.75 914.17 689.38
00003869 00000108 785.81 229.27 398.97 618.02 836.90 433.31 963.59 434.46 797.22 547.59 816.89 687.19 916.84 687.99
00003870 00000109 787.87 230.70 400.63 616.01 836.85 434.54 966.51 433.66 799.06 547.09 818.59 688.46 920.52 687.56
00003871 00000110 789.39 230.60 402.77 620.64 836.73 435.49 968.25 433.95 799.74 546.64 819.17 690.01 924.14 688.60
00003872 00000111 788.34 229.25 404.40 619.05 837.46 432.74 969.70 431.91 800.65 543.11 817.97 686.88 924.06 686.16
00003873 00000112 788.93 227.91 403.30 618.71 837.51 430.25 969.94 431.17 802.20 541.00 817.09 684.84 923.80 685.61
00003874 00000113 790.04 222.00 400.10 619.65 837.63 428.48 970.88 431.10 805.07 538.85 817.97 680.84 924.91 683.33
00003875 00000114 784.72 205.84 413.65 648.80 832.87 438.21 979.33 438.81 799.10 539.73 823.14 693.06 938.86 693.09
00003876 00000115 786.87 207.13 414.25 646.78 835.50 437.42 978.14 440.01 797.98 539.21 826.99 691.20 938.35 692.85
00003877 00000116 786.57 206.04 417.08 654.93 833.97 438.39 981.25 438.97 799.55 541.78 824.17 694.97 940.28 695.04
00003878 00000117 785.94 206.14 418.01 656.14 835.77 433.01 978.51 433.90 799.99 539.71 826.95 692.60 939.26 693.08
00003879 00000118 786.15 207.53 416.00 649.01 834.66 430.11 978.82 433.05 801.74 538.08 825.55 689.12 937.35 691.65
00003880 00000119 786.07 208.04 412.10 643.28 835.73 426.75 978.91 432.04 803.79 534.43 825.70 684.52 934.99 689.16
00003881 00000120 785.35 208.63 413.02 640.86 835.40 425.81 978.89 431.16 803.70 532.58 822.66 684.87 932.16 689.52
00003882 00000121 795.25 215.36 397.32 623.73 845.47 423.33 973.54 428.86 809.18 529.80 820.07 673.15 920.27 677.99
00003883 00000122 795.76 221.56 395.74 600.12 847.98 425.76 963.84 425.93 804.52 527.15 820.52 669.03 904.81 669.42
00003884 00000123 796.97 223.46 394.51 594.82 846.72 425.18 962.38 425.31 803.33 529.55 822.65 669.11 906.42 669.26
00003885 00000124 794.46 226.72 395.52 607.40 847.56 422.90 967.24 427.72 803.87 535.68 820.68 673.55 912.40 677.37
00003886 00000125 791.95 230.03 395.57 602.61 839.71 423.01 968.92 426.45 803.84 539.31 818.36 678.27 919.77 680.94
00003887 00000126 790.59 232.29 397.73 601.99 840.41 428.81 962.94 428.09 798.43 543.07 819.90 682.10 915.84 681.20
CROP_BBOX: 489 0 1454 1032
