Video ID: 	mmsasEoupO4
H: 	1080
W: 	1920
FPS: 	23.976023976023978

FRAME INDEX X0 Y0 W H [Landmarks (5 Points)]

00019405 00000000 982.92 238.08 401.69 644.81 1225.66 501.22 1324.47 485.29 1371.49 611.03 1222.56 727.08 1298.11 720.37
00019406 00000001 990.83 238.07 394.26 636.79 1229.91 500.47 1326.21 484.94 1372.95 613.55 1229.22 726.90 1299.65 720.18
00019407 00000002 989.41 239.54 392.84 641.70 1228.38 502.18 1324.69 486.00 1370.99 613.84 1225.95 728.28 1299.58 721.29
00019408 DELETE   974.00 250.62 409.03 650.31 1225.64 494.19 1314.17 491.73 1363.09 607.46 1216.86 725.20 1284.66 727.23
00019409 00000004 980.15 239.93 399.99 662.74 1227.18 498.85 1319.56 489.77 1366.71 614.55 1213.25 732.99 1284.76 732.67
00019410 DELETE   984.41 240.14 396.02 660.28 1228.03 500.05 1320.47 491.04 1366.39 614.57 1214.41 731.98 1286.39 731.52
00019411 00000006 980.71 251.90 403.32 646.82 1226.53 496.11 1316.61 493.49 1361.80 610.75 1217.10 725.58 1285.85 727.63
00019412 00000007 980.35 252.43 405.09 648.47 1231.16 498.48 1314.72 495.07 1362.35 611.73 1216.83 725.48 1283.79 727.03
00019413 00000008 987.98 251.39 398.03 650.02 1234.28 498.85 1316.08 495.78 1365.53 613.85 1218.22 727.78 1282.93 730.19
00019414 00000009 983.77 257.43 400.53 649.04 1231.49 497.94 1314.94 500.29 1361.03 613.27 1213.43 727.30 1278.28 733.75
00019415 DELETE   977.77 254.83 406.35 652.60 1228.48 504.81 1320.27 500.84 1367.87 615.02 1219.74 731.21 1292.61 731.96
00019416 DELETE   984.12 249.72 397.19 633.99 1234.33 508.62 1329.06 498.85 1374.32 619.41 1238.38 733.10 1304.15 729.16
00019417 00000012 991.97 250.23 391.47 632.26 1235.59 508.50 1332.79 498.09 1377.81 619.54 1244.37 734.59 1312.91 729.78
00019418 00000013 998.19 253.24 388.39 635.57 1237.39 508.65 1330.76 495.19 1380.47 618.43 1240.60 735.09 1309.71 728.40
00019419 00000014 993.58 256.08 391.26 645.61 1232.06 506.43 1323.93 500.69 1369.90 617.14 1233.31 737.52 1299.86 736.84
00019420 00000015 982.74 255.96 400.46 652.63 1229.45 505.86 1316.81 502.17 1365.96 615.69 1227.25 736.70 1292.17 737.82
00019421 DELETE   986.48 253.36 397.95 648.33 1230.64 506.20 1320.97 502.29 1368.45 618.16 1226.44 735.52 1293.33 736.88
00019422 DELETE   989.94 254.59 396.95 648.77 1232.26 508.73 1324.62 502.05 1371.84 618.84 1229.72 738.05 1298.37 736.91
00019423 00000018 994.47 253.45 392.72 647.38 1236.41 509.94 1326.20 502.75 1374.54 620.47 1234.58 739.17 1299.92 737.77
00019424 00000019 992.82 253.42 392.17 649.10 1235.22 510.90 1325.28 504.87 1374.81 620.72 1231.71 738.96 1298.15 738.43
00019425 00000020 989.92 254.86 396.36 646.54 1235.75 510.47 1325.21 503.87 1374.16 623.62 1229.34 739.65 1295.59 739.06
00019426 00000021 987.24 252.25 399.85 651.51 1236.66 511.67 1325.72 504.89 1374.36 625.88 1228.85 741.35 1294.73 740.75
00019427 00000022 989.52 255.23 398.20 651.89 1237.79 514.13 1327.36 507.59 1375.11 627.18 1229.83 743.71 1297.41 743.37
00019428 00000023 995.51 257.78 391.66 648.18 1238.12 516.11 1328.56 510.65 1375.78 629.33 1231.25 744.70 1298.52 745.17
00019429 00000024 993.84 259.30 392.37 645.35 1238.97 516.10 1328.00 510.73 1374.78 629.45 1231.30 744.70 1298.48 745.07
00019430 00000025 988.29 262.19 397.03 644.67 1236.65 515.04 1327.28 509.38 1374.82 630.09 1225.49 744.78 1293.84 745.23
00019431 00000026 989.99 261.24 394.64 646.28 1235.35 512.48 1326.89 510.14 1372.82 630.33 1223.11 744.15 1291.20 747.20
00019432 00000027 990.69 259.09 393.82 648.38 1236.78 513.14 1326.91 509.97 1372.36 629.43 1224.09 743.64 1292.29 745.91
00019433 00000028 993.12 258.05 392.19 648.45 1236.71 510.86 1325.32 506.85 1372.35 627.61 1227.60 744.11 1293.03 745.72
00019434 00000029 991.06 255.96 394.74 651.65 1235.75 511.10 1325.99 506.44 1371.89 626.33 1227.99 744.01 1294.66 744.82
00019435 00000030 987.62 256.17 397.42 652.45 1234.98 509.17 1323.69 506.37 1370.68 624.96 1225.03 742.92 1291.26 745.29
00019436 00000031 984.52 255.98 399.38 652.06 1232.96 507.88 1323.61 505.64 1369.34 625.25 1223.28 743.42 1289.36 746.11
00019437 00000032 985.64 254.53 397.95 652.65 1233.16 507.15 1323.02 504.26 1369.41 624.41 1223.85 742.96 1289.26 745.34
00019438 00000033 983.19 254.42 400.13 652.60 1233.01 507.25 1322.18 503.29 1369.25 623.91 1223.76 742.70 1289.30 744.14
00019439 00000034 984.27 255.11 399.22 652.33 1232.37 508.01 1322.97 504.21 1370.15 624.51 1224.37 743.09 1290.27 744.60
00019440 00000035 981.17 257.61 400.88 650.68 1229.88 506.46 1322.50 504.73 1366.91 623.58 1222.48 742.69 1289.28 745.64
00019441 00000036 980.67 254.05 402.27 655.47 1227.74 506.44 1319.85 503.86 1364.69 622.44 1220.76 741.22 1288.04 743.29
00019442 00000037 982.20 254.77 400.27 656.70 1226.98 507.03 1319.24 503.90 1364.38 623.60 1218.95 741.05 1286.49 742.62
00019443 00000038 980.72 252.90 400.86 655.64 1226.84 506.45 1317.23 502.46 1363.80 621.57 1220.98 739.72 1287.05 740.49
00019444 00000039 982.50 251.04 400.26 655.80 1228.04 504.31 1318.26 499.41 1365.75 620.51 1223.23 739.95 1287.47 740.18
00019445 00000040 981.63 253.19 401.50 652.93 1227.60 503.46 1317.30 498.25 1364.15 619.46 1223.82 739.08 1288.21 739.01
00019446 00000041 978.99 253.09 401.61 654.22 1225.03 502.61 1314.79 497.44 1362.75 617.59 1221.49 738.52 1286.26 738.33
00019447 00000042 983.77 237.42 396.33 657.74 1228.23 508.57 1322.52 491.96 1368.68 623.07 1225.65 741.82 1291.74 735.08
00019448 00000043 985.36 236.30 394.99 658.29 1228.41 508.92 1322.56 491.87 1368.73 622.67 1226.27 741.59 1292.29 734.46
00019449 00000044 978.72 251.21 401.32 654.75 1224.66 501.74 1313.97 496.49 1362.64 616.13 1219.06 735.92 1284.30 735.44
00019450 00000045 979.36 252.89 401.78 655.20 1225.13 500.69 1314.55 498.78 1360.85 616.56 1216.20 735.18 1282.56 737.46
00019451 00000046 974.61 254.92 407.31 659.58 1222.47 500.18 1312.73 501.20 1356.95 617.80 1208.49 734.42 1277.17 738.81
00019452 00000047 978.27 239.09 402.03 667.52 1231.53 506.62 1321.92 493.35 1370.58 626.97 1211.05 741.43 1279.32 738.40
00019453 00000048 971.81 254.43 408.75 658.05 1223.68 503.68 1315.83 500.59 1361.16 620.99 1207.44 734.71 1278.77 735.99
00019454 00000049 984.39 250.44 397.72 644.59 1232.13 509.78 1324.51 497.16 1373.03 624.51 1224.24 736.12 1292.10 730.60
00019455 00000050 988.58 252.21 393.54 636.97 1232.61 508.94 1326.21 497.23 1373.70 622.38 1232.11 737.15 1298.94 732.26
00019456 00000051 986.63 253.36 396.82 646.38 1231.71 508.11 1322.08 497.87 1370.79 620.74 1228.65 738.74 1294.88 734.90
00019457 00000052 984.51 254.33 399.50 656.47 1230.23 506.73 1317.39 500.87 1367.13 618.59 1221.30 737.90 1287.96 737.74
00019458 00000053 984.75 252.00 400.04 658.56 1232.74 506.17 1317.13 499.87 1367.44 619.75 1220.89 738.13 1284.17 737.79
00019459 00000054 984.48 253.39 399.98 655.03 1233.68 506.00 1317.44 500.13 1368.61 617.82 1224.77 737.90 1288.65 737.79
00019460 00000055 995.97 250.78 390.39 652.80 1237.90 509.64 1321.02 503.96 1374.81 618.67 1228.23 736.59 1292.83 737.08
00019461 00000056 996.40 248.06 391.32 659.83 1236.84 508.60 1319.65 504.28 1373.52 618.48 1227.80 737.59 1291.21 739.19
00019462 00000057 990.11 254.46 396.69 656.38 1233.65 507.03 1313.65 503.25 1366.59 620.15 1223.30 740.71 1283.54 742.69
00019463 00000058 990.38 254.76 397.43 652.24 1232.18 507.05 1322.64 503.58 1370.36 625.59 1222.66 743.00 1288.98 745.40
00019464 00000059 987.18 254.45 399.37 651.32 1232.17 509.36 1324.98 503.68 1373.54 626.40 1223.06 743.26 1292.34 743.77
00019465 00000060 990.69 256.04 396.29 647.86 1235.88 509.93 1327.20 504.15 1375.27 627.29 1225.79 743.55 1293.19 744.08
00019466 00000061 994.31 254.34 393.40 648.00 1237.55 511.54 1327.78 503.82 1377.11 626.95 1231.87 744.07 1298.05 742.71
00019467 00000062 993.86 256.56 394.38 645.88 1236.31 512.13 1328.82 503.93 1376.79 627.73 1232.55 745.79 1300.17 744.06
00019468 00000063 990.82 255.45 397.17 649.46 1234.40 511.57 1327.88 504.36 1374.73 628.37 1230.26 746.30 1298.89 745.25
00019469 00000064 986.63 258.52 398.28 647.41 1233.62 512.45 1329.15 508.61 1372.99 629.92 1226.18 745.41 1297.14 746.85
00019470 00000065 987.36 257.73 398.04 647.31 1233.66 512.76 1330.96 509.14 1373.62 631.17 1225.73 746.26 1297.53 747.85
00019471 00000066 987.36 258.94 399.01 644.55 1236.35 512.64 1331.93 508.06 1375.24 630.57 1228.65 745.14 1299.48 745.98
00019472 00000067 995.02 258.04 393.34 644.89 1237.69 513.43 1331.73 506.97 1376.41 631.52 1230.84 746.86 1299.97 746.67
00019473 00000068 997.32 258.82 390.69 644.61 1237.65 513.82 1330.36 507.73 1375.35 631.00 1232.10 746.78 1299.38 746.85
00019474 00000069 991.38 258.63 395.67 647.41 1236.64 510.89 1329.66 507.04 1373.27 630.72 1224.13 744.61 1294.30 746.36
00019475 00000070 986.30 259.10 399.40 651.29 1235.85 511.59 1327.37 509.19 1372.83 632.03 1219.27 744.08 1289.07 747.20
00019476 00000071 983.82 258.59 401.79 656.73 1235.29 512.23 1328.04 510.51 1372.53 632.86 1217.56 745.28 1289.05 748.75
00019477 00000072 987.09 259.14 399.07 652.82 1235.92 511.63 1328.42 509.31 1372.13 631.45 1219.72 744.65 1290.00 747.79
00019478 00000073 988.26 261.00 399.73 647.84 1236.54 510.66 1328.11 505.95 1371.94 630.94 1223.00 745.03 1292.64 746.19
00019479 00000074 987.04 261.18 400.87 647.23 1236.43 509.73 1324.75 505.79 1371.19 629.20 1222.24 743.62 1288.86 745.36
00019480 00000075 985.39 258.98 400.97 647.89 1235.99 510.85 1325.61 505.84 1370.96 631.29 1217.69 742.08 1285.29 742.89
00019481 00000076 983.98 258.78 401.19 635.83 1238.89 515.25 1331.58 503.44 1377.74 630.36 1220.21 736.05 1293.22 731.77
00019482 00000077 987.33 254.61 398.83 633.09 1241.41 515.92 1336.43 504.26 1380.15 630.96 1223.20 732.79 1298.75 728.62
00019483 00000078 988.71 257.25 397.30 630.52 1240.28 517.44 1334.14 505.13 1379.25 629.48 1231.06 737.31 1302.27 731.94
00019484 00000079 989.21 257.85 397.68 635.11 1239.05 518.11 1334.93 505.73 1379.62 632.18 1229.89 740.86 1302.83 735.31
00019485 00000080 984.82 258.50 400.18 639.00 1236.03 516.44 1333.44 506.09 1377.03 631.92 1225.13 741.70 1298.68 738.29
00019486 00000081 980.10 260.37 402.97 645.35 1232.28 516.81 1331.08 507.47 1370.93 631.51 1221.39 743.42 1298.57 740.43
00019487 00000082 983.34 259.77 400.78 643.23 1233.78 516.32 1331.26 507.73 1372.24 631.28 1223.71 742.23 1299.38 740.04
00019488 00000083 987.17 261.54 399.25 644.82 1235.07 515.82 1332.39 508.62 1373.97 631.56 1225.53 744.13 1301.45 742.95
00019489 00000084 985.06 261.98 403.03 653.27 1237.11 512.11 1329.41 509.38 1373.24 630.13 1222.72 745.15 1294.55 748.05
00019490 00000085 987.74 261.85 399.35 654.28 1238.50 510.26 1328.56 511.85 1371.55 632.36 1217.42 743.48 1287.27 750.22
00019491 00000086 983.53 260.18 402.02 657.28 1237.66 511.63 1330.95 510.87 1373.51 633.10 1218.77 745.52 1290.95 750.08
00019492 00000087 983.93 259.79 400.55 645.41 1236.06 514.11 1334.03 509.02 1374.86 633.88 1224.40 745.20 1297.52 745.82
00019493 00000088 990.53 259.42 394.75 629.26 1239.14 516.81 1337.66 506.11 1379.56 633.36 1236.41 743.09 1305.83 738.66
00019494 00000089 990.14 256.96 397.12 626.09 1239.30 517.74 1337.86 504.62 1381.20 633.24 1239.78 743.15 1309.02 736.80
00019495 00000090 988.24 255.70 397.13 631.47 1238.27 518.08 1336.15 504.70 1380.86 632.16 1237.70 743.21 1307.24 736.92
00019496 00000091 987.59 254.40 397.54 634.75 1236.92 517.98 1336.04 505.16 1380.57 630.25 1234.72 741.59 1307.46 735.78
00019497 00000092 988.19 255.09 397.72 629.54 1238.48 518.22 1338.61 504.90 1380.87 631.22 1237.96 742.01 1309.71 735.58
00019498 00000093 991.91 252.95 395.83 628.00 1239.62 520.28 1339.65 504.73 1383.68 632.44 1241.25 741.40 1312.71 732.80
00019499 00000094 991.67 253.60 397.78 631.19 1238.44 518.92 1340.23 503.42 1383.91 631.78 1239.84 742.25 1314.55 733.66
00019500 00000095 987.93 254.81 399.12 630.19 1238.31 517.53 1339.43 503.46 1381.15 630.07 1239.20 740.38 1313.26 732.95
00019501 00000096 989.64 254.89 398.18 630.55 1238.98 517.34 1339.25 503.65 1380.49 629.50 1234.72 737.59 1310.12 730.86
00019502 00000097 989.74 256.29 399.25 626.28 1238.38 517.27 1339.89 501.70 1382.02 629.36 1236.48 738.59 1312.47 730.23
00019503 00000098 996.37 255.52 392.90 621.20 1241.61 519.02 1341.55 505.82 1383.73 632.20 1241.03 739.46 1312.06 733.15
00019504 00000099 993.35 256.36 395.01 628.67 1241.76 519.67 1339.11 504.75 1383.46 633.33 1236.17 740.42 1306.39 733.24
00019505 00000100 991.16 258.20 396.43 627.31 1242.12 518.64 1337.68 504.00 1381.72 632.87 1231.27 738.25 1303.00 731.69
00019506 00000101 991.20 257.51 397.45 632.06 1243.17 519.16 1337.32 504.86 1382.65 633.57 1231.26 738.52 1302.80 732.19
00019507 00000102 989.78 261.44 398.52 633.50 1240.13 516.37 1333.74 504.95 1378.12 633.60 1226.99 741.09 1296.25 736.86
00019508 00000103 985.74 263.50 403.49 643.36 1240.68 512.68 1330.81 507.41 1375.09 633.08 1220.68 741.86 1289.23 742.86
00019509 00000104 981.67 266.31 404.65 642.72 1239.09 507.80 1326.38 510.84 1366.33 631.00 1212.27 738.32 1279.69 746.11
00019510 00000105 980.32 269.45 407.86 648.27 1237.15 502.76 1322.85 511.88 1364.12 628.98 1201.77 735.73 1271.95 748.94
00019511 00000106 978.77 267.91 411.00 654.05 1237.30 500.43 1321.42 511.06 1364.75 630.53 1198.05 736.61 1268.36 751.11
00019512 00000107 978.51 268.85 411.53 653.99 1238.02 503.31 1319.70 511.44 1364.23 630.20 1198.95 736.00 1270.15 748.60
00019513 00000108 985.28 267.14 405.18 649.81 1238.30 503.39 1322.59 509.00 1366.10 629.22 1201.13 734.96 1273.92 745.72
00019514 00000109 978.40 263.75 409.71 651.60 1238.18 508.83 1326.90 513.13 1370.23 631.68 1202.51 734.78 1278.57 744.01
00019515 00000110 985.28 261.38 402.11 640.35 1239.88 511.74 1335.06 509.92 1375.33 632.16 1210.91 733.28 1289.65 737.67
00019516 00000111 991.11 260.74 397.75 632.84 1239.35 512.57 1340.27 508.85 1377.29 632.55 1217.54 734.49 1300.14 737.33
00019517 00000112 994.68 258.60 393.99 632.09 1240.79 512.59 1340.70 507.41 1379.67 632.62 1223.47 735.82 1301.37 737.00
00019518 00000113 990.30 260.95 396.78 629.89 1238.98 512.87 1341.26 508.14 1377.23 633.06 1225.71 738.99 1304.18 740.21
00019519 00000114 986.01 262.61 399.85 632.36 1238.12 512.82 1340.53 509.54 1374.37 634.06 1225.42 741.59 1302.14 743.85
00019520 00000115 987.53 263.00 398.89 629.18 1237.11 512.53 1343.66 508.73 1376.21 634.69 1228.29 742.79 1307.48 744.24
00019521 00000116 993.17 264.20 394.89 627.85 1240.18 513.77 1344.90 508.35 1380.41 635.05 1231.50 743.70 1309.46 744.14
00019522 00000117 994.29 267.95 395.72 634.88 1238.57 513.69 1341.22 508.31 1379.11 633.85 1221.27 741.45 1305.63 742.70
00019523 DELETE   987.82 270.67 399.87 646.29 1240.17 507.74 1327.85 513.98 1368.77 630.90 1208.06 737.88 1281.33 748.85
00019524 00000119 986.68 268.42 401.34 644.88 1236.91 510.78 1333.18 513.48 1371.19 631.17 1212.00 740.61 1291.91 748.14
00019525 00000120 990.79 263.52 399.79 641.68 1239.07 514.77 1339.74 511.38 1378.70 633.70 1221.03 741.79 1302.16 744.39
00019526 00000121 990.54 261.68 399.09 632.88 1239.61 515.62 1339.98 506.44 1381.03 632.35 1226.66 740.30 1304.03 737.97
00019527 00000122 989.67 261.98 399.88 629.62 1239.69 515.01 1340.12 504.65 1381.08 630.89 1227.04 738.66 1304.62 735.27
00019528 00000123 988.81 260.51 400.24 633.19 1240.35 515.24 1338.76 505.41 1380.47 630.35 1225.72 737.50 1302.99 734.53
00019529 00000124 992.79 261.16 396.79 632.95 1241.56 515.22 1338.12 505.66 1381.45 630.87 1225.44 737.03 1301.59 734.46
00019530 00000125 995.57 261.58 396.21 634.25 1244.23 515.91 1338.29 505.67 1383.49 633.51 1225.45 738.68 1299.39 736.05
00019531 00000126 998.18 263.81 394.85 641.00 1246.50 516.38 1336.45 508.99 1382.08 633.07 1225.29 741.16 1296.21 741.02
00019532 00000127 997.54 263.18 395.45 642.60 1247.19 516.07 1336.83 509.01 1382.36 633.03 1226.63 742.29 1297.74 742.44
00019533 00000128 990.87 261.17 398.64 637.52 1243.57 516.00 1338.58 507.75 1381.90 633.84 1228.91 743.18 1301.53 741.55
00019534 00000129 985.09 262.02 403.75 633.55 1239.59 516.54 1342.55 506.92 1380.44 637.52 1224.70 744.10 1304.44 741.32
00019535 DELETE   983.47 263.67 404.10 631.66 1240.88 514.52 1337.91 503.74 1380.98 637.38 1223.44 743.36 1296.96 740.04
00019536 DELETE   992.63 253.35 397.14 641.89 1241.55 511.94 1333.63 494.37 1385.86 627.82 1232.16 740.20 1303.76 731.17
00019537 00000132 1003.60 243.48 390.22 642.41 1245.78 506.75 1339.07 490.42 1392.91 620.71 1245.62 735.13 1316.40 726.83
00019538 00000133 1004.24 239.33 391.50 643.59 1248.19 504.07 1341.86 488.07 1394.62 617.56 1248.69 731.82 1319.04 723.40
CROP_BBOX: 524 0 1601 1080
