Video ID: 	UCKn0a7f5Mw
H: 	1080
W: 	1920
FPS: 	25.0

FRAME INDEX X0 Y0 W H [Landmarks (5 Points)]

00009076 00000000 699.70 243.23 474.43 625.54 848.82 480.06 1072.62 474.38 983.97 610.75 869.07 708.19 1062.03 702.98
00009077 00000001 699.08 240.48 475.21 626.45 849.00 478.98 1072.34 473.33 984.04 609.13 867.96 706.21 1061.04 701.18
00009078 00000002 698.95 238.80 474.41 631.05 849.14 477.55 1071.94 472.74 984.10 606.93 867.40 706.09 1060.80 701.69
00009079 00000003 698.03 239.92 468.97 632.99 849.44 475.03 1071.76 477.72 980.48 602.51 865.65 705.36 1061.17 707.53
00009080 00000004 697.53 238.94 468.87 635.06 849.80 473.13 1071.44 477.38 980.20 599.73 864.32 704.06 1059.70 707.47
00009081 00000005 696.40 234.14 469.58 639.50 850.45 471.54 1070.73 476.43 980.55 597.89 862.58 701.08 1058.71 705.00
00009082 00000006 696.77 230.16 472.35 640.87 849.00 471.70 1070.19 467.98 984.81 596.48 866.75 702.49 1058.16 699.22
00009083 00000007 692.66 224.01 471.35 642.33 845.80 468.83 1069.05 463.83 983.16 590.86 862.93 698.52 1055.30 694.62
00009084 DELETE   684.31 210.77 474.56 633.96 841.06 461.47 1063.06 455.99 979.38 573.79 861.88 686.58 1050.91 682.60
00009085 DELETE   679.62 199.04 473.19 626.86 825.66 453.85 1050.33 444.12 962.30 560.60 852.77 673.43 1044.39 665.16
00009086 DELETE   671.34 190.15 476.01 626.83 813.86 441.36 1043.10 429.62 954.99 537.30 844.92 658.98 1047.77 649.63
00009087 00000011 664.40 183.15 480.61 622.55 805.21 432.91 1037.27 420.53 947.90 523.75 839.64 649.33 1045.08 639.30
00009088 00000012 657.63 180.74 481.39 616.62 801.61 429.73 1030.79 417.16 942.86 517.49 838.35 644.07 1038.32 634.44
00009089 00000013 653.65 180.44 481.55 616.73 795.66 430.43 1025.56 416.88 935.78 518.29 834.23 644.45 1034.90 634.21
00009090 00000014 648.76 185.12 482.05 612.94 789.34 435.78 1021.45 420.39 929.30 523.20 829.08 648.99 1031.38 636.99
00009091 00000015 644.64 190.24 480.52 610.88 785.75 445.38 1017.00 426.60 926.42 531.40 825.50 655.34 1027.57 640.49
00009092 00000016 640.66 191.87 481.59 623.00 781.19 451.38 1009.36 428.83 921.03 539.11 824.60 664.63 1024.65 646.47
00009093 00000017 636.19 196.38 487.74 629.49 779.30 454.91 1004.21 429.75 920.88 543.63 827.59 675.18 1022.19 655.07
00009094 00000018 636.33 199.30 487.03 626.72 778.52 458.71 1003.97 430.44 922.03 547.85 828.37 677.85 1023.32 655.16
00009095 00000019 635.80 201.85 485.73 623.85 777.90 460.55 1003.31 430.60 922.27 550.48 828.52 676.62 1024.00 652.56
00009096 00000020 634.80 204.52 486.17 623.56 774.59 463.27 1001.03 430.48 919.46 553.21 826.23 677.38 1024.02 650.96
00009097 00000021 631.81 206.43 486.15 621.29 772.20 466.97 998.70 433.35 917.05 555.79 823.87 679.25 1020.83 652.08
00009098 00000022 628.35 208.87 484.33 621.58 768.52 469.95 995.32 435.44 913.64 558.86 821.30 682.82 1016.65 654.89
00009099 00000023 625.42 212.86 484.04 620.21 765.37 474.80 993.57 439.57 911.10 562.97 818.21 686.44 1014.10 657.89
00009100 00000024 623.40 213.70 483.85 621.09 763.37 477.44 991.89 442.73 909.44 566.46 813.81 688.09 1012.53 659.83
00009101 00000025 620.78 215.29 483.21 621.72 761.03 478.89 989.01 445.10 905.43 567.50 810.27 691.36 1006.16 663.98
00009102 00000026 619.00 215.31 482.87 623.88 759.63 481.02 985.98 447.31 902.94 568.28 808.86 694.63 1002.89 667.17
00009103 00000027 614.60 217.77 486.47 626.94 756.46 481.90 983.38 447.78 900.60 568.79 806.31 699.05 1001.33 670.82
00009104 00000028 611.17 217.40 487.20 628.63 755.36 482.72 981.22 449.27 899.64 569.48 803.55 699.03 999.22 671.29
00009105 00000029 609.02 218.07 486.38 628.78 753.50 483.96 979.17 449.47 898.78 570.61 802.68 699.84 998.68 671.14
00009106 00000030 606.96 218.59 486.32 626.74 752.25 485.03 978.37 450.66 897.95 570.79 800.00 698.58 997.34 669.92
00009107 00000031 607.07 219.62 486.61 621.74 751.88 484.29 977.40 450.17 896.79 571.22 798.91 695.40 996.75 667.03
00009108 00000032 606.59 218.92 486.48 620.06 751.50 480.85 978.01 447.20 896.87 569.55 798.51 692.54 996.13 664.78
00009109 00000033 606.85 218.27 485.73 622.11 751.80 477.40 976.88 444.81 896.65 568.28 799.10 692.41 995.34 665.52
00009110 00000034 606.61 217.77 485.83 625.93 751.45 476.80 976.32 443.90 896.93 568.18 800.25 695.68 995.80 668.40
00009111 00000035 607.40 218.28 485.18 624.59 751.99 476.82 978.13 444.73 897.39 568.70 799.63 695.07 995.51 668.58
00009112 00000036 608.55 217.48 484.36 622.98 752.61 477.95 981.38 445.70 898.31 569.77 798.33 692.82 996.11 666.35
00009113 00000037 609.75 217.54 483.83 621.90 753.63 478.21 983.31 447.10 899.20 570.54 797.66 692.18 996.57 666.71
00009114 00000038 609.72 217.90 483.82 621.06 756.50 485.32 982.69 456.31 900.03 576.67 797.26 694.16 993.80 670.34
00009115 DELETE   607.87 218.22 484.72 627.80 758.07 497.53 978.12 472.46 893.51 581.32 790.11 696.25 984.28 675.37
00009116 DELETE   606.74 232.67 477.09 617.79 748.80 495.07 971.55 478.89 882.19 588.58 775.64 696.96 976.71 684.19
00009117 DELETE   603.01 240.40 475.63 613.68 738.35 496.47 965.57 483.51 868.79 595.50 764.39 701.22 967.79 691.74
00009118 00000042 598.14 244.62 478.34 614.77 729.82 493.68 959.35 488.06 854.62 601.91 751.12 704.17 953.88 700.67
00009119 00000043 598.19 243.12 479.27 617.65 728.78 490.81 958.27 489.96 849.68 600.14 746.40 702.74 947.76 703.03
00009120 00000044 602.44 240.40 477.74 616.43 735.64 484.83 962.23 486.97 855.62 595.01 750.33 695.49 951.36 697.72
00009121 00000045 607.62 234.97 478.14 618.84 741.82 477.47 969.10 476.94 865.13 590.86 759.22 691.43 964.34 690.51
00009122 00000046 613.41 231.62 478.13 619.56 746.92 474.38 975.14 472.19 871.04 590.39 765.51 690.85 971.70 688.55
00009123 00000047 620.67 226.45 483.07 628.91 763.33 469.36 989.53 465.74 885.64 588.97 779.77 695.81 970.79 692.98
00009124 00000048 624.47 224.86 481.73 623.30 768.14 468.09 995.88 463.59 895.32 587.38 784.92 691.66 978.71 688.52
00009125 00000049 626.96 220.27 480.53 622.57 769.94 463.48 999.33 456.34 901.14 579.00 791.18 688.30 984.76 683.24
00009126 00000050 628.07 214.18 480.85 625.04 772.11 458.26 1001.67 450.22 905.62 574.37 797.37 685.80 989.73 680.16
00009127 00000051 631.47 212.28 479.87 624.47 775.92 455.46 1004.09 445.77 911.04 568.46 805.87 685.12 995.55 678.30
00009128 00000052 634.24 210.16 480.00 625.93 778.54 452.10 1008.08 444.82 914.28 565.30 806.75 683.54 998.88 678.72
00009129 00000053 636.44 209.02 478.80 627.42 782.46 450.98 1010.51 445.79 917.70 565.23 809.17 682.26 999.94 679.16
00009130 00000054 636.92 209.46 478.84 626.94 786.39 455.07 1012.25 450.36 921.51 569.67 812.53 682.12 1000.03 679.49
00009131 00000055 637.18 210.82 479.07 625.55 786.44 457.61 1012.66 451.23 922.09 571.89 812.05 681.02 1001.78 676.98
00009132 00000056 636.36 211.50 479.78 622.57 786.14 459.04 1012.52 451.66 922.51 572.65 812.60 679.68 1003.18 674.72
00009133 00000057 634.70 211.80 479.14 618.15 785.28 459.67 1010.49 451.12 922.10 571.09 811.56 676.81 1002.25 670.91
00009134 00000058 631.69 208.45 479.75 617.62 781.52 460.01 1007.05 449.69 917.92 568.36 809.49 674.98 1000.37 667.59
00009135 00000059 629.03 206.61 479.93 616.90 777.35 461.02 1003.69 446.54 915.13 565.80 808.87 675.71 1000.73 664.97
00009136 00000060 626.35 206.57 479.48 616.34 772.81 461.85 1000.61 444.19 912.69 563.57 806.75 676.36 1001.11 663.01
00009137 00000061 624.42 207.33 477.99 615.23 769.25 461.85 996.88 441.01 909.89 559.87 806.09 677.24 999.88 661.25
00009138 00000062 621.73 204.65 476.97 618.61 766.75 460.50 992.24 438.37 906.98 555.51 806.49 677.59 997.88 660.33
00009139 00000063 619.42 205.73 477.77 619.78 764.57 460.98 990.51 437.56 905.81 554.00 805.49 678.81 997.62 660.29
00009140 00000064 618.11 205.41 477.74 623.82 763.46 461.96 987.13 437.51 904.95 554.72 805.76 682.84 996.26 663.55
00009141 00000065 617.54 209.35 477.55 625.56 762.80 463.98 986.53 439.87 904.71 557.60 805.24 688.01 994.90 668.96
00009142 00000066 617.85 209.72 477.28 624.45 765.10 466.28 989.60 444.53 906.65 561.35 805.01 686.66 994.68 669.56
00009143 00000067 620.19 206.45 475.12 622.00 767.73 472.70 989.89 453.04 906.01 562.07 804.63 682.70 993.01 667.22
00009144 00000068 619.68 199.51 475.26 624.59 767.11 470.23 990.01 450.81 905.10 556.31 800.66 677.57 993.86 662.12
00009145 00000069 618.20 192.83 474.98 625.91 764.51 463.99 988.64 444.43 901.19 547.43 797.82 672.35 992.46 656.54
00009146 00000070 618.81 188.74 474.79 625.53 763.59 462.50 986.92 441.05 899.36 539.68 799.26 667.73 993.45 650.15
00009147 00000071 620.59 188.06 475.41 622.30 765.06 462.19 989.61 439.69 901.08 538.37 800.60 664.85 995.51 646.68
00009148 00000072 622.75 188.91 474.79 621.22 765.78 461.31 991.83 439.12 902.45 537.45 800.71 663.49 998.24 645.88
00009149 00000073 624.50 189.22 477.55 620.67 768.52 460.81 993.59 438.41 905.58 536.06 805.07 662.57 1001.40 645.01
00009150 00000074 626.30 189.89 479.90 622.83 769.95 454.02 993.84 431.20 907.29 534.23 810.01 662.33 1005.12 644.56
00009151 00000075 628.84 188.90 480.42 623.14 774.08 448.59 998.52 427.26 913.49 534.18 815.51 661.63 1010.69 644.86
00009152 00000076 633.11 187.33 480.97 624.72 779.22 444.83 1006.00 426.55 920.48 533.35 817.71 658.96 1017.12 644.46
00009153 00000077 636.28 187.49 481.41 622.23 784.64 445.92 1013.25 428.71 927.68 534.11 821.23 658.19 1021.80 644.69
00009154 00000078 640.38 187.19 479.31 622.42 787.93 447.69 1017.04 430.29 930.96 537.40 823.36 659.67 1024.90 645.81
00009155 00000079 642.16 187.23 478.61 622.98 790.98 446.97 1019.47 429.80 934.43 538.90 826.87 660.14 1027.52 646.50
00009156 00000080 643.58 187.31 478.01 622.49 792.01 446.27 1020.99 429.32 935.67 539.09 827.32 659.94 1028.53 646.53
00009157 00000081 644.35 186.44 477.44 624.93 792.14 445.21 1020.80 428.96 935.02 538.38 826.69 659.57 1028.33 646.73
00009158 00000082 643.96 185.25 479.10 630.15 791.02 443.08 1019.84 427.33 933.65 535.54 826.61 659.82 1028.82 647.32
00009159 00000083 643.55 183.84 478.63 632.85 789.68 440.81 1018.54 425.89 931.35 533.84 825.01 659.39 1027.05 647.59
00009160 00000084 642.68 184.93 477.72 630.83 786.59 439.87 1016.22 427.25 925.77 534.77 819.44 659.68 1020.69 649.76
00009161 00000085 640.43 186.59 479.78 630.44 781.65 441.51 1011.54 429.80 917.89 537.71 814.34 661.49 1014.24 652.26
00009162 00000086 636.11 188.81 479.37 627.67 776.31 456.57 1001.38 443.64 904.83 545.41 803.05 663.74 1001.00 653.65
00009163 DELETE   628.75 192.68 478.10 625.39 764.07 456.14 991.78 446.12 887.17 549.90 785.64 665.84 983.35 658.23
00009164 DELETE   621.67 194.19 476.39 629.48 748.91 450.77 976.25 442.51 865.92 552.77 766.41 665.67 965.89 658.91
00009165 00000089 613.91 194.90 482.16 629.27 732.18 446.20 964.77 444.30 845.54 565.39 748.56 660.12 955.04 658.03
00009166 00000090 611.09 198.59 482.90 624.76 725.47 444.72 959.88 441.49 837.28 568.22 744.54 663.56 948.26 660.64
00009167 00000091 615.82 207.04 475.42 620.07 723.72 444.34 954.66 441.03 835.43 562.61 746.99 670.56 947.14 665.70
00009168 DELETE   615.02 210.91 475.70 616.65 725.45 447.87 954.88 442.15 838.84 565.35 747.55 670.46 951.12 663.60
00009169 DELETE   614.41 215.13 478.21 612.04 727.15 453.60 956.81 444.31 843.95 569.07 752.29 672.43 957.61 662.68
00009170 00000094 612.64 220.57 481.71 609.64 729.89 458.99 960.09 447.02 849.78 573.87 758.51 677.65 962.30 665.74
00009171 00000095 610.35 227.69 481.90 609.59 728.98 465.79 959.44 453.70 849.95 584.02 758.09 684.70 962.57 672.95
00009172 DELETE   606.54 237.37 481.87 609.43 728.19 479.09 954.28 466.44 848.70 591.60 755.07 690.65 958.95 679.53
00009173 00000097 606.07 246.58 480.43 611.34 724.89 496.35 950.18 481.77 843.72 603.85 752.53 700.66 956.90 688.85
00009174 00000098 599.05 251.85 485.08 612.79 714.12 490.03 942.74 477.00 832.11 603.83 745.97 707.46 945.97 696.49
00009175 DELETE   593.54 252.80 488.17 615.54 704.17 485.52 934.98 473.66 819.25 607.53 738.77 712.80 934.36 702.64
00009176 DELETE   588.08 250.47 489.18 619.19 693.12 483.77 925.62 475.62 803.66 611.63 726.53 715.42 919.61 708.33
00009177 00000101 579.93 249.46 489.31 617.51 685.20 480.07 918.64 478.34 790.05 613.00 710.83 711.20 906.25 709.17
00009178 00000102 577.54 249.29 488.00 614.73 683.29 476.74 915.73 478.52 784.61 611.77 704.82 707.38 898.75 708.07
00009179 00000103 576.86 247.60 488.92 614.71 682.04 475.18 914.72 479.29 781.79 610.28 701.04 705.21 896.07 707.66
00009180 00000104 577.99 247.27 489.51 614.79 683.82 474.75 916.03 479.56 782.81 609.41 702.48 704.40 896.17 707.43
00009181 00000105 581.03 247.32 488.13 614.24 685.91 474.78 919.52 479.32 785.48 608.81 705.15 704.58 901.18 707.25
00009182 00000106 582.55 247.69 488.94 612.79 689.50 474.63 924.43 479.92 789.93 608.94 705.44 699.54 909.05 702.79
00009183 00000107 587.30 246.04 488.43 612.75 698.31 478.06 932.85 479.89 803.19 607.63 715.68 696.62 920.71 697.28
00009184 DELETE   598.60 247.82 482.53 612.65 713.99 484.28 945.21 485.30 822.95 603.17 729.74 699.42 934.11 699.86
00009185 DELETE   608.10 243.83 480.33 618.88 725.26 475.24 955.75 476.36 839.47 599.51 741.80 698.98 946.21 699.59
00009186 00000110 615.61 237.06 480.24 624.22 738.18 467.35 968.21 469.33 854.39 596.37 751.43 693.21 959.53 694.43
00009187 DELETE   625.56 223.88 484.08 633.95 760.03 459.53 987.74 462.73 875.89 591.91 772.41 691.32 966.21 694.40
00009188 DELETE   632.45 220.45 486.45 630.18 775.18 455.43 1002.72 456.23 897.69 583.58 789.19 684.38 980.03 686.14
00009189 DELETE   641.63 216.56 485.38 625.53 785.26 453.01 1013.99 452.92 913.14 580.42 802.63 679.17 996.53 680.41
00009190 00000114 648.06 215.57 483.38 622.90 791.11 452.44 1023.72 452.55 922.83 580.68 805.08 674.75 1006.68 676.52
00009191 00000115 651.60 217.29 481.14 624.20 795.69 455.98 1026.94 454.84 930.13 584.57 811.65 677.30 1012.11 677.96
00009192 00000116 650.94 219.16 479.30 631.14 793.99 459.36 1025.51 456.47 930.25 588.50 809.63 682.80 1012.59 681.72
00009193 DELETE   645.86 229.09 478.44 630.91 783.26 465.18 1013.77 459.07 914.64 593.47 800.42 689.46 1002.19 685.44
00009194 DELETE   635.13 236.25 481.01 627.30 771.66 467.73 1001.05 467.57 894.77 602.11 781.79 692.90 983.00 693.35
00009195 00000119 627.77 236.53 484.72 627.65 762.07 471.38 993.47 474.62 880.45 607.19 768.86 696.99 972.72 699.79
00009196 00000120 629.32 238.32 485.11 628.03 766.55 469.39 996.64 473.91 886.44 606.66 772.50 695.29 976.47 699.26
00009197 DELETE   636.16 235.46 481.77 626.40 778.40 467.48 1006.91 470.91 902.79 604.28 782.89 688.88 986.10 692.79
00009198 00000122 638.54 226.71 482.54 629.46 781.85 460.73 1010.61 462.38 908.90 594.10 791.15 684.82 991.53 687.51
00009199 00000123 635.14 217.45 483.86 627.38 779.72 454.95 1008.48 456.20 907.31 583.46 790.16 678.19 989.83 680.62
00009200 00000124 633.55 213.28 483.45 619.45 773.73 452.01 1002.73 450.52 898.99 575.10 786.90 672.92 985.81 673.04
00009201 00000125 630.19 211.51 482.94 618.72 768.65 446.92 998.32 444.11 893.80 569.03 783.46 670.57 982.80 669.59
00009202 00000126 628.91 215.94 484.34 617.34 766.90 448.98 997.57 447.42 890.68 573.73 780.06 672.91 980.17 672.91
00009203 DELETE   630.23 217.91 486.55 624.61 770.42 455.67 1000.50 454.68 894.67 585.87 782.83 678.13 982.64 678.54
00009204 DELETE   636.77 225.87 484.32 629.05 779.84 460.48 1008.42 457.35 909.95 591.21 793.75 682.34 996.48 680.99
00009205 00000129 644.93 230.80 480.80 627.46 787.49 466.80 1016.02 461.25 922.08 596.72 803.70 687.00 1007.99 683.46
00009206 00000130 647.20 241.10 478.87 617.55 788.49 470.02 1015.98 470.87 913.07 603.98 799.25 688.86 1007.53 689.62
00009207 00000131 639.74 242.23 480.43 622.51 778.81 475.15 1007.40 471.28 908.29 610.11 790.67 689.91 998.59 687.86
00009208 00000132 636.83 242.22 480.58 622.66 776.29 474.29 1006.59 471.19 906.01 610.52 785.75 689.88 995.63 688.57
00009209 00000133 638.62 235.95 478.85 627.35 778.60 468.99 1006.63 465.46 908.03 604.70 789.53 687.09 996.28 685.45
00009210 00000134 640.44 230.29 477.61 630.77 780.72 464.60 1006.65 458.43 912.32 596.31 797.62 687.50 999.01 683.53
00009211 00000135 639.36 228.29 478.95 631.14 779.27 464.21 1004.98 456.25 910.81 594.23 797.80 686.21 998.87 680.86
00009212 00000136 636.28 232.19 479.26 627.69 774.04 467.06 1001.56 458.63 904.58 597.79 792.44 688.38 994.63 682.47
00009213 DELETE   632.08 233.95 481.11 631.08 769.11 470.73 998.13 462.18 898.35 602.78 787.44 693.51 990.53 687.10
00009214 00000138 628.75 232.54 481.56 633.16 765.15 471.47 992.81 461.42 892.76 602.38 785.91 695.14 986.65 687.12
00009215 DELETE   626.67 224.70 480.02 633.10 759.84 466.52 989.14 451.19 890.02 593.04 788.49 691.34 988.67 678.78
00009216 00000140 621.43 214.83 479.04 621.36 752.93 458.44 982.15 439.64 883.87 578.68 787.77 681.10 984.16 666.22
00009217 DELETE   615.03 201.65 480.67 625.47 747.25 452.22 973.33 430.65 877.32 564.38 784.83 673.89 979.88 656.50
00009218 00000142 611.63 197.61 483.84 624.81 741.03 445.94 969.32 423.24 870.50 555.29 781.69 669.95 978.32 651.42
CROP_BBOX: 356 0 1394 1029
