Video ID: 	GFOmfA8L44A
H: 	1080
W: 	1920
FPS: 	25.0

FRAME INDEX X0 Y0 W H [Landmarks (5 Points)]

00019819 00000000 621.32 182.98 343.75 544.72 789.25 412.93 935.09 409.80 936.45 510.43 801.99 597.26 920.29 597.10
00019820 DELETE   617.74 177.81 349.53 558.28 796.04 407.78 943.30 401.86 938.84 510.90 793.53 597.22 923.20 596.96
00019821 DELETE   604.83 181.07 354.79 550.41 776.35 406.77 933.35 403.27 921.86 507.60 773.47 592.14 914.20 593.96
00019822 DELETE   595.09 185.76 360.87 544.29 758.54 414.01 923.08 404.99 902.14 513.81 756.78 592.85 905.36 590.31
00019823 00000004 589.98 198.81 359.34 532.96 749.62 412.84 912.12 407.51 887.83 512.06 742.75 590.63 889.78 591.01
00019824 00000005 584.14 198.17 363.26 533.10 744.55 413.41 908.34 411.47 879.63 514.22 737.46 590.27 885.29 593.14
00019825 00000006 586.41 198.86 360.87 531.31 747.64 412.61 907.49 411.25 880.70 512.59 736.59 586.77 883.72 590.42
00019826 00000007 591.48 198.96 358.95 526.90 754.57 410.92 913.04 407.60 889.72 511.92 740.46 583.84 886.98 586.74
00019827 00000008 594.25 193.69 355.86 529.61 760.99 409.44 913.63 404.10 896.21 513.13 742.74 581.31 886.64 582.88
00019828 00000009 596.98 195.62 352.18 524.28 765.05 405.80 915.10 401.40 900.34 511.28 748.81 580.97 886.71 583.21
00019829 00000010 598.79 194.69 350.63 522.54 768.37 404.91 916.49 402.49 902.10 509.54 753.41 579.54 886.94 583.13
00019830 00000011 598.35 192.61 348.13 520.08 769.78 404.92 913.72 404.89 898.01 504.83 760.97 579.13 884.83 583.49
00019831 00000012 599.50 190.34 345.59 515.92 765.81 405.30 910.61 404.50 890.71 501.67 766.44 580.31 884.40 583.11
00019832 00000013 599.12 191.86 346.20 512.02 761.90 404.48 910.12 402.56 886.99 501.80 764.91 579.96 884.73 581.77
00019833 00000014 594.76 189.98 345.27 511.90 758.79 404.98 904.31 402.16 882.20 501.84 762.94 580.86 877.08 581.63
00019834 00000015 591.48 191.97 348.12 509.10 751.15 408.54 899.81 399.29 875.73 503.50 758.31 583.04 875.76 578.56
00019835 00000016 588.75 191.84 349.01 509.94 746.38 409.80 895.87 402.55 869.15 502.20 758.12 584.35 872.94 580.76
00019836 00000017 586.32 191.22 350.55 510.43 741.59 411.92 894.46 405.52 864.49 503.67 753.24 585.05 870.50 582.21
00019837 00000018 583.90 193.85 349.10 504.81 739.19 411.78 889.89 403.94 860.30 504.40 750.61 583.30 866.18 579.51
00019838 00000019 580.88 197.41 350.07 502.48 738.89 412.16 886.20 404.85 857.03 505.85 748.43 582.48 861.48 579.06
00019839 00000020 580.68 196.49 345.53 505.35 738.90 409.24 882.12 405.39 855.45 505.60 744.44 583.56 852.41 583.03
00019840 00000021 577.82 197.53 346.33 508.34 737.79 407.54 881.48 407.58 855.72 503.88 737.48 580.97 849.14 583.69
00019841 00000022 577.25 195.71 346.56 510.09 737.35 405.31 882.48 408.56 856.45 500.41 732.61 576.86 849.65 582.43
00019842 00000023 577.82 194.29 346.75 511.14 735.13 403.93 883.04 406.63 856.12 498.48 730.15 574.48 853.64 579.85
00019843 00000024 576.86 194.98 347.03 510.04 734.48 403.46 882.54 406.61 855.58 497.50 728.77 572.91 854.08 578.77
00019844 00000025 575.99 195.58 347.37 509.78 733.85 403.68 882.43 406.74 855.40 497.63 727.98 572.78 854.06 578.56
00019845 00000026 576.59 195.64 346.22 509.60 734.34 403.51 882.36 406.70 855.90 497.85 727.14 571.51 854.05 577.57
00019846 00000027 577.42 196.06 346.53 510.03 734.95 402.77 882.93 405.78 856.39 498.52 726.07 570.95 853.87 577.08
00019847 00000028 577.19 195.14 346.37 513.66 735.98 402.74 881.89 405.70 857.87 500.75 725.37 572.95 849.79 578.99
00019848 00000029 577.33 195.13 345.99 514.55 735.98 403.00 881.22 405.98 857.52 501.41 727.01 574.44 848.37 580.22
00019849 00000030 577.77 194.64 345.87 512.90 737.06 403.81 881.33 406.27 856.71 500.98 730.12 574.72 849.48 580.00
00019850 00000031 578.90 194.63 346.35 509.50 738.09 405.60 881.95 405.98 855.31 500.39 736.86 576.39 852.41 579.57
00019851 00000032 580.45 192.95 345.51 506.74 737.14 405.98 883.51 404.91 854.41 499.03 739.88 576.42 855.42 578.25
00019852 00000033 579.98 194.12 347.32 502.82 738.55 406.21 883.96 404.87 853.47 498.33 742.86 575.05 855.94 576.40
00019853 00000034 580.19 195.08 347.85 499.98 737.88 405.76 884.55 405.18 853.26 496.65 742.31 573.69 856.96 575.58
00019854 00000035 580.34 194.97 348.29 499.25 737.64 405.84 885.39 405.05 853.85 496.64 741.94 573.28 858.01 575.10
00019855 00000036 579.99 193.53 348.76 501.00 737.47 406.51 885.64 404.72 853.31 497.77 741.84 574.01 858.04 575.05
00019856 00000037 580.07 193.24 348.25 501.82 737.40 406.71 884.70 404.96 851.94 498.46 743.28 575.63 856.96 576.49
00019857 00000038 581.92 192.08 344.60 501.72 737.13 405.80 882.65 403.33 850.43 498.24 746.61 577.27 855.98 577.22
00019858 00000039 581.98 192.14 343.33 506.42 738.50 406.40 881.81 404.63 852.09 500.13 749.10 580.74 854.92 581.19
00019859 00000040 580.98 190.40 345.52 512.39 738.66 406.06 884.02 405.52 852.97 502.39 745.27 583.24 853.06 584.85
00019860 00000041 577.53 192.06 349.61 512.95 735.94 406.47 884.17 405.82 853.11 502.32 741.66 583.21 852.96 584.78
00019861 00000042 577.85 190.33 344.80 511.97 734.78 406.38 880.30 405.99 850.81 498.23 741.21 580.26 852.89 582.17
00019862 00000043 576.10 186.28 345.23 513.33 735.74 404.33 877.65 404.81 848.43 494.07 744.68 578.18 852.38 580.46
00019863 00000044 576.39 183.17 343.83 512.07 736.58 402.51 875.60 403.11 846.62 491.46 750.67 577.32 852.78 579.24
00019864 00000045 575.49 181.79 344.88 510.23 734.85 403.05 874.92 401.38 845.64 490.48 754.67 577.91 855.38 577.63
00019865 00000046 574.34 185.45 345.59 507.43 733.67 408.67 873.17 403.00 844.73 494.44 755.28 580.90 855.14 577.23
00019866 00000047 577.33 187.74 345.11 506.30 735.31 412.48 877.88 404.35 848.75 501.90 758.43 586.56 857.85 580.73
00019867 00000048 578.23 190.45 344.71 507.10 738.22 413.81 880.57 406.35 852.66 505.42 761.84 590.36 860.26 585.11
00019868 00000049 581.13 189.25 342.87 506.92 739.46 411.82 882.81 406.04 856.54 502.51 766.54 589.85 864.95 585.90
00019869 00000050 582.63 183.62 339.24 507.40 740.11 406.49 878.66 399.28 857.32 495.00 768.17 583.35 864.71 578.55
00019870 00000051 582.43 173.34 339.28 514.91 739.67 396.10 879.07 390.49 859.14 483.85 765.32 575.99 866.21 572.81
00019871 00000052 579.08 161.48 340.87 521.82 737.07 386.25 875.75 380.75 855.84 473.95 764.15 568.24 864.90 564.73
00019872 00000053 571.81 158.86 342.42 515.93 734.66 373.54 871.73 370.50 859.26 461.91 764.98 558.55 864.30 556.88
00019873 00000054 557.80 149.86 350.42 517.67 726.40 370.24 871.60 367.86 855.97 455.49 759.82 550.32 864.91 548.65
00019874 00000055 557.08 144.64 347.65 516.31 726.90 363.50 869.14 359.78 854.39 449.48 760.51 546.29 860.65 543.08
00019875 00000056 557.21 144.86 346.89 511.37 723.72 358.50 868.94 356.43 850.92 445.21 758.02 542.09 859.62 540.05
00019876 00000057 559.25 140.70 343.88 509.37 722.15 356.38 870.77 353.97 849.18 442.88 755.91 538.86 860.83 536.79
00019877 00000058 558.92 137.85 344.65 508.48 720.72 357.04 870.86 353.08 848.40 442.01 754.11 535.93 861.85 532.78
00019878 00000059 558.27 136.44 345.34 506.86 721.04 357.42 870.39 353.07 847.75 440.52 752.90 532.39 861.77 529.08
00019879 00000060 558.28 136.98 345.65 505.29 721.08 357.08 870.30 352.90 847.43 439.78 753.36 531.27 862.42 528.16
00019880 00000061 558.12 136.95 345.97 504.57 721.08 357.61 870.15 352.87 847.54 440.24 754.97 531.82 863.04 528.11
00019881 00000062 560.59 133.56 342.03 509.23 723.62 360.69 872.00 357.49 849.57 442.25 756.44 533.97 863.71 531.55
00019882 00000063 562.48 134.81 340.01 511.07 723.57 364.36 870.48 357.31 851.19 443.13 758.34 536.79 865.12 531.74
00019883 00000064 562.43 132.44 342.69 515.09 722.20 364.09 869.95 355.81 849.94 446.36 762.16 542.80 865.70 536.37
00019884 00000065 562.59 136.45 344.19 515.01 724.59 366.00 869.14 358.42 853.41 448.75 765.94 546.45 865.78 540.38
00019885 00000066 562.71 142.17 349.19 516.68 724.94 370.93 870.66 359.22 855.79 452.22 770.94 551.91 870.33 542.48
00019886 00000067 564.74 145.95 349.70 513.59 727.97 372.91 872.97 361.40 859.30 456.23 774.25 556.67 871.81 547.35
00019887 00000068 572.51 154.11 344.89 509.06 736.66 368.36 868.61 358.12 864.66 455.83 779.46 555.42 870.41 547.84
00019888 00000069 574.52 153.65 344.91 511.29 740.33 369.72 872.43 358.22 868.96 455.89 782.22 556.42 874.33 547.97
00019889 00000070 576.23 151.41 347.19 513.65 742.09 368.35 875.01 357.20 870.94 452.84 783.51 554.98 877.43 546.87
00019890 00000071 575.86 151.94 348.40 516.03 743.70 367.31 875.59 358.85 873.32 451.12 784.17 554.73 878.49 548.79
00019891 00000072 578.45 154.28 345.55 523.70 743.10 365.73 874.36 360.50 870.57 450.66 780.40 557.93 874.35 554.48
00019892 00000073 578.15 157.18 347.22 540.26 740.29 367.70 879.01 369.31 871.11 457.84 760.42 563.71 867.86 566.75
00019893 00000074 577.32 161.71 350.75 544.70 742.65 370.90 882.32 374.89 876.76 465.66 743.26 561.90 860.56 568.17
00019894 00000075 577.26 165.40 351.11 544.14 740.18 375.59 880.51 378.89 871.84 469.67 736.77 562.40 857.07 568.45
00019895 00000076 573.99 174.16 352.27 533.58 737.44 384.49 880.19 383.99 863.94 481.13 734.92 566.69 856.57 569.52
00019896 00000077 570.38 174.76 355.29 527.94 735.29 387.53 878.46 388.23 857.45 484.90 738.23 571.88 853.87 574.87
00019897 00000078 569.75 175.22 353.46 520.72 734.68 391.36 876.94 392.88 852.45 486.11 738.26 572.11 850.75 575.59
00019898 00000079 569.21 176.03 352.84 514.73 732.93 395.98 875.13 393.82 848.39 487.61 739.86 572.13 849.51 572.44
00019899 00000080 568.30 178.54 352.44 510.82 732.43 397.30 874.69 395.04 847.35 487.45 739.18 570.71 849.78 570.89
00019900 00000081 568.33 178.94 353.14 511.25 732.63 397.31 873.98 394.18 846.52 487.12 740.99 571.20 850.03 570.54
00019901 00000082 570.03 177.80 351.34 513.04 734.26 396.11 873.56 394.01 847.08 487.20 742.51 571.87 849.15 572.10
00019902 00000083 571.14 177.66 351.19 514.03 736.52 393.84 873.69 392.48 847.44 486.57 744.89 571.22 848.66 571.90
00019903 00000084 571.52 178.45 350.90 513.50 737.27 393.90 874.31 392.89 847.78 487.05 745.40 571.89 848.42 572.79
00019904 00000085 572.39 177.63 351.06 514.23 737.91 393.96 874.81 393.28 848.23 486.66 746.68 572.31 849.20 573.42
00019905 00000086 572.81 177.67 351.29 514.48 738.93 393.48 875.67 393.45 849.69 486.49 747.73 572.43 849.60 573.99
00019906 00000087 574.08 176.62 352.09 516.16 739.64 391.78 876.46 391.88 850.53 485.79 748.57 572.62 850.85 574.32
00019907 00000088 575.80 175.33 351.90 520.63 740.65 389.80 878.31 389.92 853.59 486.64 746.49 573.83 850.83 575.88
00019908 00000089 575.10 174.82 350.73 526.53 740.66 390.28 877.60 391.47 855.16 487.79 743.04 574.08 849.29 577.38
00019909 00000090 576.71 174.20 352.47 530.98 739.27 396.93 877.02 398.28 854.15 485.63 737.56 570.38 852.09 574.65
00019910 00000091 575.99 174.52 353.68 532.51 738.77 393.61 878.55 397.88 853.96 483.80 732.49 566.38 853.14 573.25
00019911 00000092 578.69 175.16 350.04 529.24 739.76 383.47 882.68 390.87 856.97 481.62 730.07 561.03 856.16 570.66
00019912 00000093 576.53 174.66 353.93 526.12 739.08 382.68 881.69 385.97 857.85 482.14 727.40 554.74 859.30 561.74
00019913 00000094 577.05 174.39 352.30 520.68 737.28 377.96 880.41 380.75 854.57 478.51 727.76 549.97 860.31 556.45
00019914 00000095 575.09 172.55 351.39 514.86 736.95 373.36 879.65 377.64 853.55 473.40 728.67 545.80 859.24 553.66
00019915 00000096 573.09 171.34 354.24 511.44 733.97 375.44 876.68 377.33 849.48 472.46 727.65 543.36 859.80 549.51
00019916 00000097 572.21 171.13 355.36 508.85 733.98 376.28 877.13 380.82 847.79 470.83 727.00 540.67 860.50 548.88
00019917 00000098 571.86 170.00 355.50 509.38 734.46 376.10 876.49 382.24 845.98 470.69 727.02 539.85 858.92 549.13
00019918 00000099 570.42 171.34 356.56 508.26 734.03 375.80 875.15 382.97 843.59 470.46 726.95 540.14 856.39 549.98
00019919 00000100 569.56 171.35 355.77 506.51 733.98 376.44 875.47 384.83 843.96 469.48 728.00 542.04 855.34 552.39
00019920 00000101 568.75 170.38 355.78 507.80 733.39 375.69 874.27 384.55 842.09 467.96 729.67 544.05 852.53 554.23
00019921 00000102 568.63 170.04 355.80 510.66 732.68 375.50 872.57 384.62 839.36 467.06 729.74 545.92 849.54 555.91
00019922 00000103 567.78 169.20 356.19 512.83 732.99 376.05 871.72 384.17 839.29 467.65 731.92 548.47 848.26 557.31
00019923 00000104 567.91 169.07 356.55 513.00 735.00 374.13 872.20 381.58 840.71 468.78 735.01 550.88 847.40 558.87
00019924 00000105 568.36 168.92 356.02 513.49 735.68 373.54 872.54 381.57 841.58 468.42 737.26 551.77 847.62 560.09
00019925 00000106 569.70 168.69 354.97 513.29 736.43 373.73 873.33 381.57 843.32 468.51 738.77 553.05 848.37 561.20
00019926 00000107 571.01 168.49 354.48 513.07 737.30 373.01 875.44 382.48 844.62 468.09 738.96 553.28 849.19 562.76
00019927 00000108 572.33 166.07 354.29 515.01 738.07 374.21 877.37 384.53 845.83 469.07 740.26 554.58 850.25 564.67
00019928 00000109 573.90 168.12 355.51 512.78 736.01 377.33 880.34 388.00 845.85 470.98 739.15 556.01 854.54 566.34
00019929 00000110 575.13 170.23 355.45 509.02 736.02 379.08 882.55 389.46 846.64 472.44 738.78 555.59 857.28 565.69
00019930 00000111 576.68 170.93 354.82 509.86 736.78 378.24 883.93 390.98 846.96 472.43 737.68 556.18 856.94 568.29
00019931 00000112 575.69 169.92 357.36 520.95 738.15 376.42 885.06 391.49 847.97 474.09 735.12 560.37 853.62 574.81
00019932 00000113 578.36 170.37 358.63 530.11 738.58 375.00 889.83 395.98 852.34 476.89 731.01 565.23 853.87 584.58
00019933 00000114 579.77 176.86 357.90 524.52 743.47 377.96 892.14 400.21 853.68 477.80 735.28 564.62 855.52 585.04
00019934 00000115 584.21 179.88 353.48 513.59 741.37 385.72 895.78 406.40 853.89 478.34 736.78 563.60 863.95 582.76
00019935 00000116 587.98 178.35 350.00 510.76 744.65 388.38 898.08 410.77 858.29 478.58 741.17 562.99 867.64 583.60
00019936 00000117 589.55 178.17 350.07 513.60 747.73 389.50 896.86 407.95 860.42 481.10 747.10 565.07 868.60 582.14
00019937 00000118 590.72 177.99 347.78 511.17 747.62 389.64 896.59 405.21 860.92 480.43 751.34 565.81 870.50 580.38
00019938 00000119 592.56 175.12 346.72 510.66 748.55 390.88 897.86 403.78 864.48 481.25 754.20 566.28 873.39 578.75
00019939 00000120 594.02 174.73 345.63 511.97 753.03 397.28 897.61 409.62 869.21 477.18 760.20 564.89 875.46 577.41
00019940 00000121 595.89 175.12 343.83 514.75 757.36 397.52 899.56 407.78 874.28 480.26 763.79 567.05 878.45 578.02
00019941 00000122 596.25 176.42 346.64 515.73 755.96 393.61 900.65 401.29 872.26 484.44 763.80 570.51 878.41 579.19
00019942 00000123 598.56 174.98 345.81 517.44 755.98 392.51 900.47 399.11 871.38 485.58 765.34 571.74 879.23 579.40
00019943 00000124 599.16 174.79 344.08 516.66 756.46 389.76 902.58 395.27 874.04 483.78 768.11 571.81 882.04 578.59
00019944 00000125 598.98 171.67 344.74 517.56 757.71 388.65 903.51 392.82 876.25 482.72 771.01 571.12 884.12 576.73
00019945 00000126 599.26 169.49 344.05 515.33 757.87 386.56 904.17 391.57 876.27 481.81 771.72 569.70 882.49 575.95
00019946 00000127 600.53 167.79 343.54 511.66 757.75 384.92 906.62 390.26 876.86 479.40 771.30 566.01 884.77 572.44
00019947 00000128 599.75 166.70 344.45 515.30 758.51 384.25 906.36 390.01 878.38 478.68 770.71 565.56 884.32 572.42
00019948 00000129 600.19 167.00 343.92 519.25 756.98 383.75 905.59 391.11 877.31 478.34 768.69 567.03 883.60 575.31
00019949 00000130 599.87 166.58 344.88 520.28 757.31 384.58 905.01 390.74 877.67 478.48 769.02 566.90 883.80 574.24
00019950 00000131 599.70 165.81 345.43 520.65 757.00 384.61 905.34 390.38 877.33 478.90 769.20 567.34 884.01 574.31
00019951 00000132 599.72 165.40 345.49 522.02 756.85 384.41 905.47 390.45 877.53 479.27 770.95 569.18 884.73 576.25
00019952 00000133 599.07 164.99 345.03 523.32 756.33 384.73 903.52 390.49 876.54 479.63 771.26 570.17 882.74 576.98
00019953 00000134 599.03 168.04 344.33 521.86 756.39 386.20 901.06 390.38 875.24 480.07 767.92 568.48 880.41 574.26
00019954 00000135 598.08 171.03 343.89 519.94 754.54 386.89 900.81 391.47 875.06 479.73 764.16 566.88 881.89 573.03
00019955 00000136 597.85 171.00 343.90 519.52 754.06 387.32 900.36 393.07 873.95 480.19 761.70 566.06 880.66 573.22
00019956 00000137 597.80 170.09 343.25 519.49 754.18 386.62 899.68 392.63 872.96 479.14 761.49 565.04 879.81 572.36
00019957 00000138 597.65 169.91 343.70 515.40 753.11 386.89 899.97 391.05 872.78 477.06 764.50 564.68 882.16 570.28
00019958 00000139 596.55 167.88 346.07 518.34 751.64 386.34 903.78 390.55 875.55 476.92 763.42 565.55 886.48 571.07
00019959 00000140 596.13 170.11 346.16 521.26 751.67 385.35 902.33 392.45 873.69 478.32 760.18 566.98 881.74 574.86
00019960 00000141 595.57 172.00 346.60 523.57 754.08 383.32 898.20 394.41 871.52 483.05 756.79 568.46 870.38 579.90
00019961 00000142 593.43 176.12 348.92 528.07 754.43 381.36 897.78 396.31 871.39 483.27 747.17 565.27 865.19 580.39
00019962 00000143 592.12 178.34 350.73 526.63 754.26 380.08 899.13 396.89 872.06 483.40 741.81 561.63 865.51 578.74
00019963 00000144 591.24 180.10 350.35 521.99 752.24 378.57 899.59 396.19 870.48 483.22 739.18 560.12 865.10 578.10
00019964 00000145 589.37 180.76 351.65 518.98 749.85 377.80 898.87 395.51 868.33 482.86 737.58 559.02 865.49 577.09
00019965 00000146 589.77 177.27 350.85 519.31 748.53 379.84 897.74 394.13 866.83 482.39 741.43 560.97 866.64 575.72
00019966 00000147 589.74 172.84 349.51 512.64 745.80 382.78 898.56 393.41 867.05 480.67 751.97 566.62 871.75 577.04
00019967 00000148 590.37 173.28 349.31 512.69 745.90 382.81 899.06 393.37 867.12 479.95 751.94 565.64 873.28 576.11
00019968 00000149 591.04 177.05 346.85 512.02 747.63 380.26 898.03 393.99 867.39 479.76 749.07 564.69 868.32 578.09
00019969 00000150 589.90 181.20 349.98 509.08 747.32 385.73 897.40 401.91 865.33 478.93 741.40 557.87 869.19 574.25
00019970 00000151 589.91 183.08 349.68 507.28 748.36 387.66 898.01 404.29 867.39 479.67 738.99 554.78 871.09 572.11
00019971 00000152 590.17 183.05 348.21 510.29 750.55 384.91 896.20 400.99 866.17 482.12 740.63 557.67 866.01 574.27
00019972 00000153 589.54 180.74 349.94 510.02 750.02 387.11 896.38 400.19 866.44 482.18 746.07 559.90 869.47 573.46
00019973 00000154 592.11 177.90 348.82 507.29 751.89 389.56 899.34 398.79 869.56 479.90 759.04 563.66 877.05 573.25
00019974 00000155 594.45 176.91 348.08 510.19 753.64 390.47 900.33 399.01 870.80 481.69 764.24 567.28 877.79 576.03
00019975 00000156 595.61 176.01 346.78 514.26 754.36 391.19 900.98 399.17 872.50 483.58 765.75 570.55 878.97 579.07
00019976 00000157 598.11 175.04 343.55 515.61 757.45 390.07 902.98 398.54 876.63 485.30 770.70 573.23 879.72 582.20
00019977 00000158 599.90 176.51 341.06 516.20 760.27 389.68 903.24 398.51 878.09 485.67 772.68 573.12 878.87 582.47
00019978 00000159 600.68 179.25 339.53 516.16 763.02 389.71 902.95 397.90 880.56 485.56 774.36 573.50 879.10 582.45
00019979 00000160 604.43 176.86 336.19 520.28 765.30 391.42 904.26 398.48 883.19 487.16 775.26 573.92 882.11 582.25
00019980 00000161 606.42 178.10 336.09 521.39 767.37 390.92 907.65 399.90 885.65 487.80 773.93 574.08 882.92 584.25
00019981 00000162 609.02 180.00 335.93 520.95 769.54 391.06 910.49 402.55 888.03 489.05 771.92 573.35 883.19 585.94
00019982 00000163 607.04 185.29 337.94 516.60 770.72 392.77 912.46 406.50 890.92 491.33 765.49 570.08 881.67 584.90
00019983 00000164 605.15 191.06 339.64 514.76 773.15 391.01 911.70 408.72 891.60 493.61 759.53 567.03 875.41 585.76
00019984 00000165 604.87 193.74 340.89 513.13 775.18 389.85 914.73 410.28 894.53 494.31 755.92 564.18 876.43 585.48
00019985 00000166 604.12 195.20 342.91 511.80 774.87 389.66 915.22 411.21 894.34 493.94 753.45 562.26 876.40 584.68
00019986 00000167 604.85 196.41 342.78 512.07 774.72 390.58 915.84 411.90 894.63 494.90 754.76 563.92 877.39 585.98
00019987 00000168 605.50 195.17 341.73 509.77 772.40 391.01 917.89 410.20 892.19 494.57 760.41 568.08 880.07 587.70
00019988 00000169 605.57 194.35 341.82 509.25 772.43 393.17 920.54 411.86 893.38 495.39 763.99 570.88 883.61 589.72
00019989 00000170 603.45 200.72 341.79 505.81 771.46 392.59 919.51 411.25 894.43 500.59 762.22 573.01 880.18 591.71
