Video ID: 	6ap4zmncZuE
H: 	1080
W: 	1920
FPS: 	23.976023976023978

FRAME INDEX X0 Y0 W H [Landmarks (5 Points)]

00087542 00000000 818.24 143.18 398.72 596.77 989.66 391.20 1170.69 386.55 1131.93 490.27 1015.13 590.77 1163.99 587.17
00087543 00000001 814.88 138.24 398.96 601.32 989.13 391.68 1165.27 386.56 1130.00 488.27 1015.52 588.49 1160.74 584.53
00087544 00000002 812.82 137.24 398.68 601.07 989.34 391.64 1164.48 386.06 1130.57 488.98 1015.49 586.18 1160.97 582.03
00087545 00000003 811.74 137.02 399.50 598.18 990.24 391.41 1164.85 384.69 1131.87 487.91 1017.61 584.46 1162.37 579.53
00087546 00000004 811.69 138.63 397.66 595.05 990.30 390.93 1163.86 384.72 1130.73 487.68 1017.08 583.72 1160.21 579.32
00087547 00000005 819.00 140.73 392.20 591.19 998.28 388.37 1168.59 383.26 1137.25 490.71 1014.12 587.47 1164.41 583.22
00087548 00000006 817.60 140.01 392.47 592.20 997.69 388.51 1166.69 382.87 1137.29 490.36 1013.79 587.14 1163.02 582.56
00087549 00000007 817.23 139.79 392.51 593.84 996.63 389.14 1166.12 383.65 1136.65 490.59 1013.92 588.63 1163.16 584.06
00087550 00000008 817.19 140.45 392.17 594.39 996.29 389.40 1164.92 383.66 1136.32 490.37 1014.11 588.91 1162.46 584.14
00087551 00000009 815.66 139.93 394.16 595.20 994.83 390.19 1165.15 384.10 1135.74 491.76 1012.53 588.97 1162.57 583.82
00087552 00000010 814.92 141.93 394.49 595.38 993.93 390.57 1163.59 384.59 1134.69 490.95 1012.11 589.69 1161.46 584.72
00087553 00000011 815.86 143.40 392.25 597.00 992.43 390.96 1162.21 385.98 1132.52 492.07 1010.05 590.06 1161.14 585.99
00087554 00000012 814.63 141.85 392.57 598.60 992.22 391.52 1162.01 385.24 1134.19 491.74 1010.87 591.34 1161.59 586.21
00087555 00000013 813.48 139.76 393.12 600.89 988.60 392.82 1159.51 383.93 1130.03 492.87 1008.77 591.90 1161.02 584.64
00087556 00000014 807.50 140.51 394.06 597.04 983.10 389.57 1156.83 383.27 1125.35 491.62 1002.75 589.58 1155.72 584.60
00087557 00000015 802.73 144.05 395.01 596.71 977.73 387.93 1155.99 385.19 1121.05 492.08 995.83 588.77 1153.64 586.61
00087558 00000016 799.23 146.48 396.81 603.86 979.08 389.08 1153.11 386.34 1121.47 491.60 995.77 593.77 1150.88 591.29
00087559 00000017 799.35 145.96 399.94 607.42 982.69 394.42 1154.88 385.52 1130.28 490.34 1005.15 600.00 1155.58 592.14
00087560 DELETE   802.37 152.27 398.27 602.53 989.16 395.28 1159.38 385.10 1139.58 492.29 1012.80 603.24 1160.09 594.28
00087561 00000019 800.44 159.44 401.36 599.78 989.12 397.11 1156.54 385.22 1138.40 492.40 1014.04 604.24 1160.39 593.73
00087562 00000020 795.32 154.05 401.92 603.76 982.26 397.72 1150.63 381.37 1133.10 490.06 1009.56 604.18 1156.69 590.02
00087563 00000021 788.03 156.99 404.37 602.41 973.45 393.01 1148.50 383.11 1124.45 490.26 999.29 602.43 1152.28 593.33
00087564 00000022 784.81 151.04 403.84 610.68 968.57 392.97 1145.10 386.53 1115.18 490.66 992.41 603.58 1146.91 596.85
00087565 00000023 784.40 149.31 403.21 606.31 966.29 393.41 1142.10 382.34 1112.23 489.49 994.36 603.88 1144.54 593.16
00087566 00000024 782.46 150.91 401.40 600.38 960.32 393.61 1140.97 382.39 1107.16 491.76 990.43 602.64 1143.53 591.82
00087567 00000025 772.71 141.04 404.61 609.41 942.68 399.14 1136.47 385.92 1091.28 500.76 977.12 606.85 1139.52 593.19
00087568 DELETE   764.60 153.37 410.05 600.62 922.64 400.78 1120.85 389.04 1065.49 507.60 950.79 608.54 1118.82 597.37
00087569 00000027 756.58 150.05 409.05 607.37 901.44 401.10 1100.36 395.78 1039.34 511.05 925.52 604.23 1099.04 599.45
00087570 DELETE   744.11 158.85 412.42 601.09 884.06 400.09 1084.70 394.99 1014.01 515.74 907.48 608.63 1078.02 604.62
00087571 00000029 737.41 162.47 410.67 606.35 872.77 399.84 1072.71 395.71 1000.52 520.40 889.50 608.96 1070.61 605.13
00087572 00000030 729.74 159.21 414.30 613.12 864.04 399.77 1064.68 397.75 990.28 522.10 880.03 610.76 1060.22 608.32
00087573 00000031 728.63 162.07 413.49 606.04 861.57 399.41 1061.69 398.09 985.42 518.70 876.54 610.53 1054.06 609.02
00087574 00000032 728.67 161.99 413.53 605.50 861.62 399.40 1061.47 398.09 985.43 518.96 876.95 610.48 1053.99 608.99
00087575 00000033 729.92 160.36 413.03 610.74 863.02 400.22 1062.96 398.68 987.46 519.44 879.08 611.50 1056.38 609.49
00087576 00000034 730.97 161.25 411.66 608.14 864.13 401.74 1064.07 398.10 990.63 522.74 883.77 613.96 1059.29 610.12
00087577 00000035 733.81 160.42 408.06 608.90 866.66 402.93 1065.25 399.94 991.86 523.27 886.45 614.41 1061.07 611.01
00087578 00000036 733.85 160.48 408.93 609.85 867.39 403.78 1065.36 400.09 992.87 524.47 888.10 615.17 1061.83 611.22
00087579 00000037 733.59 160.09 409.03 611.66 866.87 404.49 1064.30 401.01 992.37 523.85 887.70 615.09 1060.89 611.26
00087580 00000038 732.23 158.39 409.73 615.50 864.40 403.95 1063.15 400.60 990.12 522.71 884.83 616.05 1059.29 612.27
00087581 00000039 728.79 166.12 412.61 613.35 857.41 401.17 1056.93 393.69 986.13 522.19 880.82 612.02 1055.07 603.62
00087582 00000040 727.18 167.33 413.79 612.26 856.09 401.79 1055.53 394.82 983.60 521.60 879.25 611.93 1053.04 603.87
00087583 00000041 727.02 166.34 413.49 613.99 855.70 402.50 1054.79 394.90 983.08 521.92 879.62 612.63 1053.12 604.00
00087584 00000042 726.79 170.17 415.45 611.73 856.26 402.91 1054.18 394.96 984.07 522.26 881.75 613.66 1053.34 604.63
00087585 00000043 726.84 167.55 415.49 615.46 856.47 403.82 1054.34 395.30 984.43 522.48 881.93 614.55 1053.86 604.99
00087586 00000044 729.04 162.03 413.62 622.27 862.46 407.51 1057.53 404.40 985.35 522.94 884.40 621.62 1056.49 617.48
00087587 00000045 728.03 167.28 414.61 618.52 857.49 406.23 1054.49 398.68 986.23 527.79 882.92 618.59 1053.25 609.97
00087588 00000046 726.50 169.21 414.79 615.06 856.80 407.74 1053.75 400.91 985.41 531.00 881.07 619.63 1050.02 611.62
00087589 00000047 726.00 169.16 414.54 616.09 855.42 410.93 1053.74 402.82 984.72 533.27 879.63 623.35 1050.13 614.23
00087590 00000048 726.31 170.50 414.56 616.56 853.84 414.27 1052.77 405.76 982.28 537.29 877.81 625.70 1051.10 616.37
00087591 00000049 726.54 167.57 415.26 620.65 855.27 416.44 1054.99 410.12 983.15 540.09 876.71 627.39 1051.06 620.18
00087592 00000050 723.78 167.85 417.25 624.83 855.87 420.28 1054.45 415.16 983.53 540.66 875.83 629.08 1050.58 622.82
00087593 00000051 724.50 172.83 415.55 622.27 855.28 422.71 1052.19 416.31 982.48 541.95 876.65 631.69 1050.06 624.27
00087594 00000052 725.37 172.10 412.25 618.62 853.41 426.19 1052.57 419.58 979.63 546.75 875.52 635.63 1049.13 627.75
00087595 00000053 723.73 178.10 411.40 612.42 849.81 427.70 1049.52 420.57 975.12 546.58 874.59 639.61 1045.82 631.10
00087596 00000054 722.76 177.82 411.97 618.31 851.27 428.79 1050.98 424.39 969.63 545.66 871.63 646.32 1040.74 641.23
00087597 00000055 717.56 179.08 416.23 630.78 847.06 433.76 1045.28 428.44 963.81 552.79 867.64 653.18 1036.57 647.03
00087598 00000056 718.97 188.55 414.21 622.92 842.74 433.49 1040.05 431.57 961.07 553.76 866.90 652.29 1031.61 648.22
00087599 00000057 719.24 188.71 412.69 622.64 841.05 435.93 1038.98 433.77 958.13 556.23 867.41 656.46 1030.02 651.81
00087600 00000058 719.59 191.89 409.50 610.16 836.74 439.33 1036.97 436.06 952.93 557.72 864.62 657.19 1030.82 651.38
00087601 00000059 718.07 193.25 408.61 607.36 835.47 440.11 1036.50 437.17 952.22 557.37 865.39 659.73 1028.81 654.08
00087602 00000060 714.32 193.54 411.40 614.18 833.70 441.96 1032.83 438.47 951.09 559.05 862.29 659.93 1027.17 654.24
00087603 00000061 709.66 197.49 416.88 619.66 834.22 443.01 1027.75 438.15 950.76 561.24 863.63 658.97 1023.80 652.04
00087604 00000062 708.25 196.03 417.70 622.30 833.47 444.15 1027.03 437.78 950.58 561.40 862.59 658.54 1025.09 650.30
00087605 00000063 707.79 197.65 417.80 619.90 833.45 444.41 1026.85 437.41 950.72 563.03 860.86 655.88 1026.60 647.18
00087606 00000064 707.60 200.73 418.36 614.07 834.29 444.33 1027.74 436.74 952.07 562.58 862.12 654.54 1027.75 645.45
00087607 00000065 707.67 199.38 418.76 615.76 834.65 444.32 1028.21 436.77 952.61 563.07 862.36 654.69 1028.31 645.68
00087608 00000066 708.50 199.11 418.16 617.58 837.20 445.03 1028.60 437.75 954.97 563.45 865.69 656.59 1027.81 647.87
00087609 00000067 708.85 201.14 417.85 615.97 838.28 447.11 1030.15 440.05 956.43 565.15 866.35 657.87 1028.77 649.27
00087610 00000068 709.13 203.28 418.31 616.63 839.41 449.92 1030.71 443.00 957.36 568.79 867.43 660.70 1028.81 652.20
00087611 00000069 711.53 203.72 416.33 615.57 842.88 454.60 1031.30 449.30 958.49 571.68 868.36 662.19 1028.94 655.22
00087612 00000070 711.16 203.95 417.22 617.32 843.32 457.10 1032.85 451.42 960.31 575.05 868.74 664.14 1032.12 656.92
00087613 00000071 712.68 205.86 418.17 614.16 839.94 457.87 1035.87 451.91 959.02 576.33 865.68 667.66 1035.37 660.51
00087614 00000072 713.43 205.68 418.80 613.65 839.14 460.60 1038.21 455.53 960.67 576.46 866.65 672.79 1036.73 666.75
00087615 00000073 714.71 207.53 417.55 611.78 838.83 461.88 1043.19 456.70 962.18 580.32 866.38 677.60 1039.43 671.67
00087616 00000074 713.07 209.14 419.14 613.43 839.88 463.99 1043.87 458.93 963.65 581.38 867.39 678.72 1040.46 672.50
00087617 00000075 712.43 208.71 420.19 619.13 840.06 464.45 1044.22 459.50 963.41 582.01 865.11 679.30 1040.54 673.32
00087618 00000076 711.50 211.12 420.95 621.88 841.08 464.20 1041.79 459.88 962.35 581.03 864.68 678.50 1038.23 673.16
00087619 00000077 710.05 211.55 421.93 622.13 841.46 464.14 1039.47 460.16 961.47 581.10 864.76 677.04 1036.25 671.95
00087620 00000078 709.78 211.21 421.56 622.71 841.69 464.16 1038.09 460.21 961.19 580.87 864.61 674.96 1036.41 669.81
00087621 00000079 709.59 209.64 421.73 624.62 841.01 464.41 1037.51 460.66 960.40 581.21 863.88 674.77 1036.36 669.73
00087622 00000080 709.65 208.75 421.06 624.44 840.34 464.24 1036.87 460.97 959.31 581.10 863.69 674.98 1035.02 670.32
00087623 00000081 708.95 211.40 420.92 621.32 839.48 464.12 1036.12 460.60 958.23 580.14 862.34 674.54 1033.91 669.73
00087624 00000082 709.09 210.54 420.41 620.88 838.87 463.94 1036.02 460.75 957.28 580.48 861.13 674.02 1033.20 669.53
00087625 00000083 708.52 213.24 421.07 618.78 838.98 464.58 1036.85 460.71 957.91 580.66 862.32 675.11 1034.12 670.05
00087626 00000084 708.99 215.28 421.50 614.91 840.23 466.15 1037.90 460.81 960.42 581.76 864.71 674.91 1036.65 668.61
00087627 00000085 708.79 216.98 422.64 612.22 842.82 466.32 1039.01 459.26 963.86 582.49 868.57 673.32 1039.50 665.46
00087628 00000086 709.59 215.78 422.34 614.77 844.32 465.89 1039.75 459.35 965.96 583.01 868.49 673.07 1039.98 665.81
00087629 00000087 708.85 214.01 423.46 620.06 844.05 466.04 1038.57 458.66 965.93 582.85 867.86 674.63 1039.59 666.62
00087630 00000088 708.18 213.50 423.22 622.07 841.49 465.60 1037.68 459.83 962.29 582.09 864.49 675.14 1037.58 668.48
00087631 00000089 708.55 212.40 420.99 621.21 839.65 464.86 1036.85 460.64 959.25 581.76 862.07 675.26 1034.52 669.94
00087632 00000090 707.95 213.37 419.78 619.24 836.86 463.41 1034.82 459.35 956.01 581.54 857.65 673.69 1031.76 668.68
00087633 00000091 708.14 211.48 419.15 619.80 836.12 463.46 1034.77 458.76 955.75 581.60 857.44 673.76 1032.07 668.13
00087634 00000092 704.48 214.01 423.50 616.58 835.79 466.63 1036.75 459.63 958.10 581.68 858.95 674.99 1034.08 667.26
00087635 00000093 705.10 216.53 423.58 609.16 837.91 466.83 1037.51 459.88 959.50 580.83 861.74 672.05 1035.37 664.28
00087636 00000094 704.86 215.28 424.62 612.00 838.00 466.87 1040.86 458.01 962.80 582.38 863.04 673.10 1040.71 663.59
00087637 00000095 705.08 216.00 424.45 608.88 836.60 467.35 1041.69 457.12 962.97 582.95 863.33 673.64 1043.17 663.00
00087638 00000096 703.87 218.70 424.98 606.72 835.35 467.83 1038.44 457.78 960.07 582.80 863.06 674.22 1040.31 663.74
00087639 00000097 702.26 218.36 423.91 607.14 832.34 466.43 1034.56 457.67 956.43 583.71 858.19 673.88 1033.74 664.81
00087640 00000098 700.24 218.53 420.93 607.47 826.39 464.69 1028.47 456.86 949.19 582.09 852.69 673.34 1027.52 665.16
00087641 00000099 699.06 221.01 418.93 606.60 821.66 464.38 1024.27 455.76 943.12 580.39 846.11 673.13 1023.40 664.54
00087642 00000100 697.71 223.81 418.90 601.75 819.68 464.50 1021.69 455.68 940.19 580.41 844.29 671.89 1021.04 663.36
00087643 00000101 698.11 222.01 417.43 603.12 820.43 464.77 1022.67 455.56 941.83 581.15 845.69 672.15 1022.30 663.22
00087644 00000102 697.38 219.28 418.01 607.09 821.69 466.92 1024.83 456.71 945.72 583.58 847.01 672.72 1025.39 662.94
00087645 00000103 696.97 221.01 420.13 605.52 824.42 468.02 1027.35 455.66 950.80 584.37 852.04 674.34 1028.91 662.77
00087646 00000104 697.94 220.73 419.40 603.70 824.17 468.33 1027.69 455.31 950.97 585.13 852.99 674.07 1029.93 661.89
00087647 00000105 695.99 220.43 418.42 604.87 820.32 468.25 1022.75 455.82 945.23 582.96 847.12 672.45 1025.27 660.95
00087648 00000106 696.30 221.36 416.02 603.64 817.20 466.27 1019.66 456.08 938.76 580.77 842.25 670.25 1021.51 660.55
00087649 00000107 695.15 218.15 416.30 606.93 813.86 464.54 1016.68 457.86 932.57 580.27 835.26 667.30 1017.14 660.55
00087650 00000108 694.91 218.83 416.26 606.01 813.73 464.13 1016.03 457.62 931.89 580.44 834.18 666.47 1016.65 660.03
CROP_BBOX: 466 0 1444 975
