Video ID: 	_3k4xpjlFn0
H: 	1080
W: 	1920
FPS: 	29.97002997002997

FRAME INDEX X0 Y0 W H [Landmarks (5 Points)]

00001910 00000000 700.35 152.72 412.47 634.04 735.12 456.89 861.72 425.42 743.56 538.65 781.92 652.60 886.97 624.77
00001911 00000001 701.55 149.15 413.39 632.34 734.42 454.34 860.79 423.41 741.72 537.41 782.62 649.91 887.02 622.31
00001912 00000002 702.50 151.05 414.82 633.21 736.99 460.03 863.26 424.46 748.02 540.62 785.96 657.39 887.68 626.50
00001913 DELETE   703.23 151.73 424.87 636.50 739.72 456.41 872.65 422.48 753.66 544.32 789.90 658.96 897.69 629.35
00001914 00000004 704.76 148.79 428.65 649.49 739.96 451.91 880.70 416.84 757.20 544.67 789.50 661.79 907.45 631.18
00001915 00000005 706.16 141.77 428.69 653.15 735.67 444.58 870.87 408.48 754.05 541.00 786.23 656.85 897.89 627.78
00001916 00000006 700.94 144.06 426.44 646.27 735.65 441.98 876.54 414.18 746.59 532.25 773.31 654.40 888.87 630.02
00001917 00000007 695.76 140.39 425.14 645.13 729.76 441.06 867.94 413.64 741.10 530.63 769.51 650.78 879.53 626.59
00001918 00000008 692.02 136.90 424.24 645.01 724.69 438.95 861.48 414.08 735.98 533.33 765.77 647.87 873.28 625.16
00001919 00000009 689.15 139.12 422.32 643.61 721.90 440.74 856.42 414.42 731.99 535.89 766.02 648.19 871.19 624.26
00001920 00000010 686.76 145.01 419.94 641.02 719.41 443.04 849.63 416.62 725.18 537.91 764.66 646.85 869.87 622.70
00001921 00000011 685.37 148.85 419.29 647.58 719.90 443.70 845.30 417.75 718.50 539.93 766.51 649.54 872.14 625.47
00001922 00000012 684.90 147.24 419.66 648.01 719.20 444.87 843.15 417.98 717.42 539.25 765.75 649.68 870.99 624.73
00001923 00000013 677.53 143.03 424.81 650.08 713.58 440.77 840.26 411.35 711.70 531.57 758.53 647.06 866.04 619.95
00001924 00000014 668.65 138.63 429.77 656.51 708.30 438.18 836.42 408.06 707.13 526.75 751.38 642.76 865.13 615.17
00001925 00000015 663.12 141.71 433.16 662.94 704.63 440.36 833.27 408.04 705.69 534.87 755.10 647.92 872.14 617.99
00001926 00000016 657.43 150.78 437.72 668.28 700.87 446.53 830.58 412.98 704.21 549.10 759.19 658.54 877.83 627.45
00001927 00000017 656.18 151.61 434.02 664.45 696.70 449.30 823.74 418.96 698.48 553.37 755.45 661.15 866.25 633.07
00001928 00000018 652.07 141.69 428.41 657.02 684.50 443.79 818.04 424.01 692.99 554.17 734.16 654.01 842.93 636.25
00001929 00000019 643.20 149.77 425.28 641.92 674.39 438.47 816.35 425.80 673.96 543.81 707.36 653.50 823.86 640.71
00001930 00000020 636.39 150.55 424.46 636.87 669.89 434.59 807.57 425.22 667.39 537.24 698.41 646.34 811.39 635.87
00001931 00000021 632.22 147.79 420.84 644.04 662.89 439.17 798.60 426.01 660.66 537.69 695.69 649.54 807.19 635.94
00001932 00000022 630.47 152.81 417.20 650.14 658.72 444.30 795.04 430.44 654.99 545.40 695.20 655.41 810.71 641.41
00001933 00000023 629.70 156.18 415.81 660.35 658.83 452.19 793.07 436.22 654.46 553.69 699.06 664.13 814.74 648.79
00001934 00000024 628.30 162.17 415.63 660.79 658.40 460.33 786.35 440.82 653.58 560.52 704.97 669.42 815.82 651.41
00001935 00000025 625.43 165.50 412.95 651.58 656.72 460.85 784.93 443.91 655.04 561.70 700.19 667.45 808.53 651.67
00001936 00000026 621.21 162.55 416.38 640.70 651.50 461.94 784.17 444.88 656.66 560.61 693.09 663.14 801.88 646.86
00001937 00000027 617.11 161.72 416.79 633.01 645.76 461.84 778.30 443.67 653.84 558.18 686.63 660.83 791.10 643.45
00001938 00000028 610.14 157.31 417.35 631.96 639.05 462.12 772.32 441.99 655.08 557.88 681.76 661.24 782.97 642.38
00001939 00000029 605.91 154.91 418.12 635.31 634.69 462.54 766.66 441.19 650.48 558.42 678.07 662.50 777.81 642.85
00001940 00000030 606.02 155.18 417.73 643.31 634.35 464.36 764.07 442.79 646.85 559.08 676.04 668.01 772.76 648.65
00001941 00000031 606.32 160.16 420.38 643.99 634.33 462.41 765.64 442.00 643.51 559.17 675.29 674.80 768.32 656.86
00001942 00000032 603.85 160.85 421.80 650.06 633.25 462.29 766.39 441.64 643.33 560.14 674.26 677.67 768.41 659.69
00001943 00000033 603.27 160.86 422.91 655.23 633.66 462.54 767.81 441.42 642.75 562.06 676.27 680.28 773.10 661.87
00001944 00000034 605.73 166.02 420.02 652.93 636.80 467.55 770.81 445.06 644.37 563.45 679.02 681.71 780.54 662.12
00001945 00000035 607.43 171.84 416.50 651.22 640.92 465.75 773.46 449.69 645.88 564.37 682.22 676.83 787.59 662.18
00001946 00000036 611.31 174.27 414.38 652.01 644.78 462.21 778.16 448.17 647.82 563.75 685.95 673.67 794.84 660.39
00001947 00000037 613.10 175.23 416.30 656.36 648.36 459.17 787.92 440.72 655.27 559.30 687.76 673.59 803.94 656.84
00001948 00000038 613.67 170.67 415.65 667.26 649.79 457.07 794.16 436.64 661.06 557.73 689.53 677.74 808.36 659.68
00001949 00000039 610.61 176.67 421.14 662.69 650.08 459.62 808.39 437.41 669.39 558.03 690.27 686.08 821.72 667.18
00001950 00000040 616.46 171.71 417.14 670.37 655.44 453.28 807.58 436.87 669.68 558.96 690.10 679.92 815.85 665.73
00001951 00000041 616.93 170.86 421.56 675.61 659.94 455.27 815.35 438.02 675.17 560.62 694.07 682.04 825.10 667.36
00001952 00000042 618.96 172.14 421.17 680.38 663.33 458.34 823.16 439.28 683.12 565.40 698.51 688.41 832.88 672.61
00001953 00000043 624.53 176.58 424.39 676.66 669.16 465.20 834.83 442.17 695.54 570.93 705.04 693.51 846.56 674.28
00001954 00000044 632.48 176.54 427.39 679.46 675.01 467.79 845.32 440.71 707.25 576.01 715.76 697.70 862.96 674.61
00001955 00000045 640.18 179.94 425.42 670.71 680.93 464.38 856.63 440.02 720.21 577.43 720.84 692.57 875.44 671.69
00001956 00000046 640.19 185.02 428.57 643.72 688.44 464.32 866.02 443.92 733.57 576.22 730.81 683.77 892.08 663.89
00001957 00000047 648.54 165.78 433.81 654.03 696.19 454.79 875.55 434.44 746.82 570.67 737.13 667.08 897.66 649.23
00001958 00000048 655.73 160.68 431.78 653.11 707.89 450.20 889.21 432.84 761.40 564.95 745.38 660.12 906.58 644.30
00001959 00000049 666.25 154.57 425.69 652.61 721.90 449.54 902.10 436.18 780.27 562.58 757.48 662.84 905.96 651.16
00001960 00000050 678.17 160.16 418.66 639.08 731.05 448.67 910.80 437.45 788.81 562.23 765.50 665.53 904.05 656.98
00001961 00000051 684.40 161.97 420.22 632.88 740.01 445.79 919.71 438.48 795.17 560.04 771.17 666.39 904.79 661.32
00001962 00000052 689.94 158.80 418.78 633.26 746.91 442.78 928.39 440.21 798.50 558.02 772.60 664.61 908.67 663.00
00001963 00000053 691.56 162.40 419.34 627.92 750.47 440.98 933.11 443.56 799.87 557.24 771.03 661.96 908.64 664.38
00001964 00000054 693.08 161.31 419.79 630.62 751.91 441.12 935.29 446.19 799.43 557.86 770.23 660.69 911.29 664.89
00001965 00000055 694.46 162.53 420.38 631.93 754.84 441.07 938.69 450.02 799.64 558.70 770.22 659.40 913.36 666.46
00001966 00000056 696.34 167.03 420.63 636.82 756.83 442.74 940.98 452.56 799.87 561.89 770.49 663.34 914.95 671.04
00001967 00000057 699.32 174.09 420.86 640.94 759.82 445.72 944.56 456.15 801.58 567.50 772.71 668.18 919.53 676.41
00001968 00000058 703.89 178.24 421.38 643.96 763.18 447.44 946.52 459.44 802.77 573.65 775.40 670.07 925.34 679.54
00001969 00000059 706.77 178.40 423.73 642.89 766.24 447.59 951.84 461.04 807.60 575.07 777.11 667.86 931.01 678.30
00001970 00000060 707.36 179.01 423.79 635.68 769.30 445.11 955.63 458.26 811.69 568.29 778.12 661.07 934.48 670.98
00001971 00000061 707.20 172.07 422.80 639.38 768.12 435.92 954.95 451.16 809.63 561.86 776.37 653.39 936.89 664.68
00001972 00000062 706.68 170.22 423.28 638.22 766.97 431.32 955.84 445.87 808.81 556.86 774.76 646.90 941.99 657.62
00001973 00000063 707.22 165.86 422.33 641.28 764.78 429.91 954.44 441.40 807.89 553.80 775.30 646.30 944.47 654.35
00001974 00000064 707.35 165.02 420.76 648.90 763.36 430.74 953.54 438.02 807.66 551.60 774.98 650.53 945.07 655.40
00001975 00000065 705.34 159.24 422.04 660.61 763.17 431.33 953.25 436.85 808.42 552.33 775.81 652.95 947.04 656.33
00001976 00000066 705.93 160.40 420.87 660.28 763.35 433.40 952.28 438.94 808.18 554.19 776.22 655.06 945.19 658.45
00001977 00000067 705.14 161.18 419.88 660.06 762.36 433.69 950.76 437.85 806.77 553.85 775.58 655.28 944.09 657.61
00001978 00000068 705.08 159.25 418.62 662.85 762.03 434.32 949.63 437.61 807.16 553.46 775.74 658.83 940.25 660.56
00001979 00000069 705.30 157.32 418.00 664.84 762.65 433.78 949.44 437.40 806.92 552.47 775.49 660.56 936.48 662.81
00001980 00000070 704.96 157.16 417.98 656.88 762.95 432.07 949.67 437.59 808.31 550.63 775.57 661.91 927.23 666.09
00001981 00000071 706.43 157.48 417.59 653.20 764.64 433.69 948.61 439.44 808.62 551.00 779.27 665.44 922.68 669.96
00001982 00000072 705.64 156.97 422.38 646.81 763.02 435.45 949.72 442.81 807.58 552.83 777.95 662.62 925.28 667.63
00001983 00000073 704.32 158.36 426.19 638.30 761.30 436.29 951.05 445.88 806.30 555.21 775.29 658.14 927.16 664.65
00001984 00000074 704.34 159.58 427.21 633.74 761.31 435.10 951.66 444.71 806.25 552.79 774.58 653.48 929.63 659.84
00001985 00000075 704.58 159.76 428.45 643.10 762.14 435.35 952.31 443.74 806.33 551.94 772.43 653.25 932.06 658.63
00001986 00000076 706.18 161.18 427.61 645.74 762.93 437.29 952.72 445.27 806.24 553.15 773.46 654.47 934.21 659.48
00001987 00000077 707.25 161.64 425.19 653.71 765.37 438.16 952.73 446.31 806.78 554.02 774.33 658.12 933.63 663.52
00001988 00000078 707.80 163.44 425.51 657.79 765.45 440.01 952.75 446.40 807.54 555.07 775.67 661.22 936.20 665.14
00001989 00000079 709.67 160.46 424.12 660.76 767.13 442.18 954.53 448.29 809.30 555.80 777.36 660.36 939.72 664.07
00001990 00000080 712.66 165.83 423.71 653.25 773.04 447.17 959.03 455.98 811.34 555.21 780.85 655.00 945.15 660.75
00001991 00000081 712.73 163.45 424.55 655.30 774.44 446.97 961.63 454.97 815.91 557.86 784.02 655.39 949.62 660.56
00001992 00000082 715.42 167.62 422.28 651.99 774.99 449.21 961.47 453.49 819.16 561.58 787.30 658.59 951.99 660.65
00001993 00000083 716.78 166.59 422.94 654.38 776.55 446.89 966.54 451.49 823.95 562.63 788.58 660.23 954.36 662.94
00001994 00000084 720.22 172.34 422.56 647.13 780.84 448.20 973.35 452.96 831.76 566.07 792.95 661.66 959.36 664.98
00001995 00000085 722.08 175.47 424.42 641.30 786.35 450.16 983.72 455.77 843.17 569.99 797.53 661.84 967.41 665.96
00001996 00000086 726.25 176.47 424.68 635.08 794.98 449.68 997.70 459.46 855.46 573.80 803.94 659.23 978.55 667.02
00001997 00000087 737.02 167.44 428.16 638.00 806.01 445.13 1013.83 453.48 878.16 566.38 816.38 655.30 996.63 661.77
00001998 00000088 746.47 166.20 426.10 638.73 819.15 442.43 1025.50 455.23 888.68 566.66 823.48 650.28 1005.07 660.32
00001999 00000089 750.42 164.76 427.14 640.95 828.21 441.05 1035.10 458.37 897.00 569.06 827.97 648.32 1012.08 661.76
00002000 00000090 752.65 167.25 429.19 641.29 832.29 441.51 1038.12 459.56 900.26 570.45 830.69 649.52 1014.06 663.65
00002001 00000091 755.00 167.98 426.91 652.86 832.70 444.11 1034.02 460.01 898.05 570.64 832.71 659.28 1006.22 672.12
00002002 00000092 758.08 164.41 419.96 671.97 829.54 449.91 1020.86 461.69 887.44 569.87 836.12 671.01 997.03 680.67
00002003 00000093 752.52 164.00 425.88 682.16 823.33 451.79 1006.06 457.18 871.71 559.01 831.02 676.39 983.29 681.17
00002004 DELETE   748.36 163.80 425.63 672.05 803.02 453.15 993.60 456.49 848.11 552.37 813.76 674.04 962.36 678.38
00002005 DELETE   730.40 149.18 428.89 670.75 784.26 432.71 971.34 438.77 826.79 550.43 799.40 654.62 957.39 658.73
00002006 DELETE   724.34 151.90 428.34 665.33 764.94 431.64 940.11 426.50 795.50 544.76 786.71 656.86 931.27 652.39
00002007 00000097 718.31 148.89 425.40 665.83 751.82 439.89 910.18 426.94 773.69 543.40 777.10 667.51 898.80 657.79
00002008 00000098 709.25 156.32 424.28 656.02 748.03 441.36 904.04 431.59 758.58 541.69 766.87 670.40 885.32 661.99
00002009 00000099 707.51 154.66 421.97 654.68 746.08 442.79 897.22 434.14 753.13 543.21 765.01 668.55 878.53 661.04
00002010 00000100 703.79 156.33 426.47 651.64 743.17 446.80 895.46 436.91 752.94 547.38 764.79 670.54 878.77 661.66
00002011 00000101 703.02 156.39 427.03 654.08 741.71 451.78 897.08 441.09 755.44 550.73 765.39 672.84 883.64 663.57
00002012 00000102 701.74 160.21 427.70 651.92 741.11 453.08 898.38 442.10 757.65 554.95 765.90 675.64 884.73 666.40
00002013 00000103 702.47 161.07 425.92 657.93 743.16 454.33 899.03 442.79 760.92 560.50 769.96 681.85 885.79 672.50
00002014 00000104 700.37 162.72 429.47 656.07 741.41 454.87 900.84 443.49 761.70 563.82 771.05 682.47 890.81 673.22
00002015 00000105 698.60 161.64 431.55 658.64 739.01 458.21 901.33 445.65 762.27 566.56 770.38 681.60 896.17 671.13
00002016 00000106 696.45 164.32 433.62 660.80 736.68 461.66 899.55 446.62 762.10 571.77 771.91 682.89 901.96 670.15
00002017 00000107 696.57 164.78 432.78 669.01 738.58 468.35 897.22 450.31 762.10 576.18 778.96 688.61 908.40 672.81
00002018 00000108 694.03 162.77 432.67 679.37 735.90 470.25 893.15 449.93 758.04 579.25 779.75 690.27 912.98 672.34
00002019 00000109 693.32 160.45 430.21 673.46 732.56 466.90 888.15 448.83 751.47 576.21 774.48 685.25 906.39 669.17
00002020 00000110 691.68 157.66 429.47 664.10 729.97 462.17 885.90 446.51 748.65 568.77 768.73 677.55 898.78 663.77
00002021 00000111 688.51 156.30 431.17 654.71 725.98 458.12 886.05 443.58 747.16 563.59 761.70 670.09 895.72 656.72
00002022 00000112 686.53 154.29 429.27 651.64 723.73 457.45 883.89 441.93 747.15 561.06 760.03 666.47 893.44 652.03
00002023 00000113 683.71 154.78 429.92 652.93 722.58 457.97 881.93 441.59 747.47 561.21 759.45 668.11 890.73 653.32
00002024 00000114 682.93 156.15 427.77 662.86 722.85 458.49 881.48 441.52 746.89 564.23 759.81 675.50 889.43 660.67
00002025 00000115 682.00 158.07 427.29 663.53 723.53 459.70 878.18 443.11 745.42 565.89 762.43 679.99 883.86 665.65
00002026 00000116 678.03 153.84 430.14 662.54 718.96 459.96 879.10 447.09 746.47 571.64 756.43 676.18 883.68 664.41
00002027 00000117 675.98 156.58 430.44 662.53 717.15 461.59 876.04 448.51 744.01 573.58 754.39 678.30 879.90 666.53
00002028 00000118 677.44 158.63 428.96 666.55 718.93 463.77 876.25 449.00 745.02 574.76 757.32 682.03 882.68 668.96
00002029 00000119 674.94 164.05 431.87 663.52 718.41 467.77 877.26 453.74 746.00 581.58 757.55 683.40 887.30 670.92
00002030 00000120 675.11 167.65 433.36 664.31 719.84 466.53 881.43 453.07 749.29 586.31 759.12 684.98 893.64 673.26
00002031 00000121 674.58 169.05 435.35 666.14 720.37 463.87 885.07 450.18 752.89 586.46 759.90 684.46 898.90 672.56
00002032 00000122 675.62 161.96 435.81 680.94 723.73 462.86 890.30 448.13 757.69 585.11 762.41 687.10 903.18 674.36
00002033 00000123 677.40 154.21 434.36 692.96 724.90 461.24 894.61 444.87 761.39 582.31 762.86 688.35 907.61 674.25
00002034 00000124 677.94 157.50 433.47 689.07 724.99 456.40 896.96 441.24 760.99 577.41 760.92 684.61 910.79 671.51
00002035 00000125 680.92 152.82 432.92 687.84 728.04 452.46 901.62 439.40 764.27 571.82 760.34 680.15 911.10 668.91
00002036 00000126 683.95 155.47 436.63 674.58 729.59 449.35 905.87 438.92 765.58 570.17 761.50 674.62 914.24 665.37
00002037 00000127 686.16 152.34 437.20 666.47 730.62 447.05 911.30 436.55 768.97 566.12 762.23 668.28 919.01 658.70
00002038 00000128 686.86 150.77 437.17 667.09 733.25 443.19 916.79 432.49 771.62 559.69 761.18 665.06 919.85 655.22
00002039 00000129 688.59 146.69 434.81 670.61 736.61 438.06 919.26 429.60 773.91 555.32 761.37 661.42 920.43 653.34
00002040 00000130 691.58 144.70 434.06 679.45 740.90 437.18 922.96 428.75 777.94 554.14 764.09 663.42 923.93 655.46
00002041 00000131 694.11 146.22 434.16 680.39 744.70 437.74 926.91 429.76 783.40 554.81 769.03 665.74 928.74 658.12
00002042 00000132 699.94 146.62 431.70 680.99 753.89 447.33 935.14 443.49 795.42 557.45 777.61 668.36 934.71 663.54
00002043 00000133 706.38 148.12 431.18 685.14 762.60 449.87 944.52 449.23 803.19 562.28 784.09 670.48 943.17 668.23
00002044 00000134 711.31 149.37 431.36 689.96 767.11 449.22 952.71 450.91 807.50 567.37 787.93 675.78 947.55 675.49
00002045 00000135 717.01 147.65 428.34 685.29 772.30 444.85 959.56 447.12 819.13 561.01 789.62 671.18 944.75 673.46
00002046 00000136 717.78 147.71 428.19 683.56 777.07 440.61 964.23 445.62 826.99 560.22 794.17 669.74 945.50 674.28
00002047 00000137 720.49 143.00 428.88 685.28 781.51 439.71 971.96 443.79 834.34 557.29 798.09 668.26 952.63 671.75
00002048 00000138 722.83 141.92 428.87 684.99 785.67 442.25 979.22 446.67 841.94 558.71 800.73 668.94 957.82 672.69
00002049 00000139 723.95 142.02 429.86 683.66 788.68 445.85 985.24 452.91 847.93 562.74 802.37 669.41 961.75 675.39
00002050 00000140 725.11 143.95 430.46 677.05 789.77 451.66 989.54 460.15 854.28 570.44 803.50 669.17 967.46 676.30
00002051 00000141 722.70 147.53 432.35 670.05 787.43 454.36 991.28 467.04 856.24 579.01 799.98 666.08 969.40 676.55
00002052 00000142 722.80 152.02 431.86 673.07 789.41 459.49 993.53 473.19 859.42 586.05 800.46 670.12 971.28 681.43
00002053 00000143 722.35 155.86 432.82 676.67 790.02 464.35 993.07 478.99 859.96 592.35 800.65 674.73 972.10 686.92
00002054 00000144 723.58 162.33 431.31 678.23 792.35 470.25 994.20 484.62 863.47 601.18 802.69 679.78 979.02 691.64
00002055 00000145 723.52 168.19 432.16 685.65 793.76 474.23 996.48 487.46 863.42 606.49 804.42 687.11 984.09 698.15
00002056 00000146 724.89 173.49 432.90 686.74 795.27 477.68 997.42 491.76 865.43 613.73 807.82 690.85 990.46 702.44
00002057 00000147 725.51 175.82 433.67 682.92 796.16 479.87 997.62 495.20 867.30 618.86 807.96 690.53 991.86 703.13
00002058 00000148 724.69 177.12 432.55 671.89 795.12 485.21 998.84 501.52 870.16 622.67 805.66 687.97 991.45 701.23
00002059 00000149 723.87 180.67 431.45 659.74 794.02 488.58 998.63 506.65 869.82 626.14 802.93 685.05 989.55 699.82
00002060 00000150 722.52 183.45 432.82 657.11 793.79 490.98 999.55 510.61 870.92 629.92 801.08 684.35 990.51 700.42
00002061 00000151 722.50 184.85 432.46 657.72 794.65 491.46 1000.59 512.13 871.38 632.26 801.28 684.95 991.11 701.92
00002062 00000152 709.35 183.82 441.72 659.34 792.85 490.97 1001.86 511.74 868.86 636.15 802.05 690.58 994.34 705.18
00002063 00000153 706.37 182.15 444.25 675.79 792.83 489.98 998.72 510.96 867.30 629.50 801.61 695.97 989.29 710.73
00002064 00000154 703.99 181.16 444.92 680.71 789.25 489.53 993.96 511.41 862.44 627.38 800.50 701.51 981.28 716.91
00002065 00000155 708.42 185.05 439.43 669.26 788.52 493.63 990.90 513.56 851.55 630.14 791.43 698.33 969.44 713.25
00002066 00000156 706.51 185.94 438.56 659.18 778.69 491.80 984.42 514.09 852.26 623.82 783.04 692.78 957.63 712.06
00002067 00000157 700.76 187.38 439.24 662.33 773.27 487.85 977.00 511.21 842.80 620.13 777.87 698.42 940.14 719.26
00002068 00000158 700.06 189.44 438.36 660.51 769.44 485.12 970.75 509.63 835.28 618.18 774.47 704.13 926.96 726.56
00002069 00000159 698.13 188.44 435.93 666.12 765.44 486.56 964.24 511.51 828.29 619.65 769.81 710.56 916.24 733.31
00002070 00000160 697.70 189.96 433.89 667.19 761.72 492.18 959.91 517.08 823.57 624.18 766.68 716.37 910.80 738.84
00002071 00000161 694.03 193.18 436.24 666.82 760.35 498.33 958.08 525.20 820.10 631.69 764.54 717.46 911.01 741.35
00002072 00000162 682.66 197.02 443.31 667.56 756.71 502.14 958.28 527.73 811.04 643.49 761.02 717.90 922.36 739.01
00002073 00000163 679.85 196.76 445.83 668.39 755.49 501.23 963.69 531.82 819.31 645.95 761.36 716.80 932.94 740.43
00002074 00000164 678.16 200.61 445.37 666.43 752.74 503.67 962.00 535.71 816.99 649.95 756.39 714.75 932.63 739.49
00002075 00000165 673.18 200.70 446.07 668.45 749.77 506.99 960.44 537.65 816.94 652.66 753.95 715.99 932.17 739.75
00002076 00000166 670.75 201.52 447.86 677.81 749.69 511.39 959.10 539.79 816.31 657.25 752.23 722.43 931.59 744.63
00002077 00000167 666.70 202.83 451.11 690.74 748.75 513.21 957.00 542.71 814.20 660.71 748.58 725.98 931.30 749.17
00002078 00000168 663.46 202.00 453.61 693.98 748.14 513.93 957.63 543.33 815.39 660.30 746.44 726.35 930.96 749.45
00002079 00000169 661.70 203.04 455.05 691.92 747.00 514.24 957.75 545.91 814.79 663.11 743.94 725.26 930.49 750.18
00002080 00000170 661.98 207.83 456.84 681.90 746.36 518.80 959.19 551.53 816.29 670.30 743.12 727.75 927.62 753.96
