Video ID: 	yDIG3DKFMu8
H: 	1080
W: 	1920
FPS: 	25.0

FRAME INDEX X0 Y0 W H [Landmarks (5 Points)]

00002604 00000000 619.86 217.66 345.35 508.84 794.55 433.35 939.63 423.77 932.31 523.21 817.20 611.91 923.98 605.19
00002605 00000001 618.30 215.37 342.18 516.13 791.54 430.21 933.80 422.78 926.61 523.39 812.55 615.22 916.90 610.10
00002606 00000002 622.37 219.84 340.15 514.59 792.82 427.84 921.37 428.20 915.75 518.81 804.72 615.07 904.41 618.15
00002607 00000003 618.22 217.81 338.03 520.13 789.40 426.29 914.18 427.15 911.44 519.54 802.09 617.59 896.73 621.33
00002608 00000004 614.50 218.18 337.68 520.37 785.05 429.05 908.81 427.50 908.08 520.32 799.95 619.34 893.75 621.32
00002609 00000005 610.20 218.04 337.68 517.90 779.14 430.50 903.26 424.99 904.52 521.83 796.15 621.20 888.21 620.15
00002610 00000006 600.64 218.97 342.40 515.64 770.15 429.46 898.27 422.13 899.59 521.46 792.28 623.27 885.46 620.74
00002611 00000007 593.04 219.70 348.02 515.88 764.82 427.22 895.39 419.78 897.37 518.41 787.35 622.43 881.47 619.53
00002612 00000008 586.06 223.10 347.06 514.95 760.47 424.07 891.28 418.51 893.17 514.93 777.22 618.72 872.59 617.26
00002613 00000009 582.73 225.35 348.42 516.34 754.27 420.26 887.27 419.43 885.70 510.95 763.70 611.80 865.25 614.13
00002614 00000010 581.58 226.70 347.19 513.84 749.32 418.40 883.25 421.08 877.07 510.54 754.88 606.87 859.23 612.13
00002615 00000011 579.41 226.43 347.85 509.72 748.71 419.89 881.99 421.14 878.64 510.83 752.90 602.02 861.10 606.71
00002616 00000012 576.83 226.16 344.42 501.53 743.91 433.93 883.59 430.48 875.42 513.69 753.97 598.98 865.03 597.92
00002617 00000013 573.60 220.11 347.23 502.57 742.03 432.38 883.50 428.76 871.44 511.47 757.24 597.20 868.84 595.68
00002618 00000014 570.50 212.77 344.63 507.24 741.45 430.06 878.71 428.23 868.00 506.40 755.80 592.30 865.45 592.56
00002619 00000015 569.17 205.81 343.37 508.01 739.85 418.07 874.78 420.47 866.66 495.13 756.72 583.86 864.77 587.38
00002620 00000016 564.56 190.70 341.10 514.32 746.01 402.41 875.25 401.64 865.74 483.83 753.42 580.40 862.47 582.36
00002621 00000017 563.42 195.64 342.30 513.72 736.05 408.16 864.99 410.35 854.88 485.78 753.72 574.47 857.16 577.67
00002622 DELETE   560.66 206.39 342.14 514.40 734.80 421.84 865.13 420.20 855.59 503.56 752.83 593.97 849.62 593.78
00002623 DELETE   560.47 221.85 343.15 510.56 734.45 437.03 871.62 426.12 861.03 530.85 752.01 616.62 847.76 609.11
00002624 DELETE   561.72 242.25 350.18 502.25 746.18 450.82 873.21 444.99 860.33 545.58 744.31 631.17 843.58 630.11
00002625 00000021 563.71 251.86 354.77 493.62 749.33 458.00 878.72 451.25 864.09 553.71 747.73 636.81 846.74 635.24
00002626 00000022 566.23 249.45 353.27 494.15 750.02 451.39 880.81 445.33 866.13 547.02 751.44 634.20 851.59 632.66
00002627 00000023 569.13 236.38 346.00 497.23 749.62 443.48 879.33 436.96 865.16 533.47 758.77 624.30 852.27 621.42
00002628 00000024 566.40 224.74 348.10 503.82 746.25 434.85 879.52 424.53 864.66 525.37 760.17 616.73 858.68 611.12
00002629 00000025 564.05 222.29 348.87 507.32 745.79 431.34 877.06 421.29 862.90 522.60 756.40 615.29 853.74 610.05
00002630 00000026 560.31 230.87 344.94 505.36 731.86 440.37 872.42 430.08 863.26 531.45 747.25 615.01 852.61 608.32
00002631 00000027 562.14 246.41 351.32 498.84 736.65 431.83 868.57 432.75 855.24 535.03 736.38 615.97 838.39 619.40
00002632 00000028 565.28 250.98 348.46 501.94 745.29 449.74 873.22 445.51 862.54 546.32 722.59 618.56 838.07 622.46
00002633 00000029 564.32 246.24 351.45 500.97 745.27 447.31 874.12 442.83 862.61 541.99 725.57 614.46 841.78 617.56
00002634 00000030 560.71 239.59 346.66 496.62 730.59 441.35 873.09 433.71 860.94 532.80 733.15 609.03 847.15 605.21
00002635 00000031 557.45 227.27 349.50 500.09 728.00 435.60 871.98 426.15 856.78 527.76 733.47 602.75 846.03 597.29
00002636 00000032 554.63 221.62 349.46 503.03 725.21 432.34 869.84 423.58 854.03 524.09 734.00 602.07 843.56 596.84
00002637 00000033 553.02 221.51 349.08 503.57 723.84 431.55 868.98 422.51 852.53 524.40 733.31 604.12 841.97 598.46
00002638 00000034 552.85 223.32 347.72 505.73 723.90 430.24 867.07 423.52 851.10 526.80 730.11 606.77 836.62 603.01
00002639 00000035 556.60 224.57 347.37 504.39 724.39 432.68 869.58 423.87 852.62 528.09 731.06 605.66 841.14 600.52
00002640 00000036 555.67 224.54 347.82 502.23 724.40 433.14 870.12 423.71 853.40 527.30 733.35 605.76 843.16 599.93
00002641 00000037 557.38 222.68 345.98 505.22 727.63 434.33 871.53 422.27 856.65 528.75 743.29 612.34 846.88 603.84
00002642 00000038 556.31 222.36 346.67 504.02 730.10 433.37 872.14 421.59 858.73 528.13 751.01 614.88 848.60 605.98
00002643 00000039 557.43 221.73 345.34 505.47 730.80 432.95 872.25 420.66 859.88 528.85 750.23 614.64 848.05 605.49
00002644 00000040 556.29 219.24 345.91 514.70 730.07 431.41 870.42 421.44 858.77 529.02 742.47 614.17 843.38 607.54
00002645 00000041 553.20 218.97 348.28 519.51 729.22 427.78 867.06 422.99 856.05 528.95 734.28 612.22 836.38 610.21
00002646 00000042 554.02 220.99 345.82 519.48 727.50 426.36 865.68 422.97 855.24 528.10 731.62 611.43 835.57 610.73
00002647 00000043 553.90 220.84 347.70 517.49 727.63 426.29 866.82 422.24 856.24 527.45 732.27 610.16 837.18 608.86
00002648 00000044 555.99 221.32 345.61 513.66 727.66 426.35 868.10 422.02 856.53 525.84 733.06 607.66 839.47 606.19
00002649 00000045 557.54 220.99 345.96 508.65 725.76 426.85 869.09 419.81 855.00 524.91 733.90 605.39 841.11 601.64
00002650 00000046 556.28 218.32 346.83 507.65 725.57 426.71 868.72 419.28 853.86 522.75 732.47 600.80 840.72 596.91
00002651 00000047 554.28 219.46 347.57 505.87 724.00 428.56 867.92 421.18 851.01 523.16 730.14 600.49 840.32 596.52
00002652 00000048 549.80 222.77 350.06 503.76 722.44 429.00 865.71 423.58 849.14 523.57 727.93 601.25 838.17 598.55
00002653 00000049 550.13 223.40 351.07 502.93 722.37 430.44 866.31 423.50 848.77 524.67 728.71 602.47 838.65 598.48
00002654 00000050 550.79 223.57 350.38 502.55 721.99 431.49 866.98 424.13 849.49 524.48 729.19 602.49 840.36 598.22
00002655 00000051 549.61 221.67 349.84 502.85 722.35 429.76 866.04 423.63 849.75 522.82 729.01 601.00 838.79 597.68
00002656 00000052 553.92 219.02 347.46 500.78 723.36 427.65 867.51 420.91 850.13 519.57 730.07 596.47 841.47 593.02
00002657 00000053 555.95 216.19 346.13 501.55 724.91 424.23 866.05 417.87 849.46 515.66 729.87 592.65 839.46 589.98
00002658 00000054 556.40 211.77 346.06 502.31 724.62 418.14 864.73 414.56 847.23 507.90 728.48 586.93 838.59 586.74
00002659 00000055 557.26 208.53 342.87 502.72 723.27 413.78 862.04 410.26 845.25 503.09 727.10 582.82 838.23 582.69
00002660 00000056 556.39 206.74 343.22 504.26 722.50 411.05 861.56 406.72 845.51 501.51 726.84 581.81 838.13 580.93
00002661 00000057 557.87 207.36 343.77 504.57 724.01 412.70 862.42 407.43 846.47 503.08 727.65 582.79 837.90 581.29
00002662 00000058 561.12 209.33 343.91 506.09 726.81 415.50 865.63 409.42 851.78 506.65 729.79 586.49 840.15 584.73
00002663 00000059 562.22 213.32 345.70 507.41 728.74 421.36 867.94 414.51 853.49 512.39 731.28 590.61 841.45 588.37
00002664 00000060 564.24 217.29 345.50 505.69 730.63 427.41 869.86 420.32 854.77 515.62 733.59 591.79 844.28 589.14
00002665 00000061 566.80 220.23 347.45 502.63 733.82 426.30 874.77 421.82 857.75 513.59 735.36 590.57 847.97 589.88
00002666 00000062 568.44 219.50 349.16 500.00 736.21 423.33 878.56 419.71 860.44 511.83 738.07 589.89 850.37 589.78
00002667 00000063 570.40 217.09 348.85 499.63 739.27 420.71 879.55 417.31 862.96 510.18 744.12 589.74 853.10 589.61
00002668 00000064 571.45 214.69 352.59 503.02 743.05 415.58 883.99 413.97 867.94 510.00 750.21 589.90 856.53 590.81
00002669 00000065 577.51 212.86 349.41 504.53 748.16 408.45 890.27 409.96 873.67 508.69 755.84 590.35 858.35 593.64
00002670 00000066 580.62 212.30 352.40 506.82 751.57 404.44 898.07 413.95 877.04 508.97 756.39 592.05 859.50 601.75
00002671 00000067 585.49 223.52 353.57 500.70 759.46 406.09 905.52 417.15 884.96 515.87 759.82 598.40 859.91 609.38
00002672 DELETE   588.00 233.56 356.20 494.29 768.94 407.45 904.66 411.37 888.97 525.55 757.95 605.65 859.28 612.84
00002673 00000069 592.70 230.96 353.09 502.27 778.78 405.75 912.24 420.10 900.46 524.08 763.13 598.04 858.62 612.83
00002674 00000070 590.06 234.49 354.84 500.11 781.10 407.66 913.09 426.82 900.88 525.94 762.13 597.07 858.02 615.62
00002675 00000071 592.53 234.32 355.02 501.58 786.85 409.07 915.26 432.25 903.30 529.08 757.65 593.62 856.17 616.57
00002676 00000072 590.36 240.87 354.45 493.12 784.72 408.32 911.60 434.64 895.86 539.95 749.46 596.92 851.57 621.46
00002677 00000073 589.98 245.79 351.02 488.27 783.17 409.31 908.94 436.51 893.81 543.07 743.24 595.84 847.75 621.41
00002678 00000074 583.15 242.40 353.90 493.55 769.80 412.00 904.84 435.20 888.59 528.00 741.77 590.68 850.05 613.67
00002679 DELETE   574.39 233.37 362.35 496.47 762.69 404.74 903.37 431.18 879.38 518.21 738.96 587.27 847.23 611.42
00002680 00000076 569.90 220.99 363.82 500.10 758.74 400.28 901.44 430.12 871.63 511.56 734.20 578.06 846.52 605.01
00002681 00000077 570.70 217.78 362.54 501.97 762.02 396.49 902.01 427.22 875.91 507.12 737.59 575.48 847.32 603.30
00002682 00000078 572.95 219.39 360.85 507.42 766.46 394.26 902.27 425.06 881.63 509.41 741.52 579.14 846.06 606.85
00002683 DELETE   574.10 225.11 356.84 507.94 763.95 400.53 899.39 428.23 884.53 514.15 741.40 586.03 845.13 611.74
00002684 00000080 573.92 233.03 360.81 505.67 762.91 406.85 899.27 435.60 884.92 517.06 738.61 587.33 848.57 614.38
00002685 DELETE   565.35 231.10 364.56 503.44 757.06 410.02 897.45 437.47 875.70 518.13 738.62 587.57 850.05 612.53
00002686 DELETE   561.46 224.20 365.97 505.54 753.45 407.87 894.53 438.60 867.49 517.47 730.59 584.06 842.24 611.56
00002687 DELETE   554.77 221.01 364.94 509.78 745.21 409.36 885.64 437.87 859.63 518.80 720.39 581.32 834.95 607.20
00002688 00000084 551.15 219.69 363.82 511.54 742.41 409.75 878.67 434.31 856.64 522.17 719.15 584.11 827.72 606.61
00002689 00000085 550.39 217.33 360.46 513.88 742.23 406.31 876.06 430.24 858.17 520.28 720.87 584.39 826.77 606.22
00002690 00000086 554.09 212.74 357.81 516.25 743.32 404.06 876.98 425.44 859.67 515.07 725.61 582.47 831.14 602.59
00002691 00000087 558.39 213.29 353.28 509.60 744.82 403.78 876.89 422.87 860.75 510.13 727.70 578.59 832.75 597.09
00002692 00000088 558.41 212.12 352.10 505.52 742.85 402.79 875.89 419.74 858.22 505.39 727.09 573.99 834.16 590.82
00002693 00000089 559.05 206.77 348.71 505.86 741.18 397.23 872.84 414.95 854.84 498.50 725.13 568.27 831.28 585.78
00002694 00000090 558.67 204.47 349.18 503.42 738.51 389.31 871.81 405.15 853.71 493.37 724.23 563.48 832.57 579.48
00002695 00000091 558.06 199.76 351.21 503.22 733.73 382.68 870.18 398.59 851.17 486.30 721.01 558.06 834.65 574.14
00002696 00000092 553.89 197.74 352.39 502.06 731.99 380.03 869.95 397.48 848.59 482.78 719.69 554.35 835.53 571.54
00002697 00000093 554.05 197.34 352.45 500.53 732.63 380.41 869.77 396.77 848.71 483.07 718.94 552.91 835.04 569.32
00002698 00000094 555.30 199.81 353.05 500.74 732.36 380.67 869.94 396.62 849.01 484.81 718.49 555.13 834.54 571.18
00002699 00000095 552.26 200.52 354.49 505.29 733.32 381.29 868.87 398.31 850.00 487.90 717.03 557.41 831.53 574.46
00002700 00000096 552.73 201.88 352.41 505.00 732.47 379.20 867.07 399.02 848.68 488.41 710.65 554.73 827.85 574.40
00002701 00000097 555.40 203.73 350.72 503.23 733.38 380.71 867.87 400.41 851.07 488.95 709.01 553.20 829.16 573.25
00002702 00000098 557.35 205.09 351.44 502.00 735.03 382.85 869.76 400.65 854.34 490.86 707.34 551.78 831.37 571.06
00002703 00000099 558.32 205.06 352.25 501.10 737.63 382.23 871.02 399.27 856.76 490.15 707.09 547.64 834.04 566.72
00002704 00000100 558.38 205.38 353.59 499.65 738.30 381.18 871.26 396.77 857.32 489.84 705.79 544.82 835.42 563.10
00002705 00000101 558.95 204.94 352.81 498.00 739.74 379.67 870.72 395.38 858.85 489.16 704.81 542.47 834.61 561.11
00002706 00000102 559.15 203.32 350.91 496.32 740.44 378.46 870.93 394.74 859.26 485.98 705.51 539.24 836.14 558.29
00002707 00000103 562.14 198.92 345.24 491.02 748.30 366.87 877.81 383.67 862.11 483.97 707.19 536.49 839.62 554.77
00002708 00000104 565.46 196.38 344.49 490.53 749.70 366.40 879.16 382.37 863.38 481.19 707.66 533.53 840.15 551.18
00002709 00000105 564.75 196.60 344.34 489.05 748.45 365.77 879.18 381.21 862.76 480.87 707.34 533.29 840.95 550.47
00002710 00000106 565.09 195.65 343.65 489.43 748.20 365.85 878.92 380.81 862.58 480.60 707.29 533.16 840.70 549.98
00002711 00000107 563.63 193.78 344.50 490.35 748.16 365.19 878.71 380.55 861.78 479.91 706.82 532.35 839.98 549.35
00002712 00000108 561.93 190.35 346.95 491.39 747.37 363.12 879.70 378.60 860.03 478.06 705.12 529.98 839.56 547.07
00002713 00000109 557.43 192.58 348.01 491.47 744.78 363.58 876.78 378.68 858.27 479.38 704.41 531.98 837.67 548.79
00002714 00000110 554.99 190.98 350.50 491.90 742.74 363.40 876.66 379.30 856.55 478.16 703.15 531.62 837.44 548.92
00002715 00000111 553.76 188.95 351.95 491.10 741.13 362.78 875.89 378.58 853.63 477.26 702.42 530.28 836.58 547.25
00002716 00000112 554.25 187.47 351.04 492.58 741.45 362.16 875.57 377.43 854.22 476.34 703.17 530.00 836.42 546.65
00002717 00000113 553.01 186.70 352.43 491.44 739.89 362.00 874.84 375.95 852.12 475.43 702.39 529.23 836.32 544.78
00002718 00000114 553.34 185.63 351.17 490.81 739.10 361.05 874.50 374.98 851.41 474.09 700.79 527.94 836.04 543.42
00002719 00000115 551.20 185.43 352.18 491.64 737.36 360.91 872.28 375.15 849.45 472.47 699.66 527.62 834.04 543.32
00002720 00000116 550.86 184.15 352.09 490.59 737.72 358.69 873.08 373.56 849.95 470.39 698.49 525.47 834.42 541.53
00002721 00000117 551.29 181.67 351.44 492.63 739.18 358.82 874.13 372.53 851.38 470.58 699.60 525.12 835.46 540.43
00002722 00000118 552.16 182.74 351.97 493.73 739.90 360.63 874.62 374.96 851.55 473.42 700.42 527.16 835.18 543.04
00002723 00000119 553.96 185.14 353.08 494.35 742.56 362.46 877.09 377.52 854.73 476.89 704.25 530.48 837.11 546.85
00002724 00000120 555.34 187.32 351.34 495.63 744.57 363.53 878.74 379.64 858.12 479.43 706.17 533.15 838.92 550.44
00002725 00000121 560.52 192.99 348.51 491.87 746.25 365.31 879.05 380.42 860.03 482.18 706.72 534.29 840.19 551.03
00002726 00000122 559.89 195.76 347.36 493.16 745.21 366.56 877.29 381.86 859.56 484.63 706.42 536.76 839.65 553.80
00002727 00000123 562.61 197.85 347.87 491.81 747.48 368.53 879.45 383.57 861.81 484.81 709.83 539.11 841.98 555.71
00002728 00000124 567.74 197.15 347.47 493.16 751.96 372.16 883.62 388.28 865.42 486.19 714.35 541.85 844.81 559.14
00002729 00000125 568.39 197.15 346.83 493.16 752.31 372.66 883.89 388.31 866.22 486.27 715.49 542.39 845.72 559.29
00002730 00000126 568.74 196.10 347.10 491.07 752.44 371.73 884.54 386.60 867.15 483.77 717.81 541.10 846.69 557.37
00002731 00000127 569.76 196.73 346.39 489.62 751.78 370.75 884.53 385.41 866.77 483.13 717.97 540.27 847.25 556.37
00002732 00000128 567.54 196.19 347.76 489.64 750.74 370.17 883.77 384.58 865.65 483.38 717.87 540.45 846.76 556.29
00002733 00000129 565.83 189.88 354.17 497.49 743.76 376.32 877.69 385.31 863.17 475.83 719.86 539.78 847.28 552.91
00002734 00000130 571.71 191.89 349.19 490.47 754.29 373.35 890.80 387.81 870.43 482.53 726.39 542.94 853.84 558.32
00002735 00000131 566.51 188.20 356.24 500.12 745.69 378.07 881.30 387.20 866.98 473.98 725.04 542.14 851.70 555.23
00002736 00000132 568.94 188.13 356.61 501.75 747.91 379.76 884.60 389.46 868.34 474.36 728.60 544.63 854.09 557.88
00002737 00000133 569.02 189.87 356.97 503.91 749.15 382.36 885.37 392.14 868.72 477.89 728.79 546.64 853.89 559.91
00002738 00000134 571.77 194.32 355.27 503.31 752.45 393.69 884.76 402.50 867.91 483.04 728.29 549.92 853.19 562.71
00002739 00000135 570.74 196.99 355.76 505.00 752.50 399.26 886.86 412.82 867.08 484.76 730.71 555.87 853.86 571.89
00002740 00000136 568.13 202.19 355.88 502.73 749.45 400.42 884.22 412.82 864.35 488.74 727.89 557.55 851.65 572.52
00002741 00000137 571.16 203.99 354.96 502.77 748.79 398.90 886.26 409.39 867.79 490.72 729.06 562.42 852.81 575.78
00002742 00000138 571.92 205.79 353.33 501.86 750.39 399.23 886.73 410.58 869.96 492.61 729.40 563.35 852.35 577.45
00002743 00000139 574.21 204.67 353.79 502.02 754.48 396.53 888.09 405.47 873.48 492.60 731.21 560.57 854.23 573.15
00002744 00000140 575.75 202.67 355.98 501.31 756.69 392.29 889.01 398.78 877.08 490.24 731.50 557.74 854.53 568.90
00002745 00000141 573.19 200.51 357.88 505.11 755.06 389.53 888.80 397.83 876.46 489.18 728.86 557.47 852.98 570.14
00002746 00000142 572.31 200.86 357.77 504.72 754.28 389.86 888.58 398.59 875.76 489.11 728.12 557.34 852.36 570.38
00002747 00000143 575.57 200.05 355.13 501.04 755.32 389.08 888.26 395.71 875.85 487.28 727.36 551.85 853.96 563.70
CROP_BBOX: 321 0 1248 891
