Video ID: 	DFb9x3Px8eY
H: 	1080
W: 	1920
FPS: 	25.0

FRAME INDEX X0 Y0 W H [Landmarks (5 Points)]

00000039 00000000 508.50 263.22 487.54 667.17 726.92 522.64 937.18 528.31 880.30 673.97 725.92 760.37 894.27 766.94
00000040 DELETE   510.53 261.17 483.92 671.66 727.09 520.27 936.64 526.69 878.86 672.61 726.16 760.99 892.88 767.99
00000041 DELETE   504.70 260.63 485.11 682.78 720.82 518.79 931.78 518.38 873.10 675.32 732.57 773.93 903.05 772.24
00000042 00000003 504.81 260.50 483.78 682.59 718.81 517.92 931.00 516.94 871.37 675.03 731.86 773.37 903.94 771.05
00000043 DELETE   505.01 260.19 483.43 681.05 716.38 518.44 930.56 515.82 869.96 675.63 731.47 773.23 904.68 769.56
00000044 00000005 506.13 258.07 483.78 682.30 715.63 516.98 931.47 514.21 869.42 674.85 732.50 772.67 905.46 768.82
00000045 DELETE   507.39 256.45 482.03 679.73 714.93 516.63 931.04 512.62 868.69 674.52 732.29 771.00 905.44 766.17
00000046 DELETE   507.54 257.89 482.80 676.39 713.48 515.26 930.63 511.03 867.80 673.32 732.02 769.08 905.73 764.15
00000047 DELETE   507.27 255.56 482.98 677.79 713.93 513.57 930.16 508.45 869.00 671.12 732.15 767.34 904.98 761.69
00000048 00000009 509.46 252.33 481.81 680.51 713.71 511.10 930.44 504.43 870.15 667.58 733.37 765.09 905.82 758.01
00000049 00000010 509.92 252.88 482.32 677.80 713.94 506.86 931.08 501.83 871.39 661.28 735.03 762.61 906.54 756.60
00000050 00000011 512.56 245.91 481.57 680.76 713.56 501.43 933.13 498.16 871.20 657.83 737.74 761.02 907.59 756.16
00000051 00000012 515.24 243.40 482.10 679.95 713.27 495.29 933.71 491.39 872.53 651.41 742.57 758.89 910.35 753.30
00000052 00000013 516.37 236.60 480.53 682.38 715.68 486.92 935.79 484.93 875.77 643.90 749.96 755.90 911.93 751.68
00000053 00000014 518.88 233.98 480.33 682.82 721.72 478.47 940.06 478.72 880.77 635.60 756.97 751.37 913.73 748.94
00000054 00000015 523.46 229.16 480.79 682.51 726.49 474.42 942.17 473.85 883.65 629.51 761.95 747.24 916.48 744.70
00000055 00000016 527.66 217.19 486.25 693.06 743.59 476.12 945.53 480.52 889.42 627.43 764.17 736.79 918.51 740.48
00000056 00000017 532.24 212.53 486.95 692.50 750.48 470.36 950.82 474.35 895.05 623.27 770.67 733.17 925.15 736.10
00000057 00000018 536.15 205.72 485.75 693.57 757.06 466.68 955.76 467.97 904.02 619.65 776.44 730.19 930.09 730.70
00000058 00000019 539.81 199.27 485.07 691.11 760.85 461.93 960.95 462.38 909.77 613.44 780.33 724.17 935.60 723.36
00000059 00000020 543.76 197.35 486.05 684.25 764.90 454.67 966.80 454.09 916.71 606.66 783.96 718.55 940.70 716.94
00000060 00000021 544.87 194.87 489.19 680.84 772.09 448.88 972.56 447.59 924.51 601.36 788.37 711.89 944.93 709.59
00000061 00000022 551.76 187.13 488.51 674.31 769.99 450.39 977.41 445.23 929.68 594.15 793.41 702.62 951.85 699.37
00000062 00000023 556.47 184.14 486.15 669.76 773.42 448.05 980.79 442.30 933.04 590.32 797.71 698.42 956.36 694.94
00000063 00000024 557.19 181.73 486.21 668.21 777.15 446.25 982.83 437.75 937.65 589.27 801.50 697.17 958.98 691.56
00000064 00000025 560.56 179.77 484.55 666.48 780.25 444.27 984.90 435.73 939.60 587.20 803.05 694.06 961.80 688.37
00000065 00000026 559.18 180.74 487.05 673.08 784.67 434.29 992.46 432.05 945.42 580.88 810.17 691.87 971.76 686.94
00000066 00000027 560.57 174.83 487.35 676.96 786.67 428.90 994.32 427.83 947.18 575.56 814.41 688.11 974.42 683.89
00000067 00000028 561.53 171.64 486.42 675.92 786.40 423.77 996.18 424.82 947.52 570.99 815.06 683.00 976.20 680.43
00000068 00000029 563.12 167.59 486.28 678.56 786.55 418.46 999.05 421.84 948.40 566.31 816.39 679.34 979.70 678.59
00000069 00000030 562.39 160.82 488.65 683.27 788.46 413.36 1001.72 416.88 951.31 561.54 817.58 675.58 981.83 675.03
00000070 00000031 567.28 154.93 487.73 686.10 789.80 409.39 1004.75 411.98 951.49 558.98 820.37 672.62 985.51 671.41
00000071 00000032 568.46 155.68 487.57 683.22 790.23 407.61 1008.21 411.49 952.03 558.00 820.17 671.00 987.39 670.94
00000072 00000033 569.93 152.82 489.09 684.37 791.43 406.55 1009.93 411.85 952.26 558.52 822.68 670.89 988.70 671.94
00000073 00000034 570.35 152.98 488.89 685.49 793.97 405.88 1011.00 412.65 954.86 557.52 824.84 670.74 989.82 673.01
00000074 00000035 572.60 151.70 488.41 686.75 796.79 405.75 1012.97 413.33 957.59 557.24 826.88 670.79 991.69 673.82
00000075 00000036 573.70 150.34 488.93 689.44 799.07 405.66 1014.62 413.44 959.08 558.28 828.99 671.53 991.87 674.81
00000076 00000037 574.75 151.56 490.10 690.89 799.91 408.04 1016.32 414.63 961.81 561.95 830.36 675.09 992.80 677.52
00000077 00000038 573.04 155.42 491.81 689.54 800.72 411.00 1015.66 415.95 964.16 564.12 831.21 679.00 992.12 680.12
00000078 00000039 572.00 155.82 493.81 690.34 801.15 411.85 1016.20 417.93 964.28 566.75 831.77 681.24 991.77 683.24
00000079 00000040 568.86 156.22 499.18 686.98 806.74 424.91 1013.25 432.01 967.30 569.15 819.70 673.04 981.52 678.74
00000080 00000041 568.88 156.61 499.12 687.36 808.34 426.83 1013.77 432.64 968.66 571.30 820.33 674.84 980.77 679.47
00000081 00000042 570.36 159.84 498.73 684.55 809.25 429.01 1013.83 434.37 968.44 572.69 820.61 675.66 980.07 680.05
00000082 00000043 571.57 162.09 499.03 682.13 808.46 429.67 1014.97 434.16 968.44 574.65 819.53 676.33 980.22 680.19
00000083 00000044 572.54 163.28 499.69 682.57 809.98 431.48 1017.13 434.74 970.81 576.18 821.45 679.16 981.95 682.09
00000084 00000045 575.63 165.30 497.86 683.16 812.38 433.48 1017.89 437.15 972.60 578.57 824.41 681.40 983.34 684.71
00000085 00000046 577.95 169.01 496.38 681.43 814.14 436.27 1020.21 438.10 975.33 581.83 828.11 685.51 985.27 687.50
00000086 00000047 577.44 171.85 496.77 680.91 811.36 439.11 1019.95 441.12 974.23 584.72 827.26 688.76 985.92 690.99
00000087 00000048 577.07 175.34 498.47 679.33 811.36 442.21 1021.84 443.27 975.09 589.65 827.63 692.49 987.54 694.08
00000088 00000049 579.33 174.10 497.25 683.37 813.07 444.79 1023.78 444.67 975.90 591.78 827.95 695.18 988.50 695.85
00000089 00000050 580.46 175.59 496.06 683.14 813.19 446.08 1024.64 445.83 976.06 594.17 827.41 697.32 988.69 698.02
00000090 00000051 582.80 176.42 495.53 683.67 814.39 446.44 1026.40 447.29 976.02 595.82 828.76 698.48 989.74 700.00
00000091 00000052 583.45 175.99 495.89 686.27 814.29 447.70 1027.24 448.29 976.07 597.39 828.06 699.87 989.95 701.27
00000092 00000053 583.26 177.38 496.04 686.83 813.63 449.14 1027.41 448.99 976.02 599.30 828.30 700.94 991.19 701.80
00000093 00000054 584.25 177.40 494.75 688.27 813.16 449.64 1026.75 449.80 975.17 600.25 828.12 702.21 990.35 703.35
00000094 00000055 582.98 178.70 494.68 687.71 812.54 451.04 1025.10 449.56 975.82 601.72 827.58 703.52 989.40 703.41
00000095 00000056 582.56 179.51 494.65 686.69 810.82 450.17 1023.50 448.59 974.69 600.80 826.84 702.46 989.47 702.17
00000096 00000057 583.23 177.37 493.27 688.35 809.73 450.53 1022.79 447.62 974.14 599.94 826.25 702.28 989.90 700.85
00000097 00000058 582.58 178.47 492.65 686.12 809.28 449.71 1020.96 447.16 973.39 599.12 825.54 701.42 988.00 700.25
00000098 00000059 582.21 175.37 492.78 685.56 808.56 448.47 1020.50 445.63 972.81 595.96 826.19 699.57 988.23 697.98
00000099 00000060 583.37 174.68 490.62 683.85 809.05 447.36 1020.62 443.91 972.95 592.59 828.28 697.29 989.65 695.14
00000100 00000061 583.42 175.01 491.30 683.67 811.35 447.74 1022.33 444.77 975.45 591.65 831.89 697.93 992.20 696.07
00000101 00000062 583.81 176.07 490.39 682.05 813.23 446.75 1023.09 444.03 977.48 590.30 835.16 697.29 992.94 695.67
00000102 00000063 584.79 175.92 490.18 680.30 814.63 444.76 1023.85 442.29 978.57 588.00 837.60 696.52 993.68 695.19
00000103 00000064 583.52 173.39 490.28 679.71 812.84 443.26 1022.46 440.88 976.95 584.11 837.84 694.10 994.07 692.61
00000104 00000065 584.64 172.28 489.54 678.53 813.42 440.68 1021.89 438.84 976.19 582.38 838.15 692.07 992.93 691.07
00000105 00000066 584.83 172.36 490.55 677.48 813.93 440.35 1023.14 438.94 976.92 581.65 838.86 691.28 994.13 690.58
00000106 00000067 584.95 172.23 491.51 677.47 815.83 439.90 1024.25 438.46 978.35 581.33 840.96 691.38 994.56 690.71
00000107 00000068 586.21 172.14 490.40 679.20 818.34 440.18 1025.24 439.21 980.26 582.34 842.73 692.22 995.11 691.97
00000108 00000069 587.68 172.47 489.74 680.35 819.89 441.02 1026.87 439.28 983.23 582.45 846.27 693.84 998.03 692.81
00000109 00000070 584.93 174.18 490.57 681.93 819.55 441.86 1026.12 440.36 983.44 585.10 844.64 695.97 996.56 695.18
00000110 00000071 582.94 174.06 490.09 682.94 816.94 442.98 1023.79 440.86 982.42 584.69 842.63 696.20 996.10 694.82
00000111 00000072 581.38 173.95 490.17 684.34 814.73 444.00 1022.21 441.30 980.31 585.94 840.52 697.54 994.46 695.64
00000112 00000073 578.92 174.03 491.03 685.53 809.97 447.02 1019.95 443.23 977.32 587.75 836.43 698.84 993.93 695.76
00000113 00000074 577.02 171.06 491.97 686.75 807.78 447.95 1017.70 441.94 976.61 587.94 833.89 698.20 992.14 693.45
00000114 00000075 575.08 176.97 488.50 686.13 801.03 440.51 1015.12 433.99 968.97 588.67 836.89 706.30 997.40 698.16
00000115 00000076 571.39 174.82 487.96 684.38 800.52 448.71 1008.11 437.29 966.45 588.21 833.31 705.98 989.57 694.29
00000116 00000077 566.92 165.33 486.07 683.83 790.99 457.51 996.74 436.34 953.23 588.53 819.47 699.53 976.57 683.00
00000117 00000078 562.07 163.76 487.77 681.54 786.99 454.36 991.21 433.80 949.93 580.85 817.54 694.72 974.31 678.47
00000118 DELETE   560.85 153.66 485.92 688.77 784.25 445.42 987.33 425.60 946.64 575.10 817.67 691.24 975.88 675.31
00000119 00000080 560.33 156.03 482.85 686.27 779.26 440.74 982.82 422.94 941.45 571.27 814.93 688.59 974.71 674.24
00000120 00000081 558.90 155.24 482.08 685.19 776.48 437.82 979.12 418.72 938.67 567.94 814.24 687.31 973.38 671.80
00000121 00000082 556.79 155.45 484.02 683.44 773.83 435.30 976.78 416.47 935.85 565.62 812.42 684.43 973.05 668.93
00000122 00000083 555.47 153.28 482.72 684.21 771.39 431.78 973.34 411.77 933.83 563.25 810.73 682.80 971.25 666.29
00000123 00000084 554.26 152.72 480.58 682.91 766.19 431.20 969.20 410.38 929.98 561.15 807.91 682.02 969.92 664.71
00000124 00000085 553.20 151.72 480.42 684.46 762.80 429.77 966.36 408.90 926.86 559.81 805.86 681.73 968.30 664.16
00000125 00000086 551.06 153.28 480.11 681.26 758.50 430.36 961.00 407.54 922.73 560.66 803.59 682.05 963.53 663.09
00000126 00000087 549.80 153.25 479.15 681.88 754.41 431.86 959.02 409.52 919.31 560.17 800.11 682.01 961.68 663.35
00000127 00000088 548.70 154.21 479.00 682.38 751.78 432.74 958.37 413.28 915.22 560.93 797.51 683.19 959.34 666.88
00000128 00000089 547.82 156.71 479.93 679.79 749.44 433.41 957.48 416.10 911.95 561.91 795.18 683.55 956.44 669.18
00000129 00000090 547.19 161.79 481.36 678.35 748.42 436.86 957.59 419.22 912.27 565.22 794.95 686.62 956.36 672.12
00000130 00000091 548.45 165.96 481.77 679.73 749.88 441.21 960.69 423.13 914.98 569.79 794.96 691.73 958.35 676.96
00000131 00000092 549.52 169.51 482.76 681.37 751.91 445.44 963.14 427.01 915.60 573.69 796.77 696.37 959.29 681.20
00000132 00000093 552.40 172.78 482.86 682.07 755.52 448.13 967.88 429.51 918.48 580.59 800.03 700.97 962.04 685.67
00000133 00000094 554.70 174.46 481.63 683.16 757.96 451.85 970.46 431.73 922.19 584.83 805.24 705.82 965.61 689.10
00000134 00000095 555.38 180.48 484.47 679.93 759.21 454.73 973.41 434.10 925.18 589.97 805.50 709.41 965.32 692.67
00000135 00000096 553.91 182.35 485.51 684.34 765.62 452.03 977.32 436.92 929.35 597.33 806.49 713.85 968.70 698.84
00000136 00000097 555.19 183.52 484.76 682.73 766.98 452.74 979.23 437.35 931.11 597.15 807.77 714.57 969.87 699.37
00000137 00000098 556.05 184.14 483.74 682.07 769.52 452.15 979.86 437.42 932.56 597.80 808.94 714.44 969.41 699.81
00000138 00000099 555.50 184.32 482.49 682.78 769.48 451.83 979.57 436.76 933.20 597.37 807.47 713.93 968.64 699.14
00000139 00000100 555.28 184.12 481.72 682.30 769.43 450.53 978.55 435.00 933.14 597.08 808.36 713.18 968.60 697.91
00000140 00000101 555.28 184.24 480.89 682.43 769.63 449.68 977.50 435.68 932.07 596.01 808.28 712.49 966.80 698.40
00000141 00000102 555.70 184.27 479.81 681.75 770.59 450.17 977.32 435.96 932.45 595.90 809.13 712.24 966.98 698.03
00000142 00000103 556.61 185.01 478.82 679.65 771.83 449.87 978.01 435.66 933.57 594.75 811.90 711.32 968.29 696.95
00000143 00000104 558.10 184.36 478.00 679.32 773.42 448.65 980.09 435.38 935.18 592.89 815.37 710.02 970.48 696.13
00000144 00000105 558.87 183.91 477.62 680.13 774.36 446.42 982.24 434.69 936.80 590.09 815.79 708.82 972.22 696.05
00000145 00000106 560.57 184.21 475.63 678.74 776.37 446.28 982.67 436.22 937.32 589.78 817.95 708.04 972.13 696.54
00000146 00000107 559.38 182.86 476.97 679.12 779.70 447.53 984.15 437.82 941.31 588.17 818.23 706.12 972.66 694.84
00000147 00000108 560.07 184.36 477.97 677.43 779.76 444.96 984.83 437.80 941.18 585.51 818.83 703.73 974.14 694.41
00000148 00000109 563.37 184.38 475.52 674.69 781.11 443.79 987.16 438.10 942.14 585.13 822.27 703.09 976.48 694.86
00000149 00000110 562.91 182.62 476.11 676.30 782.35 443.55 986.95 438.15 943.37 583.15 822.52 701.64 976.80 693.60
00000150 00000111 564.56 181.40 476.29 677.05 782.20 441.64 988.05 435.98 943.99 580.73 823.49 699.49 978.55 691.02
00000151 00000112 565.08 181.47 475.79 677.58 782.99 441.22 987.22 435.16 944.72 579.89 823.57 699.54 977.93 690.81
00000152 00000113 565.28 181.49 476.12 676.95 782.32 440.49 987.62 434.84 944.11 579.37 823.90 699.09 978.24 690.61
00000153 00000114 565.41 182.00 475.96 677.66 782.31 439.67 987.18 435.14 943.58 578.18 823.11 698.41 978.35 690.88
00000154 00000115 563.54 180.70 477.94 682.31 783.30 440.28 987.33 434.92 945.06 580.02 822.75 700.60 977.82 692.56
00000155 00000116 564.15 182.03 476.24 682.99 784.19 441.72 987.50 437.82 944.96 581.53 823.66 702.23 978.19 695.35
00000156 00000117 563.47 183.09 474.17 686.41 785.92 443.64 986.47 440.17 944.92 585.42 821.87 705.71 975.79 699.45
00000157 00000118 562.56 185.81 474.99 687.98 785.09 447.24 985.68 443.29 943.61 589.51 819.86 709.80 973.45 703.48
00000158 00000119 562.02 187.84 474.42 688.91 784.33 449.57 983.62 446.01 941.85 592.86 817.11 712.37 970.85 706.76
00000159 00000120 559.26 190.62 477.51 689.26 784.53 452.09 981.56 446.85 942.24 594.93 815.47 715.21 968.70 708.73
00000160 00000121 556.66 192.54 478.33 690.69 783.51 454.11 978.99 449.69 940.18 596.84 813.94 717.06 965.62 711.42
00000161 00000122 557.46 194.25 475.35 690.38 782.21 457.61 977.80 450.86 939.41 600.73 812.00 721.23 963.11 713.97
00000162 00000123 551.64 196.13 478.58 690.60 778.60 458.84 973.97 452.62 934.81 604.05 806.82 723.92 956.65 717.46
00000163 00000124 549.37 196.13 481.41 692.20 777.11 458.56 973.29 452.73 934.09 603.72 805.15 725.64 955.82 719.52
00000164 00000125 548.10 195.51 481.09 696.16 776.57 459.97 971.13 453.78 933.03 605.22 803.29 727.29 953.08 721.00
00000165 00000126 546.31 196.97 482.31 695.15 776.32 461.36 969.47 456.46 931.53 606.89 801.83 727.36 950.65 722.23
00000166 00000127 543.67 199.21 485.14 694.00 776.27 460.45 969.46 457.13 931.56 608.39 799.68 727.55 948.57 723.98
00000167 00000128 544.18 197.91 484.46 696.24 776.91 460.86 970.33 458.41 931.96 607.90 799.14 727.61 948.71 724.71
00000168 00000129 543.93 197.46 485.49 696.57 777.72 460.34 971.25 458.80 932.03 608.64 799.20 727.25 948.47 725.09
00000169 00000130 542.46 197.57 486.30 697.71 778.82 459.96 972.23 459.29 933.54 608.26 799.70 727.88 947.95 726.44
00000170 00000131 539.89 198.69 488.77 697.18 778.19 460.18 971.82 460.77 934.00 608.98 796.36 727.74 946.52 727.54
00000171 00000132 537.81 200.37 489.71 697.90 778.11 461.02 970.83 461.85 933.08 612.02 795.11 729.38 944.41 729.48
00000172 00000133 534.78 199.07 491.01 701.24 777.06 462.10 968.33 463.89 931.18 613.22 792.06 730.34 940.56 731.30
00000173 00000134 528.89 199.33 493.18 700.85 773.38 463.00 966.27 465.85 928.30 614.90 788.36 731.13 937.56 732.87
00000174 00000135 524.44 200.13 493.74 701.93 767.84 463.50 963.17 467.14 922.33 615.73 783.99 731.29 935.25 733.47
00000175 00000136 520.67 197.99 489.33 706.09 763.37 464.38 960.36 468.87 920.36 617.51 778.13 730.20 931.98 733.25
00000176 00000137 514.81 207.22 488.17 696.10 750.98 459.87 953.97 467.27 910.14 613.76 774.50 730.47 926.80 735.00
00000177 00000138 505.08 208.04 493.89 698.28 741.30 458.71 947.19 465.09 901.16 611.72 769.37 731.04 921.85 734.08
00000178 00000139 496.76 206.72 493.99 700.30 735.09 457.71 940.57 465.65 894.14 611.48 762.10 730.85 914.53 734.92
00000179 00000140 492.95 197.39 489.66 707.17 733.15 461.83 931.52 464.63 891.25 609.14 752.97 730.89 909.19 731.93
00000180 00000141 487.04 198.91 489.43 707.86 727.48 465.40 926.14 466.43 887.00 610.45 747.56 732.81 905.21 732.38
00000181 00000142 483.52 202.17 488.38 706.28 723.33 471.14 920.91 468.71 881.85 617.76 745.66 739.33 899.74 736.42
00000182 00000143 478.75 204.48 488.75 705.61 719.51 475.72 915.13 471.97 878.02 623.23 740.92 743.77 892.01 740.17
00000183 00000144 475.87 209.09 487.01 699.87 713.10 479.36 911.28 473.91 872.25 627.90 735.23 747.04 886.82 742.16
00000184 00000145 473.58 213.04 487.10 697.79 709.36 480.23 908.68 476.02 867.79 629.73 732.23 747.85 883.08 744.14
00000185 00000146 472.58 214.29 486.94 697.05 709.62 480.31 907.40 476.96 867.78 630.55 731.30 747.71 881.67 744.86
00000186 00000147 470.63 211.54 486.88 698.93 707.84 478.08 906.21 474.17 867.23 627.39 729.21 746.30 880.84 742.88
00000187 00000148 469.77 208.65 485.99 700.98 707.98 475.90 904.53 471.39 866.78 625.36 729.09 744.98 879.47 741.14
00000188 00000149 467.95 207.69 487.49 701.96 707.39 476.59 904.38 472.46 866.55 625.23 729.21 745.36 879.36 741.73
00000189 00000150 467.98 207.03 487.29 702.79 707.37 476.37 904.22 472.14 866.57 625.31 730.16 745.67 879.76 741.93
00000190 00000151 467.58 208.41 487.91 701.81 707.25 478.27 905.03 473.07 867.65 626.72 730.67 747.32 880.45 742.80
00000191 00000152 467.76 208.63 488.06 700.80 707.48 479.34 906.47 473.57 868.97 627.75 730.85 748.08 881.18 743.14
00000192 00000153 470.94 207.69 486.41 701.25 709.99 479.10 908.70 471.99 871.36 627.23 733.53 747.84 883.75 741.68
00000193 00000154 470.74 207.50 488.95 701.80 711.52 478.21 910.52 470.31 873.87 627.66 734.47 747.90 884.69 741.21
00000194 00000155 472.43 208.24 488.07 700.41 712.35 479.15 912.51 470.99 875.02 628.42 735.98 749.02 886.96 742.06
00000195 00000156 473.46 206.81 487.75 701.93 712.88 479.36 912.98 471.28 874.58 628.86 735.64 748.86 886.74 741.86
00000196 00000157 473.47 207.83 488.56 700.54 712.31 479.67 913.72 471.54 874.26 629.38 735.39 748.97 887.63 741.92
00000197 00000158 476.60 205.18 488.23 702.83 714.45 478.79 914.81 470.38 875.01 627.33 738.61 747.89 890.36 740.45
00000198 00000159 480.55 203.79 490.00 701.03 719.20 473.94 919.68 467.04 879.50 620.47 745.38 743.11 898.00 736.60
00000199 00000160 482.74 198.06 490.61 703.69 722.79 467.02 922.20 464.63 882.01 612.36 746.95 735.91 900.72 732.68
00000200 00000161 487.48 195.59 491.91 705.20 725.52 461.52 927.18 461.68 885.60 607.29 750.35 731.71 907.74 730.14
00000201 00000162 492.81 192.49 494.15 708.97 731.29 458.65 934.82 459.35 892.84 606.45 755.25 730.92 914.22 729.87
00000202 00000163 498.84 203.84 492.76 697.64 730.22 454.60 939.36 458.90 890.81 606.66 764.07 728.77 919.23 729.58
00000203 00000164 507.20 203.55 490.29 694.55 735.50 457.46 943.61 456.92 897.69 606.63 771.48 730.21 925.10 727.23
00000204 00000165 515.04 191.74 486.35 702.78 743.19 458.78 951.57 451.47 908.76 604.85 775.81 731.65 935.56 724.02
00000205 00000166 522.20 183.83 489.06 708.38 746.94 465.46 959.97 457.76 915.34 604.61 781.30 727.91 936.66 722.24
00000206 00000167 529.06 185.05 489.06 705.99 750.24 463.65 964.22 456.48 917.82 600.89 788.75 727.90 943.72 722.50
00000207 00000168 534.70 190.10 487.72 705.58 762.29 460.38 965.32 455.46 920.93 606.49 790.06 730.31 947.35 724.99
00000208 00000169 541.11 188.64 488.68 705.08 767.54 467.43 969.64 458.97 925.32 606.82 794.38 732.60 949.39 724.86
00000209 00000170 546.38 187.20 493.25 704.51 769.77 472.41 974.99 462.75 928.67 607.89 798.51 733.41 954.85 724.45
