Video ID: 	s4GhmCdpG54
H: 	1080
W: 	1920
FPS: 	23.976023976023978

FRAME INDEX X0 Y0 W H [Landmarks (5 Points)]

00005832 00000000 678.06 126.87 414.58 695.57 764.37 398.86 949.03 405.32 826.09 506.19 767.47 643.08 919.22 649.06
00005833 00000001 674.52 110.30 416.77 705.65 772.70 386.66 952.65 393.66 837.50 495.39 779.36 632.24 920.94 638.61
00005834 DELETE   681.62 109.72 412.06 681.62 772.93 373.32 957.72 374.56 844.04 484.29 790.40 620.70 933.70 621.59
00005835 00000003 686.03 109.83 405.66 660.40 771.09 362.11 958.04 354.86 851.91 468.22 798.94 606.33 946.05 599.88
00005836 00000004 688.02 91.10 406.44 652.56 773.89 348.33 956.92 347.19 847.70 455.77 794.48 581.98 942.27 582.08
00005837 00000005 683.92 92.09 407.91 646.94 767.06 344.30 951.45 339.65 842.57 449.78 789.24 577.13 941.58 574.17
00005838 00000006 677.29 83.40 406.27 675.48 763.70 351.12 945.02 345.65 841.05 458.24 787.27 590.52 936.94 587.55
00005839 00000007 677.88 92.50 402.57 672.66 759.75 368.36 946.45 360.33 842.28 478.26 791.97 608.73 939.51 603.62
00005840 00000008 675.50 99.49 406.93 680.61 761.47 379.49 948.69 376.62 848.29 497.09 792.29 618.16 938.74 617.00
00005841 00000009 668.61 99.76 411.84 694.56 759.55 384.57 944.21 376.79 846.81 502.77 790.68 631.00 940.02 623.97
00005842 00000010 663.16 107.72 403.94 686.35 756.48 394.64 939.73 384.25 843.46 512.24 793.51 642.17 929.61 632.54
00005843 00000011 656.47 110.52 406.91 684.72 750.67 394.22 932.78 382.90 837.00 511.25 789.05 643.37 925.08 632.80
00005844 00000012 655.11 109.87 402.60 688.71 745.63 395.62 925.79 382.34 831.55 507.96 784.36 642.91 920.84 631.05
00005845 00000013 649.22 113.36 407.86 687.78 741.79 397.52 923.07 383.35 827.88 510.64 782.34 645.70 920.91 632.75
00005846 00000014 642.12 117.05 414.40 689.45 738.27 399.49 920.69 383.15 825.19 512.18 778.75 644.16 922.87 629.40
00005847 00000015 640.83 120.75 416.33 691.95 735.93 397.30 923.02 383.03 822.30 514.47 773.51 643.26 926.03 629.99
00005848 00000016 646.93 121.90 417.14 693.68 739.95 399.52 928.92 387.04 824.43 518.93 779.35 647.43 932.20 635.12
00005849 00000017 660.41 116.57 412.43 695.55 748.71 399.19 936.45 391.78 838.94 523.11 777.56 645.80 931.39 640.29
00005850 00000018 660.95 122.77 417.22 682.03 753.49 399.87 946.85 398.47 843.00 525.14 774.60 643.53 931.62 642.87
00005851 00000019 668.75 119.53 411.90 684.28 758.29 396.56 946.58 401.27 839.74 522.99 771.62 640.73 918.18 645.49
00005852 00000020 672.12 117.18 409.75 691.85 761.77 392.13 947.99 399.94 838.95 517.81 770.79 638.57 912.97 645.96
00005853 00000021 672.57 120.04 412.25 682.71 762.86 394.21 953.51 401.91 841.29 513.13 772.97 640.26 915.64 647.48
00005854 00000022 674.98 119.63 411.99 676.16 765.80 389.32 960.64 398.49 844.53 513.02 771.03 631.55 926.64 639.44
00005855 00000023 678.27 116.69 408.64 674.72 770.30 387.10 966.43 397.67 848.66 510.92 773.48 626.24 933.13 635.03
00005856 00000024 679.17 116.86 408.37 680.54 773.72 385.03 968.99 396.33 849.42 508.43 773.19 622.99 934.73 632.66
00005857 00000025 682.56 118.24 410.47 687.20 780.65 384.28 971.06 396.05 852.08 505.12 782.38 625.92 936.85 635.98
00005858 00000026 683.53 117.64 416.09 693.06 788.50 385.43 979.47 399.23 864.46 511.49 789.04 626.34 948.72 637.19
00005859 00000027 691.10 120.73 410.90 684.03 794.72 386.60 987.62 406.12 870.51 518.05 790.44 624.60 950.45 640.21
00005860 00000028 686.93 126.94 418.12 677.77 793.93 389.41 991.65 411.07 873.98 523.32 788.73 628.23 952.10 645.78
00005861 00000029 689.27 125.88 416.28 679.53 795.91 390.45 993.35 414.55 874.58 525.20 788.82 629.69 951.41 649.54
00005862 00000030 693.61 124.34 413.25 686.83 799.44 392.78 994.37 417.38 876.15 527.42 791.21 632.11 953.17 652.21
00005863 00000031 696.08 122.04 411.94 689.79 801.10 393.92 995.46 418.09 877.04 527.67 793.66 632.60 955.95 652.08
00005864 00000032 696.94 124.73 412.76 690.15 801.02 394.05 997.80 416.32 878.15 526.68 794.61 635.53 958.37 653.17
00005865 00000033 698.40 123.66 415.28 690.25 801.51 395.10 1000.91 418.17 880.49 528.19 798.23 639.64 960.37 657.99
00005866 00000034 704.41 122.71 408.92 690.49 804.42 396.76 1005.72 419.78 885.59 528.39 802.56 641.96 964.80 660.19
00005867 00000035 714.17 122.91 402.14 687.41 808.24 397.37 1007.18 418.17 886.07 529.08 809.04 642.81 969.55 658.89
00005868 00000036 717.32 122.87 405.85 685.29 812.36 395.37 1011.10 415.65 889.96 526.58 813.35 642.91 971.88 658.38
00005869 00000037 721.16 123.37 408.84 682.62 816.98 395.08 1014.72 413.79 896.94 526.02 821.74 646.04 975.77 660.29
00005870 00000038 722.38 119.26 410.18 694.09 823.95 396.18 1019.01 410.38 908.90 526.48 833.67 653.08 980.33 663.61
00005871 00000039 727.35 116.83 405.51 702.13 829.12 389.76 1022.81 403.16 910.67 523.25 838.70 656.15 982.52 665.52
00005872 00000040 727.64 118.66 408.23 700.58 827.50 389.44 1024.39 401.21 907.76 518.03 837.43 653.80 984.48 662.07
00005873 00000041 729.92 109.07 405.46 705.48 828.64 383.21 1023.76 397.03 907.73 510.23 836.77 645.80 982.67 655.83
00005874 00000042 729.23 108.11 402.20 701.92 827.27 377.59 1025.77 387.78 907.44 498.87 837.81 642.14 984.61 648.82
00005875 00000043 730.68 101.67 397.07 708.42 825.35 377.63 1023.68 384.21 905.46 493.50 839.01 638.83 987.35 642.81
00005876 00000044 730.53 102.54 395.76 699.55 825.68 373.45 1021.57 379.97 904.51 488.49 839.40 633.35 984.29 637.30
00005877 00000045 732.14 103.06 394.69 686.17 825.33 373.44 1019.83 377.34 904.97 488.64 843.90 632.99 983.41 634.36
00005878 00000046 734.75 99.16 401.09 680.74 829.70 365.83 1026.57 377.98 907.43 493.55 844.72 626.49 989.24 637.50
00005879 00000047 733.88 93.57 404.82 688.36 830.73 366.51 1027.57 378.35 909.27 492.44 846.64 626.36 992.58 636.57
00005880 00000048 737.78 92.37 403.54 685.17 832.39 365.33 1030.56 378.90 910.10 494.43 846.42 623.23 994.96 634.60
00005881 00000049 739.92 84.85 405.75 690.32 833.54 370.19 1032.02 382.53 910.29 494.91 849.44 622.69 998.33 632.37
00005882 00000050 746.00 89.48 410.85 685.11 845.45 366.58 1044.72 388.85 918.20 490.94 847.26 609.07 999.63 628.15
00005883 00000051 758.48 92.09 407.47 685.28 851.39 370.62 1052.97 393.87 917.55 498.50 852.40 613.42 1006.55 632.94
00005884 00000052 757.39 101.89 412.61 683.22 859.60 379.52 1057.79 399.21 934.72 503.68 859.24 618.13 1010.42 634.86
00005885 00000053 759.84 111.26 419.45 680.29 869.47 381.31 1066.00 411.10 942.19 516.80 863.80 621.51 1014.71 646.59
00005886 00000054 763.91 124.02 423.14 673.78 873.49 391.90 1073.73 419.79 948.94 521.19 865.94 633.84 1018.10 657.62
00005887 00000055 771.35 126.21 415.17 681.27 876.63 394.87 1081.03 427.78 951.90 529.26 868.12 643.65 1024.25 670.68
00005888 00000056 780.72 131.02 413.07 687.02 880.89 403.02 1083.88 434.93 956.01 538.83 875.16 652.93 1029.57 679.62
00005889 00000057 783.15 133.06 414.92 693.36 883.43 410.61 1088.37 440.48 960.56 549.88 877.81 662.39 1032.67 687.37
00005890 00000058 787.75 138.01 408.24 698.15 885.26 414.08 1086.95 442.01 958.44 554.93 882.94 670.00 1033.58 693.41
00005891 00000059 786.30 141.24 410.81 697.44 885.66 416.53 1086.94 444.08 959.25 555.65 884.96 672.55 1033.09 695.62
00005892 00000060 782.43 136.00 408.07 709.68 883.22 417.69 1088.13 444.14 961.59 554.28 882.77 672.78 1038.84 694.57
00005893 00000061 773.88 135.26 412.30 708.86 878.43 416.53 1085.15 443.63 962.92 552.96 877.56 668.77 1039.32 690.95
00005894 00000062 768.23 133.63 412.96 708.85 875.28 413.99 1080.24 442.71 956.68 551.92 872.12 665.17 1033.11 688.38
00005895 00000063 768.43 133.00 410.66 702.72 873.53 414.05 1078.95 443.24 954.94 548.78 867.61 662.87 1025.98 687.11
00005896 00000064 767.55 134.27 408.78 700.46 873.34 413.45 1078.79 444.58 952.81 547.05 864.84 659.70 1024.18 685.48
00005897 00000065 768.16 134.56 410.55 698.84 872.46 413.23 1079.03 443.58 952.27 544.74 864.28 660.48 1023.88 686.01
00005898 00000066 767.25 136.36 409.63 698.31 871.15 412.30 1078.17 438.68 954.01 542.68 866.95 662.76 1026.60 685.02
00005899 00000067 768.61 136.09 409.64 694.58 873.42 409.66 1080.27 436.05 957.61 541.50 868.18 661.34 1028.89 683.42
00005900 00000068 769.80 135.12 408.64 690.97 873.62 407.51 1079.65 429.98 959.46 538.38 873.42 659.84 1033.82 678.36
00005901 00000069 766.09 131.45 413.13 683.43 871.84 405.40 1081.62 429.23 962.96 534.22 871.88 651.92 1036.27 671.67
00005902 00000070 765.68 126.61 414.45 687.02 872.16 400.71 1080.21 424.66 958.96 527.12 867.03 641.68 1037.34 660.99
00005903 00000071 762.91 126.75 411.91 687.62 871.60 396.53 1074.26 417.12 957.49 520.61 867.16 635.67 1036.24 652.26
00005904 00000072 758.28 126.89 412.62 689.64 868.40 392.43 1068.49 408.43 954.85 517.37 865.14 633.34 1034.12 646.02
00005905 00000073 757.97 124.35 412.83 703.31 867.25 391.12 1061.81 403.29 950.22 507.26 874.48 630.25 1023.61 639.46
00005906 00000074 760.08 121.50 406.71 703.18 863.97 384.85 1058.43 399.66 941.09 497.44 869.11 624.60 1019.75 636.35
00005907 00000075 752.39 120.46 409.68 700.81 859.45 383.99 1054.59 398.54 941.55 495.34 867.18 625.65 1018.82 637.45
00005908 00000076 750.71 113.28 408.07 692.27 858.26 384.46 1049.55 397.45 940.07 502.50 859.99 628.56 1013.79 639.74
00005909 00000077 748.57 112.58 408.70 688.83 855.27 381.21 1047.22 393.32 938.84 502.33 858.61 627.96 1007.82 638.85
00005910 00000078 749.10 110.60 404.93 675.43 852.54 377.94 1041.67 390.75 934.53 498.70 856.72 620.60 1000.03 631.86
00005911 00000079 745.47 106.57 408.56 679.49 849.95 375.21 1041.23 390.35 931.36 499.23 850.56 616.43 1000.27 629.41
00005912 00000080 747.26 109.79 407.72 670.74 847.71 378.16 1043.40 391.90 930.20 502.67 848.74 618.42 1001.53 630.29
00005913 00000081 749.86 114.33 409.39 669.21 850.80 382.10 1044.05 397.75 930.06 510.35 852.76 621.13 999.51 635.21
00005914 00000082 756.81 123.11 409.96 667.72 861.48 388.06 1052.70 411.69 935.94 520.83 856.75 625.06 1001.16 646.03
00005915 00000083 764.46 137.23 409.49 669.19 867.29 399.44 1064.97 428.36 944.17 533.24 859.17 641.03 1008.95 665.73
00005916 00000084 776.01 146.42 412.61 675.95 877.68 411.16 1069.77 448.85 940.85 549.95 861.09 653.00 1002.99 685.40
00005917 00000085 780.82 149.77 411.33 706.74 883.82 422.73 1073.32 460.89 947.98 562.57 873.28 676.54 1010.21 709.02
00005918 00000086 786.02 163.64 404.49 709.82 891.87 438.56 1075.91 468.72 957.14 576.77 882.97 692.51 1017.92 716.32
00005919 00000087 785.50 167.53 411.53 713.62 896.74 445.21 1082.54 478.68 962.10 581.58 881.56 694.50 1030.77 720.97
00005920 00000088 772.38 170.65 429.47 708.11 894.21 445.65 1086.24 480.14 966.67 587.66 880.36 692.75 1036.28 720.28
00005921 00000089 769.65 163.18 428.55 710.98 890.29 443.49 1085.77 478.18 965.46 587.22 877.89 691.24 1034.32 718.65
00005922 00000090 767.72 161.18 418.31 706.90 883.09 439.95 1081.21 471.36 962.13 583.11 874.08 687.93 1030.93 712.83
00005923 00000091 769.52 152.14 414.37 707.98 874.34 428.62 1079.51 464.07 954.76 575.30 864.60 681.03 1025.92 710.40
00005924 00000092 764.22 148.26 414.17 704.28 869.00 422.13 1075.53 454.03 952.50 563.63 859.41 673.14 1022.04 699.74
00005925 00000093 765.53 141.37 404.38 699.86 870.94 412.96 1071.73 443.12 954.03 552.75 860.98 659.45 1020.38 684.73
00005926 00000094 762.69 133.33 403.28 689.09 867.50 403.55 1070.63 429.18 952.51 535.78 858.23 646.80 1021.84 667.94
00005927 00000095 762.11 135.29 406.98 668.28 868.58 391.75 1064.36 414.66 948.67 517.22 854.96 625.67 1022.31 644.47
00005928 00000096 762.67 114.79 402.67 675.34 867.24 379.36 1064.56 398.39 951.10 498.85 856.91 609.48 1030.26 624.56
00005929 DELETE   763.71 105.53 395.91 664.00 867.29 363.74 1068.90 377.52 960.47 473.94 864.68 597.93 1040.78 608.11
00005930 00000098 765.00 88.24 394.11 649.64 856.98 337.34 1063.88 348.79 950.72 449.15 868.20 584.63 1031.43 594.58
00005931 00000099 755.78 99.17 405.63 654.75 860.42 333.30 1064.87 337.29 960.69 433.88 878.03 580.85 1035.31 583.38
00005932 00000100 747.46 104.09 409.84 640.68 861.53 321.40 1058.24 326.28 961.58 417.29 884.14 569.80 1025.80 573.55
00005933 00000101 747.83 86.01 404.60 649.92 856.49 314.92 1051.96 315.76 956.52 411.35 882.04 566.00 1031.49 567.27
00005934 00000102 744.05 85.21 403.93 635.53 852.24 310.27 1045.44 309.95 955.33 403.49 881.28 557.03 1027.35 557.38
00005935 00000103 736.37 87.68 408.23 626.48 846.30 311.39 1040.41 307.64 954.47 401.07 879.33 552.42 1030.80 549.74
00005936 00000104 725.41 90.81 409.55 624.54 839.87 323.90 1035.78 307.53 949.68 405.76 872.97 559.95 1020.99 544.99
00005937 00000105 726.14 100.09 404.60 613.81 837.97 322.70 1032.94 307.78 943.81 401.97 868.84 559.85 1013.49 546.69
00005938 00000106 728.50 99.93 404.90 612.26 833.23 319.80 1029.92 304.58 930.42 405.66 860.46 553.27 1010.29 539.54
00005939 00000107 731.91 85.74 398.45 622.56 826.67 310.99 1030.14 308.81 919.13 407.16 844.41 542.99 1014.97 540.64
00005940 00000108 732.16 80.55 392.75 634.07 823.48 309.88 1027.09 308.65 914.45 413.24 838.88 542.85 1014.02 541.38
00005941 00000109 730.37 85.60 393.84 628.39 824.19 310.40 1026.33 312.03 913.97 415.94 836.57 541.64 1010.54 542.40
00005942 00000110 730.16 86.11 395.00 625.80 825.30 316.09 1023.87 317.99 914.12 417.83 839.41 542.51 1008.13 543.86
00005943 00000111 726.85 82.96 398.37 653.14 826.25 318.17 1018.16 315.64 913.87 420.64 843.68 559.91 1000.30 557.59
00005944 00000112 719.25 102.49 403.08 649.75 824.40 325.79 1018.93 313.58 916.89 418.47 844.13 570.27 999.21 559.68
00005945 00000113 720.91 100.86 402.04 656.97 824.33 328.51 1023.86 315.83 919.87 420.09 845.46 576.93 1004.27 565.79
CROP_BBOX: 323 0 1464 1044
