Video ID: 	LPhDoeWwcls
H: 	1080
W: 	1920
FPS: 	29.857

FRAME INDEX X0 Y0 W H [Landmarks (5 Points)]

00000944 00000000 1125.41 160.66 456.23 680.65 1258.75 420.88 1472.47 413.86 1381.28 561.94 1286.67 669.81 1463.17 662.44
00000945 00000001 1130.20 155.60 456.15 685.40 1259.72 413.87 1482.96 413.92 1386.72 558.90 1276.17 658.59 1469.97 659.55
00000946 00000002 1129.95 150.00 460.36 690.74 1260.41 411.04 1484.00 411.03 1386.96 558.09 1275.35 654.24 1474.59 654.80
00000947 00000003 1131.02 148.01 462.23 691.64 1260.54 408.15 1484.66 409.91 1385.52 557.63 1273.77 651.00 1474.65 652.93
00000948 00000004 1130.50 150.06 463.83 692.15 1260.96 406.82 1486.72 409.58 1385.87 558.27 1273.85 651.43 1473.79 654.45
00000949 00000005 1129.79 155.17 465.97 688.79 1262.98 406.06 1489.47 410.01 1387.00 558.64 1274.55 653.32 1471.84 657.53
00000950 00000006 1131.57 152.35 465.15 693.83 1264.59 404.94 1490.90 411.16 1388.62 558.81 1276.77 657.52 1468.17 663.85
00000951 00000007 1133.87 153.91 466.84 696.19 1267.37 405.03 1493.56 414.87 1388.97 559.64 1276.30 660.11 1464.11 669.58
00000952 00000008 1135.71 149.01 465.94 703.46 1268.94 402.48 1495.88 415.46 1389.72 561.20 1275.88 662.03 1461.45 674.35
00000953 00000009 1137.96 148.41 467.95 706.97 1270.34 401.89 1498.24 417.18 1388.65 562.22 1273.67 663.75 1459.68 677.95
00000954 00000010 1139.07 151.97 468.47 699.72 1271.20 401.83 1498.61 417.57 1387.84 561.30 1274.63 662.90 1457.22 677.56
00000955 00000011 1142.78 149.31 466.13 697.36 1273.93 401.95 1501.19 419.03 1390.50 562.33 1276.96 662.40 1458.16 678.23
00000956 00000012 1140.99 146.91 466.63 700.83 1272.53 400.03 1499.93 418.83 1388.93 563.18 1274.69 662.28 1456.49 679.48
00000957 00000013 1138.51 146.62 466.85 701.29 1272.30 398.87 1498.81 418.90 1388.22 563.25 1271.98 659.38 1456.19 677.51
00000958 00000014 1135.66 148.34 469.36 698.08 1270.90 398.20 1498.39 418.86 1386.60 562.43 1269.45 656.90 1455.62 675.48
00000959 00000015 1133.26 149.18 470.29 696.16 1270.71 397.86 1497.81 419.91 1386.11 561.06 1266.16 652.63 1455.65 672.20
00000960 00000016 1131.82 149.06 469.79 697.44 1269.44 397.49 1497.58 419.44 1384.00 561.30 1262.03 650.73 1456.84 670.06
00000961 00000017 1128.13 148.45 470.70 700.44 1267.71 396.65 1494.63 419.57 1382.03 560.73 1256.79 646.26 1459.26 665.86
00000962 00000018 1126.13 152.58 470.13 696.78 1266.37 395.08 1491.39 418.96 1379.90 559.64 1254.86 642.95 1459.67 663.14
00000963 DELETE   1128.61 155.57 469.45 693.70 1267.73 398.61 1492.64 422.59 1378.07 558.70 1255.26 640.47 1456.52 658.01
00000964 00000020 1120.54 145.55 473.83 701.90 1260.23 388.42 1486.53 414.01 1375.45 552.74 1245.16 634.75 1458.35 655.88
00000965 00000021 1123.64 155.24 464.64 684.48 1259.45 388.57 1480.68 415.36 1367.57 542.63 1243.86 619.70 1449.98 639.86
00000966 00000022 1122.27 156.84 457.44 677.25 1252.57 379.82 1471.79 403.73 1359.53 531.35 1237.86 609.96 1446.31 627.99
00000967 00000023 1120.61 152.11 452.59 674.69 1248.47 375.23 1464.49 398.79 1355.00 528.17 1233.36 603.79 1438.78 622.17
00000968 00000024 1116.42 154.88 447.70 665.61 1242.89 371.72 1457.69 394.65 1349.32 522.01 1228.83 599.76 1430.49 618.20
00000969 00000025 1108.69 148.63 446.30 670.89 1235.02 366.04 1449.87 385.88 1341.21 515.75 1225.42 602.07 1420.84 617.98
00000970 00000026 1104.34 145.83 441.26 659.21 1229.39 363.24 1444.95 383.68 1334.82 512.26 1226.45 605.31 1408.22 621.45
00000971 00000027 1097.78 155.48 434.42 647.13 1224.53 362.70 1436.15 382.90 1329.75 511.53 1223.67 608.19 1396.60 624.42
00000972 00000028 1093.22 153.35 430.73 643.35 1219.61 362.72 1428.01 383.88 1323.58 511.65 1219.37 606.72 1388.21 623.69
00000973 00000029 1083.00 148.86 443.29 652.27 1214.87 364.79 1423.73 386.16 1315.79 510.87 1210.21 606.32 1385.86 622.69
00000974 00000030 1080.92 152.09 437.52 646.55 1208.12 372.85 1416.26 391.95 1309.76 515.53 1205.97 610.67 1378.59 625.58
00000975 00000031 1078.39 151.42 434.46 646.46 1204.44 375.67 1411.70 395.27 1306.21 517.88 1203.62 613.36 1371.89 628.94
00000976 00000032 1077.63 152.49 431.69 642.35 1202.88 374.77 1408.00 395.20 1302.86 515.98 1202.54 613.38 1364.98 629.53
00000977 00000033 1075.97 157.02 429.39 633.69 1200.83 370.26 1405.02 392.87 1298.79 506.85 1200.00 610.33 1357.16 628.43
00000978 00000034 1074.74 159.83 429.62 624.53 1197.53 362.70 1402.24 390.15 1291.38 496.48 1194.05 603.74 1348.13 626.30
00000979 00000035 1073.44 158.45 430.03 616.66 1195.90 353.32 1401.32 382.42 1289.52 487.57 1189.86 593.16 1347.99 617.23
00000980 00000036 1072.88 161.99 430.61 611.31 1200.17 343.95 1405.33 380.61 1291.73 484.71 1182.98 579.90 1350.75 610.60
00000981 00000037 1070.80 140.21 428.15 634.59 1195.89 339.20 1403.00 371.89 1286.98 474.44 1169.47 575.89 1353.50 602.28
00000982 00000038 1070.18 155.48 433.72 627.91 1200.51 337.87 1412.56 377.22 1298.90 467.89 1173.10 566.50 1367.86 599.81
00000983 00000039 1071.67 156.62 431.38 633.94 1198.48 336.39 1410.15 376.35 1293.72 464.59 1167.78 567.55 1368.43 601.34
00000984 00000040 1071.98 156.81 429.04 638.45 1191.14 331.03 1404.83 372.03 1283.78 461.61 1160.28 567.62 1364.10 602.28
00000985 00000041 1070.73 156.89 424.33 633.10 1182.98 327.96 1397.40 371.56 1272.38 460.62 1151.61 563.09 1356.45 599.98
00000986 00000042 1068.47 148.19 423.80 634.30 1177.10 328.89 1384.92 365.34 1250.45 461.61 1141.72 563.34 1343.94 592.23
00000987 00000043 1069.50 145.83 425.16 632.88 1179.89 329.30 1387.07 367.02 1252.62 464.42 1144.50 562.09 1341.49 592.11
00000988 00000044 1068.49 154.29 434.75 625.83 1187.54 332.71 1400.25 374.23 1277.15 466.79 1162.47 565.85 1353.81 600.89
00000989 00000045 1070.83 154.60 437.66 625.05 1196.43 337.09 1406.42 374.26 1287.84 476.43 1180.47 578.08 1354.38 608.53
00000990 00000046 1073.00 149.86 444.93 633.08 1205.08 341.70 1414.03 378.86 1299.00 478.38 1191.56 584.84 1358.37 614.89
00000991 00000047 1073.54 144.64 446.37 644.07 1208.99 344.02 1420.20 380.10 1306.80 481.26 1195.71 590.19 1364.31 619.47
00000992 00000048 1076.17 153.66 443.17 636.54 1212.74 346.59 1421.65 381.81 1310.58 484.67 1197.06 591.69 1365.62 620.52
00000993 00000049 1078.47 166.07 443.17 633.68 1213.78 348.68 1422.43 385.15 1308.93 489.59 1195.08 597.40 1364.49 627.11
00000994 00000050 1078.92 163.14 445.44 643.16 1218.00 350.28 1422.54 388.98 1308.54 494.33 1198.98 599.86 1360.40 631.02
00000995 00000051 1078.00 156.85 445.65 652.63 1218.38 350.57 1422.09 390.74 1306.89 494.73 1198.39 602.44 1357.48 634.67
00000996 00000052 1077.97 158.66 445.59 650.98 1216.45 350.59 1421.89 389.93 1306.13 494.10 1198.02 603.26 1358.61 634.67
00000997 00000053 1078.47 158.50 443.80 645.69 1214.22 352.40 1422.25 393.57 1306.68 494.00 1194.59 601.00 1360.19 634.42
00000998 00000054 1078.29 159.15 446.07 644.55 1212.05 354.76 1421.13 396.25 1305.43 496.12 1192.79 600.29 1362.38 634.08
00000999 00000055 1078.39 157.62 449.84 651.37 1215.82 356.63 1421.00 400.26 1304.09 501.72 1194.20 602.45 1356.90 637.87
00001000 00000056 1079.07 155.73 448.17 654.66 1212.50 360.76 1420.11 400.86 1301.32 507.07 1193.72 608.26 1357.25 640.94
00001001 00000057 1077.18 157.65 449.08 652.11 1208.55 364.88 1416.38 404.28 1297.58 513.10 1191.18 610.05 1354.99 642.10
00001002 00000058 1075.43 159.49 449.07 649.34 1204.62 369.08 1415.57 407.14 1296.24 518.25 1188.51 613.19 1354.57 644.15
00001003 00000059 1075.17 162.61 452.80 652.22 1204.33 370.57 1415.83 405.27 1295.57 522.25 1190.39 621.20 1353.23 649.05
00001004 00000060 1076.56 165.05 450.34 651.27 1205.18 378.21 1414.19 411.19 1294.38 522.53 1192.27 630.03 1347.86 656.45
00001005 00000061 1075.78 167.29 454.25 653.65 1205.66 376.18 1413.62 409.17 1290.94 523.95 1191.87 633.38 1343.67 659.20
00001006 00000062 1074.37 165.18 453.32 659.44 1203.07 378.21 1411.50 411.26 1288.97 524.76 1188.83 636.63 1341.38 662.30
00001007 00000063 1069.56 166.09 453.14 665.46 1199.47 382.61 1410.49 416.74 1287.05 530.12 1183.92 640.88 1342.31 667.20
00001008 00000064 1065.43 167.18 454.32 666.41 1195.53 384.60 1409.47 421.15 1284.61 531.55 1176.80 639.58 1341.69 668.01
00001009 00000065 1063.13 157.70 456.01 672.93 1192.65 382.98 1408.82 420.92 1282.41 531.63 1175.61 638.77 1339.77 668.59
00001010 00000066 1059.31 157.72 461.58 672.44 1187.92 379.35 1407.51 416.74 1280.38 529.17 1175.86 637.98 1339.78 667.33
00001011 00000067 1057.58 154.60 462.40 676.92 1186.10 374.80 1405.66 411.97 1278.13 527.56 1175.30 637.27 1337.59 666.37
00001012 00000068 1055.06 144.14 465.62 692.29 1185.08 369.36 1405.13 409.20 1276.31 525.69 1173.20 638.56 1334.41 669.84
00001013 00000069 1053.53 145.56 466.09 694.52 1183.14 367.56 1403.80 408.39 1272.32 527.84 1168.77 640.95 1330.20 673.21
00001014 00000070 1051.13 141.18 467.84 699.31 1181.65 366.32 1402.58 409.06 1270.67 529.24 1166.75 639.99 1327.84 673.90
00001015 00000071 1049.29 138.59 472.71 700.27 1182.42 363.73 1404.37 408.36 1271.18 527.63 1166.60 636.84 1328.97 672.20
00001016 00000072 1048.88 131.99 479.83 707.77 1184.25 360.64 1406.06 407.11 1273.92 523.75 1167.90 634.18 1331.90 671.10
00001017 00000073 1048.26 131.07 476.20 706.65 1180.77 354.89 1402.19 397.41 1273.39 523.66 1161.35 628.53 1333.00 665.69
00001018 00000074 1048.36 127.51 480.14 707.24 1178.74 351.99 1403.61 395.59 1270.76 523.22 1158.85 627.11 1337.31 665.23
00001019 00000075 1049.30 121.64 481.64 707.82 1180.46 350.52 1406.22 394.90 1270.74 523.00 1159.38 623.95 1339.99 662.72
00001020 00000076 1052.30 119.50 481.92 713.38 1185.64 350.08 1411.13 394.25 1277.05 526.89 1164.53 626.76 1344.29 665.22
00001021 00000077 1056.91 119.34 480.48 714.67 1192.98 352.22 1415.57 395.59 1286.98 531.76 1173.70 630.36 1348.03 667.90
00001022 00000078 1059.01 128.72 482.75 706.15 1197.53 359.09 1421.30 405.71 1292.39 537.11 1174.09 631.19 1349.59 671.36
00001023 00000079 1066.17 134.49 484.52 702.59 1204.70 364.39 1429.85 409.79 1295.60 542.85 1184.64 631.13 1350.45 669.98
00001024 00000080 1070.81 137.80 477.21 697.90 1207.67 367.72 1433.67 412.98 1300.46 545.71 1185.94 629.01 1356.94 667.71
00001025 00000081 1074.17 137.92 474.50 698.95 1211.31 367.45 1438.29 416.00 1303.63 548.79 1182.53 625.52 1364.34 666.64
00001026 00000082 1077.45 142.71 472.09 700.59 1213.96 370.27 1439.23 420.26 1305.06 551.29 1181.02 626.45 1369.56 668.48
00001027 00000083 1078.23 150.70 469.25 696.94 1215.40 378.77 1438.23 427.95 1307.35 555.65 1180.13 627.82 1373.80 668.70
00001028 00000084 1079.72 153.78 466.62 697.31 1217.56 384.99 1437.60 433.93 1308.20 556.20 1180.34 625.96 1379.26 666.36
00001029 00000085 1082.93 157.41 462.30 690.07 1219.66 382.89 1439.20 430.47 1310.61 551.82 1183.04 623.76 1380.20 663.19
00001030 00000086 1082.71 162.06 463.96 682.59 1219.46 376.60 1439.19 421.47 1312.32 545.59 1184.94 618.24 1382.10 655.33
00001031 00000087 1082.02 152.70 461.68 682.97 1220.86 369.66 1437.76 414.04 1313.78 537.61 1189.09 610.30 1380.54 647.19
00001032 00000088 1081.30 144.52 461.52 678.03 1219.36 363.15 1437.27 406.43 1314.19 531.58 1193.67 608.14 1376.98 644.35
00001033 00000089 1076.21 131.47 464.05 679.64 1215.48 360.47 1431.80 399.11 1308.95 526.08 1187.46 608.39 1374.96 641.42
00001034 00000090 1084.04 130.93 459.90 685.14 1221.93 353.59 1439.69 393.93 1318.27 520.42 1200.69 605.31 1373.85 639.64
00001035 00000091 1077.91 131.04 459.50 682.40 1219.52 353.86 1433.21 396.01 1311.73 517.03 1192.22 609.13 1366.26 645.21
00001036 00000092 1079.94 134.27 461.27 689.92 1222.69 352.04 1438.49 393.79 1320.59 512.08 1207.92 616.76 1364.53 652.86
00001037 00000093 1078.41 130.91 464.72 694.06 1222.03 353.18 1437.75 392.89 1318.75 516.33 1209.07 621.03 1360.59 655.75
00001038 00000094 1075.50 134.88 466.72 691.66 1218.99 354.70 1433.78 391.07 1316.11 523.34 1208.15 624.62 1356.65 656.75
00001039 00000095 1074.57 137.94 467.40 693.12 1216.05 356.19 1432.01 390.22 1313.81 527.41 1207.90 630.34 1355.72 660.58
00001040 00000096 1064.10 133.85 470.88 699.00 1208.73 359.69 1424.80 397.78 1307.72 530.39 1189.87 629.25 1353.70 662.59
00001041 00000097 1062.55 132.95 473.00 701.28 1205.74 362.09 1424.43 402.85 1305.79 533.25 1183.55 629.35 1354.15 664.65
00001042 00000098 1062.10 137.27 471.98 694.57 1205.25 364.43 1424.32 404.15 1305.60 533.44 1182.86 628.60 1356.36 663.06
00001043 00000099 1062.70 139.27 471.25 692.70 1204.96 365.20 1424.03 403.86 1304.62 532.50 1183.59 628.31 1357.02 661.89
00001044 00000100 1064.51 137.53 469.19 692.67 1206.95 369.97 1421.56 406.86 1304.60 530.32 1186.30 628.06 1358.49 660.27
CROP_BBOX: 892 0 1920 1009
