Video ID: 	-RzEN87nxgE
H: 	2160
W: 	3840
FPS: 	29.97002997002997

FRAME INDEX X0 Y0 W H [Landmarks (5 Points)]

00052464 00000000 1730.52 417.73 760.26 1148.41 1808.44 864.84 2068.55 886.02 1795.09 1081.77 1827.39 1296.05 2027.68 1313.07
00052465 00000001 1731.94 423.71 767.10 1138.68 1808.75 869.06 2071.00 889.03 1793.57 1085.81 1828.31 1297.57 2027.47 1313.32
00052466 00000002 1742.74 436.42 764.70 1132.88 1810.74 881.69 2098.29 906.28 1809.30 1090.63 1849.64 1312.89 2055.54 1328.61
00052467 00000003 1750.75 433.34 771.56 1142.00 1815.54 892.54 2100.64 905.30 1832.06 1113.26 1853.47 1312.75 2074.48 1324.38
00052468 DELETE   1763.06 465.36 764.74 1101.61 1827.84 897.54 2109.43 925.52 1837.25 1127.19 1850.41 1312.95 2080.59 1335.57
00052469 DELETE   1767.49 461.95 779.43 1123.11 1837.76 909.07 2130.86 925.89 1865.24 1135.83 1869.86 1319.90 2104.54 1334.36
00052470 00000006 1770.04 469.18 779.16 1117.59 1840.16 910.69 2142.19 935.96 1868.77 1145.89 1868.18 1318.54 2119.91 1339.02
00052471 DELETE   1776.53 478.56 777.64 1107.23 1842.13 911.04 2152.44 940.67 1871.21 1149.07 1865.56 1321.95 2124.98 1345.44
00052472 DELETE   1779.71 482.72 778.11 1108.67 1848.43 914.88 2159.63 948.86 1875.55 1153.79 1868.63 1323.18 2134.60 1349.75
00052473 00000009 1786.38 490.61 773.41 1109.53 1854.40 911.62 2166.26 953.45 1875.02 1162.07 1878.65 1327.06 2145.19 1358.91
00052474 00000010 1792.31 491.60 769.14 1117.20 1861.74 913.59 2169.73 957.31 1879.54 1169.31 1889.41 1336.77 2149.63 1369.94
00052475 00000011 1791.43 498.92 775.06 1109.43 1863.78 913.34 2176.50 960.01 1888.16 1170.08 1889.68 1333.67 2155.11 1368.81
00052476 00000012 1790.59 495.53 780.67 1105.65 1861.82 908.68 2182.32 955.73 1892.97 1169.25 1886.65 1329.54 2157.68 1365.28
00052477 DELETE   1796.63 494.72 773.73 1103.30 1862.72 897.59 2194.16 958.23 1893.30 1158.63 1888.10 1318.52 2150.38 1370.85
00052478 00000014 1798.45 495.62 775.70 1098.45 1869.82 886.84 2208.31 947.31 1906.39 1144.14 1887.70 1312.35 2154.06 1365.10
00052479 00000015 1800.52 477.08 783.19 1114.05 1878.69 878.75 2218.14 935.90 1907.86 1126.54 1889.46 1310.68 2154.11 1360.56
00052480 00000016 1806.75 468.70 791.11 1120.15 1898.04 870.30 2224.95 923.26 1916.18 1110.69 1905.63 1302.82 2154.99 1348.75
00052481 00000017 1815.04 447.13 791.36 1136.90 1919.86 863.38 2220.85 907.00 1944.86 1097.01 1919.82 1282.82 2168.38 1316.91
00052482 DELETE   1817.62 434.07 805.72 1143.16 1930.94 851.97 2241.91 901.78 1956.23 1088.99 1922.44 1271.30 2185.53 1310.62
00052483 00000019 1821.64 422.69 813.65 1146.28 1943.37 839.26 2263.59 892.96 1974.92 1080.66 1930.71 1260.18 2204.23 1302.34
00052484 00000020 1826.43 426.13 819.74 1141.24 1953.82 839.87 2278.42 888.29 1991.13 1076.17 1941.18 1259.37 2217.70 1297.55
00052485 00000021 1833.94 422.94 820.85 1142.16 1962.88 836.94 2294.57 887.45 2002.29 1073.48 1945.89 1253.04 2230.03 1293.02
00052486 00000022 1848.53 420.03 812.03 1140.25 1970.87 837.71 2308.86 891.03 2014.55 1073.40 1950.10 1250.91 2238.28 1293.40
00052487 00000023 1857.29 422.32 806.87 1128.41 1978.18 837.50 2318.15 896.34 2024.39 1075.67 1951.76 1246.62 2241.68 1293.40
00052488 00000024 1877.53 428.85 791.77 1103.57 1995.62 820.50 2333.76 903.82 2034.90 1052.93 1963.94 1231.81 2236.27 1298.70
00052489 DELETE   1880.21 426.75 793.86 1097.32 2004.00 808.76 2342.73 904.84 2043.27 1050.55 1966.10 1220.28 2236.60 1296.88
00052490 00000026 1884.65 419.80 796.18 1095.76 2012.36 799.01 2351.74 901.93 2053.16 1048.32 1970.25 1211.76 2241.50 1293.75
00052491 DELETE   1884.25 408.81 805.66 1098.21 2020.63 807.95 2357.99 915.23 2055.77 1045.20 1967.49 1198.33 2247.05 1284.03
00052492 00000028 1887.62 394.46 809.88 1106.52 2029.65 818.34 2367.32 924.21 2064.44 1038.67 1974.59 1190.11 2258.08 1274.85
00052493 00000029 1889.32 394.28 817.18 1108.02 2036.72 816.42 2382.29 926.84 2075.60 1034.95 1976.82 1185.10 2266.98 1273.59
00052494 00000030 1892.13 388.69 823.78 1113.90 2043.57 810.43 2390.13 920.52 2081.72 1030.03 1982.21 1181.14 2276.79 1269.42
00052495 00000031 1898.48 385.83 824.62 1116.20 2056.08 794.05 2402.99 914.21 2092.90 1033.94 1989.04 1173.42 2288.35 1269.85
00052496 00000032 1907.43 383.84 825.61 1113.16 2068.31 781.49 2416.11 904.06 2104.06 1037.30 1997.35 1169.39 2301.88 1268.74
00052497 00000033 1931.21 394.66 815.48 1102.32 2081.35 781.65 2425.83 904.38 2122.78 1026.05 2017.32 1163.97 2317.85 1266.22
00052498 00000034 1937.49 393.68 816.06 1103.79 2089.84 780.95 2437.19 905.83 2132.36 1024.36 2020.35 1162.31 2325.38 1266.65
00052499 00000035 1939.37 390.25 818.33 1111.32 2095.60 782.47 2447.29 907.34 2139.01 1019.75 2021.13 1163.95 2328.51 1268.53
00052500 00000036 1942.40 392.64 817.31 1111.66 2099.78 780.93 2452.48 908.31 2141.62 1019.22 2023.12 1165.51 2331.04 1272.11
00052501 00000037 1946.99 394.06 819.36 1114.96 2106.64 779.04 2460.75 908.88 2148.16 1020.74 2028.74 1170.02 2333.56 1278.32
00052502 00000038 1950.01 394.72 820.90 1113.74 2111.89 777.68 2466.42 909.22 2155.11 1021.47 2032.96 1171.95 2333.35 1281.77
00052503 00000039 1952.60 395.19 821.84 1113.38 2116.27 776.21 2472.19 908.84 2159.79 1020.29 2035.86 1172.89 2334.99 1283.75
00052504 00000040 1956.03 400.36 821.90 1108.49 2122.87 777.62 2477.53 911.18 2166.92 1021.35 2042.38 1174.04 2339.38 1285.60
00052505 00000041 1960.00 399.90 819.53 1108.30 2129.72 780.88 2485.06 913.13 2178.44 1025.87 2051.58 1177.92 2345.89 1288.17
00052506 00000042 1963.52 410.16 819.03 1098.49 2135.87 783.64 2490.58 920.25 2187.21 1032.81 2058.47 1176.52 2352.76 1289.75
00052507 00000043 1970.64 419.36 817.56 1088.23 2140.11 785.98 2495.37 922.82 2193.13 1037.94 2063.77 1177.74 2360.44 1290.33
00052508 00000044 1974.91 422.23 817.67 1085.18 2145.82 783.74 2502.59 924.80 2201.25 1044.05 2068.26 1176.90 2366.63 1292.28
00052509 00000045 1980.01 420.03 820.68 1087.75 2153.82 786.36 2509.47 930.07 2208.97 1046.55 2073.13 1173.80 2371.17 1291.18
00052510 00000046 1982.00 424.33 823.24 1085.29 2160.52 792.45 2516.73 939.37 2218.93 1047.34 2075.40 1172.26 2377.84 1292.33
00052511 00000047 1986.71 430.22 823.78 1078.65 2166.40 795.97 2524.02 939.70 2230.10 1050.42 2081.88 1176.51 2385.26 1293.60
00052512 00000048 1997.11 419.28 812.34 1071.60 2163.33 807.54 2516.60 936.66 2219.88 1057.04 2068.14 1184.63 2378.47 1286.93
00052513 00000049 2001.70 416.34 811.58 1073.05 2168.62 807.78 2521.50 935.92 2226.87 1058.75 2073.87 1186.73 2381.09 1287.97
00052514 00000050 2004.13 414.50 812.30 1074.64 2172.62 807.54 2524.43 935.52 2230.78 1059.39 2076.90 1186.72 2384.04 1288.17
00052515 00000051 2005.09 415.73 810.04 1072.64 2173.59 807.02 2525.60 935.20 2232.41 1059.17 2076.40 1185.83 2383.68 1287.43
00052516 00000052 2007.49 414.51 809.20 1073.39 2173.86 808.85 2525.21 934.73 2232.29 1060.32 2077.93 1187.66 2383.98 1287.38
00052517 00000053 2007.56 411.42 809.75 1076.22 2172.85 813.10 2524.78 940.56 2232.46 1061.49 2078.60 1188.03 2384.13 1288.47
00052518 00000054 1993.84 430.64 825.36 1078.94 2179.51 811.38 2527.16 956.61 2242.10 1051.73 2096.33 1178.17 2387.73 1295.90
00052519 00000055 2001.55 417.19 816.50 1072.95 2167.69 831.52 2523.96 958.02 2235.37 1052.69 2077.60 1191.95 2385.44 1290.80
00052520 00000056 2001.36 415.49 817.82 1076.55 2167.69 831.29 2526.04 957.13 2237.21 1052.48 2078.25 1194.42 2384.83 1292.84
00052521 00000057 1991.73 432.00 828.20 1079.69 2177.29 818.61 2527.03 961.18 2243.20 1051.17 2095.98 1182.56 2385.27 1298.00
00052522 00000058 1994.56 429.04 824.55 1083.94 2177.11 806.54 2524.71 953.99 2233.42 1050.76 2093.21 1181.24 2379.82 1300.70
00052523 00000059 1995.61 426.51 824.66 1086.53 2178.63 802.95 2527.92 948.26 2237.25 1050.40 2094.29 1183.15 2381.26 1301.26
00052524 00000060 2008.13 413.35 812.05 1081.23 2172.94 814.62 2523.85 940.14 2230.25 1061.61 2077.35 1193.41 2376.21 1292.21
00052525 00000061 2009.30 411.41 810.32 1082.88 2174.12 811.51 2524.77 935.37 2231.64 1060.08 2078.86 1192.96 2377.04 1290.89
00052526 00000062 2008.70 413.28 813.39 1079.80 2174.49 807.89 2526.69 933.10 2233.75 1055.14 2077.94 1190.58 2378.43 1289.77
00052527 00000063 2008.88 411.71 816.48 1080.36 2173.08 806.01 2526.56 930.55 2232.68 1052.04 2077.15 1188.48 2377.92 1287.35
00052528 00000064 2008.75 411.59 815.24 1079.36 2173.83 803.97 2527.70 929.26 2235.28 1049.93 2076.85 1186.36 2379.60 1286.09
00052529 00000065 2009.44 411.04 815.00 1079.28 2174.31 803.01 2528.97 928.93 2236.14 1048.26 2077.47 1186.05 2380.21 1286.26
00052530 00000066 2009.48 408.18 815.71 1081.00 2172.39 801.22 2529.09 927.11 2235.31 1045.85 2076.45 1186.11 2380.67 1286.21
00052531 00000067 2009.12 406.18 815.80 1082.61 2171.15 801.15 2528.51 925.89 2235.76 1044.93 2076.72 1186.18 2381.03 1285.46
00052532 00000068 2009.84 405.40 815.06 1082.55 2171.25 800.39 2528.27 925.51 2234.64 1045.54 2076.30 1185.57 2380.38 1285.19
00052533 00000069 2010.40 405.36 813.70 1082.71 2171.26 800.25 2527.95 925.38 2234.39 1045.61 2076.30 1185.25 2380.13 1284.99
00052534 00000070 2011.26 404.31 812.97 1083.74 2172.31 798.62 2527.35 924.62 2233.15 1044.97 2076.74 1183.90 2379.78 1284.44
00052535 00000071 2011.80 403.67 812.77 1084.30 2171.74 799.12 2527.87 923.91 2233.39 1043.30 2076.73 1184.84 2380.07 1284.33
00052536 00000072 2011.18 402.86 812.30 1085.96 2171.39 798.83 2527.63 924.66 2233.01 1043.73 2076.33 1184.34 2380.25 1284.73
00052537 00000073 2010.55 404.02 813.00 1084.71 2171.75 798.56 2527.32 923.90 2233.26 1044.28 2075.52 1184.45 2377.84 1284.44
00052538 00000074 2008.77 400.70 813.32 1088.73 2169.90 798.76 2526.67 923.07 2233.28 1042.41 2075.03 1185.33 2377.65 1284.52
00052539 00000075 2006.90 399.64 813.13 1090.31 2168.66 798.81 2524.81 923.37 2231.54 1042.88 2072.40 1185.95 2373.59 1285.15
00052540 00000076 2003.90 402.63 813.74 1090.39 2166.44 800.08 2524.19 924.12 2229.38 1044.31 2070.79 1188.17 2372.80 1286.77
00052541 00000077 2002.14 402.67 811.81 1091.27 2163.20 800.94 2520.37 923.70 2226.47 1045.10 2070.19 1189.24 2370.49 1286.70
00052542 00000078 1998.73 404.33 811.93 1093.38 2160.42 806.51 2518.24 926.23 2224.29 1046.02 2070.57 1192.92 2370.18 1287.97
00052543 00000079 1995.25 406.66 811.45 1091.96 2157.78 806.79 2513.86 927.08 2219.11 1047.36 2067.17 1191.61 2365.40 1287.21
00052544 00000080 1982.27 412.89 822.88 1106.00 2161.61 793.77 2516.86 930.18 2222.67 1044.98 2082.26 1187.17 2370.55 1298.78
00052545 00000081 1980.34 411.31 817.49 1107.56 2155.97 798.63 2513.30 930.72 2218.99 1046.91 2081.28 1191.90 2369.92 1300.56
00052546 00000082 1976.57 411.72 818.38 1109.43 2150.05 802.43 2509.04 931.53 2216.28 1048.43 2078.73 1195.83 2367.58 1302.37
00052547 00000083 1974.30 417.13 817.40 1107.95 2145.68 806.78 2505.15 933.99 2212.76 1050.33 2074.77 1199.32 2366.08 1304.36
00052548 00000084 1972.03 423.07 815.86 1107.96 2141.52 809.76 2502.11 935.69 2209.90 1050.17 2071.00 1202.91 2361.71 1306.90
00052549 00000085 1970.14 429.53 812.77 1104.13 2138.17 811.05 2497.86 934.57 2207.36 1050.12 2069.40 1205.34 2359.46 1307.67
00052550 00000086 1966.35 428.68 811.57 1110.49 2132.38 809.33 2491.79 933.37 2199.85 1047.37 2062.45 1205.32 2353.64 1308.39
00052551 00000087 1958.85 425.31 814.66 1113.71 2122.41 808.68 2485.59 930.38 2191.94 1045.09 2053.31 1205.24 2349.73 1307.00
00052552 00000088 1952.39 416.94 816.29 1116.68 2112.68 811.89 2479.51 926.89 2184.70 1044.55 2049.70 1207.78 2347.74 1304.15
00052553 00000089 1947.43 413.90 814.09 1112.27 2103.67 819.24 2466.22 930.59 2172.78 1041.81 2040.17 1202.93 2339.04 1297.42
00052554 00000090 1944.43 404.83 803.65 1113.70 2085.97 827.32 2445.75 932.14 2150.61 1037.06 2023.82 1198.41 2329.20 1288.36
00052555 DELETE   1938.63 401.93 800.35 1107.64 2074.52 831.23 2430.96 921.62 2147.57 1033.95 2021.93 1201.06 2322.14 1280.05
00052556 00000092 1921.60 390.80 803.15 1108.24 2054.88 818.50 2403.22 910.56 2115.91 1023.49 2005.84 1192.23 2294.71 1272.24
00052557 00000093 1901.97 369.62 808.61 1115.98 2047.27 789.90 2391.29 882.16 2085.34 997.90 1988.93 1185.10 2265.23 1259.98
00052558 DELETE   1894.46 361.84 811.58 1102.41 2023.41 769.00 2357.85 839.05 2052.38 982.26 1968.97 1170.97 2240.52 1229.54
00052559 DELETE   1891.38 360.81 796.14 1093.15 2013.69 750.12 2334.44 823.34 2036.61 971.15 1952.26 1162.20 2207.23 1223.03
00052560 00000096 1887.36 353.45 796.06 1099.95 2006.78 747.08 2324.89 815.63 2027.81 953.52 1948.48 1156.86 2200.49 1213.74
00052561 00000097 1886.40 354.23 801.61 1099.52 2009.08 741.95 2330.97 804.42 2037.46 950.46 1956.62 1156.00 2208.61 1209.03
00052562 00000098 1886.04 356.58 809.54 1097.55 2015.52 740.93 2350.47 798.00 2055.24 954.63 1965.80 1159.33 2225.34 1209.09
00052563 00000099 1886.96 355.62 819.48 1092.32 2025.78 741.40 2365.34 798.07 2068.91 947.04 1976.68 1147.87 2243.80 1197.45
00052564 00000100 1892.32 350.46 814.48 1092.68 2031.78 741.03 2376.92 796.50 2082.74 943.46 1987.52 1142.19 2266.03 1190.94
00052565 00000101 1900.33 346.10 807.56 1093.17 2041.24 744.04 2389.03 798.92 2096.38 944.51 2001.78 1140.47 2283.79 1189.01
00052566 00000102 1903.84 344.74 807.82 1099.91 2049.75 747.93 2401.76 804.65 2105.54 949.12 2007.07 1145.08 2295.69 1194.79
00052567 00000103 1903.62 346.07 809.97 1101.18 2051.72 753.50 2404.46 812.18 2107.63 953.56 2008.01 1147.07 2301.63 1197.73
00052568 00000104 1905.09 344.59 805.47 1102.63 2048.24 759.64 2394.86 815.67 2102.58 953.07 2006.46 1148.55 2299.08 1196.95
00052569 00000105 1898.45 346.91 808.74 1103.54 2038.34 756.59 2382.80 810.05 2092.51 949.54 1997.80 1149.27 2287.34 1195.34
00052570 00000106 1892.88 348.34 813.38 1109.01 2031.05 754.29 2375.04 807.07 2083.18 953.01 1988.41 1151.80 2276.85 1197.15
00052571 00000107 1892.25 350.26 813.05 1114.61 2030.02 755.15 2373.87 805.52 2081.83 954.98 1988.16 1158.63 2273.86 1202.14
00052572 00000108 1893.31 353.98 813.33 1118.83 2030.41 758.21 2376.23 804.21 2082.97 957.35 1990.90 1165.40 2279.77 1205.15
00052573 00000109 1902.66 352.12 809.19 1119.86 2040.33 763.28 2383.92 809.46 2093.84 965.81 2004.39 1164.71 2296.96 1204.83
00052574 00000110 1914.87 358.99 800.72 1113.45 2053.38 771.57 2400.55 823.73 2111.53 975.89 2017.94 1177.38 2296.07 1221.02
00052575 00000111 1915.65 358.47 802.81 1116.15 2050.20 780.91 2396.69 830.34 2106.20 980.79 2019.72 1180.65 2296.38 1221.84
00052576 00000112 1893.29 352.89 812.76 1109.79 2023.21 778.21 2364.61 817.09 2081.40 969.87 1997.13 1169.58 2287.04 1203.03
00052577 DELETE   1880.75 356.54 800.75 1100.49 1993.03 775.75 2324.47 821.58 2037.53 969.75 1962.03 1178.14 2233.86 1216.53
00052578 DELETE   1867.36 329.97 775.44 1108.93 1950.87 775.45 2265.68 802.81 1976.14 954.46 1920.71 1172.95 2166.45 1199.41
00052579 DELETE   1840.80 331.06 762.86 1108.97 1930.08 770.00 2230.56 803.16 1932.60 938.97 1894.80 1165.97 2122.79 1196.70
00052580 00000116 1826.89 338.46 758.83 1112.07 1922.44 772.17 2213.44 805.67 1911.01 930.46 1889.44 1166.95 2104.23 1196.99
00052581 00000117 1821.20 338.82 766.62 1131.92 1924.36 771.86 2219.89 804.93 1915.05 931.67 1896.28 1175.31 2114.49 1204.42
00052582 00000118 1826.83 346.07 766.56 1132.10 1926.65 777.46 2233.77 812.00 1922.68 941.79 1898.84 1183.63 2133.15 1213.92
00052583 DELETE   1832.36 360.28 775.83 1129.06 1933.18 782.62 2256.76 817.27 1953.86 967.83 1912.77 1198.29 2161.03 1228.78
00052584 00000120 1839.47 363.52 780.59 1141.50 1940.37 787.94 2268.51 824.30 1968.30 982.93 1920.76 1206.09 2183.55 1237.91
00052585 00000121 1843.51 376.33 787.00 1123.28 1948.35 797.26 2285.20 832.00 1989.99 992.71 1931.77 1210.14 2206.66 1240.46
00052586 00000122 1845.26 385.71 791.89 1116.19 1951.53 805.05 2296.19 839.77 2004.33 1005.17 1940.11 1220.04 2221.97 1249.92
00052587 00000123 1846.79 394.09 804.25 1109.30 1971.31 821.93 2304.90 852.99 2025.39 1017.11 1974.50 1227.69 2236.85 1253.15
00052588 00000124 1846.49 415.64 801.80 1099.20 1971.50 834.32 2309.56 869.04 2035.39 1037.84 1976.60 1237.10 2244.60 1265.33
00052589 00000125 1840.07 430.85 806.18 1094.16 1959.45 848.02 2306.44 883.30 2033.88 1058.24 1968.54 1253.10 2241.32 1281.61
00052590 DELETE   1825.47 428.16 818.21 1117.53 1938.19 861.76 2280.67 891.48 1994.79 1080.03 1940.93 1270.18 2227.79 1291.29
00052591 DELETE   1824.94 438.13 800.83 1120.04 1929.25 877.18 2252.65 915.73 1974.48 1101.05 1932.20 1280.65 2201.77 1309.81
00052592 DELETE   1810.77 469.23 798.28 1099.77 1897.67 890.18 2237.71 932.29 1938.44 1120.46 1910.93 1304.40 2180.82 1340.02
00052593 00000129 1799.97 489.45 793.74 1085.00 1883.87 900.83 2221.14 946.86 1923.77 1135.81 1903.79 1316.29 2163.99 1355.65
00052594 00000130 1801.31 494.13 783.19 1087.02 1880.40 904.74 2215.43 957.48 1917.42 1141.59 1892.62 1316.23 2155.51 1362.35
00052595 DELETE   1804.44 501.19 779.91 1083.38 1882.71 911.02 2217.39 964.81 1916.61 1147.04 1891.61 1320.79 2155.75 1368.00
00052596 00000132 1803.60 510.13 785.37 1075.78 1884.02 908.32 2223.28 967.23 1921.55 1151.97 1894.10 1319.57 2163.68 1370.21
00052597 DELETE   1809.49 517.36 788.02 1069.40 1898.29 901.80 2238.18 969.16 1934.77 1153.58 1904.61 1314.00 2178.51 1370.19
00052598 00000134 1816.08 501.10 784.97 1088.20 1912.24 914.31 2241.55 964.98 1953.41 1153.94 1913.05 1315.28 2187.39 1355.79
00052599 00000135 1825.86 492.49 778.48 1095.12 1919.24 915.05 2250.49 963.40 1966.68 1157.94 1920.34 1316.41 2199.43 1355.47
00052600 00000136 1829.32 487.86 781.03 1099.90 1925.63 912.63 2256.91 962.51 1973.86 1157.87 1926.43 1313.75 2207.41 1354.32
00052601 00000137 1830.55 485.89 779.74 1100.26 1927.19 909.79 2258.85 963.89 1973.93 1159.47 1924.88 1310.92 2208.93 1354.75
00052602 00000138 1828.97 487.57 780.10 1095.60 1926.51 910.86 2256.02 965.21 1970.79 1156.87 1920.67 1309.50 2202.99 1353.58
00052603 00000139 1827.62 489.26 776.19 1093.40 1922.66 911.60 2250.95 970.32 1963.55 1159.16 1915.39 1308.79 2194.16 1356.18
00052604 00000140 1824.18 495.23 774.14 1086.05 1920.00 913.87 2246.12 975.06 1956.79 1160.28 1910.28 1307.85 2188.42 1356.95
00052605 00000141 1828.04 511.29 772.41 1065.42 1918.77 903.78 2252.32 980.42 1947.65 1156.65 1910.58 1308.16 2186.54 1372.00
00052606 00000142 1828.41 509.74 770.83 1065.47 1916.10 902.45 2251.79 979.86 1946.62 1156.17 1906.13 1308.90 2183.78 1373.89
00052607 00000143 1831.23 502.82 771.68 1071.39 1921.46 899.89 2259.24 979.20 1951.53 1152.48 1906.22 1307.23 2185.89 1373.95
00052608 DELETE   1828.56 492.51 772.71 1079.86 1927.42 905.66 2261.09 972.20 1970.99 1152.38 1905.68 1304.40 2186.81 1358.59
00052609 00000145 1835.93 495.66 774.51 1075.15 1934.51 907.70 2274.52 968.63 1989.31 1150.84 1912.80 1306.40 2199.84 1356.31
00052610 00000146 1846.12 504.64 772.97 1067.31 1947.00 906.38 2291.56 966.05 2010.93 1152.79 1927.75 1310.87 2217.06 1359.98
00052611 00000147 1859.38 508.99 774.46 1059.36 1964.89 899.95 2312.20 969.91 2016.68 1151.27 1945.24 1312.05 2230.66 1369.30
00052612 00000148 1863.78 513.26 776.07 1057.91 1970.08 901.47 2316.96 971.08 2024.43 1155.29 1950.78 1314.07 2237.70 1370.77
00052613 00000149 1864.04 518.48 777.47 1052.58 1968.26 902.41 2315.24 971.81 2022.97 1157.14 1950.53 1314.44 2237.11 1371.14
00052614 00000150 1857.68 519.03 768.04 1051.68 1951.55 908.76 2297.63 967.11 2016.28 1161.20 1937.92 1319.57 2227.18 1367.35
00052615 00000151 1851.72 515.70 772.57 1054.33 1945.92 909.76 2289.86 969.13 2005.75 1159.52 1930.29 1318.18 2216.12 1366.82
CROP_BBOX: 1320 0 3235 1971
