Video ID: 	dY2ujYs6pVM
H: 	1080
W: 	1920
FPS: 	25.0

FRAME INDEX X0 Y0 W H [Landmarks (5 Points)]

00005065 00000000 823.03 139.98 390.30 581.80 864.35 377.01 990.48 378.40 860.85 476.63 879.36 578.88 976.71 579.08
00005066 00000001 820.70 138.54 397.57 589.25 854.14 372.93 997.13 375.72 861.43 483.33 879.53 589.80 978.14 593.32
00005067 00000002 821.56 140.30 398.98 587.53 854.43 376.21 998.39 377.86 862.60 486.72 883.46 592.38 980.72 594.59
00005068 00000003 822.29 140.94 401.37 587.53 854.10 377.84 1001.07 379.98 865.37 489.52 883.64 592.64 983.73 595.20
00005069 DELETE   819.34 143.17 408.30 591.88 855.73 375.24 1004.16 380.86 867.23 491.28 884.35 592.98 985.68 597.90
00005070 00000005 819.64 143.54 408.56 594.72 857.01 375.35 1003.86 381.32 863.93 492.12 887.97 594.95 987.14 599.15
00005071 00000006 820.15 144.78 407.53 592.10 856.41 375.43 1004.76 382.57 864.92 494.32 887.28 594.88 987.46 600.17
00005072 00000007 818.81 145.13 408.64 592.91 855.58 375.32 1004.83 383.55 865.55 494.89 885.17 594.55 986.83 600.79
00005073 00000008 829.86 145.78 395.10 592.70 866.36 386.18 1000.60 389.50 873.08 495.57 887.77 588.83 994.01 590.32
00005074 00000009 827.43 144.17 399.60 595.71 866.25 393.26 998.91 393.12 869.68 492.59 888.92 591.44 996.14 589.80
00005075 00000010 827.13 143.46 399.60 596.28 866.10 392.73 998.57 392.90 869.03 492.01 888.18 590.76 995.38 589.44
00005076 00000011 827.21 145.50 398.38 595.55 865.11 390.03 1000.07 389.44 869.16 493.52 886.22 591.34 994.94 589.62
00005077 00000012 827.69 148.67 396.14 592.63 865.30 389.34 1000.09 390.36 870.25 494.12 885.66 590.97 993.47 590.49
00005078 00000013 827.26 149.95 395.92 591.18 865.46 388.05 999.34 390.36 869.89 495.26 885.72 590.32 992.63 590.79
00005079 00000014 826.83 150.08 397.44 592.11 864.89 388.19 999.29 390.57 870.26 496.40 884.84 590.78 991.79 591.38
00005080 00000015 826.78 152.19 397.55 590.33 864.84 387.72 999.94 390.49 870.54 498.57 885.30 590.85 993.50 591.62
00005081 00000016 827.00 152.40 398.19 592.54 865.51 388.26 1000.80 390.39 871.42 499.05 884.91 593.30 992.21 593.85
00005082 00000017 818.97 148.52 407.80 591.49 854.24 379.59 1004.90 387.88 864.73 500.74 883.29 600.98 983.33 607.80
00005083 00000018 820.79 149.84 407.76 590.67 856.09 379.33 1006.69 388.29 867.12 502.43 884.73 601.94 985.15 609.34
00005084 00000019 823.11 150.10 406.42 591.15 857.58 378.96 1008.30 388.47 868.17 502.66 885.27 603.06 985.71 610.89
00005085 00000020 823.02 149.51 406.71 591.20 859.22 380.24 1008.77 390.04 868.15 502.48 887.34 602.11 986.70 609.78
00005086 00000021 823.78 150.64 408.91 591.07 861.05 381.21 1010.34 390.97 867.63 501.37 888.59 601.93 988.18 609.22
00005087 00000022 823.10 150.84 410.34 591.28 861.35 380.28 1013.37 390.96 869.40 501.87 887.53 602.03 989.41 610.14
00005088 00000023 823.58 150.43 411.43 593.13 862.52 381.06 1015.98 390.77 871.64 502.96 888.92 603.49 993.15 610.90
00005089 00000024 824.34 150.83 410.63 592.71 865.29 380.54 1018.38 391.40 875.05 503.42 889.82 602.81 994.17 611.20
00005090 00000025 824.26 150.31 412.46 594.38 865.59 378.64 1021.91 390.56 877.56 504.37 888.39 602.66 995.87 612.13
00005091 00000026 826.31 151.39 409.93 593.56 867.76 379.24 1022.58 391.63 878.71 504.15 889.29 601.76 996.44 611.57
00005092 00000027 835.27 144.20 401.94 606.22 875.34 387.93 1019.84 396.10 887.32 498.18 892.34 599.06 999.84 605.24
00005093 00000028 836.53 145.16 401.54 607.15 875.70 388.41 1019.48 395.67 887.02 496.83 893.68 599.80 1000.44 605.25
00005094 00000029 827.20 151.29 409.22 593.05 868.53 380.57 1022.25 389.53 878.56 501.51 892.60 603.93 996.44 611.01
00005095 00000030 826.39 150.75 409.77 593.91 867.68 379.30 1022.17 389.41 878.25 501.89 891.75 603.48 996.26 611.33
00005096 00000031 825.68 151.69 410.49 592.91 866.61 380.18 1021.64 389.80 877.68 502.28 891.14 604.03 995.49 611.50
00005097 00000032 825.04 152.18 410.90 592.60 866.20 379.82 1021.07 390.05 877.19 503.36 890.70 603.84 995.57 611.72
00005098 00000033 824.71 152.15 411.13 591.45 866.34 379.37 1019.33 389.64 876.22 502.82 892.29 602.93 995.05 610.66
00005099 00000034 824.53 152.53 411.11 591.48 866.31 379.39 1019.34 390.15 876.03 503.13 892.04 602.84 995.19 610.97
00005100 00000035 824.57 152.25 411.14 591.36 865.96 379.50 1018.86 389.96 875.82 502.98 891.99 602.90 994.92 610.81
00005101 00000036 824.59 152.77 411.19 591.51 866.29 379.36 1018.93 390.23 876.07 503.28 892.42 602.62 995.05 610.80
00005102 00000037 824.91 152.44 411.00 592.36 866.18 379.53 1018.43 389.64 875.08 502.12 892.64 603.26 994.30 610.82
00005103 00000038 825.90 152.20 409.91 594.62 868.60 385.95 1014.71 393.02 874.83 499.45 896.56 604.09 994.68 609.00
00005104 00000039 826.41 150.14 410.44 596.37 865.94 391.20 1013.30 391.57 871.80 496.83 895.93 606.14 995.40 605.65
00005105 00000040 824.72 148.67 411.50 594.26 863.98 386.78 1011.00 389.81 871.20 499.26 894.35 604.00 993.68 605.82
00005106 00000041 824.88 149.20 409.94 597.12 862.30 386.14 1010.76 389.43 869.45 499.04 890.48 605.69 990.44 607.81
00005107 00000042 824.32 146.66 408.24 596.02 859.60 384.84 1008.67 388.99 866.70 499.18 888.19 605.77 986.94 608.88
00005108 00000043 823.31 146.50 407.51 596.44 859.41 382.13 1009.51 388.37 869.14 499.01 886.53 603.70 985.92 608.75
00005109 00000044 822.52 143.20 406.52 600.88 856.99 382.37 1007.56 386.18 866.70 497.08 884.90 606.31 983.12 609.50
00005110 00000045 831.03 146.94 397.01 599.16 867.49 390.92 1005.91 393.52 879.45 497.25 885.94 600.91 989.87 602.20
00005111 00000046 829.71 146.89 398.48 599.70 867.74 390.96 1005.54 393.36 878.20 497.18 885.85 598.51 991.24 599.67
00005112 00000047 827.88 146.57 399.42 601.45 866.95 391.94 1005.70 393.36 877.72 497.95 886.17 600.04 992.12 600.27
00005113 00000048 827.45 149.29 399.22 597.45 866.03 392.96 1004.09 393.91 876.91 499.89 886.65 600.33 992.50 599.89
00005114 00000049 825.62 150.11 400.39 597.10 865.86 392.76 1003.63 393.60 876.42 499.94 887.32 600.23 993.18 599.59
00005115 00000050 825.72 149.27 400.45 598.84 865.08 393.31 1003.96 394.07 875.94 500.40 886.76 600.93 993.58 600.21
00005116 00000051 825.77 149.36 400.98 599.18 864.81 393.30 1003.87 394.10 875.56 500.71 886.47 601.12 993.73 600.45
00005117 00000052 826.43 150.07 399.44 597.97 865.04 393.07 1003.41 393.51 875.58 500.66 886.84 600.03 994.52 599.02
00005118 00000053 827.72 149.94 398.64 598.24 865.77 393.11 1001.90 393.17 874.95 500.17 887.37 599.29 995.00 598.00
00005119 00000054 827.59 148.96 398.52 598.71 865.23 392.43 1002.59 392.29 875.45 499.66 887.65 598.66 996.03 597.26
00005120 00000055 827.52 149.51 398.19 597.45 865.59 391.61 1002.68 392.31 875.07 499.76 887.37 597.65 996.27 596.92
00005121 00000056 827.69 149.44 398.53 597.25 865.38 391.87 1002.57 392.17 874.90 499.79 887.27 598.17 995.90 597.10
00005122 00000057 827.56 149.26 398.67 597.03 865.71 391.50 1003.47 392.25 875.70 498.94 887.20 598.25 995.28 597.54
00005123 00000058 829.28 151.67 397.03 593.36 866.70 390.46 1003.46 391.38 876.96 500.11 888.54 597.36 995.26 596.70
00005124 00000059 828.93 152.19 396.94 593.24 866.98 389.69 1004.37 390.83 877.47 500.50 888.65 596.20 996.83 595.73
00005125 00000060 819.75 147.59 408.96 596.34 856.72 378.34 1007.57 386.18 867.60 499.21 886.26 600.99 986.91 606.63
00005126 00000061 821.04 147.93 407.84 595.96 858.30 379.31 1008.69 386.85 869.47 499.74 887.40 601.59 988.27 606.99
00005127 00000062 821.14 148.67 409.25 596.50 858.48 379.77 1009.49 387.03 869.72 500.26 887.74 602.94 988.62 608.19
00005128 00000063 821.39 149.13 410.38 596.14 859.12 379.69 1011.11 386.83 870.26 500.00 888.35 603.81 989.30 609.03
00005129 00000064 822.50 149.68 409.23 595.52 860.27 379.88 1011.88 387.98 870.29 500.84 888.45 603.41 990.14 609.35
00005130 00000065 822.02 150.26 410.48 596.33 860.25 379.48 1012.52 387.77 871.59 501.77 888.40 603.95 990.87 610.12
00005131 00000066 822.00 151.43 411.10 595.02 859.36 379.55 1012.70 387.67 871.43 503.01 888.23 604.84 991.29 610.94
00005132 00000067 822.20 151.38 410.66 595.81 859.41 380.22 1012.91 387.49 871.54 502.50 888.46 606.10 990.66 611.57
00005133 00000068 822.03 149.30 407.42 599.48 857.98 387.70 1008.72 390.87 870.50 503.55 889.50 608.62 991.08 610.73
00005134 00000069 828.45 147.94 392.06 605.63 861.99 397.09 1003.92 390.16 872.04 501.14 887.57 608.75 998.70 605.02
00005135 00000070 825.86 150.09 399.80 602.22 867.51 397.66 1002.20 394.56 875.91 500.90 889.28 605.26 995.71 601.31
00005136 00000071 824.50 150.80 400.96 603.44 864.83 393.19 1003.68 390.88 875.79 502.70 888.45 605.17 996.91 601.97
00005137 00000072 823.36 151.45 403.01 604.79 863.10 391.66 1003.03 388.16 872.93 501.81 887.88 604.47 999.64 600.13
00005138 00000073 815.37 149.02 412.49 600.79 850.60 380.41 1002.02 381.13 864.46 500.28 888.68 603.69 995.00 602.52
00005139 00000074 816.98 146.72 409.56 601.82 852.15 379.50 1001.47 378.70 864.97 498.10 892.11 602.61 996.18 600.08
00005140 00000075 826.13 147.78 401.46 607.87 862.12 389.19 1002.26 382.49 870.75 497.24 892.38 603.22 1005.30 596.17
00005141 00000076 827.02 145.98 404.16 608.51 864.77 388.38 1002.18 382.33 871.27 495.38 894.24 601.90 1004.23 595.48
00005142 00000077 827.59 148.18 402.18 600.04 867.04 387.84 1001.75 380.91 872.33 490.98 893.48 597.82 1000.13 590.86
00005143 00000078 829.21 146.54 400.88 596.62 867.85 386.55 999.39 382.40 870.70 491.42 891.53 591.88 997.91 587.34
00005144 00000079 830.13 145.79 399.70 589.53 868.28 385.21 998.00 383.10 871.18 491.35 890.54 588.53 994.06 585.77
00005145 00000080 824.03 144.23 406.97 589.70 859.42 376.69 999.38 377.16 865.32 486.60 889.61 594.03 982.03 594.99
00005146 00000081 826.36 142.83 404.98 587.58 861.17 374.36 998.43 374.20 865.69 485.70 893.36 593.97 981.77 594.43
00005147 00000082 834.85 145.43 395.09 580.09 873.01 378.11 995.64 377.65 876.80 485.85 895.60 584.39 986.80 582.79
00005148 00000083 836.04 142.48 396.49 585.31 874.24 374.48 994.69 373.03 874.28 482.71 898.86 583.49 989.87 581.01
00005149 00000084 833.61 138.16 396.65 594.27 876.36 371.95 995.24 369.77 874.44 478.03 903.14 579.36 999.27 575.12
00005150 00000085 834.67 136.03 398.91 598.87 876.93 369.94 991.97 366.93 870.58 474.94 904.52 576.63 999.69 571.78
00005151 00000086 835.04 134.23 400.86 600.13 876.17 367.11 991.31 362.79 869.28 473.75 905.97 576.89 1000.17 571.03
00005152 00000087 833.04 132.65 403.47 606.04 875.12 365.68 993.36 360.95 869.70 470.42 902.34 576.05 999.02 569.96
00005153 00000088 833.61 126.88 398.11 610.38 875.03 365.62 992.02 360.97 869.23 469.05 903.15 574.98 998.59 568.99
00005154 00000089 834.59 120.99 395.74 609.32 872.35 366.58 991.93 361.07 870.38 469.20 900.24 574.69 991.80 568.45
00005155 00000090 833.23 119.67 391.91 607.30 871.02 365.57 990.45 361.41 870.01 469.15 898.34 573.03 988.91 568.04
00005156 00000091 829.30 119.50 390.36 605.02 866.72 366.26 986.85 362.44 867.42 470.62 894.15 572.81 984.80 568.10
00005157 00000092 826.70 117.70 392.31 607.76 863.42 366.33 984.62 363.21 865.06 472.05 891.10 573.77 981.80 569.84
00005158 00000093 826.76 121.32 391.25 608.90 862.61 371.20 981.68 365.28 865.04 475.02 892.73 575.45 984.47 568.88
00005159 00000094 827.90 123.99 391.80 609.31 865.45 375.29 982.52 368.28 859.98 473.58 893.87 576.86 988.61 568.93
00005160 DELETE   828.61 123.58 388.86 608.39 865.44 373.96 981.91 368.61 861.49 475.00 894.15 575.42 988.33 568.88
00005161 00000096 826.43 124.57 386.48 600.35 860.77 372.53 980.94 370.43 864.12 476.86 888.77 572.03 982.62 568.68
00005162 00000097 828.28 124.36 384.44 591.86 861.33 369.80 981.27 369.45 865.87 478.63 889.81 572.09 979.75 570.16
00005163 00000098 829.40 124.44 382.63 588.31 861.21 368.47 982.20 369.40 866.17 478.08 887.57 571.34 977.94 570.59
00005164 00000099 830.20 125.59 383.14 588.70 863.27 368.60 983.05 369.08 867.20 477.67 889.78 570.61 980.95 569.30
00005165 00000100 829.60 124.81 382.96 588.11 863.15 366.70 984.53 367.68 868.38 477.01 890.00 568.74 982.30 567.84
00005166 00000101 830.02 122.27 383.03 589.26 863.33 366.47 984.56 367.62 868.32 475.87 890.71 567.13 982.77 566.35
00005167 00000102 832.13 119.57 380.84 590.58 864.10 367.61 983.57 368.16 868.29 475.42 890.70 567.94 982.14 566.63
00005168 00000103 833.30 119.82 378.73 589.39 867.87 366.77 985.88 367.05 871.60 474.20 895.39 568.02 982.42 566.53
00005169 00000104 834.79 120.03 382.24 592.20 867.80 367.83 988.13 365.74 870.94 472.82 895.89 567.64 988.43 563.88
00005170 00000105 835.21 119.96 388.26 602.46 870.80 367.89 989.43 363.45 870.40 471.10 900.65 570.16 995.91 564.30
00005171 00000106 834.56 118.87 393.44 607.45 870.75 366.07 991.09 360.42 869.10 468.71 901.38 570.23 1000.82 563.23
00005172 00000107 835.85 120.23 393.74 600.27 871.38 364.48 991.45 359.60 868.90 466.90 900.45 568.01 998.45 561.78
00005173 00000108 837.27 117.04 388.99 590.41 872.46 361.83 992.99 360.93 873.48 466.80 901.43 563.44 992.94 560.60
00005174 00000109 837.83 117.43 389.86 588.21 873.28 360.92 993.45 361.21 874.47 465.77 900.38 561.94 991.35 560.21
00005175 00000110 837.75 114.82 390.56 593.71 874.57 361.12 994.82 360.82 874.67 464.23 900.07 563.76 990.89 561.72
00005176 00000111 838.11 113.56 392.02 596.81 874.14 361.32 995.15 360.86 874.28 465.95 901.12 566.60 991.28 564.42
00005177 00000112 837.88 113.32 393.56 599.45 874.48 361.39 995.39 360.28 874.02 464.84 900.92 567.04 991.22 564.42
00005178 00000113 838.57 113.36 392.64 597.54 874.42 361.12 995.17 360.40 874.03 464.77 900.89 566.35 991.24 564.04
00005179 00000114 837.72 112.77 392.01 599.38 874.29 361.10 995.43 360.40 874.34 464.65 900.51 566.24 991.11 563.96
00005180 00000115 837.81 114.36 391.96 597.03 873.95 362.31 995.46 362.02 875.32 466.04 899.66 565.90 990.94 563.88
00005181 00000116 837.24 115.79 389.83 595.79 873.74 362.35 995.05 363.01 875.98 467.25 898.83 565.40 989.98 564.17
00005182 00000117 836.85 116.26 388.37 595.18 872.81 363.55 995.24 363.80 876.49 468.81 897.36 566.37 989.22 564.83
00005183 00000118 836.55 117.94 389.21 590.99 872.23 363.73 995.76 364.31 877.74 469.57 896.87 567.49 988.14 566.20
00005184 00000119 836.14 119.71 390.65 593.64 873.32 364.99 995.57 364.76 877.63 470.51 898.19 569.82 988.40 567.90
00005185 00000120 836.37 119.90 390.01 595.05 874.04 365.63 994.98 365.37 877.25 470.67 899.38 570.43 989.06 568.42
00005186 00000121 836.54 121.61 390.32 590.35 873.34 365.43 995.67 365.41 877.68 470.77 899.12 569.16 990.54 567.24
00005187 00000122 836.14 119.40 387.50 588.88 872.00 364.62 995.12 366.90 877.90 471.50 896.62 567.09 989.06 566.98
00005188 00000123 835.09 120.85 387.15 584.79 870.39 363.43 994.30 366.91 877.29 471.79 894.40 565.75 987.02 566.63
00005189 00000124 834.62 119.49 387.96 589.41 869.75 362.08 994.66 366.13 876.33 471.42 893.21 565.51 987.25 566.97
00005190 00000125 834.36 119.87 386.43 589.09 868.30 362.82 993.26 366.43 874.90 471.74 891.44 566.49 984.95 567.75
00005191 00000126 831.60 122.21 388.51 584.99 866.44 362.80 991.99 366.59 874.60 472.18 888.46 566.08 981.23 567.79
00005192 00000127 829.20 121.28 388.43 587.44 865.77 363.73 988.67 367.25 872.08 474.36 891.64 568.14 980.26 569.39
00005193 00000128 829.51 125.64 383.44 583.33 870.37 368.96 983.55 365.61 870.68 469.89 895.42 574.42 972.80 570.36
00005194 DELETE   828.80 126.53 381.84 564.39 871.14 368.89 982.62 363.85 872.71 469.67 901.42 570.18 974.65 564.77
00005195 00000130 824.53 131.59 383.34 554.97 870.07 366.83 981.60 363.31 871.16 467.40 893.46 567.33 969.41 563.63
00005196 00000131 817.43 137.26 396.10 561.49 855.32 362.18 988.50 358.76 866.44 472.73 892.39 581.27 979.96 580.28
00005197 00000132 818.94 128.59 391.01 566.00 857.76 358.11 991.91 356.24 864.73 469.06 883.98 572.73 984.03 572.39
00005198 DELETE   820.22 122.63 393.10 602.68 867.24 365.97 977.13 361.75 858.07 471.98 891.13 580.08 964.29 575.49
00005199 00000134 820.32 125.28 390.98 592.73 862.19 365.41 973.73 361.66 856.08 472.94 888.27 579.95 962.76 575.77
00005200 DELETE   822.55 132.37 383.41 566.08 858.76 367.24 968.74 362.20 852.76 472.76 891.87 563.72 979.73 556.88
00005201 DELETE   824.81 139.86 375.31 546.70 861.71 367.73 969.06 360.94 853.28 472.38 900.24 563.22 980.83 555.22
00005202 00000137 821.69 137.73 378.73 552.63 861.21 365.82 972.89 360.93 859.13 475.59 899.49 570.19 981.46 564.31
00005203 00000138 819.73 137.30 381.00 560.38 859.84 366.02 971.72 360.05 857.10 474.13 897.80 572.09 978.26 565.24
00005204 DELETE   819.73 135.51 380.62 550.61 858.18 360.85 971.07 358.35 856.83 477.07 895.76 572.33 973.23 568.58
00005205 00000140 820.03 130.82 375.48 540.93 858.36 357.71 969.13 359.64 854.84 473.58 890.56 565.64 964.08 565.87
00005206 00000141 817.12 131.85 375.00 543.25 854.76 356.44 968.39 358.09 851.61 472.47 885.66 566.62 961.20 566.77
00005207 00000142 815.13 132.89 374.87 546.15 851.99 355.09 966.99 356.78 847.52 470.24 881.96 565.32 958.42 565.51
00005208 00000143 816.24 129.67 373.01 546.05 853.10 353.51 963.59 356.01 844.76 470.58 883.07 564.43 955.72 565.16
CROP_BBOX: 538 0 1443 885
