Video ID: 	HBS-2IzkXBw
H: 	1080
W: 	1920
FPS: 	29.97002997002997

FRAME INDEX X0 Y0 W H [Landmarks (5 Points)]

00018773 00000000 532.42 175.72 426.85 560.97 697.33 385.44 890.81 387.88 827.40 495.15 719.23 593.51 872.08 595.52
00018774 00000001 532.19 176.49 427.33 560.06 697.45 385.79 890.79 388.08 827.43 495.16 719.18 593.54 871.89 595.48
00018775 00000002 530.45 175.10 429.36 563.03 693.62 383.58 889.22 387.42 822.91 493.21 714.72 592.70 870.35 595.82
00018776 00000003 525.69 179.29 432.37 558.66 686.53 385.05 883.82 390.15 812.82 492.24 707.74 590.33 866.73 594.66
00018777 00000004 516.33 181.78 435.36 556.18 676.16 385.90 870.27 391.34 798.82 487.87 698.65 586.42 857.52 591.11
00018778 DELETE   502.20 179.01 437.47 557.97 659.87 383.66 854.26 389.11 780.11 486.54 680.27 582.83 843.06 587.46
00018779 00000006 502.33 179.04 437.61 558.00 659.88 383.67 854.21 389.20 779.87 486.50 680.36 582.83 842.96 587.53
00018780 00000007 493.88 175.53 435.81 569.30 638.95 385.54 832.42 386.11 759.00 488.16 663.32 590.93 826.02 590.09
00018781 00000008 481.77 170.50 436.40 577.59 622.97 385.45 818.91 388.41 741.65 489.30 645.75 590.70 812.61 591.73
00018782 00000009 479.12 172.15 435.32 576.67 618.50 383.87 818.83 390.58 736.39 488.80 638.77 590.64 809.65 594.78
00018783 00000010 481.97 172.85 437.92 575.46 624.98 385.45 822.78 392.31 742.38 489.42 646.29 592.80 810.86 597.04
00018784 00000011 482.22 172.93 437.59 575.34 625.08 385.35 822.77 392.34 742.29 489.37 646.28 592.76 810.72 597.10
00018785 00000012 492.82 177.35 436.13 570.06 637.15 387.13 831.51 391.27 754.59 489.90 659.57 595.32 818.67 597.56
00018786 00000013 505.43 182.67 432.10 565.27 652.08 389.28 843.73 393.90 769.76 493.01 673.91 597.10 828.92 599.56
00018787 00000014 507.28 181.50 436.91 561.63 660.64 386.85 855.93 398.24 773.65 494.87 678.72 592.41 834.97 602.04
00018788 00000015 518.05 183.49 434.56 561.88 669.24 390.95 868.31 400.49 787.14 501.67 690.39 600.21 847.64 608.36
00018789 00000016 518.05 184.00 434.58 561.39 669.34 390.84 868.45 400.31 787.36 501.62 690.52 600.25 847.82 608.37
00018790 00000017 526.31 181.49 437.93 566.87 676.97 392.97 878.07 402.62 795.80 507.16 696.82 603.35 855.00 611.35
00018791 00000018 534.81 176.93 440.55 574.20 685.10 392.41 888.94 400.32 807.08 506.02 706.93 605.27 866.89 611.08
00018792 00000019 542.02 180.49 441.32 575.10 695.90 392.60 897.60 398.91 819.53 505.06 715.67 605.02 878.13 609.59
00018793 00000020 565.15 194.67 433.41 569.81 716.01 394.53 908.53 398.80 837.07 509.25 726.83 604.24 891.34 606.37
00018794 00000021 565.12 194.70 433.50 569.66 716.02 394.50 908.50 398.81 837.02 509.19 726.90 604.21 891.37 606.35
00018795 00000022 574.24 194.23 435.21 566.84 739.98 394.69 932.36 402.66 863.13 506.38 748.65 599.15 913.27 607.53
00018796 00000023 586.54 190.77 436.29 567.32 757.21 395.87 949.13 404.22 883.53 508.74 766.21 597.77 928.70 605.75
00018797 00000024 594.95 190.32 432.02 568.10 768.64 400.02 958.14 403.76 900.73 512.12 779.10 601.29 940.38 605.38
00018798 00000025 597.22 192.65 431.31 560.68 772.22 400.35 960.52 401.17 905.40 510.59 789.13 602.51 943.62 603.92
00018799 00000026 597.30 192.79 431.22 560.64 772.22 400.38 960.54 401.19 905.37 510.64 788.99 602.57 943.57 603.98
00018800 00000027 596.77 181.27 432.82 567.50 768.10 399.78 960.71 397.60 904.37 504.11 792.46 601.95 947.66 600.37
00018801 00000028 594.76 180.37 432.23 561.75 758.97 397.54 955.36 394.45 894.10 499.71 789.29 600.38 945.36 598.06
00018802 00000029 583.41 187.92 432.12 554.39 746.01 400.53 939.48 392.32 880.65 499.49 781.67 601.03 936.55 595.52
00018803 00000030 570.51 201.93 425.27 545.02 721.97 406.42 911.72 389.12 856.30 507.24 757.84 612.34 915.13 596.29
00018804 00000031 570.47 201.91 425.26 545.11 721.93 406.46 911.69 389.11 856.26 507.26 757.75 612.41 915.03 596.33
00018805 DELETE   551.04 199.29 430.55 557.26 705.95 408.52 895.20 398.33 834.38 513.58 734.52 612.56 893.09 602.21
00018806 00000033 532.97 197.33 434.43 564.68 686.82 408.28 886.18 402.67 817.63 519.84 709.47 610.77 879.61 606.84
00018807 00000034 522.75 198.52 436.58 564.18 677.68 408.55 879.31 406.19 807.80 521.25 697.67 613.23 868.61 612.34
00018808 00000035 519.84 196.08 432.46 560.96 675.01 407.86 876.48 406.89 804.93 520.95 698.56 612.99 865.69 613.07
00018809 00000036 519.81 196.19 432.43 560.89 674.95 407.84 876.48 406.90 804.90 521.01 698.53 613.00 865.75 613.10
00018810 00000037 517.72 203.46 433.06 547.34 676.92 406.47 878.88 407.55 807.59 520.36 701.03 611.28 863.38 613.39
00018811 00000038 519.02 199.94 435.05 550.86 685.05 402.71 883.30 405.97 816.00 517.47 706.26 608.23 863.91 612.27
00018812 00000039 525.53 195.02 431.55 556.34 694.34 400.22 887.13 403.58 823.90 514.25 711.58 602.04 870.65 605.71
00018813 00000040 531.48 194.61 430.12 558.96 702.30 403.03 891.14 403.37 832.49 513.73 717.24 599.47 877.27 600.52
00018814 00000041 531.42 194.37 430.05 559.19 702.35 402.84 891.18 403.22 832.58 513.66 717.37 599.55 877.23 600.64
00018815 00000042 544.92 202.51 423.11 552.85 710.22 398.23 899.32 397.96 840.57 513.28 726.95 602.88 890.37 601.42
00018816 00000043 552.61 209.16 422.35 546.37 713.74 406.25 906.25 396.58 853.03 515.13 734.36 605.79 905.11 597.17
00018817 00000044 559.54 205.38 422.60 551.82 719.64 412.59 915.62 395.74 866.45 522.86 739.01 607.28 919.28 593.59
00018818 00000045 567.30 204.36 421.78 551.83 724.00 416.18 918.96 394.05 871.04 523.04 745.87 609.07 925.94 590.81
00018819 00000046 567.27 204.30 421.71 551.90 723.99 416.18 918.93 394.06 871.04 523.03 745.85 609.06 925.92 590.79
00018820 00000047 572.00 203.10 422.45 550.49 728.57 417.79 923.06 392.78 876.78 522.12 750.89 608.37 931.63 587.88
00018821 00000048 572.42 207.23 427.67 537.22 738.28 412.49 930.06 394.77 878.41 515.13 759.04 596.49 934.15 583.86
00018822 00000049 574.90 204.23 426.86 537.18 738.91 409.95 932.00 394.39 878.24 510.61 760.13 594.34 936.13 583.23
00018823 00000050 576.06 202.54 424.34 551.15 729.53 412.64 924.13 394.03 871.40 517.71 750.14 604.23 931.88 588.75
00018824 00000051 575.71 202.91 424.61 550.95 729.46 412.36 924.19 393.75 871.41 517.70 750.04 604.32 931.89 588.80
00018825 00000052 572.08 203.22 425.81 555.07 721.20 410.35 918.88 395.26 860.25 518.38 741.36 603.74 926.93 591.03
00018826 00000053 565.75 204.25 425.54 551.89 713.62 406.01 912.40 397.31 848.58 516.83 731.90 601.09 915.48 593.21
00018827 00000054 556.60 197.05 430.87 554.10 708.38 398.26 906.07 397.09 837.53 514.67 722.10 595.84 902.46 593.55
00018828 00000055 547.07 191.34 435.48 556.00 701.67 392.45 896.30 395.88 823.28 513.55 713.03 592.29 885.67 593.54
00018829 00000056 547.02 191.49 435.49 555.77 701.68 392.40 896.27 395.83 823.27 513.47 713.05 592.31 885.58 593.57
00018830 00000057 536.55 193.64 443.36 556.89 686.93 394.85 890.75 400.97 807.03 514.50 693.41 589.95 875.95 595.77
00018831 00000058 532.38 197.80 442.16 554.25 681.69 395.92 886.58 403.85 799.57 518.22 685.15 591.77 869.05 599.55
00018832 00000059 530.84 197.09 439.91 556.74 681.24 394.93 885.81 404.77 798.85 518.29 683.61 592.51 866.81 601.93
00018833 00000060 530.81 198.09 436.84 555.59 683.36 394.49 885.94 402.98 802.54 514.98 689.03 594.49 866.92 602.69
00018834 00000061 530.72 198.20 436.94 555.48 683.39 394.52 885.96 403.00 802.62 515.04 689.09 594.47 866.89 602.68
00018835 00000062 533.03 192.78 433.55 560.88 686.83 394.15 887.65 399.81 808.72 510.77 698.10 597.24 871.06 602.68
00018836 00000063 535.01 189.63 431.29 564.72 693.21 395.69 889.53 398.29 819.29 510.28 709.43 600.29 876.20 602.93
00018837 00000064 538.93 186.84 429.40 565.99 698.24 397.37 892.10 396.71 826.78 506.07 719.20 601.06 881.59 600.59
00018838 00000065 540.39 186.19 429.83 562.32 701.00 397.15 894.44 394.85 830.90 501.79 725.43 599.40 885.61 597.33
00018839 00000066 540.40 185.98 430.00 562.78 701.04 397.24 894.42 394.72 830.87 502.09 725.41 599.56 885.60 597.33
00018840 00000067 542.79 185.31 428.04 559.50 703.21 396.60 896.54 393.54 833.64 499.72 727.63 597.61 886.77 594.99
00018841 00000068 543.96 180.50 427.43 562.48 701.87 394.87 897.80 391.34 833.49 498.00 728.41 597.95 888.62 594.55
00018842 00000069 541.67 181.70 429.27 561.61 698.37 394.66 894.77 391.49 829.21 499.10 726.59 598.43 886.64 595.31
00018843 00000070 538.45 183.10 431.84 561.38 691.02 393.46 892.44 392.96 819.97 502.58 717.34 598.34 883.27 597.63
00018844 00000071 538.63 183.13 431.60 561.32 690.97 393.44 892.50 392.95 819.87 502.42 717.30 598.45 883.25 597.75
00018845 00000072 535.70 187.16 433.60 556.78 684.82 392.58 888.45 395.08 808.40 506.67 709.91 601.26 871.42 603.37
00018846 00000073 533.97 189.14 434.30 556.89 679.92 393.45 884.42 396.29 801.04 509.12 705.49 603.83 867.16 606.31
00018847 00000074 532.80 187.69 435.89 557.85 677.16 392.26 882.97 394.52 797.80 506.55 702.29 603.85 866.57 605.76
00018848 00000075 533.16 187.81 434.80 557.28 676.47 391.37 882.33 394.30 796.69 504.26 700.90 601.50 867.87 603.91
00018849 00000076 533.14 187.83 434.78 557.27 676.45 391.39 882.31 394.29 796.69 504.26 700.87 601.49 867.87 603.87
00018850 00000077 535.27 186.24 434.29 557.61 679.81 389.15 883.52 391.97 799.23 501.34 703.69 599.54 867.77 601.79
00018851 00000078 536.97 184.80 432.28 558.47 681.13 389.48 885.29 392.61 802.04 501.37 705.68 597.74 872.13 600.14
00018852 00000079 537.71 185.09 432.56 559.48 684.02 391.07 887.27 393.70 806.28 504.33 707.32 597.64 874.19 599.88
00018853 00000080 540.12 184.95 430.03 559.25 687.08 391.14 890.56 393.67 810.75 503.98 710.14 598.31 876.84 600.57
00018854 00000081 540.31 185.31 429.99 558.73 686.90 391.12 890.60 393.49 810.68 503.83 710.19 598.18 877.31 600.33
00018855 00000082 541.56 184.82 429.18 558.53 690.75 392.57 892.69 393.11 817.23 504.63 713.79 598.42 880.49 599.19
00018856 00000083 543.66 183.14 425.81 561.80 694.52 396.94 893.34 393.97 822.94 506.13 719.17 601.85 883.90 599.79
00018857 00000084 538.44 181.31 430.45 566.05 698.55 404.42 895.21 400.29 828.91 505.74 720.23 601.66 884.38 598.36
00018858 00000085 539.24 182.96 428.73 564.76 701.90 408.13 893.88 403.37 831.20 505.78 723.08 601.39 883.86 597.53
00018859 00000086 539.35 182.72 428.67 564.95 702.31 408.22 894.32 403.28 831.77 506.12 723.42 601.57 884.11 597.54
00018860 00000087 539.44 182.87 428.02 566.38 704.11 408.52 894.27 403.44 834.56 505.09 722.88 599.18 886.59 594.97
00018861 00000088 540.23 179.84 428.28 569.03 704.55 407.02 895.63 402.61 835.66 503.08 722.62 596.58 889.45 592.69
00018862 00000089 541.07 180.90 428.24 565.98 704.62 404.94 895.57 400.80 835.60 500.12 723.79 594.70 889.87 590.96
00018863 00000090 538.92 179.01 431.35 569.21 703.19 402.71 895.60 397.97 835.61 498.38 723.23 594.18 890.48 589.82
00018864 00000091 538.98 179.07 431.29 569.13 703.25 402.70 895.59 398.02 835.65 498.28 723.22 594.12 890.43 589.84
00018865 00000092 538.18 179.25 430.82 571.10 704.07 401.40 894.05 398.25 834.04 498.88 720.74 592.61 887.30 589.68
00018866 00000093 537.76 179.44 429.40 571.88 702.93 402.25 892.66 399.26 832.70 499.60 717.64 591.79 886.00 589.16
00018867 00000094 536.98 177.65 428.80 574.92 701.11 401.81 889.57 399.19 829.59 499.15 713.64 589.76 883.91 587.54
00018868 00000095 534.45 175.56 431.49 577.97 697.55 398.23 886.83 394.98 826.41 499.51 711.33 590.14 882.11 587.43
00018869 00000096 534.02 175.97 431.95 577.54 697.51 398.07 886.71 394.74 826.54 499.46 711.39 590.04 882.10 587.31
00018870 00000097 534.05 172.16 431.54 582.87 694.50 392.30 885.67 392.08 822.52 498.30 708.74 589.37 881.15 588.97
00018871 00000098 532.42 172.90 433.01 586.23 692.85 387.64 885.77 388.92 820.44 499.33 705.01 590.23 880.43 591.29
00018872 00000099 529.89 175.11 433.76 590.55 686.04 386.33 883.25 388.16 814.49 501.03 697.56 594.16 877.22 595.81
00018873 00000100 527.30 178.29 434.47 585.78 681.69 386.45 879.56 386.99 809.58 500.50 695.38 595.63 873.55 596.23
00018874 00000101 527.29 178.17 434.52 585.93 681.58 386.40 879.21 386.90 809.45 500.32 695.40 595.54 873.47 596.10
00018875 00000102 528.25 183.12 431.18 568.44 680.34 390.35 878.78 386.59 808.77 498.01 702.07 596.41 874.77 593.48
00018876 00000103 527.18 185.60 430.99 560.22 678.86 391.00 878.79 385.46 809.94 496.30 705.43 596.43 876.01 592.13
00018877 00000104 527.83 187.98 428.25 554.19 681.81 391.42 880.38 385.98 814.16 496.58 708.34 595.47 875.83 591.51
00018878 00000105 529.37 189.16 427.77 551.11 688.52 393.48 884.70 386.58 824.83 498.18 713.60 592.86 880.24 588.14
00018879 00000106 529.36 188.97 427.79 551.33 688.50 393.51 884.64 386.53 824.77 498.02 713.63 592.94 880.27 588.15
00018880 00000107 528.52 185.99 430.49 556.73 692.44 393.22 886.45 386.37 832.27 495.69 716.22 592.37 883.16 587.40
00018881 00000108 530.09 181.73 428.80 565.57 695.97 393.19 886.04 386.77 834.52 494.06 719.00 593.86 883.24 588.77
00018882 00000109 532.53 182.64 425.64 565.30 697.54 393.42 887.25 387.40 834.82 492.80 723.91 596.67 884.79 591.52
00018883 00000110 534.45 179.04 426.71 564.24 703.92 395.97 891.46 389.76 841.31 490.43 731.50 594.51 886.97 589.14
00018884 00000111 534.56 178.89 426.61 564.16 703.93 396.03 891.29 389.71 841.16 490.35 731.73 594.63 886.82 589.15
00018885 DELETE   546.17 171.97 421.37 558.07 718.59 393.33 905.10 382.43 858.62 482.70 752.04 591.54 903.46 581.51
00018886 DELETE   560.78 155.52 416.68 550.55 744.88 388.77 919.58 360.92 890.36 464.09 781.58 579.60 923.57 556.02
00018887 00000114 563.44 132.23 416.35 564.57 751.55 379.66 921.45 356.54 906.10 449.76 791.73 570.88 933.03 551.11
00018888 00000115 562.21 127.87 417.07 570.97 750.46 373.22 920.54 352.24 908.45 446.04 791.05 569.66 932.70 551.75
00018889 00000116 562.28 128.01 416.67 571.00 750.59 373.29 920.52 352.45 908.61 446.05 791.10 569.68 932.54 551.92
00018890 00000117 554.14 130.14 422.27 566.42 740.58 369.20 914.88 351.68 892.50 440.05 783.83 564.57 927.66 548.39
00018891 00000118 547.40 126.04 423.58 564.76 725.94 364.74 907.85 348.50 873.60 441.70 772.13 560.47 916.03 544.49
00018892 00000119 537.22 129.72 429.74 556.78 710.00 366.03 894.09 350.12 857.68 441.46 754.26 554.77 904.48 539.52
00018893 00000120 527.54 129.22 431.88 563.79 700.46 365.75 882.90 349.54 845.64 446.47 742.87 557.31 894.04 542.60
CROP_BBOX: 306 0 1202 893
