Video ID: 	tvhrhU_5rXM
H: 	1080
W: 	1920
FPS: 	29.97002997002997

FRAME INDEX X0 Y0 W H [Landmarks (5 Points)]

00002419 00000000 866.73 149.32 469.38 630.43 917.23 409.63 1073.96 379.28 939.56 489.96 967.60 624.08 1088.34 598.36
00002420 00000001 873.11 139.50 456.96 630.05 920.07 403.29 1074.46 376.43 933.93 479.42 959.56 615.50 1079.26 593.03
00002421 DELETE   871.26 140.26 459.40 624.01 918.67 398.15 1076.60 371.16 933.02 470.84 955.68 606.98 1079.63 584.28
00002422 DELETE   874.68 129.55 452.90 630.10 916.09 389.72 1067.73 365.55 923.41 470.77 951.07 603.72 1073.55 582.18
00002423 00000004 879.00 123.60 448.70 628.41 916.31 382.62 1069.14 360.19 921.97 461.17 945.91 598.99 1065.77 579.92
00002424 00000005 884.10 110.23 443.54 626.31 920.60 366.29 1070.13 351.08 925.82 452.33 944.55 585.72 1054.98 573.69
00002425 00000006 890.49 101.91 436.56 620.09 925.85 359.01 1072.65 345.51 926.79 442.17 941.82 575.07 1048.41 564.58
00002426 00000007 892.55 89.41 434.45 621.22 931.29 349.18 1074.47 339.06 928.84 432.12 941.72 565.08 1044.85 557.81
00002427 00000008 899.36 84.70 428.74 617.93 936.25 343.19 1083.05 334.55 934.90 423.19 941.86 558.43 1047.94 552.76
00002428 00000009 912.12 82.65 423.00 604.70 941.66 343.61 1084.84 332.95 940.59 420.48 948.63 551.32 1049.61 543.84
00002429 00000010 912.86 83.86 429.77 599.62 948.20 342.28 1093.79 330.53 951.32 412.32 953.61 544.59 1054.98 536.34
00002430 00000011 914.11 82.55 434.36 599.11 950.90 339.44 1096.86 329.43 952.16 410.93 956.21 539.89 1058.89 533.12
00002431 00000012 918.10 83.21 433.61 597.49 953.04 336.98 1100.40 329.04 955.44 411.37 958.22 538.78 1061.98 533.62
00002432 00000013 922.44 81.09 432.70 599.29 954.28 336.29 1102.64 330.54 958.23 415.00 958.29 539.00 1063.32 535.97
00002433 00000014 921.46 81.46 431.48 601.47 953.45 336.37 1102.28 333.53 959.04 418.82 957.15 540.83 1060.34 540.07
00002434 00000015 921.32 79.86 432.59 613.56 954.85 336.82 1101.44 334.74 957.00 421.29 958.66 546.25 1059.89 546.03
00002435 00000016 920.91 81.50 438.30 625.11 955.79 339.24 1100.45 335.60 954.88 425.74 959.69 556.34 1060.86 555.03
00002436 00000017 917.48 88.16 444.98 636.58 958.64 345.10 1102.60 338.89 952.75 427.76 964.21 563.00 1070.42 559.09
00002437 00000018 918.28 91.43 443.27 637.90 958.77 349.78 1100.54 340.39 951.97 431.45 968.36 567.00 1076.21 560.29
00002438 00000019 916.49 90.21 447.26 630.74 957.87 350.20 1103.08 342.90 951.86 431.97 965.00 561.47 1076.75 556.65
00002439 00000020 911.93 88.73 451.24 624.13 954.61 351.69 1101.36 346.07 951.38 434.50 959.79 558.90 1073.63 555.65
00002440 00000021 913.54 96.52 449.39 614.52 952.38 354.04 1101.65 350.13 952.79 438.74 957.35 560.32 1073.08 558.46
00002441 00000022 910.88 101.21 457.17 616.07 951.07 355.12 1103.73 352.02 953.32 441.99 957.12 563.58 1075.06 562.22
00002442 00000023 910.40 106.24 460.34 615.22 950.47 358.41 1105.36 353.37 954.79 443.30 957.82 567.84 1076.29 564.73
00002443 00000024 911.35 110.52 456.89 613.75 950.92 359.93 1107.88 355.42 956.21 444.70 957.60 569.66 1077.68 567.10
00002444 00000025 910.81 110.50 456.91 614.31 951.16 361.21 1108.20 357.05 957.30 445.92 958.14 570.69 1078.37 568.43
00002445 00000026 911.39 114.92 455.99 608.94 949.49 361.98 1108.76 358.08 958.66 448.75 957.25 571.95 1079.53 569.89
00002446 00000027 911.45 114.58 454.90 606.17 947.99 361.18 1107.55 358.36 958.73 449.86 955.35 571.56 1077.47 570.44
00002447 00000028 912.45 111.42 451.33 603.89 948.03 358.87 1105.61 359.07 956.81 449.65 952.27 567.36 1072.79 568.93
00002448 00000029 911.96 115.50 450.55 599.47 946.32 357.73 1104.77 359.45 954.68 451.09 949.99 567.56 1071.32 570.37
00002449 00000030 912.08 114.70 446.45 601.43 945.20 356.44 1103.54 360.65 953.75 453.73 947.95 568.92 1068.82 573.91
00002450 00000031 910.73 118.15 445.17 599.83 945.62 357.38 1102.51 360.78 953.45 455.20 949.11 570.50 1067.87 574.76
00002451 00000032 910.06 119.23 444.27 597.28 945.67 357.74 1102.29 361.94 954.22 457.30 949.92 569.83 1068.63 574.64
00002452 00000033 907.87 117.95 446.17 599.62 946.24 360.54 1100.26 364.15 952.82 458.06 950.43 569.65 1067.14 573.85
00002453 00000034 906.84 120.55 446.91 602.32 947.73 363.52 1098.66 365.55 953.67 458.09 953.11 571.63 1067.21 574.48
00002454 00000035 906.26 122.21 437.68 602.95 942.90 366.47 1101.60 362.43 945.84 453.96 956.13 578.36 1072.22 575.61
00002455 00000036 902.53 131.57 447.31 593.86 945.32 373.45 1099.52 367.10 960.26 464.24 961.32 580.56 1074.26 576.65
00002456 00000037 900.13 132.25 449.45 599.30 944.62 376.15 1099.74 368.05 960.31 464.67 961.43 585.43 1073.59 580.00
00002457 00000038 900.14 130.89 451.27 604.53 945.03 375.33 1100.38 366.20 960.06 462.85 961.54 587.41 1072.00 581.30
00002458 00000039 901.60 123.69 451.31 617.97 945.86 370.12 1097.80 365.78 954.27 464.69 960.94 593.44 1066.11 590.53
00002459 00000040 905.24 122.91 449.15 617.23 948.61 368.01 1102.83 361.12 958.59 458.38 962.11 592.59 1066.95 587.66
00002460 00000041 910.44 118.40 448.73 618.98 952.01 363.37 1106.39 356.85 961.71 452.98 961.69 588.54 1068.05 584.24
00002461 00000042 912.41 115.53 453.02 617.36 954.78 361.85 1109.48 354.31 963.47 447.41 964.12 583.59 1070.90 578.29
00002462 00000043 915.23 112.51 450.06 618.39 953.65 357.52 1114.01 353.50 965.49 448.04 961.23 579.12 1076.11 576.94
00002463 00000044 917.83 109.21 448.93 619.54 955.08 354.69 1115.33 352.59 967.74 448.09 962.16 577.81 1075.51 577.31
00002464 00000045 919.68 106.15 451.42 626.13 956.70 354.51 1117.28 351.39 969.27 446.66 963.80 579.71 1076.56 578.41
00002465 00000046 921.58 106.86 449.70 625.39 959.04 355.68 1118.26 351.14 971.24 446.60 967.99 581.96 1077.24 579.24
00002466 00000047 920.47 107.36 451.62 627.65 960.00 360.36 1118.00 354.09 971.83 448.56 971.42 584.69 1080.01 580.46
00002467 00000048 919.87 109.05 451.94 628.26 961.49 362.48 1117.56 356.93 973.95 451.36 973.96 586.13 1081.71 582.33
00002468 00000049 916.59 116.06 453.41 621.75 959.12 366.05 1115.10 361.10 972.40 457.31 973.21 586.12 1082.56 582.65
00002469 00000050 914.23 116.02 454.88 617.07 953.70 368.42 1110.53 364.17 968.57 461.30 968.06 586.27 1078.28 583.54
00002470 00000051 912.37 116.45 453.73 612.21 950.05 366.44 1107.82 363.68 963.77 460.81 962.55 584.21 1074.74 582.76
00002471 00000052 911.99 118.02 453.96 604.98 949.56 366.18 1106.92 362.08 962.21 458.26 961.09 582.49 1073.29 579.89
00002472 00000053 911.23 116.79 451.29 606.38 949.08 363.37 1105.22 360.37 959.31 455.85 958.87 579.46 1071.67 578.00
00002473 00000054 911.83 115.20 447.42 607.57 948.86 360.82 1105.16 358.23 958.91 454.30 958.27 578.96 1070.67 577.91
00002474 00000055 912.54 114.06 446.31 606.84 949.25 359.93 1104.95 357.92 959.48 453.36 958.57 577.76 1070.10 577.13
00002475 00000056 913.79 112.36 444.69 608.70 949.15 358.99 1104.65 357.58 959.75 453.51 958.20 578.61 1068.73 578.58
00002476 00000057 914.50 113.70 443.62 605.64 950.47 360.21 1104.55 359.38 960.10 453.48 958.64 578.14 1067.27 578.39
00002477 00000058 915.46 114.39 443.09 605.37 951.15 361.88 1103.93 362.44 959.24 455.44 958.33 577.51 1067.63 578.82
00002478 00000059 914.22 113.80 445.68 610.02 951.05 365.69 1102.40 366.21 958.46 458.17 958.98 579.41 1066.87 580.67
00002479 00000060 914.62 113.32 445.48 616.18 951.35 369.17 1102.25 369.76 959.00 460.89 959.99 583.59 1068.07 584.96
00002480 00000061 911.56 116.61 448.72 617.31 953.89 371.80 1104.01 371.93 963.65 462.64 963.62 584.71 1071.73 585.55
00002481 00000062 910.36 130.47 450.22 605.02 955.14 375.59 1113.96 367.21 971.23 462.52 969.24 583.73 1089.33 578.77
00002482 00000063 910.63 131.06 451.09 606.49 955.49 376.46 1114.05 368.18 972.66 464.19 970.57 585.18 1093.67 580.16
00002483 00000064 909.78 132.66 451.09 607.13 954.07 378.48 1115.02 369.34 973.61 466.56 969.56 587.03 1095.28 581.15
00002484 00000065 908.93 134.41 450.96 605.45 954.30 379.39 1114.98 372.35 973.71 468.80 969.38 586.29 1096.44 581.88
00002485 00000066 909.43 133.86 449.99 605.56 954.35 380.74 1114.77 373.95 973.18 469.27 969.13 586.65 1095.49 582.51
00002486 00000067 908.67 136.67 452.22 602.98 954.76 382.08 1114.93 374.80 973.92 468.61 969.88 586.09 1094.42 581.53
00002487 00000068 908.39 136.17 453.14 605.16 954.62 383.09 1114.12 376.79 972.31 469.92 969.80 586.21 1093.93 582.34
00002488 00000069 907.03 136.51 453.01 603.57 953.17 383.61 1111.81 377.26 969.80 470.72 969.09 586.27 1091.22 582.23
00002489 00000070 906.01 137.83 450.29 599.46 952.59 382.23 1109.78 378.19 966.23 469.91 966.65 584.24 1087.84 582.17
00002490 00000071 905.28 140.09 448.78 595.69 950.76 382.45 1107.12 379.33 962.53 469.08 963.94 583.26 1083.23 581.90
00002491 00000072 904.05 140.21 445.49 594.73 947.30 381.52 1101.34 379.12 956.41 469.52 960.53 583.83 1077.76 582.83
00002492 00000073 902.14 138.84 444.11 593.60 944.21 380.85 1096.61 380.10 951.90 470.82 957.01 582.50 1074.38 582.76
00002493 00000074 902.16 138.71 440.51 593.31 942.69 379.13 1093.52 378.60 948.54 470.33 954.99 582.55 1071.97 582.94
00002494 00000075 903.55 142.05 435.44 589.15 941.47 378.36 1089.98 377.97 945.62 470.02 954.22 581.63 1069.13 581.94
00002495 00000076 905.85 133.01 426.12 601.12 933.55 371.16 1087.87 371.88 928.74 469.06 945.79 586.49 1064.10 587.37
00002496 00000077 904.60 133.29 424.72 602.19 933.26 370.81 1085.96 370.63 927.58 468.30 944.39 587.60 1061.28 587.83
00002497 00000078 905.03 129.64 423.97 604.92 932.77 370.53 1083.58 369.28 925.48 468.04 944.10 587.59 1060.56 586.87
00002498 00000079 904.44 127.74 426.23 605.64 932.14 369.68 1084.08 367.79 926.44 466.74 944.22 587.05 1060.78 585.89
00002499 00000080 904.33 129.00 426.26 603.45 932.20 368.62 1084.23 367.07 927.02 466.48 944.25 586.37 1060.15 585.62
00002500 00000081 904.90 128.47 423.96 602.63 932.99 368.59 1084.53 366.85 927.47 465.98 944.37 586.33 1059.24 585.58
00002501 00000082 904.94 127.70 424.43 601.82 932.75 368.22 1085.49 366.46 928.68 465.74 944.61 585.49 1059.81 584.79
00002502 00000083 905.51 127.99 425.38 601.83 933.11 368.82 1084.91 366.80 927.34 465.42 944.66 585.73 1059.34 584.75
00002503 00000084 906.35 127.54 423.40 600.86 933.23 368.96 1085.21 367.09 927.43 465.72 944.37 585.29 1059.58 584.34
00002504 00000085 906.87 125.76 422.76 601.33 934.35 369.71 1085.41 368.08 928.31 465.45 945.15 584.70 1059.52 584.06
00002505 00000086 906.29 125.41 423.82 600.73 933.65 369.32 1086.03 368.47 928.95 465.45 944.94 583.69 1059.42 583.79
00002506 00000087 906.63 124.93 423.68 599.11 933.29 369.86 1086.37 368.26 929.80 464.78 945.19 583.40 1059.32 583.08
00002507 00000088 906.48 124.27 425.23 600.21 933.50 369.19 1086.86 368.10 930.26 464.59 946.05 583.16 1060.20 583.13
00002508 00000089 906.50 126.13 425.17 597.70 934.72 368.53 1087.70 366.91 931.52 464.39 948.04 582.91 1060.93 582.26
00002509 00000090 905.17 126.02 428.90 601.96 935.94 370.00 1088.13 366.57 931.64 464.76 948.43 584.85 1063.04 582.47
00002510 00000091 902.52 126.98 437.67 605.00 937.79 374.45 1080.66 376.05 939.61 474.07 949.76 587.28 1055.56 588.85
00002511 00000092 903.82 132.24 438.07 604.32 939.52 376.33 1081.11 376.60 938.85 474.14 952.19 590.58 1056.49 590.99
00002512 00000093 901.24 133.75 442.68 610.04 942.85 379.83 1085.34 377.23 944.09 473.30 957.16 596.34 1061.52 594.24
00002513 00000094 901.19 138.65 444.16 598.96 944.92 383.52 1093.58 375.49 949.82 466.22 961.49 587.98 1070.44 582.34
00002514 00000095 901.96 139.64 443.93 599.85 945.44 382.96 1094.31 375.76 950.60 467.67 963.53 587.86 1076.23 582.76
00002515 00000096 902.03 138.04 445.43 601.68 944.97 382.24 1094.50 375.11 950.49 468.19 963.06 587.57 1077.03 582.62
00002516 00000097 901.05 138.86 447.36 598.45 944.30 381.56 1094.37 375.03 949.94 468.65 961.02 585.92 1076.73 581.55
00002517 00000098 902.75 136.84 443.73 593.06 943.02 377.80 1094.41 373.80 950.03 468.20 957.72 581.20 1078.13 578.85
00002518 00000099 903.05 136.63 445.36 586.49 942.70 377.18 1095.01 371.07 952.39 465.73 958.54 578.82 1077.53 574.82
00002519 00000100 905.49 126.18 445.57 596.33 942.19 369.96 1089.31 370.89 945.73 467.49 953.23 576.34 1066.02 577.98
00002520 00000101 905.05 122.61 447.45 596.89 942.59 369.49 1090.51 368.04 948.55 463.42 953.98 574.91 1064.94 574.73
CROP_BBOX: 606 0 1734 1034
