Video ID: 	GcwLIj3p8Ak
H: 	1080
W: 	1920
FPS: 	60.0

FRAME INDEX X0 Y0 W H [Landmarks (5 Points)]

00084325 00000000 931.60 235.64 377.85 532.35 981.09 434.89 1086.71 408.44 985.47 525.12 1032.21 631.22 1115.95 604.74
00084326 00000001 931.68 235.64 377.76 532.49 981.15 434.88 1086.64 408.36 985.44 525.08 1032.34 631.29 1116.00 604.73
00084327 DELETE   935.80 262.33 379.44 534.05 976.83 465.13 1084.55 439.19 981.27 551.81 1029.73 663.16 1112.25 639.43
00084328 00000003 935.72 262.40 380.21 534.61 976.76 465.50 1084.49 439.25 981.80 551.88 1029.96 663.25 1112.69 639.15
00084329 00000004 935.71 262.57 380.15 534.30 976.75 465.48 1084.49 439.24 981.80 551.89 1029.94 663.26 1112.67 639.15
00084330 00000005 926.13 261.82 376.23 531.52 964.26 466.47 1075.95 440.06 969.42 557.47 1018.76 665.73 1101.82 642.67
00084331 00000006 926.37 261.98 375.94 531.17 964.15 466.69 1075.90 439.91 969.35 557.56 1018.79 666.05 1101.87 642.68
00084332 00000007 917.92 258.34 380.80 540.68 957.50 464.31 1066.44 438.21 960.85 558.95 1014.16 665.49 1097.66 642.25
00084333 00000008 917.92 258.32 380.84 540.71 957.48 464.30 1066.45 438.20 960.84 558.95 1014.14 665.50 1097.66 642.27
00084334 00000009 917.45 258.07 380.73 540.28 957.03 464.13 1066.24 438.18 960.93 558.95 1013.93 665.07 1097.33 642.02
00084335 00000010 903.33 251.06 379.26 555.00 937.28 465.18 1054.08 435.21 945.00 562.45 995.69 670.84 1084.40 645.83
00084336 00000011 903.30 250.97 379.40 555.60 937.35 465.21 1054.12 435.24 944.95 562.36 995.77 670.87 1084.60 645.81
00084337 00000012 889.81 247.16 377.43 560.62 923.47 467.53 1042.89 437.47 932.90 561.21 982.89 670.13 1071.26 645.07
00084338 DELETE   890.14 246.24 377.22 562.44 923.53 467.43 1042.77 436.74 932.84 561.14 983.46 670.89 1071.66 645.32
00084339 00000014 890.03 246.36 376.97 562.91 923.59 467.41 1042.73 436.82 932.75 560.92 983.31 670.45 1071.91 644.85
00084340 00000015 887.16 246.94 376.99 553.40 918.91 465.12 1040.93 434.67 930.39 560.20 980.01 666.98 1067.34 642.44
00084341 00000016 887.29 246.71 377.00 554.09 919.09 464.76 1040.94 434.65 930.46 560.51 980.26 666.88 1067.62 642.54
00084342 00000017 883.55 246.30 382.16 560.44 916.90 466.65 1040.34 434.68 927.85 561.79 979.48 670.95 1067.04 644.33
00084343 00000018 884.16 244.94 381.04 562.16 917.61 466.69 1040.00 434.70 927.84 561.83 979.86 671.14 1067.15 644.57
00084344 00000019 884.05 244.10 381.55 562.90 917.39 466.61 1040.26 434.42 927.87 561.54 979.72 671.15 1067.24 644.40
00084345 00000020 882.22 243.70 388.89 567.06 916.91 464.97 1042.72 434.15 929.45 562.86 978.87 671.61 1067.82 645.83
00084346 00000021 882.38 243.43 388.72 567.03 916.69 464.57 1042.57 434.10 929.04 562.94 978.66 671.60 1067.56 646.13
00084347 00000022 880.98 242.32 387.55 569.88 916.55 465.63 1040.08 434.36 926.91 562.69 978.18 671.46 1067.38 645.42
00084348 00000023 880.94 242.45 387.43 569.67 916.58 465.53 1040.11 434.38 927.00 562.57 978.18 671.22 1067.41 645.27
00084349 00000024 881.01 242.51 387.44 569.70 916.62 465.50 1040.05 434.36 926.89 562.51 978.10 671.25 1067.32 645.31
00084350 00000025 881.70 230.68 387.53 580.56 918.23 458.56 1036.49 426.18 922.91 558.45 977.36 671.64 1062.20 644.26
00084351 00000026 881.86 230.32 387.57 580.56 917.89 459.16 1036.36 426.48 923.37 558.88 977.31 672.28 1062.00 644.81
00084352 00000027 881.49 229.90 390.29 583.18 920.06 454.91 1032.38 419.55 917.70 555.71 980.56 674.73 1059.97 644.60
00084353 00000028 881.53 230.14 389.77 583.30 920.57 454.79 1032.24 419.41 917.81 555.26 981.32 674.76 1059.95 644.58
00084354 00000029 881.41 229.48 389.73 583.69 920.26 454.68 1032.02 419.34 917.28 555.44 980.87 675.12 1059.12 645.03
00084355 00000030 879.72 224.87 386.79 598.96 938.40 443.06 1018.26 416.09 904.43 542.18 986.81 665.83 1069.60 639.78
00084356 00000031 879.76 224.94 386.81 598.79 938.55 442.78 1018.15 415.90 904.34 542.22 986.94 665.53 1069.82 639.55
00084357 00000032 872.19 220.77 399.61 589.47 929.17 448.40 1023.56 415.75 914.54 546.98 979.88 656.55 1059.89 627.31
00084358 00000033 872.15 220.35 399.60 590.28 928.82 448.57 1023.44 415.72 914.28 547.19 979.91 657.25 1060.01 627.83
00084359 00000034 872.04 219.08 399.31 591.41 928.87 448.53 1023.24 415.98 914.15 546.99 979.59 657.10 1059.48 627.95
00084360 00000035 870.97 213.25 406.19 596.59 926.37 444.94 1023.62 412.48 913.33 542.85 976.21 654.65 1055.65 625.97
00084361 00000036 870.82 213.40 406.32 596.45 926.20 445.00 1023.81 412.55 913.52 542.94 976.06 654.67 1055.77 625.98
00084362 00000037 869.50 202.06 409.66 605.43 924.21 438.10 1021.87 407.68 912.31 535.52 974.16 646.40 1056.60 619.57
00084363 00000038 869.51 202.44 409.59 606.01 924.17 438.07 1021.77 407.57 912.28 535.61 973.93 647.00 1055.68 620.18
00084364 00000039 869.67 201.97 409.77 606.70 923.86 438.75 1021.61 407.48 912.31 535.28 973.89 646.86 1056.52 619.37
00084365 00000040 862.33 189.51 414.57 615.55 917.46 433.05 1015.18 402.87 905.40 527.90 965.08 642.01 1049.22 615.94
00084366 00000041 862.78 190.17 414.09 615.41 918.05 432.57 1015.09 402.87 905.35 527.62 965.06 642.01 1048.48 616.34
00084367 00000042 857.49 183.42 414.75 618.91 914.29 427.44 1010.94 396.62 899.60 521.92 959.16 638.70 1044.82 612.31
00084368 00000043 858.21 182.12 414.77 620.94 915.32 427.06 1010.73 396.88 899.49 521.90 959.87 638.43 1044.46 612.56
00084369 00000044 858.17 181.07 414.03 621.44 915.47 427.08 1010.90 397.19 899.60 522.11 959.88 637.97 1045.04 612.35
00084370 00000045 857.88 168.84 414.69 617.91 912.76 423.71 1009.46 390.82 895.27 512.57 955.96 628.03 1044.01 600.24
00084371 00000046 858.02 168.66 414.84 620.18 913.46 423.50 1009.35 390.56 894.59 512.62 956.70 628.87 1044.64 600.89
00084372 00000047 861.49 157.35 419.00 625.83 915.71 409.06 1010.09 373.71 894.39 500.37 957.66 623.21 1041.45 593.05
00084373 00000048 861.51 157.36 418.98 625.98 915.74 409.05 1010.09 373.68 894.41 500.35 957.72 623.21 1041.53 593.03
00084374 00000049 861.58 157.38 419.02 625.92 915.74 409.03 1010.11 373.72 894.42 500.36 957.71 623.19 1041.50 593.07
00084375 00000050 864.11 136.91 428.56 622.24 920.16 389.63 1023.50 355.12 909.66 487.31 966.96 601.13 1055.23 570.62
00084376 00000051 864.14 136.93 428.52 622.18 920.16 389.63 1023.51 355.11 909.67 487.31 966.97 601.12 1055.24 570.61
00084377 00000052 872.52 114.82 431.05 634.71 931.34 372.83 1040.35 341.73 921.77 471.92 977.41 588.37 1066.53 560.42
00084378 00000053 872.48 116.21 431.21 634.57 931.59 372.18 1041.08 341.44 921.95 471.57 977.15 588.31 1067.00 560.63
00084379 00000054 872.47 116.22 431.20 634.62 931.60 372.17 1041.07 341.44 921.94 471.57 977.13 588.33 1066.97 560.67
00084380 00000055 881.81 112.23 431.93 634.62 939.93 372.95 1048.46 336.78 931.04 461.72 986.51 584.26 1077.97 552.71
00084381 00000056 881.85 112.13 431.84 634.77 939.77 372.92 1048.50 336.72 931.02 461.60 986.37 584.50 1077.78 552.91
00084382 00000057 886.17 107.46 437.66 643.82 943.26 372.95 1052.53 336.59 934.66 461.79 990.87 586.94 1082.68 555.81
00084383 00000058 886.81 108.72 437.57 642.12 943.89 372.80 1052.92 336.42 935.08 461.75 990.98 587.19 1082.19 556.12
00084384 00000059 886.55 108.63 437.70 642.36 943.64 372.64 1053.31 336.71 935.17 462.13 990.84 587.61 1082.18 556.93
00084385 00000060 891.99 109.81 441.50 643.95 946.22 375.45 1056.03 338.41 938.62 463.45 997.34 589.77 1089.15 558.51
00084386 00000061 892.07 109.77 441.55 644.04 946.28 375.50 1056.07 338.45 938.61 463.49 997.34 589.84 1089.13 558.59
00084387 00000062 893.58 122.38 441.23 638.14 941.36 380.98 1053.84 349.21 930.30 474.60 989.41 600.10 1083.78 572.56
00084388 00000063 893.77 122.13 440.61 636.63 941.81 380.42 1053.80 349.39 930.46 474.52 989.19 599.31 1082.73 572.42
00084389 00000064 893.95 122.92 440.88 635.78 941.71 380.25 1053.97 348.92 930.37 474.44 989.14 599.58 1082.85 572.41
00084390 00000065 894.83 132.68 441.81 639.94 940.55 388.79 1060.64 356.85 932.90 485.83 989.44 613.50 1087.65 585.65
00084391 00000066 894.98 132.62 441.60 639.70 940.67 388.95 1060.57 356.92 933.01 485.99 989.61 613.10 1088.12 585.17
00084392 00000067 904.44 143.50 432.47 646.76 955.67 406.26 1060.05 365.72 936.91 493.40 1003.64 626.62 1094.71 591.99
00084393 00000068 904.75 143.50 432.96 647.91 955.77 406.39 1059.99 365.49 936.61 493.56 1003.87 627.09 1095.17 592.11
00084394 00000069 896.52 147.63 439.77 639.41 947.91 404.33 1070.24 365.61 939.09 499.94 1003.76 631.39 1096.36 596.29
00084395 00000070 917.05 150.05 428.26 653.86 970.19 414.28 1070.32 379.15 944.80 501.85 1013.28 632.61 1105.63 602.19
00084396 00000071 916.88 150.06 428.60 654.49 970.41 414.41 1070.23 379.25 944.97 502.18 1013.34 632.94 1105.75 602.46
00084397 00000072 907.70 160.60 434.30 656.51 963.33 427.15 1060.93 392.16 939.29 513.91 1009.07 643.84 1099.72 613.53
00084398 00000073 908.35 160.55 433.32 656.25 964.24 427.36 1060.89 392.25 939.18 513.84 1009.80 643.67 1100.08 613.18
00084399 00000074 908.14 159.84 433.29 657.15 964.16 427.28 1060.58 392.32 939.44 513.98 1010.14 643.73 1100.13 613.37
00084400 00000075 894.41 171.56 438.07 650.76 951.41 436.99 1057.78 402.03 938.59 524.89 1000.33 652.33 1095.02 622.21
00084401 00000076 894.46 171.57 437.96 650.73 951.43 437.00 1057.81 402.02 938.58 524.88 1000.38 652.38 1095.07 622.23
00084402 00000077 886.45 188.85 436.81 634.41 941.17 451.28 1047.84 413.84 928.79 541.28 991.22 664.76 1084.15 632.15
00084403 00000078 886.73 187.57 435.92 636.19 941.67 451.41 1047.91 413.84 928.71 540.95 991.54 665.18 1083.86 632.46
00084404 00000079 886.64 187.71 435.91 636.34 941.36 451.50 1048.19 414.05 929.06 541.06 991.52 665.03 1084.35 632.43
00084405 00000080 873.11 204.83 422.76 633.44 920.45 462.99 1034.08 418.13 913.18 552.28 974.95 682.72 1068.18 643.25
00084406 00000081 873.06 204.62 422.72 633.58 920.38 462.95 1034.09 418.12 913.18 552.39 975.01 682.83 1068.33 643.37
00084407 00000082 853.88 217.58 429.85 644.84 909.51 473.45 1005.14 434.23 886.60 558.56 956.51 692.48 1046.16 657.84
00084408 00000083 854.11 218.49 429.15 642.47 909.04 473.72 1005.49 434.37 887.09 558.92 956.54 692.20 1046.54 657.49
00084409 00000084 854.13 219.11 429.53 642.74 909.17 473.65 1005.77 434.31 887.22 558.74 956.52 692.41 1046.64 657.69
00084410 00000085 837.22 219.64 430.44 635.00 886.53 474.45 1003.86 434.57 879.58 569.51 946.82 699.94 1036.67 663.69
00084411 00000086 836.89 219.08 430.33 634.32 885.99 474.41 1003.95 434.64 879.29 569.51 946.07 699.44 1036.36 663.36
00084412 00000087 832.98 221.63 436.03 647.07 878.51 477.88 984.99 435.92 865.39 566.72 932.49 700.91 1026.68 664.40
00084413 00000088 833.28 221.24 435.40 647.61 878.98 477.95 984.84 435.66 865.44 566.76 933.15 700.66 1027.15 663.81
00084414 00000089 833.31 220.88 436.02 648.54 878.76 478.38 984.84 435.54 865.33 566.71 933.26 701.02 1027.37 663.67
00084415 00000090 813.62 222.44 443.87 641.38 857.79 478.96 979.54 438.78 858.03 572.97 918.39 701.29 1017.16 666.78
00084416 00000091 813.66 222.55 443.98 641.71 857.81 479.04 979.52 438.82 858.00 573.01 918.43 701.35 1017.35 666.82
00084417 00000092 797.52 227.93 431.98 628.79 842.70 479.01 971.53 438.43 851.29 575.12 904.86 702.56 1003.13 667.74
00084418 00000093 797.42 226.94 431.98 630.38 842.83 479.20 970.99 438.58 850.86 575.37 905.25 703.00 1003.22 668.08
00084419 00000094 797.47 227.21 431.72 629.80 842.83 479.21 971.03 438.58 850.97 575.33 905.21 702.66 1003.53 667.70
00084420 00000095 787.45 227.54 440.86 640.77 843.89 480.18 957.69 439.77 839.09 572.88 901.41 701.33 998.35 664.94
00084421 00000096 787.43 227.57 440.83 640.61 843.84 480.18 957.69 439.72 839.13 572.87 901.45 701.32 998.42 664.88
00084422 00000097 792.01 230.54 436.71 634.56 837.06 482.92 969.10 440.00 848.54 580.34 904.17 709.33 1004.95 672.42
00084423 00000098 792.23 231.71 436.74 635.24 837.10 483.32 969.05 440.28 848.47 580.60 904.12 709.89 1005.32 672.86
00084424 00000099 791.85 231.61 436.63 634.33 836.82 483.18 968.97 440.15 848.56 580.42 904.13 709.57 1005.14 672.52
00084425 00000100 797.51 230.60 444.74 637.64 844.04 483.19 976.05 442.55 854.32 579.36 908.12 708.13 1010.49 673.28
00084426 00000101 797.45 230.60 444.77 637.34 844.04 483.20 976.09 442.63 854.37 579.41 908.03 708.00 1010.51 673.22
00084427 00000102 799.94 225.73 448.35 644.80 846.36 481.95 977.68 442.43 855.83 579.61 911.85 705.87 1016.14 671.99
00084428 00000103 799.87 225.71 448.37 645.05 846.31 481.96 977.75 442.41 855.78 579.54 911.85 706.12 1016.06 672.20
00084429 00000104 799.82 225.76 448.40 645.09 846.27 482.00 977.75 442.43 855.85 579.56 911.86 706.13 1016.13 672.20
00084430 00000105 800.75 221.98 449.43 640.45 845.73 480.11 980.14 440.66 858.71 576.82 913.01 703.29 1017.05 669.57
00084431 00000106 800.71 222.13 449.74 641.78 845.72 480.01 980.09 440.61 858.44 576.92 912.85 703.74 1017.11 670.02
00084432 00000107 817.25 222.59 447.61 644.17 859.98 478.33 988.28 439.18 864.71 571.95 918.52 703.50 1021.44 670.20
00084433 00000108 816.79 221.91 447.69 643.69 859.43 477.80 988.76 439.22 864.90 571.76 918.18 702.69 1021.32 669.89
00084434 00000109 816.77 222.42 448.05 643.43 859.41 477.68 988.84 438.70 864.95 571.92 918.41 702.97 1021.86 669.83
00084435 00000110 822.50 209.28 444.66 658.04 869.56 470.06 996.83 431.81 873.38 565.95 922.43 699.90 1025.96 667.34
00084436 00000111 822.48 209.26 444.64 658.50 869.62 470.07 996.82 431.88 873.42 566.02 922.53 700.04 1025.98 667.54
00084437 00000112 824.08 205.27 446.47 642.14 874.56 463.52 999.44 426.21 877.91 557.73 927.92 689.09 1028.48 657.57
00084438 00000113 823.52 204.85 446.22 640.58 874.02 463.07 999.24 426.31 877.61 557.50 927.22 688.31 1027.76 657.27
00084439 00000114 823.55 205.08 445.97 641.02 874.16 463.13 999.31 426.39 877.90 557.70 927.53 688.53 1027.95 657.49
00084440 00000115 828.23 202.00 444.66 635.12 881.68 460.68 999.47 425.94 883.44 556.74 935.83 683.37 1029.50 654.16
00084441 00000116 828.15 201.99 444.70 635.07 881.60 460.51 999.55 425.92 883.55 556.81 935.80 683.23 1029.66 654.12
00084442 00000117 827.14 202.95 437.67 643.45 876.47 458.45 987.86 425.22 870.80 558.16 931.03 681.58 1025.45 652.62
00084443 00000118 827.15 203.29 438.92 645.43 876.89 458.26 987.88 425.35 870.47 558.58 931.06 681.76 1025.85 653.02
00084444 00000119 827.48 203.74 438.87 645.12 877.21 457.86 987.95 425.22 870.87 558.35 930.88 681.73 1025.25 653.26
00084445 00000120 811.84 196.49 444.43 644.82 861.06 455.70 977.50 421.05 856.87 554.54 915.87 677.53 1013.80 647.33
00084446 00000121 811.82 196.47 444.55 645.01 861.09 455.68 977.63 421.04 856.86 554.34 915.63 677.45 1013.66 647.27
00084447 00000122 800.88 186.17 442.00 645.22 856.40 454.51 972.78 415.18 853.56 552.14 913.26 671.70 1009.13 637.39
00084448 00000123 800.87 186.55 441.93 644.07 856.16 454.04 973.16 414.96 854.08 552.44 913.44 671.65 1009.26 637.58
00084449 00000124 800.95 186.13 441.61 643.97 855.98 453.86 973.13 414.99 853.87 552.44 913.18 671.37 1009.13 637.49
00084450 00000125 785.99 172.61 440.64 656.21 844.00 443.97 956.99 412.03 836.59 546.63 896.48 661.34 989.48 632.95
00084451 00000126 785.96 172.58 440.67 656.30 843.81 444.23 957.00 411.98 836.67 546.71 896.48 661.53 989.63 632.90
00084452 00000127 778.92 165.44 439.06 656.89 838.70 432.03 943.31 406.74 821.46 537.03 885.51 650.54 976.55 627.81
00084453 00000128 779.57 164.75 438.25 657.92 839.02 431.82 943.18 406.48 820.65 536.63 885.24 650.80 976.02 628.03
00084454 00000129 779.80 164.11 437.82 658.52 839.19 431.49 943.29 406.53 820.88 536.70 885.23 650.58 976.05 628.09
00084455 00000130 768.84 154.18 448.60 667.17 829.37 426.07 929.14 397.88 809.30 529.47 876.31 645.40 969.13 620.18
00084456 00000131 768.92 154.09 448.50 667.28 829.46 426.06 929.11 397.92 809.27 529.44 876.30 645.41 969.04 620.23
00084457 00000132 758.91 147.12 454.54 674.17 817.97 409.55 920.14 385.32 796.23 522.56 863.62 640.72 959.90 618.58
00084458 00000133 759.40 146.08 454.74 676.89 818.51 410.29 919.99 384.92 796.09 522.17 864.44 641.05 960.93 617.80
00084459 00000134 759.50 146.12 454.73 676.92 818.50 410.29 919.95 384.93 796.05 522.17 864.41 641.04 960.91 617.80
00084460 00000135 746.08 132.76 464.37 688.42 805.77 398.00 915.21 371.89 783.90 513.56 855.75 636.63 953.18 612.78
00084461 00000136 745.94 132.77 464.52 688.43 805.78 397.95 915.20 371.92 783.88 513.56 855.77 636.60 953.19 612.81
00084462 00000137 732.91 114.96 466.29 687.56 786.45 389.00 910.59 362.02 778.19 508.60 850.00 629.89 949.56 604.72
00084463 00000138 733.74 115.71 466.10 689.04 786.71 389.39 910.26 361.85 777.47 509.23 850.68 631.60 949.50 605.90
00084464 00000139 733.22 115.34 466.88 689.13 787.31 389.41 909.96 362.10 778.06 509.07 850.77 630.50 949.13 605.09
00084465 00000140 716.70 94.91 478.62 689.21 774.17 378.97 904.50 350.37 770.18 498.93 841.13 620.28 939.54 594.26
00084466 00000141 716.74 94.93 478.48 689.07 774.17 378.97 904.54 350.39 770.27 498.92 841.15 620.21 939.55 594.22
00084467 00000142 699.96 83.52 489.32 713.12 763.71 371.83 893.18 342.82 754.07 497.90 833.55 621.44 931.23 594.40
00084468 00000143 699.54 82.64 488.97 714.62 763.81 372.16 893.24 342.83 754.45 498.02 833.48 622.45 930.32 595.11
00084469 00000144 699.42 82.32 489.34 714.70 764.11 371.69 893.13 342.79 754.38 498.10 833.73 621.58 930.62 594.64
00084470 00000145 685.80 79.45 494.12 738.49 742.72 370.79 875.33 336.83 732.88 501.69 815.90 630.68 921.81 598.66
00084471 00000146 685.77 79.49 494.22 738.61 742.69 370.78 875.38 336.82 732.89 501.71 815.84 630.69 921.87 598.67
00084472 00000147 675.41 79.02 493.73 748.05 726.66 379.77 856.58 337.41 713.31 502.14 799.25 638.47 904.51 599.89
00084473 00000148 674.58 78.22 493.41 747.07 726.12 379.30 857.06 337.56 714.02 502.56 799.25 637.93 904.65 599.88
00084474 00000149 674.46 78.22 493.60 747.16 726.07 379.31 857.09 337.57 714.09 502.57 799.24 637.94 904.64 599.91
00084475 00000150 654.18 89.53 503.44 756.75 710.76 391.19 847.97 353.40 707.30 515.45 788.33 651.99 903.79 616.02
00084476 00000151 653.98 89.35 503.62 757.52 710.84 391.10 847.99 353.46 707.26 515.52 788.22 651.95 903.82 616.09
00084477 00000152 645.72 108.62 496.72 749.37 704.32 394.20 848.56 358.73 709.62 524.66 774.11 667.90 892.29 637.05
00084478 00000153 646.64 109.84 495.90 748.56 704.83 394.91 848.76 358.66 709.63 524.47 775.26 668.61 892.93 637.13
00084479 00000154 646.19 110.70 496.53 747.51 704.22 394.99 848.78 358.41 709.72 524.59 774.63 669.06 893.08 637.26
00084480 00000155 641.26 117.89 514.13 757.06 699.27 417.84 845.94 381.66 703.89 553.13 775.43 687.48 902.35 653.11
00084481 00000156 641.01 117.96 514.34 756.84 699.01 417.84 845.99 381.65 703.88 553.21 775.23 687.58 902.36 653.19
00084482 00000157 644.08 117.37 519.58 768.01 702.69 429.18 848.54 391.64 706.68 562.83 777.80 695.23 905.38 659.61
00084483 00000158 642.81 114.76 520.48 772.03 702.11 428.89 847.78 391.13 706.71 563.18 777.84 695.96 905.93 660.12
00084484 00000159 642.52 114.75 520.85 772.87 702.07 429.06 847.99 391.03 706.68 563.05 777.82 696.10 906.29 660.05
00084485 00000160 642.67 127.14 525.81 766.57 698.20 434.35 860.92 401.46 710.43 566.27 768.05 704.89 904.01 674.67
00084486 00000161 642.30 127.41 526.15 766.32 697.55 434.70 861.12 401.59 710.46 566.34 767.44 705.16 904.16 674.78
00084487 00000162 645.64 122.47 528.52 768.13 702.25 438.95 871.94 399.84 718.31 571.84 773.61 711.24 916.64 675.70
00084488 00000163 644.83 120.91 529.15 771.50 702.14 439.01 871.69 399.68 718.21 571.70 773.67 711.75 917.02 676.01
00084489 00000164 645.32 121.02 528.82 770.31 702.05 439.15 871.90 399.46 718.65 571.73 774.14 711.98 917.27 675.97
00084490 00000165 656.86 118.59 528.69 760.65 718.30 435.95 883.89 392.41 737.67 567.52 801.00 705.43 935.83 666.31
00084491 00000166 656.58 118.91 528.83 759.97 718.03 436.13 883.92 392.34 737.70 567.62 801.04 705.83 935.86 666.49
00084492 00000167 676.81 123.36 516.65 748.72 739.55 428.71 907.45 391.71 760.53 566.25 826.61 695.92 957.20 662.08
00084493 00000168 676.80 123.32 516.63 748.77 739.55 428.71 907.44 391.71 760.54 566.24 826.64 695.94 957.21 662.10
