Video ID: 	Jr0DjNwksYU
H: 	1080
W: 	1920
FPS: 	25.0

FRAME INDEX X0 Y0 W H [Landmarks (5 Points)]

00008793 00000000 793.75 100.78 401.49 561.89 939.69 349.77 1117.35 342.95 1065.71 432.65 975.74 532.80 1122.67 526.07
00008794 00000001 799.86 99.12 402.28 554.48 953.85 342.78 1127.52 336.24 1083.48 420.33 987.03 521.60 1134.78 515.36
00008795 00000002 803.09 96.68 401.55 545.42 956.12 336.57 1131.67 324.58 1091.05 412.42 990.20 514.29 1140.75 503.83
00008796 00000003 805.70 94.40 400.41 544.65 958.94 331.91 1134.11 315.74 1097.97 405.64 991.90 508.64 1144.53 494.94
00008797 00000004 809.18 92.64 400.34 547.06 961.01 327.60 1136.12 310.61 1101.35 398.27 994.97 507.17 1147.10 492.90
00008798 00000005 809.91 92.45 398.90 547.40 961.74 326.73 1135.36 310.20 1101.77 396.23 995.34 506.98 1146.01 493.12
00008799 00000006 810.16 90.17 397.67 545.27 962.55 328.02 1135.45 308.91 1101.30 396.03 1000.08 509.38 1145.16 493.18
00008800 00000007 809.41 90.01 396.19 546.12 963.47 328.57 1136.40 310.42 1101.53 398.05 1002.42 512.09 1144.22 496.46
00008801 00000008 807.21 90.46 396.63 546.39 962.80 329.79 1136.13 310.24 1102.47 399.47 1003.60 513.63 1144.88 496.73
00008802 00000009 805.53 89.21 396.96 544.06 961.05 329.55 1131.83 310.27 1098.00 397.10 1002.19 512.10 1140.82 495.47
00008803 00000010 803.79 89.70 398.20 540.08 959.03 329.52 1129.95 309.98 1096.19 394.21 1000.92 509.68 1140.40 492.67
00008804 00000011 802.82 87.79 398.57 536.48 955.43 327.76 1130.30 308.23 1093.59 390.64 997.78 506.17 1141.57 488.80
00008805 00000012 801.24 85.66 398.84 535.12 953.76 325.48 1128.69 304.88 1092.90 386.40 996.98 502.85 1142.60 484.40
00008806 00000013 801.06 84.29 400.29 537.18 953.17 324.90 1127.01 302.41 1093.28 383.71 997.99 501.40 1144.84 481.49
00008807 00000014 801.04 84.64 401.56 538.50 953.76 323.93 1127.05 299.99 1095.02 383.07 997.26 500.33 1145.91 479.44
00008808 00000015 801.72 85.95 402.73 541.70 956.26 325.97 1128.80 301.07 1098.74 386.77 998.43 501.74 1147.58 480.25
00008809 DELETE   802.00 91.61 402.86 547.07 959.75 331.91 1134.71 312.02 1101.50 402.46 998.26 510.96 1146.97 493.86
00008810 00000017 803.63 99.27 404.68 558.75 966.28 343.19 1136.11 328.32 1103.33 422.17 1002.03 526.52 1146.53 513.55
00008811 00000018 804.12 112.56 408.61 558.91 958.66 351.80 1135.42 337.12 1085.80 443.07 994.24 535.45 1145.39 523.78
00008812 00000019 807.82 123.20 405.35 561.37 961.47 361.63 1137.36 348.46 1087.68 457.29 992.10 544.34 1145.28 534.11
00008813 00000020 809.28 124.91 402.92 571.35 963.29 365.89 1137.66 352.93 1089.46 460.85 988.78 547.87 1145.54 537.86
00008814 00000021 809.91 119.32 402.96 578.96 962.75 357.28 1137.63 343.10 1092.82 453.78 988.03 546.21 1147.14 535.37
00008815 00000022 812.04 115.71 404.04 573.29 965.10 345.78 1137.47 336.55 1095.05 437.64 990.96 532.49 1150.01 525.64
00008816 00000023 815.81 106.37 404.81 570.23 966.75 337.17 1142.92 328.91 1098.26 422.68 994.88 521.67 1155.84 514.93
00008817 00000024 816.45 104.78 407.04 563.60 966.91 335.47 1146.24 324.62 1100.05 415.64 997.79 518.04 1159.02 509.10
00008818 00000025 818.66 103.19 405.45 560.87 967.18 336.52 1147.82 323.33 1100.49 414.45 1000.09 517.68 1160.69 507.04
00008819 00000026 820.03 103.36 405.93 558.43 967.59 338.20 1150.00 324.64 1100.64 416.70 1000.31 518.81 1161.63 508.00
00008820 00000027 820.85 103.02 405.68 558.10 967.24 340.09 1150.20 326.86 1099.03 419.54 1000.17 520.66 1160.10 510.23
00008821 00000028 820.92 103.26 403.71 555.20 965.76 339.90 1147.79 328.35 1095.58 419.86 999.66 520.77 1157.00 511.84
00008822 00000029 819.83 102.82 401.56 552.49 963.76 339.40 1143.73 328.58 1090.80 419.06 998.57 519.74 1151.57 511.40
00008823 00000030 818.99 102.62 399.62 551.99 962.08 337.53 1138.27 328.08 1085.76 417.43 997.96 518.31 1146.55 511.05
00008824 00000031 816.85 99.84 396.19 550.12 959.76 338.63 1138.36 328.00 1090.82 419.23 994.32 522.77 1142.98 512.94
00008825 00000032 812.77 100.94 398.40 550.55 956.74 339.70 1135.94 330.18 1086.42 420.82 990.75 521.76 1141.66 512.67
00008826 00000033 810.60 98.65 397.98 553.41 952.20 339.79 1132.85 331.93 1080.72 421.64 986.53 521.59 1138.71 513.99
00008827 00000034 807.07 98.06 401.05 554.44 947.97 341.13 1127.92 331.69 1076.17 421.47 985.06 522.61 1136.64 513.66
00008828 00000035 805.79 97.81 402.97 557.73 944.36 341.47 1123.74 329.77 1072.79 421.67 983.28 523.86 1135.37 513.23
00008829 00000036 804.16 96.53 402.76 563.72 943.98 341.36 1118.98 328.16 1070.15 422.15 986.60 528.99 1129.74 517.21
00008830 00000037 802.45 97.19 404.92 570.60 942.25 341.34 1117.43 329.61 1068.42 423.17 983.18 530.87 1128.81 520.30
00008831 00000038 800.34 96.07 406.73 576.05 939.58 340.37 1117.87 330.41 1066.36 422.46 977.67 530.38 1128.82 521.24
00008832 00000039 797.92 96.21 408.52 574.68 935.93 339.15 1116.14 330.60 1062.52 420.24 972.08 526.82 1127.63 518.91
00008833 00000040 794.33 96.17 411.00 574.90 931.47 337.69 1111.68 329.89 1056.64 418.11 966.19 524.46 1123.25 517.00
00008834 00000041 792.62 94.96 410.44 574.65 927.00 335.82 1108.98 328.23 1051.03 415.69 960.23 522.67 1120.72 515.32
00008835 00000042 791.14 94.91 409.49 572.81 922.21 335.47 1103.41 326.41 1043.43 414.88 955.13 520.79 1116.72 511.97
00008836 00000043 789.17 95.17 409.36 569.84 916.42 335.08 1098.71 324.97 1035.70 414.04 949.89 519.67 1113.36 509.82
00008837 00000044 787.89 95.34 409.43 565.33 911.41 334.31 1096.04 322.93 1029.35 411.42 945.36 517.61 1112.04 506.27
00008838 00000045 786.61 93.74 408.66 562.99 908.91 332.62 1094.29 321.82 1025.92 409.61 942.46 515.89 1109.56 504.89
00008839 00000046 785.32 94.37 407.09 563.11 907.26 336.06 1090.48 324.90 1022.89 408.92 940.89 516.22 1106.33 505.20
00008840 DELETE   782.70 96.97 409.74 560.13 907.09 339.20 1086.53 328.70 1018.59 407.54 938.61 514.43 1099.90 504.28
00008841 DELETE   781.15 95.01 409.91 560.81 905.62 338.33 1084.55 328.68 1016.30 405.71 936.67 514.03 1095.64 504.84
00008842 00000049 779.52 94.25 411.45 561.14 902.15 338.18 1080.99 325.89 1011.86 405.36 935.49 515.21 1091.14 503.75
00008843 00000050 778.98 94.03 411.90 560.40 900.17 336.67 1078.47 322.48 1009.39 405.66 936.03 516.47 1087.79 503.32
00008844 00000051 779.69 94.87 409.44 559.29 898.68 335.78 1075.95 320.05 1007.61 405.67 936.76 517.80 1085.07 503.14
00008845 00000052 779.29 95.80 408.50 557.06 897.07 335.55 1073.25 318.87 1005.58 406.18 936.64 518.64 1082.00 503.21
00008846 00000053 777.65 95.98 408.38 557.95 896.10 333.78 1071.12 316.09 1005.34 406.59 937.67 519.49 1080.59 503.31
00008847 00000054 776.47 95.26 407.12 558.51 893.96 332.91 1068.45 315.06 1003.33 406.54 938.18 520.18 1078.68 503.75
00008848 00000055 774.66 94.25 406.15 559.64 891.28 331.53 1065.67 314.66 1000.12 406.93 937.00 520.81 1075.03 505.24
00008849 00000056 772.82 93.82 405.79 561.64 888.04 330.91 1061.71 314.74 996.12 409.60 934.00 521.63 1070.24 507.02
00008850 00000057 770.82 91.83 405.59 563.26 883.97 330.38 1059.79 313.82 992.04 412.07 930.94 523.85 1066.16 509.39
00008851 00000058 768.37 90.79 405.48 563.91 879.70 329.61 1056.34 313.76 986.63 412.23 926.79 523.50 1060.22 509.80
00008852 00000059 765.17 90.16 405.57 562.71 875.57 329.42 1052.73 314.61 981.06 408.29 922.55 522.21 1054.96 509.40
00008853 00000060 762.36 86.66 405.78 565.48 871.56 326.98 1050.33 314.03 976.34 407.38 916.71 520.08 1049.23 508.77
00008854 00000061 760.59 84.57 405.32 567.02 866.54 326.06 1046.47 314.49 970.14 406.03 910.29 519.22 1043.31 509.30
00008855 00000062 757.38 88.86 404.90 563.28 862.60 332.04 1038.70 320.41 961.70 408.38 905.37 519.92 1036.54 510.35
00008856 00000063 755.32 92.39 399.57 561.57 860.47 340.57 1031.93 330.09 954.39 410.76 898.92 521.86 1026.86 514.56
00008857 00000064 747.75 92.75 402.72 554.35 854.56 344.73 1026.88 331.30 946.97 420.02 891.05 527.49 1025.12 516.40
00008858 DELETE   741.82 95.77 404.94 558.84 848.58 348.48 1021.59 336.33 939.95 427.15 883.66 532.56 1019.13 522.35
00008859 00000066 737.54 96.32 405.32 563.98 842.60 349.28 1015.15 338.60 933.18 435.15 880.12 539.64 1011.85 530.69
00008860 00000067 735.72 96.61 405.51 569.17 840.64 352.19 1012.56 341.91 930.40 445.88 880.45 547.63 1009.29 539.25
00008861 00000068 734.79 101.10 404.33 574.08 839.25 357.15 1011.95 346.80 929.17 457.04 879.99 557.61 1007.85 549.09
00008862 00000069 733.40 105.25 403.73 577.94 838.99 361.55 1010.28 352.04 929.60 462.55 881.92 565.02 1005.74 557.13
00008863 00000070 732.33 105.77 405.13 579.87 838.36 363.89 1011.53 354.73 929.92 463.87 880.28 566.22 1007.52 558.53
00008864 00000071 731.17 105.13 406.12 570.18 837.58 361.47 1010.78 352.35 930.77 461.76 880.92 560.42 1007.68 552.66
00008865 00000072 728.15 98.56 412.35 567.62 834.44 354.29 1013.80 345.14 930.02 453.85 876.83 551.53 1011.50 543.24
00008866 00000073 728.60 95.94 410.95 562.47 833.68 347.61 1013.71 338.57 930.72 439.77 877.42 542.41 1013.90 533.99
00008867 00000074 727.18 93.72 410.33 560.91 833.50 340.82 1011.21 330.73 931.93 429.45 877.07 534.94 1012.20 525.50
00008868 00000075 726.08 90.16 411.07 557.79 832.54 335.55 1011.14 326.36 931.71 421.66 877.14 529.39 1012.18 519.94
00008869 00000076 726.32 86.27 409.55 556.03 831.26 330.84 1008.69 319.90 930.26 412.91 877.73 525.24 1010.18 513.94
00008870 00000077 725.23 82.47 409.75 557.77 827.79 326.57 1006.31 313.68 927.30 407.60 874.77 522.66 1009.10 509.44
00008871 00000078 724.40 82.19 410.24 557.70 826.92 325.81 1005.25 313.09 926.31 406.62 874.17 521.34 1008.97 508.24
00008872 00000079 724.11 82.89 410.66 558.67 829.90 329.84 1007.72 317.49 930.91 411.81 878.36 524.46 1011.72 511.78
00008873 00000080 727.60 82.43 408.04 558.87 839.93 330.31 1019.29 318.29 946.50 414.58 887.67 524.21 1024.09 512.15
00008874 00000081 739.83 75.27 401.30 549.09 861.60 321.99 1041.21 302.63 979.93 395.98 906.52 509.30 1048.94 491.69
00008875 DELETE   750.99 67.52 400.13 544.79 885.63 305.77 1066.74 290.85 1004.03 380.88 933.15 488.21 1077.15 475.38
00008876 DELETE   760.36 73.26 408.26 540.82 905.73 296.60 1072.38 274.37 1031.04 349.87 963.89 483.93 1090.55 463.88
00008877 00000084 767.75 68.25 410.08 541.34 919.04 282.91 1078.53 265.81 1043.05 334.24 980.14 475.30 1097.89 458.54
00008878 DELETE   775.87 63.89 405.98 539.67 923.95 279.01 1083.72 262.36 1046.04 329.06 981.21 468.62 1103.68 452.17
00008879 00000086 780.42 58.02 407.45 531.72 921.92 285.10 1098.77 271.61 1045.62 336.43 971.69 464.68 1113.63 451.78
00008880 00000087 788.87 64.12 406.61 531.10 925.60 286.49 1100.63 271.99 1048.43 339.67 974.67 471.23 1114.21 455.38
00008881 DELETE   792.93 63.33 402.40 542.41 930.73 293.69 1109.55 286.99 1054.02 360.23 970.21 479.52 1115.50 470.83
00008882 00000089 798.52 68.05 398.70 544.91 935.86 300.30 1113.91 296.52 1058.39 371.32 972.95 486.21 1117.33 480.75
00008883 00000090 802.36 68.26 397.91 542.55 942.05 300.56 1120.58 297.88 1064.31 372.70 978.24 485.52 1121.58 480.86
00008884 00000091 806.74 66.27 395.46 539.50 945.54 298.30 1123.70 294.05 1070.06 367.24 981.21 480.56 1125.86 474.97
00008885 00000092 808.47 64.72 397.53 540.89 949.82 296.46 1127.00 289.95 1077.47 362.29 987.52 478.99 1131.01 471.35
00008886 00000093 808.91 63.32 399.85 542.57 953.25 295.84 1133.42 288.11 1075.20 362.08 993.61 471.46 1142.54 464.96
00008887 00000094 807.83 62.92 401.65 540.63 953.21 293.47 1133.27 284.90 1076.33 356.42 996.01 470.93 1143.20 463.67
00008888 00000095 806.46 64.34 403.60 542.21 950.87 292.00 1132.32 283.46 1075.61 354.29 993.11 470.25 1144.85 462.83
00008889 00000096 805.46 63.63 403.99 544.33 949.65 290.64 1130.70 282.45 1074.90 352.53 991.94 470.16 1145.00 462.99
00008890 00000097 805.33 64.75 404.14 543.21 948.40 290.23 1129.68 282.11 1073.63 350.80 989.98 468.93 1144.67 461.84
00008891 00000098 805.29 62.06 400.78 541.90 944.40 290.45 1124.68 285.32 1079.36 345.44 983.65 471.34 1136.29 464.62
00008892 00000099 804.12 63.64 400.63 539.81 941.64 289.55 1123.67 282.34 1074.76 346.04 979.99 471.12 1134.60 462.74
00008893 00000100 801.60 65.07 401.22 538.19 938.02 287.71 1120.41 280.48 1068.98 344.69 975.93 470.44 1130.15 461.79
00008894 00000101 800.29 65.20 400.75 538.33 934.33 286.94 1116.09 279.37 1063.89 343.97 973.63 469.98 1127.79 460.92
00008895 00000102 799.35 63.85 399.51 538.52 930.94 286.84 1112.38 279.09 1058.59 343.17 970.60 469.50 1124.00 460.25
00008896 00000103 797.44 62.41 399.50 540.29 927.24 286.99 1110.37 279.05 1054.97 345.25 966.47 470.02 1123.06 460.55
00008897 00000104 796.65 61.82 399.05 542.32 926.09 289.47 1109.39 280.98 1051.15 351.74 963.87 472.89 1120.34 463.00
00008898 00000105 796.85 60.68 396.59 546.54 922.64 292.48 1106.10 284.35 1044.10 358.46 956.78 475.73 1114.51 466.31
00008899 00000106 794.38 63.29 396.78 550.76 919.73 295.40 1104.19 286.93 1040.40 366.12 952.41 480.86 1111.01 471.48
00008900 00000107 792.14 65.77 396.71 553.94 918.09 299.18 1101.23 291.59 1037.35 374.20 949.58 484.78 1108.04 476.64
00008901 00000108 790.36 70.02 398.21 554.94 916.05 303.14 1097.31 294.94 1033.68 380.32 950.16 490.63 1104.21 481.93
00008902 00000109 786.71 74.63 400.14 557.20 914.72 309.25 1094.48 302.28 1030.23 389.38 948.70 496.71 1101.30 489.01
00008903 00000110 783.49 77.36 403.26 561.73 911.27 314.60 1091.75 309.06 1026.44 397.73 942.81 502.75 1097.70 496.14
00008904 00000111 779.47 81.76 405.28 575.79 909.64 319.50 1089.31 317.01 1024.86 408.57 937.10 511.60 1091.81 508.31
00008905 00000112 777.07 85.38 407.48 594.38 910.49 329.22 1088.94 328.77 1024.62 422.89 935.16 523.95 1091.07 522.46
00008906 00000113 776.00 93.24 409.17 594.45 909.03 342.07 1089.15 340.11 1020.26 439.05 932.51 535.18 1088.12 532.47
00008907 00000114 774.84 100.36 412.51 598.58 910.84 350.86 1091.99 347.41 1022.67 454.24 933.62 548.74 1087.62 544.80
00008908 00000115 779.22 101.70 409.61 592.42 914.25 352.16 1094.57 348.72 1025.95 455.42 938.78 549.89 1090.18 546.06
00008909 00000116 787.67 94.72 403.23 581.86 918.10 342.40 1097.37 342.04 1028.56 437.08 946.40 536.03 1095.51 534.70
00008910 00000117 790.44 87.55 402.46 574.20 923.36 326.66 1106.24 331.82 1038.63 420.32 948.38 521.82 1099.44 524.94
00008911 00000118 796.94 76.29 399.51 566.30 929.62 313.66 1113.27 318.75 1048.05 406.43 955.11 508.15 1106.47 510.46
00008912 00000119 806.24 68.77 397.56 559.16 936.81 300.74 1118.05 303.74 1053.38 387.87 959.17 492.89 1109.76 493.82
00008913 00000120 818.18 63.62 391.01 551.28 944.20 294.32 1128.23 298.36 1059.03 376.61 961.37 479.11 1118.86 481.56
00008914 DELETE   822.34 58.99 397.19 549.76 956.78 278.93 1142.13 293.83 1062.47 363.29 973.19 464.38 1125.67 476.84
00008915 DELETE   826.33 58.35 402.63 544.57 965.56 277.56 1157.95 295.19 1077.03 356.01 982.07 460.75 1139.60 474.92
00008916 00000123 831.05 59.57 404.76 542.01 972.79 274.03 1162.78 291.30 1085.81 352.94 990.86 459.59 1146.08 473.23
00008917 00000124 834.36 58.56 405.35 548.30 977.66 271.95 1167.19 294.03 1088.66 352.34 988.29 458.66 1146.49 476.22
00008918 00000125 833.98 60.99 403.32 548.52 977.63 274.62 1167.27 297.53 1088.86 357.16 987.14 460.09 1147.62 478.29
00008919 00000126 832.06 64.36 403.17 548.11 976.82 280.76 1165.75 301.31 1088.52 366.71 985.65 464.67 1146.62 481.23
00008920 00000127 827.75 67.01 404.76 549.49 973.70 286.29 1163.05 303.55 1086.70 373.82 983.31 469.69 1145.33 483.82
00008921 DELETE   824.41 72.36 404.45 551.49 969.94 295.23 1159.17 310.66 1082.50 383.48 978.65 475.29 1143.22 487.92
00008922 00000129 822.23 85.07 399.90 558.32 967.15 308.64 1142.11 321.82 1077.02 397.17 974.22 490.56 1128.88 501.78
00008923 00000130 818.56 90.11 399.60 569.85 961.77 317.80 1136.95 329.51 1073.38 410.60 969.88 505.87 1124.84 515.60
00008924 00000131 816.77 96.39 396.31 576.45 966.21 326.88 1134.37 336.71 1082.31 417.33 971.30 512.81 1123.79 521.96
00008925 00000132 816.33 98.35 395.68 576.65 964.04 326.72 1133.93 335.46 1081.68 415.63 972.52 515.02 1125.68 523.01
00008926 00000133 814.83 99.62 397.34 576.54 963.22 327.48 1134.45 334.90 1083.35 415.70 972.76 515.20 1128.65 522.12
00008927 00000134 815.53 101.32 398.80 573.02 963.16 333.84 1135.98 339.31 1084.69 419.70 974.83 517.44 1131.64 522.58
00008928 00000135 816.77 99.94 403.70 571.43 957.71 335.14 1135.99 338.58 1074.40 424.28 978.39 520.97 1136.50 523.25
00008929 00000136 819.21 105.73 404.66 565.08 957.93 343.79 1140.29 341.44 1076.15 436.46 984.23 530.27 1141.68 528.12
00008930 00000137 820.03 116.65 403.42 558.38 956.04 354.67 1140.13 345.52 1075.05 452.35 981.61 539.60 1142.08 532.38
00008931 00000138 819.59 122.29 403.66 554.86 954.88 360.15 1140.25 350.97 1073.18 456.51 981.98 544.73 1140.80 537.70
00008932 00000139 817.07 128.40 403.43 551.22 953.86 366.78 1136.96 355.35 1069.63 462.45 982.15 547.96 1138.93 539.26
00008933 00000140 813.69 130.18 402.25 554.60 950.02 369.85 1133.93 359.27 1065.74 467.93 977.30 550.48 1136.61 542.63
00008934 00000141 813.81 135.16 394.96 551.33 939.09 375.65 1127.32 362.34 1064.29 476.07 963.35 560.38 1130.91 549.37
00008935 00000142 807.49 137.51 397.77 554.22 932.41 381.55 1119.87 365.92 1059.50 480.34 958.79 564.71 1126.47 551.45
00008936 00000143 799.92 137.93 402.48 561.06 927.16 385.51 1112.73 369.16 1054.07 485.38 955.08 569.99 1120.76 555.98
00008937 00000144 794.10 139.07 405.89 570.08 925.95 384.85 1105.11 371.66 1048.86 487.36 952.26 571.29 1113.84 559.50
00008938 00000145 788.72 139.87 407.71 572.94 921.79 385.67 1097.89 372.46 1042.14 487.32 947.89 570.98 1108.07 559.02
00008939 00000146 783.63 140.23 408.40 573.27 916.20 385.60 1092.85 371.85 1035.04 485.54 943.31 571.10 1102.39 558.57
00008940 00000147 777.91 139.70 411.94 573.86 907.04 384.65 1087.70 368.90 1026.47 484.58 937.30 570.45 1099.16 555.99
00008941 00000148 773.52 136.74 414.09 575.04 899.08 384.79 1080.91 366.11 1017.95 482.04 931.56 570.50 1093.76 553.34
00008942 00000149 771.59 135.25 414.95 572.25 893.35 385.16 1075.34 365.42 1011.03 478.80 928.64 570.38 1089.20 552.22
00008943 00000150 763.25 130.07 413.85 567.46 889.31 384.58 1071.75 366.64 1001.12 480.05 922.46 564.85 1080.08 549.38
00008944 00000151 762.86 130.49 413.19 561.30 886.33 381.76 1067.72 367.09 993.26 475.50 919.98 560.44 1074.06 547.70
00008945 00000152 762.38 127.88 414.35 559.91 882.75 377.43 1064.61 364.10 986.72 470.52 917.73 556.86 1070.70 545.02
00008946 00000153 762.52 123.64 415.14 560.39 880.62 372.86 1062.49 359.94 983.14 465.53 918.11 554.22 1069.53 542.47
00008947 DELETE   764.07 124.40 412.10 555.73 886.03 378.17 1062.04 368.72 982.37 463.87 918.17 550.99 1064.61 542.07
00008948 00000155 764.95 121.42 412.25 560.47 882.17 372.63 1059.70 364.94 977.29 457.95 914.47 548.84 1061.29 541.16
00008949 00000156 764.94 115.57 411.29 566.46 879.31 368.39 1056.92 362.60 972.93 456.27 911.47 547.40 1056.60 541.36
00008950 00000157 766.24 110.76 409.79 569.66 875.65 362.67 1051.42 356.39 969.13 453.70 911.64 547.03 1052.26 540.62
00008951 00000158 765.49 106.52 409.60 573.92 873.63 357.25 1048.28 352.09 967.23 451.02 911.02 548.45 1047.28 543.23
00008952 00000159 765.28 103.11 408.50 575.53 871.28 353.84 1046.60 349.36 964.55 447.21 908.50 547.54 1042.24 543.20
00008953 00000160 764.24 102.05 408.23 574.71 869.31 350.76 1044.02 347.49 961.88 442.17 905.50 545.41 1037.32 542.23
00008954 00000161 763.61 100.75 407.91 573.46 867.66 347.74 1042.52 344.88 959.99 438.92 904.32 544.00 1033.69 541.27
00008955 00000162 762.30 99.48 409.91 573.86 865.02 344.47 1042.87 341.95 957.65 434.55 900.41 541.84 1030.93 539.51
00008956 00000163 760.13 98.34 410.97 573.64 862.86 341.92 1042.94 339.90 955.33 432.12 896.61 539.71 1027.53 537.87
00008957 00000164 759.45 97.14 411.40 574.70 861.26 340.46 1042.08 338.29 953.02 430.15 894.59 539.72 1024.46 537.87
00008958 00000165 758.81 96.63 411.41 575.37 860.08 338.29 1040.98 337.49 951.04 429.13 891.84 537.79 1021.35 537.16
00008959 00000166 758.20 95.76 410.30 575.54 858.24 336.84 1039.33 336.74 948.25 428.38 888.55 536.46 1017.63 536.57
00008960 00000167 757.66 94.88 410.10 575.76 857.53 336.71 1038.28 337.89 945.61 428.39 886.08 535.06 1014.67 536.22
