Video ID: 	VtH6kiPbMBw
H: 	1080
W: 	1920
FPS: 	25.0

FRAME INDEX X0 Y0 W H [Landmarks (5 Points)]

00027576 00000000 534.51 262.28 409.32 556.87 654.58 494.56 840.10 513.59 738.49 621.46 650.65 676.18 811.92 692.89
00027577 00000001 531.51 259.27 414.75 553.02 655.75 490.14 840.00 506.76 740.55 614.54 652.54 673.22 809.60 687.55
00027578 00000002 529.60 248.36 412.77 560.53 655.63 480.00 839.41 498.24 742.46 605.09 652.91 667.47 807.94 683.07
00027579 00000003 526.71 232.89 413.46 578.25 655.36 473.32 835.06 492.50 745.08 594.14 650.66 662.54 803.89 678.60
00027580 00000004 524.25 217.35 414.29 587.57 655.59 471.23 835.34 488.75 742.16 581.73 651.07 649.79 803.40 665.94
00027581 00000005 520.43 203.35 413.43 584.07 650.97 449.62 831.14 464.76 745.03 559.98 652.08 637.19 804.63 651.76
00027582 DELETE   518.92 184.44 410.89 583.59 646.51 427.88 829.94 441.89 741.28 537.84 650.43 623.56 804.67 636.44
00027583 DELETE   504.83 172.37 411.32 570.07 629.90 418.61 812.03 427.64 728.12 519.17 650.09 610.22 797.46 617.27
00027584 00000008 502.25 163.09 411.05 561.77 623.55 403.76 808.31 415.93 721.69 496.90 645.48 596.32 791.80 605.38
00027585 00000009 498.37 159.50 411.29 558.52 620.39 393.49 807.10 405.34 721.89 487.72 641.27 589.52 787.94 597.85
00027586 00000010 496.21 156.96 410.86 555.16 614.76 388.91 801.04 397.68 716.87 484.23 636.62 585.10 784.40 590.90
00027587 00000011 493.05 155.27 413.65 553.67 610.43 387.25 796.80 395.12 711.33 482.99 632.43 583.85 779.28 588.85
00027588 00000012 491.65 159.30 414.45 551.62 607.93 390.58 794.77 399.53 706.70 485.12 628.02 584.59 776.44 590.57
00027589 00000013 489.27 162.34 414.95 552.59 606.67 394.29 791.90 405.46 702.30 488.20 622.96 584.03 772.23 592.26
00027590 00000014 488.11 166.01 413.45 553.77 605.47 398.83 787.13 408.80 698.67 492.19 621.76 586.52 768.48 594.14
00027591 00000015 487.73 170.22 413.19 554.55 604.85 402.08 784.60 411.80 695.94 497.75 621.44 591.11 765.38 598.71
00027592 00000016 487.95 173.10 413.23 552.83 604.69 407.95 784.81 418.51 694.83 504.38 623.02 594.29 767.35 602.61
00027593 00000017 488.19 178.20 414.14 548.43 604.55 410.67 786.31 423.23 693.02 507.74 621.07 593.25 768.63 603.02
00027594 00000018 490.64 182.64 411.82 546.91 605.10 412.84 785.05 424.70 691.41 513.36 620.21 593.70 768.92 603.17
00027595 00000019 492.28 183.12 412.13 552.14 604.77 415.87 785.80 428.25 690.51 518.57 619.49 597.61 770.09 607.42
00027596 00000020 493.78 187.62 413.49 551.42 606.34 420.19 787.21 433.20 690.22 523.89 621.17 602.76 770.08 612.98
00027597 00000021 494.93 190.83 412.84 549.37 607.10 423.96 789.25 437.82 691.28 529.08 622.37 607.02 770.95 617.98
00027598 00000022 495.16 191.23 413.05 549.77 607.18 425.11 791.66 439.41 692.82 532.09 623.10 609.70 773.69 621.15
00027599 00000023 495.61 191.76 415.15 549.20 606.57 422.99 793.50 437.67 692.16 532.74 619.19 608.44 774.44 620.45
00027600 00000024 494.39 192.57 416.14 549.74 605.90 421.49 793.61 435.78 691.80 532.05 619.83 609.30 773.77 620.90
00027601 00000025 494.28 190.37 416.10 558.90 606.93 421.49 793.11 434.78 692.47 532.93 624.74 615.27 772.33 626.07
00027602 00000026 495.03 190.03 414.44 558.16 607.55 420.17 791.15 434.31 690.43 531.65 623.61 614.65 766.04 626.50
00027603 00000027 494.16 190.37 414.56 555.72 607.11 418.38 791.24 431.50 691.42 529.41 622.07 611.07 767.32 621.95
00027604 00000028 492.76 188.87 414.99 556.77 604.73 417.66 792.40 430.39 691.39 528.56 616.08 605.49 774.34 615.83
00027605 00000029 491.48 190.67 417.50 555.01 604.80 418.38 791.88 431.03 690.88 530.26 615.87 604.50 774.08 614.74
00027606 00000030 493.55 192.34 417.99 556.68 605.08 420.74 794.46 433.89 692.24 537.81 617.49 608.63 778.30 619.25
00027607 00000031 493.91 193.93 419.63 564.21 607.70 426.55 795.64 439.50 693.75 544.02 620.42 618.11 775.62 628.40
00027608 00000032 494.34 199.00 418.95 568.98 607.90 431.21 795.59 446.54 692.71 549.98 618.45 625.65 771.29 638.20
00027609 00000033 500.12 204.14 417.21 570.97 605.89 437.12 795.16 449.52 695.52 554.31 620.91 635.65 770.52 644.44
00027610 00000034 497.73 211.97 417.57 567.58 606.66 443.44 794.78 456.83 694.98 561.06 616.04 638.89 770.14 649.02
00027611 00000035 496.13 217.50 418.62 566.38 608.33 448.94 793.29 464.27 695.44 565.57 614.28 639.19 770.81 650.95
00027612 00000036 495.94 221.02 420.01 565.09 608.45 452.57 791.26 468.55 694.18 567.76 613.23 641.10 767.96 653.34
00027613 00000037 497.37 222.89 419.72 565.85 609.38 453.82 790.62 470.74 693.22 567.80 613.48 643.02 767.18 656.02
00027614 00000038 497.85 223.76 419.87 566.10 609.71 454.85 791.37 473.05 693.06 568.02 613.72 645.62 765.90 659.59
00027615 00000039 500.28 223.63 416.19 565.62 608.72 455.38 791.74 472.77 692.87 569.25 615.72 651.71 764.04 664.98
00027616 00000040 504.19 224.24 416.00 570.65 613.16 458.11 799.87 477.10 687.79 581.21 613.67 647.68 765.09 664.91
00027617 00000041 503.88 226.33 415.67 563.37 609.52 458.98 793.72 476.59 691.77 573.42 616.26 655.91 764.96 669.53
00027618 00000042 503.47 226.77 412.70 561.00 606.56 462.93 793.75 480.34 689.94 576.03 614.04 659.73 765.51 673.36
00027619 00000043 502.69 229.96 409.98 558.58 605.62 466.04 792.57 481.17 689.88 577.88 614.91 663.09 766.10 675.01
00027620 00000044 500.64 232.43 413.10 557.97 604.64 466.22 791.50 480.19 689.38 579.67 614.66 665.53 765.14 676.40
00027621 00000045 499.84 235.07 414.46 556.86 604.74 467.26 793.01 480.50 690.49 580.76 615.60 666.66 766.53 676.96
00027622 00000046 499.67 235.87 414.82 557.53 605.86 466.35 792.21 478.13 692.18 579.34 619.37 666.63 765.58 675.63
00027623 00000047 498.86 235.75 414.58 558.92 605.79 465.62 790.49 477.04 692.22 579.30 620.57 666.73 763.89 675.34
00027624 00000048 498.42 234.72 413.97 558.36 606.54 463.70 789.01 475.95 692.15 577.19 621.17 664.72 761.51 673.95
00027625 00000049 498.95 234.54 413.12 559.36 606.93 462.93 788.87 474.59 693.14 576.81 622.54 665.09 762.09 673.86
00027626 00000050 498.94 232.61 414.42 561.14 607.52 462.60 792.71 475.24 695.44 577.38 621.88 664.51 766.47 674.03
00027627 00000051 498.77 231.17 416.17 564.65 607.78 462.68 796.19 474.88 697.90 578.98 623.17 666.28 771.26 675.43
00027628 00000052 500.04 232.87 414.87 561.46 608.01 464.72 797.25 475.11 698.59 579.54 624.79 668.13 773.11 675.85
00027629 00000053 500.30 232.87 415.33 562.69 609.19 464.72 797.31 475.87 699.25 581.19 625.84 667.73 772.70 676.02
00027630 00000054 499.29 231.95 416.05 563.10 609.12 464.48 799.41 477.54 700.07 581.98 622.65 664.37 775.87 674.41
00027631 00000055 501.78 231.34 414.08 562.88 613.39 466.96 801.34 482.49 701.24 582.21 623.59 661.32 776.94 673.62
00027632 00000056 505.37 229.36 413.49 564.56 619.73 466.93 803.54 486.42 704.41 581.14 627.25 659.26 776.66 674.79
00027633 00000057 506.30 230.24 409.34 561.12 621.29 468.88 806.68 485.67 704.01 589.17 626.51 660.41 774.73 673.82
00027634 00000058 506.03 226.15 412.19 565.17 617.01 464.23 804.22 482.55 704.39 578.30 629.34 661.02 778.34 675.14
00027635 00000059 506.56 226.70 413.33 564.31 619.88 462.88 807.10 483.48 707.29 577.40 629.05 657.14 780.17 673.27
00027636 00000060 507.86 231.97 412.01 557.55 623.32 466.77 813.63 485.54 708.03 589.08 624.50 653.00 784.32 667.74
00027637 00000061 508.43 231.63 411.14 557.41 624.57 465.94 814.59 485.17 708.74 587.59 625.64 651.14 786.23 666.18
00027638 00000062 509.66 227.30 413.86 568.74 630.43 463.19 817.36 482.60 710.87 581.88 626.54 644.59 783.74 663.09
00027639 00000063 510.80 227.01 412.24 566.80 631.75 460.54 817.76 480.81 711.30 580.33 627.57 642.94 782.43 662.17
00027640 00000064 511.07 226.57 412.50 566.09 633.05 459.35 819.17 480.05 713.16 578.79 628.40 643.19 781.67 662.78
00027641 00000065 507.47 225.85 412.83 561.21 629.26 460.07 816.85 478.42 714.81 580.76 632.04 653.17 783.28 667.66
00027642 00000066 507.81 225.02 413.46 563.56 629.75 459.41 816.59 477.35 715.40 579.94 633.61 654.44 782.77 668.70
00027643 00000067 511.62 218.47 414.85 577.55 636.44 456.07 821.05 477.41 717.96 573.85 631.46 646.78 778.20 667.01
00027644 00000068 512.34 217.62 415.07 580.76 637.95 458.72 820.25 479.20 719.36 573.32 634.12 647.14 780.16 666.51
00027645 00000069 513.44 218.92 413.78 580.07 640.60 462.72 821.32 481.58 723.41 574.53 637.37 647.54 784.06 665.51
00027646 00000070 514.07 220.65 414.29 577.60 641.38 464.30 822.91 481.54 726.09 576.16 638.98 648.45 787.44 665.17
00027647 00000071 515.63 220.56 413.00 575.00 643.47 464.99 826.08 480.66 730.20 576.61 641.23 648.19 791.39 663.63
00027648 00000072 517.41 219.83 413.43 574.15 646.16 465.36 829.17 479.64 735.19 575.12 647.47 650.07 795.39 664.22
00027649 00000073 517.21 219.73 414.91 572.74 650.10 464.32 832.08 478.40 741.52 571.12 654.38 651.90 795.69 666.06
00027650 00000074 521.61 216.72 413.54 575.51 653.82 464.45 835.28 477.77 746.76 572.01 659.99 654.07 799.47 667.50
00027651 00000075 523.48 215.07 415.47 575.29 656.82 464.75 840.24 477.02 752.12 572.30 665.16 654.38 805.91 666.77
00027652 00000076 523.81 218.51 417.16 571.56 663.87 464.76 848.01 476.81 761.13 572.68 674.20 654.85 812.62 667.23
00027653 00000077 527.54 215.83 412.62 576.14 673.20 463.16 855.85 474.30 774.79 572.76 681.89 654.95 820.90 666.47
00027654 00000078 529.61 214.81 412.30 574.52 681.34 463.56 865.16 474.54 786.87 569.58 688.27 653.71 828.87 665.20
00027655 00000079 530.99 207.96 410.93 579.03 685.84 461.76 869.10 471.54 795.56 567.38 695.89 653.57 836.19 663.87
00027656 00000080 533.26 203.94 410.60 579.37 688.87 461.92 874.41 471.49 801.79 564.46 701.62 653.50 844.07 663.18
00027657 00000081 536.71 201.50 407.85 579.84 693.38 462.62 878.15 472.43 807.05 563.24 706.63 652.88 848.70 662.36
00027658 00000082 537.34 202.30 408.71 578.33 697.28 461.91 880.20 471.49 812.00 564.10 710.31 652.57 850.48 661.82
00027659 00000083 538.11 200.20 411.49 581.96 698.88 462.28 881.30 470.81 814.15 562.73 712.31 653.28 852.19 661.61
00027660 00000084 539.10 201.13 411.42 580.86 700.44 462.80 881.52 471.00 815.49 562.53 714.26 653.74 852.58 661.70
00027661 00000085 539.64 201.86 412.70 580.91 701.92 462.59 882.54 470.86 817.06 563.03 715.54 654.32 853.31 662.25
00027662 00000086 539.23 203.55 413.20 580.77 702.60 462.88 883.22 471.78 818.24 563.60 715.56 654.70 853.93 663.21
00027663 00000087 539.50 203.28 412.64 581.11 702.35 463.69 882.78 472.70 817.60 564.15 714.90 655.02 852.90 663.68
00027664 00000088 539.57 204.06 412.61 579.50 702.27 464.33 883.17 472.94 817.49 565.04 714.83 655.63 852.57 664.07
00027665 00000089 539.91 203.81 411.08 577.78 701.57 465.14 883.87 473.83 817.59 565.57 713.45 654.54 854.06 662.90
00027666 00000090 539.56 204.82 410.14 573.84 701.03 465.44 885.73 476.04 818.26 566.40 708.18 650.34 856.15 659.89
00027667 00000091 539.63 204.60 407.85 570.06 700.91 465.04 884.95 475.10 817.57 565.32 708.90 649.04 854.90 658.19
00027668 00000092 538.02 203.61 407.84 571.29 700.08 465.36 884.33 474.28 817.69 566.49 708.58 649.32 854.80 657.56
00027669 00000093 536.87 201.87 407.43 571.89 699.10 465.45 883.41 473.28 817.28 566.32 708.82 649.19 855.05 656.58
00027670 00000094 536.44 201.39 407.35 572.90 698.52 465.69 882.65 472.50 816.84 567.03 708.83 649.77 854.92 656.38
00027671 00000095 536.19 201.29 407.60 575.43 698.36 465.44 881.58 471.64 816.46 566.60 709.05 649.92 854.92 656.09
00027672 00000096 535.56 201.96 407.69 574.33 697.95 463.92 880.31 470.79 814.08 566.07 709.81 651.02 850.61 658.10
00027673 00000097 535.47 202.35 407.06 576.28 698.34 463.45 878.83 470.90 813.34 566.65 710.41 651.17 849.00 658.82
00027674 00000098 536.63 201.80 404.68 576.99 698.04 464.15 879.23 470.69 813.63 566.11 711.01 652.41 849.94 659.33
00027675 00000099 535.89 202.19 405.31 575.68 697.80 463.56 879.32 471.48 813.23 564.24 709.34 651.37 848.67 659.50
00027676 00000100 535.57 200.47 406.10 584.67 698.93 462.47 878.28 471.22 813.75 563.28 710.05 652.64 847.99 661.54
00027677 00000101 535.69 198.48 407.43 596.18 697.63 460.58 878.99 471.51 813.89 563.52 702.36 650.51 849.85 660.96
00027678 00000102 536.15 198.45 407.48 594.71 698.64 459.27 878.60 468.81 816.19 562.30 702.75 646.75 852.76 655.78
00027679 00000103 535.87 202.88 404.44 573.49 702.18 455.48 876.83 464.63 818.49 556.88 706.75 635.87 851.87 644.57
00027680 00000104 535.39 208.05 403.62 554.58 704.34 452.64 882.61 460.44 824.79 553.95 709.86 628.92 856.34 636.46
00027681 00000105 534.24 209.37 404.25 548.50 706.79 452.13 884.69 458.94 829.34 552.37 711.30 626.75 857.43 633.79
00027682 00000106 530.87 210.03 406.47 549.19 706.21 450.04 884.63 458.33 828.89 552.21 713.18 631.29 854.08 639.69
00027683 00000107 530.52 211.91 405.06 548.19 703.87 450.80 886.07 457.01 828.90 554.15 715.11 636.67 856.65 643.40
00027684 00000108 530.18 208.48 403.69 557.67 702.48 453.17 883.47 457.97 826.73 555.02 718.29 642.13 854.61 647.88
00027685 00000109 530.91 206.99 402.30 560.69 703.73 451.11 879.81 457.02 824.64 551.77 719.78 641.79 850.43 648.58
00027686 00000110 528.99 201.48 405.31 559.34 703.23 446.25 881.65 451.84 826.99 543.81 721.48 637.43 854.96 643.68
00027687 00000111 529.38 193.27 407.31 564.78 702.24 437.04 880.70 444.10 824.68 536.75 721.11 632.12 855.50 639.41
00027688 00000112 529.42 187.25 406.96 568.17 700.37 430.81 877.51 438.69 821.81 528.17 722.13 626.89 854.58 634.65
00027689 00000113 527.67 187.40 407.42 575.08 699.13 431.19 875.27 438.70 821.46 530.72 716.66 626.36 853.66 633.77
00027690 00000114 527.17 193.36 407.96 569.46 699.35 434.45 877.09 439.67 822.83 535.35 713.38 626.02 854.84 631.83
00027691 00000115 527.99 198.62 406.74 564.14 702.58 442.86 880.17 448.64 826.52 543.43 714.33 628.45 856.06 634.61
00027692 00000116 528.94 206.50 403.75 558.77 703.96 449.71 882.08 454.50 830.15 549.84 714.49 632.21 858.83 637.26
00027693 00000117 531.72 205.46 402.60 560.10 707.65 454.63 885.48 458.15 834.77 554.19 717.48 633.44 862.45 637.22
00027694 00000118 535.18 205.99 404.26 554.53 713.17 454.96 887.65 454.88 841.06 553.35 726.17 631.56 865.87 632.10
00027695 DELETE   544.47 205.87 400.45 557.92 722.80 453.50 895.23 448.57 855.22 549.79 741.55 631.99 879.83 627.70
00027696 00000120 545.14 201.20 409.44 564.42 740.27 442.71 904.58 439.76 878.63 536.78 761.45 627.77 894.63 625.30
00027697 00000121 555.22 194.80 402.60 569.56 752.99 444.08 913.53 439.23 893.79 535.48 777.61 635.00 904.17 630.74
00027698 00000122 561.05 197.16 395.85 565.10 756.19 446.31 916.80 437.25 898.67 533.61 787.28 639.67 908.25 631.47
00027699 00000123 560.60 197.51 395.76 563.67 754.42 447.36 916.03 435.30 898.70 536.84 787.94 642.29 909.51 631.65
00027700 00000124 561.40 200.99 395.47 563.27 752.33 448.27 916.60 435.20 897.52 542.31 784.55 645.17 909.55 634.05
00027701 00000125 557.96 201.96 397.56 565.04 747.91 449.50 913.29 436.62 892.81 546.24 779.24 645.56 906.49 634.83
00027702 00000126 556.39 203.94 398.54 561.62 744.65 451.12 911.64 439.43 888.59 550.69 773.64 645.05 903.73 635.77
00027703 00000127 554.46 206.11 400.15 560.73 742.75 451.32 912.39 443.22 885.98 554.07 769.28 644.68 903.17 638.31
00027704 00000128 553.62 207.42 399.91 561.90 739.34 451.59 911.41 444.52 880.77 554.02 766.64 645.75 900.74 639.89
00027705 00000129 553.07 209.10 401.95 563.17 737.99 450.82 909.84 446.21 875.89 553.50 764.88 644.85 898.61 640.70
00027706 00000130 552.03 211.20 402.27 561.82 736.13 448.99 907.69 446.24 871.73 553.50 761.41 643.43 895.34 640.92
00027707 00000131 550.43 208.72 403.60 561.39 734.58 447.37 909.39 445.32 871.45 553.11 759.89 641.72 896.46 639.88
00027708 00000132 549.91 208.61 403.09 563.61 734.05 445.17 906.13 445.76 868.03 550.69 760.35 643.65 891.42 643.61
00027709 00000133 547.52 211.81 401.51 563.24 735.04 446.92 901.24 446.34 864.82 554.26 759.39 647.73 882.97 647.02
00027710 00000134 546.87 213.50 403.78 565.34 733.81 447.99 899.69 447.12 862.65 555.76 755.66 646.58 882.93 645.72
00027711 00000135 547.34 213.02 404.01 563.99 733.36 448.61 902.39 446.35 864.92 557.11 755.10 644.18 888.50 642.37
00027712 00000136 547.21 211.28 403.20 563.89 731.59 448.79 904.64 448.42 864.19 557.65 753.34 644.38 888.97 644.10
00027713 00000137 546.87 210.16 402.38 561.75 731.53 448.22 905.94 449.17 865.27 558.95 752.11 644.33 888.95 645.45
00027714 00000138 549.65 210.03 398.28 561.91 733.07 460.77 906.25 461.93 865.56 562.14 749.02 647.02 889.29 648.63
00027715 00000139 550.66 215.32 396.49 559.75 738.41 460.52 903.77 463.16 864.66 559.11 751.64 648.73 880.70 651.53
00027716 00000140 548.64 216.37 399.60 560.80 735.72 460.22 901.64 462.42 862.57 557.74 749.85 647.19 880.66 649.44
00027717 00000141 547.37 209.85 402.14 565.47 732.75 454.47 900.38 457.12 860.52 556.86 749.26 644.78 881.94 647.17
00027718 00000142 546.43 209.95 404.68 564.61 731.73 448.03 902.81 449.78 862.73 554.81 749.86 639.53 887.03 641.26
00027719 00000143 545.86 210.52 405.41 562.99 730.42 445.96 903.50 447.86 862.26 554.50 748.04 636.86 888.06 638.82
00027720 00000144 544.68 210.60 405.85 564.44 731.10 445.23 902.32 448.28 861.88 555.53 746.69 636.78 885.76 639.84
00027721 00000145 543.49 211.92 406.42 563.98 730.13 445.73 901.91 448.19 860.61 557.70 743.92 638.40 883.99 641.16
00027722 00000146 544.55 211.07 404.70 560.88 729.15 445.00 903.19 448.34 860.42 558.87 742.67 637.27 884.83 641.01
00027723 00000147 544.25 210.67 404.73 559.16 728.68 443.53 902.90 447.17 860.05 557.43 741.74 635.24 884.68 639.45
00027724 00000148 543.93 210.32 405.30 560.93 728.41 443.00 901.41 446.40 859.28 555.72 743.36 635.72 884.38 639.37
00027725 00000149 544.76 207.71 404.46 561.61 728.95 441.01 901.15 445.61 858.58 554.34 743.10 633.07 883.94 637.75
00027726 00000150 543.06 206.24 403.99 562.07 723.16 449.39 898.81 446.48 855.29 555.56 742.09 637.49 881.30 635.05
00027727 00000151 541.74 201.42 404.61 560.36 721.75 443.64 896.82 441.67 853.10 549.68 741.72 632.47 879.11 631.03
00027728 00000152 538.83 197.66 406.82 560.03 720.54 441.30 895.40 441.27 852.21 545.27 740.95 628.42 877.83 628.44
00027729 00000153 538.09 196.77 408.73 566.39 720.02 438.56 893.57 441.78 849.27 543.49 740.40 629.20 876.92 631.73
00027730 00000154 536.68 199.48 410.62 577.14 719.33 442.30 890.94 446.08 846.91 548.52 733.74 635.68 872.20 639.00
00027731 00000155 539.57 203.71 408.35 576.61 720.47 446.77 890.89 450.49 844.67 556.28 731.30 640.26 868.19 643.76
00027732 00000156 540.16 207.41 407.21 573.65 720.83 447.66 891.72 451.95 844.60 559.84 730.54 639.50 868.74 643.44
00027733 00000157 539.89 206.25 406.95 568.21 719.02 446.37 892.69 451.44 843.24 558.62 728.67 635.61 869.31 640.13
00027734 00000158 539.59 199.94 407.73 561.17 718.14 438.56 892.63 447.00 841.52 546.86 732.64 628.13 869.52 635.40
00027735 00000159 539.57 186.08 408.73 561.53 717.10 425.57 892.80 432.32 843.54 530.21 736.97 616.31 874.64 621.91
00027736 00000160 539.23 176.82 408.83 563.26 713.10 412.19 890.74 421.38 840.03 511.66 735.70 605.43 875.98 612.96
00027737 00000161 532.44 170.53 409.40 564.14 706.48 403.37 884.55 415.35 831.32 503.33 728.96 599.28 864.24 609.54
00027738 00000162 529.44 165.99 406.94 564.65 700.47 403.78 880.48 418.02 825.61 501.59 720.67 597.71 857.87 609.78
00027739 00000163 524.76 171.46 405.67 561.37 696.47 419.31 877.29 424.96 823.43 511.97 716.73 605.14 859.77 610.59
00027740 00000164 523.50 178.69 408.12 558.74 693.68 424.22 875.42 431.83 816.59 520.17 709.74 611.95 853.10 619.40
00027741 00000165 522.49 177.76 407.16 563.16 689.35 421.35 868.92 431.15 807.88 521.66 707.72 614.04 846.59 623.31
00027742 00000166 520.36 182.04 407.02 563.59 687.86 417.40 865.46 429.46 805.38 522.36 702.44 611.87 842.55 623.24
00027743 00000167 520.22 177.94 406.77 566.34 688.02 411.81 865.34 426.16 807.21 517.91 701.82 608.27 842.87 621.49
00027744 00000168 520.39 173.04 406.49 572.09 687.70 408.48 865.35 422.32 808.90 517.67 701.01 606.93 844.25 619.53
00027745 00000169 522.42 173.15 408.64 572.47 688.50 409.35 867.87 420.48 810.75 518.76 703.01 608.90 846.96 619.22
00027746 00000170 523.42 175.47 410.21 573.03 689.87 412.58 868.65 421.90 811.24 524.86 704.69 612.79 847.80 621.81
