Video ID: 	d6woUKEOOZI
H: 	1080
W: 	1920
FPS: 	25.0

FRAME INDEX X0 Y0 W H [Landmarks (5 Points)]

00001746 00000000 987.14 148.26 460.23 683.82 1066.78 407.73 1283.03 434.30 1126.36 546.47 1061.65 662.20 1224.68 684.72
00001747 00000001 991.01 150.10 460.58 681.89 1072.03 406.47 1288.87 433.29 1134.28 545.47 1067.71 662.68 1231.04 684.86
00001748 00000002 998.99 146.60 450.31 694.81 1070.91 407.09 1281.04 421.76 1137.33 542.12 1076.72 670.37 1226.08 684.56
00001749 00000003 1001.10 146.82 451.91 699.92 1076.04 411.91 1283.55 424.83 1143.35 549.00 1085.25 677.33 1232.93 690.09
00001750 00000004 1003.93 148.92 452.93 706.46 1079.40 413.97 1289.08 427.67 1150.39 553.50 1090.55 683.40 1241.03 696.82
00001751 00000005 996.49 161.04 470.20 696.12 1086.79 424.03 1300.02 439.81 1155.26 562.36 1091.98 684.84 1247.69 699.99
00001752 00000006 998.62 160.16 468.64 701.77 1088.68 426.82 1300.81 442.04 1155.26 564.60 1093.89 687.05 1249.75 701.81
00001753 00000007 995.21 158.41 472.72 712.45 1089.62 428.31 1298.46 441.11 1153.47 565.03 1094.55 688.93 1253.71 701.40
00001754 00000008 990.76 161.48 474.34 710.71 1086.82 428.80 1294.27 439.13 1150.99 565.01 1094.96 689.87 1253.57 699.89
00001755 00000009 987.48 158.47 473.93 712.73 1080.80 430.66 1287.27 439.98 1140.66 566.71 1088.31 691.76 1247.01 700.88
00001756 00000010 985.31 162.83 472.59 706.84 1073.65 432.74 1280.56 444.02 1130.73 572.77 1081.41 693.18 1240.64 703.83
00001757 00000011 983.28 158.68 462.50 712.62 1059.16 434.21 1266.02 446.57 1114.49 573.44 1069.81 694.03 1231.39 703.69
00001758 00000012 984.69 161.02 459.38 725.40 1056.68 435.30 1259.27 442.65 1114.14 570.66 1072.46 700.72 1228.31 708.09
00001759 00000013 980.37 155.96 462.77 720.83 1057.09 443.84 1264.59 446.26 1122.48 575.76 1075.59 703.09 1237.74 704.76
00001760 DELETE   982.04 154.66 463.97 710.82 1062.95 455.52 1276.10 449.33 1142.97 574.69 1088.60 704.44 1261.52 698.37
00001761 00000015 980.66 161.64 463.08 699.89 1062.35 455.25 1278.77 440.46 1154.28 580.78 1104.45 711.85 1273.23 698.72
00001762 00000016 972.73 161.45 469.66 702.25 1057.32 454.94 1276.60 437.52 1155.34 585.59 1106.62 712.40 1277.66 697.01
00001763 DELETE   968.28 155.59 475.60 715.35 1051.60 460.19 1263.34 440.90 1140.03 593.59 1096.93 715.50 1265.72 699.58
00001764 DELETE   955.39 171.22 471.47 705.03 1031.02 468.40 1237.63 449.56 1106.75 588.95 1068.57 707.58 1250.86 691.01
00001765 DELETE   939.44 162.71 469.60 709.76 1011.04 465.58 1212.45 448.30 1075.12 591.82 1044.18 702.34 1225.96 687.84
00001766 00000020 933.34 166.47 469.22 702.46 1000.82 457.86 1199.71 445.61 1059.26 591.04 1031.63 696.59 1211.26 686.51
00001767 00000021 929.01 164.26 472.67 699.81 986.70 457.38 1190.90 434.01 1050.00 587.26 1029.89 701.52 1206.16 681.45
00001768 00000022 924.49 160.42 471.86 699.91 982.72 454.49 1186.12 432.95 1043.91 584.42 1022.24 697.96 1197.79 679.58
00001769 00000023 924.66 158.53 467.13 698.10 980.98 451.42 1182.12 431.50 1037.19 579.43 1016.03 694.49 1189.38 677.71
00001770 00000024 924.11 156.62 465.16 696.59 981.06 445.27 1180.26 428.54 1032.57 572.64 1014.26 694.42 1180.42 680.64
00001771 00000025 924.49 148.82 463.26 710.59 972.03 434.79 1170.93 422.27 1018.50 565.68 1003.00 690.46 1166.55 679.69
00001772 00000026 923.85 147.42 465.21 708.28 971.82 428.17 1171.01 418.51 1016.45 559.77 1001.05 687.59 1162.51 679.41
00001773 00000027 924.79 144.63 464.50 706.86 973.01 422.61 1171.52 413.99 1015.35 554.70 1000.71 682.67 1160.17 675.63
00001774 00000028 924.63 139.84 465.12 708.30 973.33 418.11 1172.06 410.56 1013.34 550.52 998.84 679.41 1157.94 673.46
00001775 00000029 926.87 142.71 463.92 699.02 971.14 415.69 1173.68 408.60 1012.43 547.03 995.58 677.64 1155.90 671.93
00001776 00000030 920.93 145.59 468.54 681.34 979.40 415.49 1180.92 413.18 1019.98 542.83 993.71 671.17 1156.33 670.42
00001777 00000031 923.08 142.60 469.39 682.78 981.32 411.56 1185.24 410.96 1022.52 539.51 992.76 668.85 1156.10 669.82
00001778 00000032 927.29 144.95 470.91 675.44 981.47 406.76 1189.43 408.79 1023.86 534.81 988.95 664.63 1153.38 668.31
00001779 00000033 930.95 135.28 470.28 679.64 989.10 399.95 1196.11 405.92 1030.96 527.51 993.07 657.31 1156.05 664.59
00001780 00000034 937.46 114.05 471.97 705.96 1003.48 394.85 1204.40 403.70 1036.91 517.92 1001.01 652.33 1155.78 661.76
00001781 00000035 946.73 110.97 479.02 699.09 1016.58 383.72 1218.08 403.11 1050.31 511.73 1007.39 638.92 1162.10 657.62
00001782 00000036 951.67 116.64 485.20 692.22 1028.19 380.64 1237.57 405.57 1068.17 511.03 1016.06 638.49 1174.52 661.72
00001783 00000037 964.52 118.98 481.69 690.89 1036.38 382.23 1250.85 407.12 1080.03 511.35 1026.23 639.93 1186.74 663.11
00001784 00000038 966.46 133.11 485.77 682.51 1053.05 380.29 1273.20 410.95 1100.97 509.01 1032.18 634.31 1200.91 660.57
00001785 00000039 970.10 135.08 488.60 684.32 1063.29 379.08 1284.90 414.00 1111.84 510.97 1036.82 635.38 1206.80 664.86
00001786 00000040 978.04 128.60 489.50 694.42 1065.27 382.54 1283.73 412.50 1116.26 513.88 1054.03 643.90 1212.44 670.76
00001787 00000041 974.54 133.47 492.71 683.13 1071.46 381.84 1291.34 415.94 1126.72 520.05 1053.74 640.79 1220.93 671.84
00001788 00000042 976.86 134.25 491.65 683.89 1072.87 382.05 1291.10 416.43 1125.58 522.00 1054.87 641.68 1221.46 672.82
00001789 00000043 976.57 139.35 491.36 679.22 1072.83 382.94 1291.19 417.86 1125.43 523.04 1054.58 642.77 1220.79 674.28
00001790 00000044 982.87 132.23 486.91 697.29 1070.01 385.89 1287.56 416.27 1120.25 521.89 1059.70 651.37 1216.76 678.37
00001791 00000045 984.44 133.60 486.36 697.87 1072.35 387.33 1289.21 417.12 1124.10 525.51 1063.04 653.69 1219.75 680.17
00001792 00000046 984.16 130.90 494.06 699.54 1081.29 392.38 1298.65 419.32 1135.67 529.57 1066.67 655.93 1225.42 680.07
00001793 00000047 983.89 140.19 495.35 690.90 1080.42 396.33 1300.20 422.98 1137.31 532.93 1067.36 659.22 1226.85 682.95
00001794 00000048 984.92 157.85 488.60 671.66 1081.75 397.89 1298.89 430.62 1138.65 535.54 1067.23 656.07 1230.96 685.35
00001795 00000049 988.08 161.78 486.63 672.63 1083.01 403.74 1300.44 435.34 1140.03 538.73 1068.37 660.25 1232.43 688.64
00001796 00000050 988.75 161.87 486.77 675.66 1082.92 408.02 1300.55 438.20 1140.38 540.71 1068.40 662.74 1233.98 689.98
00001797 00000051 988.95 163.61 485.38 678.87 1083.49 410.03 1299.70 439.64 1139.25 541.54 1068.87 665.35 1234.16 692.06
00001798 00000052 987.90 161.74 486.57 683.66 1083.53 409.52 1299.20 440.01 1139.38 543.98 1069.37 666.16 1234.44 693.53
00001799 00000053 988.45 163.64 484.01 684.55 1083.59 412.22 1299.08 442.33 1139.35 547.51 1069.87 669.15 1235.83 696.06
00001800 00000054 988.20 167.02 484.50 684.71 1082.73 414.43 1297.90 443.60 1139.31 550.81 1071.50 671.74 1235.39 697.71
00001801 00000055 987.69 165.59 485.39 689.61 1083.55 416.03 1297.15 444.36 1139.29 551.89 1072.92 674.05 1235.29 699.22
00001802 00000056 987.60 163.54 484.33 693.30 1083.22 418.06 1296.59 445.29 1139.10 553.35 1072.29 676.05 1234.65 700.40
00001803 00000057 986.69 165.21 484.83 692.54 1082.93 417.60 1294.86 445.49 1138.32 554.79 1072.66 676.61 1232.62 701.40
00001804 00000058 985.65 162.46 484.67 696.68 1081.36 417.40 1293.15 444.89 1136.59 554.60 1071.50 677.74 1229.70 702.36
00001805 00000059 984.09 167.26 484.53 692.30 1080.58 418.63 1291.83 445.34 1136.37 556.02 1072.16 678.87 1229.24 702.75
00001806 00000060 983.06 169.60 484.21 691.81 1079.88 419.31 1289.91 445.51 1135.69 557.67 1072.32 680.71 1228.39 704.10
00001807 00000061 982.55 169.83 480.82 691.42 1077.45 420.32 1287.45 446.33 1132.36 558.53 1070.02 681.55 1225.59 704.74
00001808 00000062 981.15 173.59 478.59 687.84 1074.39 422.57 1285.35 446.96 1129.91 559.21 1069.29 683.40 1224.09 705.07
00001809 00000063 986.14 177.29 467.66 675.14 1070.77 420.14 1284.69 448.37 1124.15 556.43 1062.47 677.36 1220.87 700.82
00001810 00000064 984.33 173.03 467.08 678.28 1067.90 419.93 1283.07 447.63 1122.87 556.85 1060.31 676.95 1220.85 700.04
00001811 00000065 983.53 168.60 465.02 682.52 1065.77 419.20 1281.07 446.18 1121.65 556.67 1058.25 676.95 1220.09 699.69
00001812 00000066 982.40 165.16 465.03 685.03 1063.92 418.79 1279.52 447.04 1120.74 557.66 1056.31 675.98 1219.49 699.95
00001813 00000067 981.60 163.40 465.65 686.85 1063.30 418.23 1278.47 446.80 1119.59 557.33 1055.79 674.86 1218.91 699.11
00001814 00000068 981.18 160.43 466.32 689.45 1061.44 416.99 1277.31 445.03 1117.73 556.23 1054.58 674.82 1218.42 698.65
00001815 00000069 981.08 158.53 466.75 690.47 1061.20 416.50 1277.04 443.69 1118.04 554.70 1054.84 674.28 1218.81 697.40
00001816 00000070 981.17 161.30 466.10 687.57 1060.53 416.76 1276.09 442.93 1117.27 553.81 1054.69 674.57 1218.61 696.90
00001817 00000071 981.52 160.12 465.66 688.72 1060.01 416.84 1275.89 442.44 1117.31 553.89 1055.02 675.04 1219.58 696.87
00001818 00000072 981.66 159.71 464.96 688.35 1060.47 416.88 1276.10 442.49 1118.01 554.36 1055.65 674.91 1220.07 696.70
00001819 00000073 981.41 155.97 465.73 691.27 1061.49 416.36 1276.12 441.15 1118.67 553.68 1058.42 674.64 1221.03 695.61
00001820 00000074 982.35 156.75 465.27 689.57 1062.25 416.00 1276.84 439.85 1119.32 552.61 1059.83 674.44 1222.00 694.65
00001821 00000075 981.30 148.85 468.08 697.21 1062.34 413.79 1277.26 437.42 1119.42 551.08 1061.27 673.20 1223.30 693.15
00001822 00000076 981.28 146.66 466.25 697.54 1061.85 412.74 1277.53 435.67 1120.47 548.41 1061.70 672.24 1224.93 691.66
00001823 00000077 981.27 148.21 465.02 695.14 1060.07 411.62 1275.47 433.12 1119.46 548.25 1060.34 672.13 1223.38 690.41
00001824 00000078 979.69 150.01 465.62 695.07 1058.36 411.96 1274.30 431.67 1118.89 547.42 1059.41 672.86 1222.12 689.70
00001825 00000079 977.67 151.48 468.08 693.51 1053.78 412.83 1271.54 429.17 1114.49 544.54 1056.95 673.94 1220.50 688.27
00001826 00000080 975.74 148.53 468.89 695.27 1051.33 412.17 1268.88 426.63 1112.11 541.92 1055.36 673.10 1217.61 686.08
00001827 00000081 973.80 148.83 470.18 694.80 1049.09 410.31 1265.96 422.75 1109.47 539.21 1054.13 672.54 1215.06 684.08
00001828 00000082 974.08 145.61 465.15 698.69 1043.93 409.49 1260.18 423.51 1103.91 536.01 1049.75 673.27 1204.54 687.37
00001829 00000083 972.05 143.90 464.01 700.41 1041.38 408.59 1257.00 421.38 1101.26 535.60 1048.18 673.25 1203.52 686.28
00001830 00000084 970.52 146.30 462.95 697.98 1038.37 409.96 1253.97 422.56 1098.40 537.72 1045.85 674.75 1201.79 687.60
00001831 00000085 969.74 148.18 462.75 695.21 1036.80 412.27 1250.24 424.72 1094.91 539.03 1045.24 674.70 1197.76 687.44
00001832 00000086 967.11 151.10 463.21 693.37 1034.22 412.96 1246.76 425.57 1091.85 539.79 1042.12 674.84 1194.44 687.74
00001833 00000087 964.84 148.90 462.08 693.67 1031.86 413.54 1243.07 425.50 1088.32 539.01 1038.86 674.33 1191.88 686.74
00001834 00000088 962.19 150.18 462.14 691.23 1029.67 413.11 1240.68 425.64 1085.57 538.09 1035.68 672.64 1189.62 685.53
00001835 00000089 958.63 152.12 460.92 688.97 1026.44 415.81 1236.86 426.10 1083.18 538.85 1033.43 674.04 1188.58 685.04
00001836 00000090 957.62 155.47 458.37 684.69 1026.30 417.39 1235.13 427.24 1083.06 538.59 1033.38 674.01 1187.01 684.62
00001837 00000091 956.81 156.42 458.75 684.65 1025.89 419.45 1233.17 428.61 1081.86 539.26 1033.55 675.00 1185.20 685.09
00001838 00000092 956.62 158.15 458.34 682.72 1025.91 420.05 1233.37 429.69 1081.84 540.14 1033.56 675.39 1186.03 685.74
00001839 00000093 957.72 156.40 456.48 682.92 1026.40 419.46 1233.78 428.56 1082.39 538.92 1034.20 674.71 1186.69 684.67
00001840 00000094 959.11 155.12 454.77 681.04 1027.21 417.32 1234.23 426.80 1082.81 537.63 1034.06 671.34 1187.58 681.69
00001841 00000095 959.76 153.76 455.29 680.87 1027.14 415.39 1234.49 423.54 1083.23 536.05 1035.16 669.67 1188.57 678.93
00001842 00000096 967.22 140.16 452.56 693.94 1025.46 410.65 1231.46 413.42 1080.39 534.27 1034.47 670.53 1186.24 675.70
00001843 00000097 968.39 135.94 453.16 697.38 1029.26 408.19 1234.46 411.01 1082.90 531.50 1037.56 668.59 1188.21 673.93
00001844 00000098 970.32 134.41 454.52 696.06 1032.65 407.24 1237.94 408.34 1087.51 527.90 1041.95 666.61 1192.01 670.39
00001845 00000099 972.55 131.30 454.38 697.69 1034.56 404.83 1239.52 405.09 1090.33 524.26 1044.58 662.97 1196.25 665.82
00001846 00000100 973.49 127.67 457.15 698.94 1036.60 404.76 1243.86 402.91 1094.19 520.52 1047.51 661.09 1201.37 662.01
00001847 00000101 974.55 126.10 458.36 696.76 1041.34 399.87 1248.53 399.53 1099.38 516.30 1051.14 655.17 1206.91 657.14
00001848 00000102 972.25 132.63 459.74 683.55 1046.92 397.32 1256.70 401.21 1108.91 511.68 1052.86 647.61 1216.25 651.43
00001849 00000103 973.31 130.69 460.32 683.98 1049.49 395.38 1257.99 400.14 1110.42 509.92 1055.28 644.66 1217.28 649.22
00001850 00000104 975.06 129.19 459.92 684.22 1050.43 393.16 1259.04 398.04 1111.11 507.97 1056.46 641.63 1218.74 646.37
00001851 00000105 976.36 129.33 458.77 683.32 1050.99 391.90 1258.71 397.20 1110.10 506.91 1055.96 640.55 1218.20 645.45
00001852 00000106 976.82 130.37 458.35 681.27 1050.29 391.43 1258.77 396.08 1109.33 505.70 1054.52 639.50 1218.18 643.73
00001853 00000107 978.05 132.15 457.52 679.94 1050.92 392.13 1258.77 396.28 1109.78 506.16 1056.54 640.29 1219.76 644.05
00001854 00000108 979.12 133.48 457.27 679.32 1050.74 393.22 1257.80 397.31 1109.61 507.97 1057.47 641.64 1220.21 645.31
00001855 00000109 979.36 133.61 457.90 679.95 1051.05 393.86 1257.82 398.51 1109.94 509.01 1058.56 643.43 1220.44 647.68
00001856 00000110 979.96 133.64 458.39 680.53 1050.11 394.88 1257.84 400.48 1108.12 509.45 1056.13 644.37 1218.97 649.52
00001857 00000111 985.49 130.28 456.22 690.16 1055.80 399.07 1251.00 399.48 1102.20 508.36 1063.83 649.02 1210.58 651.35
00001858 DELETE   979.48 138.80 463.43 680.12 1052.17 406.85 1260.21 408.05 1109.99 510.45 1064.40 649.75 1228.96 650.50
00001859 00000113 983.04 136.12 460.44 680.42 1054.69 403.44 1264.26 407.16 1115.62 515.62 1067.76 649.73 1231.56 652.55
00001860 00000114 987.46 134.49 459.63 683.21 1059.06 403.77 1269.78 407.07 1119.62 516.83 1072.65 652.25 1235.21 654.67
00001861 00000115 991.14 133.93 463.17 685.05 1064.39 401.74 1275.72 406.97 1123.97 517.66 1077.45 652.45 1236.64 656.44
00001862 00000116 994.66 125.39 471.99 698.67 1073.47 405.41 1277.75 401.64 1125.94 517.45 1081.16 658.94 1233.46 657.30
00001863 00000117 1002.52 124.19 469.13 701.05 1076.42 405.87 1280.94 400.78 1128.18 517.73 1084.03 661.44 1235.97 659.10
00001864 00000118 1008.35 122.33 469.26 702.95 1081.36 404.41 1285.30 401.55 1130.28 517.88 1085.93 659.49 1237.43 659.67
00001865 00000119 1016.52 121.02 468.57 705.06 1087.48 403.76 1290.59 401.83 1134.37 517.64 1090.47 660.25 1241.56 661.67
00001866 00000120 1027.83 125.88 462.56 702.13 1090.94 402.45 1293.53 404.45 1136.01 518.94 1093.20 661.75 1243.14 666.60
00001867 00000121 1035.06 130.18 464.52 698.86 1094.41 403.44 1297.77 408.80 1138.67 522.38 1095.74 662.98 1244.91 670.54
00001868 00000122 1037.80 146.64 463.89 682.09 1098.19 411.00 1302.51 419.36 1146.57 527.59 1103.68 664.91 1251.17 674.99
00001869 00000123 1041.14 151.48 467.53 683.24 1101.54 414.56 1306.75 425.11 1147.31 531.02 1104.36 668.72 1252.16 680.64
00001870 00000124 1043.21 151.84 467.40 690.18 1104.06 416.52 1311.49 428.80 1150.58 536.45 1105.60 673.78 1254.86 687.02
00001871 00000125 1043.04 151.72 467.77 695.52 1105.02 417.07 1312.79 431.50 1151.53 540.27 1105.24 675.78 1253.50 690.82
00001872 00000126 1039.10 151.94 470.12 705.03 1103.63 419.48 1310.71 433.96 1150.23 542.95 1104.68 678.42 1257.33 693.22
00001873 00000127 1034.54 152.06 474.48 711.86 1101.58 420.57 1306.72 434.30 1145.94 545.92 1104.56 676.74 1268.12 689.86
00001874 00000128 1024.70 150.56 481.27 720.14 1095.54 418.44 1299.36 431.17 1137.84 547.53 1099.35 675.87 1272.78 687.48
00001875 00000129 1008.67 157.72 485.68 716.50 1083.91 416.34 1288.72 428.16 1129.15 550.31 1089.98 673.54 1274.44 683.57
00001876 00000130 992.55 157.73 486.87 721.93 1072.38 416.56 1280.72 430.92 1115.94 553.04 1074.32 667.97 1269.37 679.09
CROP_BBOX: 541 0 1761 1080
