Video ID: 	Xf0rcTd_sJE
H: 	1080
W: 	1920
FPS: 	25.0

FRAME INDEX X0 Y0 W H [Landmarks (5 Points)]

00000183 00000000 433.07 102.07 397.75 570.82 656.25 346.61 776.16 315.44 814.41 426.61 688.57 533.95 791.46 510.74
00000184 00000001 429.50 94.62 394.62 580.43 651.95 341.42 777.14 309.78 811.39 418.85 676.75 532.53 790.87 508.13
00000185 00000002 423.68 94.36 395.70 574.21 640.85 335.65 772.18 300.75 805.09 410.90 670.46 528.22 790.78 501.02
00000186 00000003 421.94 84.76 394.19 575.72 632.59 331.09 769.28 293.10 796.64 405.10 670.65 525.94 792.48 495.68
00000187 00000004 422.54 81.45 393.94 574.18 629.72 331.83 769.36 291.17 794.93 402.13 673.24 525.27 796.59 492.70
00000188 00000005 423.33 76.90 393.21 578.93 632.82 332.52 771.63 290.07 797.51 402.80 675.49 525.99 797.60 492.11
00000189 00000006 422.28 76.68 399.96 579.16 638.06 335.99 776.30 291.77 802.65 405.94 680.62 528.41 799.96 492.88
00000190 DELETE   429.19 80.38 399.81 575.55 644.41 336.00 785.37 294.94 810.88 407.75 686.80 529.09 808.45 496.00
00000191 00000008 433.24 86.52 402.65 572.87 645.27 336.07 780.40 307.28 802.81 406.93 698.37 520.65 812.85 497.71
00000192 DELETE   442.74 85.55 404.09 575.88 653.82 338.32 783.47 301.16 812.68 408.73 704.54 523.03 817.66 493.41
00000193 00000010 454.12 84.07 402.20 578.68 664.36 339.69 792.27 295.99 826.01 406.70 712.37 525.67 824.91 490.44
00000194 DELETE   461.56 83.12 404.26 578.97 673.41 335.88 806.32 293.46 836.48 401.58 723.16 525.47 837.77 489.99
00000195 DELETE   471.99 80.93 400.20 581.04 685.00 335.26 819.22 291.20 851.90 401.48 731.75 526.50 850.24 490.27
00000196 00000013 479.96 84.27 397.79 579.70 691.00 331.90 828.08 290.88 859.37 402.15 736.86 528.63 857.67 495.34
00000197 00000014 486.67 80.35 393.96 587.40 699.55 331.28 834.52 297.47 862.66 405.59 742.39 531.67 860.35 504.51
00000198 DELETE   491.98 80.70 395.52 589.84 706.91 331.42 845.11 298.33 871.38 408.82 747.76 533.74 867.59 507.22
00000199 00000016 494.36 83.38 397.65 587.10 711.69 332.71 850.07 299.80 877.95 408.46 752.13 533.00 872.78 506.68
00000200 00000017 496.30 79.86 396.76 589.14 714.94 331.69 851.92 300.68 878.80 407.83 753.60 531.84 872.35 507.18
00000201 00000018 497.43 76.77 395.67 592.00 716.13 329.63 851.86 301.45 877.96 407.40 753.30 530.66 871.42 508.33
00000202 00000019 494.74 78.23 398.37 589.95 713.10 327.04 849.20 299.02 875.51 405.57 751.54 530.45 869.33 508.23
00000203 00000020 491.89 76.14 400.65 589.42 710.12 326.14 845.20 294.43 873.62 403.10 750.86 529.76 867.55 504.64
00000204 00000021 489.54 76.16 401.26 587.92 705.32 325.18 841.96 292.90 867.80 401.69 747.35 528.26 865.14 502.51
00000205 00000022 487.60 75.43 400.48 587.77 703.33 323.59 839.11 292.20 864.93 399.33 746.28 526.63 863.95 501.48
00000206 00000023 483.47 72.28 402.50 591.06 701.54 322.73 836.20 291.95 863.68 398.08 744.80 525.86 860.69 501.15
00000207 00000024 482.01 72.24 402.75 591.30 698.64 321.99 833.91 290.42 862.36 395.42 744.27 524.83 861.31 499.26
00000208 00000025 481.19 71.51 404.29 592.09 700.71 321.61 835.41 290.90 864.27 394.30 745.79 524.68 862.16 499.78
00000209 00000026 482.17 70.60 405.76 592.66 703.58 323.34 838.64 293.85 866.12 394.48 747.28 524.50 864.23 500.66
00000210 00000027 485.02 69.03 404.31 593.30 702.49 321.96 840.16 290.88 867.99 392.61 749.12 524.38 866.99 499.18
00000211 00000028 485.82 70.74 404.44 591.29 701.62 322.45 838.45 290.90 866.76 392.88 748.75 524.46 866.48 498.93
00000212 00000029 484.44 71.51 407.05 591.46 698.94 322.04 837.15 290.59 863.61 393.97 745.92 524.67 865.28 499.21
00000213 00000030 483.26 73.70 407.33 590.64 699.89 323.13 837.57 291.47 864.23 397.31 744.13 526.23 862.50 500.71
00000214 00000031 482.73 75.91 407.75 589.94 700.88 325.57 838.95 294.99 865.54 401.59 743.08 528.39 862.06 503.66
00000215 00000032 482.19 78.40 405.73 590.89 703.14 331.21 837.31 298.74 868.10 408.09 741.72 531.12 859.39 505.21
00000216 00000033 481.02 81.24 406.00 590.99 705.50 335.68 835.72 301.14 870.85 411.71 740.85 532.00 857.69 504.83
00000217 00000034 480.99 84.05 405.11 589.88 706.63 336.94 835.07 302.22 872.20 413.17 741.37 533.57 856.43 506.40
00000218 00000035 480.33 79.85 406.55 592.07 708.35 336.67 836.21 303.16 872.64 411.29 743.39 531.32 857.62 504.96
00000219 00000036 481.18 75.95 407.00 590.65 708.81 332.04 842.64 303.20 875.09 408.34 747.34 528.86 863.56 505.88
00000220 00000037 482.48 72.19 406.47 590.51 709.41 326.96 843.32 300.33 874.75 403.45 748.33 524.42 865.11 503.18
00000221 00000038 484.83 69.84 408.39 595.01 711.50 326.46 845.59 299.00 877.42 402.50 751.11 524.73 868.40 502.80
00000222 00000039 487.48 71.89 408.78 595.38 716.67 328.05 848.48 302.10 883.16 403.73 756.73 525.96 871.90 505.15
00000223 00000040 493.69 73.41 406.57 595.79 724.84 328.90 855.75 307.96 889.00 409.29 759.19 527.79 873.58 511.07
00000224 00000041 495.32 79.91 411.02 593.57 728.68 332.57 848.90 308.06 885.92 415.96 766.65 529.25 871.39 510.37
00000225 00000042 498.92 80.07 411.40 593.96 738.16 336.87 853.01 309.21 894.43 420.20 771.60 530.46 872.06 509.30
00000226 00000043 505.06 80.38 410.81 595.32 744.44 342.20 857.68 308.50 902.23 422.72 775.49 532.45 877.01 506.62
00000227 00000044 511.48 86.65 409.93 588.46 746.30 344.05 861.48 307.05 906.04 423.48 779.18 533.10 883.89 504.32
00000228 00000045 514.71 80.89 410.38 593.72 748.19 344.95 865.99 305.51 908.76 422.90 783.61 533.33 890.22 502.09
00000229 00000046 517.64 79.58 409.35 597.86 749.90 344.32 868.53 304.65 911.75 422.54 785.41 534.55 892.26 502.96
00000230 00000047 521.32 83.09 407.09 598.30 749.98 341.90 869.52 306.13 911.15 421.82 785.73 535.57 893.49 506.87
00000231 00000048 519.81 86.27 408.66 596.64 749.16 342.70 869.98 307.91 910.82 422.61 784.57 536.89 893.03 508.96
00000232 00000049 517.00 88.01 411.19 591.13 747.33 344.00 870.42 307.39 910.61 422.91 782.65 535.82 892.32 506.70
00000233 00000050 513.86 87.32 412.93 591.17 746.85 344.83 869.02 310.26 908.74 423.56 779.99 534.20 889.15 506.80
00000234 00000051 512.79 90.05 413.06 590.19 745.03 346.24 869.90 313.42 907.19 426.95 774.27 535.20 886.99 509.26
00000235 00000052 510.19 93.18 411.82 589.70 741.94 347.76 867.05 315.16 904.76 431.97 770.02 538.88 883.43 513.33
00000236 00000053 507.40 91.25 411.71 592.71 738.94 348.42 865.68 316.58 900.22 435.32 767.11 540.73 880.38 515.87
00000237 00000054 503.37 92.84 412.27 591.44 737.18 350.01 865.23 319.62 895.71 439.79 763.74 541.84 877.31 518.16
00000238 00000055 500.82 92.93 409.58 592.47 731.39 347.36 861.67 320.45 888.04 441.55 760.56 543.85 872.83 522.77
00000239 00000056 497.92 94.93 408.44 593.66 726.66 346.47 860.11 321.86 882.33 442.33 754.85 543.48 871.13 524.19
00000240 00000057 496.03 97.06 409.49 592.50 723.10 345.88 858.37 323.42 875.54 443.58 751.06 544.24 868.27 526.56
00000241 00000058 494.42 100.01 410.23 590.47 719.56 345.61 856.38 322.88 872.92 444.06 748.24 544.45 867.21 526.68
00000242 00000059 494.77 101.70 412.48 588.72 718.13 348.00 856.94 322.08 872.26 445.94 745.22 546.09 866.57 526.08
00000243 00000060 494.18 101.73 414.44 588.89 715.69 350.25 857.32 322.45 869.96 446.74 743.39 547.17 865.87 525.67
00000244 00000061 493.20 102.59 414.39 586.51 715.26 356.51 857.59 328.33 869.93 448.60 742.71 547.48 864.40 526.18
00000245 00000062 492.58 106.68 415.94 580.79 714.74 358.90 857.35 330.70 869.14 448.43 742.88 546.31 864.50 525.27
00000246 00000063 493.39 100.65 414.20 587.53 713.55 357.85 858.05 327.84 869.09 449.08 741.89 547.43 865.94 524.36
00000247 00000064 493.25 102.32 412.48 586.76 710.80 355.50 855.95 324.52 867.39 448.13 738.46 547.64 864.39 523.88
00000248 00000065 491.59 104.00 411.38 586.10 709.61 354.39 854.87 322.83 867.75 448.79 734.38 548.31 862.66 524.33
00000249 00000066 490.69 104.36 412.49 588.34 708.94 356.40 855.23 319.82 872.43 449.78 727.22 548.30 862.39 520.97
00000250 00000067 486.06 104.00 413.37 596.81 709.13 352.95 855.72 325.10 873.40 445.53 721.84 547.93 856.56 528.36
00000251 00000068 494.50 102.31 406.13 598.35 713.50 356.05 860.93 323.83 878.84 446.43 718.88 547.06 862.14 523.60
00000252 00000069 492.36 106.65 408.30 587.11 707.42 350.86 852.36 318.19 872.30 446.09 724.18 545.29 860.43 521.32
00000253 00000070 489.53 107.06 411.12 583.33 707.89 352.80 853.16 318.03 874.54 447.99 724.58 546.03 860.18 520.53
00000254 00000071 488.31 104.74 412.24 588.80 709.47 356.16 852.79 320.20 875.86 452.60 725.22 550.66 857.58 524.37
00000255 00000072 487.12 107.58 413.69 588.53 709.55 359.44 853.60 321.66 876.91 456.29 723.53 553.45 856.78 525.87
00000256 00000073 479.45 104.38 416.18 597.79 713.16 355.09 857.26 331.72 878.74 454.60 721.88 552.65 851.66 537.08
00000257 00000074 475.68 106.88 416.64 595.48 712.54 353.49 854.55 334.46 875.70 455.17 718.17 551.42 845.32 539.60
00000258 00000075 470.40 108.02 419.44 594.91 709.52 352.24 851.33 336.33 872.06 454.46 714.89 551.61 840.19 542.16
00000259 00000076 474.18 104.51 412.62 597.62 698.92 357.53 840.57 327.97 865.57 456.97 710.38 554.35 843.04 533.64
00000260 00000077 472.92 101.38 413.49 600.85 697.24 356.94 841.14 325.21 865.19 457.02 707.04 554.16 842.58 532.01
00000261 00000078 468.56 102.87 414.49 597.40 691.10 356.02 837.24 323.86 859.83 455.93 701.23 552.41 839.13 530.18
00000262 00000079 462.16 104.78 414.08 594.53 684.22 356.98 831.41 320.73 855.81 453.88 695.91 553.26 834.25 528.11
00000263 00000080 454.92 105.07 413.15 593.96 677.69 358.87 825.25 320.42 851.06 454.78 686.43 554.91 825.78 528.35
00000264 00000081 450.50 104.86 413.89 591.82 673.49 358.43 822.17 322.73 843.48 456.90 679.60 553.78 820.37 529.42
00000265 00000082 447.46 102.76 411.48 591.85 668.88 354.15 817.56 322.58 833.88 456.15 671.96 549.84 812.42 528.93
00000266 00000083 442.83 106.14 410.50 586.83 663.29 355.95 812.11 321.13 825.79 455.02 665.55 545.96 806.38 522.70
00000267 00000084 437.89 105.69 408.28 585.05 654.96 353.21 806.41 317.37 817.60 452.60 655.44 542.71 802.78 518.61
00000268 00000085 427.74 107.93 413.06 588.06 646.92 357.67 791.36 320.10 811.42 455.72 656.61 548.74 795.03 520.92
00000269 00000086 422.47 109.69 411.11 588.76 639.10 350.97 785.99 319.27 802.22 450.09 648.84 546.34 789.46 523.27
00000270 00000087 424.69 102.03 406.24 602.90 640.45 349.23 790.41 323.44 800.77 444.18 640.59 544.71 788.30 526.30
00000271 00000088 422.12 104.03 407.33 598.39 636.93 348.01 787.94 323.67 796.48 441.46 641.17 543.72 787.11 526.31
00000272 00000089 421.34 104.50 408.69 593.56 632.15 348.41 789.21 324.96 791.99 443.16 646.54 548.86 788.37 531.32
00000273 00000090 410.75 109.87 415.52 588.20 625.88 349.03 784.59 330.92 785.46 449.63 646.60 557.34 777.72 544.49
00000274 00000091 410.07 116.32 414.92 586.22 624.70 356.65 779.22 337.20 780.22 453.99 644.44 562.85 773.61 548.68
00000275 00000092 407.94 118.51 415.73 588.27 625.56 359.49 778.99 341.34 779.50 459.42 640.83 566.07 770.59 553.21
00000276 00000093 406.73 122.06 415.92 587.18 623.85 362.32 778.59 343.94 779.43 461.41 637.15 566.77 771.44 553.89
00000277 00000094 403.69 123.77 417.91 589.82 623.21 362.10 776.57 343.84 779.58 461.68 633.29 566.94 768.33 554.46
00000278 00000095 396.96 122.87 424.31 597.50 620.86 364.79 774.41 344.31 780.59 464.09 623.24 565.28 765.35 551.68
00000279 00000096 393.56 121.64 425.98 600.19 615.91 364.73 771.88 344.75 776.25 466.38 615.37 564.65 761.33 551.66
00000280 00000097 391.35 121.74 425.19 599.74 613.16 364.15 769.19 344.68 774.23 467.62 609.35 560.80 758.51 548.58
00000281 00000098 389.10 123.76 425.36 595.83 610.30 363.55 767.51 346.81 770.53 468.56 606.66 560.71 754.88 550.61
00000282 00000099 396.37 122.44 413.45 591.34 603.18 369.67 764.89 344.34 765.93 472.48 607.44 559.58 762.25 542.76
00000283 00000100 389.31 123.89 416.60 590.99 601.80 370.34 762.32 345.44 764.61 475.72 605.07 561.02 757.21 544.87
00000284 00000101 385.52 123.32 417.72 592.46 599.94 371.64 759.34 348.71 761.53 476.64 603.97 562.64 754.29 547.90
00000285 00000102 383.37 127.08 413.33 589.03 600.29 374.86 755.14 353.05 760.43 479.04 603.10 565.06 748.60 551.44
00000286 00000103 378.70 127.37 414.06 592.47 599.78 374.23 752.02 354.30 760.01 478.80 601.50 566.41 744.60 554.43
00000287 00000104 376.16 123.89 415.61 598.30 599.85 370.17 751.96 353.34 759.88 476.93 598.69 566.54 740.59 557.14
00000288 00000105 375.23 123.17 413.54 595.54 599.00 369.68 751.29 352.09 760.92 476.49 601.33 566.79 742.72 556.56
00000289 00000106 374.63 121.60 412.37 595.69 597.66 370.05 750.31 351.95 760.77 475.93 602.12 567.57 743.94 556.72
CROP_BBOX: 125 0 1062 864
