Video ID: 	nZf4GWVNTrU
H: 	1080
W: 	1920
FPS: 	25.0

FRAME INDEX X0 Y0 W H [Landmarks (5 Points)]

00004188 00000000 484.37 90.29 434.81 658.86 669.01 364.74 856.74 385.13 795.07 485.78 671.97 587.12 819.46 604.87
00004189 00000001 485.32 85.00 432.32 655.76 664.35 358.75 849.80 376.61 788.84 476.58 672.58 579.99 819.14 595.58
00004190 00000002 478.25 82.70 432.69 654.80 661.51 362.78 837.32 370.00 786.96 480.53 680.16 589.17 818.76 593.97
00004191 DELETE   476.40 84.06 433.11 653.98 655.18 364.56 833.53 372.12 779.11 483.55 674.88 591.29 813.67 596.35
00004192 00000004 472.82 89.82 434.46 650.59 650.77 373.25 832.24 383.23 774.48 493.17 668.58 597.37 808.03 604.50
00004193 00000005 471.71 94.32 435.87 650.31 649.35 378.75 831.05 390.20 771.41 499.37 667.28 601.90 805.77 610.41
00004194 00000006 470.20 97.20 436.42 651.72 649.78 381.22 831.88 392.03 772.57 502.90 668.55 604.78 807.05 612.60
00004195 00000007 470.18 97.34 437.70 655.73 652.51 382.31 833.54 391.75 777.38 503.21 672.51 606.82 811.33 613.49
00004196 00000008 472.09 98.21 435.47 655.37 655.75 381.44 834.28 388.32 781.97 500.22 677.98 606.89 815.78 611.25
00004197 00000009 481.63 94.11 427.71 662.08 660.21 373.46 840.95 381.98 788.22 483.23 681.01 596.15 816.46 604.89
00004198 00000010 480.74 91.34 428.31 660.91 662.38 368.61 842.66 377.53 791.11 480.59 683.09 593.85 818.55 602.76
00004199 00000011 482.06 86.92 426.29 664.86 664.11 364.95 843.04 375.05 793.22 477.90 682.56 591.47 819.23 601.26
00004200 00000012 481.69 84.62 427.65 662.23 664.17 361.68 843.80 372.56 793.28 475.88 683.51 589.32 819.67 599.66
00004201 00000013 483.14 84.31 428.14 659.93 665.74 358.76 844.86 370.90 793.12 474.51 683.54 586.84 820.56 598.03
00004202 00000014 479.31 81.00 430.60 660.46 666.69 362.23 838.83 368.15 794.00 481.23 688.50 593.84 822.17 597.90
00004203 00000015 481.46 80.96 430.50 655.36 668.49 358.00 841.53 365.51 794.55 476.92 687.93 588.70 822.95 594.12
00004204 00000016 484.46 80.32 430.77 648.17 672.55 353.68 847.07 363.44 796.73 475.57 691.54 585.00 825.69 592.19
00004205 00000017 492.01 80.46 430.12 648.46 674.50 345.72 855.95 364.47 797.55 468.55 685.87 575.79 826.06 592.38
00004206 DELETE   499.62 78.66 431.24 653.82 680.59 346.46 865.59 368.91 803.97 471.50 686.69 575.77 832.13 595.02
00004207 DELETE   506.36 83.35 434.16 648.52 692.59 347.93 875.58 373.44 811.65 478.87 695.38 577.86 835.65 599.73
00004208 DELETE   515.72 89.78 432.65 646.24 702.71 354.68 884.16 381.51 821.47 483.86 703.35 584.57 839.87 608.02
00004209 00000021 522.30 98.15 431.02 643.52 714.62 363.53 891.15 389.36 835.19 489.59 715.27 588.82 848.97 611.32
00004210 00000022 523.98 96.82 438.10 653.47 727.12 363.52 906.77 394.05 850.49 490.66 722.46 586.96 862.18 612.18
00004211 DELETE   535.48 102.60 431.12 649.04 739.79 367.72 912.46 396.65 862.66 497.45 734.40 590.09 864.98 615.11
00004212 00000024 540.17 105.53 431.30 653.57 747.72 371.18 917.23 400.45 870.11 503.30 739.83 593.51 867.91 619.35
00004213 00000025 543.55 106.60 431.30 656.19 755.47 374.11 919.16 404.40 874.86 507.79 745.48 596.30 870.18 623.07
00004214 DELETE   541.89 107.90 435.37 656.00 757.43 377.57 922.48 408.21 877.79 508.57 746.95 596.17 872.68 623.39
00004215 00000027 542.06 105.53 433.61 655.76 759.18 377.98 923.32 406.24 882.00 506.99 750.83 593.86 876.84 618.95
00004216 00000028 540.74 103.55 433.03 658.47 760.21 375.00 925.09 403.15 888.51 500.98 755.00 593.83 882.15 618.47
00004217 00000029 538.92 101.52 435.11 660.43 762.55 373.23 926.24 401.32 892.45 495.81 760.23 591.05 887.97 615.19
00004218 00000030 541.13 100.06 433.74 665.98 769.09 367.33 928.93 398.76 898.29 495.58 762.74 589.31 890.44 615.98
00004219 00000031 543.50 97.63 433.19 663.66 771.38 364.46 930.69 395.97 899.98 491.48 766.69 585.96 893.31 612.43
00004220 00000032 542.57 107.40 428.28 642.90 776.39 373.89 934.11 396.47 907.06 486.51 777.74 592.67 901.04 610.22
00004221 00000033 544.99 106.39 424.33 643.43 778.44 372.81 932.81 394.15 907.96 483.75 779.46 590.21 901.47 606.69
00004222 00000034 547.08 106.24 423.92 644.21 782.23 375.01 935.72 396.67 911.92 485.40 782.68 592.24 904.37 609.30
00004223 DELETE   546.03 109.22 427.76 650.03 783.78 377.98 935.03 402.07 911.31 491.87 781.05 598.02 900.59 617.34
00004224 00000036 546.94 98.24 427.97 672.16 777.93 368.08 932.22 400.41 904.93 494.85 772.07 591.82 893.54 619.57
00004225 00000037 541.06 100.14 433.94 679.32 770.28 375.91 929.13 402.24 901.48 501.58 767.46 601.91 893.86 624.42
00004226 DELETE   539.88 93.90 429.71 686.65 762.05 382.50 925.50 403.57 895.49 507.42 760.85 607.89 889.09 626.17
00004227 DELETE   535.68 101.15 425.75 674.17 755.78 389.32 918.24 405.90 888.95 510.47 759.02 607.77 885.80 622.47
00004228 DELETE   529.83 100.40 424.13 669.90 752.98 389.78 912.85 404.80 883.93 510.10 756.26 606.91 879.93 620.74
00004229 00000041 527.90 98.32 421.48 670.66 749.05 386.34 906.72 405.54 875.93 510.10 750.70 604.04 873.45 621.17
00004230 DELETE   518.61 100.76 427.60 666.40 741.35 384.26 900.76 404.65 869.98 508.26 745.51 600.82 870.79 618.74
00004231 DELETE   513.15 101.27 429.55 661.77 733.81 381.56 894.50 401.58 863.56 504.66 741.42 599.51 866.31 616.98
00004232 DELETE   507.72 104.11 430.82 656.76 724.11 380.60 893.70 401.33 856.57 504.96 728.16 598.70 860.41 616.74
00004233 00000045 507.25 104.88 429.22 656.43 726.87 377.80 885.96 399.90 851.88 502.19 730.27 597.78 852.39 616.69
00004234 DELETE   503.94 104.64 431.88 651.96 718.30 378.32 883.86 397.60 843.45 502.21 721.62 594.60 850.63 611.09
00004235 00000047 502.07 101.75 432.76 652.58 714.29 377.77 879.57 396.70 837.13 502.15 717.04 592.25 847.03 608.43
00004236 00000048 499.57 100.20 431.55 650.50 707.14 378.69 874.61 395.33 829.58 500.21 713.27 592.08 844.10 606.54
00004237 DELETE   495.63 101.27 429.94 647.12 699.59 379.73 870.23 395.63 822.29 498.64 706.33 593.06 837.38 606.99
00004238 DELETE   492.09 98.38 431.95 644.61 691.74 377.72 867.07 395.75 814.76 491.89 698.25 591.60 832.11 607.20
00004239 DELETE   490.70 93.64 432.74 648.36 683.85 374.53 862.71 391.34 807.84 486.44 691.92 590.95 827.45 605.67
00004240 00000052 491.62 85.29 430.14 654.84 682.17 366.60 862.33 389.40 806.52 481.44 687.76 586.18 825.99 605.63
00004241 00000053 491.78 85.41 428.87 651.85 678.08 363.78 861.57 384.49 803.38 479.71 685.87 584.66 825.96 602.50
00004242 00000054 492.35 85.58 427.55 651.62 674.94 362.18 860.00 380.47 800.13 479.82 683.53 584.42 824.81 600.62
00004243 00000055 490.91 86.07 428.08 650.96 672.36 362.02 858.02 378.48 798.10 479.13 683.01 583.70 825.40 598.29
00004244 00000056 490.92 87.48 426.94 650.89 670.61 361.23 855.99 376.84 797.06 478.58 682.70 583.92 825.55 597.90
00004245 00000057 489.99 87.07 427.79 656.24 669.74 361.35 854.98 377.49 794.41 479.95 680.27 585.28 823.10 599.66
00004246 00000058 489.24 85.89 428.05 658.72 668.79 360.19 853.97 378.08 793.37 479.95 679.32 587.50 820.01 603.42
00004247 00000059 484.05 89.14 432.73 663.56 667.22 367.05 845.82 378.30 792.60 488.65 685.35 601.94 823.95 610.50
00004248 00000060 483.33 91.23 432.92 663.47 666.44 366.98 844.72 378.12 791.82 488.53 684.30 602.40 822.94 610.89
00004249 00000061 482.09 89.97 432.83 662.84 665.18 366.56 842.23 377.54 789.63 487.92 683.50 601.44 820.75 609.77
00004250 00000062 479.98 90.61 433.13 660.54 662.86 367.69 839.70 377.32 788.08 488.91 682.51 601.38 818.82 608.54
00004251 00000063 485.15 91.44 427.80 660.09 659.24 366.10 846.45 378.48 785.85 480.15 672.50 591.71 815.92 603.41
00004252 00000064 483.08 91.22 427.81 665.16 656.04 369.78 843.17 380.39 784.39 483.49 672.07 595.54 815.39 605.92
00004253 00000065 473.16 91.65 433.37 664.67 653.14 376.43 832.93 383.84 779.95 496.09 674.66 606.11 814.51 610.99
00004254 00000066 471.55 86.39 432.28 665.19 647.10 370.54 829.23 373.91 776.20 488.76 674.50 601.28 816.33 602.52
00004255 00000067 470.55 80.27 430.91 665.61 644.55 365.09 824.39 364.80 774.54 478.31 672.44 593.12 814.34 591.77
00004256 00000068 470.30 79.21 427.59 668.27 643.85 360.18 823.14 362.14 774.46 474.57 669.09 590.96 811.81 591.62
00004257 00000069 469.00 78.24 425.93 668.67 640.37 360.47 820.64 363.28 771.33 476.66 665.23 591.88 809.10 593.26
00004258 DELETE   466.92 81.62 426.43 659.66 635.16 363.89 820.24 369.67 765.46 479.30 658.49 591.93 803.70 596.27
00004259 00000071 464.68 84.19 428.90 667.03 632.66 368.58 820.25 377.10 762.38 485.86 652.90 597.74 800.64 604.54
00004260 00000072 463.62 86.58 429.49 666.19 633.40 373.67 820.50 384.58 762.87 490.09 651.95 599.99 799.52 608.60
00004261 00000073 463.45 87.56 430.29 661.55 634.99 373.27 820.69 383.93 764.46 487.62 654.68 598.90 799.66 607.35
00004262 00000074 464.76 87.22 426.68 652.64 634.41 369.97 819.77 376.73 763.50 483.20 656.99 594.28 800.93 599.74
00004263 00000075 466.20 83.02 424.41 652.39 637.79 367.86 819.49 373.00 767.87 478.74 662.11 590.82 803.72 594.64
00004264 DELETE   464.95 83.47 423.34 650.76 645.02 369.66 819.78 374.72 773.68 477.84 665.10 588.57 802.32 592.45
00004265 DELETE   465.14 83.82 421.92 650.47 644.21 373.07 819.58 378.09 772.15 479.37 664.93 590.80 802.31 594.56
00004266 00000078 462.52 86.05 424.61 647.06 640.56 376.68 820.77 383.76 769.61 482.80 660.39 593.17 800.03 598.58
00004267 00000079 462.13 90.38 425.93 643.30 640.11 377.15 821.91 385.74 768.62 484.46 659.88 594.09 800.84 600.91
00004268 00000080 462.28 89.38 427.27 645.28 642.03 372.49 823.22 381.32 770.43 482.77 660.88 592.36 800.66 599.59
00004269 00000081 464.76 86.71 424.05 645.79 644.84 367.93 822.94 375.21 772.77 479.29 664.68 589.43 801.70 595.35
00004270 DELETE   465.71 82.29 422.95 647.90 644.27 364.34 822.33 370.58 773.55 477.11 665.61 587.20 802.85 592.10
00004271 00000083 465.78 81.42 423.27 648.20 643.44 362.62 821.66 367.55 773.73 475.54 666.35 586.18 804.42 589.92
00004272 00000084 466.85 81.85 422.76 647.80 644.61 362.76 822.22 367.48 773.91 476.28 667.41 586.23 804.46 589.83
00004273 00000085 468.12 83.10 423.40 648.63 646.47 364.55 825.04 370.28 775.30 478.37 668.65 588.60 805.43 593.07
00004274 00000086 469.46 82.88 423.73 651.69 649.22 364.61 827.07 369.65 777.83 478.55 671.00 589.22 808.07 592.92
00004275 00000087 471.67 80.33 425.90 656.78 653.69 360.74 830.98 367.21 782.47 476.17 673.20 588.12 811.77 592.97
00004276 00000088 474.14 79.22 427.53 657.01 658.17 357.78 833.06 365.88 786.15 474.65 677.33 586.57 813.45 592.71
00004277 00000089 476.97 80.14 427.85 653.79 664.57 355.10 837.35 365.97 790.98 473.69 681.05 584.24 815.80 592.76
00004278 00000090 478.22 80.59 430.33 648.89 669.00 353.03 840.56 365.10 794.27 472.16 684.98 581.41 817.37 590.81
00004279 00000091 475.59 86.19 433.50 646.44 668.18 352.16 847.89 365.76 798.61 472.66 687.11 581.43 823.54 591.08
00004280 00000092 480.67 81.91 431.33 650.98 676.17 355.71 849.88 369.38 802.52 474.62 689.86 582.65 825.21 593.09
00004281 00000093 484.78 80.59 431.47 659.20 674.90 349.94 854.71 372.93 801.64 471.62 682.50 575.06 826.44 594.72
00004282 00000094 486.02 82.34 432.28 656.79 676.67 349.27 856.13 371.89 803.22 470.78 684.95 575.26 827.67 594.66
00004283 00000095 486.67 81.13 432.56 653.59 678.82 347.11 857.73 371.01 803.73 470.67 685.69 573.65 826.72 594.20
00004284 00000096 487.28 81.36 432.22 650.88 679.61 347.06 859.81 371.34 804.68 470.47 686.61 574.78 826.49 595.75
00004285 00000097 487.43 80.45 432.60 652.01 680.15 348.58 860.19 371.43 804.92 471.57 687.67 576.31 827.35 596.10
00004286 00000098 487.69 80.71 432.67 651.69 680.50 350.17 860.25 372.48 804.28 473.39 687.87 576.48 826.80 595.72
00004287 00000099 488.98 82.18 431.52 649.36 682.05 350.63 861.40 373.58 805.20 474.68 688.46 576.47 827.06 596.18
00004288 00000100 489.24 82.31 431.11 649.64 681.98 350.98 861.60 374.41 805.15 475.11 687.46 576.38 826.49 596.55
00004289 00000101 488.15 82.22 431.84 649.39 682.49 350.51 861.64 374.87 805.10 475.35 687.14 576.68 824.80 597.66
00004290 00000102 488.04 82.54 431.32 650.74 682.75 350.68 860.73 375.66 804.78 475.56 687.18 576.93 823.69 598.40
00004291 00000103 487.60 83.55 430.99 650.83 681.19 351.24 859.43 375.54 803.52 476.11 685.36 576.73 823.67 597.64
00004292 00000104 487.06 82.54 431.30 653.69 680.76 351.29 858.99 375.75 802.92 476.37 684.20 577.00 822.96 597.95
00004293 00000105 487.32 83.99 431.43 653.52 679.14 352.90 859.30 376.66 802.41 476.48 683.62 578.70 824.01 598.99
00004294 00000106 485.69 85.72 432.69 652.57 679.07 353.60 860.05 378.23 803.24 477.10 682.86 580.17 823.18 601.30
00004295 00000107 487.11 85.47 432.07 652.24 678.52 354.32 860.80 378.40 802.55 477.82 681.83 580.48 822.77 601.20
00004296 00000108 487.74 85.71 431.66 651.13 677.09 355.52 860.37 379.19 800.87 478.13 680.36 580.05 822.14 600.45
00004297 00000109 487.99 83.71 431.06 655.04 677.11 355.17 860.96 379.54 801.20 478.53 678.97 580.86 822.14 601.79
00004298 00000110 488.30 86.02 431.72 651.87 676.37 356.24 861.05 380.04 800.84 478.43 679.18 581.62 822.00 602.13
00004299 00000111 487.44 86.43 433.02 652.07 677.68 356.32 861.33 380.37 801.16 479.62 679.57 582.31 821.02 603.02
00004300 00000112 488.07 87.75 432.70 651.26 678.22 357.75 861.83 381.20 801.89 480.44 679.51 583.58 821.00 603.85
00004301 00000113 488.69 88.42 432.38 653.08 678.31 358.84 862.46 382.09 802.14 481.48 679.43 584.97 821.89 605.11
00004302 00000114 488.79 88.04 432.58 653.85 678.43 359.17 863.05 382.38 802.82 482.29 679.78 585.62 823.15 605.59
00004303 00000115 489.84 88.74 432.22 653.99 677.16 361.24 863.57 383.66 802.79 482.35 678.87 586.65 823.99 606.09
00004304 00000116 490.10 90.12 432.50 653.93 677.20 361.49 864.70 383.06 803.81 483.57 679.22 588.67 824.84 607.46
00004305 00000117 490.42 90.74 432.62 654.04 676.61 362.75 865.01 383.32 803.76 483.74 679.47 589.61 825.37 607.60
00004306 00000118 490.72 90.64 432.62 653.51 676.56 363.27 865.31 383.75 804.33 484.52 679.76 590.26 825.90 608.21
00004307 00000119 490.59 90.26 433.22 654.64 676.74 363.27 866.56 384.28 804.88 484.91 680.09 590.74 826.69 609.08
00004308 00000120 491.06 91.29 433.98 652.18 678.29 363.78 867.83 385.31 805.78 486.11 680.61 591.11 826.29 609.97
00004309 00000121 491.04 90.57 434.69 653.26 679.11 364.32 868.48 385.96 806.56 487.33 681.09 591.54 826.72 610.43
00004310 00000122 490.96 93.53 435.00 650.99 679.93 366.24 867.51 386.35 806.90 488.19 682.78 592.73 826.16 610.45
00004311 00000123 491.17 93.73 435.95 653.59 680.42 366.43 868.23 387.31 807.47 489.82 683.25 594.22 826.98 612.56
00004312 00000124 491.93 94.19 435.96 653.20 680.50 367.28 869.09 388.16 807.88 490.60 683.29 595.12 827.43 613.48
00004313 00000125 491.98 94.84 436.45 654.39 680.19 367.84 868.96 388.88 807.64 491.51 683.15 595.74 827.63 614.23
00004314 00000126 492.13 96.26 436.52 652.30 680.57 368.47 869.33 388.60 808.23 491.80 684.30 596.03 828.47 613.82
00004315 00000127 492.74 97.95 435.87 650.39 679.54 369.53 869.23 388.59 807.52 492.80 684.82 597.23 829.04 614.19
00004316 00000128 493.08 95.84 435.60 653.54 679.76 370.02 868.82 389.08 807.75 493.18 684.64 596.60 829.61 613.47
00004317 00000129 492.73 97.67 435.80 651.79 679.85 370.72 868.61 389.55 807.84 492.90 685.45 597.29 829.46 613.96
00004318 00000130 492.52 96.43 436.85 654.38 680.84 370.19 869.11 390.19 808.53 493.62 685.06 596.82 829.72 614.43
00004319 00000131 492.36 96.83 437.10 652.63 681.01 369.69 869.47 389.81 809.00 493.03 685.44 596.61 829.68 614.31
00004320 00000132 492.41 96.99 437.19 652.53 681.22 368.72 869.52 389.27 808.80 492.13 684.87 595.54 829.47 613.63
00004321 00000133 493.05 97.48 436.52 651.54 681.14 368.72 869.41 389.15 808.78 492.14 684.95 595.35 829.72 613.39
00004322 00000134 492.91 97.54 436.48 651.99 680.95 369.26 869.18 389.52 808.64 492.79 684.88 595.59 829.76 613.54
00004323 00000135 494.03 97.57 436.94 653.09 681.74 370.07 870.01 390.40 809.15 492.84 685.51 595.79 830.58 613.74
00004324 00000136 494.61 99.39 436.62 651.25 681.30 370.46 870.95 390.44 809.12 493.29 685.34 596.41 831.42 614.17
00004325 00000137 493.90 98.61 437.14 652.69 680.80 370.74 870.39 390.77 808.39 493.60 684.61 596.16 831.04 613.93
00004326 00000138 493.69 98.18 437.27 654.54 681.05 371.04 870.18 391.36 808.57 493.50 684.39 596.31 830.71 614.29
00004327 00000139 493.78 97.52 437.95 656.16 680.95 371.40 870.65 392.15 808.60 494.31 683.96 596.35 831.36 614.65
00004328 00000140 493.12 98.96 438.62 655.22 680.76 372.61 870.74 392.42 808.52 495.18 684.50 597.33 831.98 614.80
00004329 00000141 493.03 98.17 439.45 657.00 680.72 373.01 871.58 393.30 808.78 495.39 683.96 597.42 832.86 615.28
00004330 00000142 492.74 99.26 440.31 656.38 681.11 373.53 871.22 394.18 808.65 496.70 684.03 597.92 832.06 616.11
00004331 00000143 493.49 99.37 439.97 655.97 680.74 375.38 871.43 394.41 808.38 497.61 685.00 599.22 832.68 616.09
00004332 00000144 494.68 98.21 439.69 656.68 681.72 375.36 872.39 394.93 808.68 498.01 685.48 599.24 832.70 616.55
00004333 00000145 495.23 97.67 439.59 657.69 681.57 375.84 872.04 395.59 808.64 497.70 685.20 598.72 833.02 616.20
00004334 00000146 495.06 99.94 439.56 656.32 681.95 376.05 871.43 396.32 808.61 498.26 685.19 598.21 832.71 616.20
00004335 00000147 495.62 103.03 439.39 651.80 682.13 376.80 872.54 396.01 808.77 498.35 685.79 598.28 833.85 615.38
00004336 00000148 496.08 99.77 439.86 655.75 682.99 376.57 872.91 395.96 809.01 499.03 685.95 598.52 833.81 615.75
00004337 00000149 496.72 99.21 439.63 656.60 683.93 376.94 872.83 396.90 809.52 499.53 686.15 597.77 833.83 615.43
00004338 00000150 496.19 100.00 439.64 657.86 683.89 377.11 872.28 397.29 809.23 500.54 685.17 597.76 833.25 615.66
00004339 00000151 495.95 98.58 440.19 659.11 683.88 377.63 871.93 397.40 809.34 500.40 685.36 597.70 833.11 615.24
00004340 00000152 496.05 99.30 440.10 659.23 683.99 378.05 872.29 398.07 809.67 501.61 684.71 597.79 833.53 615.50
00004341 00000153 495.25 100.43 440.50 660.37 683.55 377.71 871.63 398.21 809.24 502.04 683.84 598.32 832.76 616.47
00004342 00000154 495.97 100.05 440.07 659.36 684.06 380.28 871.58 400.54 809.16 503.47 684.43 598.79 832.88 616.73
00004343 00000155 494.28 101.41 441.64 658.94 684.70 383.64 871.46 404.81 809.00 506.69 682.93 599.36 831.35 618.03
00004344 00000156 492.84 103.38 441.65 658.62 684.17 386.30 871.30 407.28 808.97 508.77 682.64 600.57 831.21 619.05
00004345 00000157 493.96 105.19 439.75 658.18 681.80 389.95 871.03 408.46 807.18 512.65 679.99 602.32 830.50 618.94
00004346 00000158 493.50 106.01 439.92 659.48 680.51 393.39 869.53 411.25 804.54 515.27 678.69 604.41 829.55 620.52
00004347 00000159 492.18 106.81 440.30 660.38 676.99 397.01 869.02 412.68 802.65 519.52 676.20 607.57 830.15 621.74
00004348 00000160 491.94 111.20 440.21 657.99 677.22 399.71 869.68 414.79 801.91 522.44 675.35 610.73 827.09 624.57
00004349 00000161 491.91 113.14 441.52 661.53 675.68 404.39 870.68 418.37 800.93 525.91 674.75 616.03 827.60 628.97
00004350 00000162 490.25 116.30 441.55 663.59 675.67 407.23 868.90 420.23 800.92 530.90 675.88 620.79 827.04 632.88
00004351 00000163 489.56 115.93 440.11 667.99 675.58 410.14 867.49 422.59 801.31 534.62 676.25 624.22 827.69 635.59
00004352 00000164 488.76 122.00 438.78 663.61 675.44 413.84 866.34 423.36 801.19 539.61 676.65 629.29 826.86 638.31
CROP_BBOX: 166 0 1229 962
