Video ID: 	PK6Lt--AHM0
H: 	1080
W: 	1920
FPS: 	25.0

FRAME INDEX X0 Y0 W H [Landmarks (5 Points)]

00003637 00000000 561.35 141.87 387.49 533.05 664.03 368.09 819.16 348.39 752.88 456.91 705.35 539.86 838.19 523.04
00003638 00000001 566.52 141.93 383.51 531.99 667.16 365.58 820.64 349.33 753.05 455.92 705.09 537.76 836.16 524.12
00003639 DELETE   571.44 144.50 380.51 527.47 671.91 371.40 823.28 358.96 753.68 455.30 705.01 536.52 835.32 526.33
00003640 DELETE   577.25 148.23 376.95 518.03 674.67 369.74 826.35 358.47 755.01 454.87 708.22 535.70 836.46 526.75
00003641 00000004 581.04 147.45 377.64 520.35 677.20 367.05 829.96 355.37 758.15 456.90 710.53 537.40 838.54 528.26
00003642 00000005 586.66 147.59 375.55 523.60 682.99 367.05 834.41 355.34 764.70 460.10 715.08 540.07 842.84 531.15
00003643 00000006 594.49 154.89 373.43 526.11 685.32 363.64 835.29 351.77 766.09 459.84 718.17 542.34 842.00 532.50
00003644 00000007 591.52 152.42 374.25 525.43 688.29 368.99 839.35 358.44 769.59 466.86 717.45 542.77 846.92 534.57
00003645 00000008 593.12 151.27 376.12 523.69 690.52 368.97 843.23 356.59 774.19 465.40 720.25 541.01 852.54 531.14
00003646 00000009 598.07 151.52 374.19 526.65 695.49 370.97 846.70 355.90 779.42 465.41 723.08 540.12 859.11 527.71
00003647 00000010 601.91 153.25 374.86 525.97 699.52 371.26 851.57 354.72 785.41 464.94 726.14 539.79 864.87 526.17
00003648 00000011 604.60 152.52 375.04 525.73 703.65 372.53 854.27 356.35 790.40 467.45 733.08 542.58 867.02 529.35
00003649 00000012 604.91 157.24 378.00 525.91 704.77 375.25 856.53 358.94 793.62 470.53 738.56 548.81 869.41 535.33
00003650 00000013 609.24 158.12 377.13 530.73 708.43 376.62 859.10 363.00 795.93 472.45 741.71 553.08 870.12 541.73
00003651 00000014 612.95 159.71 379.02 531.88 709.50 370.91 863.98 359.72 804.51 472.66 750.73 561.63 872.32 551.67
00003652 00000015 615.66 157.91 379.38 543.42 715.92 373.20 872.69 370.11 805.57 479.10 745.60 563.51 868.20 561.49
00003653 00000016 618.23 154.34 379.41 545.23 718.81 374.00 876.14 370.41 809.64 481.60 749.46 567.09 871.56 564.69
00003654 00000017 619.58 157.21 379.44 544.71 720.77 373.64 878.54 371.34 811.52 481.35 749.00 567.06 873.34 565.87
00003655 00000018 622.64 159.16 378.74 544.61 724.94 371.85 881.53 372.10 813.72 480.76 751.25 562.22 878.06 563.06
00003656 00000019 624.73 159.21 378.85 543.65 728.26 371.01 883.51 373.15 815.27 481.46 751.62 558.77 880.28 561.12
00003657 00000020 627.12 159.94 380.52 540.97 731.52 370.77 887.61 373.36 818.08 481.26 750.50 555.61 883.39 558.22
00003658 00000021 628.67 160.66 380.78 539.68 732.63 370.62 890.44 372.11 819.72 480.84 750.35 553.57 886.81 555.07
00003659 00000022 629.86 160.60 380.79 537.60 732.97 369.00 891.89 370.21 820.41 479.06 751.14 551.89 886.81 553.05
00003660 00000023 630.94 159.57 380.85 537.73 734.08 367.64 893.09 369.04 821.49 476.71 752.97 551.05 886.79 552.20
00003661 00000024 631.45 159.32 381.66 535.91 734.49 366.80 893.97 367.33 822.07 474.95 754.12 550.29 886.88 550.68
00003662 00000025 632.09 160.29 381.37 530.97 734.71 365.93 895.12 365.83 822.25 473.74 755.40 548.42 887.00 548.24
00003663 00000026 632.87 160.21 381.44 531.21 734.99 364.97 896.10 364.31 823.19 473.32 757.33 550.94 886.44 550.38
00003664 00000027 632.57 160.38 382.19 530.66 735.52 364.38 895.92 364.21 822.74 470.45 758.62 549.75 886.04 549.59
00003665 00000028 632.47 161.01 382.08 530.15 735.35 363.59 895.52 364.20 821.94 469.49 758.10 548.45 885.30 548.87
00003666 00000029 631.88 160.65 381.51 533.01 734.72 363.02 894.51 364.23 821.92 469.96 757.20 549.60 884.52 550.63
00003667 00000030 631.53 158.68 380.29 535.43 734.12 363.39 894.28 363.30 823.75 471.29 759.79 555.78 883.62 555.89
00003668 00000031 631.77 156.94 378.77 533.51 733.82 364.40 894.05 362.12 824.56 474.23 761.35 558.43 884.04 556.72
00003669 00000032 632.10 156.83 378.52 533.64 734.65 364.27 894.59 361.90 825.50 474.15 761.82 558.27 884.38 556.52
00003670 00000033 632.19 158.57 378.87 533.19 734.95 363.12 895.21 361.25 825.87 470.92 762.80 557.48 884.21 556.13
00003671 00000034 632.27 159.07 379.11 532.14 735.19 362.73 895.33 361.50 825.58 468.97 762.24 555.24 883.99 554.37
00003672 00000035 632.32 159.24 379.42 531.68 735.33 362.26 895.81 361.44 825.77 469.07 762.03 553.58 885.23 552.92
00003673 00000036 633.24 160.72 379.77 528.58 735.91 362.32 897.34 360.75 826.45 469.14 763.21 553.14 887.13 551.72
00003674 00000037 634.25 160.55 380.48 527.89 736.92 361.05 898.39 359.48 827.03 469.00 764.80 552.11 888.26 550.60
00003675 00000038 635.09 159.59 380.96 528.73 738.21 359.75 900.29 358.04 828.26 467.55 765.64 550.91 891.03 549.20
00003676 00000039 636.43 159.01 379.91 527.80 739.59 359.21 901.46 357.05 829.57 467.16 767.17 550.67 891.37 548.62
00003677 00000040 637.31 159.43 379.80 528.23 740.07 359.07 901.76 357.26 829.05 467.11 766.36 550.06 891.63 548.29
00003678 00000041 637.65 159.50 379.32 528.28 739.93 358.95 901.77 357.39 828.44 466.86 765.65 548.78 891.65 547.15
00003679 00000042 639.28 159.19 379.03 530.88 741.38 358.57 901.82 358.19 827.97 466.56 765.66 546.94 893.23 546.13
00003680 00000043 640.13 161.54 379.32 530.07 742.82 359.61 902.48 360.08 827.24 467.57 764.70 546.06 892.61 545.93
00003681 00000044 641.61 160.90 378.46 533.10 743.42 360.43 902.74 360.49 827.36 467.43 765.28 546.83 893.56 546.33
00003682 00000045 642.48 161.44 378.67 533.81 744.47 360.24 903.25 359.85 827.98 467.41 765.93 547.73 893.12 546.92
00003683 00000046 643.53 162.91 378.25 533.58 745.05 360.00 903.83 359.88 827.94 467.77 766.09 548.52 892.95 547.96
00003684 00000047 643.93 163.91 377.66 532.53 745.61 359.69 904.12 359.56 828.63 468.26 766.74 549.25 892.54 548.72
00003685 00000048 644.99 163.39 376.27 533.38 745.61 360.83 904.60 359.48 829.55 467.96 767.83 551.46 894.06 549.99
00003686 00000049 644.97 161.82 376.61 534.87 746.63 359.77 905.03 359.46 830.47 467.36 769.35 552.44 892.02 551.98
00003687 00000050 647.43 154.44 373.74 543.57 749.41 367.19 902.02 362.94 832.39 465.06 774.80 555.65 893.45 552.20
00003688 DELETE   653.34 150.34 373.42 546.46 753.99 365.94 906.82 360.84 837.01 457.98 776.30 551.26 899.68 547.39
00003689 DELETE   659.89 152.13 371.95 540.95 760.83 359.15 917.26 354.68 847.48 456.85 778.63 545.98 906.61 542.58
00003690 00000053 664.44 150.61 372.60 542.07 766.85 355.42 924.76 350.93 857.11 456.74 785.06 541.81 916.97 538.46
00003691 00000054 668.29 149.89 371.64 543.04 772.71 353.64 931.53 350.81 866.00 457.40 792.21 543.34 923.04 541.28
00003692 00000055 667.05 144.04 373.09 536.98 782.35 356.93 936.58 359.02 872.56 459.28 799.47 538.83 929.59 541.16
00003693 00000056 668.60 138.49 373.51 535.18 783.18 355.58 938.76 356.10 875.89 457.67 804.19 537.79 933.14 538.77
00003694 00000057 670.93 137.58 373.32 534.75 787.44 355.96 942.71 353.52 883.84 456.09 811.03 538.88 939.22 537.34
00003695 00000058 673.92 136.33 376.17 540.91 796.40 353.02 948.90 352.42 892.63 453.41 815.33 535.81 944.67 535.81
00003696 00000059 678.16 135.41 374.01 549.90 802.88 355.77 953.96 352.90 901.57 454.16 817.81 536.13 951.30 534.09
00003697 00000060 682.13 139.90 372.94 542.46 807.39 354.82 959.28 353.39 906.80 454.54 817.25 529.88 956.60 529.83
00003698 00000061 686.45 141.07 373.18 541.89 814.24 353.69 964.55 353.31 912.41 454.23 825.21 532.29 959.08 532.93
00003699 00000062 688.80 125.84 370.05 548.70 819.34 350.65 973.74 356.76 912.57 458.19 833.13 531.18 962.02 537.47
00003700 00000063 691.13 125.95 372.80 544.00 823.96 349.23 979.61 355.37 918.53 456.05 840.59 531.96 965.86 537.93
00003701 00000064 694.43 126.33 372.05 543.75 831.34 350.32 983.26 355.29 926.02 456.35 846.93 532.25 969.76 537.18
00003702 00000065 698.33 128.39 367.21 553.53 839.66 351.58 986.43 356.95 935.59 456.67 850.44 534.86 974.80 539.80
00003703 00000066 702.27 131.25 365.41 554.94 847.19 354.75 990.97 360.34 942.86 456.27 855.48 535.39 979.23 540.32
00003704 00000067 709.97 138.67 364.79 544.96 854.70 357.64 995.36 361.93 945.93 462.28 862.73 534.06 984.83 537.74
00003705 00000068 716.52 138.21 364.64 547.74 860.49 358.94 1003.49 363.68 953.54 460.62 866.21 533.67 991.99 537.42
00003706 00000069 726.62 147.86 363.10 540.64 860.47 349.05 1011.42 353.53 955.03 455.38 871.51 537.40 997.30 540.93
00003707 00000070 732.19 143.36 362.40 543.39 864.00 349.37 1019.22 355.01 964.68 456.49 879.94 545.21 999.37 549.67
00003708 00000071 734.76 142.33 363.85 540.22 865.42 352.77 1023.27 357.44 970.86 455.75 883.56 544.84 1006.83 548.77
00003709 00000072 736.18 144.24 365.96 540.75 867.29 354.64 1026.30 360.09 973.75 457.82 884.49 546.32 1010.40 550.68
00003710 00000073 736.01 148.63 369.35 547.26 872.04 355.90 1028.12 365.41 975.01 460.71 884.12 546.49 1012.72 553.77
00003711 00000074 736.53 150.62 369.75 546.75 874.27 358.55 1028.58 367.14 977.18 466.69 885.53 547.18 1014.94 554.04
00003712 00000075 736.41 152.88 369.72 544.74 875.33 359.61 1028.99 368.11 977.88 470.71 884.73 546.58 1015.68 553.58
00003713 00000076 735.42 154.71 371.50 544.80 874.55 360.83 1028.76 370.00 975.79 474.03 882.39 546.97 1014.73 554.62
00003714 00000077 733.12 156.82 372.99 544.48 874.28 361.64 1025.90 371.90 973.06 476.19 879.19 544.45 1013.02 552.93
00003715 00000078 731.31 159.11 373.90 543.39 873.71 362.40 1024.17 373.42 970.00 478.85 876.43 544.49 1010.11 553.60
00003716 00000079 730.38 158.27 371.88 543.13 871.70 362.42 1019.82 373.24 965.70 478.33 873.79 542.69 1006.83 551.73
00003717 00000080 728.12 158.99 372.59 539.42 868.57 362.76 1017.60 371.09 962.60 477.92 870.13 539.98 1006.16 547.00
00003718 00000081 726.71 157.56 373.32 541.85 867.24 362.24 1016.97 370.81 960.75 477.95 867.33 540.24 1004.39 547.47
00003719 00000082 726.96 157.96 372.93 542.49 866.46 361.51 1016.58 370.36 960.02 476.48 866.96 539.99 1005.20 547.35
00003720 00000083 727.41 156.88 371.95 541.62 867.60 358.66 1017.03 369.54 959.93 474.54 866.57 537.68 1003.11 546.75
00003721 00000084 728.84 154.75 369.93 544.56 869.42 356.31 1018.22 369.33 961.24 473.35 867.31 537.19 1002.66 547.94
00003722 00000085 729.37 154.76 369.44 543.84 869.86 355.55 1018.71 368.02 961.96 471.40 868.97 537.52 1003.26 547.69
00003723 00000086 729.35 153.26 368.25 543.26 869.93 354.35 1019.25 365.92 962.77 468.75 870.07 536.69 1003.93 546.08
00003724 00000087 729.68 153.89 367.20 541.57 869.87 353.51 1020.11 365.36 963.48 467.80 870.32 535.78 1004.76 545.40
00003725 00000088 728.37 152.47 367.78 542.42 870.58 353.28 1020.46 365.10 964.62 467.30 870.89 535.81 1004.83 545.45
00003726 00000089 728.84 152.88 366.82 541.36 870.82 353.65 1020.77 366.57 964.52 467.52 872.21 539.03 1001.92 549.49
00003727 00000090 729.25 154.96 365.71 538.00 871.14 354.73 1020.80 366.01 966.08 467.58 874.97 541.33 1002.06 550.51
00003728 00000091 730.21 154.46 365.51 537.42 872.55 354.80 1021.92 366.35 968.56 465.60 877.23 541.28 1003.35 550.81
00003729 00000092 731.65 154.88 363.69 534.25 873.97 355.05 1022.78 365.63 969.76 466.96 882.09 545.27 1000.57 553.99
00003730 00000093 733.43 156.57 362.03 529.90 874.32 356.36 1025.05 364.24 973.36 467.63 883.97 545.57 1004.79 552.28
00003731 00000094 735.99 154.82 359.44 529.33 874.91 357.94 1026.99 364.82 977.38 467.30 886.32 545.91 1009.03 552.04
00003732 00000095 738.20 154.83 356.90 525.78 876.77 358.68 1028.71 364.60 979.01 468.56 888.04 545.08 1010.95 550.76
00003733 00000096 739.33 154.43 358.43 531.93 879.92 357.42 1030.48 365.05 981.63 468.81 887.17 543.12 1012.92 550.12
00003734 00000097 739.30 153.80 358.38 531.18 879.53 358.64 1031.83 364.56 983.97 470.73 887.25 542.85 1016.03 548.59
00003735 00000098 740.54 155.93 355.04 526.29 882.87 361.48 1031.69 368.51 984.01 470.82 886.06 537.91 1016.23 545.02
00003736 00000099 741.73 159.71 354.28 523.00 884.88 369.63 1030.39 381.24 980.35 469.42 883.80 535.68 1014.99 546.68
00003737 00000100 740.87 157.68 356.22 528.93 883.92 365.93 1030.23 378.23 980.30 466.28 885.32 540.15 1011.93 551.18
00003738 00000101 740.43 150.97 356.06 528.30 879.03 363.44 1030.67 371.11 982.03 461.77 891.14 548.02 1009.96 555.08
00003739 00000102 738.53 151.12 355.23 522.27 874.65 359.40 1028.36 365.89 978.43 460.71 889.78 547.14 1007.07 553.09
00003740 00000103 734.10 148.97 356.26 525.38 873.03 355.34 1026.16 361.22 977.08 459.28 889.77 547.95 1003.12 553.09
00003741 00000104 731.75 148.99 360.37 533.20 873.19 352.80 1024.86 361.38 974.84 456.76 885.74 544.39 1002.24 551.66
00003742 00000105 731.52 151.24 361.69 537.81 874.28 351.56 1024.73 364.05 973.14 458.35 879.01 539.33 1003.40 549.87
00003743 00000106 733.12 150.37 360.48 539.70 874.35 351.04 1026.21 362.77 974.68 459.62 879.09 539.18 1005.63 549.10
00003744 00000107 734.39 149.84 359.43 534.65 874.62 352.95 1027.67 361.91 978.19 460.32 879.97 536.38 1010.84 544.41
00003745 00000108 734.70 150.25 359.12 530.69 873.99 353.00 1028.09 361.31 978.74 459.22 878.10 533.54 1011.34 541.33
00003746 00000109 735.82 151.07 357.75 527.89 873.70 354.13 1027.53 360.12 979.42 459.54 879.67 532.87 1013.75 538.85
00003747 00000110 736.44 151.14 357.88 529.07 874.22 353.59 1027.09 360.27 978.86 460.44 879.72 532.73 1014.04 539.22
00003748 00000111 736.07 152.58 358.47 529.99 875.18 352.23 1026.95 360.59 977.87 460.41 877.25 529.41 1013.87 537.16
00003749 00000112 735.32 152.28 359.44 531.47 874.78 352.27 1026.51 361.30 977.11 459.69 874.99 527.09 1014.87 535.34
00003750 00000113 735.06 154.42 359.10 527.18 874.37 352.00 1025.76 361.49 975.41 459.27 873.32 525.24 1013.15 534.01
00003751 00000114 734.56 153.06 359.53 528.25 873.99 352.21 1025.48 361.45 975.16 459.14 873.04 524.94 1013.12 533.57
00003752 00000115 734.59 152.49 359.81 529.67 873.97 351.90 1024.72 361.21 974.33 459.21 872.10 523.90 1012.86 532.55
00003753 00000116 734.72 152.88 359.35 527.52 873.79 351.48 1024.05 360.67 973.80 457.34 872.51 523.63 1011.87 532.23
00003754 00000117 733.88 152.53 359.73 529.02 873.03 351.11 1023.17 360.64 972.13 457.33 872.16 523.92 1011.01 532.67
00003755 00000118 732.02 148.17 359.81 532.46 874.20 359.99 1019.32 362.91 971.90 459.25 874.55 525.29 1009.33 528.23
00003756 00000119 730.65 146.29 360.87 532.30 873.54 358.80 1019.50 363.20 970.59 457.89 875.14 526.53 1006.60 530.39
00003757 00000120 729.91 144.86 361.50 531.17 872.05 358.88 1019.67 362.63 969.94 457.54 874.50 525.47 1007.03 528.92
00003758 00000121 729.43 143.23 362.00 531.47 870.80 359.04 1019.81 361.78 969.27 457.40 874.78 525.95 1007.80 528.50
00003759 00000122 728.79 144.55 361.53 531.26 869.64 358.55 1018.35 361.59 967.80 457.05 873.54 525.42 1007.14 528.20
00003760 00000123 728.89 149.58 361.81 534.51 869.21 349.83 1018.11 357.10 964.10 454.56 872.14 525.43 1007.49 531.70
00003761 00000124 726.70 145.13 362.22 540.14 870.51 358.31 1015.43 362.71 965.62 458.44 870.53 525.92 1006.16 529.58
00003762 00000125 726.10 143.57 363.29 541.36 868.79 358.15 1014.37 362.88 963.45 460.03 867.20 523.10 1006.21 527.23
00003763 00000126 723.31 144.38 364.54 540.05 866.79 358.53 1012.70 363.28 961.14 461.35 865.15 522.90 1004.54 527.02
00003764 00000127 720.83 142.11 362.53 539.96 865.56 358.30 1009.20 363.76 957.86 461.26 868.23 528.68 996.95 532.88
00003765 00000128 718.73 136.49 362.60 533.19 861.01 357.98 1009.84 361.48 956.89 457.64 871.46 529.43 995.89 532.22
00003766 00000129 718.83 132.59 363.55 537.34 861.93 355.80 1008.63 360.26 955.78 455.59 871.59 528.04 994.76 531.58
00003767 00000130 719.04 130.87 362.78 544.06 864.42 354.41 1007.17 359.56 956.62 452.79 871.05 527.43 994.19 531.57
00003768 00000131 718.96 128.82 366.68 549.95 863.78 353.41 1010.47 359.80 958.85 448.95 867.90 523.06 1000.98 527.80
00003769 00000132 721.10 128.62 367.14 550.66 865.49 351.41 1012.30 357.40 960.80 447.10 867.66 520.73 1003.38 525.38
CROP_BBOX: 429 0 1238 819
