Video ID: 	3hNhaCG4xco
H: 	1080
W: 	1920
FPS: 	29.97002997002997

FRAME INDEX X0 Y0 W H [Landmarks (5 Points)]

00000596 00000000 698.38 390.64 358.79 505.02 811.42 548.62 964.50 584.48 866.86 637.76 788.56 729.21 920.92 759.05
00000597 DELETE   688.72 392.31 368.01 499.91 811.50 562.92 959.99 591.22 874.28 641.95 790.75 724.18 922.12 747.72
00000598 00000002 684.33 388.49 372.89 500.20 809.00 561.48 958.89 591.33 871.53 640.62 787.71 723.74 918.27 748.99
00000599 00000003 685.46 389.17 373.73 497.47 809.44 560.23 960.02 591.12 871.24 640.04 787.78 725.48 916.34 751.63
00000600 00000004 686.89 388.60 374.47 505.80 808.22 560.78 964.17 591.83 871.96 642.40 787.65 734.35 918.55 760.86
00000601 00000005 690.17 392.06 373.16 509.10 807.02 561.45 963.05 592.72 867.66 641.88 787.35 739.79 913.26 766.57
00000602 00000006 699.10 386.80 364.42 525.56 814.50 548.32 970.18 579.73 868.53 638.78 789.02 747.54 917.73 774.63
00000603 00000007 695.87 389.15 368.22 518.75 811.30 550.86 968.42 585.40 865.94 641.88 786.09 744.16 917.77 773.71
00000604 00000008 692.12 401.95 370.15 495.28 809.56 564.82 960.63 596.72 869.14 649.00 783.35 731.48 916.25 758.10
00000605 00000009 694.83 392.81 369.75 510.22 805.98 551.65 967.46 590.51 861.12 643.02 782.46 739.48 921.07 772.20
00000606 00000010 693.26 401.79 369.44 499.02 808.85 565.89 960.35 596.91 867.41 650.10 782.05 731.73 918.41 757.37
00000607 00000011 695.69 392.72 369.79 516.90 807.80 551.26 966.17 590.49 861.73 643.60 783.72 739.36 923.21 772.26
00000608 00000012 695.91 393.26 369.62 516.77 805.80 552.47 965.89 591.25 861.16 644.92 783.44 739.63 926.33 772.12
00000609 00000013 694.63 402.00 367.17 495.65 808.97 568.71 958.43 596.56 867.03 650.30 785.52 730.37 921.49 753.18
00000610 00000014 692.40 402.11 369.48 493.13 808.21 568.07 957.82 595.86 867.33 647.81 784.45 727.38 921.09 750.25
00000611 00000015 694.12 402.38 368.14 493.75 808.28 566.94 957.35 594.88 866.08 647.26 784.11 727.68 920.36 750.71
00000612 00000016 700.04 392.01 363.55 510.68 805.43 552.72 967.05 588.66 860.05 642.79 785.06 739.96 927.05 770.13
00000613 00000017 700.13 396.11 365.19 513.67 814.33 550.84 965.85 586.84 864.57 642.84 787.33 739.74 921.20 770.14
00000614 00000018 703.59 396.76 365.55 519.72 809.42 558.18 966.33 589.05 861.57 645.30 789.83 740.66 918.79 767.16
00000615 00000019 705.41 398.53 365.86 515.12 809.56 558.52 967.46 588.30 864.20 646.72 790.57 743.35 918.10 769.06
00000616 00000020 715.59 395.07 355.46 497.89 816.03 561.12 967.05 590.57 868.73 648.69 796.99 739.08 912.12 764.35
00000617 00000021 718.28 394.46 355.20 497.60 817.96 560.75 968.72 591.01 869.56 651.10 799.25 739.58 913.36 765.79
00000618 00000022 720.30 391.18 354.83 512.23 817.82 557.08 971.80 591.27 870.74 650.86 799.38 742.21 918.11 771.82
00000619 00000023 720.45 390.84 354.65 508.41 821.11 556.64 972.88 591.72 873.08 654.09 801.14 740.07 917.43 770.36
00000620 00000024 719.54 393.01 356.97 506.15 823.06 562.30 976.92 598.53 877.86 656.98 801.24 740.03 925.42 771.56
00000621 00000025 716.02 393.87 364.68 513.83 824.27 561.53 980.00 599.73 880.37 658.46 802.76 740.15 933.06 773.27
00000622 00000026 716.59 396.24 364.74 512.19 825.53 561.53 980.90 600.87 880.50 660.26 802.04 739.54 931.86 773.34
00000623 00000027 717.46 396.93 364.28 509.83 826.80 562.54 982.04 601.82 882.71 661.74 806.89 737.16 938.80 770.93
00000624 00000028 715.45 398.14 367.58 506.95 828.38 564.91 985.10 604.24 887.10 661.18 805.93 737.76 940.82 771.63
00000625 00000029 715.89 396.84 371.40 514.34 829.42 564.16 989.45 605.66 887.89 661.95 806.04 738.52 946.95 774.08
00000626 00000030 715.96 397.59 372.66 514.90 831.35 563.48 991.88 605.56 890.32 662.51 805.98 739.05 946.61 775.08
00000627 00000031 719.35 395.63 373.18 518.34 833.44 563.38 995.40 607.72 889.07 663.06 806.19 738.70 949.36 776.60
00000628 00000032 723.11 392.43 370.64 520.55 835.46 563.12 996.81 607.52 891.09 664.24 808.21 740.59 947.96 778.55
00000629 00000033 725.02 391.90 369.00 520.46 837.09 562.60 998.30 607.68 892.60 664.26 811.57 738.33 953.73 776.63
00000630 00000034 728.16 392.50 365.30 519.40 839.86 564.09 999.67 609.55 894.58 665.84 813.14 739.24 953.55 777.72
00000631 00000035 731.21 387.62 363.63 533.88 841.67 560.03 1002.01 608.13 894.97 667.17 812.20 743.66 949.38 784.62
00000632 00000036 731.38 391.21 365.83 531.04 844.08 561.59 1004.05 610.60 895.88 668.65 809.40 748.17 946.00 790.30
00000633 00000037 734.47 393.93 364.02 526.82 844.02 563.41 1005.17 606.92 896.21 667.86 815.26 752.75 946.18 790.46
00000634 00000038 733.85 395.52 369.98 537.45 846.06 564.55 1009.56 610.96 899.81 667.58 814.51 756.36 949.66 796.54
00000635 00000039 729.39 395.13 375.96 550.47 852.00 562.36 1013.97 612.94 903.19 670.37 814.83 757.49 952.38 801.07
00000636 00000040 720.98 394.69 384.18 544.85 848.26 563.96 1012.54 616.39 906.03 667.49 815.31 752.13 951.95 796.37
00000637 DELETE   723.28 391.51 378.92 537.61 848.78 565.01 1012.20 617.33 909.05 667.23 819.27 748.85 953.33 792.82
00000638 DELETE   728.20 395.28 373.99 525.52 852.02 565.05 1015.52 616.56 914.35 664.19 824.07 746.76 958.43 789.90
00000639 00000043 734.36 398.52 369.99 521.38 857.10 563.81 1020.16 614.03 921.30 663.53 828.05 746.15 964.89 788.39
00000640 00000044 735.71 389.78 372.05 530.82 864.01 562.05 1021.36 612.31 926.50 662.13 834.25 743.75 965.05 785.69
00000641 00000045 737.76 386.49 370.93 534.60 865.63 561.64 1021.63 612.83 927.76 663.84 835.83 743.07 966.86 785.70
00000642 00000046 738.46 388.83 369.74 531.37 865.10 562.87 1020.29 613.23 927.43 664.60 836.41 742.44 967.13 784.36
00000643 00000047 735.34 389.69 373.02 532.78 863.68 563.60 1018.38 613.77 924.92 664.60 834.22 741.62 966.25 783.46
00000644 00000048 731.55 393.21 375.18 530.66 861.12 564.56 1015.94 613.65 924.13 666.60 832.83 742.70 965.62 783.55
00000645 00000049 729.67 390.24 376.02 534.17 858.49 564.87 1013.87 614.47 921.33 668.76 830.04 743.96 962.07 785.30
00000646 00000050 730.11 389.58 375.15 535.19 857.77 564.92 1012.48 614.89 919.50 669.29 829.73 744.14 960.32 785.79
00000647 00000051 727.71 391.28 376.20 536.55 855.18 565.54 1012.47 616.35 918.13 669.49 826.66 745.68 960.33 788.04
00000648 00000052 729.15 386.99 373.13 538.36 852.83 565.59 1009.84 616.02 915.20 669.62 826.00 746.20 957.99 788.37
00000649 00000053 729.26 386.32 372.06 537.58 850.84 566.57 1008.00 616.60 913.16 669.74 825.59 746.65 956.63 788.64
00000650 00000054 727.48 392.28 372.95 529.62 848.80 567.04 1008.02 616.83 910.84 669.25 823.13 746.86 955.03 788.68
00000651 00000055 727.57 391.31 373.32 530.60 847.99 565.70 1008.25 614.97 909.65 666.81 821.42 745.66 955.57 787.14
00000652 00000056 725.33 390.07 374.69 529.98 846.33 565.11 1006.33 613.24 908.33 666.20 821.45 744.65 954.11 785.05
00000653 00000057 726.10 389.30 373.27 532.43 846.06 563.31 1005.60 611.39 906.84 664.81 820.46 744.27 954.40 784.71
00000654 00000058 728.50 389.07 369.27 534.37 845.97 562.40 1004.26 608.95 905.97 664.94 820.92 746.79 951.28 786.17
00000655 00000059 731.10 389.29 363.82 528.40 844.82 562.16 1002.47 607.40 904.04 664.18 820.30 744.48 950.73 783.02
00000656 00000060 732.22 390.59 361.19 520.33 843.36 562.07 1000.56 605.16 901.56 663.39 819.90 741.69 949.67 778.72
00000657 00000061 732.59 392.47 359.13 519.02 841.50 559.13 998.93 603.43 897.16 662.84 817.14 739.14 947.99 777.34
00000658 00000062 731.32 391.16 359.40 522.16 840.42 556.67 999.06 601.10 895.44 660.44 813.81 737.54 947.99 775.83
00000659 00000063 730.25 389.85 359.87 525.59 839.56 555.04 1000.10 600.82 894.89 658.18 810.51 736.56 948.33 776.28
00000660 00000064 728.83 392.46 356.27 509.72 840.42 553.81 998.56 596.67 897.81 656.45 810.90 733.47 945.36 771.16
00000661 00000065 728.41 395.08 353.28 498.20 840.67 553.06 996.90 594.62 899.42 654.27 811.48 731.81 943.90 768.74
00000662 00000066 724.66 395.33 356.51 502.78 839.56 551.84 996.91 594.35 901.63 652.10 808.62 731.64 943.21 769.11
00000663 00000067 724.88 393.94 352.91 504.95 837.78 548.66 994.26 593.21 900.86 648.10 807.96 729.53 941.81 768.46
00000664 00000068 720.78 394.00 354.17 508.64 834.33 547.97 991.56 591.92 901.06 645.54 806.65 729.34 941.41 767.52
00000665 00000069 721.62 392.97 351.92 511.75 832.84 549.82 989.07 593.44 899.43 643.99 803.76 731.96 938.67 770.10
00000666 00000070 718.54 394.43 352.04 514.82 827.28 550.48 985.93 593.06 894.70 644.47 800.44 733.74 936.71 770.48
00000667 00000071 713.79 394.85 353.59 517.65 822.75 550.79 984.02 592.33 892.38 645.75 797.55 736.32 935.19 772.03
00000668 00000072 708.57 393.80 355.90 518.60 818.94 551.24 980.04 592.65 889.61 645.92 795.54 735.73 932.67 771.23
00000669 00000073 702.36 401.54 354.56 496.42 822.08 563.03 975.68 600.12 893.59 652.60 795.11 733.97 934.78 765.25
00000670 00000074 699.81 401.22 355.05 493.78 819.53 562.86 973.13 599.83 891.29 651.73 793.65 734.20 932.22 765.44
00000671 00000075 695.92 398.97 357.09 495.00 815.65 561.49 968.17 596.70 888.80 649.45 792.08 731.62 931.85 761.46
00000672 00000076 702.28 390.44 349.92 513.94 810.18 550.76 968.23 590.32 878.02 636.09 787.51 731.73 927.53 765.93
00000673 00000077 697.40 386.13 351.77 510.96 805.53 549.78 966.78 592.04 874.09 637.72 783.71 728.09 926.42 764.34
00000674 00000078 690.08 384.06 359.39 514.77 802.61 549.41 965.08 591.47 872.99 638.85 781.25 727.54 926.49 763.50
00000675 00000079 685.36 379.31 360.90 517.08 799.82 549.05 964.96 592.73 873.73 638.27 779.28 726.27 927.87 763.61
00000676 00000080 681.52 380.94 364.36 515.48 797.86 547.63 962.99 590.93 872.36 638.24 778.21 725.60 926.89 762.60
00000677 00000081 677.09 380.24 368.68 513.28 794.76 548.67 961.53 591.32 869.45 640.29 774.88 725.36 924.98 762.08
00000678 00000082 674.96 380.85 371.92 511.49 793.30 548.39 960.18 591.41 867.47 641.20 773.57 724.46 924.09 761.53
00000679 00000083 674.37 378.77 372.01 514.31 792.50 548.10 960.23 590.86 867.14 640.83 772.04 724.34 923.68 761.21
00000680 00000084 673.35 379.79 372.65 512.40 791.26 549.27 959.01 592.04 863.66 640.35 770.66 724.94 921.43 761.83
00000681 00000085 673.27 381.28 371.04 510.84 790.08 549.77 958.49 591.53 863.25 640.16 770.30 725.66 921.10 761.76
00000682 00000086 671.71 381.35 372.28 509.54 788.39 550.26 958.57 591.95 860.89 640.14 767.26 726.92 918.78 763.32
00000683 00000087 671.76 381.29 372.16 508.52 787.81 550.41 958.03 591.88 859.69 639.82 767.26 727.07 917.95 763.23
00000684 00000088 671.02 380.61 372.07 508.67 786.38 551.14 956.93 591.54 857.99 639.27 767.44 728.30 916.73 763.31
00000685 00000089 672.10 381.04 371.55 509.27 786.90 550.62 957.37 591.49 857.28 638.80 767.09 727.72 916.59 763.34
00000686 00000090 672.32 381.22 372.34 508.30 786.80 549.93 956.57 591.19 856.71 638.43 768.41 727.03 916.98 762.69
00000687 00000091 672.24 381.91 372.91 507.10 787.11 549.75 956.57 591.58 855.99 638.33 767.47 727.08 915.21 763.40
00000688 00000092 673.01 381.47 371.76 506.57 786.80 549.24 955.83 589.19 855.38 637.34 767.91 727.84 913.24 762.76
00000689 00000093 677.08 379.55 370.09 520.73 788.64 550.09 955.77 586.19 857.60 637.02 770.27 732.31 916.65 763.72
00000690 00000094 682.31 377.31 365.36 531.11 789.56 549.00 958.39 585.03 859.91 635.92 770.48 735.22 921.44 766.47
00000691 00000095 682.03 379.59 363.72 524.51 790.73 549.13 961.18 586.51 861.67 636.77 768.32 738.29 918.16 771.17
00000692 00000096 685.11 376.85 364.56 534.70 792.10 550.33 965.10 585.29 862.74 636.32 769.95 745.59 918.41 776.22
00000693 00000097 697.94 380.98 353.43 526.20 800.93 553.45 964.17 583.55 867.02 637.22 781.12 746.61 917.34 773.27
00000694 00000098 702.58 382.17 351.03 522.21 803.57 553.77 966.53 584.04 869.10 640.14 785.17 748.62 916.68 775.46
00000695 00000099 698.15 380.95 363.01 546.01 807.15 550.79 971.33 584.44 874.11 641.59 783.97 751.46 924.03 781.34
00000696 00000100 692.52 376.94 373.48 569.92 812.28 550.52 973.57 585.16 875.96 644.60 783.14 757.81 924.12 788.08
00000697 00000101 692.16 376.98 375.61 570.46 813.20 552.33 974.99 587.09 877.11 646.15 783.43 758.75 925.10 788.64
00000698 00000102 686.96 375.15 382.87 564.41 814.09 553.94 975.59 592.77 879.46 650.49 784.18 756.01 926.52 788.52
00000699 00000103 688.95 375.88 379.88 545.83 816.70 554.03 977.20 593.66 883.80 655.93 790.24 754.42 924.05 787.37
00000700 00000104 690.71 381.64 378.92 541.19 812.85 560.34 973.84 597.65 884.57 659.88 796.83 750.87 923.19 782.90
00000701 00000105 692.88 380.82 380.58 541.19 815.74 558.86 976.91 598.23 886.14 658.75 799.65 747.10 925.53 780.56
00000702 00000106 701.94 386.58 376.12 536.47 821.37 560.35 982.55 600.11 886.81 659.47 803.19 749.27 926.65 782.92
00000703 00000107 699.49 384.79 382.91 540.71 823.65 561.56 985.45 602.38 891.14 661.05 805.03 750.32 928.83 784.80
00000704 00000108 697.90 386.78 385.79 540.73 825.86 561.88 990.40 604.83 895.74 662.18 804.52 751.16 935.34 787.40
00000705 00000109 698.67 384.35 386.29 541.16 828.91 561.34 992.26 606.97 899.27 664.67 805.63 748.96 936.61 787.42
00000706 00000110 701.87 384.44 384.24 539.76 832.40 561.43 996.24 609.55 902.60 666.73 806.62 748.90 939.51 789.60
00000707 00000111 704.08 386.78 383.59 538.84 834.10 562.97 997.53 608.73 903.75 665.41 812.23 747.90 945.10 786.09
00000708 00000112 708.77 385.96 382.67 543.52 837.83 562.99 999.87 606.41 906.36 666.30 818.89 753.28 942.43 789.15
00000709 00000113 710.64 388.97 381.11 536.72 840.16 563.40 1000.45 606.59 908.39 665.87 821.17 750.76 943.57 786.40
00000710 00000114 710.15 387.84 382.33 536.81 840.22 562.93 1000.88 607.93 910.10 664.87 819.73 747.87 947.38 785.33
00000711 00000115 710.73 387.37 381.39 532.62 839.14 563.67 1001.60 608.31 910.43 663.68 819.66 746.30 950.65 783.43
00000712 00000116 712.47 385.64 379.39 531.28 839.59 563.75 1002.51 609.06 910.37 664.51 819.75 744.59 952.01 782.17
00000713 00000117 711.70 385.55 380.66 532.86 837.68 562.54 1001.44 607.73 906.82 663.77 818.73 744.68 952.10 782.19
00000714 00000118 711.84 382.93 383.26 539.71 837.35 559.37 1000.47 606.66 902.33 663.56 815.83 743.54 949.22 782.88
00000715 00000119 711.00 384.99 385.87 540.07 836.38 559.09 999.60 605.30 899.30 662.98 814.59 743.48 948.93 781.74
00000716 00000120 709.87 384.47 387.66 543.67 834.67 558.42 1000.16 605.02 897.00 663.60 810.79 744.22 947.49 782.82
00000717 00000121 709.30 384.82 388.73 544.74 833.59 557.98 999.29 604.58 894.97 663.39 809.04 746.41 945.72 785.02
00000718 00000122 711.73 382.64 387.59 548.40 833.00 556.71 999.27 603.34 893.78 662.86 808.70 746.15 946.18 784.99
00000719 00000123 712.39 382.61 387.21 548.10 832.95 555.61 999.40 601.55 893.15 662.64 808.41 745.71 946.23 784.06
00000720 00000124 711.62 382.68 388.07 547.45 832.03 554.81 999.58 600.23 892.43 660.77 807.59 745.62 945.26 783.55
00000721 00000125 713.28 382.41 386.06 548.31 831.86 554.17 1000.00 598.66 892.37 660.74 808.42 747.55 945.01 784.74
00000722 00000126 716.74 382.28 382.44 549.24 831.75 552.96 997.99 596.11 889.83 662.09 808.94 748.62 941.01 784.76
00000723 00000127 714.62 381.88 383.48 556.85 832.92 553.24 998.45 596.15 890.14 664.09 808.41 753.83 937.36 789.70
CROP_BBOX: 310 0 1400 1080
