Video ID: 	bPpZs5r4h-o
H: 	1080
W: 	1920
FPS: 	29.97002997002997

FRAME INDEX X0 Y0 W H [Landmarks (5 Points)]

00001565 00000000 859.81 255.71 374.26 522.00 1088.52 418.52 1218.22 511.75 1206.81 514.27 1058.11 592.28 1172.70 668.56
00001566 00000001 856.98 251.50 379.00 524.40 1083.98 412.35 1218.95 504.98 1204.90 510.97 1055.04 589.64 1172.86 665.09
00001567 DELETE   857.06 251.57 378.98 524.34 1083.92 412.18 1218.83 505.06 1204.77 510.84 1054.79 589.51 1172.47 665.16
00001568 00000003 853.36 247.27 381.77 524.82 1076.04 401.83 1215.70 494.66 1200.01 501.41 1048.97 582.75 1169.37 658.08
00001569 00000004 852.37 248.52 373.12 515.00 1074.26 376.09 1220.39 478.26 1196.33 504.40 1029.10 580.00 1156.51 666.24
00001570 00000005 844.24 229.89 371.81 518.77 1067.43 374.58 1209.19 475.27 1187.38 494.73 1024.88 573.79 1146.81 658.08
00001571 00000006 832.26 224.38 368.29 520.24 1056.60 372.70 1190.46 462.40 1170.22 488.81 1018.03 567.02 1136.39 641.68
00001572 00000007 832.09 224.69 368.42 519.83 1056.66 372.54 1190.43 462.26 1170.20 488.68 1017.92 566.80 1136.35 641.48
00001573 00000008 824.75 213.15 374.90 530.76 1027.06 373.05 1181.60 453.89 1149.85 462.38 995.94 562.57 1129.89 630.48
00001574 DELETE   815.25 202.87 378.17 531.67 1005.81 364.47 1170.55 442.13 1130.76 448.38 980.03 553.84 1122.71 618.53
00001575 00000010 804.61 196.36 379.09 527.03 986.47 358.46 1158.36 434.54 1117.13 438.73 969.37 548.72 1114.02 610.72
00001576 00000011 796.46 186.45 378.45 528.60 971.96 353.44 1146.71 424.83 1103.66 429.94 960.63 543.97 1105.91 602.09
00001577 00000012 796.51 186.05 378.38 528.87 971.97 353.44 1146.77 424.82 1103.60 429.90 960.71 543.95 1105.98 602.07
00001578 DELETE   784.79 177.86 385.12 526.40 959.35 353.81 1136.35 420.39 1093.06 419.08 957.99 539.04 1103.82 592.87
00001579 00000014 776.52 174.15 386.16 522.50 951.04 350.06 1129.10 416.45 1083.74 410.77 954.83 533.52 1100.26 586.86
00001580 00000015 769.58 169.30 389.13 524.16 943.82 344.63 1121.20 409.78 1075.79 406.78 947.91 528.13 1093.68 580.82
00001581 00000016 766.22 168.00 390.51 526.93 938.19 342.52 1116.13 404.50 1069.86 404.55 944.03 527.38 1090.76 577.37
00001582 00000017 766.31 167.61 390.58 528.30 937.77 342.56 1116.67 404.50 1070.00 404.46 943.49 528.14 1091.12 578.09
00001583 00000018 762.07 166.10 390.63 536.58 931.20 342.02 1108.04 399.63 1059.26 406.62 937.36 529.45 1082.39 575.78
00001584 00000019 760.69 170.37 390.98 537.96 926.48 346.78 1103.06 402.95 1051.05 411.46 932.34 534.69 1077.44 579.59
00001585 00000020 759.46 176.05 392.42 530.35 925.24 353.98 1104.16 409.14 1050.11 418.75 929.66 538.21 1077.97 582.06
00001586 00000021 756.25 180.92 392.55 530.95 923.73 358.60 1100.97 411.09 1044.85 427.06 925.46 541.74 1073.87 583.45
00001587 00000022 756.46 180.93 392.39 530.28 923.90 358.71 1100.96 411.05 1044.99 427.15 925.75 541.73 1073.96 583.33
00001588 00000023 759.01 183.98 390.26 534.96 924.24 362.22 1098.15 409.29 1041.64 433.18 926.40 549.56 1070.85 586.81
00001589 00000024 759.26 184.57 391.40 538.48 924.56 362.03 1099.45 410.32 1045.01 434.44 925.33 552.84 1071.22 591.44
00001590 00000025 759.84 184.15 391.57 538.27 925.10 364.16 1101.11 411.29 1045.91 435.82 926.03 554.63 1072.79 592.33
00001591 00000026 760.22 183.93 392.27 535.01 926.02 368.28 1105.36 416.07 1047.70 437.52 927.40 556.44 1076.53 594.68
00001592 00000027 760.34 183.75 391.82 535.16 926.09 368.47 1105.16 416.02 1047.59 437.92 927.47 556.43 1076.64 594.49
00001593 00000028 762.06 185.05 391.04 532.33 927.34 371.63 1107.16 419.30 1049.57 439.61 928.70 557.54 1078.21 595.90
00001594 00000029 765.28 185.26 390.04 532.99 928.49 372.94 1107.80 418.99 1050.13 440.26 931.11 559.44 1079.75 596.61
00001595 00000030 767.50 184.70 388.88 531.70 930.16 373.01 1108.83 418.99 1052.24 439.83 933.80 560.01 1081.47 597.19
00001596 00000031 769.28 185.10 389.28 531.04 932.16 373.92 1110.95 420.67 1055.18 438.69 935.80 558.93 1083.88 596.65
00001597 00000032 769.13 184.31 389.47 532.23 932.07 373.56 1111.00 420.78 1055.51 438.31 936.06 559.10 1084.15 597.22
00001598 00000033 772.60 185.59 386.98 528.30 934.13 374.32 1112.36 420.77 1057.12 438.20 938.03 558.15 1086.24 595.85
00001599 00000034 773.14 184.80 387.00 530.95 936.85 374.68 1114.00 422.09 1060.84 439.99 939.29 558.25 1087.04 596.89
00001600 00000035 775.26 183.96 385.35 534.44 937.93 375.69 1115.20 422.70 1061.81 442.72 940.87 561.59 1088.08 600.11
00001601 00000036 775.35 183.46 386.90 536.68 938.29 374.91 1115.74 421.24 1062.40 442.68 941.06 562.06 1088.72 600.08
00001602 00000037 775.67 183.73 386.34 536.23 938.37 374.84 1115.84 421.40 1062.52 442.67 941.02 561.92 1088.63 600.13
00001603 00000038 776.29 182.63 387.65 538.13 938.81 374.27 1116.20 420.11 1062.75 441.56 941.30 561.49 1089.17 599.19
00001604 00000039 776.81 182.12 388.62 538.46 939.59 374.77 1116.16 420.10 1063.55 440.60 943.33 562.00 1089.99 599.16
00001605 00000040 780.64 182.80 384.69 534.80 942.01 377.70 1119.85 420.77 1065.50 441.85 948.52 565.09 1093.59 600.04
00001606 00000041 786.19 184.97 382.73 524.95 944.74 377.72 1124.26 418.82 1067.57 444.47 954.32 566.38 1096.77 599.23
00001607 00000042 785.69 185.08 383.42 524.37 944.68 377.57 1124.76 418.83 1067.90 444.61 954.41 566.65 1097.00 599.60
00001608 00000043 786.53 184.18 383.17 528.41 946.03 376.63 1125.87 417.88 1069.95 445.24 954.69 566.37 1097.94 599.51
00001609 00000044 786.43 184.44 388.63 532.41 947.83 374.82 1126.70 415.87 1072.01 443.67 955.36 566.03 1099.21 599.30
00001610 00000045 788.27 183.01 389.62 534.61 950.36 372.86 1130.45 417.72 1076.84 441.50 954.92 564.91 1101.27 601.65
00001611 00000046 791.46 183.28 390.45 529.35 952.83 371.68 1133.40 416.38 1078.27 438.35 958.62 562.12 1104.24 598.30
00001612 00000047 791.28 183.63 390.74 529.05 952.80 371.73 1133.30 416.41 1078.29 438.37 958.70 562.15 1104.21 598.30
00001613 00000048 794.17 183.22 387.78 527.46 955.72 369.62 1135.96 414.68 1082.66 436.85 960.63 559.50 1106.90 596.04
00001614 00000049 795.96 182.68 386.94 529.45 957.47 367.03 1137.32 414.33 1086.34 434.11 960.20 556.69 1108.75 595.22
00001615 00000050 799.27 180.86 386.18 532.17 960.22 365.43 1140.51 412.26 1091.13 432.20 963.22 556.24 1113.20 594.42
00001616 00000051 801.92 178.20 384.97 535.50 963.04 366.83 1145.87 413.34 1098.83 430.61 966.67 554.44 1121.55 592.11
00001617 00000052 802.15 177.85 384.88 535.83 962.99 366.71 1146.11 413.24 1098.74 430.53 966.81 554.81 1121.36 592.49
00001618 00000053 808.39 176.88 381.53 537.67 970.11 363.50 1155.49 412.68 1107.67 428.78 971.98 552.61 1130.67 592.29
00001619 00000054 813.56 174.34 377.35 537.28 975.27 360.70 1159.67 410.10 1112.94 427.40 978.87 550.58 1135.87 590.49
00001620 00000055 817.29 174.67 376.11 539.43 981.18 360.92 1163.05 410.29 1117.67 428.58 983.66 551.53 1139.59 591.67
00001621 00000056 819.89 174.14 375.46 538.98 990.00 363.63 1166.37 415.36 1124.97 432.12 989.10 551.79 1139.71 594.27
00001622 00000057 819.61 174.32 375.62 538.84 990.12 363.76 1166.24 415.53 1124.96 432.29 989.14 551.92 1139.47 594.40
00001623 00000058 822.71 175.02 375.32 538.82 996.30 363.78 1169.37 414.14 1128.80 434.72 992.85 552.45 1141.70 594.03
00001624 00000059 826.62 171.08 375.15 542.62 999.62 359.65 1172.03 410.56 1131.44 431.00 997.00 551.30 1145.09 593.38
00001625 00000060 818.86 172.52 384.87 543.43 1000.80 360.97 1170.93 418.30 1130.00 437.36 1006.03 544.77 1144.35 590.59
00001626 00000061 818.36 171.81 385.89 547.18 1001.30 357.95 1171.08 417.04 1133.42 435.64 1007.25 544.47 1144.79 591.56
00001627 00000062 818.22 171.95 385.93 547.03 1001.34 357.91 1171.04 416.99 1133.66 435.60 1007.56 544.47 1145.03 591.56
00001628 00000063 817.84 172.39 385.77 548.55 1003.01 358.68 1171.91 417.74 1136.39 437.21 1009.53 546.27 1145.94 593.27
00001629 00000064 825.71 172.23 376.88 550.07 1012.34 355.93 1178.76 412.18 1147.27 432.26 1005.83 551.91 1148.77 598.34
00001630 00000065 826.20 172.13 375.77 549.35 1014.38 356.13 1181.05 415.90 1149.99 431.85 1007.55 551.12 1149.97 600.44
00001631 00000066 826.80 173.00 375.60 549.23 1016.66 356.04 1182.34 416.41 1153.08 431.39 1009.62 551.12 1151.20 600.98
00001632 00000067 826.89 173.10 375.51 549.24 1016.84 355.94 1182.29 416.29 1152.93 431.29 1009.50 550.94 1151.06 600.79
00001633 00000068 816.72 174.65 388.11 549.42 1010.44 361.95 1180.36 425.95 1149.87 438.42 1016.47 547.52 1153.34 598.46
00001634 00000069 817.69 174.93 388.24 552.97 1011.62 361.47 1181.69 426.03 1152.28 439.49 1016.22 550.22 1153.29 601.75
00001635 00000070 822.95 175.63 384.85 556.97 1013.80 358.77 1180.63 422.85 1153.04 441.49 1014.59 552.97 1150.08 604.58
00001636 00000071 824.07 174.51 386.66 561.86 1017.87 357.30 1181.90 423.73 1154.95 440.66 1014.88 552.03 1149.42 605.64
00001637 00000072 824.09 174.43 386.64 562.15 1017.85 357.38 1181.97 423.86 1154.91 440.64 1014.90 552.08 1149.46 605.71
00001638 00000073 826.09 174.76 386.60 560.39 1021.04 354.59 1181.54 420.88 1155.80 439.78 1015.87 549.53 1148.52 603.14
00001639 00000074 826.26 172.75 386.38 557.90 1020.47 354.42 1181.27 419.73 1153.81 437.60 1017.19 547.48 1148.83 600.08
00001640 00000075 826.19 171.82 388.62 556.78 1020.69 355.24 1183.00 419.95 1154.54 435.92 1019.53 546.25 1152.03 598.20
00001641 00000076 824.16 172.43 389.20 553.51 1019.42 355.84 1182.81 420.71 1155.14 435.96 1020.24 546.18 1152.47 598.13
00001642 00000077 824.12 172.22 388.95 553.69 1019.44 355.68 1182.74 421.20 1155.38 436.05 1020.10 546.00 1152.13 598.54
00001643 00000078 823.38 172.12 389.98 552.62 1018.37 355.91 1183.09 421.52 1153.89 435.99 1019.07 545.33 1151.77 597.85
00001644 00000079 821.94 170.97 392.09 550.64 1016.96 355.52 1183.80 422.88 1154.11 434.52 1018.75 543.41 1152.45 597.35
00001645 00000080 821.59 171.07 391.82 550.22 1016.26 354.02 1182.47 420.54 1151.97 433.91 1017.32 542.15 1151.38 595.22
00001646 00000081 819.51 170.20 391.81 551.11 1015.67 352.75 1180.81 421.31 1152.15 433.46 1016.70 540.69 1149.50 595.52
00001647 00000082 819.32 170.02 392.20 551.41 1015.30 352.67 1180.86 421.30 1152.19 433.35 1016.45 540.88 1149.56 595.77
00001648 00000083 817.58 168.52 390.31 554.08 1012.97 351.21 1177.90 419.32 1150.02 434.48 1014.56 541.20 1146.64 595.67
00001649 00000084 823.35 168.03 379.13 555.93 1017.09 346.80 1179.00 409.15 1151.27 429.02 1005.67 545.99 1143.39 597.58
00001650 00000085 819.90 164.67 379.79 558.77 1012.87 347.34 1175.68 407.84 1147.83 429.10 1002.67 545.82 1141.46 595.74
00001651 00000086 818.36 163.13 379.70 560.47 1008.14 347.08 1172.08 405.40 1142.46 429.04 999.30 546.78 1138.32 594.79
00001652 00000087 818.68 163.18 379.71 560.28 1007.98 347.08 1172.19 404.61 1141.99 429.28 999.41 547.20 1138.29 594.54
00001653 00000088 817.76 162.02 379.64 563.03 1005.09 346.88 1170.76 402.77 1138.67 431.05 996.42 548.94 1137.46 594.83
00001654 00000089 816.50 163.06 379.76 562.46 1003.82 348.01 1169.47 404.64 1138.22 432.27 994.67 549.63 1135.46 596.14
00001655 00000090 818.15 164.85 377.82 561.48 1002.29 349.28 1168.40 403.98 1135.16 432.94 993.39 550.93 1134.48 596.02
00001656 00000091 817.07 164.89 379.58 563.93 1000.64 351.11 1167.54 403.37 1134.75 434.14 992.85 552.48 1136.44 595.43
00001657 00000092 817.09 165.45 379.45 562.78 1000.68 351.13 1167.49 403.49 1134.76 434.34 992.88 552.33 1136.23 595.36
00001658 00000093 817.80 165.97 379.75 564.74 999.97 352.17 1167.49 404.06 1134.01 433.85 992.02 552.84 1137.29 595.60
00001659 00000094 818.39 166.12 380.40 564.94 1000.27 352.40 1167.32 403.07 1133.00 434.36 992.50 553.62 1137.38 595.32
00001660 00000095 819.80 167.99 381.11 563.95 1000.27 353.56 1168.15 402.96 1132.28 435.34 991.64 554.38 1139.24 595.01
00001661 00000096 820.44 168.94 381.44 563.78 1000.83 355.77 1169.74 404.66 1132.15 437.43 992.04 556.17 1140.78 596.40
00001662 00000097 819.91 168.30 382.00 564.60 1000.90 356.17 1169.92 404.93 1132.95 437.72 991.92 556.20 1141.18 596.39
00001663 00000098 821.15 169.68 381.53 565.15 1000.75 357.55 1171.10 405.38 1132.46 438.62 991.87 557.94 1142.54 597.37
00001664 00000099 822.34 167.70 380.09 560.61 1000.19 358.82 1173.70 406.15 1134.68 439.33 994.79 558.91 1145.24 597.99
00001665 00000100 825.10 169.51 377.50 556.36 999.55 360.02 1175.09 408.50 1132.66 440.21 994.41 560.15 1144.98 600.38
00001666 00000101 826.30 170.56 376.98 553.40 1000.22 362.40 1175.83 410.68 1132.22 442.81 994.43 561.43 1145.05 601.56
00001667 00000102 826.41 170.91 376.82 552.76 1000.14 362.41 1175.66 410.53 1131.93 442.78 994.50 561.43 1144.97 601.43
00001668 00000103 826.25 170.90 378.78 556.40 1001.55 365.26 1176.65 412.16 1132.79 445.08 995.44 564.10 1147.34 603.02
00001669 00000104 826.67 174.29 380.31 558.22 1002.07 369.30 1177.89 416.55 1135.75 445.80 997.57 566.95 1151.17 606.18
00001670 00000105 827.91 176.90 382.45 560.37 1003.14 373.38 1181.05 421.21 1136.57 449.69 998.26 570.42 1154.04 610.07
00001671 00000106 822.98 181.55 383.77 559.31 1002.19 376.98 1183.99 433.21 1135.21 463.11 998.95 571.62 1149.30 617.47
00001672 00000107 822.92 181.61 383.90 559.06 1002.30 377.11 1184.19 433.35 1135.18 463.25 998.86 571.59 1149.37 617.46
00001673 00000108 822.67 186.61 383.85 556.74 1003.62 382.19 1185.05 439.80 1135.88 468.83 1000.35 575.43 1150.46 622.52
00001674 00000109 823.09 191.04 385.38 558.96 1003.09 384.47 1185.12 442.12 1138.34 470.69 1000.40 579.83 1151.60 626.96
00001675 00000110 824.05 194.85 386.27 556.40 1004.34 387.89 1187.23 445.10 1141.45 472.82 1003.52 582.53 1155.24 629.20
00001676 00000111 825.50 198.01 387.01 556.75 1005.97 390.25 1187.74 444.70 1143.61 474.83 1006.58 585.31 1157.81 629.72
00001677 00000112 825.53 198.27 386.93 556.65 1005.87 390.21 1187.71 444.88 1143.63 474.88 1006.42 585.31 1157.73 629.89
00001678 00000113 826.18 200.44 387.27 554.13 1005.97 391.63 1189.27 446.67 1144.14 476.50 1006.96 587.32 1158.60 632.32
00001679 00000114 826.88 203.55 386.41 551.59 1006.84 393.79 1190.53 449.88 1145.80 478.17 1007.57 588.40 1159.66 634.34
00001680 00000115 825.93 201.90 387.85 553.57 1006.96 396.43 1189.19 450.88 1143.91 480.46 1007.17 589.12 1157.85 633.70
00001681 00000116 826.95 203.57 386.92 554.56 1006.65 397.35 1188.35 452.39 1143.04 481.55 1005.66 590.53 1156.28 635.67
00001682 00000117 826.29 203.16 387.65 555.36 1006.44 397.37 1188.64 452.08 1143.39 481.13 1005.76 590.76 1156.84 635.62
00001683 00000118 825.83 203.78 387.46 556.16 1005.77 396.86 1186.72 451.63 1141.30 481.96 1003.37 590.81 1153.77 635.71
00001684 00000119 822.91 201.72 386.28 563.12 1001.25 390.56 1184.65 448.26 1138.81 477.71 995.69 588.17 1150.91 635.38
00001685 00000120 823.98 197.66 383.72 570.90 1000.66 387.02 1177.87 444.28 1132.63 475.82 992.51 586.31 1142.12 633.20
00001686 00000121 821.43 190.13 382.69 577.82 996.65 381.96 1174.91 440.51 1127.87 472.63 987.52 584.02 1137.38 632.26
00001687 00000122 821.37 190.29 382.77 578.20 996.69 381.95 1174.70 440.61 1128.05 472.68 987.64 584.38 1137.17 632.70
00001688 00000123 823.27 187.29 380.19 576.94 998.17 381.86 1177.21 436.92 1131.38 463.09 989.32 587.64 1147.00 633.06
00001689 00000124 821.69 185.61 380.20 577.57 992.73 381.54 1172.82 434.92 1125.76 462.84 985.37 587.10 1143.11 631.09
00001690 00000125 819.60 184.95 380.85 577.33 988.33 380.84 1169.27 433.96 1120.82 463.98 979.58 585.94 1138.17 629.92
00001691 00000126 816.02 183.60 381.04 579.38 985.84 380.94 1164.85 433.78 1117.27 464.83 975.35 584.87 1133.80 628.90
00001692 00000127 816.30 184.12 380.71 579.05 985.61 381.12 1164.37 433.56 1116.64 464.57 975.41 584.88 1133.80 628.57
00001693 00000128 815.08 183.17 379.60 582.06 984.14 379.95 1160.74 431.15 1113.50 464.71 971.24 583.17 1130.31 626.12
00001694 00000129 814.67 182.35 378.35 584.69 982.02 378.34 1157.75 429.48 1110.00 463.63 967.89 582.59 1126.62 625.65
00001695 00000130 812.35 180.20 379.32 585.13 980.77 376.48 1156.14 426.73 1108.95 463.21 966.35 581.88 1124.16 624.36
00001696 00000131 810.84 180.18 378.23 581.98 977.93 375.89 1153.64 424.61 1106.59 463.13 964.61 580.64 1122.50 621.95
00001697 00000132 810.87 180.09 378.01 581.90 977.88 375.82 1153.68 424.73 1106.34 463.01 964.58 580.56 1122.38 622.02
00001698 00000133 809.51 178.12 379.34 582.06 977.37 374.62 1153.86 423.15 1106.38 461.86 964.49 579.62 1122.23 620.77
00001699 00000134 806.13 177.64 382.16 583.18 975.07 373.76 1151.62 422.35 1104.27 459.72 962.33 578.70 1120.44 619.88
00001700 00000135 802.58 180.10 383.27 576.78 971.59 375.89 1148.43 422.88 1101.38 462.70 960.84 578.54 1117.29 618.56
00001701 00000136 800.57 181.42 384.11 571.53 968.12 379.98 1145.67 426.35 1097.49 466.59 960.85 580.22 1115.05 619.63
00001702 00000137 800.13 181.01 384.46 572.07 968.24 379.90 1145.39 426.33 1097.59 466.77 960.90 580.19 1114.85 619.62
00001703 00000138 797.84 181.04 385.22 569.35 965.82 381.74 1143.56 424.57 1093.75 468.77 962.98 583.15 1113.35 619.39
00001704 00000139 795.22 183.84 384.96 568.27 963.90 385.55 1141.22 426.80 1091.74 468.79 963.85 585.79 1112.15 620.50
00001705 00000140 790.60 185.78 386.97 565.36 961.59 390.58 1135.41 427.89 1085.57 474.74 964.57 589.56 1107.75 620.75
00001706 00000141 786.30 187.54 387.53 574.93 960.62 391.67 1133.59 429.07 1087.90 478.54 965.60 598.01 1107.29 629.28
00001707 00000142 785.98 187.77 387.84 574.60 960.55 392.02 1133.58 429.23 1087.83 478.67 965.62 598.07 1107.42 629.16
00001708 00000143 779.47 193.01 389.74 577.00 950.82 392.70 1121.42 428.00 1076.80 485.38 961.25 603.44 1093.23 631.41
00001709 DELETE   777.60 195.93 388.93 581.20 939.62 395.29 1112.12 424.93 1061.53 486.08 958.77 609.17 1085.68 632.19
00001710 00000145 771.74 194.50 393.81 587.78 931.61 396.30 1111.03 426.55 1055.39 493.45 945.56 614.82 1076.09 638.55
00001711 00000146 762.71 198.09 398.42 584.97 926.03 402.15 1103.31 427.79 1048.01 503.23 941.08 618.76 1071.80 638.90
00001712 DELETE   762.92 198.46 397.62 584.90 925.54 402.92 1103.41 428.92 1047.86 503.10 940.04 618.68 1071.05 639.13
00001713 00000148 757.58 205.83 399.25 580.00 917.07 405.32 1095.94 428.35 1041.55 508.61 933.33 621.48 1070.52 639.33
CROP_BBOX: 427 0 1539 1039
