Video ID: 	Wykhs0RlTLU
H: 	1080
W: 	1920
FPS: 	29.97002997002997

FRAME INDEX X0 Y0 W H [Landmarks (5 Points)]

00009101 00000000 673.25 156.23 373.07 503.27 807.55 359.96 976.36 346.71 936.83 427.92 839.82 534.70 988.49 523.54
00009102 00000001 672.48 155.31 373.02 503.77 807.59 359.97 976.90 346.62 937.40 428.06 839.37 534.83 988.59 523.71
00009103 00000002 671.26 153.80 372.67 504.26 807.82 359.66 977.39 346.39 938.04 427.67 839.41 535.00 987.94 523.92
00009104 00000003 672.36 153.18 371.15 503.14 808.56 359.69 978.55 346.11 938.84 428.60 840.30 535.38 988.37 524.10
00009105 00000004 670.91 154.07 370.81 503.32 807.07 360.73 976.47 347.95 936.74 428.89 839.03 535.91 986.25 525.19
00009106 00000005 669.55 153.47 370.80 504.21 807.09 360.64 976.84 348.28 937.52 429.75 839.64 536.95 986.21 526.48
00009107 00000006 669.63 153.90 371.05 503.56 806.74 361.08 975.83 348.47 937.43 430.47 840.03 536.77 986.35 526.19
00009108 00000007 667.59 153.07 372.35 504.77 804.79 360.59 973.83 348.81 934.64 430.01 838.46 536.19 984.48 526.15
00009109 00000008 664.62 152.65 372.59 505.34 801.07 360.06 971.27 349.48 930.18 429.65 834.86 535.97 981.65 526.75
00009110 00000009 663.40 152.90 372.30 502.80 799.09 360.15 969.15 349.72 927.25 430.29 832.55 535.23 979.36 526.21
00009111 00000010 663.22 152.68 372.02 504.39 798.52 360.97 968.35 350.23 926.70 431.24 832.03 536.00 979.41 526.87
00009112 00000011 663.87 154.99 371.60 504.00 800.06 365.25 970.30 354.40 928.05 432.78 830.48 537.14 980.33 528.28
00009113 00000012 661.80 155.12 372.95 505.64 799.86 368.23 969.26 358.13 927.34 434.12 828.55 538.02 978.44 529.92
00009114 DELETE   660.85 153.64 374.33 506.48 798.24 366.91 967.43 356.53 925.76 433.26 828.63 538.10 977.35 529.63
00009115 00000014 661.15 151.40 374.62 507.44 797.82 363.68 967.91 353.10 925.91 431.13 829.89 537.11 978.14 528.22
00009116 00000015 662.46 151.90 374.01 504.87 797.91 363.19 968.21 351.65 925.90 431.03 829.92 536.07 978.84 526.45
00009117 00000016 663.40 151.83 374.98 506.97 797.95 363.18 968.85 350.66 926.54 430.39 831.40 537.79 980.17 527.22
00009118 00000017 666.10 154.35 373.65 504.18 799.54 364.47 970.24 351.49 927.51 430.85 832.75 538.98 980.61 528.05
00009119 00000018 668.78 154.97 373.68 503.26 802.74 365.35 973.33 351.97 930.84 431.79 835.53 539.69 983.19 528.52
00009120 00000019 670.80 155.37 372.32 502.29 804.67 365.10 974.91 351.38 932.97 432.40 837.83 540.23 984.39 528.81
00009121 00000020 671.15 155.44 372.83 503.28 804.37 365.54 975.49 351.08 933.53 432.46 838.29 540.59 986.15 528.57
00009122 00000021 672.24 156.34 372.15 502.42 804.36 365.56 975.49 350.44 933.74 432.56 837.91 540.38 986.56 527.90
00009123 00000022 673.08 157.51 372.46 501.86 805.06 366.29 975.79 350.41 934.80 433.33 839.53 541.42 987.18 528.38
00009124 00000023 674.11 159.34 371.78 501.91 805.84 368.29 976.46 351.68 935.50 434.26 841.14 543.33 988.40 529.64
00009125 00000024 676.10 162.58 371.82 501.07 807.32 370.52 977.57 353.46 936.61 435.07 842.91 545.14 990.02 531.09
00009126 00000025 677.91 163.09 372.08 501.15 808.58 372.30 978.81 354.61 938.14 435.43 844.34 546.02 991.72 531.54
00009127 00000026 679.15 162.84 373.07 500.78 811.80 371.14 981.14 354.02 941.64 435.53 847.67 545.52 993.37 531.53
00009128 00000027 680.13 164.08 373.85 499.73 813.28 372.26 982.81 353.70 944.08 436.62 849.86 546.64 996.03 531.52
00009129 00000028 679.97 164.92 375.80 501.11 814.66 373.21 982.68 354.25 945.27 437.19 851.29 547.70 996.24 532.38
00009130 00000029 680.24 165.92 375.27 500.67 815.06 374.16 982.75 354.54 945.72 437.86 851.56 548.62 996.38 532.82
00009131 00000030 681.00 166.09 374.92 501.89 815.64 375.86 983.08 355.58 946.30 439.08 852.66 550.67 996.72 534.37
00009132 00000031 681.71 167.90 374.12 501.95 817.05 377.39 983.51 357.40 947.56 440.48 854.00 551.87 997.01 536.08
00009133 00000032 682.37 171.37 375.17 500.52 818.68 379.14 985.02 358.20 948.92 442.32 855.61 553.47 998.56 536.95
00009134 00000033 683.36 173.50 375.69 499.82 820.80 380.76 987.10 359.31 951.30 443.40 857.69 554.67 1000.96 537.76
00009135 00000034 682.11 173.66 380.19 504.49 824.52 375.07 985.13 357.48 947.48 449.01 863.11 553.14 999.92 539.02
00009136 00000035 683.15 173.55 379.79 504.88 825.47 375.86 986.54 357.84 948.82 450.32 864.35 554.03 1001.25 539.50
00009137 00000036 684.52 174.92 379.29 504.15 826.55 375.99 987.52 358.43 949.41 450.70 865.03 553.70 1002.09 539.63
00009138 00000037 684.59 175.99 381.09 504.44 827.30 377.90 988.85 360.59 950.36 452.31 864.98 554.61 1003.29 540.83
00009139 00000038 685.94 177.44 380.08 502.51 828.03 378.82 989.70 361.76 950.37 453.99 865.35 555.51 1003.43 541.98
00009140 00000039 686.26 175.98 379.60 504.52 829.03 379.53 991.26 363.07 951.87 455.51 865.83 556.66 1003.99 543.65
00009141 00000040 687.20 176.27 379.21 505.08 830.03 380.22 991.90 364.15 952.52 456.78 866.88 557.91 1004.03 545.20
00009142 00000041 687.07 176.64 379.28 505.76 830.03 380.79 992.09 364.85 952.88 457.22 866.74 558.54 1004.46 545.98
00009143 00000042 687.00 177.11 379.41 506.13 830.05 381.07 991.80 365.25 952.79 457.19 866.73 558.44 1004.38 546.00
00009144 00000043 686.87 177.41 379.37 505.91 829.98 380.92 991.13 365.01 952.57 457.07 866.60 558.49 1003.85 546.03
00009145 00000044 686.62 178.00 379.61 505.65 829.11 380.66 990.59 365.28 951.26 456.43 865.67 558.14 1003.51 546.07
00009146 00000045 686.58 177.62 379.50 506.47 828.98 380.42 990.52 365.25 950.96 456.23 865.85 558.11 1003.31 546.20
00009147 00000046 686.46 177.56 379.62 506.53 829.09 380.68 990.15 365.40 951.00 456.32 865.69 557.96 1002.93 545.98
00009148 00000047 686.25 177.99 379.51 506.04 829.01 380.82 990.44 365.72 951.28 456.85 865.35 558.52 1002.91 546.70
00009149 00000048 686.37 177.15 380.16 507.18 829.39 380.81 990.61 365.46 951.61 456.37 866.04 558.09 1003.69 546.10
00009150 00000049 686.22 176.45 380.07 507.60 829.99 379.37 990.81 364.14 952.11 456.09 865.88 557.68 1003.07 545.77
00009151 00000050 686.01 177.34 380.38 506.34 829.31 379.25 990.84 364.02 951.51 456.30 865.35 557.64 1002.97 545.70
00009152 00000051 685.83 176.80 379.58 507.15 829.38 379.11 990.39 364.33 951.44 456.50 864.96 557.52 1002.11 546.04
00009153 00000052 686.11 177.00 379.52 506.81 829.04 379.95 990.50 364.86 951.37 456.66 865.33 558.37 1002.88 546.57
00009154 00000053 685.95 177.01 379.72 507.45 829.40 380.42 990.23 365.14 951.62 456.83 865.49 558.23 1003.03 546.34
00009155 00000054 685.90 177.15 379.55 507.29 829.36 380.41 990.21 365.26 951.58 456.55 865.40 558.27 1002.90 546.49
00009156 00000055 685.15 177.94 379.45 506.02 828.36 381.95 988.87 365.89 950.62 457.47 864.75 559.17 1001.65 546.66
00009157 00000056 684.92 180.03 378.91 505.46 827.24 383.00 987.95 366.28 949.70 458.99 862.67 560.24 1000.64 547.39
00009158 00000057 684.26 180.27 378.84 504.90 826.87 383.31 986.95 366.62 949.40 459.01 862.34 560.37 1000.04 547.57
00009159 00000058 684.09 178.98 377.01 504.38 826.09 383.03 985.69 366.11 948.99 458.89 861.22 560.43 998.74 547.51
00009160 00000059 683.55 179.66 377.35 503.34 825.41 383.09 986.32 366.27 948.55 459.16 860.15 560.34 998.65 547.35
00009161 00000060 683.99 178.75 377.64 505.19 826.39 384.18 987.03 366.84 949.73 460.14 861.73 561.27 1000.28 547.90
00009162 00000061 685.01 181.68 376.31 503.15 826.61 384.54 987.53 367.28 949.63 460.07 863.27 561.53 1001.56 548.22
00009163 00000062 684.04 181.47 376.54 503.92 825.75 384.83 986.76 367.90 948.87 459.90 861.97 561.01 1001.12 547.98
00009164 00000063 685.36 183.30 371.88 497.76 823.01 392.57 987.93 368.76 951.47 456.29 855.50 561.80 1000.98 543.65
00009165 00000064 685.30 183.68 372.84 498.43 823.28 392.45 987.86 368.80 951.37 455.54 855.62 561.65 1000.93 543.51
00009166 00000065 684.83 185.62 373.58 498.21 822.02 394.07 985.98 369.48 950.20 456.47 854.51 561.89 1000.40 543.10
00009167 00000066 683.35 185.52 372.38 497.06 820.10 394.35 983.94 370.63 948.70 456.94 851.96 560.64 998.71 542.61
00009168 00000067 683.21 185.26 373.16 496.91 819.40 393.31 984.04 369.99 947.67 456.52 851.19 559.97 998.68 542.07
00009169 00000068 684.35 184.24 374.48 498.51 821.45 392.52 986.20 368.68 949.90 455.86 852.92 559.94 1000.40 541.74
00009170 00000069 684.09 181.30 379.92 504.83 825.06 384.20 986.79 367.33 946.86 458.76 861.39 558.61 1001.54 545.51
00009171 00000070 685.25 180.75 380.15 505.20 825.77 384.11 987.69 367.49 947.80 459.87 862.04 560.09 1002.49 547.16
00009172 00000071 687.07 181.24 379.56 503.36 826.80 383.85 989.25 367.64 948.21 460.03 864.27 560.52 1003.91 547.74
00009173 00000072 688.37 180.18 382.00 502.30 828.69 385.07 994.15 367.74 952.11 461.29 869.10 561.56 1009.94 547.80
00009174 00000073 691.26 179.48 383.46 504.36 832.37 384.34 998.71 368.36 955.33 461.73 872.15 560.88 1012.97 548.28
00009175 00000074 694.23 179.65 384.02 503.64 836.28 383.92 1000.62 367.76 959.17 460.86 877.97 560.79 1015.54 548.02
00009176 00000075 699.73 181.17 381.96 499.86 841.08 381.27 1002.56 366.81 963.05 457.54 883.36 558.50 1017.05 546.98
00009177 00000076 705.42 176.85 381.08 502.12 846.96 378.84 1008.13 365.57 969.06 452.74 886.67 555.20 1020.73 544.57
00009178 00000077 712.24 174.87 380.57 504.01 855.24 378.96 1017.68 368.77 978.05 449.90 891.23 552.50 1028.84 544.25
00009179 00000078 719.61 172.93 379.13 505.18 860.25 379.35 1027.66 368.50 985.57 447.55 896.64 553.55 1038.02 544.23
00009180 00000079 730.17 174.25 375.74 501.25 865.51 378.39 1037.22 365.87 991.08 448.37 900.92 554.63 1046.33 544.00
00009181 00000080 738.84 173.41 374.18 501.18 872.59 381.80 1043.38 363.82 1000.45 446.98 908.83 556.23 1054.98 541.61
00009182 00000081 749.99 173.40 368.93 498.72 880.02 382.77 1050.92 364.75 1008.00 446.06 913.65 556.24 1061.03 542.06
00009183 00000082 755.74 173.50 372.76 498.02 890.51 382.88 1059.73 366.04 1019.66 446.32 924.05 554.77 1069.92 541.79
00009184 00000083 759.93 174.02 383.58 502.29 902.72 378.67 1068.01 364.50 1024.41 454.32 939.46 555.33 1079.57 543.96
00009185 00000084 766.49 173.77 383.38 502.62 911.45 377.73 1073.13 364.15 1034.28 453.32 949.60 555.64 1084.89 545.17
00009186 00000085 776.64 169.64 379.26 507.23 919.54 376.19 1080.22 366.12 1040.70 450.85 955.62 553.91 1089.91 546.05
00009187 00000086 788.82 170.18 378.84 507.20 930.95 375.37 1095.80 368.85 1052.89 444.71 962.61 550.80 1102.78 545.29
00009188 00000087 808.03 170.32 372.71 502.87 940.06 377.32 1111.46 366.76 1063.99 448.07 972.12 554.54 1118.19 545.88
00009189 00000088 821.17 175.22 369.32 501.00 952.20 385.48 1122.33 370.96 1078.66 451.74 981.99 558.69 1129.28 547.52
00009190 00000089 826.65 173.92 378.03 508.06 969.65 379.97 1129.40 368.89 1089.59 458.84 997.79 559.62 1136.20 551.49
00009191 00000090 835.32 176.23 381.29 506.16 978.02 381.11 1141.71 369.60 1097.76 463.15 1013.14 563.33 1150.00 554.36
00009192 00000091 845.69 175.73 377.80 505.57 988.64 382.87 1149.72 373.57 1108.35 462.39 1025.43 562.89 1157.06 555.80
00009193 00000092 858.52 175.15 376.60 507.89 999.94 383.39 1164.29 377.17 1120.54 458.44 1033.30 562.40 1167.89 557.27
00009194 00000093 872.84 180.52 373.46 503.54 1008.41 388.51 1179.03 380.22 1129.48 461.20 1038.87 564.76 1180.57 557.84
00009195 00000094 888.16 185.27 371.37 500.00 1019.13 393.45 1193.14 384.99 1140.78 464.55 1047.14 567.70 1194.30 561.06
00009196 00000095 899.90 183.01 370.41 503.16 1031.64 396.01 1206.00 386.71 1154.49 469.95 1059.79 572.07 1206.09 565.14
00009197 00000096 900.95 186.35 377.55 513.43 1042.48 393.23 1210.15 385.07 1161.40 480.25 1073.93 577.92 1212.89 572.31
00009198 00000097 906.84 189.80 376.78 512.98 1047.70 394.98 1215.95 388.15 1166.05 482.77 1082.98 580.82 1218.32 576.24
00009199 00000098 911.94 188.65 377.16 515.65 1052.94 395.39 1220.66 392.18 1170.57 483.20 1088.11 581.60 1221.35 579.83
00009200 00000099 913.47 189.38 378.72 516.79 1055.42 396.01 1223.34 393.49 1173.14 483.22 1091.00 582.49 1223.56 581.16
00009201 00000100 913.68 189.18 379.44 517.81 1055.49 396.31 1223.32 393.69 1173.15 483.41 1091.46 582.77 1223.92 581.37
00009202 00000101 912.75 189.97 378.66 518.10 1055.56 396.72 1222.60 394.09 1173.26 484.21 1090.42 583.49 1222.49 582.20
00009203 00000102 908.24 192.41 377.55 517.36 1051.58 398.07 1218.37 393.61 1170.25 488.03 1085.25 585.64 1218.78 582.97
00009204 00000103 898.57 192.69 376.03 520.03 1041.22 400.38 1209.30 395.06 1160.05 488.05 1072.62 587.51 1210.90 584.49
00009205 00000104 886.68 194.55 375.58 516.66 1029.15 404.61 1197.02 399.86 1150.81 479.62 1055.40 585.33 1195.37 582.23
00009206 00000105 866.15 187.29 377.98 522.39 1006.75 400.99 1173.74 398.89 1127.64 479.52 1037.22 584.99 1172.45 583.85
00009207 00000106 846.36 182.36 377.09 527.65 990.89 390.91 1153.30 389.88 1109.15 477.71 1028.85 581.96 1153.68 581.53
00009208 00000107 831.58 180.53 371.77 519.34 970.69 392.64 1137.89 385.94 1095.23 465.59 997.57 575.10 1137.53 570.39
00009209 00000108 807.30 180.41 373.85 518.23 946.24 389.77 1111.82 383.66 1070.64 462.42 976.42 571.69 1114.62 566.95
00009210 00000109 776.48 171.82 376.73 526.10 923.80 383.22 1081.65 381.36 1042.91 463.22 961.29 568.68 1085.00 567.38
00009211 00000110 757.94 173.20 371.16 518.88 896.57 386.44 1060.50 376.83 1022.09 454.56 925.43 566.47 1064.30 559.61
00009212 00000111 729.86 172.15 377.18 520.11 866.40 380.82 1031.79 371.85 990.19 448.00 899.90 562.92 1038.03 555.37
00009213 00000112 703.39 168.20 382.11 521.25 848.88 372.88 1004.90 366.40 967.19 450.19 890.22 558.99 1012.23 553.61
00009214 00000113 690.73 168.38 383.41 522.61 837.85 374.39 993.84 363.12 957.21 453.32 876.34 561.53 1001.12 552.74
00009215 00000114 685.31 173.09 375.36 513.53 822.46 379.84 985.16 366.55 949.67 442.65 856.36 559.55 995.36 549.49
00009216 00000115 677.36 171.83 370.49 513.75 811.91 378.15 976.06 365.04 938.34 442.03 845.51 559.83 984.48 549.61
00009217 00000116 668.10 173.55 372.50 511.32 800.45 376.63 968.03 363.04 926.91 441.24 837.09 560.59 977.11 549.41
00009218 00000117 656.28 169.40 378.28 516.25 792.77 373.22 959.42 362.47 917.41 440.10 830.03 558.47 966.62 548.97
00009219 00000118 644.70 169.10 381.32 518.20 786.04 373.47 948.80 365.19 908.54 441.72 824.25 556.68 957.06 549.19
CROP_BBOX: 316 0 1455 1050
