Video ID: 	xym5KUJrvsY
H: 	1080
W: 	1920
FPS: 	25.0

FRAME INDEX X0 Y0 W H [Landmarks (5 Points)]

00068635 00000000 484.70 128.56 435.24 704.24 640.06 413.02 827.93 409.07 765.04 535.10 669.07 655.59 825.24 650.45
00068636 00000001 482.47 126.90 436.78 705.53 638.89 410.48 828.38 406.35 765.75 531.90 666.90 653.23 825.76 647.82
00068637 00000002 480.99 126.37 438.60 708.94 638.36 409.22 828.50 404.98 765.18 531.16 662.81 650.95 826.30 645.40
00068638 00000003 484.11 127.69 435.95 708.49 638.44 410.16 828.04 406.79 762.34 532.89 661.44 651.53 824.64 646.67
00068639 00000004 482.26 131.93 436.74 706.26 636.87 412.47 831.44 407.70 762.32 535.06 660.10 648.77 820.22 641.95
00068640 00000005 481.81 131.03 436.87 707.33 635.94 416.96 827.48 413.07 758.36 541.08 657.30 650.12 817.00 643.99
00068641 00000006 480.99 122.67 438.29 714.75 633.36 416.79 826.89 410.12 755.34 543.09 656.40 649.75 817.52 641.24
00068642 00000007 486.83 125.54 433.63 707.34 632.18 415.10 822.28 412.72 750.06 541.98 653.21 650.56 819.11 646.57
00068643 00000008 486.96 125.63 433.88 706.43 630.12 413.51 822.84 410.79 749.02 539.64 651.26 648.09 820.78 643.84
00068644 00000009 488.69 123.88 432.46 705.25 632.19 412.00 823.54 409.37 750.25 538.07 653.05 647.20 820.29 642.99
00068645 00000010 489.83 123.67 430.25 708.04 635.97 414.04 824.75 410.96 754.91 539.30 656.45 650.20 821.01 645.77
00068646 00000011 490.38 125.59 431.22 706.02 639.86 416.33 827.72 413.72 760.82 539.91 658.95 650.72 822.48 647.02
00068647 00000012 489.54 125.23 433.41 704.74 639.67 416.11 829.92 413.89 761.67 541.47 659.24 651.18 823.58 647.85
00068648 00000013 487.63 126.75 434.01 699.68 639.75 412.14 829.65 410.86 761.52 536.08 657.58 645.61 823.12 643.14
00068649 00000014 488.68 127.81 430.58 688.23 639.46 407.22 828.19 406.84 759.66 527.60 658.97 640.41 820.93 638.32
00068650 00000015 487.80 125.12 430.21 683.42 635.97 404.39 827.44 406.18 757.30 520.24 655.05 634.51 819.54 634.40
00068651 00000016 486.47 122.35 431.66 688.36 635.36 401.49 827.19 404.85 756.40 518.34 651.87 633.15 817.37 634.06
00068652 00000017 488.30 122.27 430.08 684.26 635.35 398.99 828.17 402.01 756.10 517.18 654.04 633.31 816.52 633.78
00068653 00000018 491.33 119.87 427.48 678.67 639.84 396.40 831.05 401.44 758.01 511.87 655.52 627.15 815.26 629.55
00068654 DELETE   491.70 119.47 427.24 672.47 642.76 388.28 839.08 395.83 765.91 502.95 659.26 618.52 822.56 622.82
00068655 DELETE   494.71 123.65 423.18 656.60 646.26 378.16 844.32 385.46 773.07 490.74 662.66 606.44 829.55 610.64
00068656 00000021 495.24 117.40 424.46 653.23 648.81 375.86 847.17 384.29 775.01 488.33 661.78 599.99 831.61 605.33
00068657 DELETE   495.63 121.07 422.84 650.71 649.47 376.63 846.18 384.17 775.34 489.84 663.11 600.52 831.59 605.04
00068658 DELETE   495.73 122.31 422.12 652.60 646.85 383.27 843.90 390.36 775.42 497.21 663.15 606.82 830.11 611.09
00068659 00000024 495.66 123.69 425.28 667.43 646.80 389.31 842.40 395.23 771.21 506.90 664.47 620.34 827.96 623.29
00068660 00000025 495.44 126.47 426.13 666.86 645.19 391.60 839.65 397.84 766.43 510.79 660.49 622.80 823.50 626.32
00068661 00000026 492.32 122.35 428.64 677.45 644.54 388.89 841.37 395.50 768.99 507.91 657.17 620.53 827.08 624.39
00068662 00000027 494.00 119.82 426.01 679.62 642.96 384.56 842.52 390.09 770.90 498.96 657.84 617.05 831.49 619.88
00068663 00000028 494.56 119.12 425.89 679.93 644.34 380.96 842.61 385.84 771.55 494.83 657.47 611.23 833.37 613.69
00068664 00000029 495.23 119.49 425.47 678.53 646.07 379.98 843.57 385.50 772.70 493.92 658.16 609.60 834.26 612.70
00068665 00000030 497.67 119.27 423.87 678.44 648.08 382.25 846.13 388.27 775.10 498.08 659.45 612.82 835.80 616.52
00068666 00000031 498.27 119.36 423.47 678.14 648.08 385.08 846.14 391.61 775.75 501.01 659.64 615.58 834.67 619.68
00068667 00000032 497.73 119.03 423.77 677.18 648.08 385.29 846.54 391.77 776.24 501.33 660.35 615.81 834.71 619.87
00068668 00000033 496.57 117.56 425.30 676.98 647.94 384.80 846.65 390.44 777.14 500.34 662.12 615.50 835.12 618.79
00068669 00000034 496.17 116.90 425.60 675.14 646.88 384.89 846.18 390.33 776.33 499.97 662.01 614.94 834.55 618.09
00068670 00000035 497.03 117.99 424.65 673.07 646.74 385.73 845.64 390.67 775.87 499.88 662.68 615.01 834.52 617.72
00068671 00000036 494.95 119.31 426.54 669.76 645.75 387.33 844.33 391.71 775.28 501.53 662.69 615.43 833.28 617.64
00068672 00000037 495.32 120.37 426.25 667.43 645.30 388.03 844.01 392.03 775.03 501.79 662.89 615.56 833.05 617.56
00068673 00000038 495.48 119.09 426.40 665.88 644.96 388.28 843.42 391.72 775.15 501.63 663.86 614.43 833.87 615.91
00068674 00000039 494.55 117.99 427.13 664.90 644.16 388.16 842.65 391.51 774.56 501.28 663.34 612.99 833.38 614.40
00068675 00000040 494.26 117.70 427.61 662.65 643.66 388.38 842.09 391.12 774.16 501.02 663.66 612.68 833.12 613.61
00068676 00000041 493.83 117.89 427.93 662.87 643.70 389.33 841.92 391.06 774.95 501.61 664.09 613.32 833.46 613.48
00068677 00000042 493.64 118.16 428.79 662.57 643.80 390.16 842.08 391.74 775.31 501.74 665.05 614.48 833.80 614.53
00068678 00000043 491.82 116.83 430.08 666.40 644.91 391.44 840.92 392.83 775.84 502.71 666.07 615.34 833.49 615.11
00068679 00000044 491.70 116.97 429.63 666.86 645.12 391.90 840.81 393.57 776.29 502.56 666.07 615.51 833.37 615.53
00068680 00000045 491.38 115.66 429.90 668.57 644.31 392.43 840.50 393.44 775.67 502.90 665.72 615.68 833.64 615.14
00068681 00000046 491.42 114.99 429.43 669.72 644.48 393.45 840.10 394.06 775.68 503.15 666.24 616.18 833.76 615.26
00068682 00000047 492.58 116.10 428.02 667.79 644.52 394.07 839.92 394.39 775.01 503.37 667.10 617.07 833.63 615.89
00068683 00000048 492.05 116.06 428.12 669.41 645.20 394.89 839.50 395.61 775.14 504.75 667.05 618.21 833.01 617.34
00068684 00000049 492.12 115.64 426.96 668.64 644.49 395.73 838.70 396.42 774.82 505.58 667.76 618.88 832.22 617.91
00068685 00000050 491.91 117.28 426.24 667.84 644.01 396.01 838.86 397.31 774.23 506.84 666.39 619.03 832.29 618.69
00068686 00000051 491.93 118.22 425.59 665.29 643.91 396.40 837.87 397.89 773.22 507.23 666.86 618.60 831.58 618.43
00068687 00000052 491.04 116.29 426.33 660.31 642.34 396.67 836.92 393.52 769.99 511.06 666.68 617.08 831.34 613.02
00068688 00000053 492.03 117.35 425.67 659.98 642.05 397.95 836.97 393.89 770.13 511.90 666.78 618.17 831.30 613.49
00068689 00000054 492.52 120.45 424.80 663.91 643.03 399.68 836.18 400.92 772.02 509.95 666.86 620.05 831.53 619.70
00068690 00000055 491.67 122.42 425.60 664.05 643.65 401.09 836.53 403.21 771.85 511.46 666.01 620.27 831.92 620.72
00068691 00000056 492.23 123.50 425.01 665.91 645.56 402.46 835.80 405.04 772.35 513.24 667.12 620.32 832.83 621.05
00068692 00000057 492.39 122.26 426.77 673.92 646.16 403.62 835.29 406.26 771.41 515.12 665.80 622.13 832.61 622.93
00068693 00000058 491.84 122.74 429.28 681.86 644.46 403.86 836.06 406.27 770.09 516.99 664.90 626.37 833.74 626.64
00068694 00000059 483.93 123.18 435.95 690.56 638.76 404.57 832.13 405.03 768.25 516.20 659.50 630.91 830.73 629.49
00068695 DELETE   481.31 122.43 434.96 700.49 628.26 403.39 823.15 405.47 752.88 516.84 647.09 633.36 822.18 632.59
00068696 DELETE   479.86 128.88 433.25 692.31 612.78 402.33 812.86 401.54 733.91 515.84 634.98 635.92 811.10 632.51
00068697 DELETE   478.41 127.33 427.22 688.94 604.26 399.35 801.22 396.06 722.00 517.15 627.59 635.97 797.10 631.14
00068698 00000063 476.81 124.77 421.20 683.13 599.55 395.87 794.34 392.49 717.04 512.47 625.57 630.38 788.80 625.62
00068699 DELETE   476.15 123.42 419.90 679.08 602.00 395.73 795.79 390.70 723.56 510.03 632.42 628.21 792.66 621.97
00068700 DELETE   476.23 121.16 423.00 682.65 608.89 398.97 802.20 391.27 733.75 502.57 639.70 626.24 806.61 617.18
00068701 DELETE   472.69 122.53 430.41 685.31 618.22 399.94 810.64 391.29 750.21 504.59 651.64 629.32 818.86 619.86
00068702 00000067 476.02 121.70 432.24 687.42 626.56 403.19 817.18 391.66 761.33 510.05 664.89 635.35 828.87 623.46
00068703 00000068 473.73 122.46 436.20 688.64 630.15 404.07 818.43 390.85 766.77 511.35 670.31 635.31 832.91 622.12
00068704 00000069 472.87 123.85 435.08 683.89 627.50 404.68 816.28 390.80 763.38 510.70 667.66 634.15 830.48 620.31
00068705 00000070 471.28 121.70 433.35 688.94 621.69 404.82 812.59 392.10 756.37 510.71 659.64 635.23 826.01 622.26
00068706 00000071 470.27 124.06 431.12 695.37 615.37 404.71 807.37 393.61 746.55 514.90 647.81 636.17 820.90 624.14
00068707 DELETE   469.98 126.02 432.01 693.57 609.62 405.17 803.77 393.82 738.15 518.68 641.37 636.83 816.43 624.68
00068708 00000073 469.65 126.91 431.49 692.96 604.18 407.60 801.61 396.54 731.94 523.50 634.74 637.96 812.81 626.22
00068709 00000074 468.82 127.13 429.43 690.08 600.36 409.07 796.01 397.15 726.31 522.57 630.91 635.47 807.80 623.48
00068710 00000075 468.25 127.90 429.37 691.14 598.25 408.55 795.06 397.15 723.73 524.47 628.62 637.91 805.63 626.65
00068711 00000076 468.58 130.64 432.18 697.62 597.64 408.43 797.48 391.55 724.41 520.72 637.56 641.28 805.47 622.96
00068712 00000077 469.54 130.97 432.35 696.06 598.94 410.43 798.67 391.78 727.31 520.98 640.81 641.93 808.75 622.05
00068713 00000078 469.03 127.03 434.62 696.37 600.69 412.53 801.31 392.65 731.20 522.91 643.06 640.02 813.08 619.00
00068714 00000079 465.55 128.38 439.12 694.21 601.35 413.65 802.30 392.99 734.29 524.04 646.00 639.80 816.05 618.28
00068715 00000080 465.28 128.29 438.10 694.96 601.91 413.96 802.81 392.80 735.84 525.30 647.34 641.17 816.83 619.25
00068716 00000081 465.85 129.43 436.03 693.44 602.48 414.25 802.45 392.71 736.44 525.17 648.55 641.71 816.48 619.45
00068717 00000082 464.49 130.58 436.57 691.38 601.60 415.39 801.99 393.20 736.04 526.72 648.67 642.19 816.74 619.35
00068718 00000083 464.90 131.38 431.47 684.59 600.26 415.52 794.58 397.97 730.61 529.34 639.77 642.25 812.41 625.24
00068719 00000084 464.87 132.06 428.74 681.43 598.56 416.76 792.21 398.53 729.27 528.83 639.54 642.98 810.52 625.52
00068720 00000085 463.07 132.85 429.17 683.00 594.93 417.63 787.89 399.80 723.53 529.86 635.38 643.24 805.67 626.41
00068721 00000086 459.21 132.16 431.21 681.07 589.96 416.77 783.88 402.16 716.13 527.47 628.64 640.83 798.68 626.84
00068722 00000087 460.19 139.33 429.95 682.23 584.01 411.63 780.40 398.69 704.13 524.95 622.88 639.28 783.94 624.91
00068723 00000088 460.23 136.93 424.96 689.53 581.07 409.97 775.16 403.43 697.45 530.19 611.79 640.73 771.19 632.54
00068724 00000089 457.88 133.41 424.34 691.78 575.51 411.96 767.42 405.29 688.54 531.21 605.98 639.31 767.38 631.30
00068725 00000090 457.35 135.18 425.03 691.88 574.18 413.14 766.24 405.81 687.19 532.40 603.50 639.27 768.31 630.73
00068726 00000091 458.94 134.18 424.73 691.55 578.08 411.71 771.29 405.15 692.46 530.47 606.77 638.43 769.18 630.35
00068727 00000092 459.59 130.88 427.99 689.31 579.77 412.21 776.87 400.43 698.87 526.98 613.99 635.78 781.27 622.56
00068728 00000093 459.53 128.46 430.59 688.73 583.91 410.30 782.16 394.21 706.16 520.93 622.54 632.61 790.99 615.28
00068729 00000094 456.79 124.93 430.80 684.09 589.12 412.25 780.67 396.00 715.63 521.59 627.56 634.19 798.75 618.64
00068730 00000095 458.79 124.00 432.09 693.28 590.92 409.66 787.60 388.92 718.97 519.17 634.91 636.22 798.90 614.62
00068731 00000096 459.43 126.07 431.70 695.13 590.94 409.12 787.48 386.44 719.77 517.56 636.01 638.46 801.50 615.33
00068732 00000097 457.81 125.85 433.31 697.71 589.14 409.03 786.51 387.62 716.34 518.16 634.32 638.11 800.71 616.05
00068733 00000098 459.32 128.94 431.30 694.34 588.20 410.26 785.88 390.73 713.77 519.23 630.23 637.89 799.11 617.54
00068734 00000099 460.96 131.98 428.84 691.79 587.90 412.42 784.15 393.46 711.91 521.14 628.84 638.65 798.15 618.98
00068735 00000100 461.22 135.58 428.86 690.26 589.26 414.29 786.32 395.56 715.35 524.99 629.90 641.92 800.81 622.52
00068736 00000101 461.32 136.86 429.72 691.11 590.46 416.59 788.34 397.90 718.32 528.26 631.25 645.44 802.97 626.10
00068737 00000102 460.95 135.38 430.64 693.90 593.95 418.58 793.29 400.09 724.13 531.03 634.32 647.82 806.10 628.66
00068738 00000103 460.43 135.40 431.66 694.93 596.11 419.39 796.56 402.09 728.33 531.95 635.66 647.75 809.34 629.48
00068739 00000104 460.88 132.84 431.46 697.99 598.06 419.25 797.43 400.61 731.40 530.28 638.22 647.28 811.50 627.77
00068740 00000105 460.64 132.44 432.57 694.59 599.54 418.59 798.94 399.52 732.91 528.57 642.47 646.10 811.81 626.04
00068741 00000106 461.41 132.55 432.17 691.40 601.26 417.90 800.50 399.19 735.20 528.16 644.22 643.41 813.59 623.68
00068742 00000107 462.30 133.31 432.10 690.31 600.70 416.98 800.64 398.98 734.04 527.75 642.19 641.87 813.52 622.78
00068743 00000108 462.71 132.68 431.20 689.64 600.24 415.62 799.19 397.93 731.95 526.08 641.20 640.58 810.91 621.89
00068744 00000109 462.38 129.47 427.76 686.64 597.74 414.76 792.84 401.10 728.65 530.16 631.93 639.65 809.16 626.17
00068745 00000110 464.61 130.21 425.85 684.41 597.53 415.30 792.86 402.12 727.34 531.73 630.25 639.12 807.91 626.37
00068746 00000111 465.08 131.04 426.46 683.55 597.37 415.69 793.34 403.00 726.67 532.05 629.63 639.10 807.56 626.84
00068747 00000112 465.44 132.30 425.98 683.64 597.55 416.88 792.92 404.14 725.80 533.15 630.97 641.57 806.96 629.05
00068748 00000113 465.92 135.24 428.30 690.88 598.75 418.70 798.90 405.16 727.46 533.39 635.28 647.26 804.17 632.24
00068749 00000114 468.04 131.85 426.36 696.44 599.96 420.26 797.70 409.51 726.57 539.59 633.64 650.13 800.06 637.42
00068750 00000115 467.55 133.56 425.80 696.63 598.66 420.49 795.40 411.56 724.43 542.96 630.30 651.51 796.63 640.65
00068751 00000116 467.04 135.18 425.62 696.03 598.04 421.62 792.87 412.85 722.38 545.99 629.19 652.23 794.65 641.55
00068752 00000117 468.18 135.75 424.69 694.71 597.69 427.93 791.53 417.76 719.64 549.86 627.55 651.62 800.52 641.17
00068753 00000118 468.72 135.54 423.77 694.64 598.53 428.48 792.04 417.76 721.09 550.38 629.18 652.61 801.08 641.70
00068754 00000119 467.43 132.23 425.46 700.52 600.84 422.73 794.41 413.09 726.26 548.29 632.56 653.80 796.44 642.34
00068755 00000120 466.61 133.04 426.82 698.43 600.52 422.14 795.24 411.10 727.07 546.44 634.01 653.26 798.10 640.54
00068756 00000121 466.89 135.93 426.21 693.69 599.85 421.63 797.21 410.68 727.85 542.52 633.54 651.56 800.15 638.88
00068757 00000122 465.55 136.07 427.36 692.50 598.79 420.79 798.07 409.30 727.22 539.14 633.25 650.17 801.54 636.98
00068758 00000123 464.41 135.72 426.25 683.72 593.53 422.06 790.08 409.79 720.24 539.88 626.48 646.75 802.46 634.85
00068759 00000124 462.60 133.00 426.85 680.18 591.16 421.23 788.79 409.05 718.37 538.44 624.96 644.11 801.23 632.41
00068760 00000125 463.30 132.97 426.84 681.97 590.74 420.86 788.01 408.61 716.51 538.34 624.32 643.99 801.36 632.33
00068761 00000126 463.76 134.00 426.75 682.44 590.93 421.43 788.30 410.35 715.99 539.46 623.78 644.66 800.74 633.80
00068762 00000127 464.54 136.13 427.21 685.21 593.02 423.33 789.56 412.72 717.33 541.43 624.85 647.22 800.75 636.49
00068763 00000128 465.38 137.16 427.28 688.16 595.77 426.11 791.38 415.00 720.18 543.34 627.76 649.93 801.56 638.69
00068764 00000129 466.20 134.60 427.49 695.80 599.33 423.19 794.90 412.03 726.09 543.10 634.65 653.12 798.71 640.28
CROP_BBOX: 183 0 1196 983
