Video ID: 	AJI8YPopjgk
H: 	1080
W: 	1920
FPS: 	25.0

FRAME INDEX X0 Y0 W H [Landmarks (5 Points)]

00053950 00000000 713.43 270.52 436.34 583.86 765.64 542.51 932.57 553.96 809.54 671.84 811.37 734.96 944.49 741.29
00053951 00000001 714.78 273.25 437.84 581.20 769.18 542.28 936.23 553.97 814.10 672.97 815.82 731.95 952.29 738.30
00053952 00000002 718.09 272.09 437.14 578.38 772.06 545.09 939.15 557.11 818.35 673.34 818.17 730.56 954.44 737.30
00053953 00000003 720.67 274.42 439.84 573.15 775.03 547.99 945.11 559.71 825.13 675.18 821.26 731.93 956.67 739.11
00053954 00000004 725.15 277.93 438.93 569.24 779.87 551.35 948.26 562.37 829.22 676.48 825.39 731.92 959.90 738.80
00053955 00000005 727.94 280.15 437.09 568.95 782.94 549.78 951.16 559.70 832.98 675.59 830.31 733.74 962.75 739.70
00053956 00000006 732.40 275.05 436.44 573.10 790.01 547.99 953.98 559.58 836.68 670.97 834.05 729.13 965.94 736.38
00053957 00000007 737.18 272.07 439.02 572.96 797.12 545.23 961.31 555.65 844.74 667.52 840.08 723.45 974.33 729.81
00053958 00000008 744.92 264.85 435.00 581.12 806.46 542.36 965.61 552.69 852.35 664.52 849.92 720.04 982.85 726.12
00053959 00000009 757.48 261.77 425.68 579.63 815.21 533.23 978.90 542.56 858.98 650.15 864.01 718.52 998.73 724.18
00053960 00000010 763.46 261.83 434.08 578.73 822.47 531.51 988.09 540.70 874.61 660.65 866.65 714.81 1009.07 717.63
00053961 00000011 769.14 257.94 438.11 584.46 828.29 531.47 997.42 548.03 878.65 666.09 869.35 713.34 1016.57 722.22
00053962 DELETE   777.14 270.35 438.39 573.03 833.96 537.15 1009.08 554.17 887.90 672.21 872.84 717.19 1022.87 727.42
00053963 DELETE   787.25 275.19 437.71 570.65 845.15 542.28 1020.09 557.71 900.61 673.99 885.22 720.54 1032.76 730.47
00053964 00000014 796.18 274.96 436.96 572.86 854.67 545.93 1026.46 558.50 908.28 671.56 894.86 723.56 1040.31 731.64
00053965 00000015 802.56 274.99 439.15 573.07 862.44 544.38 1033.94 554.46 917.32 671.02 905.13 722.88 1050.38 728.95
00053966 00000016 811.00 275.58 438.58 571.92 872.96 543.31 1042.27 553.66 926.39 670.25 915.28 720.81 1057.52 727.20
00053967 DELETE   820.03 265.39 437.41 573.74 880.34 534.70 1054.59 546.72 935.92 669.09 923.79 720.68 1068.81 726.24
00053968 00000018 830.86 266.87 438.87 575.63 891.84 535.22 1065.19 549.41 945.80 667.83 931.49 723.49 1072.24 731.78
00053969 00000019 836.70 277.57 443.05 567.97 898.78 536.64 1078.43 552.59 957.33 674.38 940.99 727.15 1082.42 737.38
00053970 00000020 844.50 282.36 442.84 564.09 904.76 537.38 1088.41 556.83 964.70 679.73 945.27 729.51 1088.27 743.13
00053971 00000021 850.76 284.50 443.36 569.64 911.80 541.82 1094.71 556.21 973.03 678.82 956.26 736.52 1096.21 746.50
00053972 00000022 858.97 289.40 438.38 572.19 919.66 547.19 1098.63 557.37 978.69 679.62 967.08 742.06 1101.46 748.65
00053973 00000023 863.82 291.74 437.18 566.89 923.34 552.47 1105.13 563.64 984.37 683.88 969.59 746.76 1103.43 754.33
00053974 00000024 870.97 291.29 431.46 565.16 929.23 559.38 1109.26 569.12 990.90 689.16 973.23 750.55 1106.64 757.08
00053975 00000025 875.58 292.67 429.19 574.63 935.45 564.95 1106.92 576.96 990.46 694.44 977.24 752.06 1120.45 759.48
00053976 00000026 880.18 296.78 427.48 567.92 939.51 568.42 1111.33 579.45 995.88 694.05 981.61 753.88 1124.18 760.79
00053977 00000027 882.30 304.17 426.04 559.22 940.24 567.70 1114.41 579.94 998.20 695.01 981.41 754.06 1125.52 762.24
00053978 00000028 884.69 308.60 424.81 553.84 941.60 568.29 1115.37 581.07 998.70 694.70 982.12 753.06 1126.07 761.71
00053979 00000029 885.52 307.98 427.18 556.06 942.19 567.92 1116.48 581.72 999.87 696.83 982.99 753.71 1127.78 763.32
00053980 00000030 887.33 312.60 427.40 549.51 943.45 567.96 1118.28 581.63 1002.52 698.16 985.01 755.75 1130.01 765.28
00053981 00000031 888.16 308.97 429.55 554.73 945.19 567.68 1120.78 581.99 1004.61 699.89 986.53 755.40 1134.10 765.60
00053982 00000032 888.53 308.68 429.28 558.64 946.10 567.58 1121.19 582.72 1003.76 700.35 987.36 754.45 1135.13 765.36
00053983 00000033 888.02 310.01 430.23 560.41 947.19 566.97 1123.30 583.57 1004.39 700.97 985.95 753.05 1135.92 765.20
00053984 00000034 889.82 313.02 433.18 549.41 950.42 568.25 1130.12 584.60 1010.89 705.82 989.71 754.51 1138.38 765.61
00053985 00000035 889.03 320.42 434.42 540.18 949.26 573.15 1131.29 589.52 1012.36 709.32 988.83 756.35 1140.21 767.60
00053986 00000036 887.22 321.99 434.23 541.94 945.56 576.19 1129.15 591.84 1009.94 713.33 987.64 762.08 1135.96 772.81
00053987 00000037 887.97 323.08 426.78 552.71 942.73 578.46 1117.41 595.35 1000.31 710.55 981.01 764.05 1128.96 775.92
00053988 00000038 884.38 322.39 425.42 554.30 938.83 578.52 1112.20 595.51 992.97 710.35 977.02 764.65 1123.85 776.39
00053989 00000039 878.16 310.10 426.95 571.49 935.10 580.38 1106.43 595.31 987.54 707.75 974.68 766.22 1119.31 775.78
00053990 00000040 873.49 307.53 426.57 572.31 929.29 577.48 1098.50 590.22 978.22 705.36 970.88 766.63 1113.77 774.07
00053991 00000041 865.86 305.33 432.31 572.17 923.23 570.04 1092.31 583.39 969.21 702.56 966.47 761.97 1110.09 769.66
00053992 00000042 857.86 303.81 435.45 571.54 916.92 565.87 1086.88 578.62 963.84 696.53 958.46 757.54 1101.73 764.87
00053993 00000043 852.44 287.93 432.28 581.65 912.67 561.75 1081.02 572.48 958.40 689.22 948.53 754.15 1093.25 761.50
00053994 00000044 847.15 285.56 427.63 569.62 900.24 554.00 1074.06 569.72 948.45 684.71 942.04 748.60 1072.68 758.85
00053995 00000045 838.30 276.57 430.05 576.80 896.89 550.83 1062.89 563.26 934.91 678.97 927.65 745.78 1069.65 754.19
00053996 00000046 836.23 282.30 416.57 575.97 889.63 549.46 1046.70 564.45 922.76 666.11 930.56 735.34 1056.11 746.59
00053997 00000047 829.05 276.17 414.85 582.89 879.25 546.15 1030.17 555.11 909.16 656.66 921.26 733.68 1043.34 740.05
00053998 00000048 813.15 261.64 430.97 597.95 863.59 544.79 1022.63 548.89 898.65 652.73 902.40 734.03 1034.14 735.27
00053999 00000049 808.26 258.59 429.68 597.07 858.37 542.78 1017.17 542.92 894.09 649.86 897.74 731.70 1030.42 729.54
00054000 00000050 804.14 253.84 434.32 599.93 855.66 542.74 1012.87 541.97 891.29 649.96 896.20 729.92 1028.30 726.79
00054001 00000051 802.05 256.75 432.88 595.74 851.88 544.90 1010.51 545.00 888.29 655.71 892.86 729.91 1027.53 727.45
00054002 00000052 802.01 259.78 427.77 619.46 853.66 547.23 1009.07 546.27 883.33 662.01 893.44 738.27 1029.50 734.73
00054003 00000053 801.61 262.42 425.61 618.20 851.81 548.15 1006.82 548.29 879.55 662.93 891.09 740.10 1026.10 737.37
00054004 00000054 799.95 263.19 424.38 620.49 849.22 548.27 1001.89 546.69 873.25 662.02 889.19 741.55 1024.26 737.16
00054005 00000055 797.41 262.60 426.60 597.05 843.36 543.92 998.84 544.73 870.31 658.36 884.40 735.60 1014.95 733.06
00054006 00000056 793.91 259.94 426.66 600.34 841.45 539.51 998.75 536.98 869.97 652.28 884.08 731.47 1019.45 725.40
00054007 00000057 789.20 251.73 428.63 601.61 837.65 532.02 997.76 529.37 868.82 645.60 878.49 723.57 1018.87 716.98
00054008 00000058 782.58 243.68 424.55 599.38 835.72 528.59 991.97 525.95 869.33 637.86 876.97 718.80 1005.75 712.98
00054009 DELETE   774.67 243.41 423.31 595.41 827.22 525.89 982.66 525.50 858.92 635.57 867.23 718.86 989.90 715.22
00054010 DELETE   769.32 246.71 417.25 596.11 817.58 524.81 970.12 527.57 843.80 630.51 857.79 718.59 979.39 718.85
00054011 00000061 762.37 245.34 419.96 598.14 810.24 531.10 961.08 529.57 836.96 630.49 851.09 720.12 971.89 716.78
00054012 DELETE   753.60 242.00 425.87 605.22 798.36 543.02 950.03 540.56 832.84 645.75 837.20 728.34 961.27 724.50
00054013 00000063 744.95 253.98 429.87 596.10 794.58 546.14 947.66 546.65 831.13 652.09 833.66 729.66 960.75 727.94
00054014 00000064 745.28 265.33 426.44 583.11 793.47 549.52 949.08 552.74 831.25 659.37 836.67 730.95 962.72 731.26
00054015 00000065 740.65 268.57 432.04 583.22 792.20 551.98 947.03 553.66 829.45 660.50 837.54 734.75 961.09 733.88
00054016 00000066 739.93 272.23 430.60 580.42 791.54 549.15 948.56 552.68 828.60 660.09 835.42 733.64 961.32 734.29
00054017 00000067 740.03 268.65 430.13 584.47 791.75 550.73 947.99 552.68 828.57 658.01 834.73 734.53 960.66 733.91
00054018 00000068 736.22 272.95 434.69 579.64 788.39 552.94 947.90 555.82 829.84 666.25 836.62 736.98 963.28 737.11
00054019 00000069 733.96 278.95 434.58 575.29 786.97 556.47 949.99 559.67 832.37 672.70 838.35 739.00 966.48 739.59
00054020 00000070 731.58 281.43 436.97 575.75 785.28 560.62 952.37 564.79 833.40 679.76 837.31 743.16 967.55 744.65
00054021 00000071 730.47 280.44 437.03 577.71 784.43 564.51 951.25 566.40 833.50 681.31 839.24 748.04 967.37 747.58
00054022 00000072 732.45 287.74 427.36 582.05 789.43 565.84 946.73 564.15 830.89 673.40 845.81 749.79 967.57 746.55
00054023 00000073 732.91 289.58 426.38 579.63 789.67 564.77 941.02 561.33 829.03 675.14 849.53 752.41 964.33 747.83
00054024 00000074 731.54 284.91 424.55 581.92 786.26 569.38 942.88 567.35 832.13 677.45 843.59 756.70 958.89 753.57
00054025 00000075 729.32 291.21 434.83 577.45 785.25 579.55 941.50 577.90 833.98 696.36 838.74 769.89 969.61 765.40
00054026 00000076 728.96 300.01 438.47 577.09 780.29 588.88 941.18 585.88 829.15 709.78 837.87 782.55 968.52 776.92
00054027 00000077 730.91 312.47 432.52 571.86 784.59 601.25 943.80 601.19 834.42 717.09 837.07 792.34 961.21 789.13
00054028 00000078 726.98 328.64 436.47 559.94 783.22 603.41 948.84 612.26 834.77 730.84 836.62 795.91 962.25 799.67
00054029 00000079 730.10 340.38 435.21 549.60 784.42 614.67 951.08 623.28 840.96 742.60 839.60 801.48 967.93 805.08
00054030 00000080 732.55 347.80 436.60 543.41 790.13 613.40 956.85 623.92 846.59 745.80 845.73 798.84 974.95 804.14
00054031 00000081 738.89 336.93 435.95 551.89 795.91 613.69 959.90 622.52 852.73 741.90 852.53 798.13 979.10 801.93
00054032 00000082 744.87 330.35 434.07 553.84 804.37 608.72 965.86 616.57 862.57 734.52 858.25 792.55 987.96 795.93
00054033 00000083 740.94 321.04 439.14 546.00 803.43 604.40 976.89 608.20 864.06 732.08 862.56 790.40 990.38 790.52
00054034 00000084 746.69 316.64 439.51 554.05 809.32 600.57 980.98 605.58 868.28 727.38 865.88 788.58 992.97 789.25
00054035 00000085 749.79 312.20 443.49 561.07 814.67 600.12 986.92 602.21 875.97 723.11 870.30 788.92 1000.70 787.11
00054036 00000086 757.28 316.59 444.90 558.31 818.30 598.59 992.22 603.40 878.93 722.05 872.32 785.10 1008.02 785.38
00054037 00000087 761.31 314.20 446.06 563.75 822.18 596.33 997.05 603.38 882.69 719.95 875.45 781.19 1013.45 783.08
00054038 00000088 768.03 311.75 445.16 564.73 827.23 594.55 1001.02 602.74 886.16 718.96 878.09 778.26 1019.22 781.04
00054039 00000089 772.04 310.98 446.22 571.80 831.05 595.79 1003.83 602.68 888.73 717.63 883.20 777.82 1024.39 779.13
00054040 00000090 776.44 310.50 442.95 574.36 835.01 593.64 1010.16 600.95 893.01 715.37 887.44 775.01 1033.25 776.42
00054041 00000091 781.12 307.88 442.01 576.03 838.96 592.46 1012.99 598.95 895.94 713.88 893.19 774.24 1038.80 775.11
00054042 00000092 787.79 312.45 438.12 568.77 843.75 590.83 1017.14 596.21 899.27 712.14 897.38 772.26 1043.35 772.51
00054043 00000093 792.60 316.21 436.36 561.78 846.24 588.82 1019.54 594.63 900.54 711.68 899.24 769.38 1047.53 770.30
00054044 00000094 797.17 312.66 435.92 566.80 852.24 589.09 1024.24 594.36 905.73 710.43 903.10 768.45 1052.47 769.24
00054045 00000095 799.72 315.94 433.98 564.80 855.22 586.39 1025.75 591.28 907.81 708.22 906.01 767.78 1054.81 768.55
00054046 00000096 803.29 310.84 432.81 567.57 858.29 581.93 1027.09 587.94 908.44 704.37 906.90 764.87 1055.07 766.87
00054047 00000097 806.68 305.89 431.11 566.57 861.80 578.32 1029.03 585.14 912.91 702.26 908.70 762.22 1057.83 765.23
00054048 00000098 811.21 296.27 431.05 572.79 866.31 574.63 1030.61 584.18 915.25 697.73 908.20 757.40 1055.29 763.08
00054049 00000099 812.14 294.54 430.07 571.31 867.05 572.19 1031.02 582.57 915.82 696.29 907.35 754.84 1053.66 761.25
00054050 00000100 812.74 285.75 430.71 580.05 866.95 572.14 1030.76 579.64 915.54 691.87 908.14 754.75 1051.65 758.68
00054051 00000101 813.19 284.19 429.07 577.54 866.88 571.02 1028.45 577.37 915.30 688.90 907.85 754.18 1046.28 757.19
00054052 00000102 812.28 278.94 430.20 583.90 866.36 569.04 1026.79 576.87 913.16 687.50 905.98 752.92 1042.54 756.93
00054053 00000103 811.29 275.82 431.24 587.83 866.40 567.78 1024.86 575.82 912.08 685.26 904.75 752.56 1039.11 756.75
00054054 00000104 809.96 276.63 432.15 586.92 864.76 565.22 1023.89 573.91 909.88 682.78 902.72 753.24 1035.77 757.94
00054055 00000105 808.64 278.60 430.12 584.60 862.92 562.87 1021.80 570.57 904.90 678.80 899.30 752.86 1030.28 756.83
00054056 00000106 805.03 276.49 431.29 587.90 860.44 559.07 1020.29 566.87 899.55 676.32 896.76 750.29 1027.03 754.31
00054057 00000107 801.52 275.21 431.47 585.15 856.15 556.20 1017.79 564.33 891.16 674.93 890.77 745.59 1025.94 749.74
00054058 00000108 800.54 274.91 429.38 576.79 848.57 552.75 1010.97 561.98 888.17 671.30 887.05 739.66 1012.11 745.19
00054059 00000109 795.65 268.48 427.83 580.58 843.01 548.87 1001.79 559.30 878.41 667.81 879.62 735.48 1004.77 741.28
00054060 00000110 791.15 264.97 425.65 582.00 835.78 548.33 995.04 557.42 869.18 666.00 873.44 736.01 998.11 740.69
00054061 00000111 781.41 265.63 425.63 577.50 827.01 545.71 987.29 555.16 862.61 668.38 868.22 735.62 992.46 740.48
00054062 00000112 770.59 265.98 423.65 574.63 816.29 546.07 979.03 553.13 853.77 667.96 860.70 736.31 985.80 739.18
00054063 00000113 764.97 275.43 415.52 575.74 814.99 552.72 964.13 557.06 844.25 653.09 859.84 732.61 977.31 734.80
00054064 00000114 755.85 273.14 421.99 578.63 801.75 559.30 947.15 562.00 830.95 666.33 844.60 736.77 964.40 736.90
00054065 00000115 736.20 277.43 430.56 576.96 783.90 563.40 940.13 567.36 816.58 673.36 828.99 743.14 955.80 744.27
00054066 00000116 723.69 278.95 432.02 588.83 773.40 568.82 925.31 572.16 800.55 683.12 818.93 751.83 958.93 750.83
00054067 00000117 703.37 294.67 440.58 580.92 754.16 584.12 913.94 588.01 789.16 700.63 805.65 764.80 947.42 764.06
00054068 00000118 684.65 314.95 440.70 565.29 733.69 604.31 901.14 611.52 776.70 722.12 789.11 775.56 927.92 776.25
00054069 00000119 669.40 335.27 443.95 562.99 723.42 618.74 876.35 629.90 758.35 743.00 783.27 790.70 910.95 795.50
00054070 00000120 660.42 343.43 439.68 553.53 710.38 628.25 867.20 636.89 749.13 746.09 767.40 805.06 894.11 808.35
00054071 00000121 654.10 343.40 437.03 552.28 700.44 631.07 860.64 641.64 737.85 749.56 757.20 804.92 886.88 809.55
00054072 00000122 645.22 341.42 443.10 548.67 691.36 627.84 856.98 637.59 735.34 747.85 750.76 801.41 882.79 805.36
00054073 00000123 641.08 340.18 444.46 549.66 691.56 623.29 850.68 632.45 732.97 742.21 754.62 792.81 885.12 795.87
00054074 DELETE   635.42 341.93 447.62 542.69 688.38 615.09 847.65 625.67 731.99 739.54 753.21 785.05 885.90 788.94
00054075 00000125 632.53 325.70 445.89 554.94 687.35 614.63 842.61 619.11 734.08 729.31 756.34 781.76 884.92 780.14
00054076 00000126 627.31 314.65 450.24 563.22 685.23 611.22 842.90 607.19 737.12 719.88 757.79 776.96 889.96 768.56
00054077 00000127 629.00 314.23 445.12 560.88 687.34 603.96 841.69 593.88 739.37 709.61 759.19 771.43 892.91 759.01
00054078 00000128 633.43 300.87 439.62 567.64 692.97 593.57 843.92 582.36 742.47 701.20 762.56 765.00 895.35 752.00
00054079 00000129 640.79 289.94 434.16 571.73 699.10 585.18 846.78 565.90 743.39 683.86 776.96 759.74 890.96 741.95
00054080 00000130 643.88 289.38 437.03 566.27 705.95 572.41 851.82 553.36 751.38 676.95 785.06 748.77 897.67 730.92
00054081 00000131 649.55 276.45 437.30 574.37 714.61 566.03 859.61 547.88 757.62 666.04 791.35 739.26 904.09 722.03
00054082 00000132 649.92 257.25 443.43 587.59 711.59 559.65 865.36 542.21 764.37 659.45 781.99 731.39 914.54 714.00
00054083 00000133 655.06 253.39 442.13 590.22 714.94 555.72 866.92 535.29 768.04 655.95 789.61 730.97 919.35 710.91
00054084 00000134 660.63 251.32 439.95 592.66 720.38 553.90 868.41 533.69 770.38 651.84 794.48 727.43 921.86 707.43
00054085 00000135 666.16 254.20 439.29 588.41 728.72 552.67 873.82 531.00 777.41 646.69 801.99 723.85 924.63 702.97
00054086 00000136 673.12 251.41 437.87 588.49 736.27 551.14 876.96 527.67 781.38 645.14 809.12 719.42 929.45 697.17
00054087 00000137 676.94 248.37 438.64 586.36 740.99 541.09 883.80 520.85 787.72 641.92 812.18 712.77 933.97 693.48
00054088 00000138 684.79 245.03 432.93 589.94 747.42 530.45 890.54 512.57 785.68 629.79 817.94 710.35 939.67 692.82
00054089 DELETE   689.92 239.60 430.48 592.54 751.19 522.72 894.06 505.41 787.41 623.18 822.07 706.58 944.16 689.08
00054090 00000140 694.13 229.38 427.62 600.17 755.11 517.04 896.30 499.97 791.02 617.28 825.42 703.09 947.29 685.45
00054091 00000141 696.40 228.36 428.23 600.53 755.43 513.47 898.01 495.83 791.23 614.84 826.35 701.35 949.42 683.17
00054092 00000142 697.15 231.88 432.51 598.11 757.80 512.68 899.78 494.35 794.57 615.14 831.63 700.72 953.85 681.91
00054093 00000143 699.34 230.46 435.77 597.53 760.85 512.01 902.92 493.07 798.14 614.26 835.76 699.98 957.18 680.69
00054094 00000144 704.05 221.30 441.89 608.24 766.49 514.68 913.22 493.75 806.48 614.96 834.16 694.80 959.52 673.92
00054095 00000145 709.28 218.17 439.79 610.35 772.51 517.41 918.65 495.54 813.06 613.60 839.10 695.20 964.38 673.93
00054096 00000146 715.16 220.22 437.42 609.16 778.30 518.00 923.26 497.89 818.80 614.91 843.73 694.64 968.31 675.17
00054097 00000147 719.04 218.31 440.52 611.63 781.60 518.96 931.50 497.37 824.91 613.16 846.24 696.82 972.35 676.47
00054098 00000148 721.93 219.53 439.07 610.09 784.14 518.62 937.47 497.25 829.98 612.26 848.91 697.61 976.61 677.47
00054099 DELETE   726.08 221.85 438.22 608.97 786.25 520.71 938.75 498.15 832.37 612.71 851.43 698.75 980.60 677.57
00054100 00000150 732.35 222.81 436.74 609.24 791.07 522.04 942.07 499.11 837.52 614.58 855.60 698.63 986.12 676.75
00054101 00000151 736.60 224.07 438.90 610.22 796.27 522.64 947.75 501.33 842.95 617.02 858.89 698.82 991.26 678.20
00054102 00000152 741.14 224.50 436.12 608.91 803.84 520.55 953.32 502.57 850.24 619.40 866.11 698.84 996.78 681.17
00054103 00000153 752.68 231.34 430.79 602.95 814.83 517.96 962.16 502.30 856.15 619.70 876.79 702.26 1005.93 686.61
00054104 DELETE   757.79 234.38 429.65 600.40 820.13 515.38 968.37 502.03 862.30 620.49 884.41 700.78 1015.54 686.65
00054105 00000155 762.06 236.39 429.45 599.55 824.99 514.21 976.14 502.92 867.57 620.93 887.72 700.73 1021.04 688.12
00054106 00000156 764.49 239.26 432.78 599.57 826.87 513.76 982.11 504.93 871.34 624.40 888.76 701.83 1026.06 691.13
00054107 00000157 766.80 241.77 435.38 599.49 829.38 514.94 986.49 507.47 874.09 625.82 890.26 702.94 1028.58 693.31
00054108 00000158 767.41 245.93 437.72 595.72 829.96 516.60 990.08 511.04 875.49 628.99 890.06 704.27 1030.29 696.23
00054109 00000159 768.24 247.31 436.62 596.10 830.49 519.84 991.72 513.42 877.43 630.90 891.08 706.93 1031.29 698.26
00054110 00000160 769.22 248.31 436.32 593.96 833.00 520.19 993.83 513.60 881.19 631.00 893.72 707.07 1032.53 698.30
00054111 00000161 770.28 244.12 444.81 596.19 839.37 521.71 999.55 510.36 894.52 635.25 897.95 704.60 1035.84 691.53
00054112 00000162 773.40 249.37 442.32 590.77 842.00 522.37 1001.31 510.85 896.64 634.58 900.87 704.31 1038.24 691.37
00054113 00000163 775.94 254.61 442.56 585.94 842.89 524.54 1005.86 511.00 900.06 633.72 902.01 706.36 1041.37 692.06
00054114 00000164 780.19 252.41 441.07 587.11 846.87 524.84 1009.86 510.95 903.85 631.66 905.08 704.86 1045.49 690.43
00054115 00000165 785.24 253.13 439.91 585.19 850.17 525.33 1013.83 510.90 905.98 628.18 907.28 704.55 1047.01 690.02
00054116 00000166 789.42 248.60 439.32 589.89 853.08 525.66 1016.61 512.05 907.71 628.76 908.33 703.69 1048.75 690.06
00054117 00000167 792.98 247.73 439.06 591.15 855.59 528.51 1022.42 513.60 914.07 631.09 909.69 707.09 1052.22 692.75
00054118 00000168 794.67 250.33 437.92 590.40 857.47 534.37 1025.91 520.09 920.29 637.73 910.20 713.16 1053.03 699.56
00054119 00000169 794.58 252.08 440.61 591.89 859.33 540.37 1026.57 530.83 919.72 645.47 910.17 720.20 1047.46 710.35
