Video ID: 	zyNhHnu-LUc
H: 	1080
W: 	1920
FPS: 	25.0

FRAME INDEX X0 Y0 W H [Landmarks (5 Points)]

00000882 00000000 704.70 145.57 481.65 666.96 820.62 422.86 1048.55 396.90 947.08 532.63 869.48 654.25 1064.82 632.85
00000883 DELETE   703.28 143.49 484.08 672.28 821.11 424.19 1048.51 397.48 948.34 536.30 872.74 658.16 1063.72 636.09
00000884 00000002 701.42 145.48 488.07 684.50 821.30 430.71 1051.04 405.32 948.92 549.83 874.85 673.21 1058.48 652.75
00000885 DELETE   702.45 164.13 487.60 685.67 827.06 445.15 1049.62 419.71 953.10 564.56 878.07 685.77 1062.71 664.91
00000886 DELETE   703.36 162.21 487.54 692.84 828.01 446.27 1049.98 421.05 954.17 567.52 879.09 688.62 1063.69 667.86
00000887 DELETE   711.18 175.11 480.65 706.87 830.55 459.88 1052.59 434.03 954.50 586.17 883.99 710.34 1065.09 689.41
00000888 00000006 706.19 185.11 487.51 701.08 829.61 463.26 1056.90 436.49 957.18 596.02 884.79 715.86 1070.30 694.08
00000889 00000007 706.91 185.32 486.58 688.51 830.16 461.14 1055.23 435.66 956.12 590.96 884.38 709.63 1066.19 689.09
00000890 00000008 710.30 168.42 480.83 687.86 832.50 454.52 1055.30 430.86 957.11 578.06 883.64 696.49 1063.56 677.51
00000891 00000009 710.13 173.58 480.72 682.38 832.62 456.09 1053.33 431.38 956.95 576.94 884.45 696.08 1063.50 676.24
00000892 DELETE   708.49 171.50 481.03 677.68 835.66 460.58 1051.95 436.88 959.15 573.39 884.42 692.86 1059.98 674.00
00000893 00000011 706.89 172.68 484.29 676.39 834.29 457.90 1053.11 434.77 957.99 573.78 885.10 695.18 1058.23 676.74
00000894 00000012 710.96 166.53 478.70 676.42 832.58 454.81 1054.14 431.84 957.69 572.91 885.00 694.19 1058.46 675.90
00000895 00000013 711.73 165.79 479.90 678.18 832.41 449.96 1053.77 427.22 957.48 570.25 885.83 693.70 1058.47 675.55
00000896 00000014 712.62 165.88 479.38 676.82 832.33 449.72 1054.05 426.31 957.32 570.37 886.97 694.29 1059.01 675.62
00000897 00000015 711.75 162.49 480.56 678.08 831.36 448.59 1054.10 424.80 956.67 570.63 888.12 693.95 1059.51 674.94
00000898 00000016 710.03 164.33 480.71 674.55 829.48 448.26 1052.87 424.04 954.65 568.30 885.01 691.79 1058.55 672.46
00000899 00000017 707.39 160.52 483.97 676.62 828.36 446.21 1051.61 422.43 953.98 566.36 882.64 688.59 1057.65 669.51
00000900 00000018 706.67 159.45 484.52 680.82 827.54 444.77 1052.45 421.13 954.02 566.54 881.69 688.43 1058.80 669.35
00000901 00000019 706.74 159.32 484.86 680.42 827.56 444.79 1052.65 421.12 954.10 566.67 881.84 688.39 1059.09 669.26
00000902 00000020 703.74 141.91 481.71 693.90 825.38 437.19 1053.68 416.06 953.84 568.63 879.23 685.72 1055.16 668.75
00000903 00000021 697.03 114.61 470.66 680.38 814.01 385.72 1029.75 359.56 933.42 487.81 866.09 629.24 1042.34 607.47
00000904 00000022 696.49 115.89 471.27 672.27 813.78 385.39 1029.16 360.48 932.71 488.08 867.69 629.03 1037.65 608.55
00000905 00000023 692.99 127.12 474.83 666.09 812.88 382.65 1031.14 362.00 930.82 486.53 865.68 631.32 1031.01 611.71
00000906 00000024 693.23 127.15 474.74 665.90 812.90 382.60 1030.94 362.04 930.72 486.53 865.54 631.20 1030.55 611.64
00000907 00000025 693.78 130.42 473.08 661.77 813.21 383.72 1029.10 362.94 930.74 487.93 867.18 632.77 1028.63 613.09
00000908 00000026 692.68 129.19 470.94 662.90 815.56 389.11 1026.59 368.68 930.69 487.35 866.58 633.13 1026.44 615.32
00000909 00000027 693.69 127.44 470.27 675.39 819.53 392.56 1026.75 372.35 934.76 487.88 864.30 633.78 1032.07 616.84
00000910 00000028 693.95 128.16 470.97 679.99 818.37 390.55 1026.28 370.29 933.40 486.34 862.68 632.55 1034.87 615.20
00000911 00000029 694.83 129.29 470.36 678.53 817.90 390.22 1026.70 369.77 932.58 486.09 862.08 632.27 1035.88 614.65
00000912 00000030 693.79 130.57 473.76 669.69 813.59 387.32 1033.31 365.72 932.40 486.62 861.85 632.79 1038.54 612.00
00000913 00000031 697.13 115.00 468.66 671.04 813.03 388.85 1030.73 362.40 931.10 487.99 861.90 627.61 1041.37 605.74
00000914 00000032 692.76 126.80 474.71 658.17 808.39 387.67 1033.83 365.85 928.55 489.27 857.58 627.22 1041.53 606.44
00000915 00000033 697.14 115.31 470.47 669.76 812.58 388.41 1031.38 362.46 930.59 489.18 860.65 625.53 1042.93 603.80
00000916 00000034 696.88 115.12 471.09 669.95 812.37 388.75 1031.23 362.60 930.27 488.93 860.57 625.69 1042.87 603.79
00000917 00000035 697.64 116.26 472.12 665.88 813.32 387.49 1032.56 361.49 931.46 488.76 862.34 624.83 1043.55 603.22
00000918 00000036 698.94 113.10 471.50 668.12 814.90 388.72 1034.46 363.31 934.62 490.55 864.24 625.77 1044.31 604.92
00000919 00000037 699.28 107.08 474.06 678.11 815.44 391.91 1036.72 364.53 936.51 499.08 868.28 633.43 1044.13 611.48
00000920 00000038 699.15 114.30 476.50 676.68 815.31 399.82 1040.09 370.28 939.11 507.14 868.57 639.83 1048.02 615.83
00000921 00000039 699.41 112.32 476.34 678.34 815.43 399.83 1040.05 370.84 939.07 507.80 868.26 639.68 1047.90 616.13
00000922 00000040 699.24 113.34 476.43 677.02 815.52 399.53 1040.83 371.07 939.19 507.51 868.10 639.44 1047.70 616.32
00000923 DELETE   699.56 108.03 475.98 678.17 816.02 395.29 1038.24 367.72 938.29 502.14 869.03 636.26 1044.71 614.05
00000924 00000042 698.39 102.58 475.47 685.11 814.59 392.55 1036.28 365.37 936.09 499.43 867.09 634.95 1043.64 612.92
00000925 00000043 698.27 106.70 475.58 684.72 813.03 392.58 1034.61 364.86 933.64 499.34 866.05 636.55 1042.73 613.96
00000926 00000044 698.40 106.53 474.83 685.17 813.07 392.69 1034.50 365.46 933.54 499.42 865.72 636.63 1042.06 614.41
00000927 00000045 697.24 109.99 475.33 685.25 813.05 393.66 1034.47 366.49 933.89 500.63 865.32 637.87 1042.38 615.61
00000928 00000046 695.27 111.75 478.42 685.23 812.51 395.66 1034.81 367.75 933.88 501.86 865.22 639.21 1042.07 616.42
00000929 00000047 696.74 135.59 478.62 656.83 819.45 400.42 1037.55 379.51 937.90 501.77 866.71 638.72 1037.64 618.87
00000930 00000048 695.32 133.02 476.50 654.95 817.35 405.77 1033.78 383.14 937.76 502.60 866.70 639.22 1036.01 618.87
00000931 00000049 695.26 133.30 475.89 654.81 817.31 405.66 1033.87 383.20 937.83 502.60 866.62 638.95 1036.41 618.71
00000932 00000050 693.87 131.40 476.37 658.63 814.90 401.25 1034.90 378.99 936.40 503.52 865.94 639.94 1037.19 619.57
00000933 00000051 694.53 128.12 478.15 663.48 812.71 397.75 1037.83 376.04 934.56 503.99 864.36 641.41 1038.38 621.03
00000934 00000052 694.35 126.81 477.57 663.35 810.23 397.21 1037.57 374.17 934.21 504.00 863.72 642.36 1039.00 620.92
00000935 00000053 694.44 125.92 477.90 665.89 810.51 396.39 1037.86 372.85 934.75 503.16 864.75 642.41 1040.00 620.60
00000936 00000054 694.77 124.95 478.18 667.69 810.61 396.68 1038.25 372.93 934.87 503.47 864.62 642.87 1040.40 620.93
00000937 00000055 695.73 109.79 474.46 687.62 811.22 399.72 1037.27 370.02 936.21 504.94 863.44 640.81 1046.08 616.46
00000938 00000056 695.73 108.72 475.23 681.13 810.01 399.89 1037.26 369.65 935.16 504.61 860.48 636.46 1048.84 611.53
00000939 00000057 694.64 106.61 478.14 692.27 810.63 399.31 1036.99 369.30 935.61 503.16 858.57 634.34 1051.57 609.27
00000940 00000058 694.81 106.89 477.89 687.20 810.35 399.34 1036.66 369.06 934.77 502.57 859.93 634.39 1049.42 609.24
00000941 00000059 694.64 107.34 477.83 687.15 810.37 399.30 1036.80 369.20 934.86 502.68 859.72 634.51 1049.51 609.50
00000942 00000060 694.06 110.39 480.08 673.45 813.05 399.88 1037.24 371.75 935.41 501.02 862.56 632.38 1046.66 609.01
00000943 00000061 696.26 123.27 476.64 655.36 819.98 399.40 1037.29 372.99 939.47 494.53 868.72 629.01 1043.43 607.49
00000944 00000062 700.25 123.52 470.80 646.40 822.51 395.83 1037.47 369.70 940.70 489.84 872.58 627.95 1040.97 607.02
00000945 00000063 701.18 121.68 468.89 650.31 821.84 394.54 1036.30 369.54 939.16 487.16 871.47 627.24 1039.48 607.33
00000946 00000064 701.29 120.14 469.63 653.01 822.02 393.69 1036.22 369.04 938.48 484.74 872.18 627.56 1037.75 607.99
00000947 00000065 702.11 113.66 466.04 662.54 821.77 390.08 1037.44 365.49 938.85 483.10 871.60 625.93 1039.96 606.45
00000948 00000066 703.44 110.98 465.66 661.20 820.67 386.48 1038.42 362.24 938.96 482.56 871.07 624.60 1040.47 605.51
00000949 00000067 703.67 114.08 465.36 652.97 820.46 383.48 1039.78 359.15 940.18 479.58 872.19 621.49 1043.36 602.12
00000950 00000068 705.65 115.72 464.03 651.46 824.01 381.62 1042.61 358.60 944.27 480.98 875.32 619.80 1046.71 601.75
00000951 00000069 705.42 115.56 464.72 651.42 824.59 381.66 1042.31 358.76 945.04 481.13 876.27 619.26 1047.21 601.29
00000952 00000070 708.30 115.94 464.21 668.24 827.97 382.07 1043.94 356.90 950.00 484.21 879.63 623.61 1054.52 603.70
00000953 00000071 709.17 114.02 463.25 679.18 829.80 381.28 1043.56 355.95 951.42 484.78 880.51 624.88 1056.45 604.73
00000954 00000072 708.15 115.78 465.31 665.60 827.10 382.04 1042.43 356.25 948.37 484.41 878.74 620.84 1055.82 600.12
00000955 00000073 707.05 112.98 466.08 657.18 825.54 382.36 1042.17 358.78 946.31 483.68 875.82 616.85 1051.51 597.95
00000956 00000074 707.20 113.74 465.81 656.69 825.44 382.24 1042.57 358.83 946.34 484.43 875.71 617.14 1052.01 598.39
00000957 00000075 708.72 111.27 464.83 658.91 827.73 381.93 1042.66 359.04 947.79 484.25 877.22 615.15 1051.84 597.01
00000958 00000076 709.68 110.60 464.99 661.15 828.63 381.49 1044.60 358.70 949.78 484.73 877.01 615.34 1053.96 597.29
00000959 00000077 710.04 112.09 466.17 658.44 828.62 381.45 1045.53 357.96 950.11 484.17 877.60 614.63 1055.65 595.89
00000960 00000078 710.14 111.54 465.31 657.32 828.13 381.82 1045.00 357.38 950.18 483.82 876.22 612.36 1057.37 592.71
00000961 00000079 710.09 111.40 465.59 656.89 827.99 382.06 1045.04 357.52 950.15 483.74 875.72 612.03 1057.48 592.28
00000962 00000080 709.62 110.14 465.04 658.43 827.44 382.80 1045.25 357.82 950.14 483.85 873.78 610.64 1059.24 590.47
00000963 00000081 709.27 110.40 465.95 661.61 827.56 384.05 1044.84 359.55 950.12 484.98 872.11 611.40 1058.73 591.55
00000964 00000082 708.22 109.50 465.88 667.13 826.92 384.35 1043.49 360.06 949.01 486.23 870.77 613.50 1056.45 593.79
00000965 00000083 707.87 109.55 465.96 668.96 826.03 384.31 1042.45 360.86 947.40 486.42 869.29 613.92 1054.93 594.83
00000966 00000084 707.72 110.06 465.81 667.99 826.11 384.20 1042.68 361.03 947.49 486.24 868.94 613.46 1054.87 594.63
00000967 00000085 707.82 111.58 466.23 667.27 825.31 382.36 1042.35 359.29 945.71 485.70 868.60 613.43 1054.81 594.70
00000968 00000086 709.64 112.80 463.70 654.54 823.64 382.13 1042.67 358.10 944.85 482.30 867.54 610.93 1054.58 591.41
00000969 00000087 704.76 117.15 470.32 662.72 829.51 384.88 1045.33 365.06 947.62 480.63 866.42 612.52 1053.06 596.37
00000970 00000088 706.67 116.34 468.73 653.57 830.06 390.70 1042.64 368.27 947.33 483.20 871.16 617.04 1049.09 599.20
00000971 00000089 707.18 116.13 469.35 657.48 830.34 390.70 1042.03 367.82 946.98 483.56 872.22 617.74 1049.92 599.48
00000972 00000090 707.70 119.70 469.73 676.00 833.95 383.32 1043.01 365.62 948.60 482.49 876.95 624.38 1044.18 610.66
00000973 00000091 711.85 124.01 466.54 686.44 833.66 379.03 1047.22 355.15 949.93 479.28 879.67 631.80 1047.13 609.97
00000974 00000092 711.14 119.51 469.68 690.29 832.01 378.76 1047.34 352.45 950.40 477.52 881.49 632.08 1049.68 608.07
00000975 00000093 711.84 116.81 471.13 687.50 831.29 378.46 1048.09 352.09 951.42 476.26 880.26 629.88 1051.08 605.70
00000976 00000094 711.40 117.10 471.60 688.50 831.67 378.19 1047.84 351.98 951.30 476.57 880.71 629.63 1050.50 605.60
00000977 00000095 706.99 111.82 469.55 683.63 828.46 378.87 1043.84 358.19 947.38 482.42 875.57 623.86 1049.60 607.52
00000978 00000096 705.73 111.87 468.39 682.95 825.42 379.82 1042.56 358.32 945.19 483.23 873.65 624.26 1048.87 607.11
00000979 00000097 704.00 116.83 468.12 676.71 823.08 381.56 1040.43 358.56 942.83 483.11 872.67 625.70 1047.48 607.16
00000980 00000098 702.46 118.56 469.27 675.18 821.99 381.40 1039.38 357.99 942.09 482.92 872.20 626.02 1047.01 606.98
00000981 00000099 702.24 118.60 469.61 674.89 821.65 381.48 1039.37 358.01 941.94 483.05 871.74 625.89 1047.22 606.77
00000982 00000100 701.00 118.42 470.69 673.41 820.62 381.39 1038.04 357.49 940.95 483.06 871.98 626.15 1045.59 606.73
00000983 00000101 699.83 115.55 470.81 678.83 819.66 383.37 1035.58 358.56 939.84 485.06 871.61 627.96 1043.73 607.85
00000984 00000102 699.57 112.01 469.75 683.68 818.23 384.56 1033.15 359.59 938.62 487.73 870.75 629.55 1041.58 609.28
00000985 00000103 698.12 116.16 470.77 680.53 816.45 386.13 1032.33 360.88 936.25 488.93 869.04 631.61 1039.91 611.04
00000986 00000104 698.13 116.19 470.86 679.59 816.31 386.01 1032.47 361.15 935.92 489.23 868.76 631.53 1039.64 611.31
00000987 00000105 697.57 114.03 470.67 682.14 815.43 386.69 1031.72 361.77 935.00 489.72 867.80 632.36 1039.02 612.06
00000988 00000106 697.51 116.05 470.10 682.07 817.27 387.11 1032.12 363.80 935.78 488.62 868.18 632.97 1037.44 613.93
00000989 DELETE   699.32 124.56 473.80 683.39 818.21 418.21 1037.46 384.62 943.46 524.64 876.38 659.57 1049.70 631.93
00000990 00000108 696.13 136.91 478.32 678.84 813.80 424.01 1041.22 397.32 942.56 537.57 867.69 664.39 1053.75 642.48
00000991 00000109 695.52 132.99 478.82 685.49 812.62 424.54 1041.41 397.41 941.67 538.71 866.51 665.07 1054.62 642.78
00000992 00000110 693.53 125.96 481.85 696.62 812.58 426.44 1041.89 399.45 941.70 542.58 865.07 668.40 1053.37 646.37
00000993 00000111 692.61 128.35 483.64 697.08 812.36 426.28 1042.43 400.27 941.43 543.86 864.15 669.72 1052.43 648.51
00000994 DELETE   691.70 143.64 485.08 683.47 813.23 430.32 1041.91 405.23 942.55 547.38 864.75 673.27 1050.59 652.68
00000995 00000113 687.86 148.47 489.99 693.10 813.49 438.75 1042.44 414.99 941.27 562.24 864.30 684.31 1048.37 664.68
CROP_BBOX: 391 0 1509 1045
