Video ID: 	KRVcxMTuw8Q
H: 	1080
W: 	1920
FPS: 	25.0

FRAME INDEX X0 Y0 W H [Landmarks (5 Points)]

00000595 00000000 827.01 153.31 404.46 632.81 861.33 394.62 1020.13 389.55 874.98 516.90 885.55 635.87 1007.87 630.49
00000596 00000001 826.00 152.78 405.64 629.19 860.60 388.84 1016.39 387.67 872.17 515.59 885.28 630.90 1002.80 628.76
00000597 00000002 825.12 159.21 409.62 620.81 858.77 387.79 1016.32 384.69 870.79 512.06 884.34 629.68 1004.71 625.86
00000598 00000003 828.57 165.44 405.39 616.85 861.26 382.48 1014.39 377.42 869.07 507.34 888.80 628.10 1009.57 622.44
00000599 DELETE   826.77 159.83 405.70 613.86 860.10 380.96 1018.17 374.63 872.89 506.30 887.02 626.21 1007.68 619.81
00000600 00000005 825.37 155.10 406.10 613.76 857.47 381.25 1019.82 374.31 874.97 505.06 883.08 625.68 1003.21 619.16
00000601 00000006 823.93 146.66 405.81 622.69 856.41 380.78 1018.54 373.67 874.15 503.08 881.49 624.80 999.88 618.53
00000602 00000007 825.04 150.74 402.89 615.47 857.20 381.73 1015.09 373.03 872.92 500.34 884.45 624.00 996.77 616.46
00000603 00000008 825.24 152.06 406.95 624.50 859.41 381.41 1013.14 369.28 870.97 494.89 887.03 624.58 1005.24 613.54
00000604 00000009 823.57 144.11 411.04 638.98 859.71 381.85 1012.79 367.65 869.77 493.59 888.66 623.89 1015.65 610.41
00000605 00000010 821.92 140.51 412.25 642.22 857.50 382.08 1012.65 366.01 867.86 494.46 888.15 621.33 1024.76 605.74
00000606 00000011 818.23 134.65 418.43 649.55 858.17 381.61 1011.80 366.95 864.06 492.67 889.67 615.83 1033.06 600.28
00000607 00000012 815.18 135.25 419.05 648.63 857.67 379.71 1009.75 367.39 861.84 491.08 888.54 610.82 1036.66 596.66
00000608 00000013 815.21 127.11 418.53 657.66 856.96 378.55 1010.49 366.78 859.35 488.73 885.40 606.23 1036.16 592.49
00000609 00000014 810.12 126.58 420.97 656.65 852.51 381.70 1005.88 367.89 857.45 490.72 883.45 605.39 1036.11 589.84
00000610 00000015 807.27 125.50 419.89 656.37 847.80 385.03 1003.80 368.65 855.59 493.10 878.45 605.44 1033.96 587.96
00000611 00000016 800.21 122.61 419.20 651.61 838.65 385.27 1000.10 356.82 850.04 490.18 883.00 611.23 1040.03 583.59
00000612 00000017 798.93 129.96 416.07 642.12 839.18 382.25 996.51 353.30 849.65 486.93 883.41 610.24 1037.64 582.10
00000613 00000018 795.89 137.68 418.59 635.05 837.12 379.67 992.80 348.97 845.93 485.55 884.02 609.82 1037.36 579.97
00000614 00000019 794.88 141.43 420.83 628.80 836.39 378.45 991.66 346.81 844.93 485.03 886.07 607.22 1040.50 576.65
00000615 00000020 794.84 140.81 421.98 628.47 836.23 378.64 990.78 343.82 845.14 483.85 889.55 605.92 1044.08 572.22
00000616 00000021 793.99 136.02 421.45 629.46 836.52 378.41 992.01 342.32 845.38 482.63 889.43 604.81 1044.31 569.93
00000617 00000022 792.74 143.49 423.05 622.24 835.46 380.03 991.72 342.46 846.80 483.55 889.98 605.34 1045.63 569.26
00000618 00000023 794.75 139.99 426.26 626.11 836.01 384.20 992.91 345.19 847.34 486.93 890.90 606.50 1047.95 568.99
00000619 00000024 795.73 132.24 428.53 640.18 837.62 388.84 996.59 349.53 851.02 491.96 893.22 608.49 1052.79 570.44
00000620 00000025 796.02 141.32 433.20 634.30 835.39 399.06 1001.94 353.55 856.80 490.99 893.11 612.81 1056.91 569.90
00000621 00000026 803.82 140.09 434.90 641.06 845.93 392.91 1006.30 362.48 862.71 499.23 890.73 606.23 1053.78 575.82
00000622 00000027 806.14 132.56 432.86 654.11 850.74 389.39 1009.80 361.86 867.01 498.35 895.23 605.52 1060.02 576.72
00000623 00000028 808.30 133.04 431.92 656.61 852.48 388.80 1014.05 360.89 867.94 500.96 897.24 608.60 1064.90 579.68
00000624 00000029 811.78 145.46 435.17 646.35 855.06 388.03 1015.02 360.08 869.99 504.57 902.59 613.02 1067.22 584.47
00000625 00000030 817.10 130.37 428.22 656.07 854.65 392.15 1013.21 358.53 874.69 505.14 909.28 608.44 1072.76 577.38
00000626 00000031 819.52 130.45 425.78 655.96 856.91 393.93 1016.11 356.85 879.09 506.21 914.27 610.83 1076.65 577.07
00000627 00000032 817.52 131.42 429.00 654.87 857.46 394.11 1017.56 356.01 883.20 507.07 916.86 609.62 1080.50 575.03
00000628 00000033 816.33 131.94 426.74 653.17 858.08 393.47 1019.19 354.83 886.25 506.57 918.45 608.57 1082.24 573.73
00000629 00000034 816.78 130.78 427.97 655.11 857.80 393.17 1020.73 352.36 887.53 505.94 917.34 607.68 1083.86 571.03
00000630 00000035 815.05 129.31 428.48 649.80 858.09 392.15 1020.31 354.22 887.89 502.11 913.17 603.65 1074.78 570.07
00000631 00000036 812.56 130.00 432.95 635.82 859.12 392.26 1017.03 354.35 885.81 496.43 909.43 594.52 1069.54 560.46
00000632 00000037 816.35 127.28 422.98 639.36 857.26 386.48 1023.42 356.58 887.90 495.87 901.47 601.12 1060.50 575.27
00000633 00000038 815.49 125.22 422.52 640.82 854.49 378.12 1024.95 355.49 883.65 491.83 888.17 602.95 1037.56 583.58
00000634 00000039 815.19 133.81 420.82 626.50 854.83 370.28 1021.81 352.20 883.01 487.02 887.36 602.94 1021.45 588.00
00000635 00000040 815.79 127.42 416.98 627.37 855.31 368.42 1023.00 349.02 881.29 482.03 884.74 605.29 1011.75 590.12
00000636 00000041 815.56 109.09 415.54 642.83 851.27 368.79 1014.56 348.47 876.98 471.28 880.16 596.14 1002.13 579.44
00000637 DELETE   817.82 127.49 413.36 613.54 854.59 379.01 1012.57 356.67 875.46 469.42 880.34 595.26 995.80 576.39
00000638 DELETE   821.88 112.74 406.23 620.67 855.58 378.17 1011.28 355.22 872.69 461.16 878.82 589.89 991.88 570.72
00000639 00000044 817.85 114.15 403.02 610.15 851.77 370.37 1006.10 354.58 871.57 457.98 870.71 582.66 981.56 569.94
00000640 00000045 809.88 115.50 409.60 609.35 851.00 363.77 1010.28 348.59 872.83 452.92 871.12 584.81 979.61 573.14
00000641 DELETE   809.69 105.90 406.12 614.83 852.13 356.29 1007.27 345.40 868.70 451.78 866.86 579.12 974.65 571.37
00000642 00000047 816.63 91.80 395.84 640.39 846.66 347.58 998.20 338.24 858.21 449.26 862.10 581.55 968.44 575.00
00000643 00000048 816.65 84.30 392.52 649.73 844.14 346.27 996.00 338.19 855.79 450.59 859.77 581.65 968.97 575.84
00000644 DELETE   816.18 82.57 395.49 661.93 844.70 351.48 994.36 337.49 852.53 452.80 863.26 585.59 977.59 574.27
00000645 DELETE   813.79 95.55 400.69 655.32 849.09 352.90 997.70 338.92 856.41 454.70 870.91 583.20 991.47 570.64
00000646 00000051 811.52 107.84 407.94 656.99 851.30 354.35 997.99 341.68 853.43 461.53 876.26 586.57 1003.52 574.43
00000647 00000052 812.49 119.34 405.84 652.09 852.45 352.98 999.64 341.67 854.79 461.75 877.08 588.06 1006.64 576.86
00000648 00000053 809.62 112.15 401.20 658.71 852.30 354.49 998.38 337.29 845.91 462.97 877.96 598.36 1016.56 580.35
00000649 00000054 814.00 110.51 403.81 665.45 854.23 348.58 1001.93 338.31 853.09 460.50 878.84 588.94 1014.28 578.52
00000650 00000055 810.49 112.39 400.15 659.02 854.75 354.67 1000.50 335.69 846.25 460.15 881.51 598.22 1020.96 578.29
00000651 00000056 813.26 115.61 397.50 658.91 856.64 354.83 1001.02 336.22 846.55 459.60 882.67 599.25 1020.74 579.57
00000652 00000057 818.09 120.78 404.92 656.91 859.09 349.19 1007.04 342.02 856.52 458.68 880.58 589.77 1015.22 581.38
00000653 00000058 815.88 117.70 400.47 657.74 859.46 357.37 1006.61 338.72 851.58 460.61 883.18 600.41 1023.54 580.96
00000654 00000059 816.45 120.48 399.58 656.38 858.79 356.50 1007.67 337.19 852.98 461.64 884.47 602.28 1024.65 582.55
00000655 00000060 826.22 127.94 398.09 644.97 859.55 362.24 1010.63 351.87 859.61 467.52 879.25 597.24 1023.82 586.27
00000656 00000061 825.10 124.93 400.20 644.07 859.97 358.97 1013.28 353.19 862.44 467.74 878.87 593.06 1023.04 586.10
00000657 00000062 824.95 120.75 404.03 655.03 868.63 346.05 1022.49 348.42 867.77 458.27 879.03 584.88 1019.27 584.99
00000658 00000063 827.19 122.24 400.14 645.57 869.18 344.23 1018.58 344.83 868.83 455.91 878.81 581.78 1011.97 579.86
00000659 00000064 829.66 121.10 399.37 638.39 868.07 345.51 1017.63 347.67 869.46 455.69 878.03 578.94 1003.91 578.80
00000660 00000065 832.74 108.55 394.14 636.70 863.56 343.06 1017.29 349.20 869.09 457.05 872.08 576.46 994.46 580.35
00000661 00000066 831.52 114.49 393.27 624.68 864.76 337.90 1019.42 347.61 869.45 453.56 868.98 571.06 990.10 578.30
00000662 00000067 831.25 118.58 392.99 636.73 873.47 336.28 1021.75 348.64 872.69 451.45 873.62 570.75 994.82 579.90
00000663 DELETE   832.79 111.08 395.19 652.47 876.57 333.53 1027.68 346.84 875.38 454.42 878.10 574.41 1010.48 583.92
00000664 00000069 831.49 126.89 398.23 635.05 870.72 338.55 1034.31 355.46 874.48 454.71 872.83 574.83 1014.42 589.19
00000665 00000070 828.04 136.97 399.16 625.79 870.57 346.06 1041.52 362.74 881.59 457.65 870.69 577.35 1020.86 591.60
00000666 00000071 830.13 145.11 398.27 616.69 873.19 347.64 1045.73 364.10 882.59 459.23 873.99 578.86 1026.36 592.60
00000667 00000072 832.40 146.46 400.81 614.67 875.34 345.78 1051.07 363.71 884.80 456.60 872.23 577.25 1027.35 592.60
00000668 00000073 836.60 140.44 398.09 616.30 880.83 355.02 1051.54 370.28 887.25 463.59 877.64 581.60 1031.41 593.99
00000669 00000074 836.55 148.79 400.50 610.22 880.97 365.47 1051.40 378.14 886.99 467.23 876.78 586.04 1035.51 596.16
00000670 00000075 841.27 146.11 404.05 616.78 886.59 355.94 1051.20 371.58 888.30 464.74 881.06 579.97 1042.14 591.17
00000671 00000076 842.65 135.46 400.90 626.26 888.87 347.74 1056.52 369.68 891.92 464.32 879.06 572.22 1044.08 589.44
00000672 00000077 842.10 128.00 401.47 634.91 892.12 340.64 1059.04 365.22 892.86 459.98 879.64 569.33 1043.48 589.05
00000673 00000078 847.00 129.47 400.42 632.76 898.71 335.69 1063.01 361.69 897.17 454.94 882.37 564.87 1045.35 585.72
00000674 00000079 850.02 137.12 398.27 622.93 903.35 332.94 1064.49 360.42 901.12 453.67 885.87 563.22 1044.35 584.98
00000675 00000080 853.90 133.15 401.35 631.00 906.59 328.40 1068.80 354.04 908.09 451.85 888.42 567.22 1038.18 588.52
00000676 00000081 858.70 134.68 400.47 617.36 915.15 325.69 1073.14 351.52 916.39 446.12 892.11 569.68 1017.22 592.61
00000677 00000082 859.86 124.12 404.45 623.88 913.79 328.41 1079.61 355.62 921.34 447.06 886.12 569.38 1013.32 594.32
00000678 00000083 863.56 124.88 400.28 617.99 918.37 329.46 1084.87 357.37 927.64 448.00 889.48 568.98 1013.71 594.07
00000679 00000084 866.42 120.77 402.94 620.52 923.39 328.70 1087.68 356.80 928.39 447.65 895.82 568.64 1020.23 593.43
00000680 00000085 867.42 139.12 405.50 601.55 923.23 330.65 1092.76 354.50 932.44 446.26 903.17 565.24 1044.23 585.53
00000681 00000086 868.25 137.48 409.67 600.20 923.34 331.02 1094.50 358.51 932.37 450.63 900.30 558.53 1054.41 581.25
00000682 00000087 869.14 139.36 409.74 599.70 924.53 331.73 1095.79 357.67 934.23 450.12 903.62 558.36 1057.65 579.81
00000683 00000088 870.69 137.60 411.04 607.39 926.85 332.72 1095.65 356.84 933.25 448.68 907.57 563.61 1059.12 583.67
00000684 00000089 871.68 125.17 407.23 616.43 926.70 331.59 1095.23 358.29 932.22 449.79 906.05 560.81 1050.88 583.58
00000685 00000090 870.73 125.03 404.03 613.62 924.30 333.90 1088.80 359.34 927.77 447.71 902.42 562.96 1036.19 585.20
00000686 00000091 870.13 126.24 400.89 613.21 921.40 335.42 1083.82 360.09 921.58 448.89 899.56 567.17 1029.81 588.82
00000687 00000092 868.55 121.07 400.10 619.55 917.79 337.96 1082.25 361.80 917.00 452.48 895.15 572.34 1025.99 593.61
00000688 00000093 870.36 121.69 397.87 619.91 915.57 338.16 1078.92 360.69 915.05 455.82 895.59 575.37 1023.64 595.79
00000689 00000094 869.11 125.82 396.61 612.21 911.97 337.64 1074.37 359.76 914.43 458.56 893.40 576.41 1020.70 596.18
00000690 00000095 868.69 128.16 392.91 609.64 909.37 336.38 1069.67 357.93 911.67 457.31 891.01 576.62 1014.16 596.24
00000691 00000096 868.75 128.87 393.60 610.31 908.82 334.42 1065.64 354.64 912.53 457.86 892.94 578.20 1008.87 597.04
00000692 00000097 868.03 124.37 398.57 616.91 908.85 335.00 1064.44 353.46 908.10 457.11 894.31 581.38 1007.50 598.59
00000693 00000098 867.04 127.85 393.72 612.54 907.91 337.03 1061.17 354.41 906.18 457.32 893.02 581.69 1004.54 598.25
00000694 00000099 866.84 130.22 388.00 612.96 899.53 335.07 1059.16 358.65 906.50 462.42 889.11 579.71 1003.97 600.71
00000695 00000100 865.48 123.74 387.92 620.73 896.77 334.95 1057.83 359.20 904.12 462.64 886.52 579.61 1004.15 601.44
00000696 00000101 853.44 121.41 405.11 625.73 903.28 339.53 1059.54 358.45 904.34 458.65 890.66 581.01 1012.18 595.96
00000697 00000102 853.37 123.22 405.96 625.42 900.24 347.38 1058.03 362.24 905.07 461.04 891.28 584.11 1015.16 596.02
00000698 00000103 860.72 125.49 392.04 627.89 890.15 346.86 1054.88 365.93 899.91 473.27 887.76 589.67 1008.30 607.05
00000699 00000104 858.23 127.15 394.97 628.04 885.94 351.24 1051.05 366.80 897.84 475.45 886.43 594.70 1004.09 609.23
00000700 00000105 847.12 127.02 411.94 629.76 890.42 367.57 1058.30 372.91 902.90 470.18 888.65 597.82 1018.56 602.37
00000701 00000106 845.18 133.55 408.74 624.41 887.63 380.96 1048.50 382.22 902.64 477.60 891.62 605.63 1013.74 606.98
00000702 00000107 852.26 132.27 403.53 627.29 879.92 388.56 1042.52 388.69 893.78 489.13 890.21 612.91 1003.25 614.97
00000703 00000108 851.12 142.97 403.13 620.69 875.74 394.41 1036.16 388.78 891.27 494.42 892.76 619.52 1007.51 616.49
00000704 00000109 847.75 138.12 406.77 630.26 876.86 393.45 1037.86 385.81 884.45 495.75 892.00 626.93 1011.38 620.61
00000705 00000110 839.72 132.30 412.84 637.14 872.69 392.17 1038.42 389.94 887.95 495.09 887.75 619.13 1005.71 618.61
00000706 00000111 842.48 123.85 414.22 644.37 872.54 388.68 1029.89 380.76 881.04 490.41 895.40 619.11 1007.39 613.64
00000707 00000112 834.58 136.45 411.22 636.63 871.04 378.67 1027.55 370.80 880.08 485.53 892.52 620.39 1011.36 613.58
00000708 00000113 833.75 146.10 411.20 623.90 866.05 377.49 1030.06 366.42 884.39 482.76 894.09 614.66 1017.89 605.21
00000709 00000114 828.86 133.50 407.09 629.72 861.73 374.48 1025.11 367.60 881.65 487.25 884.44 609.74 1014.05 603.31
00000710 00000115 822.13 127.15 411.99 637.72 856.73 369.01 1024.75 359.13 877.21 483.60 882.42 608.94 1017.64 599.79
00000711 DELETE   815.74 127.55 418.00 646.54 852.60 357.89 1019.81 351.49 867.83 482.21 879.34 591.83 1034.21 584.02
00000712 00000117 811.63 112.84 416.13 661.76 849.95 357.26 1013.11 351.60 861.41 485.83 877.35 590.23 1030.84 583.17
00000713 00000118 806.29 123.42 406.76 647.65 843.17 369.61 1003.12 356.04 851.58 487.64 873.36 600.82 1033.39 585.52
00000714 00000119 799.18 136.51 412.28 637.31 837.59 366.98 998.21 358.36 845.95 489.58 867.66 598.08 1030.83 586.66
00000715 00000120 793.61 134.89 417.33 637.24 836.27 365.00 995.60 362.46 840.91 490.35 860.90 594.63 1024.16 588.48
00000716 00000121 791.21 141.97 418.84 631.91 834.21 361.32 992.97 363.91 838.31 490.95 856.39 593.60 1018.88 591.84
00000717 00000122 789.77 143.44 419.30 626.59 832.82 361.42 991.23 366.76 833.17 491.87 854.48 590.64 1015.37 590.78
00000718 00000123 789.13 146.61 420.04 618.05 831.32 360.85 990.29 367.70 831.03 490.14 850.83 589.43 1009.07 591.28
00000719 00000124 789.21 147.17 420.07 617.46 830.35 359.26 989.51 368.25 828.99 490.43 846.63 590.50 1001.69 594.67
00000720 00000125 788.89 144.12 422.45 617.63 829.22 359.78 990.39 368.33 828.60 490.12 844.52 591.30 999.94 595.25
00000721 00000126 789.58 144.97 417.57 617.13 830.03 359.28 989.95 368.13 829.67 489.97 844.32 589.38 999.28 593.72
00000722 00000127 790.35 146.21 414.05 616.36 830.61 359.22 990.38 369.31 831.54 491.09 845.03 589.57 999.60 594.91
00000723 00000128 789.52 139.99 414.67 624.56 829.60 359.65 991.79 371.14 830.43 492.49 843.52 590.81 1000.14 597.18
00000724 00000129 789.17 141.88 414.28 624.22 829.63 359.59 992.04 371.43 831.23 493.70 843.88 590.23 1001.03 596.75
00000725 00000130 790.24 144.28 412.52 620.38 830.32 359.83 991.08 371.60 830.99 494.41 845.85 591.74 999.37 598.33
00000726 00000131 790.72 152.27 415.74 608.81 830.89 358.19 989.50 371.33 829.69 494.15 846.60 590.69 997.65 598.52
00000727 00000132 791.76 148.58 414.72 612.40 832.14 359.21 989.64 370.48 831.06 494.74 848.19 592.96 997.44 599.25
00000728 00000133 791.35 150.46 415.55 611.34 831.41 358.63 989.93 371.19 830.77 496.80 847.48 594.57 996.02 601.97
00000729 00000134 791.44 140.31 415.78 621.28 832.10 360.13 992.81 373.79 832.04 498.80 845.58 596.49 994.01 604.97
00000730 00000135 791.38 153.09 415.72 608.78 833.68 358.24 993.19 372.26 833.96 500.05 849.18 596.47 993.09 605.14
00000731 00000136 794.70 150.14 413.11 610.33 835.44 361.42 993.19 374.81 834.69 501.53 850.38 598.41 991.46 606.46
00000732 00000137 801.56 140.79 402.82 621.80 839.16 361.37 999.50 381.25 842.61 507.29 856.93 600.80 992.12 616.22
00000733 00000138 803.33 138.79 403.30 620.90 838.93 361.66 998.87 382.50 843.29 510.04 857.57 601.63 989.66 617.91
00000734 00000139 803.78 133.29 401.52 623.90 839.69 360.85 1000.79 382.88 844.61 510.91 855.84 600.87 987.79 618.63
00000735 00000140 805.21 134.61 401.23 622.75 839.36 361.84 1002.74 383.09 847.80 511.03 854.85 602.55 986.56 619.87
00000736 00000141 806.37 133.57 399.61 622.59 839.84 363.58 1002.50 383.29 848.63 510.72 854.96 605.09 985.69 621.30
00000737 00000142 805.85 127.43 398.89 629.27 840.44 363.56 1002.26 383.54 848.03 508.66 852.33 605.00 981.75 621.91
00000738 00000143 806.16 119.22 398.15 636.58 840.08 363.77 1001.33 383.10 848.08 505.76 850.28 606.35 975.98 623.29
00000739 00000144 806.91 120.10 395.61 633.54 840.98 362.33 1002.66 381.32 849.13 503.31 849.63 605.55 973.20 622.43
00000740 00000145 806.50 123.19 395.89 628.02 839.68 361.53 1003.51 378.11 850.31 499.63 847.08 605.46 971.95 620.68
00000741 00000146 806.76 127.58 395.40 624.38 840.36 361.97 1002.78 377.18 848.52 496.51 848.08 604.42 970.75 618.47
00000742 00000147 805.10 131.26 396.89 620.14 838.39 360.13 1001.96 374.14 849.82 496.03 847.12 605.17 970.23 618.24
00000743 00000148 802.57 126.38 398.55 624.20 837.77 358.57 1002.02 372.39 850.68 493.94 844.92 603.43 970.18 616.65
00000744 00000149 800.57 124.51 399.55 626.56 837.33 357.79 1002.84 371.30 851.02 491.61 844.18 601.98 971.70 614.92
00000745 00000150 799.01 120.30 400.63 628.06 836.68 355.44 1003.60 372.21 849.98 490.60 840.12 597.72 969.61 613.37
00000746 00000151 797.09 124.34 399.73 617.60 834.60 351.78 1000.72 369.30 849.86 488.28 835.57 594.16 966.46 610.58
00000747 00000152 792.59 122.49 400.78 616.21 832.48 346.29 999.91 368.15 844.83 485.78 830.15 589.53 961.71 609.56
00000748 00000153 791.76 128.46 396.42 599.84 832.90 343.05 994.95 366.80 842.66 476.77 826.53 580.28 950.91 601.71
00000749 00000154 791.78 136.43 393.85 589.83 830.59 339.56 993.36 362.94 840.64 473.19 824.53 578.35 951.84 599.38
00000750 00000155 788.86 136.61 394.43 588.94 827.62 339.70 991.54 361.15 840.09 467.84 820.36 576.27 948.56 595.74
00000751 00000156 787.08 136.24 397.25 586.65 826.74 337.37 989.95 359.51 839.31 463.98 818.11 574.61 943.65 594.79
00000752 00000157 786.95 130.82 394.43 592.12 826.66 336.77 988.44 358.93 839.35 464.82 818.00 575.74 942.04 595.99
00000753 00000158 787.27 134.66 394.04 591.31 826.41 338.20 986.31 362.46 837.86 465.50 816.21 578.66 934.86 600.50
00000754 00000159 787.93 129.26 391.91 605.33 828.71 342.44 988.80 366.53 839.52 469.84 818.00 586.41 934.44 608.21
00000755 00000160 789.26 134.18 389.39 605.25 829.20 349.99 989.16 372.32 836.16 475.69 820.52 591.46 934.90 611.76
00000756 00000161 792.63 134.08 390.33 612.11 828.16 358.75 988.35 378.80 835.82 481.12 820.98 597.32 934.61 615.84
CROP_BBOX: 511 0 1618 1002
