Video ID: 	B1_aerkoafc
H: 	1080
W: 	1920
FPS: 	29.97002997002997

FRAME INDEX X0 Y0 W H [Landmarks (5 Points)]

00002773 00000000 645.89 183.04 354.94 501.22 764.65 355.05 922.16 373.62 846.12 458.40 758.12 524.91 897.28 540.78
00002774 DELETE   646.95 181.23 353.91 502.83 768.24 354.51 925.07 370.80 852.75 458.26 762.44 524.12 902.99 538.45
00002775 00000002 647.45 180.88 352.50 502.24 770.62 353.57 927.57 369.96 857.37 457.85 763.84 522.85 906.75 537.33
00002776 00000003 647.10 179.47 352.52 501.52 771.88 351.40 927.73 367.28 859.07 456.57 765.84 519.78 909.33 533.58
00002777 00000004 646.28 178.33 350.95 500.65 770.76 351.07 925.57 364.76 859.33 455.53 766.36 518.63 909.27 530.62
00002778 00000005 644.08 178.05 351.59 501.21 767.54 349.44 922.21 362.91 856.11 453.67 765.76 519.20 905.36 530.36
00002779 00000006 640.48 176.80 351.77 500.86 762.46 348.12 918.33 360.37 852.44 453.24 764.64 521.29 900.94 531.15
00002780 00000007 637.37 175.15 351.58 505.79 756.92 347.05 915.48 360.48 848.82 452.07 759.94 522.50 897.58 533.53
00002781 00000008 640.80 172.83 341.96 518.10 758.27 346.47 908.14 359.89 846.42 445.45 753.44 527.00 897.55 539.09
00002782 00000009 637.74 172.70 342.14 526.28 753.94 346.04 903.23 359.10 841.75 445.99 748.41 527.77 896.06 539.61
00002783 00000010 634.83 173.59 343.44 525.38 750.19 345.90 899.75 357.30 838.23 443.41 746.78 528.24 894.95 538.69
00002784 00000011 633.45 172.89 343.82 524.84 749.00 344.68 898.66 357.91 837.13 443.45 744.38 525.43 892.87 537.29
00002785 00000012 632.33 169.92 343.63 527.19 747.98 345.39 898.00 358.10 836.40 445.02 743.78 524.95 893.56 536.29
00002786 00000013 631.25 170.45 344.86 525.52 746.42 345.57 897.63 357.64 836.47 444.53 743.24 523.85 894.36 534.69
00002787 00000014 631.06 170.41 344.40 524.32 745.66 347.29 898.33 357.69 837.72 445.29 744.06 525.76 895.75 535.26
00002788 00000015 631.17 170.07 344.92 520.90 745.11 348.08 898.24 358.93 837.59 445.79 744.39 525.22 894.71 535.14
00002789 00000016 631.26 169.58 343.11 516.12 745.19 347.18 897.41 359.32 836.14 444.96 744.16 522.00 891.96 532.83
00002790 00000017 632.30 169.47 340.85 512.68 743.86 347.69 895.59 359.48 833.75 443.62 744.48 519.14 891.86 529.60
00002791 00000018 632.34 167.55 340.82 510.93 741.25 350.60 896.08 365.18 830.32 441.72 741.58 517.29 889.41 530.26
00002792 00000019 630.38 170.32 342.74 512.38 739.75 352.26 891.29 367.38 825.32 443.20 739.18 519.49 884.49 532.97
00002793 00000020 626.59 167.86 344.69 517.96 733.80 352.60 888.45 366.61 819.68 442.34 734.27 526.25 878.25 538.80
00002794 00000021 624.15 171.43 345.34 520.24 731.86 353.64 883.63 367.17 814.87 441.55 730.81 530.16 871.60 542.22
00002795 00000022 622.03 171.05 347.60 525.11 725.50 357.89 878.07 369.57 805.35 442.29 724.21 533.48 866.05 544.25
00002796 00000023 621.03 172.69 347.20 527.14 721.31 359.79 872.60 372.64 798.15 444.16 717.75 532.00 862.04 543.55
00002797 00000024 617.51 171.15 348.08 528.71 715.85 361.60 867.14 374.88 790.72 445.05 712.88 530.66 859.28 542.46
00002798 00000025 613.99 172.77 349.53 524.83 710.94 363.87 862.91 375.24 784.07 446.64 709.75 531.60 856.07 541.94
00002799 00000026 611.21 175.86 351.53 523.05 706.94 364.42 859.92 374.67 779.22 448.91 705.35 532.43 854.02 541.97
00002800 00000027 607.46 176.84 353.39 523.56 703.06 366.77 856.41 376.39 775.96 452.38 701.78 533.02 853.81 541.84
00002801 00000028 607.11 177.18 352.47 524.90 701.68 367.33 854.28 376.84 773.96 453.93 700.04 532.86 853.14 541.65
00002802 00000029 606.62 177.24 352.35 527.78 701.02 367.82 852.68 376.93 771.92 453.83 698.25 533.79 851.18 542.54
00002803 00000030 605.24 177.17 352.97 531.15 700.36 368.06 851.01 377.09 769.88 454.67 696.87 534.74 849.62 543.55
00002804 00000031 604.52 179.11 352.56 528.66 699.32 368.74 849.63 377.39 768.76 455.56 696.91 534.94 848.85 543.31
00002805 00000032 603.40 180.12 352.73 522.97 698.15 370.04 848.61 376.50 769.80 456.12 699.29 535.79 849.28 542.39
00002806 00000033 602.65 177.27 353.19 524.21 698.07 371.35 849.08 376.87 772.53 457.73 701.27 538.09 849.10 543.60
00002807 00000034 601.75 175.75 352.38 519.65 697.59 372.48 848.67 376.26 774.56 458.42 705.81 538.63 847.55 542.55
00002808 00000035 601.58 174.71 351.91 517.49 697.94 372.79 849.26 376.66 776.77 457.85 707.96 539.99 846.32 544.05
00002809 00000036 600.81 173.72 352.84 518.88 697.63 373.25 849.92 377.00 778.23 459.29 707.36 540.79 847.89 544.62
00002810 00000037 601.14 172.58 351.78 519.01 698.70 373.38 851.34 375.74 781.86 458.63 710.52 541.85 850.38 544.49
00002811 00000038 600.86 173.03 352.33 519.53 700.20 373.44 852.45 376.42 784.27 458.10 711.09 541.26 852.41 544.34
00002812 00000039 601.24 171.17 353.26 523.39 701.77 373.49 853.22 376.55 785.75 459.23 712.73 541.93 853.58 545.03
00002813 00000040 602.83 171.01 353.86 527.98 704.02 370.68 856.12 374.17 788.91 459.14 714.74 544.73 853.34 548.36
00002814 00000041 602.70 171.03 354.47 530.26 705.13 371.01 855.88 374.75 789.32 459.88 715.06 546.01 853.93 549.91
00002815 00000042 602.57 172.01 355.29 531.19 705.48 370.09 856.73 374.24 789.60 459.95 714.38 545.52 854.53 549.68
00002816 00000043 602.53 171.29 355.47 529.72 705.01 369.94 857.55 375.56 789.51 459.21 713.75 543.52 855.87 548.67
00002817 00000044 603.34 170.57 354.08 528.55 706.02 368.87 857.34 375.27 789.21 458.05 714.70 541.12 855.51 546.83
00002818 00000045 604.29 172.36 355.01 528.87 708.34 368.76 859.21 376.02 792.11 458.77 715.84 541.12 857.90 547.44
00002819 00000046 605.29 172.22 353.17 529.25 712.26 368.88 861.88 376.88 796.90 458.04 718.61 540.58 860.88 547.73
00002820 00000047 605.55 173.48 352.69 528.95 714.17 369.28 862.95 377.26 799.57 455.13 720.42 540.42 861.18 547.84
00002821 00000048 607.26 171.34 352.59 529.77 715.83 365.78 866.99 373.56 804.57 454.04 722.36 538.86 866.01 546.01
00002822 00000049 607.32 168.74 353.05 531.72 717.42 363.52 870.51 370.65 809.52 454.58 724.35 538.08 870.28 544.40
00002823 00000050 608.12 167.92 352.15 529.99 719.44 361.78 871.96 368.02 813.23 454.00 727.32 536.28 872.73 541.78
00002824 00000051 608.13 165.21 350.78 530.02 720.04 359.03 874.55 362.01 818.37 451.28 731.29 534.93 879.04 537.61
00002825 00000052 607.45 165.60 349.86 526.06 718.38 357.39 874.36 357.70 819.13 447.28 732.53 531.65 882.68 531.98
00002826 00000053 606.40 164.65 349.83 525.91 716.78 356.15 872.79 354.17 818.71 446.47 732.59 530.38 883.57 528.80
00002827 00000054 602.69 163.72 350.46 526.14 713.67 355.37 870.51 351.79 817.85 444.19 732.09 530.99 882.09 527.85
00002828 00000055 598.43 163.34 352.00 528.05 710.90 353.67 866.65 349.51 814.52 443.08 731.07 532.37 877.14 528.39
00002829 00000056 594.38 164.42 354.23 525.74 704.47 353.28 861.91 347.84 807.19 441.77 727.91 533.01 872.69 527.84
00002830 00000057 590.39 166.32 354.34 521.91 699.04 353.71 856.57 345.12 800.60 442.76 723.98 534.17 866.97 526.81
00002831 00000058 588.35 168.33 353.39 517.88 695.38 354.90 851.87 343.54 795.05 443.72 722.16 534.50 862.72 525.19
00002832 00000059 586.09 167.90 353.84 518.92 693.56 354.95 848.16 344.07 791.74 441.97 721.78 533.94 861.04 524.93
00002833 00000060 584.45 167.42 353.07 520.17 691.66 355.68 846.72 343.95 790.85 441.96 721.06 535.14 860.06 525.41
00002834 00000061 584.08 168.27 351.85 516.97 690.50 356.25 846.17 344.50 789.38 444.09 720.21 536.93 856.86 527.35
00002835 00000062 581.66 166.13 351.82 511.72 689.22 357.08 842.87 346.84 787.33 443.74 722.01 536.18 850.82 528.25
00002836 00000063 580.65 166.26 352.53 511.05 687.70 358.14 840.89 345.18 785.17 444.55 724.01 538.37 849.13 528.10
00002837 00000064 576.59 167.00 355.58 510.03 683.83 361.02 836.71 346.28 780.95 444.01 722.65 539.71 847.20 528.04
00002838 00000065 558.19 161.36 363.19 521.04 672.65 369.63 827.37 353.39 773.40 444.13 717.13 546.08 845.04 532.24
00002839 DELETE   549.88 158.74 367.80 523.91 663.11 375.76 815.78 356.12 762.76 447.50 710.85 548.28 838.15 531.93
00002840 00000067 552.52 169.46 360.55 513.72 646.10 378.79 797.25 349.26 746.26 443.72 697.17 556.39 825.02 532.19
00002841 DELETE   542.81 167.79 362.61 516.12 634.52 381.41 783.59 349.14 731.59 446.76 688.04 558.26 814.71 531.47
00002842 00000069 534.73 171.42 364.77 515.11 626.00 385.48 772.32 350.52 718.53 449.37 679.11 559.71 804.60 530.45
00002843 00000070 528.89 172.12 362.60 518.77 618.68 389.30 760.24 353.55 707.20 452.94 672.10 560.90 794.21 532.02
00002844 DELETE   522.29 174.77 363.93 521.60 613.10 391.01 755.34 358.34 700.77 460.18 664.44 564.93 785.67 539.23
00002845 00000072 517.66 177.35 366.29 523.33 607.72 395.35 752.12 362.60 695.66 466.24 659.45 569.37 783.14 542.97
00002846 DELETE   511.87 179.95 370.94 526.53 602.48 398.79 747.43 368.47 687.95 473.29 654.36 573.46 776.74 548.77
00002847 00000074 507.19 180.80 372.61 531.21 599.03 400.78 743.46 373.67 682.50 480.72 649.43 576.63 771.19 554.56
00002848 00000075 502.28 182.53 372.70 532.05 594.94 401.63 741.19 377.87 678.42 486.53 646.66 579.57 767.01 559.84
00002849 00000076 497.45 183.85 372.24 533.58 588.69 405.52 733.76 383.06 670.14 491.06 641.92 583.68 760.69 564.97
00002850 00000077 492.10 184.84 373.06 536.33 583.92 406.65 727.93 385.53 665.93 495.71 638.92 587.03 755.88 569.22
00002851 00000078 488.04 188.49 374.30 533.44 579.38 404.97 725.16 384.21 661.82 495.98 635.37 588.06 752.36 570.66
00002852 00000079 485.74 189.39 374.82 533.94 575.46 404.74 722.79 384.90 657.15 496.80 631.59 588.93 749.08 572.27
00002853 00000080 485.55 191.57 375.38 529.94 575.74 407.14 723.84 387.87 657.11 499.35 628.69 587.39 751.66 570.85
00002854 00000081 486.42 192.43 373.86 527.24 576.02 409.14 724.00 390.65 656.86 502.93 628.87 587.53 752.71 571.51
00002855 00000082 487.45 195.11 373.19 521.70 577.18 411.82 725.74 393.32 658.22 506.65 631.12 588.26 754.22 572.20
00002856 00000083 489.95 196.08 371.59 521.16 579.00 413.26 727.64 395.28 659.01 509.11 632.24 589.21 755.92 573.59
00002857 00000084 493.98 198.84 371.46 520.60 582.42 416.90 728.73 399.51 660.40 513.29 633.75 590.67 758.23 575.47
00002858 00000085 498.71 199.65 370.60 522.46 586.57 419.64 731.92 403.15 662.96 516.62 635.62 592.34 759.65 577.90
00002859 00000086 501.79 202.26 371.14 521.49 588.98 421.07 735.25 404.06 665.99 517.76 638.33 593.88 763.13 578.70
00002860 00000087 505.19 202.39 370.55 523.15 592.11 420.90 737.69 404.72 668.76 518.80 639.63 593.65 764.99 579.14
00002861 00000088 507.73 201.96 370.40 525.18 593.78 421.49 739.29 403.81 670.46 518.41 640.73 593.77 768.38 578.01
00002862 00000089 509.31 201.70 369.63 525.56 594.32 421.08 739.47 403.03 670.35 517.16 640.44 592.44 769.74 576.33
00002863 00000090 509.38 201.64 369.68 526.60 594.12 421.28 738.97 403.73 669.62 518.27 640.40 592.56 769.50 576.77
00002864 00000091 509.12 201.80 369.49 528.30 593.52 421.04 737.52 404.48 668.30 520.33 639.85 592.83 768.26 577.84
00002865 00000092 509.91 200.97 368.44 529.55 593.49 421.16 737.72 405.08 667.59 520.14 639.03 593.47 767.19 578.85
00002866 00000093 513.88 201.91 365.40 525.50 595.43 418.65 740.19 403.33 668.65 518.25 639.05 590.55 768.30 576.75
00002867 00000094 517.94 201.36 363.96 519.17 599.68 415.60 744.95 401.08 674.22 514.02 640.72 586.01 769.94 573.23
00002868 00000095 521.00 200.28 363.79 517.62 604.11 413.94 748.63 398.79 678.58 508.88 643.76 583.17 772.81 570.22
00002869 00000096 522.89 198.50 366.26 517.86 608.72 413.92 752.10 395.65 685.45 504.48 650.42 583.29 777.21 567.90
00002870 00000097 526.73 196.76 364.34 520.22 615.68 411.14 756.11 392.00 693.73 502.03 656.24 582.23 780.79 566.39
00002871 00000098 529.62 198.33 363.19 520.94 621.26 409.54 760.45 389.80 700.98 501.42 661.80 583.88 784.14 567.84
00002872 00000099 530.72 197.60 363.26 522.90 624.59 407.58 763.03 388.38 703.96 501.60 668.01 587.84 784.51 572.25
00002873 00000100 530.93 195.12 363.34 523.84 625.06 405.24 765.89 386.18 705.76 499.25 668.09 586.77 786.37 571.16
00002874 00000101 530.83 193.47 364.40 523.08 624.58 403.72 768.19 384.08 710.12 495.23 667.67 583.27 790.28 567.35
00002875 00000102 528.89 191.27 363.78 522.25 624.01 402.20 767.61 382.84 711.80 494.13 667.17 580.63 789.95 564.78
00002876 00000103 526.97 189.38 364.47 522.84 623.83 401.46 767.42 382.28 712.15 491.68 665.21 577.45 789.65 561.69
00002877 00000104 526.54 186.62 364.10 522.55 622.54 400.53 767.85 379.07 712.81 486.85 664.27 573.60 792.62 555.80
CROP_BBOX: 342 0 1143 844
