Video ID: 	k2JfjOHU2GM
H: 	1080
W: 	1920
FPS: 	25.0

FRAME INDEX X0 Y0 W H [Landmarks (5 Points)]

00015921 00000000 787.50 136.61 504.60 699.34 877.03 446.48 1070.13 411.14 949.93 545.19 936.49 684.19 1082.69 654.76
00015922 00000001 793.69 131.10 503.94 707.69 884.80 444.58 1076.58 410.24 954.11 541.53 939.71 682.97 1086.57 654.09
00015923 DELETE   801.17 131.13 500.33 707.14 891.43 439.19 1085.09 410.34 959.41 539.78 940.52 678.14 1088.56 653.98
00015924 00000003 805.30 131.16 500.27 709.04 894.16 435.29 1089.87 408.52 959.98 538.79 942.55 679.82 1090.13 657.43
00015925 00000004 809.50 131.31 501.26 711.26 897.25 432.35 1093.45 407.69 962.35 538.76 945.84 678.70 1093.77 657.82
00015926 00000005 813.26 131.88 499.93 709.69 899.80 431.51 1097.12 408.78 965.52 539.41 946.74 677.84 1094.81 658.55
00015927 00000006 815.62 130.03 499.34 712.49 900.96 430.76 1099.16 408.94 967.24 539.89 947.34 676.80 1097.13 658.22
00015928 00000007 819.37 132.20 495.68 710.82 902.05 429.75 1099.47 409.15 967.12 541.37 948.04 675.90 1099.22 658.26
00015929 00000008 816.87 130.78 497.04 710.96 901.73 430.54 1100.00 409.31 968.90 542.41 948.47 677.21 1099.07 659.21
00015930 00000009 813.54 132.40 498.99 709.93 898.43 434.27 1095.82 410.08 965.28 542.41 946.92 681.20 1095.36 660.70
00015931 00000010 808.28 132.90 501.45 708.49 896.36 438.40 1090.88 413.65 961.64 545.16 946.57 682.57 1091.28 661.63
00015932 00000011 799.56 136.73 501.69 704.28 888.25 448.60 1083.12 420.05 957.54 553.57 941.50 690.06 1089.11 665.79
00015933 00000012 794.84 141.43 496.71 701.43 878.54 453.77 1077.26 424.90 949.37 562.62 930.86 693.64 1084.28 669.10
00015934 00000013 785.04 147.49 500.79 695.29 868.63 457.73 1070.03 427.22 944.54 569.72 925.82 699.01 1077.38 673.47
00015935 00000014 776.20 154.29 507.76 691.03 860.92 462.96 1065.72 429.75 942.52 577.05 924.62 703.94 1075.41 676.06
00015936 00000015 773.56 158.34 504.98 688.94 860.53 470.28 1065.67 436.38 942.93 576.97 920.26 704.42 1074.27 675.97
00015937 00000016 769.03 152.88 507.05 693.99 860.37 473.33 1063.70 443.83 940.38 577.00 915.12 701.31 1068.23 676.58
00015938 00000017 769.27 153.62 507.51 695.13 859.07 470.61 1064.11 441.89 939.47 580.22 914.10 701.22 1067.89 677.24
00015939 00000018 767.86 156.93 509.74 691.57 857.36 470.74 1062.15 440.88 938.14 583.66 914.95 703.96 1067.99 679.16
00015940 00000019 763.27 146.51 513.93 708.21 861.46 466.36 1070.68 439.24 943.07 577.66 912.19 701.06 1071.03 678.27
00015941 00000020 762.20 144.91 515.56 708.78 860.80 464.40 1070.72 437.05 943.16 577.93 914.12 700.92 1072.76 677.88
00015942 00000021 762.01 146.66 517.57 707.29 860.13 464.90 1069.51 436.12 942.20 578.05 916.08 703.57 1072.95 679.39
00015943 00000022 762.19 148.81 515.72 707.69 860.42 464.48 1067.73 435.67 941.04 578.36 915.87 703.55 1072.06 679.39
00015944 00000023 761.12 151.83 515.99 706.03 858.16 464.80 1065.07 436.23 938.87 580.65 916.89 707.43 1069.44 683.47
00015945 00000024 760.89 156.35 515.13 702.36 856.81 465.32 1063.25 435.82 937.56 581.15 917.90 709.41 1068.56 684.63
00015946 00000025 759.80 155.01 516.27 704.06 855.45 465.64 1061.73 434.87 936.39 581.78 918.24 710.26 1068.98 684.31
00015947 00000026 758.78 157.32 516.18 701.97 854.46 465.09 1059.84 435.01 934.82 581.68 917.46 710.43 1066.42 685.10
00015948 00000027 757.60 160.28 514.76 697.20 853.09 465.04 1058.30 434.71 933.97 581.60 916.47 710.12 1063.69 684.63
00015949 00000028 759.00 161.64 513.76 695.86 852.82 465.46 1057.29 434.83 933.03 582.03 917.79 711.24 1063.65 685.51
00015950 00000029 759.07 163.45 513.50 698.97 852.60 467.12 1056.75 435.24 933.13 584.30 918.14 713.93 1065.17 687.05
00015951 00000030 762.92 164.87 511.84 689.10 846.14 466.07 1049.92 431.40 925.49 587.07 918.12 715.05 1064.63 685.96
00015952 00000031 763.92 165.95 510.50 690.48 847.93 466.00 1050.44 432.68 926.47 586.83 917.54 714.56 1064.04 686.74
00015953 00000032 765.83 164.75 509.67 692.50 851.53 467.26 1053.03 435.59 929.79 590.11 920.38 715.09 1066.07 688.62
00015954 00000033 766.88 167.05 508.16 691.93 853.59 470.97 1053.61 437.95 932.47 593.63 922.68 716.96 1068.67 689.46
00015955 00000034 767.73 168.34 508.19 688.39 853.21 471.72 1052.81 438.41 931.92 594.19 922.72 717.16 1068.36 689.32
00015956 00000035 763.70 162.71 509.09 705.41 856.15 475.76 1058.82 444.32 936.81 595.29 921.43 720.90 1069.26 694.31
00015957 00000036 763.27 160.49 509.97 705.73 855.29 476.93 1059.66 445.31 935.68 595.99 919.26 719.37 1070.57 692.50
00015958 00000037 766.78 166.81 509.48 688.64 851.10 475.19 1055.04 440.35 932.38 596.50 918.40 716.50 1070.38 687.11
00015959 00000038 768.20 165.28 508.01 690.53 850.87 472.47 1052.39 438.13 929.31 596.84 918.41 715.48 1069.47 686.52
00015960 00000039 767.00 168.34 507.52 687.64 852.33 471.53 1051.10 437.72 931.17 595.42 921.39 713.90 1069.33 685.49
00015961 00000040 762.34 161.38 509.22 710.59 855.88 471.73 1055.47 440.09 935.69 592.94 922.08 718.63 1069.83 691.77
00015962 00000041 764.45 166.65 509.49 693.98 851.90 468.84 1049.82 437.11 928.59 592.46 921.18 713.44 1068.79 686.68
00015963 00000042 765.07 170.26 508.49 690.65 850.27 469.41 1048.65 435.55 927.58 591.72 921.08 713.46 1069.60 684.91
00015964 00000043 763.94 168.41 510.35 690.29 849.07 468.80 1049.08 434.26 927.21 591.71 920.66 713.14 1069.95 683.96
00015965 00000044 764.78 166.56 510.52 685.43 848.16 468.36 1049.08 433.02 927.52 591.96 920.98 711.97 1070.24 682.03
00015966 00000045 763.31 157.49 508.16 699.38 852.56 471.03 1056.05 438.60 933.30 589.10 918.43 713.85 1066.33 686.46
00015967 00000046 764.86 163.60 507.52 686.49 845.22 467.82 1049.08 433.30 925.07 590.56 915.95 711.98 1066.73 682.71
00015968 00000047 765.44 167.26 506.44 684.71 844.93 468.64 1047.39 433.18 924.06 591.66 917.38 713.30 1065.69 683.33
00015969 00000048 765.17 167.65 507.38 681.87 843.68 468.06 1046.63 433.69 922.23 591.34 915.63 711.67 1064.42 682.59
00015970 00000049 758.86 160.88 511.88 698.00 851.54 475.73 1054.92 441.62 933.05 590.07 916.79 712.44 1065.98 683.54
00015971 00000050 761.39 166.76 509.61 682.46 845.74 482.02 1052.07 441.53 931.25 586.50 914.85 712.42 1068.64 678.28
00015972 00000051 760.28 164.35 508.40 686.77 843.29 476.49 1048.23 437.21 926.39 587.59 913.00 712.60 1066.54 679.42
00015973 00000052 758.14 154.63 511.41 704.52 850.25 472.91 1053.71 439.61 931.46 588.86 915.35 711.96 1064.77 683.78
00015974 00000053 757.93 157.89 511.78 697.92 849.93 470.27 1053.19 437.42 930.64 587.78 916.70 710.86 1063.79 683.18
00015975 00000054 758.39 156.12 512.02 697.90 849.39 468.52 1053.18 435.85 929.76 586.80 916.64 709.86 1064.14 682.30
00015976 00000055 757.83 154.14 511.57 699.07 848.61 468.77 1051.81 435.78 928.91 586.84 916.74 709.86 1063.38 682.05
00015977 00000056 757.23 153.94 512.50 699.23 848.91 468.89 1052.69 435.45 929.55 586.26 916.90 709.87 1064.64 681.66
00015978 00000057 757.20 155.47 511.55 697.99 848.54 469.77 1051.81 435.17 929.56 586.68 917.91 710.98 1064.72 681.79
00015979 00000058 755.13 157.25 513.30 697.97 848.26 469.35 1050.36 435.38 928.92 586.40 918.47 711.21 1063.66 682.49
00015980 00000059 757.00 164.53 510.77 692.71 849.02 470.52 1047.32 437.14 927.25 588.08 921.25 713.13 1061.46 684.72
00015981 00000060 756.10 166.15 511.09 693.45 848.13 471.46 1045.95 437.23 926.79 588.92 920.99 714.37 1061.31 685.18
00015982 00000061 756.78 166.87 510.65 693.91 848.05 471.73 1046.12 437.47 926.38 589.90 920.97 715.34 1061.09 686.09
00015983 00000062 759.17 160.25 507.56 700.60 850.03 472.77 1045.91 439.91 926.24 591.18 921.31 714.52 1061.80 686.34
00015984 00000063 763.69 173.26 505.42 677.60 843.82 471.11 1042.63 433.80 921.66 592.98 921.14 714.19 1065.31 682.60
00015985 00000064 766.75 169.65 506.08 682.87 846.51 471.14 1044.74 434.75 923.17 594.68 923.24 714.52 1067.02 683.68
00015986 00000065 766.90 167.33 507.32 687.17 848.57 470.76 1046.19 435.35 925.41 594.75 923.45 713.65 1069.01 683.59
00015987 00000066 768.36 169.00 508.45 683.95 849.95 470.25 1048.32 433.85 927.72 594.48 925.52 713.15 1072.33 682.31
00015988 00000067 769.62 168.22 506.84 683.90 852.42 471.96 1050.38 432.96 931.29 593.14 927.37 713.09 1076.90 679.99
00015989 00000068 768.80 167.11 506.93 683.96 852.73 473.12 1052.96 432.87 934.34 590.86 926.06 713.10 1078.13 679.07
00015990 00000069 768.71 169.98 508.73 681.33 851.87 473.75 1053.24 434.01 934.61 593.27 926.40 713.74 1079.26 680.05
00015991 00000070 766.89 169.57 511.92 685.00 852.77 475.09 1054.82 435.80 936.43 593.22 927.09 715.34 1079.71 681.99
00015992 00000071 767.05 166.62 510.12 687.75 851.53 475.68 1053.73 436.92 935.12 593.97 922.70 714.10 1076.25 681.44
00015993 00000072 767.00 162.38 510.84 694.78 852.80 475.37 1053.45 437.44 934.49 592.56 921.92 713.37 1074.12 681.38
00015994 00000073 765.79 165.26 511.84 689.84 855.79 481.49 1060.94 441.00 943.15 589.01 924.59 715.32 1079.04 681.16
00015995 00000074 765.23 168.60 510.74 684.41 856.07 481.08 1059.13 440.24 942.30 583.43 924.63 713.29 1077.42 678.89
00015996 00000075 764.24 163.07 512.11 692.97 858.21 477.30 1065.76 437.66 946.56 578.70 923.08 709.97 1079.36 676.91
00015997 00000076 761.97 153.01 517.67 700.66 856.62 471.64 1066.08 431.52 945.58 575.40 922.65 708.39 1080.29 674.92
00015998 00000077 762.72 155.24 519.61 698.98 857.18 467.95 1066.09 429.60 945.00 574.64 925.25 708.39 1079.96 676.43
00015999 00000078 760.92 153.66 520.66 708.88 857.00 468.23 1066.99 428.75 947.29 576.50 926.01 711.52 1085.48 678.67
00016000 00000079 763.49 158.11 517.76 711.71 856.72 471.23 1064.86 429.70 945.60 580.71 927.73 717.05 1088.00 682.44
00016001 00000080 762.79 162.59 516.62 703.96 857.14 476.66 1063.25 434.94 945.87 581.19 926.13 716.46 1083.55 681.66
00016002 00000081 765.20 165.01 509.79 688.58 854.64 480.03 1058.83 436.73 941.03 577.35 921.00 711.81 1078.44 675.21
00016003 00000082 759.08 159.29 517.18 706.20 858.85 478.08 1068.30 438.60 949.17 573.45 920.01 712.78 1084.04 679.15
00016004 00000083 759.55 145.10 517.06 720.32 857.01 473.48 1066.60 432.59 947.61 573.15 920.60 712.54 1084.31 678.12
00016005 00000084 761.76 148.42 517.56 713.70 856.69 470.24 1066.38 430.03 945.71 573.65 920.50 710.11 1083.33 676.41
00016006 00000085 762.19 147.56 518.75 708.45 857.49 466.83 1067.67 429.26 946.40 573.98 923.02 707.26 1083.84 675.75
00016007 00000086 762.73 147.01 518.10 709.63 856.75 467.40 1068.43 429.65 946.32 574.88 921.25 706.43 1086.12 674.65
00016008 00000087 761.79 149.58 515.16 707.85 858.57 476.39 1066.83 437.62 948.01 577.08 920.96 707.80 1086.90 674.92
00016009 00000088 762.40 172.31 512.84 677.10 857.03 484.93 1063.39 441.47 948.08 580.23 924.33 710.44 1084.24 673.85
00016010 00000089 762.33 164.76 510.80 685.99 855.56 481.39 1060.38 442.19 943.28 584.10 920.97 708.92 1081.46 675.81
00016011 00000090 763.20 165.40 509.84 684.44 852.19 474.47 1055.47 437.39 936.64 585.47 918.40 706.41 1077.62 675.01
00016012 00000091 761.90 155.86 513.97 698.49 856.34 471.11 1061.82 434.94 941.08 577.09 917.64 702.69 1078.31 672.18
00016013 00000092 760.89 156.80 513.80 683.34 843.97 465.98 1050.26 425.21 928.98 576.59 914.49 700.71 1072.52 666.06
00016014 00000093 761.76 154.38 513.11 683.67 844.79 464.45 1048.99 422.40 928.49 573.57 915.82 700.59 1071.10 664.94
00016015 00000094 762.35 154.15 513.46 685.10 844.26 465.06 1050.16 423.43 928.60 575.71 914.93 702.22 1071.42 666.99
00016016 00000095 763.02 154.40 512.38 686.78 845.76 466.45 1050.21 425.17 929.74 577.22 916.36 703.51 1071.28 668.56
00016017 00000096 764.33 154.55 510.58 688.20 846.29 467.41 1050.71 425.64 930.10 576.71 915.61 703.40 1070.12 668.20
00016018 00000097 766.85 153.26 507.99 690.16 848.20 467.16 1053.73 426.71 931.84 576.39 914.27 702.87 1069.16 668.86
00016019 00000098 766.95 154.49 508.90 688.29 850.88 465.25 1054.08 425.50 934.83 574.75 915.51 699.78 1070.19 666.43
00016020 00000099 770.96 153.75 506.20 689.07 855.61 464.57 1058.56 424.38 941.12 571.65 920.39 701.50 1073.16 667.83
00016021 00000100 768.98 149.54 509.26 703.41 863.07 459.42 1074.43 427.15 953.99 568.69 922.50 698.47 1085.98 671.21
00016022 00000101 771.21 145.74 505.14 708.27 866.29 459.71 1077.76 428.28 958.71 569.04 925.37 699.68 1089.23 673.27
00016023 00000102 774.87 142.95 502.20 711.98 868.53 459.31 1079.97 428.50 959.93 569.50 926.90 700.49 1090.55 674.77
00016024 00000103 777.12 144.92 502.35 709.80 870.31 460.49 1082.00 429.34 961.02 570.08 928.50 702.42 1091.42 676.72
00016025 00000104 777.11 145.92 502.18 706.36 870.24 460.58 1081.46 430.17 961.14 570.05 928.27 701.80 1090.29 676.74
00016026 00000105 776.80 143.95 503.66 706.34 868.29 459.30 1082.34 429.11 959.32 569.45 925.47 700.79 1090.52 675.78
00016027 00000106 774.00 142.74 504.10 703.85 867.90 458.34 1081.60 428.98 959.10 568.04 924.56 697.85 1089.71 673.37
00016028 00000107 772.29 144.38 504.29 700.76 866.58 458.46 1079.62 429.87 957.83 568.61 923.19 696.45 1087.72 672.45
00016029 00000108 770.48 145.75 506.40 701.44 865.26 460.55 1077.91 430.90 957.11 569.54 923.14 698.26 1086.78 673.34
00016030 00000109 770.80 151.51 505.73 699.80 864.49 461.06 1076.99 431.09 955.97 570.21 921.46 699.51 1085.47 674.31
00016031 00000110 770.10 147.78 507.08 707.83 864.67 460.71 1075.56 430.00 954.95 569.88 922.58 701.48 1084.35 675.80
00016032 00000111 769.32 149.28 507.71 704.69 864.92 459.71 1075.52 430.08 954.95 569.13 923.23 700.12 1083.90 675.35
00016033 00000112 773.51 156.06 501.77 690.59 861.55 463.38 1064.73 427.21 947.84 573.24 926.49 703.75 1078.81 673.31
00016034 00000113 774.46 155.96 501.05 691.66 862.16 464.45 1065.05 428.09 947.57 573.66 926.01 704.27 1079.28 673.65
CROP_BBOX: 515 0 1554 1020
