Video ID: 	Sy33I8nBkms
H: 	2160
W: 	3840
FPS: 	23.976023976023978

FRAME INDEX X0 Y0 W H [Landmarks (5 Points)]

00009650 00000000 1267.10 75.89 566.54 814.78 1500.99 373.46 1756.75 449.12 1693.07 492.35 1518.71 663.34 1709.59 725.30
00009651 DELETE   1264.06 79.70 576.50 827.59 1510.06 388.21 1761.90 464.27 1693.58 518.93 1518.24 681.05 1710.63 742.98
00009652 DELETE   1264.70 97.03 585.95 838.77 1517.04 403.51 1769.45 482.68 1698.60 544.93 1506.78 700.32 1712.31 766.08
00009653 DELETE   1270.03 111.51 586.33 836.25 1519.75 419.81 1775.29 503.03 1699.19 564.86 1509.28 719.91 1708.96 788.49
00009654 00000004 1267.90 115.71 589.21 838.32 1521.06 433.82 1779.69 515.21 1699.53 586.38 1506.18 733.81 1707.64 800.37
00009655 00000005 1269.80 121.63 590.36 837.88 1526.53 434.11 1787.19 522.56 1699.89 594.51 1514.63 728.74 1716.73 801.20
00009656 00000006 1268.24 119.57 598.53 842.23 1531.98 428.27 1794.74 513.32 1706.95 588.84 1520.98 722.71 1725.44 792.26
00009657 00000007 1271.66 116.48 600.88 847.57 1536.71 423.15 1800.05 511.84 1712.95 579.46 1521.56 715.84 1730.66 789.14
00009658 00000008 1278.79 111.53 593.01 853.17 1540.45 420.16 1801.52 514.44 1719.13 581.12 1524.80 720.90 1727.12 798.25
00009659 00000009 1279.58 119.22 588.80 850.42 1542.54 430.51 1801.46 512.32 1721.32 597.17 1526.33 733.25 1730.61 799.41
00009660 00000010 1282.99 134.66 578.18 850.99 1538.86 449.61 1791.11 524.71 1714.83 621.43 1522.42 750.27 1727.70 810.47
00009661 DELETE   1287.13 157.72 578.92 842.58 1543.50 474.53 1790.82 544.65 1716.26 640.43 1524.94 764.85 1717.92 823.50
00009662 00000012 1277.58 152.98 591.70 873.09 1537.82 484.95 1785.61 551.94 1704.61 665.42 1519.21 795.88 1706.76 848.66
00009663 00000013 1267.89 171.40 603.51 876.87 1533.08 505.52 1783.50 564.87 1701.05 687.56 1512.81 814.42 1710.45 861.21
00009664 00000014 1273.76 186.63 593.60 875.66 1530.30 516.87 1782.95 569.95 1702.12 700.12 1514.36 832.30 1714.68 873.96
00009665 00000015 1284.22 197.55 581.43 860.59 1532.08 519.28 1787.01 577.02 1702.97 702.53 1516.71 833.74 1708.59 877.92
00009666 00000016 1287.41 195.31 577.44 867.22 1531.38 520.92 1785.03 576.79 1702.52 702.57 1517.70 834.12 1707.44 877.01
00009667 00000017 1288.08 190.61 573.35 867.76 1528.91 519.04 1783.33 573.98 1701.00 700.33 1516.41 832.90 1708.47 875.41
00009668 00000018 1274.38 182.76 585.82 877.68 1524.35 515.85 1775.68 564.30 1698.01 697.95 1515.79 835.50 1709.89 873.43
00009669 00000019 1282.33 181.64 575.71 865.33 1523.23 515.68 1780.77 569.41 1697.40 694.59 1514.54 830.17 1708.02 871.70
00009670 00000020 1279.92 180.40 575.23 860.39 1520.10 514.36 1778.01 567.84 1693.75 693.06 1513.27 827.81 1706.32 869.05
00009671 00000021 1279.85 170.32 572.99 862.27 1515.81 512.66 1776.23 565.43 1690.53 687.92 1513.69 824.79 1706.31 865.82
00009672 00000022 1273.29 172.95 573.85 854.30 1511.21 513.00 1771.78 561.95 1687.55 686.97 1513.34 825.09 1706.84 862.52
00009673 00000023 1272.06 178.12 568.60 844.49 1509.28 515.45 1768.56 560.99 1687.17 688.73 1512.81 825.98 1709.30 860.77
00009674 00000024 1265.68 180.32 570.32 838.54 1507.04 515.20 1766.33 558.19 1687.19 688.63 1514.19 827.67 1711.40 859.90
00009675 00000025 1261.23 178.72 569.16 840.26 1502.77 515.69 1761.35 556.54 1684.00 688.04 1513.45 828.79 1707.58 859.03
00009676 00000026 1254.27 175.03 569.96 842.72 1495.21 516.10 1754.97 552.01 1679.97 687.55 1509.92 829.20 1705.42 855.60
00009677 00000027 1257.87 166.27 555.47 848.40 1489.80 508.92 1746.67 543.88 1674.00 678.12 1504.79 825.55 1699.96 850.73
00009678 00000028 1248.21 161.13 561.94 853.54 1482.40 507.32 1740.62 539.39 1668.78 670.96 1503.70 821.53 1696.45 843.99
00009679 00000029 1241.90 150.33 562.87 865.27 1476.55 507.30 1733.27 535.50 1664.92 670.27 1499.17 820.81 1692.58 840.71
00009680 00000030 1242.04 147.11 556.28 871.15 1471.41 506.17 1729.21 532.50 1663.36 669.93 1487.98 818.81 1691.24 838.45
00009681 00000031 1242.95 148.96 553.23 869.52 1474.67 504.42 1727.48 531.89 1665.16 666.52 1496.30 820.50 1688.48 839.83
00009682 00000032 1239.50 147.30 561.53 887.93 1483.36 510.65 1733.30 531.95 1680.07 665.47 1509.06 826.24 1692.67 843.72
00009683 00000033 1238.85 142.48 569.05 894.27 1494.50 508.77 1742.78 529.23 1695.18 659.85 1522.38 828.04 1702.76 844.31
00009684 00000034 1238.83 135.54 565.77 896.29 1493.75 510.89 1739.47 527.01 1694.95 660.21 1527.03 825.30 1706.04 838.91
00009685 00000035 1232.58 141.77 566.71 884.03 1482.83 514.67 1732.52 529.11 1682.24 666.32 1512.96 823.26 1703.25 836.00
00009686 00000036 1225.17 153.08 574.31 878.90 1470.58 519.91 1729.44 536.60 1670.37 674.90 1495.21 824.90 1695.04 839.93
00009687 00000037 1232.46 159.53 563.26 880.48 1466.63 529.11 1728.20 549.11 1664.59 687.15 1489.79 835.69 1689.22 853.16
00009688 00000038 1230.50 168.87 563.59 885.27 1471.64 533.45 1728.79 552.91 1668.28 694.13 1494.85 848.30 1684.10 861.82
00009689 00000039 1233.33 177.93 560.58 874.35 1477.42 536.71 1731.15 556.43 1673.76 700.71 1499.31 850.74 1687.84 864.22
00009690 00000040 1235.90 182.62 558.22 855.05 1475.50 537.07 1732.52 554.81 1672.49 696.10 1501.21 845.97 1696.63 858.26
00009691 00000041 1235.75 171.01 559.62 847.56 1469.74 531.52 1731.37 544.62 1662.13 686.36 1506.88 835.08 1697.50 844.08
00009692 00000042 1240.32 161.49 552.19 854.35 1470.15 521.90 1725.50 534.12 1664.94 674.77 1499.93 826.32 1698.55 835.09
00009693 00000043 1243.73 160.80 557.07 862.19 1475.90 523.08 1733.15 536.25 1674.42 672.70 1507.43 824.40 1704.29 835.32
00009694 00000044 1246.35 161.10 564.33 880.07 1491.36 524.41 1742.10 538.22 1691.91 672.26 1526.61 833.79 1711.36 844.44
00009695 00000045 1252.78 163.13 568.69 883.63 1503.45 530.38 1748.75 537.67 1708.63 676.85 1546.76 836.51 1724.70 842.69
00009696 00000046 1252.88 175.43 570.41 867.40 1507.39 541.76 1752.85 543.41 1717.06 687.81 1554.43 843.19 1735.58 845.31
00009697 00000047 1247.16 182.30 571.36 862.91 1494.93 546.61 1748.79 549.34 1700.73 698.18 1535.81 851.44 1729.10 853.27
00009698 00000048 1245.42 181.16 554.50 870.54 1470.78 551.06 1731.22 557.58 1667.31 703.35 1500.66 855.92 1708.42 860.75
00009699 00000049 1225.40 188.93 568.08 864.28 1449.35 547.44 1714.84 559.49 1639.16 710.72 1472.97 858.77 1688.57 866.70
00009700 00000050 1213.98 184.12 575.14 872.30 1434.24 542.06 1703.70 564.03 1617.03 709.58 1443.36 855.10 1669.33 871.73
00009701 00000051 1210.92 191.36 570.21 852.91 1426.96 544.30 1699.87 571.18 1615.96 705.72 1434.63 850.14 1662.81 872.67
00009702 00000052 1202.11 192.63 575.15 848.91 1425.00 543.28 1696.08 567.92 1618.42 702.84 1433.91 843.46 1664.28 864.22
00009703 00000053 1203.28 191.92 573.31 852.48 1427.30 543.07 1696.37 563.60 1625.39 697.12 1439.23 839.38 1671.07 857.29
00009704 00000054 1198.70 198.14 580.57 855.19 1434.74 540.96 1702.53 564.33 1629.90 701.71 1439.62 842.41 1676.62 862.08
00009705 00000055 1201.82 195.70 572.72 854.53 1432.98 546.90 1700.18 562.00 1635.33 704.83 1448.39 844.55 1676.21 857.47
00009706 00000056 1194.92 198.19 581.07 871.59 1441.21 541.80 1702.72 562.84 1634.72 707.11 1448.52 850.88 1674.27 869.20
00009707 00000057 1188.31 189.12 587.63 895.57 1435.95 546.71 1694.44 562.26 1633.21 704.51 1451.89 853.81 1659.70 865.84
00009708 00000058 1187.87 190.62 586.91 897.32 1435.70 546.11 1693.10 563.10 1632.73 704.18 1449.22 855.24 1656.92 868.29
00009709 00000059 1191.41 185.40 581.29 898.39 1433.47 545.35 1691.87 561.09 1631.31 702.06 1450.74 854.18 1658.00 866.49
00009710 00000060 1198.11 186.73 576.40 888.08 1439.96 536.52 1700.22 556.59 1633.01 700.42 1450.58 853.13 1666.35 871.49
00009711 00000061 1210.22 184.92 564.54 869.46 1434.35 540.77 1701.76 553.11 1638.79 695.77 1455.71 846.39 1678.06 857.78
00009712 00000062 1210.21 189.87 575.85 865.51 1443.97 537.47 1710.30 555.53 1642.42 695.70 1454.87 841.83 1685.26 857.39
00009713 00000063 1210.58 185.30 574.77 883.51 1450.17 543.70 1709.00 553.13 1650.33 698.04 1463.10 847.36 1680.53 858.37
00009714 00000064 1223.82 181.13 567.91 889.53 1457.58 539.79 1715.54 547.97 1654.03 687.44 1476.84 848.19 1678.43 857.95
00009715 00000065 1232.00 170.06 566.83 887.03 1465.45 536.87 1722.26 543.29 1660.91 680.11 1497.12 845.31 1686.26 852.99
00009716 00000066 1237.73 156.85 567.30 876.57 1464.36 525.33 1724.57 536.64 1659.09 666.81 1508.69 837.25 1686.86 846.60
00009717 00000067 1232.31 156.85 571.70 882.06 1459.58 522.95 1721.32 538.09 1649.65 665.33 1501.76 836.70 1678.60 848.63
00009718 00000068 1228.46 156.02 579.88 903.16 1465.98 527.78 1726.78 541.40 1656.31 670.77 1505.68 847.39 1683.20 860.14
00009719 00000069 1251.27 162.88 559.07 886.84 1474.00 530.42 1737.13 544.82 1669.23 684.31 1511.22 847.37 1695.66 857.09
00009720 00000070 1259.29 175.61 557.56 874.73 1486.31 538.68 1748.76 553.85 1683.02 695.78 1519.86 851.70 1716.76 862.41
00009721 00000071 1262.36 188.49 560.16 864.21 1496.11 546.49 1753.72 560.67 1692.79 705.16 1520.70 854.74 1724.58 864.96
00009722 00000072 1267.91 189.35 559.42 867.45 1498.65 549.51 1757.79 564.46 1695.97 709.77 1521.86 857.58 1727.36 868.71
00009723 00000073 1268.70 196.41 559.23 862.99 1498.83 548.99 1758.11 567.03 1693.57 712.26 1519.04 858.83 1724.53 872.01
00009724 00000074 1268.72 192.58 559.22 862.34 1498.46 548.72 1760.58 566.77 1693.87 714.18 1519.04 857.92 1726.99 871.65
00009725 00000075 1266.73 192.06 567.45 868.87 1504.52 545.45 1765.66 569.05 1702.14 712.34 1521.72 853.57 1730.06 871.70
00009726 00000076 1272.96 190.03 570.89 873.30 1516.61 542.03 1774.38 564.85 1716.86 709.11 1531.74 849.64 1735.00 867.60
00009727 00000077 1281.00 179.92 567.62 875.59 1513.13 541.28 1774.07 560.84 1708.79 696.70 1536.26 841.13 1737.39 857.28
00009728 DELETE   1286.90 186.61 561.31 848.10 1510.64 547.09 1769.63 561.88 1694.52 688.78 1542.72 831.84 1733.41 844.29
00009729 00000079 1274.17 176.48 579.68 857.53 1504.89 541.72 1773.61 551.98 1696.65 689.09 1541.90 833.60 1740.63 842.29
00009730 00000080 1279.78 176.08 579.29 867.33 1519.94 538.02 1782.18 554.64 1718.05 696.29 1546.13 839.79 1745.03 853.63
00009731 00000081 1284.64 179.77 578.98 881.80 1529.65 537.66 1788.60 557.47 1730.06 701.85 1547.00 844.28 1744.03 860.94
00009732 00000082 1275.92 184.80 583.91 897.27 1530.24 537.50 1788.11 553.94 1729.48 705.53 1542.06 854.51 1738.16 869.26
00009733 00000083 1269.22 192.85 587.98 893.80 1520.75 535.22 1781.54 554.77 1715.99 702.00 1529.78 853.58 1730.50 870.65
00009734 00000084 1274.07 188.99 581.61 887.86 1521.99 548.94 1780.94 564.91 1713.76 700.58 1529.94 852.25 1732.75 867.86
00009735 00000085 1281.91 185.10 584.48 884.03 1534.12 554.15 1782.57 570.03 1723.97 694.95 1544.84 854.39 1743.40 868.47
00009736 00000086 1289.53 184.69 578.76 860.84 1531.58 552.23 1793.62 566.12 1729.74 701.56 1558.68 855.86 1755.16 867.10
00009737 DELETE   1286.81 192.38 575.27 849.51 1522.62 551.96 1790.97 562.13 1726.32 706.26 1556.81 855.51 1757.92 863.84
00009738 00000088 1286.15 187.07 568.38 855.85 1513.60 548.87 1779.18 559.11 1712.11 708.99 1548.14 854.68 1745.60 862.84
00009739 00000089 1274.73 184.97 565.36 862.37 1501.04 547.34 1764.99 558.94 1695.24 707.63 1535.14 855.45 1730.39 863.70
00009740 00000090 1264.73 180.71 570.42 872.43 1494.02 545.79 1758.29 558.33 1686.90 705.77 1524.25 857.07 1723.03 865.57
00009741 00000091 1253.90 181.99 578.18 898.75 1490.95 542.35 1752.14 561.14 1681.48 704.35 1510.59 858.19 1709.40 871.20
00009742 00000092 1251.30 180.25 578.86 906.87 1489.16 539.12 1751.18 561.96 1682.22 702.58 1500.40 859.74 1706.38 876.23
00009743 00000093 1250.42 179.29 581.39 899.98 1489.29 537.24 1752.19 559.17 1680.47 700.44 1503.35 855.39 1707.78 871.08
00009744 00000094 1254.53 177.68 574.87 885.91 1489.30 536.21 1751.72 556.18 1680.80 700.51 1504.95 848.04 1710.36 862.89
00009745 00000095 1258.55 177.33 568.79 870.96 1488.89 537.16 1753.91 553.79 1684.50 699.01 1504.24 843.81 1721.10 857.63
00009746 00000096 1258.47 173.55 571.34 866.63 1497.61 531.78 1751.86 546.50 1681.86 696.21 1508.75 834.72 1725.21 847.35
00009747 00000097 1259.55 169.17 566.70 872.46 1486.37 534.93 1749.78 546.93 1681.27 692.76 1510.81 835.71 1718.69 846.19
00009748 00000098 1252.04 162.96 572.44 877.24 1481.36 530.50 1747.66 542.77 1675.30 688.91 1516.54 838.18 1710.61 847.49
00009749 00000099 1250.13 164.61 567.43 869.34 1470.50 531.48 1739.06 539.23 1664.71 683.20 1509.93 834.40 1701.46 840.56
00009750 DELETE   1249.84 155.46 565.25 869.41 1458.93 531.43 1733.86 533.61 1654.19 678.11 1497.97 830.89 1706.60 833.90
00009751 DELETE   1241.71 134.31 566.88 893.18 1450.44 518.13 1721.39 528.94 1640.51 670.09 1471.71 819.60 1694.98 828.84
00009752 00000102 1230.68 128.21 571.69 900.87 1437.56 509.28 1711.49 524.18 1623.84 667.43 1453.39 819.65 1683.68 831.39
00009753 00000103 1215.76 128.02 575.17 898.12 1427.82 502.80 1697.56 519.82 1611.65 661.73 1439.65 812.85 1671.49 825.70
00009754 00000104 1206.59 146.64 582.81 876.37 1414.15 509.03 1691.38 522.74 1603.01 659.03 1437.04 812.24 1662.15 825.65
00009755 00000105 1194.43 147.47 586.30 875.32 1409.05 505.65 1684.35 515.77 1598.61 654.81 1434.91 813.10 1655.91 822.94
00009756 00000106 1194.20 142.17 582.77 884.79 1404.53 501.79 1681.66 510.93 1595.76 646.37 1431.42 812.97 1654.84 822.33
00009757 00000107 1188.86 135.96 583.64 897.51 1399.73 501.33 1677.66 507.22 1594.37 641.45 1431.08 813.94 1654.03 820.85
00009758 00000108 1176.91 141.33 594.14 891.02 1398.96 500.31 1678.91 505.08 1590.31 639.99 1423.65 813.49 1650.31 820.15
00009759 00000109 1173.70 138.84 596.82 897.67 1399.62 499.57 1678.64 502.11 1593.52 637.24 1427.64 813.76 1649.67 818.67
00009760 00000110 1173.90 136.74 596.33 901.19 1399.80 498.35 1678.66 499.49 1593.86 635.12 1430.36 814.42 1648.65 818.21
00009761 00000111 1172.29 135.42 596.62 902.16 1396.74 497.66 1676.85 497.82 1590.50 632.86 1428.50 812.91 1645.06 816.12
00009762 00000112 1169.60 133.56 596.56 900.77 1391.03 497.10 1673.08 493.64 1583.55 630.28 1426.41 811.90 1640.61 812.33
00009763 00000113 1164.14 130.82 595.78 905.65 1383.92 496.99 1663.81 491.28 1572.91 628.99 1421.08 810.18 1634.11 808.85
00009764 00000114 1163.49 107.94 588.76 930.56 1374.43 500.42 1653.43 491.53 1562.92 629.92 1429.22 819.79 1630.35 814.66
CROP_BBOX: 764 0 2193 1292
