Video ID: 	iKXAvDWds8c
H: 	2160
W: 	3840
FPS: 	29.97002997002997

FRAME INDEX X0 Y0 W H [Landmarks (5 Points)]

00001704 00000000 1686.60 319.22 557.37 730.16 1827.65 682.00 2055.31 608.90 1971.55 778.13 1914.53 895.01 2116.10 836.15
00001705 00000001 1684.08 321.30 550.62 729.88 1821.60 686.22 2048.66 615.66 1960.96 782.36 1902.53 898.38 2103.96 842.38
00001706 00000002 1679.57 328.42 545.90 724.56 1814.85 689.40 2042.26 619.37 1954.18 786.01 1893.08 900.99 2097.96 845.35
00001707 00000003 1676.69 330.89 544.04 723.34 1812.36 694.41 2039.40 626.58 1950.35 792.14 1887.55 903.31 2092.57 849.54
00001708 DELETE   1672.13 334.42 543.97 726.72 1813.48 699.90 2036.70 636.60 1947.24 795.57 1885.20 904.85 2087.29 854.52
00001709 00000005 1666.03 336.91 544.68 734.24 1809.68 704.21 2033.06 641.25 1944.58 805.22 1880.69 909.44 2083.17 858.91
00001710 00000006 1661.26 339.32 544.70 737.19 1806.15 707.39 2030.25 645.34 1941.41 812.49 1874.84 913.55 2076.52 863.76
00001711 00000007 1659.20 339.51 544.83 737.73 1804.25 707.75 2028.83 646.22 1940.36 813.14 1873.65 914.46 2074.18 865.15
00001712 00000008 1649.62 330.00 550.47 750.97 1796.89 709.21 2026.04 647.18 1937.02 818.48 1872.10 919.11 2072.47 868.14
00001713 00000009 1644.11 327.23 553.06 749.83 1792.37 707.75 2020.24 644.07 1932.17 814.21 1868.10 915.37 2069.27 863.02
00001714 00000010 1638.32 321.98 556.15 756.99 1788.15 704.85 2014.69 640.64 1926.27 810.00 1863.16 912.09 2066.22 859.13
00001715 00000011 1631.90 318.72 558.12 757.27 1783.54 704.13 2009.55 638.17 1921.66 807.43 1856.58 907.33 2063.42 852.53
00001716 00000012 1626.21 319.15 559.17 758.27 1775.77 700.01 2002.11 633.01 1912.69 805.66 1847.17 902.86 2059.28 846.18
00001717 00000013 1621.38 323.00 556.84 748.36 1765.57 699.30 1990.39 632.19 1899.96 802.01 1837.35 900.49 2048.31 844.50
00001718 00000014 1616.62 328.49 549.67 729.79 1754.66 694.96 1981.88 629.41 1889.74 795.81 1828.19 896.73 2035.51 842.83
00001719 00000015 1612.08 329.93 544.85 718.01 1747.36 688.98 1973.21 624.91 1881.05 789.00 1821.34 890.52 2024.36 838.01
00001720 00000016 1605.68 327.09 543.47 720.47 1739.87 683.07 1965.17 619.42 1873.81 783.46 1813.78 885.72 2016.91 833.44
00001721 00000017 1597.99 325.99 544.79 718.33 1731.81 681.25 1957.62 615.53 1868.14 778.98 1809.29 884.63 2012.94 830.82
00001722 00000018 1595.26 323.85 543.11 712.92 1724.54 679.96 1950.48 609.94 1862.11 770.64 1806.43 881.45 2009.61 824.78
00001723 00000019 1593.29 323.17 545.08 710.36 1721.67 677.48 1948.16 606.66 1859.75 766.43 1804.53 879.46 2008.75 822.38
00001724 00000020 1591.59 321.28 546.85 710.54 1720.17 673.38 1948.11 602.05 1858.22 761.60 1800.40 875.15 2010.00 817.25
00001725 00000021 1590.40 316.85 548.91 710.74 1720.58 669.74 1950.32 599.16 1859.79 759.80 1799.71 871.32 2011.89 813.74
00001726 00000022 1593.86 314.12 548.71 713.61 1723.88 667.98 1954.42 597.95 1863.20 758.49 1800.69 868.98 2015.96 811.41
00001727 00000023 1594.87 308.30 551.80 716.35 1726.61 663.53 1957.77 595.74 1865.03 757.94 1802.99 865.33 2018.26 809.46
00001728 00000024 1599.26 305.25 551.83 717.70 1731.63 661.10 1962.47 594.29 1869.80 757.35 1806.59 863.76 2022.50 808.67
00001729 00000025 1604.04 302.13 550.64 720.81 1738.00 660.39 1966.51 594.97 1874.80 760.71 1811.56 862.84 2027.04 808.43
00001730 00000026 1607.21 304.45 551.90 718.86 1743.64 662.59 1971.14 596.32 1881.31 765.56 1817.19 864.90 2030.91 809.75
00001731 00000027 1608.13 302.31 552.66 722.91 1747.25 664.52 1974.32 598.22 1885.56 768.02 1821.32 866.63 2031.71 811.79
00001732 00000028 1610.19 304.49 553.36 722.41 1751.14 667.94 1977.23 600.40 1890.88 772.23 1828.28 871.21 2033.26 815.74
00001733 00000029 1612.59 307.15 553.56 722.11 1754.95 670.81 1981.78 600.69 1896.91 775.52 1835.58 874.14 2037.57 816.74
00001734 00000030 1615.79 311.14 555.97 722.83 1761.15 674.25 1988.50 602.39 1905.45 783.72 1844.13 879.68 2044.10 820.48
00001735 00000031 1620.65 313.30 554.08 724.82 1770.20 679.84 1995.56 610.36 1913.72 788.10 1848.74 886.10 2045.93 829.23
00001736 00000032 1622.51 310.89 560.56 733.87 1782.76 683.92 2009.79 617.39 1929.39 792.63 1859.23 891.07 2055.21 836.38
00001737 00000033 1629.16 308.33 561.23 736.22 1792.94 684.01 2022.60 617.75 1943.89 793.28 1868.49 892.96 2065.28 838.58
00001738 00000034 1638.74 311.21 556.62 734.79 1799.72 673.21 2032.58 608.25 1952.88 794.46 1876.89 891.62 2077.52 836.52
00001739 00000035 1644.22 304.67 553.91 737.14 1804.73 660.09 2039.08 598.31 1958.22 784.85 1884.93 885.48 2085.43 832.25
00001740 00000036 1653.08 288.58 549.66 753.65 1816.66 646.70 2045.71 589.64 1967.83 764.93 1902.35 879.75 2088.56 831.87
00001741 00000037 1662.12 280.07 550.38 750.71 1828.57 627.20 2055.69 574.20 1976.11 741.50 1913.33 869.58 2089.22 826.63
00001742 00000038 1668.72 270.48 555.81 744.79 1836.17 610.91 2066.06 558.16 1989.98 721.06 1917.88 858.37 2097.10 815.93
00001743 00000039 1685.95 264.09 543.27 718.81 1844.74 592.46 2075.97 540.27 2002.00 699.47 1932.91 837.78 2108.68 794.90
00001744 00000040 1695.67 255.88 548.34 698.90 1858.21 580.25 2092.72 526.93 2019.56 687.47 1945.22 816.52 2131.65 771.51
00001745 00000041 1707.93 244.32 548.86 692.77 1867.60 567.96 2104.93 516.53 2025.71 673.45 1949.92 798.68 2141.14 755.59
00001746 00000042 1717.65 235.90 550.06 691.26 1875.86 563.00 2113.59 512.34 2032.72 664.18 1958.31 788.86 2149.40 747.38
00001747 00000043 1725.01 226.67 548.36 697.53 1885.97 561.13 2122.62 508.75 2044.32 656.11 1966.88 784.29 2158.42 743.00
00001748 00000044 1735.01 228.81 545.37 691.25 1892.56 554.96 2131.45 504.82 2052.15 648.74 1964.31 779.62 2161.22 739.69
00001749 00000045 1739.00 221.95 550.05 699.35 1900.01 551.78 2140.16 501.52 2060.34 644.92 1971.80 777.91 2168.95 737.84
00001750 00000046 1744.37 216.12 554.28 708.19 1908.17 548.29 2149.16 498.89 2068.02 643.55 1981.88 780.03 2174.89 740.38
00001751 00000047 1751.84 206.34 553.65 723.66 1920.66 544.23 2159.15 496.49 2081.22 637.89 1997.01 782.26 2184.05 743.54
00001752 00000048 1762.44 202.38 553.34 731.96 1934.84 541.37 2175.34 497.45 2094.00 638.24 2004.97 781.65 2198.54 745.20
00001753 00000049 1770.65 200.18 558.43 722.65 1940.95 538.47 2183.10 493.48 2099.99 637.47 2010.29 771.87 2210.82 734.75
00001754 00000050 1785.77 195.68 553.19 716.82 1953.48 528.30 2191.27 483.08 2109.79 628.77 2024.41 759.72 2222.58 721.61
00001755 00000051 1796.84 194.40 548.97 710.91 1962.37 520.35 2201.65 477.48 2117.78 620.89 2030.21 750.26 2229.84 713.93
00001756 00000052 1808.96 194.65 543.65 705.32 1973.49 511.74 2210.72 474.88 2126.51 611.53 2040.22 742.08 2233.01 710.40
00001757 00000053 1821.10 197.60 540.02 701.49 1983.06 512.20 2217.01 474.47 2136.30 612.62 2045.92 739.55 2238.94 707.66
00001758 00000054 1827.58 199.37 545.78 705.77 1992.59 518.47 2226.10 479.10 2146.06 614.27 2061.05 746.06 2248.92 712.89
00001759 00000055 1832.67 198.90 552.23 711.02 1999.45 521.13 2237.11 481.51 2154.46 615.70 2071.16 752.56 2258.22 718.91
00001760 00000056 1835.86 196.71 557.09 721.35 2003.36 524.70 2246.06 486.17 2159.31 623.51 2076.13 762.35 2262.71 729.73
00001761 00000057 1839.27 199.26 557.46 725.29 2007.60 530.90 2252.71 492.64 2164.59 634.98 2078.57 771.19 2266.33 739.13
00001762 00000058 1846.77 200.51 555.89 728.43 2011.90 535.34 2258.09 496.90 2168.28 638.93 2081.98 780.07 2271.77 748.55
00001763 00000059 1848.78 205.98 553.15 729.13 2014.59 538.52 2258.02 501.85 2168.94 645.54 2083.45 785.03 2269.41 755.08
00001764 00000060 1851.31 213.03 553.50 725.49 2018.57 545.14 2257.98 507.32 2169.99 657.35 2086.57 788.06 2270.11 757.48
00001765 00000061 1856.91 221.63 549.88 715.39 2021.45 549.58 2260.63 516.63 2169.36 668.28 2088.85 790.36 2271.02 761.93
00001766 00000062 1858.84 229.26 549.64 713.04 2020.99 558.87 2262.17 522.18 2171.05 680.22 2087.92 794.50 2278.71 762.96
00001767 00000063 1858.22 239.01 550.65 708.22 2021.03 564.04 2263.84 526.10 2174.10 684.44 2088.03 800.95 2280.70 768.42
00001768 00000064 1859.55 237.46 549.92 711.80 2023.43 564.15 2265.56 527.29 2175.78 684.91 2091.56 804.03 2279.68 772.48
00001769 00000065 1860.13 235.94 549.51 715.13 2024.66 563.42 2266.93 528.31 2177.03 683.72 2090.93 804.81 2279.71 774.92
00001770 00000066 1857.92 238.66 549.18 718.33 2023.79 563.00 2265.92 528.17 2176.81 684.26 2087.39 804.90 2279.58 775.22
00001771 00000067 1857.28 238.60 548.19 726.00 2022.51 560.84 2264.87 527.65 2174.88 683.54 2080.44 803.93 2279.39 775.60
00001772 00000068 1853.92 239.98 550.99 734.74 2017.52 562.07 2263.18 529.62 2170.41 685.91 2068.26 804.04 2279.80 776.21
00001773 00000069 1851.35 245.56 553.84 737.84 2012.34 567.62 2260.63 534.42 2166.20 692.26 2058.02 806.89 2281.79 778.29
00001774 00000070 1848.25 248.46 554.01 736.85 2008.12 573.81 2255.70 540.01 2161.49 699.05 2053.13 808.25 2278.12 778.86
00001775 00000071 1844.71 250.67 553.60 741.28 2006.16 579.56 2251.32 545.34 2159.78 708.57 2052.72 816.14 2273.89 785.91
00001776 00000072 1844.16 256.42 550.39 736.23 2005.95 585.40 2249.35 550.48 2159.37 715.68 2055.08 822.39 2271.24 791.79
00001777 00000073 1838.34 262.61 545.66 731.86 2001.86 589.48 2242.81 556.58 2155.71 719.33 2051.13 827.26 2260.07 798.54
00001778 00000074 1831.38 261.57 545.96 734.41 1993.97 595.88 2238.10 561.01 2150.14 726.19 2041.41 831.06 2253.04 801.58
00001779 00000075 1822.89 260.84 549.73 740.79 1986.07 600.17 2230.90 562.81 2140.90 730.19 2031.80 834.19 2246.51 803.27
00001780 00000076 1818.67 261.49 549.63 737.89 1979.65 598.17 2224.79 560.38 2133.13 727.73 2022.90 830.43 2240.75 799.49
00001781 00000077 1813.59 262.07 551.84 737.00 1972.78 600.23 2215.77 565.45 2120.59 727.16 2020.30 832.03 2235.07 802.59
00001782 00000078 1810.14 261.77 550.88 737.75 1969.21 600.16 2213.41 563.10 2118.52 726.35 2018.38 832.76 2235.28 801.27
00001783 00000079 1809.08 259.44 551.54 740.73 1968.96 597.32 2213.23 560.06 2119.62 722.37 2019.07 831.35 2235.46 799.77
00001784 00000080 1807.75 260.88 551.66 744.49 1969.58 600.54 2213.08 563.17 2119.93 728.22 2022.03 837.07 2234.08 805.14
00001785 00000081 1803.47 264.01 554.94 751.40 1970.75 604.55 2212.83 569.87 2120.99 737.88 2025.20 846.56 2230.34 816.52
00001786 00000082 1799.32 264.57 554.46 753.88 1967.24 607.59 2209.15 574.83 2116.01 743.17 2022.42 851.72 2222.33 823.46
00001787 00000083 1794.46 265.14 553.05 756.05 1963.12 610.23 2204.58 578.52 2111.82 752.05 2014.45 853.08 2217.82 825.52
00001788 00000084 1787.72 266.61 553.21 761.19 1956.15 617.64 2197.05 584.22 2104.07 758.69 2007.15 858.32 2209.79 829.84
00001789 00000085 1778.53 264.82 556.47 766.09 1947.05 621.48 2188.42 584.73 2095.18 759.96 2000.18 860.74 2203.37 830.15
00001790 00000086 1774.18 265.04 557.91 767.54 1943.60 622.63 2184.44 584.41 2091.43 760.37 1998.30 862.47 2200.43 830.81
00001791 00000087 1770.08 267.33 559.49 772.85 1941.89 623.58 2181.13 585.17 2089.12 759.18 1995.89 866.72 2196.66 835.33
00001792 00000088 1770.36 272.62 552.74 772.89 1936.98 615.75 2176.02 581.10 2080.14 745.66 1991.56 866.46 2191.03 835.80
00001793 00000089 1769.42 271.24 551.01 779.52 1933.58 616.91 2173.85 580.85 2077.94 741.64 1983.18 866.31 2193.63 834.96
00001794 00000090 1766.29 275.62 553.92 780.79 1925.74 625.09 2167.96 588.33 2067.96 739.52 1969.67 864.93 2191.61 833.47
00001795 00000091 1761.94 276.80 553.59 769.26 1912.92 629.03 2155.78 590.83 2050.21 745.17 1951.86 862.07 2181.35 830.07
00001796 00000092 1746.78 277.02 560.42 771.02 1894.56 634.67 2136.53 593.77 2027.56 751.62 1938.05 863.08 2165.16 829.79
00001797 00000093 1743.46 278.45 554.03 766.87 1875.81 636.52 2124.39 597.86 2005.70 760.06 1922.50 868.44 2150.23 836.89
00001798 00000094 1736.39 285.48 554.78 767.29 1862.62 638.37 2111.46 603.75 1984.90 766.91 1908.12 872.06 2136.33 842.96
00001799 00000095 1730.85 291.71 557.63 769.04 1850.36 641.94 2095.51 608.87 1971.24 775.71 1896.21 875.27 2122.17 848.09
00001800 00000096 1724.58 297.25 558.29 768.84 1842.35 645.95 2087.66 612.97 1962.76 782.39 1892.34 883.35 2113.24 856.66
00001801 00000097 1717.38 307.45 561.05 766.48 1835.06 653.01 2078.72 620.25 1952.73 794.24 1887.39 892.13 2106.24 865.35
00001802 00000098 1709.35 307.27 563.38 768.98 1825.83 659.53 2068.13 626.71 1939.35 799.78 1880.54 899.89 2096.22 873.89
00001803 00000099 1703.67 309.34 563.61 768.92 1820.41 663.37 2061.39 630.50 1932.50 805.64 1874.89 902.33 2089.96 876.19
00001804 00000100 1697.90 310.47 563.44 771.23 1815.03 667.83 2056.05 635.30 1926.49 810.00 1867.43 904.10 2086.90 877.91
00001805 00000101 1693.65 310.38 561.39 770.43 1809.92 669.78 2051.14 636.92 1921.45 811.69 1862.83 903.87 2083.58 877.06
00001806 00000102 1692.42 312.86 559.85 766.00 1806.94 668.76 2047.35 636.60 1916.87 811.09 1858.74 901.78 2080.67 875.32
00001807 00000103 1692.41 312.77 557.98 766.29 1805.39 670.60 2046.60 638.96 1914.96 811.76 1855.97 901.26 2079.90 875.22
00001808 00000104 1690.70 310.42 559.71 766.34 1802.67 669.25 2044.42 638.00 1911.45 807.47 1852.08 898.78 2077.70 873.44
00001809 00000105 1690.69 309.71 559.51 765.70 1801.63 666.56 2044.27 635.97 1910.21 803.92 1850.70 897.06 2076.77 872.39
00001810 00000106 1689.61 310.65 558.52 769.46 1801.20 668.74 2043.30 638.46 1908.74 807.10 1851.09 901.70 2074.28 877.38
00001811 00000107 1679.49 319.05 565.67 781.59 1796.11 676.39 2038.18 646.05 1904.02 814.54 1849.03 916.43 2066.12 892.10
00001812 00000108 1668.97 324.31 571.08 786.90 1785.55 685.34 2029.47 658.88 1892.49 827.06 1839.14 925.97 2055.61 904.39
00001813 00000109 1661.98 340.65 571.72 779.03 1778.53 696.32 2017.16 668.93 1883.20 838.72 1833.28 937.03 2046.00 914.61
00001814 00000110 1656.22 353.88 570.17 773.42 1771.33 703.83 2009.46 677.10 1874.91 849.72 1824.07 942.91 2039.22 920.32
00001815 00000111 1650.83 357.88 565.84 770.26 1762.15 708.42 2001.71 680.28 1866.05 854.06 1812.45 943.54 2035.29 919.07
00001816 00000112 1648.61 357.86 563.17 772.62 1755.20 712.09 1995.76 683.96 1857.67 860.12 1805.23 946.05 2030.41 921.30
00001817 00000113 1641.89 358.01 561.88 777.95 1745.35 717.09 1982.07 688.93 1844.46 867.97 1796.41 948.50 2023.03 922.62
00001818 00000114 1635.94 359.14 563.83 770.28 1738.70 716.52 1975.49 688.74 1836.75 865.75 1790.73 944.95 2017.15 918.84
00001819 00000115 1634.31 358.76 564.33 764.94 1736.80 713.56 1972.41 685.36 1833.61 859.04 1788.32 939.04 2014.10 912.56
00001820 00000116 1634.18 351.57 563.77 763.65 1735.40 707.02 1973.00 677.28 1831.75 848.06 1787.91 933.83 2012.47 907.13
00001821 00000117 1635.82 342.45 562.05 761.01 1734.83 693.71 1970.98 665.88 1825.43 837.48 1786.28 921.60 2010.00 896.38
00001822 00000118 1633.83 331.80 563.56 758.07 1730.67 683.54 1967.98 655.63 1820.21 826.73 1779.02 911.79 2005.90 887.45
00001823 00000119 1627.10 332.37 564.66 742.98 1719.32 675.25 1958.22 645.58 1809.41 812.38 1771.44 902.71 1993.15 877.78
00001824 00000120 1617.96 321.36 563.02 743.70 1709.05 666.91 1946.38 638.60 1795.94 802.77 1763.83 894.87 1972.34 872.43
00001825 00000121 1618.89 317.82 557.51 735.51 1704.03 656.67 1938.49 627.64 1786.73 789.31 1757.81 887.68 1962.64 865.50
00001826 00000122 1615.40 311.43 561.55 735.23 1705.16 646.57 1941.22 620.91 1787.63 771.59 1751.88 873.05 1963.28 852.24
00001827 00000123 1615.71 308.40 561.74 728.23 1706.68 637.28 1945.26 609.28 1791.36 756.29 1751.90 864.33 1966.01 842.49
00001828 00000124 1613.25 304.96 555.59 723.49 1702.05 629.76 1938.05 600.81 1784.72 743.50 1744.98 856.48 1957.11 834.38
00001829 DELETE   1600.73 303.04 549.07 718.26 1681.90 627.04 1913.28 594.12 1755.24 732.88 1726.11 849.32 1934.24 824.17
00001830 00000126 1598.34 298.61 545.08 707.72 1671.03 622.86 1891.02 588.45 1725.83 722.94 1708.04 836.39 1912.85 811.10
00001831 00000127 1591.95 298.81 544.94 696.80 1659.80 617.26 1880.71 578.58 1718.01 716.10 1701.13 837.40 1909.22 811.28
00001832 00000128 1593.77 296.22 541.17 685.10 1665.66 611.50 1887.41 573.37 1719.84 702.16 1700.78 828.69 1907.42 801.46
00001833 00000129 1598.50 291.36 536.19 681.89 1668.98 599.46 1889.83 560.04 1727.05 690.37 1710.20 815.29 1913.11 786.04
00001834 00000130 1607.05 288.47 531.54 674.70 1679.06 589.75 1900.98 549.82 1742.54 675.65 1718.38 803.54 1923.54 774.04
00001835 DELETE   1615.73 277.10 530.80 676.35 1691.42 583.66 1925.16 542.60 1771.65 659.02 1728.15 795.25 1945.16 765.59
00001836 00000132 1625.52 264.59 535.26 679.84 1712.08 584.70 1951.53 540.98 1806.36 648.64 1749.09 789.73 1971.96 757.99
00001837 DELETE   1629.31 251.16 548.65 685.54 1733.59 578.24 1981.92 532.64 1838.64 642.62 1768.84 781.66 2001.18 748.26
00001838 00000134 1651.01 241.27 549.87 689.71 1767.63 568.10 2013.28 522.80 1885.44 629.91 1809.46 775.23 2035.57 742.27
00001839 DELETE   1662.76 239.38 545.58 683.53 1790.93 554.26 2038.44 517.37 1921.14 628.04 1839.39 767.70 2060.98 740.67
00001840 00000136 1677.79 246.23 540.89 668.00 1818.80 546.89 2063.77 515.36 1954.92 621.01 1871.65 761.29 2071.64 736.27
00001841 00000137 1684.92 242.29 541.83 683.29 1834.42 545.95 2075.12 515.19 1974.92 624.13 1890.39 768.67 2083.51 743.69
00001842 00000138 1696.84 258.20 537.06 670.71 1844.30 548.01 2084.59 523.18 1985.01 632.79 1899.47 775.80 2091.33 755.64
00001843 00000139 1698.19 261.14 536.70 675.01 1851.71 557.77 2088.22 530.79 1995.54 652.32 1904.33 783.81 2099.24 760.92
00001844 00000140 1697.72 269.18 536.38 677.12 1853.46 566.40 2089.42 539.28 1998.54 667.03 1906.29 795.03 2100.18 771.64
00001845 00000141 1695.10 276.16 534.59 689.97 1852.57 578.35 2091.07 552.86 1998.68 676.22 1900.02 807.94 2098.55 786.23
00001846 00000142 1693.83 281.52 535.50 700.44 1853.00 585.44 2090.72 559.84 1999.98 689.51 1906.51 826.49 2095.31 804.35
00001847 00000143 1689.57 284.73 538.94 717.50 1852.79 596.11 2092.74 567.49 2004.96 703.57 1905.32 841.34 2101.43 816.80
00001848 00000144 1695.46 295.57 530.28 713.83 1855.69 600.69 2092.62 573.67 2003.77 708.41 1897.86 846.30 2105.38 823.97
00001849 00000145 1694.87 300.50 529.56 719.38 1854.72 605.39 2090.56 579.05 2001.71 717.34 1889.27 853.61 2107.43 831.86
00001850 00000146 1694.58 302.12 533.29 729.68 1854.04 608.10 2091.95 582.65 2000.63 723.06 1884.66 859.95 2109.97 838.97
00001851 00000147 1697.24 304.31 534.55 732.64 1855.23 608.40 2095.06 583.82 2001.24 725.65 1883.80 862.77 2111.57 842.64
00001852 00000148 1699.20 303.67 540.72 732.19 1857.47 608.71 2098.45 584.12 2002.85 727.57 1890.24 862.93 2113.55 842.58
00001853 00000149 1701.78 302.82 542.58 720.16 1862.13 610.35 2103.81 586.99 2009.19 736.27 1904.26 861.44 2113.27 841.13
00001854 00000150 1705.87 309.71 544.18 712.37 1865.17 621.01 2106.67 595.81 2009.53 747.70 1913.37 865.41 2112.89 843.33
00001855 00000151 1706.66 313.11 541.85 715.77 1861.49 627.23 2104.51 600.16 2005.61 751.54 1909.43 869.23 2111.79 846.26
00001856 00000152 1704.22 317.25 544.05 723.28 1854.12 639.24 2099.09 608.67 1997.28 761.83 1905.52 878.80 2107.51 853.53
00001857 00000153 1699.15 322.54 545.59 728.52 1843.04 649.18 2088.44 618.91 1983.02 773.94 1892.89 889.66 2096.32 865.61
00001858 00000154 1694.44 319.38 544.79 739.44 1833.13 657.07 2079.49 625.00 1969.24 783.19 1881.45 896.86 2089.63 872.42
00001859 00000155 1688.43 324.93 547.40 740.64 1822.73 664.67 2071.04 633.50 1955.42 787.99 1868.03 902.70 2082.00 879.77
00001860 00000156 1682.56 328.24 548.70 746.29 1813.76 672.68 2063.89 641.96 1943.90 792.39 1855.85 906.27 2076.49 883.82
00001861 00000157 1678.73 331.12 552.27 746.19 1804.96 676.83 2056.31 644.90 1932.99 799.90 1852.29 912.54 2071.63 888.65
00001862 00000158 1675.46 339.97 557.08 745.62 1797.41 686.11 2047.63 652.85 1921.78 807.83 1845.31 920.52 2067.71 895.46
00001863 00000159 1672.70 348.87 563.18 747.35 1789.16 694.93 2037.94 661.15 1907.59 818.70 1840.63 929.03 2061.35 902.92
00001864 00000160 1666.85 354.65 568.45 755.91 1778.98 703.37 2026.14 672.48 1890.44 832.24 1830.32 936.86 2051.71 912.56
00001865 00000161 1662.96 365.61 574.47 761.14 1774.21 712.84 2019.35 688.41 1880.99 855.84 1823.87 949.67 2044.24 929.39
00001866 00000162 1665.04 377.43 572.55 766.82 1774.50 727.04 2015.38 704.54 1874.07 870.35 1821.91 960.98 2041.44 941.81
