Video ID: 	VOxdReoQjvg
H: 	1080
W: 	1920
FPS: 	23.976023976023978

FRAME INDEX X0 Y0 W H [Landmarks (5 Points)]

00033807 00000000 869.15 66.11 384.20 516.13 1027.17 269.48 1216.79 292.37 1164.36 330.59 1051.07 447.53 1209.24 466.12
00033808 00000001 866.31 64.56 383.49 518.30 1024.14 270.67 1213.60 289.95 1160.54 330.41 1048.53 445.88 1208.00 461.14
00033809 00000002 861.42 69.37 387.27 523.58 1025.65 272.96 1199.72 289.71 1157.57 333.06 1054.99 452.75 1199.07 464.54
00033810 00000003 865.03 75.23 385.69 528.99 1032.85 280.81 1200.97 288.54 1163.44 346.92 1065.36 466.78 1201.99 471.32
00033811 00000004 860.29 76.72 388.90 541.33 1040.69 288.30 1205.97 295.32 1175.94 362.99 1074.76 483.64 1203.49 487.71
00033812 00000005 863.27 74.05 385.28 548.56 1043.55 290.57 1209.35 298.85 1179.87 367.40 1076.48 488.10 1205.31 493.51
00033813 00000006 864.97 72.24 388.22 547.57 1050.95 285.65 1212.41 291.69 1193.36 351.36 1086.47 482.03 1216.91 485.79
00033814 00000007 867.94 71.99 387.10 538.32 1052.80 277.75 1212.76 289.42 1193.92 332.30 1089.42 469.29 1219.32 477.36
00033815 00000008 865.58 66.05 388.39 543.63 1053.66 270.35 1215.76 294.25 1196.55 324.31 1084.76 461.28 1217.58 479.45
00033816 00000009 862.72 65.49 390.18 545.25 1052.32 267.04 1218.91 298.87 1196.84 327.21 1077.88 459.19 1214.32 483.96
00033817 00000010 866.12 75.25 384.33 539.01 1055.01 274.22 1217.97 300.21 1193.24 346.64 1076.00 469.31 1208.41 489.65
00033818 00000011 869.47 72.85 385.35 552.60 1058.08 286.30 1226.52 309.58 1198.22 368.71 1075.57 482.74 1214.87 501.33
00033819 00000012 873.90 72.86 384.47 553.01 1060.36 286.08 1228.66 309.23 1201.75 365.21 1079.07 482.56 1218.80 501.19
00033820 00000013 874.47 72.47 382.22 550.88 1063.88 280.27 1224.72 299.03 1206.11 349.17 1088.37 477.61 1221.40 492.48
00033821 00000014 869.91 71.44 384.97 545.01 1063.10 273.90 1220.72 294.02 1203.98 339.88 1092.63 471.74 1219.84 486.95
00033822 00000015 870.71 70.06 383.05 541.37 1063.14 273.36 1218.44 293.58 1200.59 340.91 1092.71 469.44 1216.89 484.63
00033823 00000016 870.32 69.34 383.06 541.27 1061.64 275.53 1218.34 295.43 1199.38 345.62 1090.51 471.05 1215.92 486.22
00033824 00000017 870.67 71.25 382.78 540.05 1059.26 280.67 1220.40 301.11 1194.88 357.99 1083.50 476.70 1211.15 492.78
00033825 00000018 876.85 71.70 380.20 548.34 1064.76 288.00 1223.80 304.64 1199.91 370.50 1086.63 485.57 1215.39 499.34
00033826 00000019 880.52 76.57 379.44 561.15 1067.08 296.32 1229.88 315.84 1200.50 384.14 1081.81 495.85 1216.87 511.99
00033827 00000020 883.15 78.37 382.18 567.05 1073.77 305.36 1233.41 326.83 1202.64 399.71 1083.00 507.37 1214.34 525.26
00033828 00000021 885.55 89.77 385.80 569.98 1077.02 315.44 1239.85 332.82 1205.81 420.97 1080.57 521.11 1214.97 535.85
00033829 DELETE   878.59 106.67 393.02 570.79 1078.99 327.55 1236.64 346.73 1202.63 447.29 1081.10 530.81 1214.10 547.19
00033830 00000023 878.05 113.80 397.34 576.01 1083.20 336.12 1239.49 355.65 1205.31 459.65 1083.42 543.03 1211.89 560.12
00033831 00000024 885.33 116.11 393.63 579.53 1091.04 337.69 1239.07 353.27 1210.80 458.18 1100.26 544.53 1218.65 557.40
00033832 00000025 895.37 109.74 389.72 579.18 1093.41 332.48 1241.65 347.16 1213.80 448.34 1108.19 538.40 1227.89 549.78
00033833 00000026 894.13 102.99 390.35 579.93 1091.63 328.25 1242.66 343.05 1212.16 440.77 1110.47 536.21 1228.53 547.39
00033834 00000027 895.34 102.72 389.72 583.16 1093.26 328.59 1241.05 343.64 1211.91 440.49 1109.71 535.71 1227.20 547.16
00033835 00000028 895.35 104.19 388.48 589.83 1094.66 330.14 1238.87 344.97 1213.88 444.79 1105.49 537.71 1224.40 549.37
00033836 00000029 894.02 104.80 389.21 594.99 1094.12 330.25 1240.71 346.75 1217.61 448.01 1100.45 539.57 1223.46 552.64
00033837 00000030 894.96 106.42 391.87 588.78 1096.02 325.59 1249.49 347.02 1221.82 455.35 1096.10 535.11 1230.77 554.34
00033838 00000031 896.29 107.40 391.67 585.28 1096.74 326.23 1251.52 347.32 1221.91 457.26 1096.18 535.76 1231.36 554.92
00033839 00000032 897.65 108.36 390.44 586.16 1095.53 331.33 1245.90 347.43 1218.50 448.74 1098.82 537.67 1224.11 550.67
00033840 00000033 897.77 108.50 390.67 583.90 1095.00 332.11 1246.22 347.65 1218.52 449.20 1099.04 536.45 1226.15 549.03
00033841 00000034 897.17 108.45 390.59 583.80 1093.75 332.66 1245.10 347.31 1216.89 449.92 1098.50 536.89 1225.64 548.76
00033842 00000035 897.30 109.06 389.01 583.34 1092.58 332.76 1243.93 347.49 1215.64 449.68 1097.83 536.93 1224.76 548.86
00033843 00000036 894.63 110.97 390.77 581.46 1091.16 334.26 1243.47 348.35 1214.00 451.51 1098.10 538.79 1224.52 550.21
00033844 00000037 895.27 114.74 389.66 578.21 1091.97 335.06 1243.55 348.86 1214.23 452.04 1099.01 538.81 1224.71 549.96
00033845 00000038 892.03 116.02 391.20 580.08 1090.74 336.21 1242.25 350.42 1212.72 455.75 1098.79 542.54 1223.32 554.00
00033846 00000039 892.71 115.24 389.55 584.88 1091.76 339.31 1239.95 352.58 1211.97 458.98 1101.08 544.54 1223.31 554.88
00033847 00000040 894.06 110.54 388.63 592.35 1091.61 338.06 1238.36 350.77 1210.42 457.74 1104.96 547.58 1224.26 557.25
00033848 00000041 895.27 101.32 387.33 597.33 1089.54 331.27 1234.44 342.77 1206.43 452.28 1105.40 545.50 1222.70 554.08
00033849 00000042 891.29 90.85 387.77 602.43 1085.19 322.69 1232.18 338.15 1203.17 435.69 1101.49 536.45 1218.30 548.02
00033850 00000043 888.53 81.20 390.11 597.29 1073.66 317.40 1234.76 327.93 1198.91 417.66 1087.93 532.97 1217.28 541.48
00033851 DELETE   874.53 75.22 392.45 587.53 1054.55 312.69 1218.29 321.33 1182.32 409.57 1073.42 520.30 1204.78 527.37
00033852 DELETE   857.08 72.25 400.18 588.03 1027.19 309.16 1193.89 320.74 1146.88 410.23 1048.96 512.22 1181.42 520.34
00033853 00000046 848.22 77.58 398.89 589.55 1004.64 310.08 1170.62 321.11 1115.47 413.87 1025.60 515.44 1156.91 522.59
00033854 00000047 838.45 72.68 400.33 611.42 989.14 316.34 1153.23 326.45 1091.27 433.10 1006.32 535.91 1132.02 543.05
00033855 00000048 831.08 80.91 400.72 629.46 973.01 319.40 1139.75 333.71 1067.08 447.51 978.44 548.92 1115.05 560.08
00033856 00000049 831.78 82.00 400.44 640.82 978.90 317.60 1143.62 337.31 1071.58 444.98 976.09 550.31 1117.42 565.79
00033857 DELETE   831.40 72.43 404.34 633.06 991.98 310.53 1154.13 329.43 1096.77 430.81 991.48 535.34 1132.33 550.04
00033858 00000051 834.28 66.91 403.39 614.43 998.11 303.30 1167.64 317.59 1116.70 408.68 1010.16 514.58 1155.24 524.51
00033859 00000052 836.81 63.11 403.37 601.89 1009.27 293.35 1176.26 309.07 1131.70 396.96 1025.49 500.77 1163.84 511.97
00033860 00000053 837.78 64.40 400.96 592.28 1014.36 293.70 1179.00 308.32 1135.81 396.83 1034.41 499.66 1165.35 510.03
00033861 00000054 839.31 72.98 397.01 585.07 1016.09 304.24 1177.45 320.61 1131.40 409.33 1036.09 508.86 1159.91 520.87
00033862 00000055 839.61 80.19 395.09 587.94 1011.90 321.41 1172.59 335.42 1123.59 428.39 1031.92 525.31 1154.42 535.76
00033863 00000056 836.79 90.84 392.43 587.73 1006.22 343.37 1162.88 353.56 1113.12 454.46 1027.09 543.62 1146.76 551.28
00033864 00000057 831.83 97.27 395.25 591.24 1000.85 348.83 1156.93 357.12 1106.41 460.67 1019.31 551.10 1139.71 557.69
00033865 00000058 829.38 88.98 395.05 614.53 998.25 338.76 1151.00 352.53 1101.44 456.44 1008.98 551.15 1131.29 562.14
00033866 00000059 827.13 79.28 398.34 621.27 993.54 324.67 1149.95 340.58 1098.51 441.71 1006.46 544.06 1130.78 556.79
00033867 00000060 828.86 76.96 396.28 603.12 991.79 318.96 1152.51 332.91 1100.82 425.34 1006.45 530.19 1134.47 541.44
00033868 00000061 829.49 72.79 397.31 595.53 990.00 313.34 1158.88 327.83 1106.59 415.51 1004.23 516.58 1143.31 528.25
00033869 00000062 833.82 69.49 395.61 592.39 995.21 302.50 1167.70 321.18 1116.17 405.74 1010.95 507.22 1153.09 521.53
00033870 00000063 836.39 68.53 396.31 591.27 1006.15 299.30 1170.58 314.12 1127.05 402.28 1029.58 506.57 1158.14 517.22
00033871 00000064 841.78 70.01 394.55 580.57 1015.56 296.65 1181.03 310.11 1139.09 395.62 1041.99 502.70 1167.92 512.39
00033872 00000065 847.20 70.77 393.27 570.80 1023.82 293.56 1188.97 307.00 1148.21 391.14 1051.05 496.22 1177.72 505.82
00033873 00000066 849.82 71.28 391.51 566.04 1029.30 292.48 1192.72 307.91 1152.96 389.83 1054.79 495.73 1178.20 507.23
00033874 00000067 855.88 72.21 385.63 557.50 1031.15 289.83 1202.39 308.81 1159.64 389.94 1048.85 491.63 1184.10 506.86
00033875 00000068 857.25 72.51 384.29 555.92 1033.16 287.55 1205.28 309.18 1163.03 389.47 1046.53 489.00 1185.63 506.89
00033876 00000069 856.86 75.32 385.94 549.47 1036.32 283.49 1209.63 307.48 1167.37 381.89 1048.00 484.90 1187.95 504.44
00033877 00000070 860.88 74.75 383.31 540.46 1035.93 281.39 1208.94 300.40 1166.44 371.36 1057.36 478.19 1193.73 492.55
00033878 00000071 864.45 74.67 380.30 539.43 1041.67 276.54 1207.72 299.65 1169.48 362.01 1062.93 471.70 1193.56 489.10
00033879 00000072 865.92 70.69 380.55 543.74 1047.36 276.24 1203.57 293.78 1174.56 357.65 1074.29 472.46 1195.91 485.44
00033880 00000073 868.86 66.38 383.81 562.42 1054.78 269.35 1209.95 289.54 1185.25 347.94 1080.34 475.47 1204.82 490.55
00033881 00000074 874.73 64.12 384.15 574.52 1062.69 262.43 1216.83 288.18 1194.81 339.28 1084.92 475.67 1211.00 495.72
00033882 00000075 875.18 62.26 386.68 579.53 1065.63 257.26 1221.75 285.96 1199.09 332.94 1085.67 475.15 1213.89 497.69
00033883 00000076 878.13 62.10 385.46 577.19 1069.00 256.91 1225.23 288.24 1202.85 329.92 1088.19 471.84 1217.44 496.45
00033884 00000077 883.35 57.86 382.32 567.48 1074.59 258.68 1230.17 289.60 1207.20 330.92 1094.29 465.05 1220.27 489.21
00033885 00000078 874.20 59.00 392.39 553.91 1067.61 263.39 1230.70 289.12 1199.31 336.10 1093.31 449.44 1229.12 470.53
00033886 00000079 877.48 62.34 391.16 545.31 1068.96 265.95 1234.74 292.58 1202.52 338.20 1092.74 448.33 1231.52 470.43
00033887 00000080 880.43 63.66 389.81 543.51 1069.50 271.33 1236.95 298.54 1203.53 348.12 1092.82 455.49 1230.93 478.09
00033888 00000081 881.10 69.09 391.29 541.82 1068.44 276.51 1238.48 302.27 1203.10 355.88 1094.45 463.59 1232.12 484.89
00033889 00000082 878.47 79.85 397.68 542.63 1077.89 285.36 1239.86 316.42 1206.15 370.35 1097.96 473.70 1227.76 498.05
00033890 00000083 884.19 74.70 395.76 556.30 1080.27 293.29 1239.48 321.43 1203.28 381.24 1095.01 478.30 1222.44 500.83
00033891 00000084 891.93 74.72 390.51 567.44 1080.61 303.04 1240.39 326.86 1201.73 393.14 1098.46 492.95 1221.49 511.60
00033892 00000085 896.91 80.38 392.29 592.83 1083.98 310.22 1240.84 333.42 1200.70 411.46 1101.78 519.27 1218.24 537.23
00033893 00000086 902.23 82.06 391.33 598.59 1091.43 312.29 1244.79 335.30 1208.22 413.97 1108.63 522.51 1226.79 539.69
00033894 00000087 906.96 84.17 391.39 591.77 1100.93 311.79 1252.62 337.01 1219.64 409.35 1115.58 514.71 1238.17 533.46
00033895 00000088 910.75 83.70 390.75 585.50 1103.31 309.85 1258.15 334.33 1223.90 406.96 1118.18 512.43 1241.33 530.99
00033896 00000089 911.43 83.54 392.22 585.70 1104.15 311.76 1258.34 337.00 1222.48 409.25 1117.99 513.25 1240.49 532.63
00033897 00000090 913.58 85.30 391.02 584.44 1105.27 311.71 1257.65 337.37 1221.71 410.03 1117.14 514.81 1237.03 534.84
00033898 00000091 916.73 85.09 390.80 591.42 1108.07 313.45 1260.41 340.62 1225.37 412.81 1117.24 519.67 1238.34 541.34
00033899 00000092 919.94 85.82 389.85 596.10 1111.35 316.63 1263.92 340.75 1229.58 419.26 1120.35 524.49 1243.39 543.69
00033900 00000093 921.51 88.33 388.66 596.42 1112.10 318.78 1264.63 342.49 1228.43 424.04 1120.53 527.57 1242.28 546.24
00033901 00000094 922.62 94.21 388.92 594.00 1111.36 321.25 1269.08 344.16 1228.54 431.50 1121.11 533.38 1244.79 551.20
00033902 00000095 927.30 97.30 388.32 597.91 1111.69 328.20 1274.07 351.33 1231.69 439.73 1120.91 540.24 1251.04 558.38
00033903 00000096 924.84 107.75 391.89 600.16 1110.02 338.39 1275.40 359.54 1230.31 453.91 1116.31 550.36 1252.27 566.83
00033904 00000097 921.34 128.55 397.93 585.73 1109.56 344.76 1276.46 368.76 1229.20 473.34 1115.20 563.18 1242.68 582.04
00033905 00000098 916.59 134.31 399.96 593.46 1103.20 358.09 1267.84 376.96 1219.40 489.86 1109.32 579.14 1232.65 593.59
00033906 00000099 911.53 133.37 399.58 600.38 1090.18 365.79 1258.91 384.57 1207.18 494.18 1096.59 583.18 1227.43 597.51
00033907 00000100 896.54 132.86 406.45 599.50 1068.70 364.89 1240.89 378.67 1182.40 488.58 1074.40 579.14 1211.89 591.15
00033908 DELETE   882.41 138.65 401.17 587.57 1032.22 361.21 1207.69 373.32 1145.28 482.09 1042.78 578.34 1186.10 587.56
00033909 DELETE   864.40 135.75 401.26 595.97 992.84 356.04 1173.79 371.61 1089.51 483.77 996.37 575.43 1147.90 586.78
00033910 00000103 856.65 126.87 401.76 604.68 976.45 354.13 1158.24 374.49 1068.24 485.17 976.45 571.85 1127.82 587.38
00033911 DELETE   860.05 118.98 402.11 610.88 981.08 352.24 1161.61 369.93 1074.46 484.67 985.01 572.38 1131.30 585.45
00033912 00000105 861.84 107.17 400.85 611.31 993.42 343.41 1161.83 361.95 1080.00 472.43 998.21 566.79 1130.30 582.05
00033913 00000106 864.23 93.90 401.43 596.40 1000.12 330.38 1165.53 343.11 1088.47 452.39 1009.50 546.44 1140.53 556.15
00033914 00000107 866.73 91.68 406.31 581.26 1009.10 322.14 1179.04 334.05 1108.27 436.28 1023.56 530.69 1156.73 539.65
00033915 00000108 872.92 95.41 400.34 567.68 1022.69 324.04 1196.51 334.45 1134.06 432.60 1041.86 527.02 1178.63 534.83
00033916 00000109 879.19 94.33 398.49 570.09 1040.31 320.84 1215.90 335.23 1158.12 430.09 1054.76 525.37 1196.27 536.00
00033917 00000110 890.98 85.35 397.22 588.37 1061.68 316.58 1235.31 330.45 1181.03 422.98 1068.71 523.67 1215.17 534.67
00033918 DELETE   895.45 70.07 404.37 617.19 1083.79 292.90 1242.81 326.30 1200.59 405.20 1072.90 504.27 1213.59 530.76
00033919 DELETE   905.77 74.92 397.45 605.84 1092.43 281.54 1252.77 317.76 1214.39 390.59 1083.12 499.66 1222.84 528.95
00033920 00000113 913.55 74.52 396.77 593.10 1102.16 276.61 1265.62 316.30 1228.70 379.11 1095.33 492.23 1234.23 524.37
00033921 00000114 924.74 78.03 396.68 584.69 1120.26 285.08 1279.19 320.93 1242.07 385.34 1118.44 492.63 1252.27 521.38
00033922 00000115 935.79 81.12 394.94 596.59 1136.53 306.83 1296.11 341.77 1256.89 412.97 1132.58 513.04 1265.37 541.14
00033923 00000116 943.41 103.31 392.75 593.01 1144.66 325.70 1307.12 353.41 1267.29 439.20 1141.53 540.68 1273.57 562.63
00033924 00000117 947.76 119.36 391.54 588.15 1153.35 335.35 1312.76 363.65 1273.56 456.40 1150.31 556.43 1275.78 578.05
00033925 00000118 955.40 121.70 387.57 589.60 1157.01 344.58 1312.03 368.28 1279.43 463.59 1158.51 566.24 1280.18 585.03
00033926 00000119 952.43 111.63 389.18 595.58 1156.59 329.91 1316.58 354.08 1283.89 445.38 1158.93 552.76 1286.62 570.79
00033927 00000120 950.18 96.90 391.13 590.71 1154.86 320.39 1316.41 345.53 1283.60 429.84 1155.79 535.77 1286.10 555.73
00033928 00000121 948.78 86.87 390.97 591.85 1151.62 315.20 1314.08 342.72 1279.81 420.10 1150.66 523.89 1285.64 545.85
00033929 00000122 947.43 87.60 391.67 592.13 1150.64 315.77 1310.56 342.98 1276.36 422.33 1149.49 524.42 1282.67 546.12
00033930 00000123 944.80 103.18 392.56 590.46 1149.18 322.02 1307.28 347.94 1271.73 435.08 1145.35 536.83 1274.52 557.27
00033931 00000124 942.46 122.26 394.96 591.74 1142.73 335.43 1299.53 361.44 1265.15 458.65 1136.48 553.53 1265.89 574.99
00033932 00000125 943.71 136.95 398.76 592.58 1140.04 342.69 1296.30 369.12 1259.24 466.40 1124.75 559.28 1264.87 581.92
00033933 00000126 947.05 128.95 396.04 590.86 1141.51 335.48 1302.12 363.14 1264.07 458.76 1126.44 552.70 1266.65 576.40
00033934 00000127 948.65 110.13 390.84 589.45 1149.03 323.50 1307.15 351.70 1270.88 436.76 1139.49 538.38 1272.42 561.37
00033935 00000128 947.73 93.14 390.02 580.40 1145.90 314.37 1304.70 340.86 1266.47 422.72 1146.09 523.69 1274.53 545.06
00033936 00000129 943.80 88.32 386.98 575.05 1138.15 311.53 1298.39 335.44 1260.61 418.36 1145.55 519.91 1271.54 539.34
00033937 00000130 939.45 88.44 387.29 580.05 1130.35 316.43 1285.61 336.21 1246.09 425.22 1143.85 527.52 1259.90 543.34
00033938 00000131 935.18 110.92 384.57 578.34 1122.77 329.47 1284.00 349.40 1238.33 446.32 1137.07 545.48 1258.52 560.75
00033939 00000132 932.36 122.09 386.06 582.26 1122.15 346.33 1281.84 363.59 1245.25 467.84 1138.74 564.26 1253.97 577.55
00033940 00000133 933.04 127.29 389.55 585.37 1123.09 345.39 1282.92 358.96 1250.98 464.13 1134.42 563.42 1260.59 573.98
00033941 00000134 935.49 121.68 386.51 573.41 1128.18 332.70 1287.57 349.63 1259.56 451.02 1130.68 544.02 1263.38 558.46
00033942 00000135 934.65 106.04 383.71 583.12 1131.28 326.48 1286.05 345.94 1256.18 433.01 1137.38 533.96 1267.36 549.89
00033943 00000136 932.14 103.36 384.17 583.34 1130.17 328.84 1283.11 345.81 1255.13 434.55 1140.88 534.67 1266.95 548.16
00033944 00000137 926.98 113.95 383.76 580.40 1121.79 338.50 1278.16 353.94 1246.10 447.67 1139.95 549.51 1261.13 561.27
00033945 00000138 923.03 129.77 389.35 581.80 1118.73 348.80 1273.54 359.54 1244.63 463.52 1143.77 569.12 1252.92 576.58
00033946 00000139 920.25 138.82 390.25 589.33 1119.71 359.56 1272.26 374.23 1244.62 477.74 1141.57 581.94 1250.84 592.97
00033947 00000140 922.88 141.94 390.08 596.12 1121.24 366.36 1275.75 379.82 1249.01 483.94 1143.64 590.15 1256.45 600.21
00033948 00000141 923.47 143.18 390.60 596.56 1121.49 368.16 1278.66 383.79 1249.95 486.47 1140.32 590.21 1256.85 602.09
00033949 00000142 921.35 148.71 392.95 594.13 1117.98 365.65 1274.46 382.94 1244.54 486.21 1127.86 585.03 1250.83 598.52
00033950 00000143 919.20 147.94 394.32 589.94 1116.40 362.07 1275.57 381.21 1245.78 484.63 1115.55 579.78 1246.05 595.63
00033951 00000144 917.06 149.33 395.51 585.76 1113.09 359.07 1273.68 378.35 1242.86 484.43 1106.53 575.34 1241.41 591.81
00033952 00000145 916.70 147.55 394.97 585.71 1111.71 358.36 1273.27 378.84 1240.73 484.33 1104.87 573.90 1239.83 591.42
00033953 00000146 915.72 148.13 395.49 586.24 1110.91 358.73 1272.39 379.37 1239.80 484.21 1104.00 574.01 1239.33 591.56
00033954 00000147 914.36 146.76 397.02 588.65 1110.20 359.53 1271.98 378.97 1238.69 484.34 1105.62 575.64 1239.93 591.74
00033955 00000148 914.11 142.17 395.97 591.23 1110.41 358.29 1268.80 375.72 1234.53 481.00 1119.08 577.99 1241.63 591.14
00033956 00000149 916.33 134.19 391.40 594.19 1107.87 350.06 1263.50 364.88 1230.47 467.68 1126.64 571.66 1245.32 582.05
00033957 00000150 914.13 113.84 391.68 605.21 1107.47 334.22 1260.79 348.39 1232.71 441.09 1131.03 556.29 1246.66 566.41
00033958 00000151 907.27 102.48 389.63 602.39 1098.78 321.96 1251.12 337.22 1227.63 416.57 1134.08 541.68 1245.80 552.86
00033959 00000152 893.94 84.21 385.30 614.89 1092.88 315.12 1233.63 328.66 1221.42 400.98 1124.55 532.41 1238.37 542.24
00033960 00000153 896.94 85.89 381.60 609.04 1086.02 318.43 1234.46 330.41 1219.67 390.82 1111.21 532.24 1241.46 541.76
00033961 00000154 886.06 80.72 385.41 611.04 1073.25 310.60 1227.23 323.29 1211.05 381.93 1099.73 525.47 1236.68 535.19
00033962 00000155 878.93 84.59 385.95 605.18 1067.86 311.41 1223.12 327.71 1203.56 381.40 1090.90 521.75 1230.08 533.96
00033963 00000156 873.30 83.22 387.34 607.06 1061.79 306.35 1218.90 321.39 1198.99 378.96 1084.59 519.12 1227.08 530.60
00033964 00000157 866.74 79.47 389.77 609.83 1051.44 294.82 1213.68 308.67 1189.87 376.30 1078.55 516.27 1220.08 526.91
00033965 00000158 859.86 76.18 394.45 614.36 1046.17 292.78 1209.93 303.46 1183.90 379.37 1073.95 516.08 1215.44 523.63
00033966 00000159 856.87 78.13 395.93 609.29 1041.64 290.63 1205.30 298.38 1178.56 377.30 1072.63 514.40 1212.13 519.26
00033967 00000160 856.89 75.44 393.87 609.39 1039.74 290.61 1203.51 296.36 1175.66 377.56 1074.39 515.98 1210.63 519.01
00033968 00000161 855.37 74.67 395.46 611.27 1040.11 290.12 1202.78 295.49 1176.11 378.15 1075.82 517.95 1210.40 520.60
00033969 00000162 854.41 72.89 396.44 611.62 1041.47 290.03 1202.18 294.24 1178.06 377.34 1079.28 518.07 1211.85 519.80
00033970 00000163 855.19 71.80 395.52 610.93 1043.50 291.16 1201.54 293.21 1179.46 377.38 1082.75 518.09 1213.16 518.02
00033971 00000164 855.78 73.94 396.87 603.42 1044.25 291.03 1202.05 291.28 1181.78 375.60 1085.22 515.13 1215.21 513.80
