Video ID: 	L5W_MGGS3k8
H: 	1080
W: 	1920
FPS: 	25.0

FRAME INDEX X0 Y0 W H [Landmarks (5 Points)]

00020522 00000000 921.35 75.06 373.60 532.40 964.12 274.54 1134.00 274.45 996.53 358.56 971.98 483.84 1093.76 483.86
00020523 00000001 924.52 68.18 373.37 532.12 966.44 274.58 1136.88 272.46 998.29 353.18 974.11 480.39 1096.45 478.85
00020524 00000002 923.41 68.92 372.74 528.05 965.42 272.50 1134.05 270.21 996.99 349.92 970.99 478.84 1090.36 477.30
00020525 00000003 926.21 67.98 370.79 527.34 967.98 271.30 1136.17 269.23 999.52 348.31 972.10 478.44 1091.22 477.18
00020526 00000004 929.71 66.30 371.14 530.47 972.22 268.36 1142.19 267.81 1006.06 350.40 978.27 477.06 1099.11 476.97
00020527 00000005 931.67 71.10 371.38 530.36 974.12 267.59 1145.72 267.71 1009.06 353.17 980.38 478.89 1103.96 479.33
00020528 00000006 932.10 73.17 371.86 532.38 974.76 269.80 1145.89 272.75 1010.17 358.76 979.32 480.88 1103.44 483.66
00020529 00000007 934.05 75.31 371.58 534.00 977.40 271.17 1149.12 276.75 1012.60 361.88 979.86 483.69 1104.88 488.58
00020530 00000008 936.84 75.71 369.17 534.33 984.80 271.02 1157.39 278.53 1023.94 365.52 987.95 484.50 1115.10 490.92
00020531 00000009 943.87 82.94 370.98 526.70 994.88 277.61 1162.48 279.47 1034.63 368.73 1001.09 482.24 1134.74 485.42
00020532 00000010 946.44 86.06 374.93 527.72 1002.79 276.88 1175.73 279.98 1048.33 370.09 1010.13 486.36 1143.47 490.57
00020533 00000011 946.55 87.90 376.00 529.04 1004.92 274.87 1179.45 276.46 1053.19 368.96 1014.91 488.38 1143.56 491.36
00020534 00000012 943.58 86.52 374.16 531.71 1002.77 269.52 1175.79 271.84 1052.18 359.98 1011.14 482.04 1141.77 486.06
00020535 DELETE   936.60 74.34 376.05 530.03 997.56 264.05 1172.21 265.47 1049.28 353.41 1007.30 473.88 1141.65 476.14
00020536 DELETE   922.89 68.45 378.75 525.59 990.08 257.37 1169.76 256.05 1047.05 346.89 1004.72 467.80 1141.45 467.44
00020537 00000015 914.70 61.19 381.29 529.03 981.08 251.74 1162.87 249.52 1041.51 341.22 1005.54 467.05 1134.92 464.81
00020538 00000016 906.96 59.57 383.04 525.91 972.82 250.62 1155.28 245.41 1036.86 337.58 1002.03 465.46 1130.19 461.19
00020539 00000017 905.19 55.14 382.75 525.43 971.75 249.74 1150.70 242.87 1033.79 332.84 1001.63 461.33 1126.99 455.99
00020540 DELETE   908.37 53.44 384.95 527.56 976.88 245.94 1154.66 240.71 1036.66 330.22 1004.41 457.81 1130.38 453.60
00020541 00000019 919.86 49.98 379.59 530.61 988.42 246.86 1166.69 239.44 1049.31 330.65 1007.77 454.30 1146.45 449.74
00020542 00000020 926.85 50.05 385.68 533.20 997.01 245.53 1178.04 241.39 1056.07 331.13 1013.08 452.28 1157.90 450.56
00020543 DELETE   936.20 51.78 386.36 534.19 1006.35 248.12 1183.76 243.13 1063.75 335.93 1022.62 453.18 1165.75 451.14
00020544 00000022 939.43 52.15 390.13 534.06 1012.61 251.79 1191.33 245.36 1070.60 337.96 1027.65 453.70 1172.16 450.40
00020545 00000023 942.01 56.56 388.87 529.65 1012.39 256.18 1193.12 250.24 1068.88 343.66 1027.37 456.85 1172.73 453.90
00020546 00000024 940.67 60.26 387.38 525.90 1011.19 258.98 1191.55 254.12 1068.81 347.03 1026.04 460.93 1168.11 458.89
00020547 00000025 938.24 64.69 384.64 522.62 1010.49 260.74 1188.61 257.84 1069.09 347.84 1024.55 463.21 1161.79 462.65
00020548 00000026 934.90 70.44 381.05 519.32 1005.34 260.45 1183.66 259.19 1064.56 349.04 1019.00 465.78 1155.03 466.36
00020549 00000027 931.50 68.34 385.15 519.14 997.51 260.43 1175.27 258.23 1055.94 354.66 1014.54 465.27 1149.59 463.33
00020550 00000028 931.05 67.70 382.90 526.12 996.13 256.48 1177.71 258.38 1054.71 346.97 1016.36 469.58 1142.96 470.85
00020551 00000029 929.70 65.04 380.70 526.48 992.87 253.46 1175.78 255.82 1049.82 345.20 1012.61 468.79 1139.91 470.38
00020552 00000030 924.46 66.44 378.54 519.50 989.54 256.51 1170.72 252.70 1048.58 345.76 1005.24 464.29 1140.97 461.98
00020553 00000031 921.76 68.30 380.20 518.73 987.44 255.23 1168.28 250.80 1047.70 345.48 1004.27 463.94 1138.09 461.04
00020554 00000032 925.46 66.95 380.78 520.86 983.59 252.37 1170.49 253.28 1045.05 349.34 1005.41 467.90 1134.26 468.28
00020555 00000033 924.64 66.35 380.24 520.21 981.92 252.58 1167.83 252.98 1042.19 350.02 1003.51 468.42 1132.45 468.39
00020556 00000034 925.66 65.20 379.89 520.85 982.57 252.64 1167.68 253.53 1040.28 350.30 1002.99 468.00 1132.44 468.47
00020557 00000035 926.06 67.55 380.28 518.62 982.07 252.11 1167.47 253.57 1039.00 350.51 1002.17 468.74 1132.42 469.63
00020558 00000036 926.72 66.52 379.45 519.33 981.49 252.46 1166.87 254.23 1037.22 351.00 1000.96 469.32 1131.33 470.43
00020559 00000037 927.71 67.99 379.14 518.60 981.97 252.75 1166.38 255.46 1036.97 351.99 1000.41 469.81 1130.95 471.69
00020560 00000038 928.33 69.94 378.30 517.62 982.46 252.47 1167.48 255.52 1037.94 353.07 1000.48 470.73 1132.51 472.89
00020561 00000039 929.65 70.14 379.04 518.75 983.80 251.84 1169.36 255.54 1039.56 355.07 1001.09 471.31 1135.36 473.97
00020562 00000040 931.48 67.60 380.37 525.34 989.47 253.68 1168.82 258.34 1039.38 352.93 1006.80 472.09 1136.57 475.23
00020563 00000041 931.47 68.99 380.65 524.46 990.50 254.90 1170.27 259.47 1042.28 353.23 1007.51 472.80 1138.09 475.97
00020564 00000042 931.23 67.87 380.72 526.02 990.14 255.04 1170.13 259.32 1041.68 353.40 1007.42 473.25 1137.78 476.17
00020565 00000043 931.05 69.42 380.15 524.98 988.68 254.95 1168.06 259.43 1039.76 355.06 1006.29 474.13 1135.87 477.18
00020566 00000044 930.96 72.43 379.18 524.08 987.59 255.04 1166.28 260.49 1037.47 355.87 1004.95 474.20 1134.68 477.89
00020567 00000045 930.43 71.84 379.87 528.55 988.14 254.76 1165.69 260.98 1037.57 356.19 1004.72 474.60 1133.19 479.20
00020568 00000046 929.73 72.44 379.03 528.99 987.66 255.67 1165.61 262.40 1038.35 356.92 1003.81 475.81 1131.49 480.94
00020569 00000047 930.24 74.43 378.21 526.28 986.99 255.18 1165.35 262.13 1037.95 357.08 1002.38 475.26 1131.44 480.54
00020570 00000048 930.38 74.80 378.34 530.20 986.87 254.81 1166.41 261.35 1038.46 357.43 1001.85 476.46 1134.84 481.38
00020571 00000049 930.43 73.78 377.24 533.15 986.88 254.70 1166.22 260.96 1038.72 357.87 1003.33 477.75 1135.65 482.46
00020572 00000050 930.15 74.90 373.84 529.55 985.23 254.40 1167.73 259.60 1039.69 360.42 999.09 476.31 1135.73 480.21
00020573 00000051 929.68 73.43 379.32 531.02 986.47 254.71 1164.62 260.07 1037.34 356.45 1002.15 475.53 1135.24 479.64
00020574 00000052 929.49 73.82 374.82 528.62 984.56 254.40 1167.42 259.79 1038.48 360.98 998.86 474.39 1136.43 478.43
00020575 00000053 929.25 73.88 375.00 528.19 982.98 255.20 1167.07 260.19 1037.41 360.91 997.34 474.38 1135.96 478.03
00020576 00000054 928.43 72.79 376.02 529.00 982.55 255.65 1167.30 260.92 1036.30 361.89 997.10 474.06 1136.22 477.90
00020577 00000055 929.37 70.85 377.70 530.96 986.04 257.04 1164.73 262.91 1036.47 359.49 1003.28 475.89 1136.05 480.08
00020578 00000056 929.20 71.64 377.49 528.10 985.97 256.57 1164.38 262.69 1036.68 358.61 1003.38 475.44 1133.12 479.92
00020579 00000057 929.74 71.87 377.88 527.43 986.89 255.76 1165.49 262.77 1037.01 358.96 1003.44 475.23 1132.87 480.47
00020580 00000058 930.01 72.27 377.62 527.41 988.10 256.32 1166.89 264.28 1038.62 359.64 1004.44 475.52 1132.94 481.51
00020581 00000059 930.27 73.17 377.70 527.20 987.71 256.42 1167.11 264.01 1038.76 359.60 1004.40 476.59 1133.12 482.26
00020582 00000060 930.65 72.36 377.59 526.13 987.96 255.32 1167.29 263.70 1038.65 361.14 1004.55 476.25 1133.48 482.55
00020583 00000061 930.81 71.38 377.88 527.13 988.45 254.96 1168.28 263.50 1039.23 361.23 1004.56 476.41 1134.62 482.87
00020584 00000062 930.98 71.34 379.61 529.85 989.78 254.77 1170.19 264.26 1040.43 360.72 1004.42 476.71 1134.89 483.99
00020585 00000063 930.49 71.51 380.10 530.45 989.36 255.06 1170.17 264.01 1040.61 360.37 1004.52 476.89 1135.39 483.72
00020586 00000064 930.33 71.64 379.82 530.80 988.99 255.99 1170.13 264.15 1041.09 360.89 1004.62 477.41 1135.10 483.66
00020587 00000065 931.20 73.85 377.21 528.19 988.15 256.77 1169.42 264.85 1039.76 361.80 1004.58 478.77 1135.02 484.93
00020588 00000066 930.57 76.88 378.24 527.00 987.66 257.09 1168.57 265.60 1039.97 363.83 1005.34 478.79 1134.48 485.17
00020589 00000067 931.17 78.05 377.91 526.00 988.77 259.29 1169.20 267.50 1041.40 364.71 1007.03 480.44 1132.32 486.71
00020590 00000068 932.18 82.42 377.12 523.58 987.88 260.17 1170.89 269.04 1042.68 368.00 1005.52 481.34 1135.49 487.95
00020591 00000069 933.49 85.34 374.06 518.80 989.23 269.31 1165.54 276.68 1042.31 369.49 1006.73 481.62 1134.23 487.12
00020592 00000070 931.94 83.29 376.66 522.14 988.08 277.39 1165.98 281.31 1043.02 369.13 1007.42 484.29 1136.94 486.83
00020593 00000071 932.46 84.92 376.20 522.45 988.16 277.12 1165.74 283.43 1041.53 371.56 1007.03 485.10 1135.94 489.42
00020594 00000072 931.67 86.76 376.93 519.64 986.98 279.83 1163.96 284.66 1040.01 373.36 1006.71 484.94 1135.93 488.26
00020595 00000073 932.09 87.67 375.81 520.05 989.43 277.98 1166.34 284.92 1042.03 374.15 1007.08 484.86 1135.85 489.96
00020596 00000074 932.33 86.72 374.80 522.65 991.58 276.47 1165.95 286.22 1041.01 375.46 1006.87 484.68 1134.16 492.05
00020597 00000075 934.46 84.24 372.92 530.71 991.67 277.09 1164.82 285.41 1040.52 376.84 1008.56 488.34 1134.06 494.55
00020598 00000076 932.21 86.90 375.48 531.28 990.08 275.44 1164.42 284.18 1040.57 379.40 1007.29 489.34 1133.93 495.75
00020599 00000077 931.26 88.77 376.88 528.67 988.63 273.75 1164.26 283.14 1040.10 380.94 1005.71 489.35 1134.18 496.33
00020600 00000078 929.60 88.18 377.09 527.10 986.15 274.48 1162.00 283.37 1038.44 382.43 1004.41 489.96 1132.59 496.69
00020601 00000079 927.48 91.22 377.73 525.11 985.18 275.89 1159.40 283.54 1036.49 382.88 1004.18 490.62 1130.16 496.42
00020602 00000080 925.87 91.77 378.71 528.53 984.00 276.36 1158.42 283.05 1035.71 384.27 1005.16 493.63 1129.75 498.52
00020603 00000081 924.38 88.72 373.54 535.18 976.42 276.54 1155.95 283.30 1032.84 389.48 994.81 497.49 1126.06 502.43
00020604 00000082 924.08 89.77 373.28 534.22 976.09 277.50 1155.56 283.92 1032.96 390.40 994.64 498.07 1126.04 502.63
00020605 00000083 923.25 91.93 373.40 530.85 975.79 277.05 1156.09 282.81 1033.50 390.20 995.07 498.21 1126.17 502.22
00020606 00000084 923.10 89.41 373.57 534.69 976.49 277.97 1156.31 284.34 1034.85 390.31 996.35 498.87 1125.82 503.51
00020607 00000085 921.19 89.61 374.72 535.81 976.63 279.23 1157.18 284.16 1036.74 390.51 997.54 500.04 1126.89 503.57
00020608 00000086 919.88 91.54 376.21 536.01 977.08 280.02 1158.14 284.04 1038.37 389.82 999.57 500.84 1128.27 503.63
00020609 00000087 916.55 99.05 384.36 529.77 981.85 274.52 1162.12 280.41 1037.01 384.42 1002.24 500.91 1130.52 506.83
00020610 00000088 916.73 98.49 384.94 531.13 982.05 276.95 1162.91 282.19 1038.38 386.01 1003.26 503.67 1131.74 508.99
00020611 00000089 918.09 101.37 383.24 530.80 983.24 282.44 1163.77 285.33 1039.62 389.43 1005.07 508.33 1133.51 511.82
00020612 00000090 919.37 108.76 375.96 525.07 986.28 295.94 1160.20 291.94 1049.48 392.92 1006.25 513.62 1135.45 510.75
00020613 00000091 918.39 111.74 376.06 527.46 987.41 300.76 1161.00 298.58 1049.05 399.56 1006.09 519.65 1133.00 518.42
00020614 00000092 917.82 113.16 376.90 533.36 987.42 304.49 1159.50 302.69 1048.48 408.13 1008.36 526.56 1130.87 525.55
00020615 00000093 915.98 117.62 378.46 532.69 986.88 309.35 1160.26 306.27 1049.68 412.58 1009.61 531.05 1130.18 529.04
00020616 00000094 915.33 120.53 378.92 531.90 985.67 311.96 1159.63 308.30 1047.68 414.18 1008.20 532.78 1129.54 530.45
00020617 00000095 915.88 121.99 378.05 528.98 986.35 313.14 1160.42 310.44 1048.23 415.05 1006.89 532.46 1129.27 530.84
00020618 00000096 916.44 120.61 377.98 531.77 987.39 313.83 1161.63 313.86 1049.07 417.22 1004.04 532.29 1127.86 533.02
00020619 00000097 914.70 123.63 379.02 530.36 986.13 315.13 1162.65 316.47 1048.16 420.89 1001.17 532.92 1125.89 534.73
00020620 00000098 918.05 131.35 380.47 530.15 986.24 311.97 1166.69 324.24 1043.33 421.35 1003.69 537.48 1123.78 547.71
00020621 00000099 916.47 133.93 379.35 528.49 984.57 315.29 1163.54 325.38 1043.36 423.52 1002.58 540.63 1121.64 549.31
00020622 00000100 914.59 135.02 380.12 527.92 982.55 317.25 1162.91 326.59 1043.83 426.29 1000.52 542.79 1120.07 551.03
00020623 00000101 916.44 137.14 380.16 524.18 985.31 317.46 1167.25 328.02 1048.76 428.31 1002.74 541.84 1124.85 550.78
00020624 00000102 914.34 138.29 380.51 520.38 990.67 323.05 1170.33 326.21 1055.82 430.92 1003.12 537.82 1131.84 540.79
00020625 00000103 917.57 138.71 380.90 520.43 998.22 322.64 1178.78 328.58 1066.82 435.21 1010.79 538.04 1140.36 543.22
00020626 00000104 922.27 137.40 378.51 522.68 1003.36 324.58 1184.45 328.97 1076.77 435.33 1018.07 542.10 1149.40 546.32
00020627 DELETE   929.94 141.55 381.37 519.68 1006.79 325.57 1189.41 331.96 1080.87 444.95 1025.93 541.99 1155.79 546.19
00020628 DELETE   934.99 144.41 386.28 523.53 1016.00 324.86 1202.38 333.76 1092.25 445.60 1030.09 542.49 1164.24 549.28
00020629 DELETE   943.40 144.86 384.02 523.29 1029.50 328.82 1216.39 337.19 1111.55 450.12 1043.22 544.83 1175.27 551.24
00020630 00000108 948.26 145.64 383.87 523.12 1038.27 329.58 1226.96 337.95 1123.73 452.64 1052.25 549.04 1181.99 555.32
00020631 00000109 951.18 143.37 381.66 525.37 1040.99 332.48 1229.84 341.31 1128.28 455.55 1056.41 552.80 1185.52 559.50
00020632 00000110 950.95 148.42 381.91 523.73 1041.49 333.05 1231.41 341.88 1129.67 456.74 1056.66 554.92 1186.84 561.58
00020633 00000111 949.84 146.95 382.13 523.67 1040.40 333.55 1229.92 341.46 1128.75 455.77 1055.99 555.20 1185.34 560.96
00020634 00000112 948.80 146.38 381.68 523.97 1038.55 333.03 1227.65 341.57 1126.23 455.71 1053.58 554.80 1182.82 561.02
00020635 00000113 949.29 146.37 381.49 525.86 1038.21 335.28 1226.11 342.45 1124.60 455.47 1053.28 555.78 1182.61 561.18
00020636 00000114 949.27 149.48 381.23 525.83 1038.50 336.50 1225.34 343.71 1123.44 455.41 1053.06 556.35 1182.70 562.03
00020637 00000115 949.59 152.82 381.26 527.60 1040.44 337.87 1227.18 345.13 1124.25 454.66 1054.36 557.75 1185.22 563.59
00020638 00000116 950.38 153.95 381.40 530.02 1041.69 337.67 1227.42 346.41 1123.14 454.38 1054.44 557.00 1185.73 564.31
00020639 00000117 951.26 154.45 382.16 529.46 1043.14 338.82 1228.27 347.73 1123.98 455.34 1053.59 552.50 1191.01 560.03
00020640 00000118 951.06 154.91 382.79 525.74 1044.19 338.01 1227.73 347.50 1125.74 455.79 1052.23 546.89 1192.85 555.07
00020641 00000119 950.06 150.72 383.53 525.53 1041.35 339.38 1226.61 347.76 1124.31 455.53 1050.74 546.80 1194.60 553.65
00020642 00000120 950.28 154.34 381.47 524.70 1040.89 339.79 1225.67 348.34 1122.17 453.89 1050.30 548.55 1192.26 555.68
00020643 00000121 951.03 153.74 379.69 523.92 1039.56 340.84 1224.91 348.39 1121.17 455.36 1050.96 551.71 1191.90 557.77
00020644 00000122 949.49 154.01 380.61 525.19 1038.72 342.44 1224.07 349.91 1121.15 457.83 1050.82 553.01 1192.03 558.82
00020645 00000123 948.93 156.50 380.93 524.21 1038.54 343.83 1224.48 352.07 1121.22 460.16 1050.41 554.76 1192.74 561.12
00020646 00000124 946.85 155.22 382.26 525.88 1036.42 341.80 1223.21 350.97 1119.07 460.87 1049.33 554.69 1190.44 561.68
00020647 00000125 946.32 156.96 382.40 526.18 1035.98 341.00 1221.71 350.82 1117.92 461.64 1048.63 555.21 1187.84 563.01
00020648 00000126 945.81 158.94 382.32 526.01 1035.47 341.20 1220.71 351.66 1116.48 461.76 1046.52 554.71 1186.79 563.20
00020649 00000127 944.05 159.32 383.11 525.97 1035.42 340.60 1219.86 351.82 1116.91 461.66 1045.91 554.37 1185.73 563.39
00020650 00000128 943.43 161.59 382.47 524.88 1033.66 340.58 1217.64 351.42 1114.55 461.20 1044.29 554.05 1183.80 562.78
00020651 00000129 942.26 165.14 381.79 524.02 1031.57 341.22 1214.18 351.02 1111.50 460.29 1043.64 555.84 1181.15 563.81
00020652 00000130 941.25 166.65 382.21 532.84 1031.15 340.67 1212.14 350.38 1109.62 459.78 1042.67 559.31 1176.93 567.70
00020653 00000131 940.95 167.92 381.81 534.86 1031.28 340.79 1212.07 349.12 1110.78 460.14 1044.32 562.44 1176.33 569.73
00020654 00000132 939.71 168.06 383.96 535.74 1031.38 341.56 1212.48 350.05 1112.68 461.28 1045.46 563.99 1175.88 571.24
00020655 00000133 939.67 165.73 384.98 537.19 1032.26 341.93 1213.98 350.17 1114.49 462.67 1046.33 565.15 1176.52 572.17
00020656 00000134 939.23 164.39 385.53 538.00 1031.83 342.47 1213.71 350.25 1114.88 463.16 1046.84 565.52 1176.68 572.05
00020657 00000135 938.59 164.13 385.55 536.74 1031.21 342.34 1212.69 349.75 1114.47 464.15 1046.55 564.88 1175.98 571.12
00020658 00000136 937.69 162.93 385.14 535.43 1028.63 342.41 1210.57 350.25 1110.33 462.89 1043.88 563.20 1176.10 569.67
00020659 00000137 936.53 163.50 385.22 533.36 1026.93 341.27 1208.92 348.05 1109.59 464.03 1042.92 563.52 1172.03 569.05
00020660 00000138 935.97 163.22 384.89 532.99 1025.90 341.31 1207.86 347.39 1109.63 464.14 1042.75 564.20 1171.61 569.10
00020661 00000139 936.73 162.72 382.42 533.46 1025.44 341.49 1205.97 347.15 1109.14 463.47 1042.96 563.83 1169.95 568.59
00020662 00000140 938.20 164.16 379.54 529.34 1026.61 340.82 1205.91 346.86 1110.24 463.30 1044.30 561.95 1169.10 566.85
00020663 00000141 938.93 168.66 377.53 526.07 1027.96 340.87 1204.67 346.77 1110.21 461.00 1044.85 560.20 1167.83 565.13
00020664 00000142 939.14 169.10 376.60 523.96 1028.20 340.65 1205.05 346.30 1111.35 459.48 1045.67 559.41 1169.24 564.10
00020665 00000143 939.91 167.87 375.79 524.21 1029.08 341.03 1204.83 346.20 1111.14 458.03 1047.32 558.86 1170.39 563.14
00020666 00000144 940.08 165.75 376.32 524.53 1028.35 340.78 1204.96 345.27 1111.24 455.57 1047.61 559.25 1170.68 562.94
00020667 00000145 940.11 160.37 379.36 535.53 1029.63 338.49 1208.09 343.30 1113.83 454.05 1049.17 560.90 1171.94 565.05
00020668 00000146 940.53 155.17 380.85 539.57 1031.60 336.46 1212.00 341.57 1116.82 453.12 1051.06 560.48 1173.80 564.86
00020669 00000147 941.85 153.04 382.62 547.47 1034.02 335.95 1216.13 341.83 1118.83 452.16 1050.54 561.09 1176.50 566.19
00020670 00000148 943.04 154.11 381.47 546.04 1037.11 334.64 1219.21 340.26 1122.81 450.18 1053.44 559.51 1179.85 564.30
00020671 00000149 942.50 153.99 381.67 544.99 1035.79 334.99 1218.82 340.21 1121.57 449.85 1051.98 558.10 1181.34 562.37
00020672 00000150 941.09 156.41 383.00 546.51 1033.05 334.60 1217.33 339.91 1118.37 450.96 1049.35 558.03 1181.22 562.23
00020673 00000151 940.26 157.12 382.77 547.11 1032.36 335.77 1216.12 341.82 1116.30 451.32 1047.58 558.39 1180.37 563.35
00020674 00000152 938.64 156.79 382.75 544.13 1030.97 335.65 1214.28 341.36 1116.19 451.71 1047.36 558.49 1177.70 563.11
00020675 00000153 937.25 153.61 384.50 540.01 1028.62 337.55 1212.29 342.09 1114.33 454.14 1048.85 558.58 1178.96 561.86
00020676 00000154 936.37 151.92 383.84 535.77 1026.67 336.36 1210.56 341.55 1112.97 456.99 1046.67 558.43 1175.70 562.00
00020677 00000155 934.89 154.32 383.82 533.38 1026.12 336.74 1209.59 341.66 1113.26 457.32 1045.69 558.37 1174.28 561.70
00020678 00000156 934.83 152.22 384.67 537.64 1026.79 337.54 1210.54 341.56 1115.84 459.14 1048.83 561.43 1174.24 564.16
00020679 00000157 936.45 157.30 384.25 536.84 1031.05 339.45 1211.81 343.10 1119.38 459.23 1051.82 563.55 1172.52 566.35
00020680 00000158 937.77 155.82 384.20 536.80 1033.47 340.64 1215.83 345.87 1122.15 458.39 1052.94 561.93 1177.81 565.98
00020681 00000159 939.13 153.63 383.38 537.50 1035.10 341.72 1218.79 348.00 1124.29 459.40 1053.44 561.13 1182.85 565.78
00020682 00000160 939.37 155.35 383.52 535.79 1034.15 341.06 1217.32 346.81 1122.33 460.04 1053.38 562.73 1180.20 567.19
00020683 00000161 937.38 158.95 384.18 538.13 1029.09 338.70 1211.17 343.81 1115.88 460.54 1050.11 565.00 1173.46 569.13
00020684 00000162 931.77 162.77 384.53 540.80 1017.60 336.46 1199.78 340.10 1101.43 454.70 1041.85 566.25 1164.64 569.03
00020685 DELETE   928.87 160.80 380.51 543.48 1006.09 335.26 1187.13 340.43 1081.46 450.93 1024.91 562.45 1157.02 566.59
00020686 00000164 922.80 147.04 378.60 537.67 993.30 333.97 1175.91 339.69 1065.11 452.24 1012.86 556.78 1143.25 560.67
00020687 DELETE   918.87 146.12 378.49 531.45 987.77 329.22 1172.63 338.71 1056.51 448.94 1006.97 552.83 1142.66 560.57
