Video ID: 	ULEZfCArhjw
H: 	1080
W: 	1920
FPS: 	25.0

FRAME INDEX X0 Y0 W H [Landmarks (5 Points)]

00001871 00000000 972.86 271.30 418.44 548.71 1052.93 441.09 1237.06 520.59 1070.31 606.51 1018.02 649.92 1173.30 713.42
00001872 00000001 973.84 268.90 417.44 550.35 1053.48 438.52 1237.61 519.41 1069.15 606.33 1018.41 649.07 1172.89 713.78
00001873 00000002 973.16 264.26 415.67 553.21 1051.05 438.54 1235.58 517.56 1067.09 604.03 1017.29 649.81 1171.27 712.85
00001874 00000003 974.07 259.07 412.96 556.76 1047.82 435.46 1234.47 514.48 1065.64 601.67 1015.72 649.16 1170.06 711.94
00001875 DELETE   974.44 257.02 411.09 557.16 1047.45 432.96 1234.61 511.17 1064.88 600.15 1014.65 647.86 1169.91 709.99
00001876 00000005 975.06 247.37 411.90 565.95 1049.18 430.66 1236.46 510.51 1065.86 597.99 1015.34 645.80 1169.40 709.24
00001877 00000006 975.15 250.14 411.76 560.74 1049.23 430.27 1237.20 508.59 1067.10 599.60 1015.46 647.14 1167.76 709.41
00001878 00000007 975.30 251.71 411.87 557.47 1049.84 431.03 1238.25 508.19 1068.97 600.89 1013.97 648.79 1165.19 710.14
00001879 00000008 974.25 250.90 411.43 556.25 1050.57 430.91 1239.07 509.20 1070.40 602.92 1012.95 648.37 1162.93 710.77
00001880 00000009 974.07 254.63 413.10 552.74 1050.75 431.65 1239.90 509.98 1070.78 603.80 1012.83 649.38 1162.83 711.79
00001881 00000010 973.40 253.35 412.93 554.50 1050.53 431.94 1240.61 509.95 1071.27 604.42 1012.18 651.15 1161.56 713.29
00001882 00000011 972.24 252.93 413.86 555.01 1049.23 432.32 1239.41 510.19 1070.12 603.81 1009.78 651.73 1159.83 713.78
00001883 00000012 964.68 243.33 419.69 577.08 1039.36 428.64 1236.41 519.31 1068.16 600.09 1009.00 647.84 1160.45 722.19
00001884 00000013 960.79 251.71 417.42 567.38 1034.26 431.12 1228.71 521.94 1064.10 598.95 1003.96 647.21 1153.36 721.52
00001885 00000014 957.95 253.07 414.97 564.31 1029.17 433.63 1223.27 525.98 1059.33 599.72 999.67 644.78 1151.12 720.09
00001886 00000015 954.95 250.80 416.18 566.65 1026.10 433.98 1219.84 525.13 1056.90 599.93 996.90 646.36 1145.94 720.66
00001887 00000016 955.52 256.85 413.08 559.52 1026.87 435.49 1218.72 526.58 1056.97 598.79 996.51 645.81 1145.23 720.26
00001888 00000017 955.91 260.32 411.62 555.91 1026.14 435.74 1218.87 526.73 1057.09 600.07 996.10 645.76 1146.31 720.27
00001889 00000018 954.55 262.01 415.87 554.61 1026.24 435.19 1220.50 527.31 1058.58 603.02 998.09 646.74 1147.55 722.07
00001890 00000019 956.29 253.17 417.54 567.34 1028.09 433.66 1223.57 526.03 1059.32 604.34 1000.50 647.49 1152.35 722.51
00001891 00000020 958.67 247.20 417.43 574.11 1030.55 434.10 1229.62 523.26 1063.51 604.28 1002.18 649.42 1156.40 722.13
00001892 00000021 961.26 249.02 422.51 574.19 1035.05 432.54 1237.01 522.24 1067.99 605.88 1006.87 652.10 1160.59 725.43
00001893 00000022 967.77 253.68 422.02 567.19 1041.75 431.46 1242.66 517.49 1074.18 604.32 1014.78 652.37 1166.49 722.96
00001894 00000023 973.63 258.68 420.73 548.98 1051.24 436.00 1245.27 508.11 1076.95 603.85 1016.53 654.68 1168.50 712.05
00001895 00000024 978.61 261.60 418.98 547.93 1056.59 441.10 1247.65 505.51 1082.90 600.83 1024.93 658.54 1173.81 709.78
00001896 00000025 984.14 260.51 414.41 547.73 1060.44 442.00 1250.11 502.94 1086.99 597.43 1031.55 657.95 1179.41 706.42
00001897 00000026 989.07 262.21 415.68 541.19 1064.36 439.56 1252.65 498.95 1089.00 592.99 1040.57 651.06 1191.61 697.90
00001898 00000027 993.53 247.00 417.72 559.97 1060.60 440.22 1254.13 498.76 1087.22 595.70 1044.47 652.10 1201.14 699.88
00001899 00000028 998.11 239.41 416.91 570.05 1061.91 437.20 1257.75 496.80 1090.73 595.67 1048.06 650.28 1209.79 698.38
00001900 00000029 998.85 241.44 417.16 560.90 1070.18 442.20 1261.76 500.11 1097.02 596.41 1053.35 647.61 1214.63 692.71
00001901 00000030 1000.74 238.15 416.13 562.98 1071.64 442.21 1261.88 501.41 1096.28 597.36 1052.55 647.04 1211.83 693.17
00001902 00000031 1001.31 241.39 415.96 559.62 1074.85 441.95 1262.04 502.79 1097.28 596.92 1052.77 646.40 1207.88 693.92
00001903 00000032 1001.61 243.07 416.41 558.87 1075.28 442.12 1262.01 503.36 1096.74 597.31 1051.70 647.74 1203.85 695.47
00001904 00000033 1001.97 246.79 417.78 555.32 1076.72 440.82 1262.73 502.52 1097.81 595.56 1051.74 647.19 1201.88 695.51
00001905 00000034 1002.18 238.68 417.59 564.03 1077.39 438.71 1263.19 502.33 1097.39 594.24 1051.47 645.11 1201.46 694.97
00001906 00000035 999.89 244.47 420.46 565.51 1075.48 427.53 1271.26 518.30 1107.58 593.11 1050.60 629.87 1206.36 703.52
00001907 00000036 999.66 242.12 421.00 567.23 1075.90 425.88 1271.29 516.71 1107.31 591.11 1049.64 627.10 1205.75 700.90
00001908 00000037 1000.75 243.95 420.19 562.92 1076.80 425.12 1271.43 513.43 1109.42 587.85 1050.47 627.14 1205.65 699.08
00001909 00000038 998.96 243.15 417.86 559.95 1076.51 425.36 1270.17 514.39 1108.21 587.62 1047.27 625.04 1203.76 697.83
00001910 00000039 1002.11 240.97 419.17 555.43 1081.13 436.61 1262.39 502.37 1097.86 587.10 1051.68 638.93 1196.85 691.31
00001911 00000040 1000.62 243.99 413.51 555.63 1078.54 424.63 1270.66 518.24 1108.45 589.99 1047.52 623.02 1202.08 699.55
00001912 00000041 1000.63 239.89 414.81 560.91 1077.14 424.00 1270.32 514.96 1107.41 588.29 1047.73 625.45 1201.92 699.62
00001913 00000042 1000.02 243.07 416.77 558.39 1077.99 422.26 1273.57 513.40 1110.73 588.77 1048.41 624.45 1204.51 698.94
00001914 00000043 1000.10 241.39 416.17 559.22 1077.54 420.73 1272.73 510.11 1110.18 587.30 1048.85 625.49 1203.05 698.40
00001915 00000044 1001.44 240.16 415.38 560.39 1078.49 421.16 1273.06 509.10 1111.40 587.22 1050.84 626.31 1204.14 698.14
00001916 00000045 1004.87 241.68 414.31 559.34 1082.22 422.25 1274.66 508.70 1115.50 585.15 1053.14 627.06 1205.33 697.91
00001917 00000046 1004.54 239.35 414.75 560.28 1081.82 421.87 1274.20 507.97 1114.88 584.43 1053.71 626.56 1205.24 697.06
00001918 00000047 1005.48 239.89 414.90 559.83 1082.48 421.36 1273.94 507.78 1114.71 584.18 1055.70 626.08 1206.12 696.86
00001919 00000048 1007.27 238.02 410.67 557.80 1084.11 424.81 1271.96 511.18 1115.64 586.15 1054.44 624.95 1203.71 695.96
00001920 00000049 1007.47 242.39 409.48 551.35 1084.62 427.34 1269.86 514.04 1115.00 585.79 1055.96 624.03 1202.90 694.88
00001921 00000050 1006.20 240.29 411.87 553.16 1084.57 423.45 1272.98 512.73 1115.44 583.57 1055.33 621.62 1203.64 694.61
00001922 00000051 1006.42 236.21 413.59 558.67 1084.44 421.81 1274.41 513.81 1113.61 584.18 1054.29 620.83 1203.43 696.01
00001923 00000052 547.46 108.66 274.85 358.34
00001924 00000053 547.72 108.58 274.72 357.91
00001925 00000054 548.08 108.73 274.64 357.34
00001926 00000055 548.45 108.88 274.55 356.76
00001927 00000056 548.81 109.03 274.47 356.19
00001928 00000057 549.17 109.18 274.39 355.61
00001929 00000058 549.54 109.33 274.30 355.04
00001930 00000059 549.43 109.41 274.44 354.84
00001931 00000060 549.33 109.49 274.58 354.64
00001932 00000061 549.23 109.57 274.72 354.44
00001933 00000062 549.12 109.64 274.86 354.24
00001934 00000063 549.02 109.72 275.00 354.05
00001935 00000064 548.86 109.50 275.00 354.03
00001936 00000065 548.70 109.27 275.00 354.01
00001937 00000066 548.54 109.05 275.00 353.99
00001938 00000067 548.38 108.83 275.00 353.97
00001939 00000068 548.22 108.60 275.00 353.95
00001940 00000069 548.40 108.62 274.86 353.83
00001941 00000070 548.58 108.64 274.72 353.71
00001942 00000071 548.76 108.66 274.58 353.60
00001943 00000072 548.95 108.68 274.45 353.48
00001944 00000073 549.13 108.70 274.31 353.36
00001945 00000074 548.48 108.46 274.04 353.49
00001946 00000075 547.84 108.23 273.78 353.62
00001947 00000076 547.19 107.99 273.51 353.75
00001948 00000077 546.54 107.76 273.25 353.88
00001949 00000078 545.90 107.53 272.98 354.01
00001950 00000079 544.03 107.63 272.85 354.21
00001951 00000080 542.16 107.72 272.71 354.41
00001952 00000081 540.29 107.82 272.58 354.61
00001953 00000082 538.42 107.92 272.44 354.81
00001954 00000083 536.55 108.02 272.31 355.01
00001955 00000084 535.96 108.19 272.11 354.98
00001956 00000085 535.37 108.36 271.91 354.94
00001957 00000086 534.77 108.53 271.71 354.91
00001958 00000087 534.18 108.70 271.52 354.87
00001959 00000088 533.59 108.87 271.32 354.83
00001960 00000089 985.73 244.70 405.83 542.65 1062.02 422.83 1241.84 489.91 1080.70 579.98 1032.94 631.44 1178.66 685.54
00001961 00000090 984.02 248.44 403.56 541.50 1060.45 423.44 1239.75 490.13 1080.24 580.41 1031.45 631.46 1178.80 685.28
00001962 00000091 981.15 249.12 403.98 540.54 1058.24 423.05 1236.69 490.06 1077.42 579.52 1028.46 630.93 1175.04 685.15
00001963 00000092 984.50 250.62 394.68 537.05 1059.34 425.91 1235.79 494.17 1077.98 582.66 1025.44 631.23 1173.62 685.55
00001964 00000093 981.10 255.62 395.30 532.40 1056.14 426.79 1233.85 495.39 1075.76 586.45 1023.10 632.55 1171.05 687.05
00001965 00000094 979.67 261.63 395.07 527.12 1053.12 428.02 1231.95 495.06 1073.77 587.83 1021.28 634.19 1169.94 687.28
00001966 00000095 977.03 261.35 393.48 527.27 1052.01 422.42 1233.09 508.13 1074.33 580.08 1021.55 619.58 1171.51 690.10
00001967 00000096 973.48 260.32 397.68 530.26 1048.07 429.44 1227.63 500.17 1069.63 593.52 1015.17 633.94 1165.96 689.94
00001968 00000097 970.38 257.72 397.63 534.36 1044.30 423.86 1227.46 508.35 1071.37 581.34 1015.07 620.58 1168.15 690.51
00001969 00000098 969.21 255.15 398.71 538.43 1042.84 424.60 1225.53 509.41 1070.02 581.94 1013.58 620.83 1167.39 691.00
00001970 00000099 968.69 251.17 394.52 543.28 1039.26 431.06 1221.22 514.81 1067.08 584.49 1009.44 623.24 1163.93 692.37
00001971 00000100 965.21 249.20 395.88 547.50 1034.37 433.52 1217.72 514.27 1065.27 587.37 1007.07 627.25 1160.73 693.97
00001972 00000101 963.92 250.88 397.29 547.10 1035.34 432.05 1218.77 518.56 1064.95 588.91 1005.51 623.49 1161.06 694.57
00001973 00000102 963.37 246.59 399.80 551.80 1034.63 429.74 1219.83 517.41 1063.23 589.32 1005.27 623.57 1161.01 695.45
00001974 00000103 964.87 252.46 398.99 547.28 1034.31 430.24 1218.27 515.49 1063.07 588.51 1005.60 625.35 1161.50 695.57
00001975 00000104 963.56 251.31 401.30 547.86 1034.31 430.01 1217.46 516.34 1061.77 588.03 1006.79 624.67 1160.75 695.69
00001976 00000105 963.34 251.62 401.99 548.37 1033.05 431.24 1214.87 515.93 1059.46 586.99 1006.45 625.77 1159.61 695.41
00001977 00000106 963.31 254.08 401.55 546.57 1032.20 430.62 1213.18 515.87 1058.30 585.85 1006.06 624.74 1158.97 694.83
00001978 00000107 963.66 250.79 401.34 549.51 1032.74 431.95 1213.47 516.61 1059.07 585.94 1006.72 624.44 1159.75 693.99
00001979 00000108 964.18 257.99 400.13 542.29 1032.12 431.67 1212.38 516.01 1057.71 586.09 1006.47 623.99 1160.09 693.42
00001980 00000109 964.66 257.25 399.90 544.26 1033.17 431.20 1213.53 516.39 1058.59 586.31 1006.81 624.98 1160.23 695.03
00001981 00000110 964.67 256.82 399.84 545.02 1033.14 431.37 1213.32 516.84 1058.46 586.95 1006.97 624.58 1160.95 694.86
00001982 00000111 964.19 258.65 400.44 542.92 1033.06 431.54 1213.97 516.47 1059.76 587.16 1007.11 625.25 1161.01 695.13
00001983 00000112 964.17 254.11 400.55 547.41 1033.27 431.96 1214.71 516.61 1059.53 587.04 1006.58 625.89 1160.14 695.45
00001984 00000113 963.78 253.43 401.27 547.67 1032.81 432.42 1214.48 517.35 1058.99 587.22 1006.02 625.62 1160.05 695.32
00001985 00000114 964.65 258.87 399.72 543.41 1033.55 431.65 1215.92 517.00 1060.47 587.84 1005.78 626.31 1161.34 696.47
00001986 00000115 964.49 257.08 399.39 544.94 1034.39 432.44 1215.90 517.97 1061.17 587.82 1006.03 626.54 1160.50 696.76
00001987 00000116 964.46 257.67 400.33 544.61 1034.57 432.13 1215.93 517.78 1061.32 587.61 1006.25 626.56 1160.22 696.88
00001988 00000117 964.39 259.20 399.81 543.42 1034.27 432.15 1216.14 517.19 1062.09 588.24 1005.89 627.10 1160.40 697.04
00001989 00000118 963.99 257.26 399.62 545.58 1034.08 432.17 1215.68 517.28 1061.67 587.73 1005.44 626.90 1160.51 696.81
00001990 00000119 963.15 257.89 400.13 545.91 1033.28 431.47 1215.22 517.59 1060.34 587.88 1004.37 626.62 1159.98 697.29
00001991 00000120 963.13 256.78 400.65 546.40 1032.96 431.78 1214.70 517.15 1059.75 587.76 1004.49 627.22 1159.22 697.27
00001992 00000121 963.22 259.08 400.75 543.90 1033.28 431.99 1215.80 517.00 1061.44 588.50 1005.22 627.24 1160.50 697.13
00001993 00000122 963.66 256.67 400.75 546.47 1033.59 434.07 1216.69 518.17 1062.76 588.87 1005.51 628.46 1161.18 697.54
00001994 00000123 964.49 258.16 401.26 544.55 1034.45 434.48 1216.67 519.27 1062.12 588.54 1006.47 627.53 1161.72 697.13
00001995 00000124 964.46 257.43 401.77 546.03 1034.74 435.15 1216.98 519.61 1062.02 588.21 1006.65 627.97 1161.26 697.29
00001996 00000125 964.30 256.58 401.94 546.15 1034.27 434.78 1217.06 519.02 1061.56 588.02 1006.20 628.00 1161.65 697.18
00001997 00000126 963.97 258.60 401.87 543.94 1034.44 433.35 1218.49 519.21 1062.41 588.39 1005.98 626.46 1163.11 696.95
00001998 00000127 964.83 258.93 402.91 544.14 1035.58 433.82 1219.74 518.91 1063.21 588.51 1006.57 627.22 1165.01 697.20
00001999 00000128 964.98 258.45 403.14 545.25 1036.55 433.75 1221.50 519.50 1064.34 589.39 1007.14 627.42 1166.50 697.90
00002000 00000129 967.12 259.84 402.16 543.60 1038.57 434.84 1223.89 520.62 1065.36 590.64 1009.06 627.39 1168.95 697.91
00002001 00000130 968.06 258.66 403.33 544.17 1040.09 432.89 1225.71 519.66 1066.49 590.39 1010.52 626.91 1169.37 698.20
00002002 00000131 967.99 255.95 404.67 546.85 1040.39 433.35 1225.85 519.43 1066.16 590.18 1011.39 627.00 1170.21 697.54
00002003 00000132 969.47 257.67 402.60 544.98 1040.86 431.23 1226.08 518.27 1066.42 589.28 1011.25 626.01 1169.82 697.53
00002004 00000133 969.44 258.91 403.08 543.73 1042.32 430.03 1227.44 517.80 1068.52 589.50 1011.81 624.93 1169.24 697.14
00002005 00000134 972.01 262.04 402.04 540.01 1044.67 428.28 1230.30 515.84 1070.13 587.87 1013.01 624.27 1170.35 696.48
00002006 00000135 973.44 260.66 402.09 541.84 1046.13 427.35 1232.61 514.71 1071.38 588.00 1013.87 625.27 1170.34 697.36
00002007 00000136 975.23 260.00 401.02 542.41 1047.87 427.76 1232.98 513.29 1072.50 587.54 1015.90 626.26 1170.95 696.83
00002008 00000137 975.84 260.72 400.88 541.77 1048.37 428.28 1233.62 514.32 1072.22 588.24 1016.24 626.25 1171.86 697.14
00002009 00000138 975.67 260.70 400.43 543.72 1047.51 429.10 1234.45 516.20 1072.82 591.45 1015.86 628.93 1171.98 700.55
00002010 00000139 972.59 259.89 403.77 548.99 1044.75 432.73 1233.25 520.67 1071.54 595.37 1013.78 631.68 1171.81 703.68
00002011 00000140 969.00 260.21 405.86 551.99 1042.97 434.60 1233.15 522.89 1072.36 596.87 1011.32 633.24 1171.35 705.37
00002012 00000141 966.58 264.52 407.49 546.81 1041.88 434.15 1231.07 524.45 1071.21 596.74 1009.99 630.76 1170.21 704.45
00002013 00000142 965.00 259.06 406.77 549.44 1040.77 436.45 1226.86 527.31 1069.61 595.84 1007.88 628.59 1167.62 702.52
00002014 00000143 966.13 256.52 401.43 550.23 1036.65 443.29 1220.44 525.21 1068.51 594.77 1007.21 633.33 1163.70 700.33
00002015 00000144 965.48 260.79 398.58 543.82 1036.01 439.03 1218.18 522.77 1068.22 592.04 1005.99 629.85 1161.82 698.76
00002016 00000145 962.69 258.07 401.79 547.32 1033.84 436.95 1217.25 524.10 1064.46 591.72 1003.00 628.00 1159.48 699.47
00002017 00000146 959.04 259.54 404.78 545.74 1030.30 434.94 1213.76 524.90 1058.78 590.93 1000.39 626.13 1156.62 699.70
00002018 00000147 957.64 258.81 405.47 547.42 1027.53 435.09 1210.38 523.35 1057.28 590.55 999.32 626.91 1155.59 698.97
00002019 00000148 952.70 262.24 407.48 544.68 1024.84 435.91 1209.20 525.04 1055.16 590.34 995.49 627.27 1151.98 700.01
00002020 00000149 948.68 264.53 407.17 542.07 1021.45 434.53 1204.74 525.16 1049.75 588.75 992.73 625.42 1147.32 699.37
00002021 00000150 946.13 258.84 406.47 548.11 1018.75 432.46 1201.55 524.22 1044.86 588.58 990.40 623.64 1145.11 698.21
00002022 00000151 944.61 257.49 405.19 550.81 1016.84 432.67 1201.49 522.36 1044.28 588.21 988.88 624.33 1146.41 697.23
00002023 00000152 943.73 260.48 406.28 548.70 1015.53 431.60 1201.52 521.10 1044.15 589.58 987.98 624.18 1147.91 697.19
00002024 00000153 942.45 257.98 405.92 551.44 1014.57 433.17 1201.87 520.27 1045.68 590.56 989.23 626.82 1148.14 697.47
00002025 00000154 944.16 253.80 403.67 554.72 1014.19 433.93 1202.32 519.41 1046.36 591.84 990.45 627.31 1151.59 696.53
00002026 00000155 943.01 257.61 404.58 551.16 1013.42 434.23 1202.04 519.07 1047.20 592.52 990.47 627.58 1151.65 696.33
00002027 00000156 943.18 254.34 403.62 553.38 1013.56 433.43 1201.79 516.97 1047.48 592.74 990.32 627.90 1149.53 695.68
00002028 00000157 942.31 251.68 403.52 555.27 1013.02 432.59 1201.19 517.45 1045.92 591.65 988.22 626.82 1146.90 695.89
00002029 00000158 942.22 255.52 402.79 550.68 1013.36 432.11 1200.90 515.75 1046.79 590.27 988.49 626.48 1147.20 694.79
00002030 00000159 943.30 254.73 401.36 549.94 1014.83 431.75 1201.60 516.90 1047.65 589.69 988.38 624.40 1148.46 694.05
00002031 00000160 943.78 255.24 403.02 550.58 1016.44 431.32 1201.87 517.81 1047.80 588.97 989.39 623.54 1148.85 694.07
00002032 00000161 945.20 254.71 404.34 549.28 1017.08 430.22 1202.63 516.06 1048.34 586.88 990.57 623.08 1149.88 693.15
00002033 00000162 945.43 251.63 406.48 552.64 1017.14 429.71 1202.33 515.70 1047.29 585.41 990.58 622.50 1149.36 692.83
00002034 00000163 944.00 248.72 408.13 555.20 1017.68 427.35 1203.03 514.97 1047.44 584.57 990.23 620.51 1150.23 692.02
00002035 00000164 943.61 250.00 408.40 553.32 1017.91 426.67 1203.36 513.85 1047.90 584.34 990.52 620.50 1149.11 691.76
00002036 00000165 941.58 249.64 409.58 551.11 1016.91 426.64 1201.73 514.13 1046.30 583.79 989.39 620.25 1146.35 691.92
00002037 00000166 941.22 243.77 409.46 554.76 1017.53 425.90 1202.02 513.11 1047.09 583.18 989.34 619.56 1145.68 691.07
00002038 00000167 942.04 242.58 409.24 556.81 1017.73 424.01 1201.72 511.26 1046.54 581.21 989.47 617.97 1145.74 689.52
00002039 00000168 940.91 241.90 409.48 556.17 1017.52 422.21 1201.15 510.26 1045.35 579.69 987.65 616.30 1141.75 688.66
00002040 00000169 504.59 118.74 277.13 349.26
00002041 00000170 941.16 235.55 409.57 560.51 1019.07 416.73 1206.16 507.42 1048.55 577.01 984.42 612.08 1141.94 687.18
00002042 00000171 942.99 237.75 410.14 557.56 1020.32 415.35 1207.25 505.79 1050.35 574.40 985.03 611.45 1142.65 686.39
00002043 00000172 944.30 235.68 409.09 557.93 1021.42 412.49 1209.16 502.14 1051.94 569.92 986.56 610.20 1145.36 684.43
00002044 00000173 945.17 235.51 409.04 557.38 1021.97 413.03 1209.80 499.91 1053.18 567.57 986.99 611.90 1144.93 683.94
00002045 00000174 504.82 113.92 277.39 350.58
00002046 00000175 504.67 113.32 277.39 350.73
00002047 00000176 504.52 112.71 277.39 350.88
00002048 00000177 504.37 112.11 277.39 351.04
00002049 00000178 504.22 111.51 277.39 351.19
00002050 00000179 503.32 110.79 277.44 351.34
00002051 00000180 502.43 110.07 277.48 351.50
00002052 00000181 501.53 109.35 277.53 351.65
00002053 00000182 500.64 108.63 277.57 351.80
00002054 00000183 499.74 107.92 277.62 351.95
00002055 00000184 498.60 108.26 277.63 351.85
00002056 00000185 497.45 108.60 277.64 351.74
00002057 00000186 496.30 108.94 277.66 351.64
00002058 00000187 495.16 109.28 277.67 351.53
00002059 00000188 494.01 109.62 277.68 351.43
00002060 00000189 493.58 109.97 277.64 351.32
00002061 00000190 493.14 110.33 277.59 351.21
00002062 00000191 492.71 110.68 277.54 351.10
00002063 00000192 492.27 111.04 277.50 350.99
00002064 00000193 491.84 111.39 277.45 350.88
00002065 00000194 492.26 110.81 277.14 351.27
00002066 00000195 492.69 110.22 276.84 351.67
00002067 00000196 493.11 109.63 276.53 352.07
00002068 00000197 493.53 109.04 276.22 352.47
00002069 00000198 493.96 108.46 275.91 352.86
00002070 00000199 494.37 107.89 275.28 353.24
00002071 00000200 494.78 107.32 274.64 353.62
00002072 DELETE   495.20 106.75 274.01 354.00
00002073 DELETE   495.61 106.18 273.37 354.38
00002074 00000203 496.02 105.61 272.73 354.76
00002075 00000204 496.84 104.00 271.99 355.95
00002076 00000205 497.65 102.39 271.24 357.13
00002077 00000206 498.47 100.78 270.49 358.32
00002078 00000207 499.28 99.17 269.74 359.50
00002079 00000208 500.10 97.56 268.99 360.68
