Video ID: 	eblXAIX8Bcg
H: 	1080
W: 	1920
FPS: 	25.0

FRAME INDEX X0 Y0 W H [Landmarks (5 Points)]

00020928 00000000 428.91 126.92 442.56 658.94 663.33 392.92 813.03 364.10 829.24 500.78 709.80 633.79 832.55 610.47
00020929 00000001 428.66 125.50 442.63 669.78 668.29 395.95 813.44 367.31 834.64 501.03 708.92 637.00 829.16 614.42
00020930 00000002 425.22 140.04 445.48 649.96 662.48 404.09 810.62 368.45 831.01 508.54 700.41 639.91 823.06 612.45
00020931 00000003 422.71 129.67 447.12 661.87 659.70 399.40 807.29 371.07 824.48 503.60 697.90 636.70 822.31 614.74
00020932 DELETE   415.98 118.10 451.03 661.12 655.09 389.84 802.56 362.33 820.27 490.66 697.48 625.25 822.20 603.06
00020933 DELETE   409.66 124.19 455.69 638.70 645.81 379.27 801.26 353.34 812.56 470.46 699.97 609.12 827.95 587.03
00020934 00000006 402.05 135.67 464.84 625.66 633.27 383.39 793.30 346.15 805.72 466.05 692.89 605.94 827.04 574.41
00020935 00000007 401.56 138.70 460.26 618.44 624.34 393.05 785.47 346.75 797.15 470.60 687.54 608.00 826.00 568.97
00020936 00000008 400.65 140.75 457.34 629.44 622.78 400.72 782.20 354.22 795.83 480.54 673.56 615.72 817.36 577.52
00020937 00000009 402.09 152.41 454.74 623.69 624.73 404.95 778.98 359.55 795.28 489.15 669.92 621.23 809.23 584.96
00020938 00000010 405.40 153.30 448.71 628.64 624.63 404.16 780.00 363.09 792.47 493.27 674.77 628.47 810.00 595.65
00020939 00000011 403.60 145.62 450.45 633.50 627.86 403.53 782.10 364.20 795.16 496.12 686.61 632.94 813.46 601.40
00020940 00000012 405.53 146.38 451.53 627.21 628.75 403.25 783.36 365.03 795.31 494.67 695.82 632.83 818.52 601.96
00020941 00000013 405.22 143.44 451.44 631.31 629.12 402.95 784.37 365.02 795.91 494.89 697.54 634.36 820.26 603.56
00020942 00000014 404.27 146.40 451.21 636.46 627.29 406.35 784.20 364.94 797.25 498.82 689.84 637.92 817.45 604.74
00020943 00000015 406.95 142.05 449.13 642.65 628.29 410.98 785.66 367.49 798.90 502.53 688.77 641.82 817.99 606.99
00020944 00000016 405.11 142.40 450.25 642.84 629.35 415.67 785.16 369.24 801.78 507.66 692.28 646.54 819.45 609.51
00020945 00000017 407.40 144.50 449.84 638.53 630.71 418.26 785.56 369.07 803.43 508.18 692.59 646.02 820.16 606.85
00020946 00000018 408.33 144.85 450.00 636.89 631.77 416.69 786.17 368.61 802.34 506.06 692.19 642.81 820.10 604.30
00020947 00000019 405.83 142.85 452.05 637.54 630.22 417.22 785.22 368.33 800.21 507.40 688.36 642.35 816.47 603.23
00020948 00000020 404.89 147.28 451.74 636.28 629.03 419.85 784.45 370.80 800.38 510.06 685.46 644.65 814.97 605.72
00020949 00000021 406.06 151.18 449.13 638.48 629.46 423.45 786.78 372.65 804.16 514.78 686.51 651.27 817.20 611.08
00020950 00000022 406.91 145.98 447.99 649.89 630.71 429.36 787.33 374.71 806.45 520.02 685.48 658.69 815.86 615.89
00020951 00000023 407.10 147.54 446.84 648.95 632.07 432.55 789.21 379.97 804.88 526.18 683.13 661.01 812.71 620.03
00020952 00000024 408.77 149.06 444.33 645.16 629.63 431.28 786.39 378.06 802.85 526.38 679.79 658.24 810.58 616.46
00020953 00000025 407.27 154.63 447.31 635.53 627.74 427.58 785.41 374.66 803.24 522.44 674.70 650.57 810.23 609.15
00020954 00000026 404.15 152.13 450.18 637.26 626.66 425.34 785.67 373.79 800.38 521.39 674.10 648.27 811.40 607.44
00020955 00000027 404.04 147.51 448.84 643.59 624.02 424.33 785.13 374.35 796.53 521.54 672.16 649.37 810.30 609.63
00020956 00000028 403.67 146.15 446.37 649.35 622.22 429.72 780.92 376.41 794.40 524.68 667.23 653.14 807.07 610.98
00020957 00000029 404.59 152.26 445.73 650.95 618.91 433.73 779.30 382.51 789.81 527.61 666.45 659.30 805.97 619.04
00020958 00000030 405.52 154.36 445.26 651.85 620.59 437.24 780.08 385.73 790.42 533.14 668.33 662.52 806.74 621.94
00020959 00000031 406.27 153.41 445.88 654.92 622.15 438.36 782.41 388.14 791.51 535.71 670.66 663.39 809.85 623.69
00020960 00000032 407.47 153.89 446.65 658.53 622.60 437.26 783.26 388.47 789.60 536.08 675.00 667.73 811.42 628.92
00020961 00000033 407.48 144.13 447.44 667.80 622.58 436.04 783.30 388.37 787.27 534.46 679.46 668.67 814.01 630.43
00020962 00000034 407.05 144.90 445.69 666.97 622.56 435.63 782.85 386.84 789.14 534.36 679.60 669.11 814.01 630.02
00020963 00000035 407.85 144.17 444.90 670.03 622.45 437.60 782.14 388.96 787.97 536.92 678.48 670.61 812.88 631.67
00020964 00000036 407.21 156.01 446.70 658.23 621.61 439.37 783.87 393.88 785.26 541.00 676.00 670.03 813.39 633.46
00020965 00000037 409.37 149.44 444.66 666.06 622.06 442.70 783.68 394.45 786.35 542.54 674.72 671.60 812.68 632.97
00020966 00000038 409.65 154.64 445.49 658.53 620.74 441.03 782.39 394.77 784.23 540.32 670.90 668.30 808.05 631.77
00020967 00000039 406.28 144.03 446.74 663.58 621.04 440.09 781.91 391.74 786.09 537.50 667.13 662.20 807.88 624.01
00020968 00000040 405.97 136.10 446.24 669.89 619.77 442.36 779.99 390.44 785.90 535.03 663.47 659.57 807.95 618.45
00020969 00000041 404.33 135.51 448.20 673.89 617.98 443.62 781.14 392.15 784.83 537.58 663.61 664.02 807.97 623.12
00020970 00000042 402.26 137.39 450.22 677.75 614.74 448.96 780.69 395.53 782.70 541.05 660.01 668.97 805.70 626.61
00020971 00000043 394.15 135.92 454.50 685.22 610.27 455.80 783.72 407.07 779.95 556.82 651.30 677.02 800.71 638.10
00020972 00000044 393.59 141.13 450.19 680.55 606.38 457.62 780.57 409.28 777.31 560.75 648.05 678.73 799.48 639.66
00020973 00000045 394.15 130.08 452.06 685.54 607.25 453.31 779.91 404.97 775.64 554.14 650.96 672.94 800.76 633.83
00020974 00000046 397.27 132.94 452.73 673.44 610.22 447.96 781.19 395.74 779.78 544.64 658.37 666.50 807.66 624.38
00020975 00000047 397.27 131.25 454.26 669.92 609.80 445.64 780.06 391.63 780.61 538.71 660.61 661.16 811.39 617.54
00020976 00000048 398.27 134.44 452.82 667.58 607.43 444.09 779.49 390.34 779.97 536.44 658.78 661.37 810.98 618.17
00020977 00000049 397.62 129.35 453.10 672.49 605.83 443.90 778.12 389.99 777.83 536.26 658.06 660.91 811.34 617.44
00020978 00000050 395.47 125.63 452.45 676.04 604.57 443.77 776.99 391.00 776.59 536.85 655.99 661.57 808.13 618.94
00020979 00000051 396.85 129.42 452.27 669.34 603.89 443.37 776.99 387.68 778.25 536.11 655.16 658.98 810.23 614.14
00020980 00000052 393.27 122.69 456.91 676.49 602.45 443.56 776.22 386.76 777.81 535.35 656.21 659.43 812.38 613.48
00020981 00000053 392.16 121.02 455.06 683.55 602.54 441.02 774.64 388.76 775.46 536.64 658.36 663.80 809.63 621.13
00020982 00000054 391.36 122.75 454.51 683.60 602.56 440.96 773.38 393.24 771.37 537.58 661.84 667.47 805.73 628.43
00020983 00000055 390.95 125.63 456.18 682.25 603.31 442.97 773.90 394.32 772.28 536.94 663.98 669.48 806.16 629.75
00020984 00000056 394.91 131.30 454.96 677.34 605.61 450.38 774.98 400.23 772.07 537.43 667.72 668.78 811.84 627.44
00020985 00000057 393.36 136.33 455.10 678.55 608.45 459.28 777.70 409.64 775.21 542.76 666.40 673.92 807.43 633.27
00020986 00000058 394.27 134.46 455.32 681.02 607.40 463.64 778.20 411.70 774.84 545.40 665.78 675.78 809.90 633.12
00020987 00000059 394.51 131.08 455.26 685.53 603.56 465.62 779.80 411.45 774.28 546.33 661.99 676.23 811.63 631.85
00020988 00000060 394.96 130.37 453.40 684.51 602.61 465.00 779.19 411.70 772.79 545.15 658.13 673.53 809.09 630.02
00020989 00000061 395.72 130.97 451.49 686.18 601.31 467.21 778.05 412.30 772.09 545.93 654.29 673.61 807.80 628.86
00020990 00000062 395.06 136.95 451.67 681.27 601.04 471.17 777.14 412.35 775.29 546.49 648.42 672.09 805.83 624.62
00020991 00000063 395.88 141.22 451.66 673.85 601.53 472.80 778.29 414.77 775.70 545.04 649.45 672.03 805.75 625.40
00020992 00000064 392.85 139.40 457.48 674.99 602.67 470.10 777.61 414.03 775.29 545.65 652.99 674.81 804.88 629.34
00020993 00000065 395.17 139.15 458.34 673.12 605.89 467.42 778.44 410.92 778.14 543.92 661.74 675.26 811.92 629.13
00020994 00000066 397.56 143.59 456.78 667.00 609.73 468.43 777.38 410.45 779.34 541.40 673.25 675.05 817.43 627.39
00020995 00000067 397.32 142.63 456.83 665.07 609.38 469.29 779.10 410.52 780.29 542.57 673.42 675.11 818.90 626.80
00020996 00000068 399.59 148.04 456.14 661.62 608.53 469.61 779.88 411.43 779.19 541.64 671.49 674.56 818.72 627.02
00020997 00000069 400.70 148.08 456.05 660.64 610.39 469.16 780.65 410.10 779.85 543.49 673.23 673.89 820.15 625.41
00020998 00000070 400.56 148.49 455.48 660.55 610.90 467.95 779.31 408.45 779.84 542.21 672.61 673.65 817.88 625.09
00020999 00000071 401.03 145.02 453.73 662.79 609.35 469.61 779.27 410.71 778.22 543.46 671.37 673.54 817.39 625.44
00021000 00000072 400.68 144.42 454.09 661.69 607.60 468.26 778.41 410.58 775.30 541.72 670.59 672.04 817.04 624.86
00021001 00000073 400.86 143.31 454.04 663.00 607.87 467.61 777.67 408.69 775.46 540.71 670.56 671.70 816.62 623.69
00021002 00000074 399.52 141.81 455.93 664.87 608.41 466.36 778.37 408.63 776.09 538.72 671.27 671.05 816.69 623.97
00021003 00000075 398.44 140.97 457.42 663.49 608.69 464.95 778.35 406.74 777.16 538.41 670.65 669.79 817.11 622.37
00021004 00000076 400.28 139.55 455.05 665.17 609.93 462.74 776.77 406.00 777.10 536.56 671.87 669.63 815.74 623.59
00021005 00000077 398.07 135.41 456.34 671.28 609.70 461.35 777.79 404.85 777.60 536.91 669.69 670.37 814.14 624.76
00021006 00000078 399.47 135.32 453.74 669.37 607.50 459.14 776.50 401.33 776.20 533.50 666.17 666.71 814.22 619.96
00021007 00000079 397.05 132.10 454.70 673.06 604.72 458.42 773.16 399.65 774.34 531.65 666.34 667.58 813.10 620.21
00021008 00000080 395.10 131.82 457.01 670.04 602.61 456.86 773.79 396.21 773.78 530.68 662.22 663.25 813.01 614.42
00021009 00000081 390.85 131.78 459.45 671.09 599.27 452.65 771.80 395.37 769.94 529.60 661.11 663.34 811.08 616.76
00021010 00000082 384.85 131.37 463.30 667.31 596.75 452.70 770.79 397.18 766.26 528.11 653.25 660.16 801.31 615.47
00021011 00000083 381.58 128.39 462.03 666.61 592.40 450.80 766.73 397.94 761.98 525.37 643.76 655.11 795.05 612.62
00021012 00000084 389.31 125.75 455.87 669.81 587.67 451.98 765.39 399.69 754.78 527.75 644.54 656.99 799.93 614.27
00021013 00000085 387.67 124.64 455.92 671.85 583.69 452.86 761.90 399.92 752.15 527.30 642.74 656.89 799.65 613.62
00021014 00000086 381.60 133.77 459.82 662.69 588.62 449.14 761.35 398.68 751.97 527.63 644.52 664.26 786.43 623.01
00021015 00000087 384.63 138.82 452.75 656.77 587.68 452.14 759.95 404.22 747.92 532.19 642.97 666.14 783.65 626.67
00021016 00000088 381.92 147.07 451.48 647.72 581.71 455.23 754.91 408.39 739.81 533.78 633.62 668.18 773.51 630.09
00021017 00000089 382.76 149.95 451.19 649.43 581.27 457.44 754.81 411.12 738.08 536.98 630.69 668.02 774.25 630.19
00021018 00000090 384.93 147.30 447.44 646.07 583.02 459.14 755.93 411.01 740.14 538.47 636.96 668.07 777.52 628.62
00021019 00000091 385.70 145.94 448.38 649.91 585.47 460.13 756.51 412.85 741.72 539.25 640.22 669.53 779.88 630.59
00021020 00000092 386.32 131.88 449.94 671.18 577.68 463.07 755.98 411.68 744.61 537.11 640.08 664.93 794.30 622.73
00021021 00000093 385.45 130.30 452.82 672.99 579.74 463.72 756.90 412.09 745.28 538.29 641.59 665.26 794.41 622.84
00021022 00000094 386.62 131.23 453.19 671.44 580.21 463.88 757.05 410.98 745.56 539.56 644.23 665.63 796.59 622.00
00021023 00000095 385.20 129.24 453.18 675.75 579.15 463.97 756.22 410.15 745.82 538.23 645.11 666.97 798.13 622.48
00021024 00000096 385.53 131.17 452.22 671.04 578.09 462.01 755.14 408.77 745.39 536.18 643.92 665.33 796.94 621.68
00021025 00000097 383.27 132.36 454.05 670.29 577.33 459.96 754.12 407.61 744.32 533.17 641.49 663.69 793.88 620.95
00021026 00000098 382.25 150.75 449.90 640.23 583.00 459.09 754.68 408.31 740.26 537.40 637.44 667.73 774.94 626.44
00021027 00000099 382.48 131.33 456.51 669.79 574.18 460.46 754.10 407.58 742.17 532.42 635.80 662.64 791.56 619.60
00021028 00000100 383.07 133.07 457.19 671.79 574.42 460.09 754.06 407.78 742.53 533.95 635.45 664.49 792.32 621.77
00021029 00000101 381.73 128.43 457.82 679.50 574.43 459.54 754.40 407.47 742.78 535.14 635.92 666.53 792.11 623.81
00021030 00000102 381.10 145.51 450.95 651.89 583.55 459.44 754.08 408.72 741.36 538.94 634.01 669.77 771.93 628.63
00021031 00000103 380.14 143.11 456.12 659.55 584.20 458.62 755.96 408.43 743.36 538.37 632.55 666.40 778.25 625.54
00021032 00000104 377.59 133.03 457.55 666.15 583.38 455.96 756.06 405.67 742.88 536.44 630.93 666.62 772.93 626.08
CROP_BBOX: 107 0 1158 971
