Video ID: 	8_qCadrMoO4
H: 	2160
W: 	3840
FPS: 	30.0

FRAME INDEX X0 Y0 W H [Landmarks (5 Points)]

00001316 00000000 1494.18 286.15 804.00 1178.17 1662.74 720.36 2045.94 676.67 1812.54 834.03 1698.00 1134.85 2034.02 1101.88
00001317 00000001 1496.14 287.69 802.31 1182.40 1664.60 719.67 2049.72 681.10 1816.96 846.44 1701.86 1137.96 2042.51 1107.85
00001318 00000002 1497.35 285.85 801.39 1185.73 1665.07 718.44 2052.08 682.85 1818.80 851.99 1702.01 1139.01 2045.65 1111.12
00001319 00000003 1495.31 287.48 804.78 1188.19 1666.57 716.61 2055.51 685.21 1821.49 856.31 1701.43 1137.35 2049.71 1112.27
00001320 00000004 1494.62 289.51 809.43 1187.79 1667.69 717.85 2057.89 689.72 1824.43 861.83 1702.23 1136.33 2053.18 1113.46
00001321 00000005 1495.51 286.04 812.30 1195.32 1669.04 720.78 2062.92 694.02 1828.32 868.48 1703.13 1141.08 2056.77 1119.10
00001322 00000006 1498.75 280.49 809.35 1210.51 1674.59 721.12 2068.13 693.91 1836.91 873.84 1709.10 1148.04 2059.69 1125.71
00001323 00000007 1497.44 275.70 814.27 1232.50 1677.09 711.12 2064.90 703.60 1839.15 874.99 1703.34 1142.78 2046.05 1137.93
00001324 00000008 1496.81 265.68 818.86 1250.85 1678.36 717.57 2069.41 707.80 1841.07 870.31 1704.86 1145.82 2051.19 1138.47
00001325 00000009 1504.32 275.42 817.39 1228.21 1684.99 736.53 2077.79 714.77 1845.03 867.13 1714.25 1149.36 2068.18 1132.21
00001326 00000010 1499.68 262.81 825.53 1255.88 1685.17 726.83 2086.48 710.03 1845.12 849.31 1705.92 1145.22 2065.99 1132.30
00001327 DELETE   1500.01 241.65 834.20 1283.31 1689.39 712.48 2096.02 697.48 1857.84 827.96 1711.19 1143.37 2069.19 1132.53
00001328 DELETE   1502.59 237.19 835.98 1270.49 1696.67 701.37 2101.56 686.99 1872.58 825.96 1723.09 1133.57 2070.17 1123.63
00001329 DELETE   1509.08 229.75 832.21 1270.68 1708.85 685.84 2112.17 680.30 1885.79 820.45 1730.40 1116.00 2082.84 1110.59
00001330 00000014 1510.65 229.49 839.51 1270.78 1715.83 668.79 2114.67 666.94 1891.15 819.94 1734.94 1103.05 2083.73 1100.28
00001331 00000015 1511.32 224.88 846.17 1275.19 1718.05 664.43 2119.79 662.09 1896.04 811.80 1736.75 1100.73 2089.60 1097.50
00001332 00000016 1508.89 223.30 857.02 1285.36 1719.52 660.88 2123.51 656.30 1896.79 800.13 1738.75 1105.40 2091.17 1100.70
00001333 00000017 1508.89 223.60 859.19 1286.59 1724.38 658.21 2125.05 656.45 1900.26 795.05 1744.26 1108.20 2083.79 1106.24
00001334 00000018 1510.14 231.50 855.83 1284.32 1728.22 669.67 2133.17 674.38 1898.87 791.35 1738.55 1104.89 2087.68 1108.81
00001335 00000019 1511.87 228.63 855.15 1289.70 1727.01 678.91 2134.20 683.64 1896.97 790.70 1735.60 1105.27 2092.57 1110.29
00001336 00000020 1507.36 208.50 857.71 1281.20 1723.67 669.09 2145.63 687.92 1894.82 808.94 1723.73 1102.57 2099.35 1119.65
00001337 00000021 1504.45 202.50 862.52 1276.73 1726.44 659.73 2143.54 687.40 1898.34 816.28 1721.36 1096.53 2093.65 1119.60
00001338 00000022 1511.21 216.66 855.88 1298.01 1725.05 659.09 2138.98 672.45 1908.13 814.38 1732.17 1106.45 2099.56 1115.71
00001339 00000023 1507.61 224.88 861.15 1291.33 1725.00 658.28 2132.30 670.69 1903.46 815.93 1734.82 1107.36 2089.78 1115.80
00001340 00000024 1510.66 224.49 858.65 1286.61 1725.09 657.31 2134.02 672.86 1905.49 821.14 1733.69 1105.73 2091.77 1116.58
00001341 00000025 1512.39 224.05 857.10 1274.61 1725.27 658.04 2134.82 673.83 1905.03 819.60 1732.87 1102.12 2089.74 1113.87
00001342 00000026 1511.36 224.19 858.79 1269.71 1725.04 656.51 2133.24 673.27 1904.00 821.45 1731.09 1098.72 2083.41 1111.60
00001343 00000027 1511.92 223.02 857.96 1268.70 1725.31 655.47 2132.44 672.90 1902.98 820.65 1730.72 1098.58 2078.81 1112.43
00001344 00000028 1511.94 223.26 857.95 1266.18 1725.95 655.77 2132.43 672.99 1903.54 820.98 1732.80 1100.35 2076.01 1114.21
00001345 00000029 1510.33 223.14 859.71 1271.04 1726.06 655.77 2133.59 674.27 1903.78 821.00 1731.11 1102.50 2073.60 1117.53
00001346 00000030 1508.61 224.92 861.24 1272.15 1727.83 656.61 2135.27 676.13 1905.68 822.77 1732.16 1106.07 2072.55 1122.14
00001347 00000031 1507.48 227.17 862.40 1275.66 1727.30 656.60 2132.68 675.68 1901.85 822.17 1730.27 1106.84 2068.63 1122.67
00001348 00000032 1506.57 227.94 863.24 1279.56 1726.59 655.52 2130.59 674.64 1898.32 822.49 1729.64 1105.27 2067.83 1120.80
00001349 00000033 1506.84 225.71 863.75 1280.74 1724.75 655.40 2132.50 673.23 1898.94 819.75 1727.18 1104.64 2073.62 1118.97
00001350 00000034 1507.04 226.39 864.29 1280.55 1725.28 653.88 2131.89 670.71 1899.19 818.86 1729.06 1102.53 2075.84 1115.76
00001351 00000035 1507.41 225.47 863.65 1279.00 1725.89 652.76 2130.88 668.95 1899.41 818.12 1732.06 1101.74 2076.36 1114.33
00001352 00000036 1509.26 224.75 859.84 1276.59 1726.39 651.08 2129.58 667.45 1898.39 812.79 1732.77 1100.96 2073.90 1114.11
00001353 00000037 1509.08 222.89 858.42 1280.05 1724.82 649.43 2129.02 663.28 1897.00 802.68 1734.20 1105.14 2070.09 1116.73
00001354 00000038 1507.35 223.52 857.63 1291.86 1724.25 648.90 2126.63 659.78 1894.26 796.23 1736.15 1114.04 2063.88 1123.26
00001355 00000039 1506.20 224.57 858.72 1294.23 1723.80 649.40 2127.25 659.65 1894.11 789.73 1734.40 1115.88 2066.16 1124.67
00001356 00000040 1507.82 225.66 855.94 1291.63 1724.52 647.94 2128.36 660.14 1895.30 786.22 1732.38 1113.02 2066.11 1123.41
00001357 00000041 1509.24 226.09 854.34 1283.75 1724.81 646.40 2127.73 658.66 1893.73 780.26 1731.49 1107.98 2063.10 1118.86
00001358 00000042 1510.62 222.23 853.30 1283.41 1726.64 643.92 2127.80 656.27 1895.63 779.19 1734.15 1103.56 2063.57 1114.46
00001359 00000043 1513.40 222.75 852.45 1275.40 1729.35 642.75 2132.26 657.92 1900.33 781.31 1736.38 1097.31 2070.67 1110.27
00001360 00000044 1510.78 205.43 857.91 1251.67 1729.64 638.67 2137.90 669.14 1897.64 797.71 1724.65 1088.87 2080.58 1114.43
00001361 00000045 1510.92 206.37 861.29 1247.91 1731.12 640.13 2140.40 672.79 1896.53 799.97 1719.53 1083.13 2080.47 1109.96
00001362 00000046 1513.06 205.17 858.85 1244.30 1732.51 645.93 2137.68 678.97 1895.86 804.04 1722.70 1081.83 2079.28 1108.73
00001363 00000047 1515.99 222.09 853.30 1232.95 1732.87 669.89 2149.14 697.97 1892.43 804.54 1722.76 1085.71 2086.42 1108.79
00001364 00000048 1519.65 225.02 850.46 1235.02 1730.45 677.48 2149.74 704.98 1891.03 808.85 1723.35 1089.35 2091.28 1112.82
00001365 00000049 1530.91 252.51 837.86 1224.50 1734.61 684.50 2142.31 706.65 1900.25 813.19 1728.42 1091.58 2087.93 1110.11
00001366 00000050 1528.37 254.81 843.00 1226.29 1737.28 684.59 2142.38 708.16 1905.70 821.87 1739.48 1105.54 2082.13 1124.17
00001367 00000051 1523.52 257.18 852.11 1234.31 1738.50 686.14 2144.51 709.59 1905.72 825.06 1739.25 1112.83 2076.71 1131.73
00001368 00000052 1520.76 254.05 852.87 1247.24 1742.27 684.30 2140.99 706.00 1910.94 831.72 1747.17 1123.34 2069.20 1140.85
00001369 00000053 1526.21 254.15 847.83 1256.02 1743.83 682.40 2139.01 702.77 1911.15 838.16 1751.80 1134.63 2066.64 1150.84
00001370 00000054 1531.90 255.06 844.24 1259.75 1746.79 678.79 2142.43 697.82 1913.37 834.72 1755.58 1139.00 2070.77 1154.02
00001371 00000055 1536.10 251.81 845.34 1267.82 1755.36 680.54 2147.44 700.00 1922.10 833.70 1761.96 1139.00 2077.78 1153.73
00001372 00000056 1540.47 248.12 847.48 1277.59 1760.26 679.53 2155.49 696.77 1931.36 830.14 1767.58 1141.06 2093.11 1153.09
00001373 00000057 1541.76 241.08 851.89 1278.32 1763.41 678.36 2161.86 694.72 1936.77 826.51 1772.87 1135.59 2100.29 1146.04
00001374 00000058 1546.42 233.41 849.43 1276.39 1765.09 676.99 2166.05 691.90 1941.84 823.49 1777.87 1130.59 2107.01 1139.78
00001375 00000059 1547.37 233.34 848.79 1271.82 1766.38 675.99 2168.89 692.47 1942.49 821.79 1776.96 1128.32 2106.71 1139.00
00001376 00000060 1548.50 233.67 848.33 1272.84 1766.87 676.00 2170.43 695.65 1942.52 824.12 1774.77 1129.75 2105.98 1142.75
00001377 00000061 1543.75 236.73 852.61 1275.05 1764.85 676.02 2169.80 700.09 1940.00 832.54 1768.77 1130.36 2105.05 1146.57
00001378 00000062 1537.22 239.59 856.52 1279.63 1763.09 680.47 2167.92 709.08 1937.59 840.28 1761.24 1132.89 2101.33 1153.02
00001379 00000063 1535.23 257.00 859.97 1269.74 1757.74 700.68 2169.72 730.05 1925.03 842.04 1752.71 1138.96 2105.91 1159.64
00001380 00000064 1531.11 254.04 862.79 1278.35 1749.09 707.52 2162.25 733.43 1918.90 848.86 1748.40 1147.16 2105.44 1165.14
00001381 00000065 1528.57 261.32 864.06 1272.27 1742.93 703.75 2161.08 732.55 1907.74 848.98 1737.26 1146.37 2094.64 1167.15
00001382 00000066 1528.25 248.19 859.97 1287.87 1743.24 696.16 2158.03 725.86 1912.65 855.23 1739.47 1148.90 2088.41 1170.92
00001383 00000067 1527.36 245.80 857.60 1286.92 1740.09 693.21 2151.09 722.08 1909.99 857.81 1736.53 1148.28 2084.16 1170.27
00001384 00000068 1526.52 245.14 858.56 1283.32 1741.85 686.84 2148.82 716.34 1909.75 853.62 1737.71 1142.15 2079.03 1164.89
00001385 00000069 1525.84 244.54 860.55 1273.03 1743.06 681.98 2149.76 709.76 1911.76 845.12 1740.82 1135.20 2080.70 1156.21
00001386 00000070 1526.00 236.82 859.42 1278.01 1747.68 675.60 2152.89 705.35 1918.97 842.81 1744.52 1126.55 2081.40 1148.98
00001387 00000071 1529.35 236.21 857.17 1272.41 1748.89 672.77 2154.82 704.89 1920.13 841.80 1743.63 1121.08 2081.60 1145.68
00001388 00000072 1530.06 237.66 857.60 1267.55 1751.09 669.12 2157.08 707.47 1920.22 841.47 1738.72 1114.75 2077.42 1145.05
00001389 00000073 1530.39 239.30 859.42 1263.38 1751.67 667.21 2156.04 707.01 1917.45 839.71 1735.62 1109.58 2077.07 1141.24
00001390 00000074 1531.24 242.56 857.49 1258.04 1749.69 663.75 2154.44 707.72 1912.12 840.22 1730.92 1104.32 2073.71 1139.66
00001391 00000075 1530.47 245.64 853.63 1253.26 1746.49 663.07 2149.01 707.83 1903.24 838.09 1726.42 1102.12 2065.38 1138.82
00001392 00000076 1529.02 247.81 849.40 1254.68 1742.12 664.02 2143.28 707.49 1894.37 834.53 1722.00 1106.43 2055.47 1142.57
00001393 00000077 1527.48 249.52 847.49 1252.59 1736.09 663.89 2139.05 705.47 1886.42 830.03 1717.15 1108.57 2047.03 1143.74
00001394 00000078 1526.43 253.36 846.82 1249.40 1732.10 664.69 2136.82 704.27 1880.05 829.17 1712.13 1109.28 2044.90 1143.21
00001395 00000079 1524.89 251.21 845.61 1250.35 1731.36 662.20 2136.06 701.99 1877.38 823.63 1707.70 1106.35 2040.71 1140.94
00001396 00000080 1525.05 247.48 843.70 1253.47 1732.49 659.73 2138.11 702.62 1878.25 819.84 1702.72 1102.50 2039.26 1140.04
00001397 00000081 1524.80 257.79 842.79 1239.57 1727.73 678.46 2135.02 717.04 1863.46 810.54 1696.31 1103.24 2043.08 1137.18
00001398 00000082 1527.14 256.95 839.20 1234.04 1720.99 681.79 2129.72 715.44 1852.11 804.44 1690.25 1103.88 2037.60 1134.16
00001399 00000083 1525.21 256.38 833.47 1225.26 1711.31 681.75 2114.16 710.63 1838.80 796.66 1684.53 1099.39 2024.44 1126.90
00001400 DELETE   1519.62 243.91 837.58 1235.23 1703.69 676.74 2105.85 705.58 1825.07 791.88 1665.86 1094.05 1999.58 1122.15
00001401 DELETE   1511.16 231.36 843.78 1249.93 1698.37 666.62 2092.69 703.69 1816.76 796.51 1655.53 1087.17 1978.00 1122.74
00001402 00000086 1504.90 230.90 848.28 1267.06 1695.76 660.76 2088.05 704.71 1807.40 798.49 1644.55 1088.60 1966.63 1131.15
00001403 00000087 1501.26 226.86 848.17 1285.28 1693.26 662.44 2083.51 709.11 1801.72 802.43 1639.09 1094.11 1956.58 1139.70
00001404 00000088 1501.67 226.19 849.38 1290.37 1693.13 663.24 2081.76 711.13 1799.89 810.13 1640.61 1098.68 1955.92 1145.12
00001405 00000089 1506.51 225.01 846.16 1262.32 1694.62 665.53 2089.75 721.73 1782.34 834.66 1631.42 1103.79 1949.74 1155.01
00001406 00000090 1509.45 229.73 845.70 1259.96 1699.31 666.74 2088.94 721.98 1786.78 839.75 1637.91 1105.43 1951.94 1156.06
00001407 00000091 1511.54 226.41 847.59 1270.35 1700.46 667.41 2092.79 720.42 1789.21 843.42 1640.67 1113.03 1953.74 1161.86
00001408 00000092 1505.90 229.95 852.69 1300.68 1695.71 659.40 2095.14 709.41 1812.18 829.49 1652.16 1118.60 1967.11 1165.54
00001409 00000093 1503.58 229.77 853.80 1306.67 1697.68 659.23 2093.86 705.84 1813.13 830.31 1655.37 1123.19 1962.26 1167.53
00001410 00000094 1502.34 227.15 853.28 1314.43 1701.30 657.92 2094.35 703.64 1815.51 832.81 1658.29 1123.32 1962.78 1166.52
00001411 00000095 1495.56 201.16 871.00 1351.63 1710.36 689.09 2100.97 713.76 1823.47 849.26 1668.65 1146.26 1973.86 1167.38
00001412 00000096 1501.03 244.55 851.42 1288.70 1696.77 695.86 2098.37 734.09 1823.32 840.97 1663.71 1131.07 1993.31 1166.69
00001413 00000097 1496.62 206.43 871.95 1342.33 1704.78 710.37 2105.50 735.50 1826.56 864.92 1666.72 1153.16 1993.35 1173.07
00001414 00000098 1497.43 211.51 865.83 1341.67 1704.27 705.26 2106.15 735.43 1829.38 872.04 1671.26 1156.49 1999.37 1180.65
00001415 00000099 1496.90 234.81 846.34 1310.45 1700.14 695.93 2102.55 739.19 1840.08 873.12 1670.88 1148.52 2012.28 1186.66
00001416 00000100 1498.79 235.59 844.07 1308.74 1701.01 692.87 2098.92 732.02 1840.91 876.98 1674.42 1148.13 2012.93 1182.99
00001417 00000101 1496.45 234.38 846.12 1309.19 1700.67 687.49 2102.69 726.08 1845.07 874.43 1675.97 1144.53 2020.36 1178.18
00001418 00000102 1498.31 231.82 846.43 1312.88 1702.14 681.93 2104.54 723.16 1846.90 871.65 1675.37 1142.63 2019.90 1178.46
00001419 00000103 1497.39 231.56 848.10 1310.15 1702.85 679.57 2107.34 720.67 1850.24 864.57 1675.68 1140.07 2021.44 1176.19
00001420 00000104 1499.44 234.36 846.81 1304.99 1705.35 676.47 2110.86 718.08 1853.08 860.59 1677.04 1136.93 2021.91 1173.55
00001421 00000105 1501.76 233.40 846.91 1302.30 1707.48 674.64 2111.29 715.33 1855.18 856.13 1680.68 1131.72 2023.17 1167.39
00001422 00000106 1506.06 231.95 844.68 1301.43 1710.33 675.03 2114.68 714.66 1857.87 855.75 1683.77 1130.65 2028.37 1165.33
00001423 00000107 1509.38 235.88 842.24 1293.26 1711.01 675.25 2115.99 712.80 1858.57 848.02 1685.24 1127.65 2029.32 1160.95
00001424 00000108 1514.67 249.74 838.50 1271.59 1715.15 689.00 2125.47 726.68 1857.09 839.93 1687.89 1122.87 2037.28 1155.94
00001425 DELETE   1523.66 261.60 838.75 1256.02 1722.14 700.52 2127.48 736.25 1862.12 834.43 1695.99 1119.76 2046.70 1150.19
00001426 DELETE   1528.75 273.18 835.96 1225.98 1729.99 699.10 2130.75 730.79 1869.32 824.04 1707.41 1111.76 2049.52 1139.65
00001427 DELETE   1541.34 269.27 827.62 1212.14 1741.61 684.89 2145.53 722.81 1888.92 826.61 1719.83 1098.47 2067.16 1130.79
00001428 00000112 1548.72 265.47 823.86 1206.82 1747.51 678.71 2147.79 712.59 1899.73 827.31 1731.83 1092.67 2080.97 1121.00
00001429 00000113 1552.96 268.66 822.91 1193.13 1755.32 679.18 2151.57 713.81 1908.77 825.22 1740.73 1091.92 2082.78 1121.29
00001430 00000114 1552.08 291.13 824.19 1170.87 1758.23 683.19 2150.58 721.43 1903.51 824.18 1741.49 1089.36 2083.08 1120.98
00001431 00000115 1550.80 302.30 824.23 1157.54 1752.99 699.99 2142.85 722.13 1899.01 825.21 1746.79 1088.62 2100.04 1105.72
00001432 00000116 1549.04 299.62 821.14 1165.81 1750.31 703.10 2137.82 721.74 1897.48 829.62 1747.60 1089.42 2101.55 1103.67
00001433 DELETE   1548.00 302.31 814.35 1167.34 1739.06 707.60 2129.85 720.80 1889.29 830.87 1742.84 1105.93 2094.48 1116.01
00001434 DELETE   1544.10 310.63 812.57 1158.95 1728.57 709.33 2116.88 716.65 1882.63 841.77 1742.89 1113.50 2087.05 1118.71
00001435 00000119 1539.87 309.00 805.95 1170.61 1719.83 715.19 2108.27 718.02 1875.29 850.45 1739.19 1123.31 2080.62 1125.48
00001436 00000120 1534.48 303.98 807.11 1185.81 1710.34 718.27 2093.97 715.55 1866.21 860.19 1735.73 1136.52 2066.47 1134.94
00001437 00000121 1527.97 303.37 809.14 1189.65 1700.64 721.42 2083.34 714.56 1855.32 859.81 1731.47 1142.45 2060.18 1137.62
00001438 00000122 1525.92 307.31 803.85 1174.95 1697.87 719.07 2080.45 714.32 1849.41 859.53 1723.63 1135.10 2052.50 1132.69
00001439 00000123 1523.10 313.86 799.08 1164.92 1690.92 713.06 2077.54 709.40 1841.35 851.44 1711.61 1128.84 2043.61 1127.97
00001440 00000124 1520.62 312.27 796.67 1165.21 1687.89 712.37 2072.12 709.62 1835.97 851.43 1707.17 1128.19 2035.06 1128.66
00001441 00000125 1518.26 312.50 792.08 1167.91 1681.80 709.80 2068.26 705.32 1830.95 850.99 1702.66 1127.73 2037.30 1126.36
00001442 00000126 1512.78 306.73 790.42 1177.69 1678.16 715.51 2066.43 689.41 1825.41 840.86 1700.18 1139.29 2039.53 1121.95
00001443 00000127 1509.97 317.00 789.84 1164.89 1672.25 715.59 2058.79 685.35 1816.00 839.96 1696.92 1140.78 2034.61 1119.55
00001444 00000128 1504.56 319.48 784.52 1149.60 1663.37 717.65 2046.52 681.37 1804.30 831.00 1689.34 1136.09 2027.58 1110.78
00001445 00000129 1498.49 320.61 785.26 1143.57 1658.97 713.41 2036.50 678.64 1795.03 825.02 1677.77 1120.65 2020.43 1097.06
00001446 00000130 1488.75 314.58 788.79 1135.85 1648.36 711.35 2027.20 678.73 1782.38 817.46 1664.85 1110.40 2011.31 1088.43
00001447 00000131 1481.94 317.52 790.26 1130.14 1641.48 709.40 2019.17 675.91 1772.40 811.56 1657.68 1109.38 2000.81 1086.65
00001448 00000132 1479.66 316.31 790.33 1136.47 1636.60 711.27 2015.16 673.53 1768.02 812.47 1656.89 1114.40 2000.22 1088.48
00001449 00000133 1478.31 317.19 789.19 1144.95 1636.54 712.41 2016.68 675.73 1770.12 813.29 1659.93 1122.80 2002.28 1097.69
00001450 00000134 1480.99 314.12 787.57 1147.25 1642.13 714.09 2023.42 677.44 1781.46 815.32 1666.60 1124.75 2008.64 1099.53
CROP_BBOX: 829 0 3085 2055
