Video ID: 	VHa3__1BzTw
H: 	1080
W: 	1920
FPS: 	25.0

FRAME INDEX X0 Y0 W H [Landmarks (5 Points)]

00007832 00000000 927.09 138.05 470.68 720.47 1084.93 393.65 1299.96 364.05 1264.64 514.23 1133.10 665.56 1326.95 640.04
00007833 00000001 927.62 146.02 467.98 710.45 1084.55 392.07 1300.90 366.81 1262.77 514.69 1130.93 667.39 1319.87 646.24
00007834 00000002 927.25 155.58 464.14 702.17 1078.36 396.82 1297.54 376.88 1250.28 523.20 1126.55 672.60 1313.77 655.54
00007835 DELETE   925.64 165.01 465.16 701.45 1071.86 403.56 1293.49 383.77 1229.34 532.62 1116.77 678.17 1301.89 658.23
00007836 00000004 926.46 168.29 461.07 697.09 1062.48 403.75 1289.80 395.97 1208.82 539.50 1102.26 678.58 1281.22 669.69
00007837 00000005 910.32 158.92 478.57 729.71 1052.42 421.11 1279.15 398.64 1200.40 547.02 1099.58 698.16 1276.90 677.31
00007838 00000006 898.52 164.49 479.93 725.71 1033.37 422.93 1261.62 402.41 1179.31 546.67 1082.97 699.95 1263.42 680.16
00007839 DELETE   893.24 175.27 482.90 706.58 1014.26 422.16 1254.44 408.68 1158.56 556.53 1059.74 699.59 1247.67 686.26
00007840 00000008 888.00 173.24 482.60 718.51 1005.54 430.19 1244.02 408.97 1149.44 563.44 1055.95 708.61 1248.32 688.79
00007841 00000009 885.06 178.58 484.30 716.64 998.42 433.61 1239.05 409.16 1144.51 569.77 1048.55 712.63 1247.47 690.41
00007842 00000010 892.36 178.89 477.47 699.01 999.99 433.55 1242.81 409.16 1149.45 570.89 1054.54 712.11 1249.40 689.85
00007843 00000011 890.77 172.83 486.98 719.30 1010.46 437.19 1250.28 411.50 1162.93 574.86 1061.78 712.33 1258.47 689.11
00007844 00000012 890.17 178.55 484.86 714.46 1006.72 439.45 1247.70 412.95 1160.13 578.05 1058.02 714.75 1256.93 691.26
00007845 00000013 878.43 169.94 486.14 721.62 995.67 440.79 1232.69 415.49 1138.88 580.18 1049.48 716.97 1240.13 694.32
00007846 00000014 866.05 166.45 492.39 721.15 980.81 439.97 1220.45 417.50 1120.88 582.08 1033.60 714.81 1226.41 694.62
00007847 00000015 856.24 168.33 495.77 716.57 966.43 440.61 1208.40 419.67 1103.41 583.69 1017.43 709.53 1215.82 690.83
00007848 00000016 850.53 162.26 493.02 723.72 956.05 439.98 1197.14 418.67 1090.14 583.91 1007.08 710.07 1202.29 691.28
00007849 DELETE   842.70 155.30 519.69 736.60 945.44 433.72 1196.85 412.43 1079.58 581.55 1001.75 714.29 1202.69 697.44
00007850 00000018 834.76 159.74 502.82 733.77 938.77 437.95 1180.95 410.90 1074.86 581.86 995.72 711.47 1198.30 689.06
00007851 00000019 823.60 153.45 510.92 740.98 929.47 441.13 1171.96 411.63 1060.96 579.61 985.77 706.66 1194.36 681.77
00007852 DELETE   809.36 158.80 512.56 708.72 907.68 430.41 1163.47 400.92 1036.87 572.49 969.97 703.89 1170.97 676.78
00007853 DELETE   791.13 154.44 517.81 741.59 897.11 445.36 1141.28 407.95 1027.07 575.33 955.00 707.21 1167.30 674.11
00007854 DELETE   781.27 153.27 514.41 744.84 874.87 444.79 1115.54 410.20 1004.15 591.76 938.29 709.17 1155.19 680.41
00007855 00000023 761.89 148.95 518.72 759.52 858.20 449.64 1100.03 415.22 983.26 592.91 915.82 714.76 1136.64 685.60
00007856 00000024 747.65 147.39 512.52 763.96 840.30 450.36 1086.00 420.14 960.60 600.01 895.77 721.26 1112.26 693.79
00007857 00000025 736.20 146.95 515.12 764.81 828.97 457.29 1075.87 418.40 955.01 604.07 889.99 729.35 1108.21 695.68
00007858 00000026 723.47 153.74 525.58 769.06 826.63 456.23 1074.27 422.16 956.91 609.34 888.06 732.99 1104.76 702.32
00007859 00000027 716.73 155.89 528.19 774.82 826.06 460.27 1076.52 422.32 964.30 613.03 890.65 738.10 1109.77 704.59
00007860 00000028 711.73 157.92 529.83 766.76 820.49 468.54 1072.60 421.28 965.42 611.32 892.97 747.56 1108.12 704.02
00007861 00000029 711.41 169.55 521.13 743.99 810.99 467.22 1062.37 426.30 953.17 610.61 881.28 737.36 1097.09 702.37
00007862 00000030 706.13 167.46 519.19 746.87 800.44 464.81 1050.31 428.11 933.64 612.36 865.32 732.39 1084.81 701.12
00007863 00000031 703.28 167.64 513.38 754.54 795.49 463.81 1042.78 429.96 925.29 613.16 855.83 732.85 1076.63 704.02
00007864 00000032 698.10 161.12 517.36 771.69 788.21 464.97 1034.56 430.79 912.86 614.76 849.92 741.65 1066.29 712.78
00007865 00000033 689.86 157.07 526.16 774.75 779.49 466.18 1024.69 433.46 896.66 615.15 840.75 738.46 1058.02 710.35
00007866 00000034 686.25 153.04 528.98 772.46 775.75 464.54 1020.96 429.79 893.50 612.53 838.93 735.62 1054.58 705.58
00007867 00000035 686.77 151.51 531.18 772.54 775.76 463.44 1022.22 426.66 895.07 607.62 839.11 732.84 1058.88 700.71
00007868 00000036 693.97 149.07 529.09 778.54 779.65 460.76 1021.82 417.86 900.38 599.54 845.59 732.88 1067.84 696.66
00007869 00000037 685.48 147.61 537.27 784.20 777.52 455.03 1020.24 413.42 894.84 591.62 841.04 729.78 1062.93 694.52
00007870 00000038 681.45 142.27 535.66 789.70 770.40 452.60 1015.03 411.46 885.40 588.25 832.52 731.25 1054.17 696.28
00007871 00000039 667.46 143.55 540.47 780.08 761.07 448.01 1005.88 412.76 867.02 595.29 817.33 730.33 1040.17 700.30
00007872 00000040 666.33 138.84 545.29 798.64 750.36 463.37 996.86 419.79 860.15 604.74 814.02 739.37 1042.86 701.33
00007873 00000041 661.26 142.54 548.68 802.42 747.92 470.29 990.75 428.79 852.77 612.97 810.06 747.47 1034.48 711.20
00007874 00000042 656.86 151.31 550.67 791.23 748.02 469.12 992.27 431.20 856.76 622.41 813.43 749.89 1033.09 716.82
00007875 00000043 653.53 153.11 553.97 791.51 747.19 473.30 993.99 433.41 860.33 627.14 817.04 753.89 1037.45 718.82
00007876 00000044 651.86 152.37 557.16 789.33 745.87 475.44 993.40 433.50 862.33 629.97 819.36 754.08 1039.82 717.11
00007877 00000045 652.00 151.89 557.33 787.69 745.52 477.06 993.62 435.03 862.67 632.41 819.48 753.95 1039.86 717.00
00007878 00000046 649.56 149.84 556.26 789.10 744.53 476.26 993.45 436.63 862.00 633.51 817.29 753.61 1036.51 718.94
00007879 00000047 649.96 151.13 554.18 788.78 743.40 476.13 992.96 437.51 859.35 634.00 816.10 756.10 1033.39 722.75
00007880 00000048 648.01 150.63 551.18 786.26 740.08 474.98 988.08 438.12 854.31 635.10 811.19 754.26 1028.37 722.61
00007881 00000049 648.65 147.07 551.04 794.44 736.42 478.99 984.56 436.79 846.10 632.43 803.35 755.99 1026.38 719.27
00007882 00000050 649.38 145.79 550.11 788.42 735.38 475.00 982.32 434.56 842.74 628.44 800.87 750.69 1021.57 715.48
00007883 00000051 648.43 142.77 553.44 783.04 734.79 470.19 982.85 431.62 841.82 624.54 799.42 744.23 1021.34 710.33
00007884 00000052 648.54 138.24 553.15 791.33 735.15 468.08 981.10 428.30 842.97 621.19 800.46 741.85 1022.81 706.83
00007885 00000053 645.11 136.91 558.73 803.73 734.70 463.00 981.32 421.91 844.10 617.95 802.63 744.53 1025.28 708.47
00007886 00000054 644.07 134.78 557.13 810.46 733.42 462.12 979.71 419.76 842.97 616.99 801.67 745.87 1024.79 708.79
00007887 00000055 639.55 135.84 554.07 808.63 728.09 462.82 972.96 421.20 836.61 617.92 794.82 746.08 1014.71 709.62
00007888 00000056 628.58 124.27 553.68 806.76 720.20 465.28 968.01 420.55 837.02 619.70 794.38 752.32 1004.71 712.56
00007889 00000057 629.95 131.07 550.48 805.82 720.72 467.00 968.98 422.61 839.35 623.29 795.20 755.89 1005.80 716.08
00007890 00000058 639.95 138.57 547.66 805.06 730.27 469.05 975.79 425.61 848.71 626.54 805.65 757.64 1014.00 718.17
00007891 00000059 653.65 143.56 545.04 800.22 744.33 475.06 986.79 434.90 856.57 629.23 815.14 756.29 1025.10 720.81
00007892 00000060 674.59 160.82 536.09 770.04 759.68 477.29 999.54 437.02 872.48 631.23 833.00 751.81 1039.29 716.88
00007893 00000061 684.55 164.27 533.73 764.84 769.19 478.70 1006.56 439.82 878.63 634.50 840.36 750.62 1045.73 716.51
00007894 00000062 696.58 163.57 530.74 762.56 774.17 478.18 1008.81 437.73 880.51 635.37 846.30 750.02 1050.36 714.33
00007895 00000063 712.34 161.05 527.71 759.54 789.24 478.15 1022.06 435.12 893.19 625.45 861.78 748.84 1059.85 710.60
00007896 DELETE   730.92 159.10 535.53 756.25 817.12 469.39 1049.85 429.64 925.82 614.98 888.09 736.68 1084.08 701.14
00007897 DELETE   763.01 151.12 522.41 760.77 851.99 460.90 1086.26 415.17 973.02 593.41 921.46 727.18 1123.52 689.25
00007898 00000066 767.83 156.01 525.14 745.91 874.97 454.14 1110.71 404.86 1001.10 579.77 948.21 721.28 1140.56 676.55
00007899 00000067 778.15 157.18 512.68 738.34 882.21 446.14 1118.67 401.73 1010.67 574.60 950.67 713.89 1143.96 673.55
00007900 00000068 777.51 154.09 510.88 739.32 882.57 442.05 1117.69 398.15 1009.44 566.86 949.96 712.01 1141.05 672.13
00007901 00000069 776.19 152.93 508.72 737.80 879.03 440.04 1114.54 398.51 1002.19 565.03 942.77 709.57 1135.49 671.61
00007902 00000070 775.34 147.78 510.20 745.32 864.42 437.67 1098.96 401.55 985.24 566.96 929.54 703.04 1135.17 673.05
00007903 00000071 764.22 145.64 512.98 744.56 854.33 438.92 1090.94 405.89 968.16 566.72 911.59 701.13 1121.11 673.34
00007904 00000072 760.67 148.80 507.07 732.91 847.27 442.39 1082.72 409.84 955.13 572.93 900.51 701.88 1107.25 674.50
00007905 00000073 763.72 151.49 496.75 732.93 842.47 445.34 1076.24 416.29 946.24 580.85 891.30 705.54 1094.84 680.99
00007906 00000074 764.63 154.85 489.33 738.04 839.67 452.17 1072.40 428.59 940.25 596.66 884.69 713.32 1087.71 693.14
00007907 00000075 753.78 164.41 497.64 739.53 834.90 460.53 1066.50 436.41 938.52 608.24 885.96 725.72 1085.53 704.15
00007908 00000076 756.36 166.91 501.31 749.18 838.01 464.52 1069.09 441.04 937.22 611.47 887.91 730.07 1091.97 708.72
00007909 00000077 760.91 172.55 496.66 744.29 844.62 461.71 1076.29 441.34 946.86 611.65 892.11 727.84 1097.16 709.26
00007910 00000078 758.60 166.66 493.85 746.87 846.92 455.96 1080.90 434.87 953.81 603.47 894.87 726.35 1098.76 707.33
00007911 00000079 754.95 164.22 493.92 746.26 845.98 452.04 1080.63 429.88 955.13 596.29 894.93 723.74 1096.33 703.83
00007912 00000080 745.95 165.80 487.53 722.34 835.64 447.89 1069.38 419.90 944.56 582.23 886.61 713.88 1079.78 689.01
00007913 DELETE   730.79 165.87 497.22 712.65 813.44 448.16 1046.79 417.17 918.32 576.74 868.31 707.74 1061.31 681.02
00007914 00000082 720.78 156.33 495.14 717.90 793.93 443.57 1029.33 412.73 900.11 572.29 846.61 702.37 1047.93 677.40
00007915 00000083 707.37 154.65 502.86 717.45 784.49 445.45 1019.11 414.35 887.31 572.73 837.13 701.71 1037.14 676.32
00007916 00000084 704.81 153.26 503.48 730.76 780.27 448.06 1013.73 416.35 882.32 584.02 834.38 709.53 1034.19 683.47
00007917 00000085 690.96 165.57 516.58 730.36 777.56 457.20 1012.20 429.17 879.04 600.90 832.04 722.81 1034.47 698.32
00007918 00000086 690.00 171.24 516.66 742.99 774.83 464.10 1009.90 437.15 873.79 620.17 827.37 734.49 1037.04 710.58
00007919 00000087 687.32 176.82 521.24 743.73 769.71 471.17 1006.64 444.88 866.66 631.34 820.54 739.19 1034.35 715.73
00007920 00000088 685.77 179.56 521.33 741.26 763.07 476.45 999.73 449.33 857.01 638.49 812.77 738.65 1033.18 714.00
00007921 00000089 684.17 179.97 523.28 746.62 760.16 484.68 992.75 456.76 849.33 643.66 807.50 740.36 1032.42 714.50
00007922 00000090 679.85 180.68 527.78 749.87 756.52 493.87 988.17 465.62 843.95 649.87 804.08 744.91 1029.50 718.57
00007923 00000091 680.15 186.64 526.43 749.05 753.88 497.57 985.49 469.48 839.49 658.14 804.56 747.01 1029.96 720.73
00007924 00000092 682.16 192.00 525.51 745.16 755.96 499.27 985.08 472.61 839.28 660.60 808.96 749.82 1027.64 725.21
00007925 00000093 689.89 190.69 526.34 743.89 764.63 499.96 990.63 474.04 845.78 658.02 817.94 752.91 1028.70 729.41
00007926 00000094 701.38 187.11 530.90 763.52 779.76 495.32 1004.93 469.36 861.34 652.62 834.59 759.32 1040.18 735.78
00007927 00000095 724.21 177.18 519.50 777.26 801.27 491.43 1028.02 463.55 887.01 642.90 855.67 765.44 1058.45 740.54
00007928 00000096 741.36 170.75 513.99 774.28 817.52 484.64 1048.99 456.67 913.42 634.66 876.13 765.12 1069.96 740.91
00007929 00000097 760.09 173.98 506.94 770.49 836.10 476.91 1063.98 454.70 929.75 626.29 891.58 760.79 1070.68 742.59
00007930 00000098 757.78 174.61 517.68 777.06 852.75 460.93 1090.95 440.26 958.79 618.81 911.91 768.21 1084.40 751.96
00007931 00000099 769.16 177.01 515.42 778.88 870.46 456.67 1107.42 438.03 978.95 615.11 926.28 767.33 1094.79 752.55
00007932 00000100 777.30 178.73 513.74 769.42 879.83 450.43 1118.09 431.67 993.33 608.62 932.76 758.50 1103.82 743.42
00007933 00000101 773.29 164.90 512.06 772.65 875.00 449.27 1113.50 430.22 987.81 602.62 929.52 748.64 1112.79 732.26
00007934 00000102 765.24 149.55 516.67 768.25 864.71 447.50 1106.07 426.67 976.69 598.37 917.71 734.72 1110.63 716.70
00007935 00000103 765.47 143.37 520.63 770.05 854.30 448.15 1092.31 419.16 963.07 592.73 909.39 728.63 1103.81 705.40
00007936 00000104 758.49 139.09 522.24 775.96 838.25 452.89 1075.39 417.63 939.75 590.13 895.99 730.39 1094.08 701.55
00007937 00000105 737.55 143.12 543.27 762.50 816.13 460.02 1052.98 421.61 912.96 595.11 881.80 731.52 1074.37 697.75
00007938 00000106 732.37 137.94 545.74 761.84 805.69 462.51 1040.67 419.62 900.16 594.40 873.03 729.18 1066.85 691.36
00007939 DELETE   732.87 137.72 541.57 759.56 805.54 473.37 1039.19 425.55 898.33 597.90 869.10 730.06 1075.96 688.96
00007940 DELETE   728.25 131.87 558.30 773.81 813.33 470.41 1049.79 424.00 911.43 593.91 880.63 733.64 1076.42 693.14
00007941 00000109 747.03 138.86 555.25 772.06 827.22 471.15 1061.64 422.38 926.34 596.72 897.37 734.77 1100.94 693.82
00007942 00000110 759.14 132.11 551.73 780.65 839.63 467.12 1074.36 419.30 940.21 593.52 910.20 738.10 1109.81 697.96
00007943 00000111 754.96 129.48 551.38 784.46 838.83 457.06 1084.80 409.30 946.02 594.24 908.45 742.88 1119.07 701.35
00007944 00000112 760.90 124.80 553.87 795.72 848.25 454.66 1093.05 408.10 957.93 592.84 921.39 744.72 1129.80 703.66
00007945 00000113 773.96 130.23 553.70 803.42 864.02 460.00 1105.33 411.93 970.42 596.75 935.85 750.18 1139.94 708.82
00007946 00000114 779.60 126.40 554.66 792.87 873.04 453.86 1117.23 412.04 988.38 595.76 947.40 747.87 1146.61 710.96
00007947 00000115 792.80 137.77 546.02 775.55 877.01 460.36 1123.54 419.60 988.45 606.82 945.26 740.50 1151.87 705.38
00007948 00000116 797.01 139.09 542.60 773.68 879.05 460.27 1125.47 423.71 988.00 610.41 942.72 739.48 1151.83 707.83
00007949 00000117 799.51 141.55 540.75 771.69 879.26 461.56 1126.01 425.48 988.01 612.10 941.86 741.14 1150.16 710.12
00007950 00000118 801.20 140.44 541.46 773.20 878.95 462.71 1125.36 426.52 985.39 615.07 940.63 742.17 1150.05 711.11
00007951 00000119 798.28 141.91 546.73 777.35 879.45 460.92 1123.69 423.95 986.68 612.23 945.05 742.14 1149.58 710.49
00007952 00000120 790.59 137.50 558.55 782.86 880.35 457.61 1122.81 420.07 989.03 606.87 953.64 743.51 1148.89 710.70
00007953 00000121 787.97 137.55 561.04 783.23 880.43 456.42 1122.79 419.21 989.98 606.03 955.55 743.28 1148.23 710.58
00007954 00000122 786.81 133.19 555.35 789.19 881.25 455.06 1122.77 418.13 991.07 603.88 956.57 743.11 1145.87 710.69
00007955 00000123 784.40 129.25 558.48 793.97 882.47 451.02 1124.19 415.95 991.96 600.77 957.98 741.04 1143.72 710.34
00007956 00000124 786.33 131.92 555.27 784.27 882.60 447.80 1125.79 415.06 991.23 600.13 954.79 734.90 1142.80 706.01
00007957 00000125 787.01 129.14 550.64 780.30 881.65 445.69 1124.95 414.65 989.10 597.62 948.84 729.39 1138.97 701.93
00007958 00000126 787.12 127.33 546.54 779.70 879.05 445.77 1118.67 414.94 983.43 595.23 940.73 726.07 1133.79 698.74
00007959 00000127 784.17 124.28 546.29 784.87 874.82 447.61 1113.35 414.46 978.30 596.56 934.98 727.15 1134.54 697.50
00007960 00000128 778.53 122.35 550.07 794.05 866.04 450.67 1106.02 415.12 969.00 599.31 928.44 733.97 1133.24 702.17
00007961 00000129 766.96 117.68 554.47 809.09 854.92 455.15 1096.89 415.77 955.92 598.39 918.03 743.92 1126.49 709.10
00007962 00000130 758.10 128.22 554.39 799.23 840.69 459.25 1086.17 419.68 940.66 606.68 904.05 742.65 1120.44 707.34
00007963 00000131 751.80 135.82 551.99 784.62 831.77 466.86 1073.75 423.31 932.67 612.37 901.53 743.15 1112.42 706.00
00007964 00000132 742.65 131.76 553.76 794.29 822.75 464.63 1069.90 424.32 923.46 614.56 886.91 744.80 1110.30 708.65
00007965 00000133 736.74 136.33 560.25 789.49 818.81 467.83 1065.44 427.44 920.12 618.83 886.04 747.12 1108.06 710.92
00007966 00000134 734.97 139.14 562.32 791.63 818.66 470.12 1065.73 428.26 922.25 621.77 885.96 748.36 1111.06 710.70
00007967 00000135 741.34 143.03 556.21 784.25 825.26 476.51 1067.95 430.49 931.98 622.41 898.53 746.54 1116.68 706.47
00007968 00000136 750.23 141.51 550.15 784.89 835.10 471.90 1078.32 426.61 944.18 619.47 906.68 742.02 1124.98 702.29
00007969 00000137 758.20 141.02 547.71 781.23 846.88 466.70 1090.91 424.51 958.44 616.37 915.94 738.74 1133.38 701.66
00007970 00000138 763.79 137.98 544.25 778.37 855.14 466.60 1097.97 424.73 967.64 612.18 921.69 735.64 1139.18 698.74
00007971 00000139 770.14 138.14 547.98 790.76 860.36 467.18 1102.82 427.05 965.78 612.93 918.47 732.16 1149.45 696.31
00007972 00000140 772.92 137.20 544.42 786.76 862.25 464.02 1105.92 424.10 970.05 609.25 920.94 729.61 1150.37 693.88
00007973 00000141 770.78 131.35 545.15 783.12 866.10 456.64 1109.98 416.83 980.82 600.98 927.45 727.10 1150.76 690.64
00007974 00000142 772.77 134.50 543.42 777.32 868.62 455.86 1112.66 417.20 984.16 601.09 928.89 726.09 1151.41 690.66
00007975 00000143 778.49 136.68 537.59 774.75 867.33 460.82 1110.46 423.28 976.72 607.64 925.01 724.34 1150.73 690.85
00007976 00000144 781.15 136.18 535.08 768.60 868.66 460.27 1113.53 424.03 979.26 608.34 926.31 724.57 1149.69 692.27
00007977 00000145 784.84 135.54 533.72 769.53 870.45 460.07 1116.47 425.08 979.69 609.39 926.65 725.55 1149.19 694.54
00007978 00000146 780.02 137.18 541.71 772.05 874.98 456.99 1118.35 424.25 987.21 605.76 932.91 729.25 1146.33 699.61
00007979 00000147 782.45 138.52 541.82 777.93 875.85 460.19 1120.49 426.58 988.99 610.68 934.76 735.39 1148.18 705.18
00007980 00000148 782.56 142.17 538.36 779.44 875.55 461.74 1121.12 429.22 990.02 616.27 934.54 740.10 1147.69 710.85
00007981 00000149 784.51 142.62 538.28 783.97 877.75 464.09 1123.39 432.96 991.28 620.33 934.78 743.49 1147.14 715.72
00007982 00000150 793.86 142.41 527.46 790.12 879.20 469.95 1127.25 441.43 987.85 630.08 931.68 749.26 1147.22 724.36
00007983 00000151 793.17 145.32 532.02 782.78 887.17 465.75 1131.95 436.62 1000.88 624.44 946.54 751.83 1151.51 726.26
00007984 00000152 798.25 144.32 533.47 781.11 892.65 465.17 1137.70 435.88 1006.59 621.62 951.81 748.93 1155.91 723.45
00007985 00000153 806.03 143.56 529.71 778.22 893.39 464.57 1141.39 431.59 1009.83 618.36 954.94 745.48 1163.45 716.81
00007986 00000154 805.79 142.43 532.34 774.43 896.98 464.91 1142.11 426.27 1016.84 608.26 962.89 741.62 1170.03 708.42
00007987 00000155 797.46 136.54 537.63 785.13 898.72 471.30 1136.25 432.14 1015.12 600.62 961.30 739.84 1166.40 705.81
00007988 00000156 792.54 136.03 534.78 795.82 891.93 468.32 1128.71 428.11 1007.34 597.83 951.51 738.67 1161.84 703.60
00007989 00000157 781.66 132.60 545.53 792.34 879.51 459.23 1121.66 415.73 1000.23 597.68 949.47 738.54 1157.42 699.53
00007990 00000158 780.61 131.80 539.93 787.29 873.82 459.91 1117.81 414.59 992.42 597.66 939.61 729.50 1158.60 689.72
00007991 00000159 777.85 128.91 539.66 781.00 869.55 457.05 1113.29 413.92 985.42 594.11 934.25 723.44 1152.70 685.52
00007992 00000160 772.97 128.13 540.11 778.42 868.42 451.76 1112.96 411.14 985.16 590.18 932.56 724.74 1145.48 688.26
00007993 00000161 766.44 129.16 540.84 779.60 863.02 448.36 1106.28 410.26 978.23 589.62 928.66 728.00 1134.47 694.03
00007994 00000162 775.23 138.78 530.98 764.78 858.76 453.04 1096.64 412.56 975.69 591.32 926.23 722.52 1130.78 689.61
00007995 00000163 772.92 139.07 530.77 757.50 856.14 453.85 1093.79 413.70 970.73 593.66 922.37 720.90 1126.12 688.24
00007996 00000164 773.25 141.25 530.06 752.86 856.59 454.36 1094.87 414.71 971.41 595.36 921.61 719.62 1127.67 687.30
00007997 00000165 775.45 141.38 528.42 753.23 857.51 453.89 1096.40 415.67 972.96 598.92 923.17 720.99 1128.98 689.96
00007998 00000166 779.27 141.25 525.88 753.52 859.79 455.24 1099.23 417.07 977.05 600.79 927.17 723.85 1131.12 692.86
00007999 00000167 783.49 141.82 527.83 760.59 864.55 453.15 1106.07 415.14 986.54 599.18 935.19 727.35 1137.72 696.67
