Video ID: 	v3nLhd-gCs4
H: 	1080
W: 	1920
FPS: 	25.0

FRAME INDEX X0 Y0 W H [Landmarks (5 Points)]

00007626 00000000 459.38 173.35 479.21 618.89 679.76 406.13 865.27 372.50 855.38 525.95 738.74 647.39 883.53 620.80
00007627 DELETE   460.59 163.22 477.23 626.30 681.40 399.78 865.84 370.36 852.91 521.27 735.53 641.88 883.58 618.04
00007628 00000002 465.28 154.56 475.62 633.37 687.46 393.57 867.31 371.17 852.58 512.40 738.39 635.21 884.46 616.70
00007629 00000003 467.97 151.18 478.00 634.13 695.42 389.53 871.40 366.45 863.94 504.69 744.92 629.13 889.83 610.48
00007630 00000004 470.36 138.95 479.45 641.66 704.09 384.05 881.86 360.34 873.81 499.14 750.55 624.20 894.87 604.54
00007631 00000005 472.94 142.89 481.09 634.76 706.70 380.31 888.76 357.59 879.58 493.87 754.87 619.41 903.95 600.34
00007632 00000006 474.47 137.64 483.29 639.66 709.92 378.70 893.34 352.35 885.45 492.36 758.30 619.70 908.83 597.13
00007633 00000007 475.56 134.16 484.87 643.15 709.78 373.81 897.39 349.29 886.18 489.95 758.35 617.47 912.47 595.97
00007634 00000008 479.54 129.87 483.36 647.36 710.14 368.60 902.08 348.35 886.17 485.56 759.63 617.25 916.61 598.78
00007635 00000009 479.70 131.51 485.23 645.00 713.22 364.01 903.24 344.74 888.69 483.16 761.52 614.53 916.50 596.67
00007636 00000010 482.64 132.57 487.12 637.91 717.99 359.36 910.16 339.24 896.74 479.52 769.44 611.61 923.95 592.86
00007637 00000011 483.92 130.52 488.01 639.13 721.74 353.77 913.47 334.03 901.52 476.20 775.45 609.33 928.60 590.58
00007638 00000012 490.26 125.06 485.06 643.86 727.14 350.56 920.99 330.76 908.38 472.19 783.37 609.09 936.89 589.95
00007639 00000013 494.04 126.90 486.49 643.88 732.88 350.36 928.75 331.63 916.18 473.02 788.22 610.34 943.07 592.19
00007640 00000014 496.57 133.98 486.99 635.73 735.74 350.36 931.94 331.53 920.13 472.61 793.02 610.75 947.01 592.44
00007641 00000015 494.44 133.70 490.71 634.87 735.37 355.19 933.66 333.40 922.40 475.55 791.63 611.79 947.85 591.24
00007642 DELETE   489.27 123.85 495.19 646.02 731.01 365.63 926.11 335.74 918.81 477.53 786.36 614.70 942.80 588.02
00007643 00000017 484.14 126.19 495.66 646.94 726.55 375.76 918.30 344.57 912.43 480.51 778.37 618.22 933.42 591.31
00007644 00000018 480.47 125.59 498.18 649.58 721.39 383.73 911.31 351.53 904.36 485.74 772.45 622.72 925.78 595.30
00007645 00000019 471.48 128.87 503.09 652.59 714.36 387.03 901.97 352.99 895.90 490.69 762.71 625.52 916.30 597.22
00007646 DELETE   467.36 129.49 502.34 650.11 710.43 385.67 896.67 350.69 890.86 491.88 755.89 623.56 910.21 594.51
00007647 DELETE   464.98 129.81 502.90 647.73 708.31 384.70 896.65 349.81 889.91 491.51 753.76 622.15 909.07 593.09
00007648 00000022 465.47 126.27 500.24 647.49 708.14 380.75 897.25 348.32 889.76 487.27 754.34 617.84 911.15 590.34
00007649 00000023 466.23 127.17 499.99 645.13 708.36 375.82 898.54 343.49 890.67 484.50 755.99 616.50 912.67 588.86
00007650 DELETE   469.62 127.11 495.93 647.32 709.56 366.44 903.74 342.95 889.11 484.62 756.63 614.98 915.47 593.97
00007651 00000025 472.53 124.77 491.68 656.15 711.03 361.28 903.59 343.43 887.68 483.68 757.76 616.33 915.79 599.63
00007652 00000026 471.45 123.05 494.06 664.88 711.40 359.47 903.04 342.76 887.62 483.30 756.17 616.71 915.52 600.90
00007653 00000027 471.98 123.10 495.14 666.96 713.82 363.00 904.41 345.44 890.86 485.59 758.53 619.48 916.40 603.34
00007654 00000028 474.21 126.16 496.01 664.21 717.35 369.28 909.64 348.22 897.29 491.23 762.19 625.41 919.22 606.92
00007655 00000029 480.98 130.32 490.52 660.19 721.07 373.93 913.93 349.26 903.30 494.08 766.47 628.66 924.77 607.41
00007656 00000030 488.32 147.50 485.78 651.39 738.19 373.83 918.00 353.95 911.34 496.91 779.10 629.02 923.15 611.38
00007657 00000031 492.41 156.38 485.46 647.47 741.33 373.15 923.39 357.44 914.24 498.84 781.45 630.59 926.27 616.04
00007658 00000032 497.85 157.58 484.45 649.33 747.39 373.19 928.17 359.73 919.32 500.57 787.73 633.76 930.00 621.03
00007659 00000033 504.08 155.34 482.52 651.63 751.64 373.36 929.86 359.34 921.20 499.84 790.59 633.84 930.97 620.85
00007660 00000034 508.26 154.77 479.15 644.52 755.05 372.11 931.73 359.22 924.39 498.83 791.32 627.70 932.83 615.73
00007661 00000035 511.64 159.93 476.74 634.27 757.77 371.92 933.98 360.04 927.11 498.49 793.89 623.26 935.86 611.94
00007662 00000036 515.91 158.36 474.73 633.46 760.11 371.95 933.61 359.88 929.57 495.16 796.14 620.46 938.20 609.09
00007663 00000037 516.82 159.67 474.15 633.39 762.87 367.42 934.12 360.04 931.01 492.59 798.71 621.65 935.78 614.23
00007664 00000038 521.80 157.97 471.05 635.32 764.66 366.50 937.03 357.95 934.45 490.06 799.18 618.24 939.99 609.75
00007665 00000039 523.47 157.61 469.93 632.10 765.55 365.35 939.52 355.72 935.94 490.08 800.58 617.33 942.42 607.88
00007666 00000040 522.68 160.92 469.70 625.88 765.21 364.95 939.56 354.70 936.74 489.73 800.04 616.56 942.29 606.61
00007667 00000041 522.53 162.33 469.27 624.02 765.59 364.58 939.51 354.35 937.28 490.17 800.38 616.75 941.50 606.87
00007668 00000042 521.60 162.57 468.49 623.32 765.37 364.60 938.66 355.05 937.52 490.08 800.25 616.84 940.76 607.51
00007669 00000043 519.07 163.56 470.46 622.08 764.75 365.06 937.41 355.41 936.76 490.89 800.45 618.09 939.33 608.68
00007670 00000044 518.06 164.18 470.50 620.93 764.17 365.05 936.77 355.71 935.61 490.66 798.84 617.25 938.04 608.15
00007671 00000045 515.66 163.28 470.63 623.86 764.08 364.96 935.05 356.68 934.70 490.39 798.43 618.06 935.95 609.91
00007672 00000046 513.62 166.55 469.18 621.54 761.49 365.34 932.43 356.89 931.72 490.60 796.71 619.08 933.73 610.79
00007673 00000047 508.74 166.25 470.83 619.75 758.98 367.04 931.84 356.32 931.35 493.14 794.37 620.16 932.48 610.16
00007674 00000048 506.47 168.22 469.79 617.07 754.17 367.43 928.58 354.53 926.68 493.66 790.50 620.18 929.79 608.16
00007675 00000049 503.36 163.82 469.47 620.83 751.08 366.76 924.50 351.80 923.54 492.62 787.09 619.51 925.69 606.02
00007676 00000050 499.82 160.30 471.63 622.53 747.72 365.99 923.17 351.56 919.74 490.94 783.19 617.45 923.66 604.27
00007677 00000051 496.78 161.03 472.70 619.07 746.11 364.12 922.29 350.14 918.53 488.97 782.03 615.12 921.44 602.38
00007678 00000052 492.05 159.10 476.61 616.40 736.40 365.95 925.35 354.82 917.32 486.18 779.04 611.98 929.28 601.95
00007679 00000053 487.30 157.50 481.05 617.72 734.66 363.01 921.75 352.25 915.81 484.55 776.18 610.62 925.42 601.19
00007680 00000054 480.54 153.08 488.07 621.12 730.42 360.91 917.08 348.27 914.03 485.68 768.39 610.43 918.54 599.67
00007681 00000055 475.49 147.63 491.61 626.63 726.08 357.19 913.53 344.54 909.70 484.34 762.35 611.21 912.65 600.38
00007682 00000056 470.79 148.07 491.71 623.78 724.80 355.05 909.54 343.54 908.39 482.60 761.00 609.52 907.72 599.85
00007683 00000057 470.19 140.77 490.44 632.11 721.71 351.26 908.19 338.81 905.30 481.45 758.43 610.21 907.33 599.29
00007684 00000058 466.36 140.89 491.58 633.50 719.08 351.10 905.86 339.39 903.13 480.61 756.42 609.24 905.35 599.11
00007685 00000059 463.99 138.48 491.99 637.80 716.32 350.99 903.25 338.92 900.85 478.87 754.98 608.08 904.80 597.46
00007686 00000060 461.08 135.71 492.72 643.47 712.86 351.73 900.68 336.43 900.26 478.93 753.43 609.33 905.43 596.02
00007687 00000061 460.11 135.96 491.68 643.02 710.01 352.23 898.09 336.44 896.22 479.19 751.26 608.88 905.19 595.14
00007688 00000062 457.61 123.97 490.32 657.21 706.38 350.00 894.71 333.10 891.55 477.37 747.78 608.71 903.48 593.71
00007689 00000063 450.79 121.83 491.84 658.12 698.44 352.17 890.61 332.46 887.91 476.65 740.80 608.90 901.57 591.67
00007690 DELETE   445.43 116.09 496.41 664.81 687.58 360.20 879.98 334.76 876.36 474.09 732.30 611.12 897.39 589.19
00007691 00000065 438.50 117.60 501.71 663.96 677.86 364.96 874.92 336.62 867.77 474.69 722.90 614.04 893.39 589.64
00007692 00000066 432.63 119.14 503.85 667.54 669.23 362.69 870.31 331.01 861.83 477.53 725.52 623.09 889.29 594.94
00007693 00000067 428.44 114.92 502.73 669.52 663.21 362.57 865.12 334.00 851.77 477.39 722.11 622.26 884.05 596.34
00007694 00000068 425.09 112.52 500.80 667.93 657.77 361.97 862.92 336.22 846.15 477.05 717.30 620.40 880.35 596.72
00007695 00000069 418.41 108.95 504.28 668.13 651.93 359.82 861.53 334.39 841.42 476.24 711.27 619.19 875.36 596.00
00007696 00000070 417.23 95.72 502.76 678.79 650.56 356.45 858.13 331.22 837.52 472.90 712.16 617.52 873.14 594.55
00007697 00000071 412.48 88.07 504.19 685.37 645.75 353.20 854.06 329.95 830.98 472.07 707.82 616.52 869.14 595.02
00007698 00000072 406.85 74.96 506.09 700.92 640.37 344.34 849.40 324.06 824.05 469.21 701.75 613.67 862.74 594.43
00007699 00000073 406.39 72.05 505.21 703.64 635.00 343.29 844.39 322.92 815.74 466.70 697.54 612.49 859.84 592.83
00007700 00000074 404.71 71.44 505.85 706.08 634.58 343.25 843.54 323.25 815.18 466.64 695.18 612.59 857.96 593.32
00007701 00000075 405.55 67.86 505.54 706.31 636.23 341.59 846.75 323.75 816.79 465.97 697.06 610.97 858.97 593.35
00007702 00000076 407.78 70.21 506.01 704.78 640.61 339.27 851.70 322.77 822.67 465.25 701.51 610.79 862.73 594.50
00007703 00000077 410.78 66.40 506.63 709.24 646.43 337.98 856.97 322.48 828.26 465.25 705.33 610.31 865.56 595.26
00007704 00000078 414.76 70.87 504.53 700.84 652.07 339.97 860.69 324.54 833.12 466.45 711.29 610.55 868.80 595.60
00007705 00000079 416.40 77.63 503.34 693.22 654.03 341.38 861.92 325.48 834.65 468.38 712.55 611.13 869.53 595.79
00007706 00000080 417.39 87.71 503.24 683.32 653.75 343.47 861.97 327.10 834.75 469.57 711.10 611.09 869.87 595.30
00007707 00000081 418.05 89.38 500.25 682.03 651.42 345.28 861.07 328.99 831.71 470.92 710.02 612.36 870.23 596.43
00007708 00000082 416.73 87.83 500.76 685.43 648.95 346.61 858.75 330.98 829.05 472.49 706.23 613.29 867.48 598.00
00007709 00000083 416.48 83.65 499.27 689.54 645.02 348.09 857.15 331.51 824.88 474.18 703.93 614.61 866.60 598.23
00007710 00000084 415.46 78.38 499.97 694.79 643.29 349.13 854.29 332.66 821.94 474.80 700.38 613.89 863.37 597.71
00007711 00000085 415.97 78.36 498.71 693.92 643.24 350.15 854.65 333.80 821.73 474.84 698.29 612.69 861.03 596.56
00007712 00000086 415.10 85.22 501.67 690.05 644.57 350.29 853.78 334.83 821.88 474.99 692.58 609.14 858.96 594.32
00007713 00000087 418.24 90.04 499.39 684.45 647.19 352.08 854.09 334.81 823.94 475.18 693.42 608.17 859.28 591.99
00007714 00000088 420.79 98.81 498.90 672.20 651.72 354.00 856.55 336.48 828.64 474.98 696.43 605.61 861.04 589.42
00007715 00000089 425.68 98.59 497.55 670.33 657.13 351.99 860.09 335.36 833.81 473.35 701.02 603.26 863.85 588.05
00007716 00000090 429.93 102.19 496.10 667.93 662.30 351.60 862.89 335.20 840.05 473.14 702.80 601.27 866.78 586.45
00007717 00000091 432.76 101.85 493.82 665.94 664.42 351.46 863.87 334.89 840.99 473.45 703.44 599.71 867.19 584.80
00007718 00000092 436.61 106.18 491.15 661.15 666.71 351.67 865.42 335.99 841.29 473.95 705.22 600.05 868.12 585.83
00007719 00000093 439.68 105.65 489.47 660.57 668.72 352.11 866.42 336.71 842.35 473.23 706.76 599.07 868.67 585.07
00007720 00000094 443.37 109.27 487.45 653.20 672.36 353.05 869.63 338.72 844.47 474.25 710.19 599.76 870.10 586.56
00007721 00000095 449.85 112.74 486.03 648.59 677.48 355.19 874.54 340.97 850.96 473.04 724.61 606.90 876.93 593.08
00007722 00000096 462.03 101.08 469.71 657.88 686.10 366.44 875.64 344.95 861.55 480.14 746.15 611.50 891.95 593.75
00007723 00000097 465.90 115.48 478.96 653.91 700.06 361.80 891.00 349.54 870.84 479.79 747.59 606.36 900.79 594.05
00007724 00000098 467.55 133.60 486.68 642.78 704.13 365.46 892.55 346.95 878.96 484.09 748.27 609.20 904.04 592.39
00007725 00000099 468.81 132.17 488.06 648.21 706.77 366.34 892.22 347.39 881.03 483.50 751.82 610.81 905.46 593.61
00007726 00000100 469.13 132.48 488.77 649.01 706.01 367.06 891.48 346.53 880.34 483.03 751.84 611.89 905.78 593.47
00007727 00000101 468.68 130.69 488.77 651.44 703.02 367.58 889.54 347.34 876.32 482.65 747.81 611.54 903.23 593.27
00007728 00000102 469.72 124.49 484.09 653.90 702.33 368.88 890.28 349.25 874.53 482.64 745.00 610.84 900.77 593.03
00007729 00000103 471.69 126.14 482.01 645.28 702.14 367.55 894.43 350.10 875.54 482.36 746.04 609.43 903.29 593.32
00007730 00000104 473.77 128.38 482.78 639.81 706.13 366.40 898.10 349.32 880.23 482.51 753.55 607.76 908.73 591.62
00007731 00000105 477.43 135.79 481.94 630.10 711.57 368.59 900.51 350.33 885.96 483.87 760.28 609.98 912.17 593.06
00007732 00000106 478.85 142.00 482.06 625.22 715.64 370.75 904.67 350.08 894.54 484.62 766.40 613.07 916.83 594.66
00007733 00000107 480.02 142.52 480.92 627.48 718.13 370.23 904.97 349.89 896.40 483.93 768.97 613.79 917.72 595.65
00007734 00000108 476.89 143.11 485.04 630.42 717.00 371.76 905.30 351.44 896.22 486.69 765.38 615.69 915.76 597.93
00007735 00000109 475.15 145.65 484.59 628.43 715.26 371.99 903.06 352.10 895.00 489.32 762.14 616.44 912.44 599.41
00007736 00000110 472.79 143.04 484.34 628.75 713.31 371.95 902.13 354.67 889.49 489.64 757.58 613.12 909.05 598.05
00007737 00000111 474.21 137.04 481.27 634.53 712.64 369.98 902.27 355.70 887.01 488.23 753.71 610.26 907.23 597.13
00007738 00000112 474.08 134.21 481.63 636.29 713.36 367.65 902.93 355.54 886.08 486.38 754.21 608.28 906.87 596.53
00007739 00000113 472.61 140.63 485.99 626.43 714.00 367.51 905.45 353.39 890.40 483.28 756.27 605.75 910.29 592.69
00007740 00000114 473.62 145.58 488.73 619.05 717.88 369.71 908.60 353.42 895.97 482.83 759.16 605.75 911.47 591.28
00007741 00000115 474.51 145.79 487.84 618.82 717.98 365.95 908.68 350.65 897.19 480.27 759.54 604.02 912.85 590.26
00007742 00000116 478.07 142.06 482.92 620.07 719.20 358.60 910.41 348.60 896.47 473.95 763.93 599.91 916.23 589.70
00007743 00000117 477.79 132.25 482.90 631.13 719.48 352.22 908.82 342.64 896.18 469.89 765.04 599.64 915.94 589.28
00007744 00000118 478.20 128.38 482.10 634.59 716.66 351.59 906.83 341.82 891.89 470.31 763.47 600.77 914.75 590.04
00007745 00000119 475.29 126.12 483.73 640.43 715.00 351.80 903.95 341.84 888.59 472.66 759.40 601.99 910.27 591.29
00007746 00000120 472.62 122.50 483.87 648.58 713.79 351.46 902.91 342.37 887.28 473.56 756.82 603.82 907.95 593.96
00007747 00000121 472.53 120.53 483.07 651.96 713.55 351.90 901.29 343.02 885.39 474.68 755.19 603.77 905.63 594.14
00007748 00000122 472.17 116.77 482.61 655.78 712.66 351.99 900.23 343.45 883.13 474.64 754.80 603.47 904.61 593.94
00007749 00000123 472.21 114.20 481.90 658.43 711.05 352.00 899.29 343.38 880.93 474.80 753.22 603.84 903.87 594.24
00007750 00000124 470.37 113.09 482.90 662.29 710.34 352.87 899.20 344.87 879.75 478.09 750.26 604.95 901.63 595.88
00007751 00000125 470.11 114.91 482.55 660.77 709.72 353.87 899.44 346.89 878.03 480.69 747.52 605.22 899.97 597.06
00007752 00000126 469.81 114.65 482.71 661.63 708.59 354.42 898.85 346.16 877.74 482.41 746.53 606.77 899.88 597.73
00007753 00000127 470.63 113.85 481.60 661.71 706.67 354.53 898.05 347.74 874.79 481.40 745.77 606.07 900.18 598.04
00007754 00000128 468.40 110.45 481.06 665.93 704.05 354.00 894.84 346.26 871.70 480.07 743.95 605.89 898.59 597.04
00007755 00000129 464.26 100.29 481.48 675.44 696.81 350.92 889.48 343.17 864.89 474.56 736.92 603.72 894.60 594.74
00007756 00000130 459.81 101.38 483.47 675.96 686.93 350.16 880.40 339.09 855.91 473.73 729.30 603.16 891.24 591.52
00007757 00000131 453.70 98.68 485.57 680.44 678.15 355.32 871.39 339.19 848.99 474.01 721.91 606.39 885.87 590.69
00007758 00000132 451.49 99.89 487.80 680.23 668.12 359.63 869.63 334.87 845.07 472.26 720.68 616.40 883.04 593.82
00007759 00000133 457.40 87.87 475.70 694.22 664.09 370.94 862.14 344.81 836.77 478.41 721.35 615.20 883.68 593.18
00007760 00000134 460.27 90.75 474.57 690.69 663.96 372.64 864.10 346.71 836.53 479.90 724.16 616.36 886.50 594.29
00007761 00000135 462.94 90.88 476.60 689.07 665.59 372.95 866.58 345.88 838.03 481.29 726.53 616.78 888.63 593.88
00007762 00000136 464.25 91.97 479.57 690.09 667.09 373.19 868.15 345.64 839.25 482.25 726.31 617.61 889.31 594.59
00007763 00000137 467.59 91.99 478.93 690.63 667.80 372.34 865.43 344.88 835.80 482.47 725.38 617.30 886.55 594.48
00007764 00000138 472.73 92.10 477.33 689.51 668.09 369.60 867.19 341.56 835.93 481.21 726.04 616.85 888.60 593.70
00007765 00000139 477.55 91.50 477.70 686.71 673.37 367.53 871.74 341.29 838.39 482.98 733.06 616.52 891.81 594.49
00007766 00000140 480.14 96.28 481.76 684.56 681.01 367.68 880.35 345.17 845.37 484.54 737.88 619.25 895.94 600.23
00007767 00000141 480.50 95.68 488.54 686.89 691.87 364.38 897.03 348.39 857.68 485.66 742.59 618.99 907.30 602.50
00007768 00000142 484.82 97.77 488.72 687.16 699.45 367.92 902.73 349.55 867.78 488.02 750.60 621.80 913.95 603.62
00007769 00000143 485.99 97.04 489.67 687.57 702.60 370.10 903.78 349.29 872.23 488.61 757.04 623.23 917.70 603.08
00007770 00000144 485.06 100.23 491.25 686.88 701.86 371.22 902.73 347.85 872.93 490.80 756.98 625.46 917.80 603.34
00007771 00000145 482.63 99.47 493.71 688.42 698.15 372.78 899.87 348.90 869.20 490.98 752.62 626.58 915.95 604.20
00007772 00000146 481.55 100.65 494.29 686.58 695.18 377.30 897.35 353.54 865.87 490.79 748.36 626.14 913.95 604.01
00007773 00000147 482.65 100.15 493.20 684.94 695.75 379.09 898.88 354.01 867.55 490.68 749.03 626.88 914.09 603.91
00007774 00000148 485.95 95.63 493.38 691.11 699.57 377.01 904.26 350.26 874.30 489.08 755.69 627.98 920.95 603.66
CROP_BBOX: 153 0 1358 1080
