Video ID: 	CaryZ1NB6N4
H: 	1080
W: 	1920
FPS: 	25.0

FRAME INDEX X0 Y0 W H [Landmarks (5 Points)]

00003581 00000000 587.68 115.16 489.29 700.68 713.50 358.64 943.80 350.79 839.38 495.74 758.79 639.74 924.22 631.91
00003582 DELETE   582.23 114.89 493.81 702.48 708.57 359.19 938.24 350.53 832.31 494.52 751.95 638.33 920.69 629.67
00003583 DELETE   581.36 114.22 494.16 704.05 706.39 357.16 933.99 348.37 827.20 492.16 749.17 635.97 917.28 627.19
00003584 00000003 585.77 114.55 492.17 705.79 707.16 357.89 934.66 348.71 826.14 492.19 749.28 636.05 917.94 626.92
00003585 00000004 590.32 114.99 491.66 706.50 708.03 359.15 935.79 349.82 824.92 492.97 749.64 637.25 917.99 628.14
00003586 00000005 593.75 115.25 491.71 707.00 710.95 361.12 940.07 352.65 826.95 495.47 750.97 638.00 921.29 629.56
00003587 00000006 598.66 111.58 491.00 710.42 713.49 361.21 944.95 354.33 830.62 495.05 750.50 637.13 925.15 629.97
00003588 00000007 603.49 108.38 487.03 704.61 717.30 359.75 949.24 355.14 833.42 492.76 750.79 632.10 928.52 626.56
00003589 00000008 607.87 107.39 484.43 695.23 721.52 357.29 954.10 357.58 836.66 490.89 749.78 624.20 931.70 622.61
00003590 DELETE   609.87 98.91 491.12 703.59 730.49 352.48 959.27 356.68 841.35 492.62 753.30 617.92 933.69 622.36
00003591 00000010 612.82 95.53 493.52 700.66 732.78 349.57 962.50 354.11 842.77 488.34 753.35 613.51 936.30 618.29
00003592 00000011 613.86 94.26 495.38 703.62 734.27 347.30 965.03 352.81 844.64 486.34 753.27 612.99 937.32 618.49
00003593 00000012 614.33 98.00 504.68 710.50 744.97 349.91 968.13 350.95 847.06 484.14 771.02 614.16 938.09 615.37
00003594 00000013 613.67 99.85 505.22 716.72 746.23 350.19 966.87 351.25 848.39 485.69 773.71 620.10 937.21 621.29
00003595 00000014 612.58 100.95 506.40 718.20 747.39 352.07 968.08 352.11 851.43 487.95 777.38 623.67 939.42 623.90
00003596 00000015 615.29 103.12 497.10 718.31 745.01 351.73 971.55 358.84 858.27 495.79 771.42 631.84 937.89 639.08
00003597 00000016 614.30 100.92 497.69 717.06 744.06 353.99 972.59 360.15 858.52 499.52 771.47 631.60 941.39 637.83
00003598 00000017 614.46 99.28 496.10 711.13 742.61 354.63 973.43 359.62 858.29 500.63 769.82 628.42 944.63 633.53
00003599 00000018 613.61 97.86 495.73 709.07 742.64 354.66 973.33 359.76 857.62 499.38 766.44 624.06 945.41 629.08
00003600 00000019 612.93 97.22 495.52 707.31 742.79 355.22 974.03 359.58 858.39 499.07 764.70 621.74 947.94 626.05
00003601 00000020 613.41 96.15 495.01 705.77 745.21 354.41 975.42 358.08 862.14 498.65 768.30 620.32 950.61 624.06
00003602 00000021 614.17 94.03 498.13 713.48 750.58 351.97 981.55 355.07 871.46 496.80 776.45 621.38 958.48 624.67
00003603 DELETE   618.68 100.06 499.40 711.36 763.65 351.29 988.32 352.54 887.77 493.52 794.96 623.39 968.77 625.32
00003604 00000023 618.25 101.17 500.99 713.49 771.90 347.45 991.14 346.07 899.55 487.17 810.14 621.72 975.03 619.46
00003605 00000024 618.92 107.28 501.51 707.84 779.95 345.60 998.18 342.98 912.33 485.70 819.98 622.12 985.01 618.28
00003606 00000025 622.43 102.03 497.72 705.78 787.43 342.08 1006.44 341.80 924.23 484.52 826.53 618.77 992.51 616.46
00003607 00000026 624.28 100.95 493.94 703.42 789.89 341.53 1009.32 342.22 929.08 482.52 828.66 616.42 996.96 614.77
00003608 00000027 625.45 100.42 491.74 701.99 790.78 341.43 1011.27 342.62 931.35 483.28 828.10 615.21 999.97 613.84
00003609 00000028 626.22 99.59 491.44 700.77 791.03 340.45 1013.09 342.99 932.35 485.03 826.11 613.71 1001.94 613.36
00003610 00000029 626.32 95.45 498.47 699.08 789.52 345.60 1012.68 344.65 931.58 481.73 826.85 612.39 1004.90 612.02
00003611 00000030 624.30 96.38 494.56 709.80 793.51 339.77 1012.28 341.14 933.95 482.18 829.60 612.17 1002.66 610.78
00003612 00000031 624.83 98.03 493.83 705.09 792.79 340.49 1011.37 340.98 933.03 481.97 832.39 613.36 1000.66 611.31
00003613 00000032 624.79 100.21 493.93 704.14 792.83 341.77 1010.15 341.80 932.56 483.39 832.87 615.65 1000.14 613.33
00003614 00000033 625.18 104.22 493.39 703.61 791.76 343.06 1009.90 343.39 931.79 485.80 831.05 619.01 1000.35 616.97
00003615 00000034 624.06 106.34 495.15 702.22 791.37 344.50 1010.23 346.55 930.03 488.27 828.61 618.73 998.51 618.15
00003616 00000035 623.69 107.53 495.16 699.29 789.40 346.78 1011.24 349.61 928.42 492.11 824.92 620.48 998.25 620.71
00003617 00000036 621.08 107.43 496.86 701.29 787.71 348.15 1009.19 350.76 925.78 494.53 822.86 619.82 997.64 619.86
00003618 00000037 619.99 107.19 496.89 701.43 785.93 348.72 1007.45 351.04 923.33 496.29 819.69 619.98 995.92 619.80
00003619 00000038 617.74 106.96 498.66 704.60 784.80 349.72 1004.41 350.88 920.95 497.07 819.06 620.88 993.26 619.78
00003620 00000039 615.05 105.78 500.53 711.95 783.73 350.20 1001.19 350.46 919.07 496.79 818.10 622.37 990.85 620.62
00003621 00000040 613.15 105.97 501.41 714.81 781.38 350.74 998.33 349.31 916.86 496.50 819.18 625.41 988.55 622.37
00003622 00000041 612.09 107.63 500.70 716.66 779.51 351.93 994.58 348.69 912.96 495.28 820.91 630.29 982.32 626.23
00003623 00000042 612.12 108.93 499.04 719.83 778.78 353.79 992.56 349.38 911.93 495.87 821.18 635.45 978.53 630.90
00003624 00000043 612.16 109.31 498.29 719.75 778.04 355.05 990.66 349.89 910.29 496.61 820.83 636.34 977.88 631.23
00003625 00000044 611.74 109.71 498.38 720.42 777.70 356.16 990.36 350.88 909.89 498.10 819.59 636.63 978.16 631.35
00003626 00000045 611.72 109.64 498.09 719.43 776.66 358.54 990.30 353.21 909.02 501.11 817.69 637.81 978.57 632.53
00003627 00000046 611.55 110.26 497.98 718.64 776.02 360.18 989.91 354.98 908.47 502.77 815.86 638.27 978.94 633.10
00003628 00000047 611.32 109.77 497.48 718.68 774.74 361.62 989.38 355.81 907.67 503.97 815.37 638.79 979.78 633.05
00003629 00000048 610.28 110.24 498.43 718.14 773.91 362.63 988.43 357.05 906.05 504.56 814.42 639.08 978.20 633.51
00003630 00000049 609.53 108.19 499.22 719.79 772.20 363.41 987.62 357.10 904.12 505.67 813.55 639.70 977.73 633.49
00003631 00000050 608.83 106.52 499.29 721.36 770.82 363.96 987.18 357.27 903.06 507.72 812.66 640.35 977.51 633.83
00003632 00000051 608.13 105.54 499.20 723.46 769.23 364.77 986.08 358.01 901.50 510.38 811.46 641.79 976.43 635.23
00003633 00000052 607.32 104.98 499.26 725.27 767.70 364.82 984.52 358.50 899.37 511.85 809.46 642.22 974.50 636.07
00003634 00000053 606.19 107.09 500.02 724.21 765.98 365.04 983.23 358.53 897.36 512.89 807.91 643.04 972.62 636.76
00003635 00000054 605.61 105.24 499.83 726.45 764.73 365.51 981.73 359.20 895.94 513.85 806.34 643.75 970.93 637.65
00003636 00000055 604.90 105.88 500.07 725.93 762.96 366.17 980.37 360.05 893.59 516.06 804.52 644.69 969.22 638.76
00003637 00000056 604.53 105.92 500.39 724.83 761.31 367.39 980.23 361.57 891.30 518.77 802.97 645.48 968.51 639.75
00003638 00000057 602.90 104.96 501.72 725.43 759.24 368.76 978.87 363.00 889.26 520.18 801.50 646.15 967.49 640.36
00003639 00000058 601.91 105.83 502.73 724.62 757.61 369.98 977.53 364.06 887.43 521.68 800.67 647.29 966.07 641.36
00003640 00000059 601.17 106.94 502.82 724.66 756.04 370.79 976.68 364.98 885.73 523.88 798.80 648.15 965.60 642.42
00003641 00000060 600.86 106.98 503.03 725.46 753.63 371.65 975.16 365.36 882.97 524.70 796.68 648.86 965.32 642.71
00003642 00000061 600.15 107.44 502.20 726.70 751.70 372.36 973.93 366.39 880.84 525.58 793.81 649.23 964.42 643.33
00003643 00000062 599.78 107.58 501.84 725.69 749.83 373.49 973.27 367.25 879.17 527.06 792.21 650.10 963.44 644.05
00003644 00000063 598.14 108.57 502.20 724.73 743.11 378.48 969.82 372.38 871.03 530.22 785.78 651.50 961.93 645.69
00003645 DELETE   602.83 123.08 493.77 708.91 742.71 386.26 969.54 374.45 871.68 523.73 785.97 659.00 959.96 647.05
00003646 DELETE   603.95 127.29 492.53 706.82 732.91 385.98 963.06 375.80 857.79 525.37 774.82 660.16 951.69 649.68
00003647 DELETE   598.74 115.28 497.78 724.74 723.03 384.15 944.41 376.90 836.30 531.67 762.88 656.09 937.78 649.59
00003648 00000067 596.46 117.27 500.31 725.42 718.64 382.41 938.67 376.06 827.79 528.94 757.33 657.01 926.91 651.57
00003649 00000068 596.28 120.51 502.38 721.92 712.39 383.86 935.02 376.46 819.96 531.48 752.31 659.19 922.34 653.08
00003650 00000069 596.20 122.65 502.82 721.58 711.08 383.96 934.56 376.84 818.51 533.90 750.54 659.00 924.23 652.99
00003651 00000070 598.63 122.23 498.46 717.34 712.67 383.74 938.23 376.72 823.60 535.85 753.70 658.93 930.31 652.87
00003652 00000071 600.25 119.42 498.05 716.83 717.38 381.95 943.58 375.48 831.35 535.06 758.90 657.47 936.38 651.71
00003653 00000072 601.10 116.83 498.61 717.10 719.17 380.33 945.85 373.29 834.34 534.02 761.29 655.69 939.33 649.40
00003654 00000073 601.56 114.78 497.86 716.87 719.65 377.99 945.48 370.18 834.51 531.21 762.81 654.21 938.68 647.33
00003655 00000074 600.37 114.34 498.77 717.35 718.49 376.54 944.55 368.04 833.08 529.27 762.65 653.69 937.30 646.21
00003656 00000075 600.36 114.67 499.06 719.16 718.11 376.39 943.50 368.29 831.65 528.82 761.38 654.30 933.58 647.22
00003657 00000076 600.19 116.94 499.03 720.49 718.44 377.17 942.45 370.17 830.79 529.14 759.71 655.45 930.25 649.47
00003658 00000077 600.19 118.09 499.78 720.43 718.71 378.44 941.47 372.16 829.68 529.42 758.48 655.77 927.75 650.45
00003659 00000078 600.01 118.86 499.74 722.44 718.78 379.08 940.95 373.34 829.02 529.52 757.05 656.31 927.37 651.49
00003660 00000079 600.92 118.89 498.88 724.01 719.13 379.16 940.57 374.03 828.98 529.69 756.89 656.08 926.73 651.79
00003661 00000080 601.54 119.07 499.14 722.40 719.17 377.87 941.31 372.36 829.25 528.89 757.14 655.70 926.94 651.08
00003662 00000081 601.67 117.19 499.53 722.00 719.30 374.54 942.20 368.92 830.18 526.55 758.03 653.32 928.50 648.62
00003663 00000082 601.00 112.36 499.97 725.50 720.11 371.96 943.62 365.32 832.54 523.79 760.11 651.56 930.84 645.80
00003664 00000083 601.04 108.79 499.77 726.07 721.79 370.28 944.99 362.68 835.18 520.09 762.24 649.79 931.64 643.09
00003665 00000084 601.61 108.38 499.46 725.94 722.86 368.85 945.86 361.24 836.54 517.73 762.76 648.32 933.02 641.60
00003666 00000085 601.44 108.85 500.21 730.18 724.44 368.34 946.43 361.00 838.03 517.40 764.05 649.68 934.12 643.24
00003667 00000086 603.34 108.16 498.69 731.50 726.87 368.45 948.37 361.79 841.42 519.35 766.60 650.76 934.69 645.03
00003668 00000087 603.96 107.78 499.28 728.43 727.45 369.55 950.96 361.73 844.25 519.53 770.39 651.21 939.27 644.24
00003669 00000088 604.45 105.83 499.98 729.95 731.02 370.07 955.34 362.95 849.35 518.96 773.30 651.09 942.76 644.58
00003670 00000089 603.90 104.61 501.64 732.89 736.80 369.89 959.05 363.73 856.67 519.32 777.86 651.05 944.35 645.56
00003671 00000090 604.36 105.31 500.78 733.38 740.65 371.94 962.25 365.57 861.68 518.29 781.79 651.63 946.87 646.07
00003672 DELETE   606.51 107.71 498.50 728.48 748.84 376.79 970.10 372.17 870.33 518.45 785.13 649.49 953.02 645.48
00003673 DELETE   607.09 107.43 498.57 722.56 754.36 378.19 976.14 371.56 880.19 518.14 793.31 646.27 964.29 639.93
00003674 DELETE   615.74 107.96 493.04 725.62 764.26 378.08 986.42 371.16 893.62 517.82 808.20 648.12 979.07 642.58
00003675 00000094 610.40 107.59 497.56 714.54 766.46 374.55 987.95 366.39 899.66 515.64 807.71 638.28 986.07 630.05
00003676 00000095 610.35 106.78 499.56 712.44 769.10 370.23 991.15 361.96 905.01 512.41 812.64 637.20 988.35 628.63
00003677 00000096 610.95 106.97 499.88 715.03 772.85 367.75 992.83 359.87 909.44 507.94 816.21 636.68 989.82 628.53
00003678 00000097 611.51 109.61 498.20 717.79 779.14 364.96 991.72 358.32 913.51 503.94 821.36 637.84 983.66 631.15
00003679 00000098 612.37 110.34 497.83 714.95 780.35 361.89 992.33 356.19 914.48 500.75 821.23 635.29 984.08 629.35
00003680 00000099 613.69 108.52 498.70 710.62 777.49 356.14 994.25 351.54 913.79 498.67 819.84 630.08 987.66 624.62
00003681 00000100 615.57 105.48 497.93 704.40 778.58 350.14 997.80 347.40 915.46 493.94 819.61 623.17 988.66 618.94
00003682 00000101 615.59 100.39 499.58 706.36 779.98 346.18 999.12 343.78 916.77 489.89 821.01 619.75 989.47 615.73
00003683 00000102 615.82 100.42 499.11 705.28 780.48 344.18 1000.43 342.69 917.38 489.09 820.54 618.64 988.74 615.39
00003684 00000103 616.88 100.46 497.63 702.90 780.43 345.73 1001.41 343.49 918.37 490.81 820.90 619.23 991.23 615.32
00003685 00000104 619.78 105.45 500.66 699.23 779.27 355.05 1002.03 348.97 919.10 492.08 824.24 623.79 996.22 619.30
00003686 00000105 620.10 107.73 499.93 700.82 779.08 357.63 1000.87 351.42 917.92 494.41 824.47 626.79 995.51 622.15
00003687 00000106 615.48 105.09 497.23 706.07 776.75 355.42 997.54 350.79 914.56 497.77 818.92 626.31 991.97 620.51
00003688 00000107 614.10 106.96 498.05 710.31 776.49 358.54 993.37 352.25 912.28 499.22 821.00 631.59 985.77 624.87
00003689 00000108 612.73 108.51 498.22 711.96 776.39 360.46 991.36 353.44 911.14 499.99 820.69 634.22 983.06 627.06
00003690 00000109 611.18 107.63 498.70 714.54 776.20 361.08 990.94 354.00 910.63 499.71 819.85 634.93 982.33 627.79
00003691 00000110 609.63 107.25 499.74 715.18 773.57 360.92 989.24 352.94 908.09 499.14 818.54 635.44 981.35 627.55
00003692 00000111 608.85 105.15 500.52 716.93 771.12 360.21 988.50 352.06 905.22 498.81 816.06 634.46 981.17 626.37
00003693 00000112 607.65 105.19 501.03 716.87 770.04 358.96 986.06 351.06 902.62 498.05 814.17 632.69 979.50 624.77
00003694 00000113 607.43 104.93 500.38 716.52 768.78 358.53 985.40 350.39 901.20 497.85 813.34 632.53 978.73 624.39
00003695 00000114 606.59 104.43 500.51 717.74 768.72 358.73 984.60 351.06 900.68 498.27 812.66 632.63 977.38 624.90
00003696 00000115 606.68 104.50 499.80 716.99 768.51 360.31 985.16 352.35 901.49 500.09 812.83 633.87 977.87 625.94
00003697 00000116 606.88 105.56 499.16 715.47 767.94 360.89 984.76 353.06 900.63 500.65 812.12 633.78 977.48 625.94
00003698 00000117 606.86 106.06 498.84 714.36 767.24 360.51 985.05 352.92 900.14 500.85 810.70 633.11 978.06 625.43
00003699 00000118 611.50 107.63 496.54 716.71 769.08 361.75 989.14 353.79 904.59 500.18 816.61 635.75 983.28 629.52
CROP_BBOX: 293 0 1393 1007
