Video ID: 	LP8S_9HWt_Y
H: 	1080
W: 	1920
FPS: 	25.0

FRAME INDEX X0 Y0 W H [Landmarks (5 Points)]

00002118 00000000 889.07 193.15 439.06 642.88 946.63 438.56 1130.46 426.46 993.33 580.57 1001.15 679.66 1147.75 669.17
00002119 00000001 886.64 191.84 441.12 647.06 946.23 440.35 1129.41 426.04 994.16 581.42 1004.38 682.17 1149.78 669.73
00002120 00000002 885.11 187.79 445.12 659.60 950.27 441.86 1135.09 423.24 1010.51 580.39 1007.59 684.70 1164.86 669.38
00002121 00000003 882.84 192.79 456.39 659.32 950.17 446.55 1139.03 423.40 1015.57 585.47 1014.01 691.06 1174.26 671.86
00002122 00000004 877.72 197.97 460.22 655.07 947.43 450.95 1138.13 427.53 1015.94 590.83 1013.06 694.53 1171.15 675.06
00002123 DELETE   866.08 199.29 459.85 654.57 937.11 458.05 1130.25 443.06 1005.40 603.34 998.54 698.87 1150.87 686.40
00002124 00000006 857.27 219.42 456.55 634.22 923.72 466.99 1114.42 459.97 977.65 615.69 982.07 700.85 1134.09 694.33
00002125 00000007 858.24 218.04 441.24 640.77 916.56 456.84 1099.95 461.53 957.07 613.49 966.60 697.50 1114.46 699.19
00002126 00000008 854.17 217.73 452.98 634.74 911.86 451.91 1088.31 446.81 949.15 593.98 967.17 693.26 1114.31 685.87
00002127 00000009 866.40 189.00 437.53 644.44 924.26 426.78 1096.91 424.51 955.94 569.47 970.66 672.27 1101.49 670.07
00002128 00000010 868.05 177.96 438.31 636.57 926.99 417.46 1107.58 409.82 969.74 551.70 970.45 660.09 1106.55 652.62
00002129 00000011 865.43 170.48 439.97 635.72 922.53 411.28 1111.52 402.87 971.30 541.49 965.65 655.04 1105.54 648.59
00002130 00000012 866.23 163.94 437.94 642.08 921.60 412.28 1106.56 400.95 969.06 544.03 963.84 659.74 1097.06 649.70
00002131 00000013 862.90 167.32 437.36 642.53 919.30 417.63 1099.35 405.79 966.01 551.27 966.25 665.59 1091.77 655.39
00002132 00000014 858.58 169.74 437.51 644.28 915.33 422.46 1092.28 413.57 962.44 560.77 964.84 668.68 1090.63 661.12
00002133 00000015 857.63 177.13 437.06 641.43 912.30 425.99 1087.66 415.00 957.93 564.28 965.71 671.52 1090.14 662.27
00002134 00000016 854.19 172.17 436.50 645.12 908.21 423.90 1084.41 410.11 954.56 561.59 962.46 670.00 1089.54 658.34
00002135 00000017 852.45 175.22 440.75 643.07 907.89 421.33 1081.46 404.42 951.21 553.50 962.30 664.41 1089.89 650.02
00002136 00000018 853.00 171.36 436.37 646.75 905.39 419.38 1081.42 400.60 949.10 549.93 959.81 661.75 1091.65 645.78
00002137 00000019 851.07 169.46 433.89 645.74 902.08 420.74 1080.62 401.88 947.48 552.57 957.56 660.60 1093.56 644.54
00002138 00000020 835.66 166.95 443.99 656.78 888.67 423.57 1072.01 401.63 942.46 556.58 943.56 667.02 1100.91 647.75
00002139 00000021 836.96 173.92 442.32 648.74 892.45 430.53 1065.68 411.05 938.13 565.09 954.76 667.35 1089.78 650.67
00002140 00000022 827.93 178.54 439.67 652.40 884.02 431.50 1063.25 409.48 939.27 566.64 944.17 674.15 1096.24 655.51
00002141 00000023 826.77 175.71 438.60 650.93 881.71 431.43 1062.14 409.71 937.08 564.65 939.71 673.30 1090.86 655.08
00002142 00000024 826.37 166.87 445.27 652.74 882.37 432.01 1059.85 411.89 930.46 565.39 943.74 670.74 1080.13 654.07
00002143 00000025 819.33 164.49 447.96 653.73 878.29 430.81 1059.01 413.33 927.60 564.50 937.57 669.65 1076.85 655.17
00002144 00000026 817.20 168.77 440.44 646.56 874.15 431.41 1060.37 410.96 932.94 557.28 925.99 671.21 1074.03 654.37
00002145 00000027 816.23 165.75 440.81 648.55 873.39 430.74 1058.08 411.55 929.59 556.71 922.72 670.91 1069.01 655.10
00002146 00000028 814.94 165.98 439.59 647.80 872.01 431.50 1055.92 413.53 927.85 557.08 921.11 670.56 1066.09 655.74
00002147 00000029 813.77 164.96 439.18 649.59 870.69 430.17 1054.36 410.83 926.37 554.58 919.51 670.35 1064.24 654.42
00002148 00000030 808.32 158.58 447.79 654.55 869.78 427.52 1051.19 409.04 919.52 554.62 926.98 668.22 1064.28 653.34
00002149 00000031 806.05 154.22 446.05 657.67 868.65 423.96 1052.61 406.43 919.23 547.96 921.06 662.25 1060.77 648.43
00002150 00000032 807.73 148.60 447.36 661.43 868.94 417.85 1052.22 398.81 916.30 540.94 919.34 657.92 1058.82 642.87
00002151 00000033 808.56 144.45 446.45 663.67 869.04 415.62 1051.16 394.89 914.93 534.60 917.84 655.03 1055.10 638.63
00002152 00000034 807.67 142.37 445.05 667.23 869.20 412.32 1048.43 392.11 911.73 530.67 916.86 652.66 1051.17 636.60
00002153 00000035 802.91 141.78 434.54 666.78 865.68 405.43 1041.17 387.31 912.74 523.69 909.09 647.48 1043.59 631.72
00002154 00000036 801.61 149.28 439.36 651.13 859.36 402.43 1035.86 388.23 898.47 518.62 905.89 641.68 1034.28 629.92
00002155 00000037 799.52 151.16 435.74 640.34 852.12 400.19 1031.94 385.01 890.97 513.86 895.43 637.65 1030.67 625.07
00002156 00000038 804.98 144.64 421.69 637.53 851.29 396.21 1026.58 382.06 878.70 509.90 883.95 631.48 1021.12 618.88
00002157 00000039 804.21 140.70 424.56 644.26 851.59 394.38 1023.81 381.24 875.97 509.06 883.58 630.39 1019.33 618.61
00002158 00000040 804.60 149.07 432.68 650.10 854.82 393.67 1029.21 377.81 886.53 508.42 898.02 637.86 1031.36 624.39
00002159 00000041 812.74 145.37 437.63 667.54 865.41 397.54 1035.13 380.69 894.02 509.55 909.59 644.56 1038.04 631.04
00002160 00000042 818.27 141.02 441.52 684.12 876.67 403.64 1049.24 383.18 908.21 515.11 921.25 654.36 1054.28 638.19
00002161 00000043 816.48 142.09 449.90 689.02 882.00 411.06 1063.64 386.50 925.05 522.70 928.36 664.11 1066.73 644.48
00002162 00000044 809.97 144.50 452.82 694.04 874.91 414.87 1064.42 392.63 938.11 538.93 925.11 674.24 1068.28 656.93
00002163 00000045 811.95 159.65 446.81 676.54 877.41 424.86 1063.27 403.81 941.41 555.34 936.11 686.24 1066.10 670.64
00002164 00000046 802.89 179.34 448.09 658.74 873.79 437.96 1061.25 416.64 947.61 576.97 943.25 700.42 1062.49 684.87
00002165 00000047 790.15 193.40 462.09 655.17 865.16 452.54 1059.81 425.37 948.03 589.03 937.92 707.02 1069.48 685.90
00002166 00000048 781.32 188.35 465.21 656.97 859.11 459.84 1049.97 426.23 944.21 589.32 936.56 707.73 1069.79 680.82
00002167 DELETE   778.88 190.52 474.33 648.61 854.59 464.20 1037.54 417.21 938.48 580.46 943.07 704.94 1072.37 666.14
00002168 DELETE   777.14 182.64 476.32 647.84 849.97 452.33 1031.80 401.41 929.57 561.33 935.64 687.68 1071.53 645.58
00002169 00000051 776.03 170.07 471.88 650.18 847.20 445.69 1027.84 391.11 926.70 548.71 933.41 679.10 1066.74 633.37
00002170 00000052 775.68 164.68 473.60 652.08 845.48 443.39 1028.25 388.45 923.86 546.62 930.67 678.40 1065.74 632.10
00002171 00000053 774.93 173.31 470.90 646.10 843.89 447.35 1026.23 394.35 918.22 554.12 925.29 679.86 1064.27 635.04
00002172 00000054 777.81 181.41 464.79 646.58 845.37 458.43 1025.27 407.75 921.74 566.30 927.12 689.37 1063.58 647.05
00002173 00000055 776.20 199.30 467.29 641.43 846.73 466.46 1023.00 420.50 922.83 589.42 937.38 698.28 1071.69 659.55
00002174 00000056 773.96 210.20 476.39 640.95 850.39 469.95 1029.34 427.91 925.58 595.67 940.44 706.32 1076.49 670.48
00002175 00000057 780.51 222.83 473.55 630.17 857.70 469.99 1033.85 430.14 930.00 596.34 947.58 705.92 1082.45 671.73
00002176 00000058 786.02 217.90 474.80 634.87 864.06 465.91 1041.74 428.65 936.52 596.99 953.54 704.52 1091.53 672.46
00002177 00000059 792.40 216.75 469.33 633.38 868.74 462.65 1046.36 427.24 939.37 595.84 955.13 701.23 1094.50 670.90
00002178 00000060 792.72 217.29 469.37 626.72 869.01 462.95 1047.89 429.84 938.53 596.71 952.05 699.71 1092.18 671.23
00002179 00000061 791.04 214.57 468.61 626.00 867.34 462.72 1049.71 433.20 938.49 596.53 945.64 697.80 1086.97 672.58
00002180 00000062 791.96 210.93 471.12 634.01 867.76 464.50 1051.82 433.70 939.80 598.09 947.13 701.07 1090.72 674.79
00002181 00000063 796.88 209.17 465.90 642.84 871.52 467.70 1056.21 434.39 944.83 601.37 952.75 707.53 1097.33 679.07
00002182 00000064 801.35 208.41 465.24 648.44 872.18 467.96 1058.60 433.21 945.41 601.86 952.18 707.53 1103.19 677.89
00002183 00000065 805.10 211.52 464.65 643.47 874.27 467.39 1059.81 433.62 944.95 600.49 951.22 704.52 1103.37 675.75
00002184 00000066 806.67 211.19 465.69 638.08 871.05 463.08 1057.83 427.29 940.75 592.51 948.92 702.47 1101.82 670.02
00002185 00000067 806.89 209.04 465.11 642.01 871.68 461.69 1059.11 427.28 942.03 593.10 949.16 702.27 1102.66 671.00
00002186 00000068 807.90 210.94 461.11 644.66 872.49 461.09 1057.86 425.43 941.59 593.15 952.32 704.20 1106.20 671.70
00002187 00000069 806.81 208.93 462.42 647.33 872.62 461.53 1057.70 426.11 940.88 594.24 953.57 704.47 1106.92 672.15
00002188 00000070 806.89 210.42 462.86 646.45 872.99 460.82 1057.53 426.89 941.64 596.15 954.40 704.38 1106.54 673.40
00002189 00000071 807.99 212.31 463.38 641.57 873.72 461.36 1058.16 428.09 941.64 596.48 954.61 703.73 1106.45 673.31
00002190 00000072 809.90 212.96 465.39 633.82 874.07 461.59 1062.01 428.84 943.33 595.01 952.23 699.37 1108.08 669.22
00002191 00000073 811.08 210.68 465.86 634.88 877.96 465.73 1065.52 435.87 946.04 599.10 951.52 697.49 1107.01 671.91
00002192 00000074 811.55 214.94 466.63 631.03 875.73 462.55 1064.11 429.98 945.48 595.38 952.33 700.34 1108.80 670.60
00002193 00000075 815.02 217.81 466.82 631.81 878.34 463.98 1065.64 430.16 946.31 597.21 954.64 702.10 1113.14 671.39
00002194 00000076 815.16 217.56 467.82 634.60 879.86 463.54 1067.64 430.88 947.58 598.61 955.26 701.98 1115.07 672.15
00002195 00000077 816.77 216.28 467.23 635.69 881.02 463.29 1068.10 431.93 947.42 599.44 956.26 701.73 1114.76 673.03
00002196 00000078 818.50 216.91 465.27 633.53 881.92 464.03 1067.97 433.57 948.19 600.04 956.73 700.77 1114.84 672.90
00002197 00000079 820.02 216.11 463.99 634.62 882.83 464.95 1067.96 434.16 948.18 600.62 957.96 700.56 1116.73 672.26
00002198 00000080 817.01 214.29 469.88 639.60 882.63 464.24 1068.86 433.46 947.78 600.43 959.21 701.24 1118.86 672.77
00002199 00000081 815.22 215.11 470.37 640.13 882.07 463.53 1068.29 432.32 947.60 601.64 961.03 702.20 1120.74 673.30
00002200 00000082 817.37 214.28 467.05 630.80 881.38 463.50 1068.71 435.45 949.14 602.70 958.66 700.62 1112.74 674.94
00002201 00000083 816.36 216.51 464.92 625.52 877.52 462.72 1067.85 435.21 945.38 602.71 952.57 701.38 1107.68 676.58
00002202 00000084 814.15 216.11 460.22 623.62 878.29 465.00 1068.53 442.98 943.43 605.55 947.62 696.17 1103.36 677.31
00002203 00000085 812.17 219.37 458.16 619.42 875.20 465.28 1063.20 443.99 938.69 607.55 945.99 695.34 1100.08 677.03
00002204 00000086 812.77 226.79 457.82 612.79 873.74 465.89 1061.26 445.04 935.46 609.73 945.71 696.27 1099.72 677.84
00002205 00000087 808.95 236.60 459.38 606.75 872.09 468.45 1060.32 448.97 935.15 614.69 944.73 699.26 1099.39 681.58
00002206 00000088 811.70 233.48 462.93 611.11 868.63 466.44 1055.86 453.62 927.70 626.38 945.26 703.85 1098.26 691.10
00002207 00000089 810.88 235.05 461.32 613.36 868.23 470.02 1055.63 455.39 927.05 626.97 942.44 706.65 1095.98 692.34
00002208 00000090 810.42 233.66 463.05 613.86 868.27 468.51 1054.99 453.65 927.15 624.89 943.42 705.58 1095.39 691.13
00002209 00000091 808.84 230.44 464.68 612.13 869.89 464.14 1056.83 450.45 931.08 621.17 943.53 700.27 1095.03 686.89
00002210 00000092 811.67 228.27 458.35 614.88 870.11 463.98 1058.63 446.58 933.43 615.84 941.33 700.09 1095.01 683.51
00002211 00000093 811.34 230.07 460.11 613.49 869.23 463.78 1058.33 446.47 931.90 615.95 939.55 700.01 1093.80 683.60
00002212 00000094 808.02 231.41 465.12 615.82 868.19 466.20 1056.29 452.12 929.14 621.87 939.19 702.49 1093.06 688.61
00002213 00000095 804.46 231.98 463.33 618.35 864.79 470.44 1053.26 457.01 925.12 626.90 935.62 705.88 1090.78 692.38
00002214 00000096 797.73 235.34 459.90 613.42 861.01 476.03 1054.48 461.86 927.72 635.39 934.56 704.90 1091.47 692.58
00002215 00000097 793.90 233.69 461.04 613.47 857.40 476.55 1050.07 462.42 925.75 637.59 932.83 705.63 1088.88 693.36
00002216 00000098 789.03 235.19 461.82 610.31 854.15 475.59 1046.90 461.03 926.56 638.53 932.69 704.64 1088.24 691.94
00002217 00000099 785.70 232.48 463.06 610.68 850.84 477.01 1044.12 459.22 925.73 636.53 931.01 704.75 1086.70 689.37
00002218 00000100 784.64 229.94 459.60 614.37 851.99 481.30 1037.73 457.09 923.40 627.61 931.73 709.79 1084.91 686.13
00002219 00000101 780.40 235.75 464.07 612.23 849.30 483.25 1035.58 457.22 921.54 629.42 930.62 712.35 1084.50 687.29
00002220 00000102 780.49 238.81 465.13 613.70 848.72 483.42 1036.32 459.25 920.43 633.49 929.42 714.47 1085.09 690.89
00002221 00000103 778.89 239.71 468.48 613.85 848.72 485.22 1037.38 461.21 920.45 635.02 928.61 714.79 1086.12 691.59
00002222 00000104 780.55 240.06 466.59 614.14 849.08 484.92 1037.19 461.17 920.26 634.83 929.09 715.20 1086.05 692.05
00002223 00000105 780.16 239.82 467.66 617.28 848.64 483.56 1036.36 459.17 919.66 633.06 928.79 715.81 1085.54 692.17
00002224 00000106 780.73 239.50 471.58 617.30 848.30 483.09 1040.20 460.82 921.51 639.01 929.73 709.24 1087.53 689.99
00002225 00000107 779.13 241.15 473.45 616.76 848.09 483.42 1039.94 460.93 921.87 639.23 930.80 709.68 1087.76 690.29
00002226 00000108 778.71 241.06 474.18 617.33 848.24 483.48 1040.31 460.58 922.30 638.01 931.26 710.33 1088.09 690.63
00002227 00000109 777.40 240.58 475.68 618.42 848.34 483.79 1040.24 461.01 922.83 637.79 931.37 710.58 1088.00 690.90
00002228 00000110 784.78 239.11 469.01 620.56 854.24 494.04 1037.71 470.01 924.09 637.81 933.51 711.66 1087.70 690.41
00002229 00000111 785.31 238.61 468.30 622.10 854.83 493.42 1038.75 469.16 925.53 638.45 934.32 712.27 1088.36 690.92
00002230 00000112 782.36 238.78 472.95 622.91 851.42 490.30 1041.04 464.79 926.98 638.87 933.06 711.98 1090.41 689.72
00002231 00000113 778.30 238.03 475.65 624.72 849.01 486.84 1041.90 459.36 928.22 637.98 933.65 712.72 1091.87 689.02
00002232 00000114 774.52 237.11 476.56 625.94 847.83 488.04 1041.80 456.70 930.69 636.05 935.02 714.08 1094.51 687.07
00002233 00000115 782.02 240.16 467.21 621.81 850.33 493.61 1039.55 462.16 928.95 635.64 933.52 713.82 1091.97 686.58
00002234 00000116 772.70 237.69 469.85 629.06 851.05 504.41 1033.57 462.57 930.85 627.86 932.97 723.17 1089.25 686.39
00002235 00000117 771.16 236.24 472.22 629.35 848.10 502.71 1031.61 458.18 928.27 625.13 931.66 722.59 1088.00 683.59
00002236 00000118 770.66 238.75 471.68 624.13 842.41 497.58 1027.72 450.34 923.45 623.68 930.44 720.68 1090.12 679.04
00002237 00000119 769.88 232.04 468.15 627.96 840.53 492.99 1024.56 444.89 922.12 619.66 930.38 717.65 1091.22 674.79
00002238 00000120 769.06 228.99 470.82 628.54 840.99 490.26 1024.64 442.37 922.36 615.80 930.86 715.36 1091.18 672.50
00002239 00000121 769.32 226.68 469.69 632.22 841.90 487.64 1024.04 442.35 923.27 614.15 931.11 714.75 1089.14 673.81
00002240 00000122 769.38 224.79 467.18 634.52 841.86 487.23 1023.81 441.65 923.62 614.05 931.58 714.83 1090.19 673.58
00002241 00000123 767.75 227.86 465.67 630.39 839.69 487.84 1020.57 441.68 920.92 614.41 929.59 714.55 1087.86 673.00
00002242 00000124 764.25 228.37 465.55 629.70 838.28 488.64 1017.00 441.87 918.59 613.05 926.70 712.81 1083.82 670.93
00002243 00000125 759.57 229.13 467.03 629.33 835.69 490.09 1015.78 442.49 917.31 613.15 922.13 712.68 1081.82 670.59
00002244 00000126 754.09 233.31 468.83 625.77 832.12 492.35 1015.27 446.20 917.05 615.82 917.31 712.98 1079.89 672.56
00002245 00000127 757.05 236.45 462.08 622.35 830.49 494.23 1011.85 446.26 914.20 616.68 916.53 714.78 1078.02 672.85
00002246 00000128 756.97 237.86 463.68 619.46 830.71 493.74 1011.23 446.92 912.83 616.65 916.70 713.58 1077.12 672.51
00002247 00000129 757.36 238.66 465.00 613.94 832.49 493.37 1012.67 446.47 914.69 613.50 918.71 711.04 1077.59 670.00
00002248 00000130 763.91 234.99 459.85 614.90 836.23 494.53 1013.34 447.68 916.60 613.36 922.51 711.13 1077.79 669.93
00002249 00000131 769.63 233.23 459.50 616.92 840.97 497.48 1016.62 449.21 918.54 613.66 927.72 712.88 1080.70 670.45
00002250 00000132 777.26 233.49 456.02 616.35 845.06 496.36 1019.55 449.68 919.11 617.06 933.46 714.19 1083.36 672.59
00002251 00000133 778.17 233.60 461.93 616.18 848.71 497.86 1025.61 450.12 925.50 617.68 939.09 716.21 1088.33 673.65
00002252 00000134 782.19 238.39 468.38 609.88 854.05 494.65 1039.17 450.83 932.95 617.65 940.40 715.71 1092.55 676.95
00002253 00000135 783.58 236.42 473.13 607.34 860.79 492.04 1050.61 449.28 946.09 616.81 948.02 712.99 1100.80 675.59
00002254 00000136 789.85 230.75 467.72 608.98 865.67 489.21 1057.82 448.80 953.31 615.49 952.75 710.93 1106.61 675.52
00002255 00000137 796.76 236.40 463.04 607.61 872.44 496.98 1061.00 452.15 958.54 619.36 962.22 712.59 1112.52 674.09
00002256 00000138 803.24 228.48 464.20 609.43 873.41 487.30 1059.77 446.38 958.38 615.64 962.42 709.22 1115.25 673.02
00002257 00000139 805.77 228.30 458.54 609.92 875.87 487.68 1061.97 446.48 961.24 615.95 964.14 709.33 1118.91 672.99
00002258 00000140 811.22 229.97 453.77 610.39 878.99 490.48 1062.94 448.72 963.77 617.11 966.01 710.20 1122.49 673.39
00002259 00000141 813.94 231.69 454.55 607.38 882.79 489.50 1065.15 448.10 966.76 614.68 968.99 707.98 1124.88 671.30
00002260 00000142 812.35 229.14 460.56 608.04 885.70 485.11 1071.16 443.66 973.16 610.82 970.94 704.86 1128.31 668.15
00002261 00000143 812.88 227.84 461.65 607.11 887.00 482.71 1075.79 439.75 976.26 606.22 971.39 703.61 1130.43 665.63
00002262 00000144 815.60 229.22 462.69 604.42 889.91 480.66 1077.22 437.58 978.24 602.98 973.16 701.00 1130.90 662.82
00002263 00000145 814.16 229.49 464.00 604.41 888.89 481.79 1076.82 437.90 977.66 603.41 972.86 702.06 1130.92 663.22
00002264 00000146 813.06 230.17 465.66 606.24 888.85 484.30 1075.36 441.18 976.17 606.65 972.50 703.97 1130.73 665.85
00002265 00000147 813.15 232.49 462.42 604.97 886.85 485.80 1072.95 444.17 973.60 611.20 971.47 705.24 1129.57 668.43
00002266 00000148 811.87 233.15 460.59 605.37 884.99 487.98 1070.79 447.15 971.92 614.77 971.20 706.91 1128.58 670.81
00002267 00000149 814.09 233.25 455.94 606.30 883.75 489.06 1067.21 449.45 967.96 616.58 969.76 708.25 1125.98 673.13
00002268 00000150 811.31 231.44 456.87 607.45 881.21 488.89 1067.00 448.72 967.24 617.08 968.22 709.12 1125.17 673.58
00002269 00000151 812.11 227.07 453.64 611.10 879.42 488.89 1064.93 446.37 966.28 615.35 967.14 709.10 1124.47 671.52
00002270 00000152 812.67 227.22 453.42 610.66 879.76 488.01 1064.52 445.48 966.53 614.03 967.23 708.34 1123.55 670.77
00002271 00000153 811.70 227.26 454.46 610.18 879.97 486.97 1065.58 444.68 967.73 613.43 966.99 707.88 1123.53 670.57
00002272 00000154 812.46 226.82 453.44 611.07 880.60 486.85 1065.63 444.95 967.61 613.08 967.01 707.96 1123.20 670.98
00002273 00000155 812.51 227.94 452.81 610.38 880.68 487.43 1065.42 445.86 966.69 613.52 966.79 708.50 1123.33 671.79
00002274 00000156 813.08 229.57 451.65 609.21 879.89 488.56 1065.40 446.94 965.60 615.19 965.91 709.54 1123.36 672.83
00002275 00000157 812.96 230.89 452.32 609.02 880.10 488.93 1064.76 448.05 964.21 616.06 966.06 709.87 1123.10 673.75
00002276 00000158 812.80 230.00 450.63 611.62 879.49 489.29 1064.42 449.69 963.27 618.07 965.11 711.11 1121.87 676.15
00002277 00000159 809.14 228.33 452.25 616.87 878.52 490.15 1063.79 451.15 962.98 619.41 964.38 712.51 1120.74 678.25
00002278 00000160 805.00 230.08 457.41 615.57 876.37 489.89 1063.12 452.28 961.46 620.69 962.69 712.52 1118.61 679.41
00002279 00000161 802.75 229.10 458.43 615.86 875.35 490.76 1062.66 452.57 961.55 620.15 961.24 712.70 1117.81 679.20
00002280 00000162 799.45 228.26 462.83 616.50 873.66 490.67 1061.59 453.08 959.34 619.22 958.54 712.87 1114.57 679.88
00002281 00000163 794.29 227.28 466.36 617.06 870.23 489.91 1060.50 452.57 956.88 619.74 955.18 712.59 1111.04 679.86
00002282 00000164 789.37 225.51 466.91 618.05 866.25 488.52 1058.53 451.76 953.77 619.01 951.57 712.70 1107.13 680.40
00002283 00000165 786.43 226.61 468.82 616.75 863.70 488.26 1055.87 451.03 949.81 618.25 948.44 713.11 1103.11 680.29
00002284 00000166 786.90 227.64 465.60 614.10 862.12 485.85 1053.28 450.35 946.17 616.02 944.69 710.97 1097.89 679.65
00002285 00000167 783.18 235.95 463.30 612.59 862.26 492.14 1052.03 455.29 946.18 614.15 943.79 712.18 1095.80 680.39
