Video ID: 	df1DHR44FNs
H: 	1080
W: 	1920
FPS: 	25.0

FRAME INDEX X0 Y0 W H [Landmarks (5 Points)]

00018746 00000000 1011.14 96.88 342.88 513.91 1039.87 302.40 1148.04 324.63 1025.02 403.31 1040.69 492.69 1113.05 510.20
00018747 00000001 1007.82 97.03 341.77 512.41 1029.26 292.82 1146.62 320.09 1006.58 400.93 1032.05 492.78 1109.49 516.84
00018748 00000002 1004.47 97.84 339.82 509.70 1025.77 292.83 1142.06 319.42 1001.05 399.79 1029.36 491.43 1106.97 515.14
00018749 00000003 995.14 97.26 341.94 502.11 1031.38 294.20 1139.19 321.04 1012.05 397.78 1030.31 488.87 1101.77 507.23
00018750 00000004 991.72 97.27 338.29 503.02 1028.05 292.82 1133.14 320.53 1005.20 398.57 1025.45 489.52 1095.03 508.23
00018751 00000005 991.37 93.76 334.40 501.17 1022.48 291.44 1130.40 319.96 1002.03 398.37 1018.83 489.30 1091.94 508.60
00018752 00000006 987.99 93.35 335.59 501.10 1018.19 293.54 1125.07 320.01 997.82 400.23 1016.46 490.76 1087.26 508.40
00018753 00000007 974.35 98.10 345.50 494.74 1013.11 296.43 1124.51 320.32 1002.01 393.69 1010.16 484.11 1086.03 499.91
00018754 00000008 977.81 95.90 344.11 504.35 1011.38 288.91 1124.11 321.75 994.44 391.41 1006.68 482.82 1082.23 507.63
00018755 DELETE   974.11 95.90 347.20 505.35 1009.46 288.83 1123.24 321.48 990.26 390.54 1004.00 481.82 1081.46 506.66
00018756 00000010 969.25 93.83 351.74 509.10 1006.85 289.25 1121.68 320.19 985.98 389.61 1001.35 481.97 1080.35 505.68
00018757 00000011 965.46 93.67 353.26 509.35 1004.12 291.68 1116.46 320.38 980.65 390.71 998.16 483.53 1076.13 505.80
00018758 00000012 961.97 92.06 354.21 511.20 1001.05 295.73 1111.90 321.07 976.67 393.14 996.62 487.32 1073.14 507.53
00018759 00000013 960.55 91.08 353.51 511.86 998.25 297.57 1109.18 320.92 974.28 394.59 994.97 489.40 1071.02 508.43
00018760 00000014 958.78 90.05 353.09 515.26 990.10 305.07 1096.88 315.47 975.81 401.51 994.66 493.38 1068.82 502.28
00018761 00000015 957.43 91.19 350.91 512.56 988.58 303.83 1096.77 316.59 975.80 402.22 991.29 491.20 1067.84 501.97
00018762 00000016 957.77 91.71 349.15 510.94 985.63 302.74 1095.55 316.79 973.64 402.97 989.03 491.18 1066.87 502.98
00018763 00000017 957.54 91.42 347.11 510.43 984.82 302.75 1094.85 316.69 972.53 402.35 988.84 490.99 1066.90 502.77
00018764 00000018 956.70 91.74 346.52 512.27 983.54 303.11 1092.48 316.12 971.53 403.17 988.49 491.59 1065.69 502.59
00018765 00000019 955.17 90.74 344.85 511.69 982.33 303.85 1089.74 316.72 970.08 403.33 988.05 491.56 1063.50 502.27
00018766 00000020 943.47 101.42 348.36 489.01 983.86 299.61 1095.38 319.04 972.50 398.31 985.68 489.68 1061.71 502.17
00018767 00000021 940.69 98.77 349.58 490.26 981.06 299.16 1094.08 318.70 971.62 399.92 984.66 489.96 1061.40 502.52
00018768 00000022 951.70 86.58 344.59 514.91 977.05 301.06 1085.89 316.55 966.16 406.19 986.32 492.07 1062.45 504.50
00018769 00000023 951.14 86.69 344.75 515.12 975.76 301.13 1086.07 316.91 966.02 407.47 984.97 492.79 1062.53 505.38
00018770 00000024 949.55 89.78 345.42 511.29 974.11 301.40 1084.39 317.82 963.91 408.28 983.53 492.32 1062.02 505.25
00018771 00000025 935.43 98.41 351.51 490.84 974.72 300.40 1091.57 318.77 970.09 402.40 980.63 490.63 1061.09 502.50
00018772 00000026 934.04 99.15 350.84 490.93 973.48 300.19 1090.50 318.12 969.24 402.68 979.61 490.87 1061.01 502.47
00018773 00000027 932.75 99.34 349.58 493.63 972.80 300.51 1088.64 316.80 968.85 401.99 979.78 491.24 1061.19 501.72
00018774 00000028 940.60 92.16 347.10 519.98 969.20 303.26 1081.83 316.03 959.74 405.58 978.48 495.32 1056.44 505.74
00018775 00000029 934.32 91.21 353.34 523.55 967.60 294.83 1082.25 309.07 961.75 404.24 982.59 496.83 1062.99 506.62
00018776 00000030 933.57 93.17 351.63 522.73 965.48 296.73 1078.59 310.94 959.25 407.03 980.71 498.73 1060.14 508.19
00018777 00000031 933.90 93.81 346.34 515.57 963.16 298.55 1074.95 313.94 958.79 408.40 979.45 497.69 1057.78 507.51
00018778 00000032 932.50 92.72 348.18 522.90 958.51 298.92 1070.79 316.24 936.15 408.59 974.90 499.27 1049.13 514.78
00018779 00000033 931.42 95.61 342.81 518.58 954.23 302.03 1064.77 316.40 932.23 411.01 973.01 501.77 1045.24 515.63
00018780 00000034 930.12 96.39 337.01 516.83 950.55 304.57 1056.98 319.11 927.43 413.82 970.82 502.48 1039.35 516.87
00018781 00000035 929.12 96.74 335.98 513.62 948.05 303.68 1053.80 320.23 925.46 415.67 968.87 501.80 1035.76 517.79
00018782 00000036 927.69 95.71 336.78 517.74 945.37 304.19 1051.40 322.39 922.64 417.73 964.80 503.72 1033.01 521.00
00018783 DELETE   927.33 97.49 339.56 519.26 947.51 306.51 1052.64 325.11 923.77 422.15 968.45 505.89 1035.72 523.41
00018784 00000038 924.88 100.84 344.65 519.92 947.57 307.44 1053.51 326.99 925.54 425.54 969.30 508.02 1036.09 526.29
00018785 00000039 923.97 103.91 344.15 516.97 944.13 306.49 1053.06 327.54 923.84 425.70 964.88 509.10 1033.44 528.60
00018786 00000040 924.35 102.94 341.53 519.05 943.35 306.58 1049.51 324.84 920.79 421.60 962.74 510.17 1029.83 527.61
00018787 00000041 921.98 97.82 342.04 525.71 939.77 304.93 1050.02 322.95 919.28 417.29 957.91 510.14 1027.94 527.45
00018788 00000042 920.19 100.99 340.28 523.96 936.88 302.98 1049.94 320.86 919.36 416.76 954.60 510.80 1027.00 527.97
00018789 00000043 919.05 99.11 335.78 525.51 934.24 300.68 1045.85 319.11 915.21 414.79 951.92 510.85 1022.19 528.34
00018790 00000044 915.96 97.18 336.40 524.00 930.09 300.95 1040.67 317.69 909.55 412.65 947.99 511.28 1016.20 527.60
00018791 DELETE   903.99 101.53 336.32 506.48 936.77 304.63 1033.19 321.51 915.10 410.19 947.76 501.93 1012.66 511.88
00018792 00000046 900.87 97.38 333.09 510.11 934.02 301.55 1028.28 318.41 909.79 404.82 943.07 497.88 1005.94 507.95
00018793 00000047 897.76 95.08 332.85 515.40 932.28 300.82 1024.80 316.28 905.97 401.97 939.39 497.82 1001.52 507.10
00018794 00000048 891.29 105.03 331.42 506.95 932.72 304.17 1023.50 318.99 905.37 400.04 935.01 499.59 998.18 509.09
00018795 00000049 893.18 98.12 330.71 514.50 928.08 303.02 1021.72 318.91 901.33 401.54 932.89 498.95 996.14 508.60
00018796 00000050 892.72 99.33 332.42 511.03 927.65 303.09 1023.31 321.08 902.55 402.40 931.50 498.59 995.39 509.65
00018797 00000051 894.60 92.96 338.12 522.13 930.30 302.95 1018.78 321.70 897.98 408.94 937.68 500.79 992.46 513.17
00018798 00000052 895.92 92.18 337.79 520.25 931.20 301.22 1021.78 321.09 900.39 408.41 937.76 499.01 994.33 512.14
00018799 00000053 897.01 90.63 339.71 522.68 933.32 301.55 1025.10 321.18 902.07 407.84 939.09 500.21 997.89 513.11
00018800 00000054 898.09 93.15 339.09 519.58 935.08 300.86 1028.22 322.57 904.33 408.63 940.27 500.61 1000.36 514.93
00018801 00000055 899.37 93.46 341.55 519.62 936.11 301.87 1030.74 323.43 907.59 410.28 942.23 501.18 1002.78 515.39
00018802 00000056 900.85 94.86 340.17 517.99 936.62 302.40 1032.60 323.14 909.72 411.41 942.66 501.85 1004.25 515.55
00018803 00000057 902.90 93.35 340.24 518.75 939.00 301.35 1036.06 322.70 912.76 409.91 945.27 501.31 1007.32 515.50
00018804 00000058 906.05 92.87 337.47 519.70 941.72 302.27 1039.11 321.71 916.69 410.41 948.77 502.56 1011.06 515.47
00018805 00000059 907.96 91.97 338.81 519.36 943.17 301.88 1041.89 320.80 918.55 410.57 949.76 500.99 1013.06 513.74
00018806 00000060 909.73 91.07 337.93 515.77 944.56 301.50 1044.72 321.15 921.19 411.10 951.45 500.09 1015.07 513.29
00018807 00000061 923.40 91.93 332.83 517.12 933.30 294.91 1047.89 314.45 910.15 402.15 942.67 502.22 1016.72 520.18
00018808 00000062 922.06 93.71 338.50 518.09 934.15 295.48 1050.25 313.80 912.28 402.22 943.52 502.61 1020.30 519.99
00018809 00000063 921.34 89.35 339.04 532.84 935.47 297.85 1052.03 312.07 916.23 404.34 948.81 508.70 1025.55 523.15
00018810 00000064 921.10 87.48 343.69 533.98 937.98 298.14 1055.79 311.70 920.65 404.20 952.63 508.04 1029.73 521.81
00018811 00000065 920.35 84.88 343.81 534.27 939.93 299.19 1061.35 311.17 927.90 403.97 955.53 505.18 1036.72 517.81
00018812 00000066 917.16 85.23 352.59 534.20 941.51 301.17 1065.93 309.70 933.33 405.22 961.78 504.94 1044.32 514.33
00018813 00000067 917.16 85.52 358.57 533.18 944.15 304.00 1075.27 309.28 944.96 407.59 966.97 506.63 1054.97 512.32
00018814 00000068 917.25 85.10 361.21 532.92 948.83 304.58 1086.28 309.10 955.79 416.32 974.75 507.62 1071.27 512.19
00018815 00000069 916.37 86.41 363.36 529.12 951.93 308.95 1093.21 308.90 966.26 419.39 982.57 508.78 1084.40 509.27
00018816 00000070 924.10 89.18 358.15 520.78 963.73 317.27 1100.81 315.43 994.68 422.40 993.43 505.44 1092.12 502.91
00018817 00000071 917.09 87.57 367.62 525.76 964.41 312.72 1109.65 304.48 994.41 416.37 1001.67 509.00 1104.41 502.35
00018818 00000072 918.27 89.42 368.35 521.23 967.70 314.46 1111.19 303.45 1001.39 418.88 1009.25 508.90 1112.25 499.84
00018819 00000073 923.14 91.26 370.82 517.13 969.00 318.36 1111.53 309.32 1014.99 428.01 1013.38 506.49 1117.95 498.09
00018820 00000074 923.90 91.03 371.90 515.00 971.24 316.17 1113.10 308.04 1017.75 427.28 1016.65 504.74 1119.80 497.04
00018821 00000075 920.46 93.04 378.25 512.67 977.39 315.28 1124.13 300.86 1017.37 423.82 1023.81 510.88 1129.65 498.82
00018822 00000076 919.11 97.41 381.44 506.04 979.75 315.56 1130.54 299.99 1027.38 424.61 1028.48 510.03 1135.95 497.32
00018823 00000077 926.12 95.60 380.02 502.62 986.06 318.43 1133.79 298.55 1039.94 416.41 1040.78 509.24 1143.62 491.01
00018824 00000078 924.60 101.05 382.70 498.91 980.65 315.01 1133.08 298.83 1043.21 424.02 1033.85 510.17 1144.93 496.63
00018825 00000079 918.62 99.06 387.99 505.33 989.08 311.64 1142.24 292.43 1051.43 415.40 1047.63 506.18 1151.98 490.11
00018826 00000080 919.88 97.49 385.76 503.66 990.85 312.27 1146.40 289.83 1057.09 415.10 1054.04 508.57 1159.47 489.94
00018827 00000081 920.66 97.07 387.68 503.42 993.57 311.71 1151.19 289.99 1062.09 414.27 1056.29 505.17 1164.38 487.03
00018828 00000082 923.17 98.67 388.56 500.48 996.00 311.71 1154.00 290.12 1065.30 413.68 1058.66 500.63 1169.10 482.58
00018829 00000083 924.90 98.84 389.13 498.18 998.53 312.73 1157.39 290.19 1069.58 412.48 1061.51 499.78 1172.23 481.02
00018830 00000084 927.43 100.00 385.75 494.52 1003.02 312.83 1160.28 291.34 1074.45 411.70 1065.87 496.04 1176.46 478.33
00018831 00000085 929.82 101.32 381.87 492.70 1006.27 313.98 1164.18 292.62 1080.10 413.43 1070.27 496.82 1181.38 479.37
00018832 00000086 931.82 101.85 382.25 492.74 1009.12 313.16 1165.59 293.08 1082.20 412.65 1072.22 496.00 1182.58 479.76
00018833 00000087 933.51 99.53 379.82 496.33 1012.79 311.08 1166.36 291.45 1084.97 409.27 1074.79 495.30 1182.34 479.68
00018834 00000088 935.80 96.59 377.12 501.63 1015.11 307.00 1169.33 288.59 1087.93 405.45 1075.01 495.10 1183.32 480.62
00018835 00000089 935.24 94.16 376.93 501.85 1014.01 305.24 1170.10 284.75 1088.16 402.54 1074.22 494.86 1183.47 478.95
00018836 00000090 933.59 90.47 377.56 500.97 1013.64 302.55 1169.46 283.10 1087.38 398.05 1071.46 490.44 1180.46 475.24
00018837 00000091 930.93 88.23 378.52 501.16 1012.10 301.04 1168.27 281.81 1086.11 394.81 1068.33 487.50 1178.83 472.24
00018838 00000092 926.65 86.02 382.97 502.76 1009.61 300.25 1166.51 281.09 1083.50 393.90 1066.01 484.90 1178.30 469.31
00018839 00000093 923.01 88.27 385.47 501.59 1008.17 300.25 1165.66 280.72 1082.37 395.85 1066.89 486.38 1177.98 470.27
00018840 00000094 921.03 90.99 385.08 504.10 1006.35 301.17 1163.64 281.33 1080.50 398.68 1065.61 489.48 1175.99 473.32
00018841 00000095 920.22 91.54 384.80 503.33 1005.92 302.50 1163.92 282.70 1080.51 400.10 1064.89 489.72 1175.81 473.56
00018842 00000096 917.95 91.46 386.90 503.97 1005.15 302.12 1162.96 282.52 1080.38 400.03 1063.86 489.17 1174.93 473.09
00018843 00000097 915.87 90.60 388.69 503.01 1002.72 301.06 1162.23 280.78 1078.93 398.93 1062.22 488.42 1175.12 471.53
00018844 00000098 913.78 89.74 390.27 503.40 1000.43 301.24 1161.22 280.14 1077.26 399.08 1061.05 488.95 1174.96 471.32
00018845 00000099 911.90 90.44 392.12 502.93 998.59 301.59 1161.22 279.99 1076.25 400.35 1059.74 489.52 1175.41 471.36
00018846 00000100 911.50 90.00 391.78 503.83 998.45 301.77 1161.01 280.40 1076.57 400.20 1059.34 488.87 1175.68 470.95
00018847 00000101 910.68 90.50 393.21 504.17 997.36 302.19 1160.35 279.67 1075.69 400.47 1059.00 490.27 1175.65 471.31
00018848 00000102 909.28 90.46 394.59 507.17 996.55 301.85 1158.94 279.25 1074.21 399.67 1057.14 490.59 1173.83 471.64
00018849 00000103 909.80 91.61 393.96 506.91 996.55 302.37 1158.47 280.07 1073.80 400.25 1056.93 490.62 1173.54 471.91
00018850 00000104 909.10 91.53 394.05 508.69 996.88 303.31 1158.72 281.25 1075.06 403.26 1058.06 492.42 1173.95 474.02
00018851 00000105 910.22 92.98 392.87 505.80 996.71 305.54 1158.85 283.34 1075.14 406.86 1060.56 495.06 1174.53 476.38
00018852 00000106 909.68 94.19 393.02 505.28 996.10 307.45 1158.37 283.85 1074.98 408.10 1061.48 496.16 1175.31 476.42
00018853 00000107 907.52 93.33 393.73 504.08 995.45 305.08 1158.65 280.81 1075.51 404.55 1060.52 493.40 1175.83 472.95
00018854 00000108 906.75 91.75 394.05 502.92 996.00 302.72 1159.89 279.07 1076.54 402.06 1060.67 490.77 1176.90 470.85
00018855 00000109 907.63 89.92 393.62 502.17 996.78 302.71 1161.93 279.65 1078.50 403.49 1062.92 491.53 1178.75 472.02
00018856 00000110 908.00 90.52 393.62 500.07 997.09 302.34 1162.07 279.85 1078.56 403.08 1062.80 491.07 1178.16 471.96
00018857 00000111 906.90 89.90 393.60 500.86 995.63 300.76 1160.99 278.85 1076.05 400.78 1060.28 489.52 1176.68 470.94
00018858 00000112 905.17 90.78 395.42 503.17 992.87 300.87 1157.74 277.08 1072.42 399.80 1057.79 490.57 1174.91 470.38
00018859 00000113 905.25 90.24 394.62 508.60 993.83 299.69 1153.82 276.78 1071.15 397.15 1055.51 489.79 1170.38 470.61
00018860 00000114 904.12 88.55 395.08 510.26 992.47 299.16 1153.56 276.23 1070.28 397.22 1054.80 489.86 1170.69 470.69
00018861 00000115 903.47 88.22 395.00 507.48 991.29 298.98 1156.25 276.65 1070.45 397.98 1053.94 490.36 1171.67 471.64
00018862 00000116 902.04 88.72 395.37 506.27 990.36 299.86 1156.90 277.79 1070.82 399.37 1053.96 489.75 1173.15 471.18
00018863 00000117 901.89 90.20 394.47 505.03 989.20 300.12 1154.87 277.42 1068.93 398.80 1052.52 489.53 1171.49 470.48
00018864 00000118 901.50 89.12 394.60 509.00 987.78 299.81 1152.98 276.37 1066.76 398.95 1050.93 492.22 1168.90 472.68
00018865 00000119 901.27 88.83 394.18 507.74 988.17 299.52 1153.21 276.35 1067.42 399.24 1051.73 492.21 1168.77 472.97
00018866 00000120 901.61 89.05 392.11 505.52 988.75 299.08 1154.25 277.02 1068.46 398.92 1052.72 490.89 1169.67 472.58
00018867 00000121 901.72 89.36 392.54 502.77 989.38 299.06 1154.69 277.14 1069.24 398.82 1053.66 488.80 1170.73 470.55
00018868 00000122 901.61 87.95 392.18 503.98 989.82 297.92 1154.60 276.00 1070.10 397.66 1053.79 488.17 1170.23 469.95
00018869 00000123 901.86 88.29 392.72 501.49 989.67 297.04 1154.11 274.57 1069.23 397.49 1054.31 488.31 1169.98 469.66
00018870 00000124 902.04 87.50 394.55 505.47 990.43 298.05 1154.62 274.36 1070.37 396.63 1055.25 488.78 1171.52 468.97
00018871 00000125 902.12 86.24 395.22 508.19 991.64 297.76 1155.05 273.77 1072.00 396.21 1056.29 489.76 1171.58 469.78
00018872 00000126 903.11 85.62 395.33 508.83 992.99 297.59 1155.63 273.39 1073.07 395.48 1056.91 489.53 1172.18 469.37
00018873 00000127 903.62 83.50 395.40 511.05 994.53 296.91 1156.71 272.85 1074.64 394.31 1057.99 488.78 1173.06 468.79
00018874 00000128 904.25 82.88 395.07 510.65 995.72 296.14 1157.19 272.25 1075.72 393.39 1058.99 488.24 1173.06 468.42
00018875 00000129 904.91 83.86 394.48 507.15 996.23 296.26 1158.89 272.47 1076.64 394.78 1060.98 487.89 1174.72 468.08
00018876 00000130 905.64 84.35 394.85 506.88 997.20 296.07 1160.10 274.03 1077.23 394.89 1060.00 486.87 1174.64 468.40
00018877 00000131 906.60 84.50 394.37 504.37 998.05 296.01 1161.39 275.03 1078.07 395.60 1061.02 486.68 1175.04 469.03
00018878 00000132 906.73 84.65 395.41 502.34 999.07 296.34 1163.40 275.18 1079.90 395.41 1062.04 485.28 1177.72 467.39
00018879 00000133 907.84 83.23 394.66 503.06 1000.43 296.00 1164.42 274.94 1081.79 393.23 1062.98 484.55 1178.53 466.80
00018880 00000134 908.18 83.17 395.05 503.34 1001.58 295.84 1165.64 275.46 1083.09 392.01 1063.06 483.35 1179.56 466.14
00018881 00000135 908.56 81.37 395.76 505.25 1002.17 295.43 1166.39 274.66 1084.02 391.82 1063.39 482.64 1180.57 465.13
00018882 00000136 908.79 83.26 395.66 503.31 1002.71 294.37 1166.56 274.15 1084.59 390.68 1063.48 482.08 1180.00 465.01
00018883 00000137 909.60 83.05 395.76 503.45 1003.89 294.31 1167.90 274.79 1085.87 390.30 1063.17 481.12 1180.40 464.64
00018884 00000138 911.29 83.23 393.72 502.31 1004.67 293.50 1168.30 275.22 1085.80 389.66 1062.86 480.50 1179.43 465.02
00018885 00000139 913.70 84.03 391.64 500.68 1005.20 291.97 1167.80 275.25 1083.75 389.89 1061.90 480.40 1176.63 466.27
00018886 00000140 915.57 84.69 389.13 499.73 1005.22 292.03 1166.57 276.11 1082.51 389.90 1060.93 480.35 1174.57 466.96
00018887 00000141 916.65 85.79 387.95 498.43 1005.24 291.85 1166.24 277.12 1081.00 392.01 1060.20 480.55 1173.57 468.14
00018888 00000142 918.23 87.46 386.66 497.72 1005.25 292.62 1166.06 278.75 1079.95 393.85 1059.27 481.87 1172.11 470.23
00018889 00000143 919.64 87.02 386.22 498.26 1006.27 293.70 1167.35 279.66 1080.97 393.70 1060.11 482.29 1173.16 470.58
00018890 00000144 921.99 86.75 384.41 498.49 1008.09 294.64 1168.20 280.91 1082.22 393.94 1060.85 481.82 1173.74 470.47
00018891 00000145 921.65 85.62 385.68 500.11 1008.72 295.60 1168.63 281.15 1083.49 393.86 1062.02 481.64 1175.70 469.73
00018892 00000146 922.40 85.60 385.45 500.73 1009.39 295.87 1169.39 281.70 1084.45 394.65 1063.04 481.70 1176.91 469.96
00018893 00000147 922.94 86.35 384.66 499.95 1009.49 296.81 1170.15 281.94 1085.35 395.42 1063.78 482.85 1177.97 470.55
00018894 00000148 922.84 86.15 384.75 501.21 1009.55 296.82 1169.59 282.43 1084.91 395.83 1063.03 482.54 1177.24 470.65
00018895 00000149 923.02 85.64 384.67 501.90 1009.76 297.50 1169.58 282.85 1085.31 396.67 1064.18 483.09 1177.88 470.97
00018896 00000150 923.21 85.98 384.50 502.10 1010.47 297.72 1170.35 283.53 1086.39 397.37 1064.55 483.96 1177.77 472.25
00018897 00000151 924.02 89.29 384.30 499.79 1010.74 299.57 1171.05 285.61 1086.65 399.94 1065.29 484.83 1179.56 473.24
00018898 00000152 927.89 90.50 382.46 501.91 1012.31 305.47 1171.99 291.48 1088.09 404.02 1066.40 486.74 1183.49 475.29
00018899 00000153 929.43 94.85 382.82 501.44 1014.61 313.16 1173.80 299.18 1091.22 411.72 1069.13 490.49 1187.82 478.93
CROP_BBOX: 702 0 1544 803
