Video ID: 	XM6xaAu5Gzw
H: 	1080
W: 	1920
FPS: 	29.97002997002997

FRAME INDEX X0 Y0 W H [Landmarks (5 Points)]

00005204 00000000 725.62 154.12 484.53 684.65 878.85 461.02 1103.06 406.40 1041.10 541.91 937.55 677.87 1146.19 632.61
00005205 00000001 723.72 152.95 481.89 681.78 873.49 459.32 1096.83 405.34 1032.93 540.04 932.46 675.08 1140.23 629.86
00005206 00000002 721.88 152.95 484.45 683.00 867.95 456.51 1092.48 401.94 1025.46 534.01 928.06 672.24 1137.48 626.48
00005207 00000003 718.58 150.92 484.47 682.80 862.17 453.15 1087.13 397.32 1020.65 525.75 924.69 668.70 1135.03 622.56
00005208 00000004 714.88 145.07 488.75 682.31 857.16 450.10 1081.03 387.03 1016.87 519.44 923.85 663.13 1136.33 610.87
00005209 00000005 712.65 138.39 490.65 685.64 856.04 444.21 1078.50 379.43 1016.19 512.57 924.96 659.56 1134.71 606.28
00005210 00000006 713.73 127.59 489.52 683.77 861.09 439.14 1079.95 375.50 1018.33 503.24 932.67 651.53 1135.06 594.40
00005211 00000007 714.62 120.96 485.75 688.45 858.28 431.70 1076.67 370.68 1014.24 493.54 925.99 641.40 1131.97 586.25
00005212 00000008 713.62 117.45 485.93 688.37 856.23 426.35 1072.36 364.30 1012.12 486.69 926.88 638.07 1130.44 581.92
00005213 00000009 709.26 116.80 489.29 684.57 850.69 422.33 1068.44 361.65 1005.29 476.90 922.15 631.69 1128.09 576.69
00005214 00000010 705.15 116.52 485.63 678.41 844.07 419.53 1062.98 359.56 991.65 473.58 911.71 629.90 1116.70 578.75
00005215 00000011 705.19 115.45 483.05 674.79 836.69 417.41 1056.11 356.61 981.17 469.97 905.70 627.54 1112.21 575.25
00005216 00000012 700.16 112.51 482.08 678.39 829.28 418.61 1050.56 358.37 971.16 471.57 897.18 629.82 1103.71 578.17
00005217 00000013 699.05 113.31 473.28 694.97 823.65 417.09 1051.84 364.64 966.43 481.69 884.79 628.15 1099.08 583.97
00005218 00000014 698.65 113.14 472.73 701.93 822.38 422.05 1050.92 370.55 963.45 495.29 881.64 636.11 1095.10 593.04
00005219 00000015 697.78 117.96 475.06 700.27 823.40 432.12 1048.20 380.53 962.45 503.69 884.00 644.04 1090.69 600.75
00005220 00000016 696.94 119.62 475.08 698.16 821.06 433.47 1045.34 381.37 957.76 506.87 879.97 645.11 1086.06 601.59
00005221 DELETE   697.90 109.21 471.22 699.78 815.15 424.99 1045.22 374.98 948.80 497.53 869.41 635.78 1086.19 594.02
00005222 00000018 695.09 107.75 474.93 691.42 810.34 413.07 1042.48 360.57 942.04 478.67 866.22 624.75 1083.89 580.91
00005223 00000019 695.89 102.08 474.89 683.63 803.26 407.13 1035.83 351.71 929.85 467.74 859.46 618.80 1076.69 572.25
00005224 00000020 693.41 97.19 477.56 685.89 804.68 399.97 1036.41 348.71 931.53 464.12 856.79 613.71 1073.38 570.81
00005225 00000021 698.40 99.18 476.29 686.70 806.72 401.04 1038.89 349.39 931.10 467.29 859.27 615.23 1077.09 572.02
00005226 00000022 700.21 97.01 477.41 693.80 810.80 403.11 1042.64 352.31 938.18 472.28 863.28 618.78 1082.17 576.37
00005227 00000023 703.75 97.45 475.79 690.67 815.78 401.20 1046.16 353.38 943.25 472.55 866.91 616.42 1084.24 576.64
00005228 00000024 705.61 99.12 476.06 683.73 818.46 397.86 1048.68 350.09 947.32 467.53 870.69 612.39 1087.46 572.59
00005229 00000025 705.64 100.18 479.58 681.06 821.17 398.00 1052.58 350.13 953.20 463.84 873.11 610.24 1091.36 570.17
00005230 00000026 709.11 99.79 475.77 681.51 824.88 398.33 1056.98 353.37 957.17 469.13 875.18 610.48 1093.31 572.91
00005231 00000027 713.24 103.56 472.77 682.24 832.41 400.92 1063.23 357.65 964.96 474.17 880.26 612.81 1097.25 576.59
00005232 00000028 715.46 106.53 473.97 679.29 833.73 401.07 1064.78 357.66 966.17 474.24 881.36 612.39 1099.34 576.12
00005233 00000029 715.28 104.28 475.03 679.55 833.78 399.16 1066.18 356.64 965.59 472.48 880.16 610.94 1099.10 575.43
00005234 00000030 715.04 102.52 474.61 680.94 833.71 398.82 1065.37 356.37 965.73 472.53 880.78 610.74 1099.14 575.25
00005235 00000031 714.78 106.65 476.03 680.75 834.86 401.43 1066.56 359.19 967.73 475.55 880.80 612.92 1099.29 577.59
00005236 00000032 714.18 106.70 476.45 682.21 834.58 401.88 1065.73 359.43 967.93 475.02 880.47 612.89 1099.32 577.32
00005237 00000033 713.12 107.20 476.19 679.09 832.85 401.47 1064.08 358.17 966.34 473.96 880.83 612.76 1098.17 576.53
00005238 00000034 712.60 105.00 475.59 682.48 832.57 401.80 1064.16 359.44 966.60 474.53 879.97 613.01 1098.29 577.48
00005239 00000035 712.95 106.64 476.32 684.08 833.11 406.18 1064.85 362.66 968.88 479.96 879.97 616.28 1098.46 579.88
00005240 00000036 713.29 109.82 475.88 686.74 834.04 408.10 1064.90 364.78 968.72 483.43 881.01 619.92 1099.41 583.72
00005241 00000037 712.22 110.10 476.35 685.60 834.31 408.03 1065.06 364.45 970.23 482.62 881.98 619.48 1100.08 583.09
00005242 00000038 712.18 112.70 476.74 680.22 834.55 407.64 1064.01 364.34 969.95 480.96 882.36 617.39 1098.92 581.19
00005243 00000039 712.21 110.88 477.51 680.96 834.49 407.81 1064.65 364.09 970.64 480.33 882.67 617.06 1099.71 580.44
00005244 00000040 713.25 111.83 477.39 681.28 836.32 408.64 1066.18 365.40 972.78 482.58 884.81 617.96 1102.03 581.74
00005245 00000041 712.62 110.49 479.69 685.72 836.58 409.06 1067.89 365.28 974.62 485.35 885.27 619.96 1103.83 583.39
00005246 00000042 714.44 114.66 480.94 680.95 838.05 408.71 1069.85 363.47 976.77 485.29 888.60 620.18 1106.83 582.43
00005247 00000043 716.13 116.43 481.92 675.35 841.13 407.38 1073.24 361.71 981.91 483.66 894.09 618.57 1111.05 580.25
00005248 00000044 722.79 126.43 478.18 663.85 848.74 408.58 1076.07 367.02 988.08 484.16 903.02 620.71 1116.05 584.06
00005249 00000045 717.85 115.38 485.73 676.31 848.92 404.31 1079.72 364.21 989.87 483.03 900.52 616.75 1114.81 582.58
00005250 00000046 721.50 112.95 484.36 678.78 853.11 403.96 1082.50 365.71 992.05 483.88 902.86 616.94 1116.24 584.28
00005251 00000047 731.97 123.29 476.90 665.09 858.51 406.60 1082.49 367.68 995.94 481.53 911.47 617.87 1121.77 582.89
00005252 00000048 736.24 127.23 474.94 659.93 860.65 405.25 1084.99 367.41 996.65 479.29 911.95 616.47 1123.32 582.30
00005253 00000049 738.24 129.21 475.18 659.40 862.69 404.93 1088.50 366.65 1000.21 478.92 913.60 617.33 1126.86 582.93
00005254 00000050 743.19 128.37 473.49 661.18 865.41 408.04 1091.53 368.36 1002.49 481.61 915.17 619.29 1130.57 584.26
00005255 00000051 745.26 134.60 474.72 657.61 867.72 409.64 1094.00 370.62 1004.45 486.22 916.76 620.38 1133.41 586.26
00005256 00000052 748.68 135.31 473.36 655.96 872.02 410.66 1099.97 372.49 1009.56 487.36 919.06 620.69 1137.00 587.37
00005257 00000053 752.41 131.73 473.81 659.20 876.35 409.99 1105.03 372.34 1012.53 485.52 922.04 620.46 1139.85 587.30
00005258 00000054 754.61 126.81 475.08 664.20 881.97 409.70 1110.87 372.42 1019.47 485.74 924.95 620.37 1142.81 587.73
00005259 00000055 755.40 122.56 477.29 666.32 885.04 410.01 1114.84 372.62 1024.18 484.38 928.41 621.06 1145.22 588.06
00005260 00000056 756.41 123.77 476.33 666.38 886.43 410.24 1117.11 372.41 1026.60 484.30 930.25 623.27 1146.91 589.91
00005261 00000057 756.41 122.89 476.77 668.12 887.47 409.91 1118.15 372.99 1027.58 484.29 930.76 623.90 1146.91 591.43
00005262 00000058 755.51 125.00 474.67 667.40 886.21 410.45 1117.10 374.51 1026.45 486.43 929.25 624.66 1145.49 593.00
00005263 00000059 754.40 125.33 475.02 668.44 885.79 412.18 1117.07 376.72 1027.22 488.13 928.32 625.95 1145.50 594.93
00005264 00000060 754.49 131.15 473.49 662.09 886.02 412.63 1116.04 378.57 1027.46 492.40 929.23 625.91 1145.14 596.17
00005265 00000061 753.47 131.02 473.38 662.65 885.96 412.67 1116.45 378.48 1028.37 493.39 929.64 626.45 1145.23 596.58
00005266 00000062 754.59 134.98 472.23 660.11 886.91 413.09 1117.15 379.43 1029.48 495.85 930.95 627.24 1146.33 598.00
00005267 00000063 757.16 134.23 470.34 661.19 888.83 413.29 1118.90 382.14 1029.33 497.14 932.28 628.55 1146.61 601.26
00005268 00000064 755.89 136.67 471.60 662.17 889.90 414.04 1120.06 384.50 1031.19 500.41 931.47 629.29 1146.49 603.61
00005269 00000065 753.53 132.66 474.62 667.10 889.70 415.86 1120.57 385.11 1032.74 502.22 932.67 631.57 1146.16 604.88
00005270 00000066 755.03 137.64 473.18 660.62 891.42 415.26 1122.10 385.24 1033.95 503.05 933.74 630.84 1147.03 604.75
00005271 00000067 755.68 136.25 473.25 660.55 893.58 414.30 1124.73 384.88 1036.61 502.30 935.81 630.53 1148.38 604.87
00005272 00000068 755.29 141.65 474.94 654.03 894.59 413.63 1126.91 383.67 1039.60 500.96 937.63 629.96 1150.66 603.88
00005273 00000069 759.90 156.15 474.20 643.99 896.93 410.17 1129.12 379.13 1040.87 498.51 943.42 631.60 1156.91 604.26
00005274 00000070 762.33 148.42 478.25 657.40 899.99 408.38 1128.13 372.53 1044.07 491.08 951.03 635.11 1159.26 603.23
00005275 00000071 768.75 138.83 470.41 678.54 902.09 402.04 1125.60 368.11 1039.42 486.34 953.59 638.58 1158.74 610.13
00005276 00000072 769.80 139.46 471.63 680.53 907.08 401.92 1127.80 366.28 1044.06 481.37 962.90 641.56 1159.24 611.78
00005277 00000073 774.53 143.58 469.45 674.15 913.28 403.70 1133.67 370.35 1051.77 483.73 968.89 644.28 1157.18 616.93
00005278 00000074 774.50 146.40 477.47 672.89 920.27 406.18 1137.15 374.26 1059.07 486.66 975.33 644.62 1160.11 618.41
00005279 00000075 777.92 146.35 477.60 676.20 924.43 409.81 1143.05 375.38 1064.18 488.41 982.30 648.39 1167.21 620.26
00005280 00000076 776.84 154.82 480.24 672.28 926.20 408.77 1143.10 376.24 1067.61 490.02 987.77 653.30 1166.34 626.94
00005281 00000077 781.35 164.03 476.49 669.20 932.39 403.09 1145.69 364.15 1076.12 487.05 1001.23 658.07 1163.50 622.95
00005282 00000078 775.22 153.69 484.18 681.70 931.56 398.78 1142.33 369.23 1073.49 481.84 997.76 654.54 1163.38 630.47
00005283 00000079 773.79 146.56 486.22 691.46 931.43 395.75 1141.73 366.61 1072.78 478.52 997.96 653.94 1164.06 629.88
00005284 00000080 775.43 151.14 485.47 690.62 931.65 401.27 1140.41 366.99 1076.76 480.80 1001.22 657.82 1169.65 629.48
00005285 00000081 779.58 158.63 481.72 687.11 928.85 407.60 1138.87 368.45 1075.47 488.92 1000.01 664.67 1173.49 632.30
00005286 00000082 786.95 172.75 478.87 674.60 935.42 408.38 1148.11 361.17 1083.28 490.40 1010.58 667.48 1184.36 624.27
00005287 00000083 786.84 170.34 473.83 668.35 933.26 408.64 1148.20 363.11 1083.64 488.85 1000.27 655.20 1184.57 613.40
00005288 00000084 782.34 162.34 471.13 674.96 928.87 405.84 1148.36 364.95 1080.76 483.37 990.59 649.70 1180.40 611.60
00005289 00000085 774.60 149.53 474.20 677.38 921.01 403.44 1142.07 371.23 1067.05 486.93 975.94 644.86 1171.18 617.80
00005290 00000086 769.67 153.57 468.00 673.03 907.88 414.43 1133.35 379.46 1055.69 495.22 966.35 652.18 1163.54 623.39
00005291 00000087 756.27 165.10 480.50 667.88 903.46 419.52 1126.15 379.11 1052.80 504.24 967.53 667.09 1146.99 630.27
00005292 00000088 748.01 156.81 479.24 673.25 893.59 422.57 1112.29 380.83 1040.25 504.41 957.13 665.77 1137.92 627.45
00005293 00000089 742.61 163.62 481.23 662.51 887.38 419.67 1104.28 376.94 1032.86 500.96 950.86 659.36 1133.17 620.45
00005294 00000090 742.34 167.12 473.47 654.31 884.21 417.26 1105.25 374.80 1032.40 496.63 942.85 649.18 1140.23 610.38
00005295 00000091 744.75 153.61 472.70 655.62 880.50 412.71 1105.57 369.14 1028.58 487.92 935.55 638.75 1145.75 601.41
00005296 00000092 747.89 147.55 477.42 655.22 887.27 411.04 1115.17 367.62 1037.80 486.97 943.55 636.84 1153.04 599.47
00005297 00000093 756.66 146.01 477.84 655.17 897.19 410.80 1126.95 365.88 1049.41 486.04 955.46 637.64 1164.73 598.46
00005298 00000094 769.58 134.34 468.44 668.42 905.04 408.60 1129.96 365.80 1051.94 480.39 963.68 633.05 1169.83 596.96
00005299 00000095 779.07 135.44 469.22 663.54 918.65 406.10 1142.92 367.53 1062.80 476.73 972.38 627.59 1173.60 594.96
00005300 00000096 786.77 131.03 471.13 663.12 930.01 403.28 1151.20 362.54 1076.14 474.43 986.63 626.35 1183.93 591.26
00005301 00000097 795.24 139.11 470.03 656.98 938.80 400.81 1158.39 357.78 1086.38 475.34 999.64 629.01 1193.38 591.74
00005302 00000098 802.37 129.30 473.13 667.68 953.20 400.82 1171.58 363.91 1100.56 474.09 1008.73 628.49 1201.40 595.97
00005303 00000099 810.05 127.29 478.07 667.76 964.68 402.21 1184.24 364.97 1113.11 473.24 1021.72 631.16 1211.97 598.33
00005304 00000100 819.34 125.53 478.79 667.48 973.06 402.44 1194.67 367.32 1120.40 472.05 1030.60 631.37 1219.66 600.24
00005305 00000101 828.49 120.19 474.09 668.11 980.91 403.55 1204.30 366.10 1129.63 475.64 1039.14 633.27 1229.53 599.92
00005306 00000102 838.30 124.70 473.83 667.84 991.27 405.64 1217.97 370.17 1143.64 482.14 1046.12 634.62 1243.08 602.62
00005307 00000103 848.89 128.85 471.17 681.84 999.51 410.79 1224.85 377.46 1149.25 488.57 1049.20 637.28 1249.95 608.92
00005308 00000104 857.84 129.47 473.54 677.40 1014.07 408.71 1236.50 379.04 1165.31 488.21 1062.80 637.46 1258.68 611.94
00005309 00000105 867.69 128.73 475.54 682.31 1020.65 410.60 1246.12 379.95 1174.39 494.81 1075.72 641.87 1270.30 612.33
00005310 00000106 865.53 131.70 476.84 679.01 1022.74 411.25 1246.52 382.88 1175.70 491.64 1068.64 639.93 1270.25 615.44
00005311 00000107 865.36 130.07 477.10 682.81 1023.93 409.45 1248.10 381.66 1178.66 491.69 1066.43 639.87 1271.65 616.06
00005312 00000108 864.48 126.40 477.10 693.94 1024.19 411.61 1246.88 386.45 1177.35 495.42 1066.63 644.96 1268.34 623.50
00005313 00000109 864.60 132.01 471.06 693.52 1021.98 416.70 1240.32 391.77 1173.55 502.98 1068.56 650.38 1262.91 629.12
00005314 00000110 857.51 141.13 472.70 685.73 1016.93 421.26 1234.17 395.83 1167.32 507.76 1067.59 656.60 1255.56 635.23
00005315 00000111 849.32 143.55 473.10 683.34 1008.41 429.49 1227.69 403.01 1159.37 513.00 1060.83 662.11 1248.20 639.92
00005316 00000112 843.45 141.03 471.29 692.55 1001.18 430.56 1219.06 405.14 1151.19 514.49 1052.60 667.07 1238.95 645.94
00005317 00000113 840.06 144.53 466.49 692.42 994.34 431.65 1215.03 405.76 1144.10 516.73 1042.49 667.27 1234.90 645.75
00005318 00000114 833.19 141.08 471.06 686.93 990.99 426.08 1208.18 401.26 1137.49 515.92 1043.99 668.07 1227.36 646.71
00005319 00000115 829.54 141.00 470.37 683.96 984.60 427.12 1205.16 400.29 1134.91 514.94 1036.62 663.77 1228.55 641.01
00005320 00000116 827.22 139.70 467.77 670.07 981.44 426.60 1201.63 396.05 1133.61 510.59 1038.83 659.80 1225.52 633.75
00005321 00000117 823.52 140.58 466.88 660.12 978.41 424.95 1200.73 392.87 1133.74 508.16 1034.54 654.74 1223.43 627.62
00005322 00000118 818.31 138.17 467.10 661.26 973.30 422.37 1197.72 389.90 1131.22 505.85 1027.77 651.33 1221.11 624.08
00005323 00000119 814.13 130.65 466.26 668.00 969.29 420.72 1193.70 387.18 1127.19 501.12 1019.84 646.23 1217.06 618.07
00005324 00000120 805.84 128.47 469.26 672.64 962.97 418.58 1186.47 387.19 1120.21 499.43 1009.89 642.51 1209.14 616.07
00005325 00000121 800.18 128.90 470.91 671.67 958.80 421.54 1182.25 390.26 1114.01 499.73 1004.35 642.17 1201.56 615.75
00005326 00000122 797.91 131.86 469.41 668.33 952.98 422.15 1175.02 389.76 1104.08 500.10 997.80 639.85 1195.92 612.37
00005327 00000123 792.49 126.89 471.60 672.94 948.85 419.30 1169.24 389.86 1096.22 498.18 992.99 637.23 1188.56 612.10
00005328 00000124 785.03 120.97 477.86 681.83 939.74 417.33 1163.95 386.09 1089.48 496.85 989.42 635.95 1185.87 610.08
00005329 00000125 783.35 123.69 474.50 677.55 936.49 418.99 1161.72 389.72 1085.73 496.41 985.01 635.18 1183.11 610.86
00005330 00000126 781.43 123.67 474.33 675.26 934.41 420.41 1160.59 392.16 1084.38 497.03 982.14 635.53 1180.51 612.04
00005331 00000127 780.50 124.34 474.79 674.20 932.92 421.28 1159.75 393.09 1082.36 499.79 977.83 635.10 1178.12 611.80
00005332 00000128 780.51 122.70 474.90 679.16 932.19 421.31 1160.17 395.11 1080.19 501.37 973.21 633.62 1178.33 611.69
00005333 00000129 781.66 122.10 476.32 680.80 933.21 421.18 1161.25 395.01 1081.21 506.35 972.34 633.06 1180.30 610.86
00005334 00000130 786.95 135.46 471.75 671.80 940.82 421.05 1163.96 396.14 1088.69 510.27 979.74 637.46 1186.35 616.06
00005335 00000131 786.95 132.91 475.11 681.46 942.68 420.62 1167.86 395.24 1092.84 504.65 978.97 638.40 1190.09 616.26
00005336 00000132 790.37 129.53 477.99 683.28 950.33 415.75 1175.77 394.50 1101.39 499.30 982.42 633.02 1195.13 614.38
00005337 00000133 791.87 129.93 478.85 679.25 952.39 410.78 1182.18 391.09 1105.83 496.19 982.24 628.35 1200.43 611.13
00005338 00000134 793.97 130.62 477.99 673.40 956.20 408.60 1185.08 390.30 1110.08 494.85 985.74 625.30 1202.18 609.29
00005339 00000135 796.62 129.17 477.47 673.24 959.66 408.51 1188.38 390.41 1114.51 495.25 988.07 623.47 1206.02 607.60
00005340 00000136 796.80 129.53 478.01 673.04 962.02 407.94 1190.03 388.98 1118.63 495.83 989.01 621.71 1209.34 605.39
00005341 00000137 796.77 130.84 478.60 673.03 963.63 406.83 1192.33 386.90 1122.66 495.44 988.63 622.15 1210.82 605.26
00005342 00000138 795.23 130.19 480.61 673.86 964.22 405.50 1192.32 385.10 1124.74 493.99 989.50 622.94 1210.68 605.80
00005343 00000139 791.38 130.42 481.30 674.43 963.55 406.41 1189.83 384.69 1125.93 493.27 988.89 622.06 1209.41 603.87
00005344 00000140 788.48 127.06 481.39 675.88 959.08 405.96 1187.18 384.13 1119.73 491.34 987.68 620.84 1207.87 601.80
00005345 00000141 786.22 129.50 478.86 674.58 953.38 406.63 1180.69 383.45 1113.53 492.37 982.59 622.26 1202.25 601.97
00005346 00000142 778.67 122.40 481.68 682.77 946.90 406.72 1174.27 384.48 1104.23 488.11 977.96 622.25 1195.97 601.98
00005347 00000143 772.58 114.01 483.14 696.17 936.20 405.26 1167.52 381.36 1095.60 488.51 972.48 622.50 1192.04 602.35
00005348 00000144 768.64 115.36 481.72 696.07 929.40 407.63 1160.15 382.38 1088.89 484.21 966.71 622.02 1187.34 600.82
00005349 00000145 769.64 116.74 476.97 690.20 921.45 408.71 1152.77 377.31 1078.44 483.91 962.24 622.05 1182.80 595.96
00005350 00000146 768.47 113.75 474.59 688.92 917.46 403.76 1150.73 373.01 1074.42 479.55 959.03 618.36 1180.77 592.66
00005351 00000147 766.58 112.08 474.40 686.34 915.76 400.62 1146.80 369.04 1071.80 476.59 956.26 613.37 1177.00 587.46
00005352 00000148 768.38 108.22 474.08 688.55 918.88 397.17 1146.14 364.09 1075.43 470.15 961.20 609.49 1180.02 582.54
00005353 00000149 769.19 107.66 476.54 688.68 923.52 393.85 1149.67 360.82 1082.20 466.13 967.67 607.70 1184.74 580.82
00005354 00000150 772.06 110.85 481.96 678.04 937.65 384.43 1163.45 363.74 1096.34 457.13 975.69 600.52 1190.58 580.00
00005355 00000151 779.39 105.93 484.51 683.14 947.44 379.65 1173.24 357.03 1106.69 456.81 984.92 595.81 1200.09 573.91
00005356 00000152 784.30 97.39 489.04 689.41 959.05 374.03 1185.95 349.66 1122.47 454.48 995.07 593.50 1210.68 570.73
CROP_BBOX: 512 0 1580 999
