Video ID: 	wdOEbV0NyNY
H: 	1080
W: 	1920
FPS: 	29.97002997002997

FRAME INDEX X0 Y0 W H [Landmarks (5 Points)]

00015222 00000000 1111.44 107.16 336.77 537.10 1159.79 325.94 1296.86 334.69 1183.41 424.76 1163.60 512.05 1279.52 522.09
00015223 DELETE   1109.87 105.43 337.53 540.69 1157.82 325.65 1296.90 334.58 1182.17 425.96 1162.61 511.68 1283.71 521.48
00015224 00000002 1106.49 107.10 338.82 544.51 1155.62 329.99 1295.69 338.64 1181.26 431.47 1162.18 517.23 1283.25 526.64
00015225 00000003 1100.91 122.53 337.45 541.53 1151.98 336.03 1284.57 336.88 1169.04 430.55 1163.21 522.64 1272.72 522.12
00015226 DELETE   1092.87 119.01 340.07 550.29 1146.44 341.68 1279.26 347.76 1162.04 447.25 1155.83 527.11 1273.59 529.71
00015227 00000005 1088.67 107.58 334.65 570.91 1133.06 350.52 1275.82 362.93 1161.79 460.95 1139.38 536.42 1268.98 545.71
00015228 DELETE   1081.26 109.77 332.56 573.29 1124.95 362.74 1270.44 375.82 1158.42 473.45 1132.50 542.22 1264.34 551.95
00015229 DELETE   1081.18 117.47 333.53 572.03 1129.15 359.31 1264.45 390.00 1153.85 485.56 1138.59 539.29 1263.99 562.92
00015230 00000008 1077.03 127.99 334.64 576.49 1122.53 372.84 1258.41 398.89 1148.92 496.43 1134.28 548.94 1263.98 568.77
00015231 00000009 1069.01 133.05 333.94 579.54 1113.98 382.15 1249.69 402.46 1142.93 502.59 1130.01 557.15 1258.66 572.56
00015232 00000010 1063.84 137.78 334.99 580.60 1107.20 386.54 1243.76 405.45 1136.15 507.29 1126.49 560.94 1256.65 575.17
00015233 00000011 1058.56 143.81 337.56 575.53 1102.96 388.17 1239.12 405.51 1132.35 508.51 1123.35 561.10 1253.21 573.97
00015234 00000012 1054.76 148.79 335.88 571.49 1098.28 388.01 1235.63 405.61 1127.60 512.11 1119.18 563.20 1248.88 576.05
00015235 00000013 1050.08 148.51 336.24 572.44 1092.26 391.42 1227.23 408.97 1120.81 514.08 1111.07 564.67 1239.70 577.28
00015236 00000014 1044.16 153.33 335.03 569.08 1083.17 395.26 1220.76 412.41 1112.46 520.74 1098.02 570.17 1230.18 582.39
00015237 00000015 1042.14 152.86 332.11 569.93 1079.09 399.46 1215.26 416.88 1108.94 527.17 1092.96 575.43 1222.24 588.39
00015238 00000016 1039.47 158.53 332.09 563.92 1076.91 401.82 1214.58 419.62 1106.92 529.44 1090.00 577.49 1220.12 590.87
00015239 00000017 1039.35 162.80 333.01 557.57 1077.36 403.14 1216.13 420.05 1108.63 529.61 1090.26 576.76 1220.94 589.46
00015240 00000018 1039.39 165.00 335.29 554.28 1078.16 403.06 1217.05 420.58 1109.39 529.66 1090.48 576.05 1221.03 589.29
00015241 00000019 1040.20 166.70 335.98 552.19 1079.64 403.27 1219.52 420.44 1111.84 529.33 1092.22 576.91 1222.34 589.94
00015242 00000020 1041.78 166.22 336.08 553.87 1080.34 404.50 1220.62 420.87 1113.01 530.40 1093.62 577.57 1224.38 589.99
00015243 00000021 1042.11 166.27 336.12 553.73 1080.52 404.53 1220.58 421.01 1113.14 529.84 1093.89 578.02 1223.78 590.59
00015244 00000022 1042.21 166.68 336.32 553.09 1080.68 403.70 1220.55 420.39 1113.07 529.83 1095.09 578.21 1223.70 590.89
00015245 00000023 1042.91 167.89 336.54 551.36 1080.54 403.05 1220.02 419.77 1112.14 529.91 1095.56 577.70 1223.73 590.33
00015246 00000024 1042.83 169.30 337.02 551.18 1080.13 404.82 1219.71 421.41 1111.01 530.43 1094.64 577.47 1224.14 590.07
00015247 00000025 1044.88 169.30 334.32 543.75 1087.04 402.32 1217.13 421.04 1109.33 530.02 1102.83 580.48 1226.88 594.53
00015248 00000026 1044.11 170.54 330.47 551.21 1084.18 402.59 1210.04 424.12 1100.83 535.88 1101.69 584.87 1220.82 601.45
00015249 00000027 1040.71 169.40 327.05 554.46 1080.90 406.01 1205.06 429.31 1097.06 537.72 1098.30 589.19 1214.75 607.18
00015250 00000028 1028.66 171.78 336.67 570.03 1076.90 413.07 1201.53 428.56 1087.81 546.79 1093.80 597.31 1212.66 605.45
00015251 00000029 1026.45 186.62 334.22 560.44 1070.57 426.30 1198.83 442.81 1085.88 561.09 1086.97 605.94 1208.63 614.69
00015252 00000030 1020.78 192.41 334.31 558.23 1062.17 441.78 1200.18 468.75 1089.67 581.79 1073.90 613.00 1213.33 632.54
00015253 00000031 1021.57 202.09 333.10 547.23 1061.24 452.54 1200.67 478.62 1095.47 592.43 1073.63 624.48 1211.08 642.89
00015254 00000032 1023.95 213.90 330.57 541.01 1061.76 458.16 1200.23 482.56 1095.54 596.22 1074.45 630.25 1207.78 647.14
00015255 00000033 1025.53 214.09 328.53 541.94 1062.68 459.10 1199.99 484.28 1095.65 597.43 1075.76 630.55 1209.00 647.97
00015256 00000034 1027.34 213.89 328.78 539.80 1066.66 454.40 1204.44 481.12 1098.98 593.05 1080.90 627.25 1212.86 645.81
00015257 00000035 1032.93 201.88 328.47 548.88 1070.92 444.53 1207.85 472.86 1102.38 585.91 1084.01 617.66 1220.07 637.79
00015258 00000036 1035.87 179.26 330.82 565.16 1075.40 430.81 1213.52 454.59 1108.48 571.13 1088.61 608.93 1224.11 626.20
00015259 00000037 1043.47 170.84 334.02 557.21 1084.34 414.11 1218.21 427.20 1111.40 548.18 1100.48 602.93 1217.93 611.90
00015260 00000038 1047.57 165.58 335.33 553.79 1079.74 409.38 1215.56 425.58 1110.07 531.90 1097.41 583.65 1217.22 596.45
00015261 00000039 1048.10 163.40 334.59 556.20 1080.35 402.06 1218.15 417.49 1111.20 529.47 1099.15 580.75 1223.05 592.13
00015262 00000040 1049.10 162.92 333.93 557.58 1082.83 401.47 1219.97 417.00 1114.91 528.07 1101.79 579.49 1225.91 590.99
00015263 00000041 1049.74 165.50 334.46 554.90 1083.96 401.95 1223.13 418.42 1117.55 529.34 1104.85 580.57 1228.94 593.06
00015264 00000042 1049.90 165.99 335.68 554.45 1083.40 402.39 1223.90 419.34 1116.85 530.27 1103.48 581.01 1228.29 593.95
00015265 00000043 1049.94 166.61 335.05 552.28 1083.06 401.52 1223.03 418.56 1115.99 528.76 1102.23 579.42 1227.45 592.36
00015266 00000044 1050.12 161.94 334.14 559.88 1083.82 401.79 1221.20 417.74 1116.68 527.85 1103.34 581.10 1225.74 593.33
00015267 00000045 1049.39 163.27 333.34 558.65 1084.59 401.57 1222.29 417.84 1117.00 528.64 1104.57 582.36 1225.50 594.88
00015268 00000046 1047.78 166.87 334.41 556.54 1084.15 402.19 1222.59 419.07 1116.94 530.46 1103.60 584.12 1223.85 597.36
00015269 00000047 1047.54 166.46 334.60 557.84 1084.49 402.62 1222.38 419.42 1117.17 530.07 1103.24 583.09 1224.29 596.39
00015270 00000048 1047.92 164.22 333.89 557.89 1084.32 400.74 1221.20 418.44 1115.44 528.61 1101.92 578.10 1225.68 591.53
00015271 00000049 1048.31 151.36 335.51 569.42 1085.39 396.21 1222.04 413.26 1116.75 521.35 1101.79 573.30 1228.43 585.56
00015272 00000050 1052.01 132.35 333.62 575.44 1089.34 388.96 1227.68 407.45 1122.42 510.62 1104.35 564.90 1232.39 578.04
00015273 00000051 1052.52 124.24 334.54 571.49 1094.77 375.89 1230.42 399.40 1122.69 495.20 1108.03 553.07 1231.88 569.70
00015274 00000052 1050.75 123.18 332.83 558.54 1094.59 366.33 1226.79 381.41 1125.74 485.61 1105.77 547.69 1216.99 557.75
00015275 00000053 1050.48 123.10 333.61 549.56 1097.84 355.36 1224.97 369.94 1122.33 469.77 1106.21 536.31 1210.85 546.05
00015276 00000054 1052.49 118.51 334.68 547.56 1100.37 353.48 1227.70 366.58 1122.77 463.47 1107.22 534.44 1211.59 543.33
00015277 00000055 1053.15 114.99 335.84 541.12 1101.00 349.78 1233.35 361.44 1123.84 454.73 1101.39 529.06 1214.84 537.75
00015278 DELETE   1056.13 113.77 333.41 536.35 1100.80 345.88 1235.19 355.18 1122.51 447.85 1098.79 526.86 1209.84 534.30
00015279 00000057 1056.89 112.27 336.33 536.70 1101.17 343.12 1237.16 352.35 1121.80 445.60 1098.88 524.24 1210.04 531.60
00015280 00000058 1058.97 123.41 335.45 523.49 1103.73 340.15 1238.98 351.30 1124.39 442.92 1101.14 521.02 1211.79 529.44
00015281 00000059 1061.30 121.59 333.99 529.36 1107.14 342.86 1238.98 351.98 1128.83 444.28 1110.03 524.09 1214.88 530.50
00015282 00000060 1062.30 120.80 334.39 533.58 1108.85 341.56 1242.35 354.55 1132.60 448.57 1109.35 522.57 1220.10 531.91
00015283 00000061 1064.70 113.60 333.64 547.63 1111.78 345.51 1247.50 358.50 1137.30 453.61 1113.37 528.97 1227.16 538.41
00015284 00000062 1065.68 110.55 334.40 556.42 1112.72 351.30 1250.28 364.36 1141.17 459.15 1116.11 533.48 1230.67 543.05
00015285 00000063 1066.44 111.89 332.99 559.26 1112.99 354.83 1252.77 367.39 1142.82 462.77 1116.86 536.87 1231.90 546.37
00015286 00000064 1066.24 113.52 331.47 556.77 1113.66 354.78 1252.67 368.15 1143.89 462.78 1116.36 536.25 1231.37 546.36
00015287 00000065 1066.67 112.11 331.37 554.35 1114.17 352.33 1252.56 365.16 1143.94 460.41 1115.92 533.80 1230.79 543.38
00015288 00000066 1066.92 110.09 334.03 549.90 1113.69 347.11 1252.69 359.82 1140.70 454.83 1112.69 528.90 1230.14 538.51
00015289 00000067 1065.66 114.93 337.70 539.99 1112.32 342.93 1251.14 353.78 1139.42 448.11 1111.16 524.35 1226.51 532.61
00015290 00000068 1066.45 118.70 337.93 534.25 1113.11 340.04 1249.96 349.00 1140.03 441.21 1114.32 522.34 1223.66 529.08
00015291 00000069 1067.60 121.32 339.28 527.35 1113.26 338.77 1250.65 346.36 1140.02 437.25 1115.66 521.55 1223.88 527.22
00015292 00000070 1068.20 121.54 340.21 523.98 1112.92 337.79 1252.84 346.20 1139.80 438.62 1111.99 520.48 1229.82 526.90
00015293 00000071 1068.77 120.03 339.68 525.52 1111.77 338.85 1253.14 347.18 1138.42 440.61 1109.29 522.76 1230.41 529.19
00015294 00000072 1068.78 114.64 339.50 536.11 1110.39 342.32 1252.77 351.36 1139.13 447.60 1108.35 527.87 1229.46 534.90
00015295 DELETE   1070.47 100.30 335.46 561.82 1110.63 349.30 1253.19 361.62 1140.84 461.71 1111.48 537.42 1230.27 546.97
00015296 00000074 1068.90 105.12 334.68 571.84 1111.54 363.47 1254.40 380.30 1143.44 480.06 1114.64 548.21 1230.49 561.58
00015297 00000075 1064.21 124.76 332.32 563.17 1106.24 382.54 1246.37 400.07 1139.62 497.94 1112.67 563.23 1224.45 576.77
00015298 00000076 1063.71 126.91 337.02 578.99 1108.93 382.01 1242.21 405.66 1135.20 500.15 1123.21 573.66 1224.28 591.76
00015299 00000077 1059.70 137.04 338.77 580.03 1107.82 392.84 1239.53 413.48 1135.96 509.65 1127.61 583.80 1223.49 600.27
00015300 00000078 1051.38 159.81 337.71 551.84 1104.26 399.73 1239.80 411.41 1133.36 519.15 1115.70 589.78 1220.01 598.82
00015301 00000079 1050.93 163.39 339.10 548.33 1105.59 399.52 1239.97 411.75 1134.73 520.47 1116.73 588.42 1222.25 597.90
00015302 00000080 1052.40 160.61 339.43 551.17 1106.25 398.65 1241.75 411.40 1134.49 523.08 1116.64 586.04 1228.44 595.71
00015303 00000081 1063.23 153.77 336.85 565.73 1105.99 395.27 1244.19 415.28 1137.82 519.16 1124.24 573.76 1242.22 589.37
00015304 00000082 1064.68 151.03 337.92 564.74 1108.19 392.76 1248.21 414.71 1140.68 517.92 1125.76 568.14 1248.72 585.17
00015305 00000083 1066.31 146.90 338.00 564.85 1110.59 390.62 1251.01 414.57 1143.37 515.48 1126.93 564.83 1251.69 583.47
00015306 00000084 1065.78 145.51 338.41 565.66 1110.20 391.09 1251.22 414.42 1144.10 514.49 1126.70 564.00 1252.75 582.06
00015307 00000085 1063.94 146.53 339.01 567.52 1108.59 392.28 1248.91 415.36 1141.45 516.24 1124.76 566.01 1249.71 583.87
00015308 00000086 1061.78 152.76 338.56 566.95 1104.72 393.34 1244.24 417.15 1134.84 522.57 1121.31 567.15 1247.59 585.50
00015309 00000087 1056.67 172.80 334.73 544.95 1100.66 396.50 1238.93 419.10 1128.68 529.49 1116.73 578.05 1241.52 594.33
00015310 00000088 1053.90 170.78 339.71 552.40 1101.89 406.65 1236.59 420.68 1131.81 537.18 1109.80 589.81 1230.90 600.02
00015311 00000089 1051.37 168.61 339.70 559.66 1096.62 412.80 1232.16 427.52 1127.86 545.40 1105.53 599.25 1225.66 609.67
00015312 00000090 1051.66 169.39 338.06 563.82 1093.78 417.99 1226.86 434.87 1123.99 553.95 1105.54 606.53 1222.36 618.39
00015313 00000091 1051.34 169.83 334.53 565.91 1090.10 421.62 1222.35 437.93 1121.70 557.89 1104.28 611.80 1216.35 622.97
00015314 00000092 1049.45 172.79 332.44 566.99 1088.47 425.32 1221.45 441.78 1120.46 562.45 1102.99 614.86 1215.32 626.05
00015315 00000093 1049.32 176.91 332.72 563.93 1085.61 429.48 1220.39 444.68 1119.23 568.00 1102.01 619.00 1215.86 628.96
00015316 00000094 1050.35 180.61 332.26 561.49 1084.68 433.50 1219.76 447.87 1119.54 571.00 1103.70 622.71 1217.61 631.78
00015317 00000095 1050.08 180.45 333.58 561.43 1085.35 433.99 1220.08 449.51 1119.35 571.10 1103.19 621.39 1218.41 631.32
00015318 00000096 1048.91 183.21 333.79 558.87 1085.82 433.53 1220.94 450.40 1118.93 571.02 1100.43 617.65 1216.83 628.62
00015319 00000097 1048.72 185.16 333.40 556.87 1087.23 431.54 1221.40 450.29 1118.10 568.13 1097.42 612.11 1217.52 624.56
00015320 00000098 1049.84 186.52 330.52 558.03 1088.74 432.20 1223.19 450.68 1119.57 569.33 1097.80 610.72 1221.12 622.86
00015321 00000099 1050.39 187.45 328.86 562.96 1090.39 434.68 1224.08 451.91 1122.68 571.94 1101.74 612.96 1226.00 623.74
00015322 00000100 1050.17 195.99 330.61 556.64 1092.69 437.18 1224.89 455.16 1124.27 573.55 1105.71 614.17 1230.40 625.07
00015323 00000101 1053.10 197.15 328.72 558.66 1091.78 438.29 1228.00 472.19 1119.30 579.81 1108.02 611.97 1240.70 636.61
00015324 00000102 1053.71 203.12 328.57 552.04 1090.25 443.79 1228.92 475.15 1119.32 586.93 1111.32 621.44 1240.63 644.19
00015325 00000103 1051.33 207.95 330.30 550.55 1087.27 449.93 1228.96 477.91 1123.44 592.69 1110.29 631.99 1236.09 652.22
00015326 00000104 1051.93 212.59 331.14 550.29 1086.45 456.14 1225.45 480.97 1122.73 593.86 1109.14 636.52 1231.29 654.21
00015327 00000105 1051.85 226.13 330.04 539.11 1085.09 461.21 1221.76 484.99 1121.91 598.35 1109.30 639.25 1228.37 656.26
00015328 00000106 1052.44 227.25 329.60 538.18 1084.37 463.55 1221.31 488.08 1120.87 602.50 1107.41 640.18 1228.29 658.08
00015329 00000107 1052.41 231.55 329.84 532.78 1083.37 463.55 1222.20 488.48 1120.04 604.70 1108.02 640.26 1230.23 658.46
00015330 00000108 1052.43 225.84 329.18 540.37 1084.08 463.81 1220.69 487.62 1120.58 602.56 1107.79 640.15 1229.03 657.43
00015331 00000109 1050.67 224.70 329.52 537.68 1084.95 460.07 1224.34 483.77 1122.57 598.22 1108.67 636.13 1232.36 653.06
00015332 00000110 1050.47 207.18 332.08 550.22 1086.83 454.79 1229.26 479.07 1124.40 592.61 1108.60 630.33 1238.63 647.61
00015333 00000111 1048.93 201.78 333.27 553.08 1086.79 444.80 1229.23 474.71 1119.96 589.42 1106.00 618.48 1242.54 640.24
00015334 00000112 1047.40 189.75 332.87 561.89 1087.25 438.66 1226.95 467.38 1120.68 580.38 1103.14 611.33 1241.73 631.92
00015335 00000113 1048.35 194.73 333.36 556.17 1090.04 433.23 1223.77 450.00 1123.83 572.56 1102.95 611.70 1229.39 621.66
00015336 00000114 1047.17 193.26 333.25 556.17 1088.31 430.46 1221.76 446.20 1121.76 570.28 1102.77 610.38 1226.62 619.43
00015337 00000115 1046.52 191.38 333.34 558.55 1087.74 430.18 1222.22 444.68 1122.66 570.43 1103.79 610.18 1230.38 618.10
00015338 00000116 1047.18 192.97 331.94 553.27 1086.27 430.26 1222.01 445.05 1121.98 572.39 1102.69 609.59 1234.35 617.60
00015339 00000117 1048.33 194.45 331.37 549.20 1085.96 432.22 1222.17 446.80 1121.73 572.19 1100.06 609.55 1232.83 617.75
00015340 00000118 1047.67 194.53 331.63 550.66 1086.40 433.16 1221.53 446.77 1121.70 571.53 1102.21 611.18 1231.22 618.60
00015341 00000119 1045.71 186.79 327.74 558.61 1085.95 434.34 1223.12 460.69 1120.35 573.41 1100.00 607.72 1235.89 626.59
00015342 00000120 1047.48 197.48 331.27 552.16 1088.69 436.18 1222.46 450.88 1123.98 572.89 1101.78 611.98 1226.79 620.54
00015343 00000121 1047.89 196.36 332.30 550.65 1088.94 435.88 1222.45 450.90 1124.38 572.44 1102.59 613.63 1225.47 622.73
00015344 00000122 1048.69 194.98 333.50 552.23 1089.72 435.44 1222.96 450.97 1123.91 571.91 1103.60 613.59 1227.43 622.81
00015345 00000123 1049.04 196.41 333.80 551.69 1090.02 434.83 1224.94 451.32 1124.80 572.25 1103.28 612.56 1230.14 622.49
00015346 00000124 1048.92 197.30 332.64 554.43 1091.00 435.87 1225.62 451.75 1126.28 573.26 1104.38 612.94 1232.49 622.30
00015347 00000125 1048.95 199.57 332.71 553.04 1092.21 436.39 1224.74 452.63 1125.71 572.21 1106.70 614.05 1230.97 623.60
00015348 00000126 1048.28 200.92 332.32 554.58 1092.41 437.79 1225.38 453.20 1125.45 572.91 1107.20 614.27 1234.00 623.06
00015349 00000127 1052.75 191.90 329.67 555.91 1087.75 434.61 1224.59 462.45 1117.76 569.35 1107.92 609.44 1231.97 630.07
00015350 00000128 1052.19 195.29 328.85 549.94 1086.73 434.43 1225.21 463.69 1117.97 569.76 1105.70 607.92 1231.20 629.74
00015351 00000129 1047.82 195.43 329.40 557.73 1085.54 439.50 1224.59 470.39 1118.43 582.89 1100.58 612.47 1238.87 634.57
00015352 00000130 1049.49 196.22 328.06 557.25 1085.55 439.57 1223.32 470.80 1117.33 584.88 1101.13 616.49 1235.78 638.82
00015353 00000131 1049.97 192.05 329.39 559.60 1087.28 438.22 1225.46 468.28 1119.93 580.90 1102.70 615.44 1237.12 636.87
00015354 00000132 1049.25 191.45 334.45 559.60 1091.43 432.21 1227.22 451.50 1126.45 573.55 1102.75 611.41 1234.17 623.56
00015355 00000133 1048.13 173.12 341.35 569.55 1097.94 423.58 1233.01 438.47 1127.70 558.15 1106.26 605.43 1234.85 614.71
00015356 00000134 1050.28 173.00 340.18 556.59 1101.00 408.20 1234.27 423.05 1126.73 537.07 1107.57 589.81 1229.31 600.11
00015357 DELETE   1061.70 157.22 339.61 552.71 1105.00 396.86 1237.20 416.14 1126.03 520.39 1114.88 571.02 1240.88 585.24
00015358 DELETE   1064.94 127.69 338.71 583.73 1109.28 378.94 1244.80 403.23 1128.73 496.37 1121.93 556.81 1244.79 574.81
00015359 00000137 1071.30 121.81 333.54 567.82 1114.78 361.17 1250.22 384.21 1136.74 477.44 1128.80 542.16 1250.94 559.00
00015360 DELETE   1067.73 113.14 333.91 567.76 1115.06 356.57 1255.62 370.00 1141.85 465.95 1119.87 535.93 1243.73 545.75
00015361 DELETE   1068.99 111.94 337.06 561.13 1116.77 344.04 1258.22 358.07 1142.03 456.11 1120.42 528.11 1248.48 538.20
00015362 00000140 1070.85 114.28 338.60 555.14 1119.76 336.97 1259.88 348.97 1141.94 443.43 1122.39 522.12 1247.64 530.69
00015363 DELETE   1072.35 123.67 339.70 546.65 1120.91 334.31 1259.53 344.06 1143.36 436.53 1126.95 520.52 1249.39 526.59
00015364 00000142 1074.89 129.43 339.04 540.52 1123.23 333.08 1258.05 340.24 1143.49 431.60 1128.98 520.55 1247.63 524.37
00015365 00000143 1074.18 130.21 339.93 539.44 1123.09 332.87 1257.61 340.57 1142.85 431.73 1128.31 520.63 1247.47 524.87
00015366 00000144 1072.83 127.22 339.51 543.41 1122.06 334.85 1257.87 343.94 1142.27 436.19 1125.94 521.52 1248.21 526.90
00015367 00000145 1071.05 114.69 339.43 559.98 1119.24 338.68 1259.17 350.07 1139.75 444.66 1122.37 524.99 1250.03 532.86
00015368 DELETE   1069.11 114.49 336.05 561.72 1117.23 345.01 1259.96 357.42 1142.22 454.42 1120.06 531.60 1249.78 540.25
00015369 00000147 1069.67 111.43 334.25 568.85 1115.57 352.29 1257.12 366.73 1142.68 466.01 1120.08 536.57 1245.91 547.21
00015370 00000148 1067.86 115.92 332.54 565.97 1113.42 360.40 1253.16 377.91 1140.30 476.48 1116.82 539.80 1239.90 552.88
00015371 00000149 1062.97 120.07 334.53 568.47 1107.88 371.48 1248.14 388.15 1138.37 485.25 1111.68 549.37 1229.97 562.43
00015372 00000150 1064.22 118.98 336.26 573.19 1105.79 374.11 1240.35 398.45 1128.92 486.97 1111.76 554.14 1230.88 572.12
00015373 00000151 1062.79 131.76 334.99 567.29 1103.52 379.20 1236.03 407.30 1124.28 498.88 1111.40 561.10 1223.95 582.01
00015374 00000152 1061.08 143.52 335.59 566.71 1102.77 388.82 1234.01 417.56 1125.15 508.96 1112.59 573.78 1215.09 596.01
00015375 00000153 1055.08 164.16 335.66 548.43 1099.47 399.37 1233.64 415.77 1120.74 523.05 1102.81 586.33 1212.19 599.44
00015376 00000154 1055.93 162.55 331.37 559.32 1099.96 407.36 1231.34 424.06 1122.34 533.85 1105.54 597.96 1212.46 611.01
00015377 00000155 1056.63 169.44 332.69 561.42 1098.79 409.85 1229.73 429.39 1121.48 541.11 1103.99 598.19 1214.83 612.70
00015378 00000156 1055.23 170.60 337.68 565.53 1098.48 411.90 1232.70 431.71 1122.28 545.54 1102.23 597.19 1225.82 611.55
00015379 00000157 1054.37 169.75 340.14 564.06 1100.01 411.73 1234.55 430.73 1123.76 544.57 1103.47 594.72 1230.99 608.20
00015380 00000158 1055.04 171.48 339.57 555.50 1101.22 407.76 1237.95 427.36 1126.15 540.10 1103.18 588.46 1232.24 602.71
00015381 00000159 1060.52 165.63 336.14 544.45 1102.96 402.81 1238.07 428.41 1125.57 531.56 1112.25 578.33 1236.44 597.91
00015382 00000160 1057.11 171.09 335.02 543.02 1097.28 394.75 1234.04 421.97 1119.53 527.15 1106.56 577.86 1228.23 599.02
00015383 00000161 1055.67 168.84 336.84 541.75 1095.47 391.30 1233.62 417.86 1118.45 521.65 1103.38 577.00 1223.19 598.39
00015384 00000162 1055.36 166.88 336.61 541.24 1094.11 388.64 1232.33 413.54 1116.17 517.03 1102.90 575.27 1220.99 595.71
