Video ID: 	vOYqbkuAnnE
H: 	1080
W: 	1920
FPS: 	25.0

FRAME INDEX X0 Y0 W H [Landmarks (5 Points)]

00005677 00000000 876.91 283.23 432.82 616.90 959.39 556.46 1149.34 537.95 1047.89 684.87 1000.81 749.67 1166.51 734.42
00005678 DELETE   878.56 281.70 428.71 614.38 965.81 540.62 1157.13 529.09 1052.18 664.08 999.49 730.87 1172.52 721.78
00005679 00000002 876.96 275.09 429.30 612.56 966.09 525.97 1157.15 517.04 1051.72 648.91 993.69 720.54 1165.33 713.58
00005680 DELETE   876.84 254.15 426.45 622.03 960.36 508.40 1150.32 505.74 1042.45 638.54 985.62 709.04 1154.66 706.76
00005681 DELETE   875.29 256.27 419.06 597.17 951.53 504.45 1130.59 493.69 1024.87 617.41 981.12 695.20 1144.50 684.01
00005682 00000005 870.86 230.86 422.95 606.27 946.29 478.82 1117.67 473.61 1001.68 590.30 968.49 675.39 1125.36 668.65
00005683 00000006 869.93 216.91 421.44 602.24 935.54 456.61 1109.92 451.12 988.31 566.44 956.05 658.08 1114.94 651.74
00005684 00000007 874.47 211.06 415.44 598.00 935.88 440.82 1112.60 439.26 988.03 550.39 949.45 640.97 1110.96 638.43
00005685 00000008 877.55 189.61 417.06 620.12 934.16 421.01 1117.55 425.51 993.31 542.14 949.10 636.63 1097.13 640.46
00005686 00000009 878.48 188.21 418.53 617.74 933.60 417.98 1119.65 421.93 993.47 538.85 947.89 637.49 1094.18 641.15
00005687 00000010 879.80 186.98 416.97 613.48 935.92 417.17 1118.42 419.99 993.28 535.74 949.92 637.58 1085.61 640.87
00005688 00000011 884.16 188.20 415.74 606.53 939.35 416.23 1121.58 417.87 994.27 535.93 954.52 639.25 1086.36 641.43
00005689 00000012 888.11 182.87 416.58 611.03 941.71 414.37 1124.88 416.62 994.30 536.69 955.97 638.67 1090.87 640.94
00005690 00000013 890.30 181.84 420.80 613.47 944.70 413.60 1128.62 414.97 997.14 534.35 959.51 637.06 1098.18 638.32
00005691 00000014 886.00 180.36 429.26 620.30 946.75 416.11 1131.11 421.91 994.46 534.42 953.67 635.87 1099.09 642.26
00005692 00000015 882.08 177.02 430.93 628.61 943.55 421.16 1127.21 423.66 991.36 539.35 955.04 640.19 1100.47 643.57
00005693 00000016 876.16 184.05 430.03 634.50 937.72 430.36 1120.01 428.45 988.24 546.36 955.47 648.00 1102.61 647.69
00005694 00000017 870.49 186.39 430.23 631.73 934.02 443.19 1114.05 442.01 984.93 551.57 953.19 649.19 1101.94 648.37
00005695 00000018 870.19 181.71 429.39 627.28 934.40 449.15 1113.87 442.07 985.91 541.98 952.28 644.70 1103.03 638.98
00005696 00000019 875.46 173.08 423.34 629.53 932.76 432.08 1113.01 425.14 988.03 533.32 954.00 634.85 1104.93 627.85
00005697 00000020 879.66 170.92 428.17 618.51 940.44 423.91 1116.86 419.38 984.38 523.00 953.52 625.45 1101.38 622.46
00005698 00000021 884.98 175.43 429.38 624.17 944.14 420.91 1121.73 417.56 985.53 524.74 955.45 629.29 1104.14 627.70
00005699 00000022 888.99 179.42 431.09 628.77 949.74 418.61 1125.53 416.92 990.01 526.20 962.59 636.82 1103.01 636.87
00005700 00000023 894.01 176.14 426.84 628.69 951.55 416.92 1128.10 417.27 990.86 526.92 962.84 640.13 1099.88 642.23
00005701 00000024 895.26 172.70 423.85 623.54 949.32 416.20 1128.05 418.33 989.72 524.63 957.15 637.64 1095.04 641.47
00005702 00000025 893.20 171.13 426.50 630.50 949.46 413.55 1128.29 415.73 988.89 522.22 956.45 636.42 1096.88 640.37
00005703 00000026 892.58 179.32 429.19 639.56 952.75 411.39 1128.12 411.69 989.14 520.66 963.28 639.46 1101.53 641.66
00005704 00000027 893.66 179.60 425.53 644.75 952.14 409.76 1127.85 410.28 987.35 520.62 963.62 639.25 1106.28 641.30
00005705 00000028 892.56 178.58 426.98 644.46 951.29 411.52 1128.46 412.62 986.50 521.47 960.55 637.82 1106.98 640.41
00005706 00000029 893.01 176.40 425.12 638.27 950.18 414.40 1128.98 417.26 987.32 522.99 956.16 634.02 1106.91 638.05
00005707 00000030 891.69 178.04 427.65 630.98 950.16 415.98 1127.83 419.11 986.60 523.78 954.60 630.99 1103.54 635.21
00005708 00000031 892.29 175.20 425.94 625.40 950.33 414.67 1127.43 418.93 986.81 522.64 954.24 626.93 1101.23 632.07
00005709 00000032 896.92 179.09 418.70 615.91 951.30 414.35 1124.45 414.59 988.86 526.34 959.99 628.25 1106.35 627.61
00005710 00000033 897.67 180.53 419.92 611.54 952.55 411.71 1125.28 412.88 989.76 525.12 961.72 625.84 1107.42 625.95
00005711 00000034 895.68 174.26 425.23 623.25 953.25 411.35 1128.97 416.48 988.47 519.98 957.14 624.32 1102.42 630.33
00005712 00000035 896.60 175.19 426.90 627.68 953.86 411.07 1130.11 415.28 989.52 519.48 957.91 626.67 1103.55 632.00
00005713 00000036 897.49 176.04 425.69 624.83 954.23 412.58 1131.78 416.91 992.27 520.13 958.44 627.42 1104.11 632.84
00005714 00000037 897.22 176.04 425.68 626.19 954.42 412.52 1131.76 417.11 991.99 520.40 958.45 628.67 1103.24 634.33
00005715 00000038 897.56 177.56 425.64 628.49 953.33 412.36 1131.41 416.79 990.19 521.01 957.58 631.32 1103.75 636.91
00005716 00000039 895.95 173.73 425.85 629.58 951.22 413.89 1128.72 417.16 988.70 522.18 957.21 635.54 1098.25 640.29
00005717 00000040 894.67 173.95 425.91 617.91 948.56 414.23 1127.59 418.30 988.38 523.93 955.71 634.51 1093.29 639.94
00005718 00000041 897.22 176.18 418.92 611.25 949.70 413.36 1127.21 416.13 991.31 527.54 959.15 632.54 1094.18 635.16
00005719 00000042 897.21 176.77 416.19 612.01 951.94 416.62 1122.35 424.34 988.80 529.14 959.15 628.80 1088.45 635.35
00005720 00000043 894.85 177.78 416.27 619.93 953.21 431.41 1119.00 436.04 992.30 529.87 961.39 633.91 1092.01 637.34
00005721 00000044 888.86 174.00 427.52 632.37 951.79 430.84 1124.17 439.05 990.06 529.85 958.50 638.06 1091.95 646.22
00005722 00000045 891.89 173.00 427.02 632.14 951.55 427.91 1127.74 433.21 990.49 529.32 958.95 639.34 1096.35 645.20
00005723 00000046 892.59 173.59 427.25 635.37 952.55 422.12 1126.44 426.30 990.45 528.34 960.47 640.04 1096.30 645.13
00005724 00000047 892.57 176.02 427.77 631.86 952.12 419.14 1127.39 422.47 991.28 527.88 961.32 640.21 1096.11 644.61
00005725 00000048 890.54 177.47 429.08 630.62 952.10 417.02 1128.56 420.88 992.09 527.45 959.99 638.44 1095.71 643.38
00005726 00000049 889.59 177.56 428.93 627.34 951.83 415.82 1127.71 421.66 993.31 528.93 959.46 637.65 1091.59 644.44
00005727 00000050 888.96 180.04 427.77 623.38 952.05 415.08 1128.92 421.59 994.73 528.60 958.74 637.33 1090.08 644.80
00005728 00000051 888.66 177.45 425.36 619.31 949.96 415.08 1128.12 421.25 993.84 528.86 956.86 636.49 1088.29 643.69
00005729 00000052 888.92 175.29 427.44 620.84 949.10 415.98 1128.46 420.90 993.05 528.60 956.78 637.00 1090.50 643.14
00005730 00000053 889.42 174.34 428.19 624.41 949.75 415.71 1128.61 417.48 992.83 525.53 960.75 640.29 1091.55 643.78
00005731 00000054 889.55 172.14 427.42 626.73 950.97 413.11 1129.69 415.17 993.76 523.81 961.84 639.31 1089.85 643.19
00005732 00000055 889.55 169.52 428.51 629.63 952.58 411.15 1129.92 412.59 993.29 519.32 962.88 636.46 1088.58 639.89
00005733 00000056 890.80 166.39 429.43 627.18 951.72 408.67 1129.79 410.57 992.27 517.56 960.63 631.39 1094.01 634.96
00005734 00000057 892.18 165.45 427.99 621.57 950.60 407.06 1129.58 409.67 992.24 517.47 959.08 627.09 1097.92 631.11
00005735 00000058 892.33 164.77 427.88 620.05 949.39 406.01 1127.21 408.71 988.57 515.18 957.09 625.22 1095.51 629.30
00005736 00000059 888.88 162.54 424.81 617.18 939.27 402.48 1117.06 402.53 978.62 518.27 951.40 623.74 1087.21 623.66
00005737 DELETE   877.37 150.89 421.45 629.03 919.51 404.82 1090.26 400.14 951.11 505.91 931.00 624.63 1058.54 621.47
00005738 DELETE   854.97 145.73 423.59 631.31 887.81 421.69 1044.81 400.43 914.67 500.76 910.26 631.43 1017.17 616.72
00005739 DELETE   847.40 146.81 417.65 641.48 876.83 425.97 1034.10 402.54 891.69 502.37 890.27 640.62 1008.84 620.98
00005740 00000063 835.24 153.55 419.97 638.88 867.75 423.49 1017.86 404.95 881.41 514.93 889.14 641.81 1004.79 625.45
00005741 00000064 824.71 163.44 428.24 638.68 863.02 431.19 1008.43 413.56 870.84 521.61 890.32 643.91 1005.64 630.58
00005742 00000065 822.32 166.04 429.91 639.84 860.38 430.95 1005.64 415.78 867.90 526.91 888.15 645.50 1005.31 633.93
00005743 00000066 821.44 167.27 428.61 640.60 859.09 428.78 1005.75 419.27 866.94 530.78 886.73 645.32 1004.96 638.17
00005744 00000067 821.09 168.82 425.91 642.12 858.97 431.60 1005.35 422.94 866.06 536.65 887.68 648.87 1005.78 642.33
00005745 00000068 819.81 171.25 428.19 642.52 857.88 432.55 1002.07 425.06 865.03 541.01 888.32 651.92 1003.72 646.18
00005746 00000069 819.38 175.89 430.20 639.63 857.26 433.53 1000.91 425.56 864.90 542.79 889.58 655.97 1002.53 649.71
00005747 00000070 821.18 173.80 428.44 641.18 861.28 434.76 1003.30 425.84 869.03 543.44 892.69 656.94 1003.42 650.04
00005748 00000071 828.21 174.05 427.48 639.93 868.20 436.23 1007.70 424.77 876.61 544.81 900.99 658.17 1010.02 649.41
00005749 00000072 834.14 173.73 427.03 636.12 874.27 436.37 1011.63 425.74 882.27 546.40 908.65 656.31 1016.68 648.01
00005750 00000073 839.22 176.82 427.84 631.33 879.24 434.52 1018.04 425.85 886.94 549.07 912.87 654.15 1023.51 647.55
00005751 00000074 846.63 178.39 422.78 629.52 887.12 435.59 1026.98 429.11 895.20 552.95 920.06 652.49 1031.95 647.87
00005752 00000075 860.71 179.82 416.62 628.16 896.79 435.86 1038.80 428.37 906.54 557.94 932.58 654.32 1044.98 648.30
00005753 00000076 871.21 178.88 425.92 632.82 906.76 433.80 1053.37 426.84 919.05 557.46 944.48 656.15 1060.55 649.50
00005754 00000077 877.89 179.70 428.02 631.87 914.75 430.05 1064.30 427.08 926.82 555.67 949.37 655.02 1067.72 651.03
00005755 00000078 881.33 180.49 430.26 632.18 919.34 443.91 1073.84 437.66 937.01 554.78 953.78 661.69 1075.56 656.28
00005756 DELETE   886.34 185.20 431.94 632.28 925.09 453.68 1089.76 447.77 954.32 561.81 958.36 671.62 1085.42 666.89
00005757 DELETE   895.75 190.44 433.01 630.19 934.80 452.66 1094.76 447.30 964.28 562.27 968.37 671.77 1088.00 668.04
00005758 DELETE   903.67 181.32 428.67 634.93 946.97 445.76 1103.30 438.46 977.41 557.79 981.07 665.27 1097.59 660.39
00005759 00000082 914.09 177.68 425.68 630.31 954.98 436.44 1114.23 430.08 988.95 553.27 986.59 656.59 1110.21 652.71
00005760 00000083 923.27 171.39 419.76 631.57 960.17 427.51 1125.77 420.49 996.94 543.00 987.41 647.00 1120.22 642.59
00005761 00000084 928.79 172.55 418.27 626.74 966.44 418.86 1135.10 413.86 1001.38 535.25 989.56 640.68 1123.32 637.93
00005762 00000085 930.64 172.27 419.64 624.46 972.92 414.20 1140.61 411.41 1006.80 530.36 995.48 635.92 1127.02 634.68
00005763 00000086 931.46 166.72 421.73 623.48 973.00 411.26 1143.60 407.94 1007.82 526.32 992.70 631.57 1128.50 629.68
00005764 00000087 930.99 164.05 420.98 618.34 974.35 405.74 1145.24 405.24 1007.97 522.19 990.93 622.94 1129.29 623.29
00005765 00000088 930.33 161.60 419.30 624.65 977.55 401.96 1149.01 402.12 1015.62 518.82 993.44 620.85 1130.96 622.09
00005766 00000089 927.92 161.45 417.37 625.74 975.20 398.84 1149.86 400.86 1015.45 516.21 986.99 619.36 1128.76 622.41
00005767 00000090 922.95 168.37 414.84 614.62 975.45 401.22 1147.70 403.70 1011.72 516.29 982.94 619.24 1135.19 619.48
00005768 00000091 917.33 170.30 415.48 606.16 971.94 400.40 1143.91 402.05 1008.29 514.07 979.90 616.60 1127.83 616.78
00005769 00000092 909.57 165.32 419.22 608.08 965.95 399.87 1140.98 400.20 1005.83 512.96 976.81 616.95 1121.78 616.47
00005770 00000093 904.99 158.24 423.21 618.46 958.08 397.75 1135.22 398.61 998.45 506.44 968.05 616.39 1108.69 618.49
00005771 00000094 897.36 155.84 428.01 622.16 956.11 397.28 1132.75 399.80 996.04 504.62 964.53 613.99 1105.46 617.51
00005772 00000095 895.43 160.20 425.84 618.92 953.80 398.93 1130.63 400.85 993.94 506.13 962.37 615.42 1103.13 618.40
00005773 00000096 891.94 160.01 427.89 618.12 949.55 400.45 1126.85 401.41 991.76 509.96 961.12 617.71 1101.09 619.77
00005774 00000097 888.73 161.18 429.45 617.46 948.31 400.51 1125.44 402.99 991.39 512.31 959.47 617.89 1095.46 621.43
00005775 00000098 887.38 164.30 426.41 614.50 946.66 399.75 1123.30 404.48 988.93 513.33 956.83 617.68 1088.93 623.05
00005776 00000099 885.04 165.89 426.84 614.20 946.62 401.55 1122.14 406.30 987.54 513.81 956.74 619.97 1084.32 625.35
00005777 00000100 884.26 167.25 427.31 616.51 947.39 403.37 1123.42 406.94 990.67 513.93 958.29 623.54 1085.78 628.01
00005778 00000101 884.04 166.12 430.45 618.66 947.05 407.06 1125.38 406.56 992.65 513.96 962.52 628.06 1093.08 629.09
00005779 00000102 883.80 163.20 431.42 618.92 945.92 406.98 1128.37 406.22 994.58 515.51 960.25 623.60 1104.03 624.15
00005780 00000103 884.26 164.38 431.31 617.01 945.92 406.79 1129.46 406.34 996.50 517.49 960.10 622.38 1107.66 623.18
00005781 00000104 884.68 165.28 431.71 618.96 947.83 408.39 1130.57 406.13 996.92 514.50 961.92 622.57 1109.88 621.79
00005782 00000105 885.55 169.47 430.87 617.38 951.02 407.29 1130.90 404.77 999.34 512.63 964.32 621.46 1109.34 620.57
00005783 00000106 887.10 163.04 431.07 625.42 955.16 410.22 1132.31 410.71 1000.89 513.62 964.42 619.75 1111.53 621.19
00005784 00000107 889.39 163.09 430.41 625.40 958.64 412.28 1136.00 416.75 1005.64 515.26 966.04 617.10 1115.37 621.67
00005785 00000108 893.24 162.08 430.12 626.53 962.47 410.13 1141.72 414.56 1011.81 517.24 970.36 616.76 1122.19 621.47
00005786 00000109 896.69 168.28 424.04 623.80 971.42 411.55 1151.69 414.49 1028.70 524.98 978.36 620.64 1137.94 622.15
00005787 00000110 899.81 173.23 425.34 621.47 979.08 411.54 1162.87 416.51 1041.59 526.30 983.83 622.69 1144.54 626.15
00005788 00000111 903.10 166.80 425.66 620.16 984.70 405.19 1174.77 408.52 1053.43 519.13 990.90 620.75 1154.29 623.05
00005789 00000112 912.60 154.18 424.46 618.35 995.37 394.36 1189.41 395.20 1071.09 500.32 1005.33 615.21 1169.66 615.51
00005790 00000113 917.35 142.07 426.97 627.55 1005.51 384.25 1201.07 384.90 1086.20 487.85 1015.29 605.11 1183.89 605.01
00005791 00000114 920.27 137.34 429.37 631.86 1013.61 380.97 1210.44 380.88 1101.48 484.21 1027.73 605.04 1194.93 603.72
00005792 00000115 923.16 142.01 432.72 635.28 1028.18 388.42 1221.19 394.02 1114.25 492.98 1037.58 608.25 1204.49 611.17
00005793 00000116 925.00 153.72 434.17 633.84 1033.38 392.48 1227.09 401.17 1117.89 501.77 1039.87 613.76 1206.51 619.36
00005794 00000117 926.94 153.92 432.86 641.60 1037.56 392.05 1232.46 402.22 1125.73 503.80 1043.69 617.23 1212.28 624.21
00005795 00000118 925.87 152.92 434.64 647.95 1041.80 390.23 1235.60 402.69 1130.25 503.63 1043.84 616.09 1214.51 624.84
00005796 00000119 923.47 153.40 433.12 642.87 1040.72 393.48 1235.14 404.48 1132.40 507.98 1043.71 614.26 1218.24 621.78
00005797 00000120 921.11 158.29 430.91 630.36 1038.59 406.14 1231.67 416.83 1130.92 514.26 1042.31 612.77 1217.55 620.53
00005798 00000121 923.49 160.25 425.06 627.23 1038.63 417.00 1234.34 424.46 1134.16 523.57 1044.46 617.14 1222.49 622.31
00005799 00000122 921.84 163.24 426.83 630.69 1039.66 416.09 1236.73 420.86 1138.22 526.76 1047.05 621.75 1225.97 624.85
00005800 00000123 921.44 169.22 427.89 626.93 1041.97 415.77 1238.72 419.01 1142.93 529.61 1050.51 625.21 1227.84 627.42
00005801 00000124 919.90 172.14 431.21 626.73 1042.65 418.43 1240.16 421.09 1144.93 535.52 1053.20 630.04 1228.56 631.91
00005802 00000125 919.18 174.35 430.86 634.85 1045.01 425.64 1241.05 428.45 1148.72 545.88 1058.14 641.40 1227.69 643.44
00005803 00000126 917.48 181.68 429.93 638.55 1043.30 442.03 1234.66 445.00 1144.54 561.87 1061.42 656.65 1221.84 658.53
CROP_BBOX: 506 0 1658 1080
