Video ID: 	69_OKwbIVxc
H: 	2160
W: 	3840
FPS: 	23.976023976023978

FRAME INDEX X0 Y0 W H [Landmarks (5 Points)]

00007603 00000000 1895.31 144.27 392.51 594.03 1935.40 397.34 2054.57 386.73 1936.95 511.00 1973.24 618.80 2059.02 608.29
00007604 00000001 1896.08 144.60 395.64 602.76 1936.08 399.14 2061.60 385.75 1942.15 512.56 1977.61 621.45 2069.33 608.57
00007605 DELETE   1895.79 148.23 403.03 608.57 1936.23 402.80 2074.92 386.89 1952.39 521.58 1986.22 630.96 2087.10 615.48
00007606 DELETE   1894.32 154.83 414.73 607.73 1942.39 409.12 2091.72 392.07 1970.65 534.82 2005.08 639.78 2108.74 622.37
00007607 00000004 1906.82 165.22 411.17 621.70 1956.51 423.47 2110.82 393.57 1991.86 545.99 2027.99 654.98 2141.00 627.72
00007608 DELETE   1906.72 176.98 411.89 610.37 1954.20 431.59 2109.97 403.69 1989.28 555.21 2026.32 655.87 2143.99 630.10
00007609 DELETE   1899.95 177.95 412.01 608.35 1948.06 428.75 2099.08 410.96 1977.30 554.15 2012.97 647.72 2127.40 629.61
00007610 DELETE   1890.38 174.58 406.09 596.76 1938.34 429.21 2084.98 412.24 1966.63 550.86 2002.05 640.76 2115.03 622.50
00007611 00000008 1884.99 168.57 404.55 602.60 1932.06 423.96 2076.85 408.29 1962.10 547.88 1994.58 635.10 2109.77 617.89
00007612 00000009 1883.07 166.16 403.55 608.66 1929.06 423.83 2070.09 406.14 1957.38 548.68 1997.50 636.33 2109.72 616.97
00007613 00000010 1880.42 165.41 404.70 606.12 1927.77 423.28 2067.05 406.43 1956.43 551.15 1997.98 635.53 2108.08 616.73
00007614 00000011 1885.88 165.84 392.84 598.78 1929.87 425.67 2066.86 401.16 1956.36 549.12 1991.55 641.51 2097.94 620.67
00007615 00000012 1881.01 159.98 405.64 619.36 1927.73 426.55 2068.73 405.29 1952.74 556.70 1997.83 651.82 2101.31 631.14
00007616 00000013 1882.79 160.58 407.38 618.69 1930.68 429.44 2071.70 406.60 1954.63 557.34 2003.54 657.53 2103.92 635.93
00007617 00000014 1885.90 165.26 409.07 617.01 1930.41 432.39 2074.03 406.85 1954.50 555.86 1996.30 656.13 2105.82 636.96
00007618 00000015 1886.08 158.91 409.17 625.53 1934.79 429.18 2076.19 406.76 1958.56 559.77 2008.11 657.82 2112.36 636.39
00007619 00000016 1888.63 160.69 412.77 617.47 1934.91 428.06 2079.18 410.51 1961.90 554.79 2007.51 652.63 2112.21 633.21
00007620 00000017 1891.62 164.02 412.60 613.41 1938.55 426.30 2079.62 409.49 1961.97 551.35 2009.57 649.20 2111.46 630.51
00007621 00000018 1893.62 159.81 411.22 625.90 1940.72 425.26 2081.51 409.18 1963.44 552.57 2011.99 646.52 2116.58 627.80
00007622 00000019 1896.16 161.59 410.92 621.75 1942.54 426.02 2082.69 408.03 1963.99 552.10 2014.46 645.24 2119.54 625.10
00007623 00000020 1898.97 157.12 412.40 623.58 1945.01 423.33 2085.79 406.98 1965.02 548.74 2013.15 642.36 2119.11 623.49
00007624 00000021 1902.75 155.34 412.08 626.39 1948.42 421.70 2090.65 403.56 1970.45 546.06 2013.81 640.51 2122.50 620.82
00007625 00000022 1906.91 153.46 409.45 625.10 1952.41 420.71 2091.66 403.98 1971.74 546.67 2016.91 639.43 2122.28 620.89
00007626 00000023 1910.41 155.46 408.92 629.52 1955.66 423.14 2091.36 403.79 1973.93 547.38 2024.48 649.78 2121.34 629.54
00007627 00000024 1914.45 151.38 409.78 630.28 1959.72 419.21 2095.96 402.20 1977.08 545.21 2026.60 648.69 2123.22 630.63
00007628 00000025 1920.78 142.53 399.78 649.35 1969.80 422.48 2096.52 395.84 1981.16 544.63 2024.77 653.81 2121.03 631.25
00007629 00000026 1924.19 153.25 403.79 627.29 1968.13 419.09 2100.21 398.54 1982.78 541.36 2030.96 651.36 2122.33 631.22
00007630 00000027 1924.47 150.89 404.48 633.23 1968.40 418.37 2102.45 396.62 1983.33 537.96 2026.99 651.67 2120.68 631.07
00007631 00000028 1928.93 153.51 399.99 625.99 1969.39 417.79 2104.90 397.54 1983.66 538.24 2028.10 649.39 2123.02 629.89
00007632 00000029 1930.95 152.46 399.89 631.33 1972.02 413.52 2109.66 396.02 1985.99 539.66 2030.99 645.60 2128.87 627.72
00007633 00000030 1931.73 149.89 401.57 631.31 1974.83 411.90 2113.78 396.16 1989.49 537.75 2028.51 645.51 2125.92 629.57
00007634 00000031 1935.79 152.82 398.06 624.04 1978.11 411.12 2115.17 395.29 1990.39 537.62 2030.70 643.60 2126.76 627.51
00007635 00000032 1938.46 151.53 401.23 628.00 1982.03 416.65 2120.94 398.83 1999.58 541.00 2041.93 645.43 2139.97 627.50
00007636 00000033 1938.08 155.31 409.16 622.88 1985.46 421.64 2129.57 391.47 2012.42 534.77 2049.30 641.49 2154.64 614.86
00007637 00000034 1940.12 149.58 410.95 619.23 1989.70 419.44 2139.71 382.33 2024.75 521.56 2052.73 631.98 2166.64 600.98
00007638 00000035 1942.35 144.09 410.83 619.08 1989.67 413.38 2148.10 371.18 2034.32 506.58 2055.08 619.71 2182.70 584.39
00007639 00000036 1940.78 135.05 409.22 605.63 1986.92 404.52 2146.02 364.70 2031.35 494.66 2047.27 608.96 2174.09 576.17
00007640 DELETE   1934.16 133.71 411.25 599.83 1984.87 401.40 2137.32 362.59 2021.02 478.02 2036.32 605.99 2150.00 575.39
00007641 DELETE   1933.39 138.92 401.76 594.24 1978.58 394.94 2120.95 359.67 2000.27 481.20 2026.51 600.99 2135.63 572.10
00007642 DELETE   1922.06 138.40 404.69 593.77 1968.46 389.16 2106.52 360.51 1984.38 477.99 2011.73 596.55 2119.01 572.66
00007643 00000040 1919.08 141.44 397.88 587.14 1962.63 390.44 2099.52 362.93 1978.09 481.53 2004.15 600.56 2109.43 577.78
00007644 00000041 1916.96 142.64 399.19 583.36 1959.01 394.31 2098.22 363.76 1977.35 483.81 2006.93 602.42 2115.12 576.97
00007645 00000042 1918.19 143.67 397.17 585.50 1962.21 400.19 2101.81 364.86 1982.89 486.94 2016.56 607.60 2122.73 578.39
00007646 00000043 1919.54 146.94 396.57 585.41 1966.00 402.07 2103.80 367.14 1987.00 492.07 2020.70 612.88 2123.92 583.73
00007647 00000044 1917.65 145.94 400.97 595.61 1965.19 413.59 2105.42 377.83 1987.70 502.01 2021.72 620.30 2126.32 590.14
00007648 00000045 1916.15 153.18 400.41 594.25 1962.41 420.03 2102.53 386.83 1987.11 515.92 2019.51 626.77 2124.07 597.97
00007649 00000046 1917.36 158.68 393.59 593.39 1958.62 423.65 2094.92 394.83 1978.18 529.96 2019.02 635.49 2118.19 609.19
00007650 00000047 1919.19 169.21 390.20 591.02 1960.99 425.43 2089.29 401.71 1975.10 535.44 2019.48 639.84 2111.35 617.50
00007651 00000048 1921.74 170.59 390.06 600.44 1961.18 429.54 2091.14 405.52 1975.49 542.70 2022.69 646.62 2116.15 623.73
00007652 00000049 1926.31 171.63 395.39 606.61 1969.96 435.89 2100.86 416.78 1985.74 552.29 2031.56 647.58 2125.42 628.85
00007653 00000050 1934.49 176.94 390.86 593.20 1977.11 435.37 2110.69 415.35 1994.87 552.15 2037.60 650.17 2131.82 630.46
00007654 00000051 1940.95 179.25 388.30 600.94 1981.61 439.77 2119.84 417.24 2004.88 555.23 2042.58 652.65 2142.95 631.13
00007655 00000052 1944.23 182.01 391.20 599.13 1988.25 443.80 2127.07 418.83 2013.51 556.10 2049.68 657.43 2148.66 634.57
00007656 00000053 1945.19 181.97 393.27 593.46 1991.95 443.94 2130.42 419.65 2017.80 556.47 2055.91 657.52 2152.48 635.11
00007657 00000054 1947.45 184.88 393.45 592.39 1992.15 441.06 2131.86 416.09 2017.56 556.71 2059.10 653.80 2159.79 630.38
00007658 00000055 1949.69 185.28 391.12 589.90 1993.55 439.01 2133.31 416.28 2020.61 555.67 2058.19 647.70 2162.95 625.89
00007659 00000056 1949.87 178.52 390.43 591.26 1995.24 437.79 2135.20 415.22 2022.11 554.52 2057.64 643.40 2164.49 621.71
00007660 00000057 1952.98 184.04 391.92 583.07 1998.82 435.05 2137.13 417.12 2027.92 552.75 2056.05 638.12 2166.32 620.30
00007661 00000058 1952.37 179.96 388.63 588.31 2000.21 437.09 2139.43 409.58 2028.46 553.64 2063.60 644.33 2169.05 619.02
00007662 00000059 1952.83 177.19 391.63 595.74 2001.51 435.83 2140.70 407.47 2028.13 552.36 2065.59 644.75 2172.54 618.59
00007663 00000060 1952.21 174.82 393.15 600.88 2001.09 434.83 2140.04 406.87 2027.40 551.47 2065.67 643.11 2172.97 616.90
00007664 00000061 1950.64 174.78 392.91 598.46 1998.72 437.07 2139.34 404.43 2027.13 548.97 2064.88 644.53 2171.83 615.13
00007665 00000062 1950.32 174.65 394.28 604.38 1998.77 435.57 2140.16 401.24 2026.55 545.73 2065.92 646.39 2170.86 615.84
00007666 00000063 1950.03 174.26 392.24 603.94 1997.74 435.54 2139.33 400.62 2025.83 546.10 2065.42 645.16 2173.08 613.89
00007667 00000064 1949.80 169.39 392.62 611.99 1996.97 434.47 2139.00 399.99 2024.52 544.68 2065.45 644.63 2173.77 613.45
00007668 00000065 1944.29 169.08 397.63 610.46 1993.86 435.67 2137.83 399.88 2023.46 544.38 2062.46 644.02 2173.31 611.91
00007669 00000066 1943.88 167.64 398.44 609.04 1991.85 430.40 2133.16 399.14 2021.14 544.27 2061.32 639.39 2169.13 610.43
00007670 00000067 1943.07 167.89 399.52 607.64 1991.37 430.72 2133.26 399.07 2022.22 542.65 2059.39 636.53 2169.35 607.49
00007671 00000068 1941.46 170.42 398.60 591.63 1989.83 431.23 2129.32 402.66 2022.11 540.75 2057.30 630.24 2165.66 603.87
00007672 00000069 1942.25 173.15 398.61 587.48 1988.56 430.97 2128.22 405.07 2019.89 537.57 2054.32 627.21 2162.73 603.16
00007673 00000070 1943.47 171.34 397.37 590.84 1988.35 432.18 2127.48 404.63 2018.26 537.17 2052.78 628.18 2161.97 603.16
00007674 00000071 1944.74 165.89 393.20 597.64 1989.67 433.99 2129.07 401.49 2018.43 538.58 2057.55 635.65 2162.66 606.78
00007675 00000072 1942.18 165.19 399.40 596.04 1989.09 431.13 2129.20 400.58 2015.03 530.59 2052.26 636.42 2152.68 609.71
00007676 00000073 1945.71 166.19 399.18 594.94 1992.92 426.61 2130.23 394.75 2016.97 523.33 2048.89 635.76 2145.03 608.80
00007677 00000074 1954.78 157.30 389.85 590.67 1999.12 420.65 2132.64 390.36 2016.02 516.24 2046.95 630.42 2140.54 604.95
00007678 00000075 1964.33 152.43 389.44 600.72 2004.27 412.90 2145.95 393.97 2025.50 510.76 2043.68 627.36 2145.56 611.73
00007679 00000076 1971.56 155.73 398.91 599.29 2011.72 412.64 2154.58 398.50 2030.84 513.91 2051.21 634.58 2150.79 622.78
00007680 00000077 1981.20 167.76 401.09 613.24 2020.13 417.40 2165.40 403.89 2035.12 524.25 2058.27 649.22 2159.26 637.08
00007681 00000078 1986.51 179.33 396.00 606.76 2033.25 423.51 2172.27 417.68 2047.75 541.91 2064.89 649.97 2165.44 643.31
00007682 00000079 1995.66 189.48 395.06 596.03 2042.61 431.24 2183.14 425.51 2058.28 544.00 2068.69 653.16 2171.04 647.10
00007683 00000080 1996.73 189.87 396.69 594.82 2042.30 430.93 2184.32 425.44 2057.95 543.55 2070.10 648.04 2177.94 641.84
00007684 00000081 1996.28 185.98 395.52 596.05 2040.85 425.25 2182.26 420.13 2055.21 542.95 2069.63 640.48 2182.95 634.38
00007685 00000082 1995.17 181.87 395.02 589.69 2036.97 416.12 2176.72 409.35 2050.75 535.55 2068.30 629.90 2181.86 622.19
00007686 00000083 1986.92 173.87 408.12 596.09 2025.79 412.12 2173.64 404.64 2043.15 523.16 2059.99 623.52 2178.03 615.50
00007687 00000084 1987.04 174.34 408.86 605.45 2026.50 411.44 2174.55 401.12 2043.62 524.53 2066.68 630.89 2181.81 620.39
00007688 00000085 1990.13 181.64 402.04 604.86 2028.62 418.62 2173.91 404.51 2044.26 532.97 2073.84 640.99 2186.48 627.45
00007689 00000086 1988.56 181.16 399.46 596.27 2027.48 423.11 2173.25 409.80 2045.64 534.52 2069.46 642.64 2178.50 630.21
00007690 00000087 1985.62 178.27 398.95 593.18 2020.40 418.50 2164.21 409.27 2037.32 524.84 2055.06 631.97 2164.89 623.00
00007691 00000088 1982.65 173.68 395.32 587.85 2017.26 408.10 2157.91 401.15 2029.80 512.30 2047.50 621.59 2153.35 615.22
00007692 00000089 1979.35 167.01 392.71 582.89 2014.99 400.33 2153.73 393.76 2027.69 509.33 2047.79 615.92 2152.61 609.45
00007693 00000090 1977.36 166.35 393.94 579.45 2014.48 401.78 2151.67 392.96 2028.01 510.83 2051.11 616.37 2154.79 608.08
00007694 00000091 1977.36 168.21 395.46 581.76 2014.18 403.02 2151.08 396.47 2027.24 517.66 2053.90 618.93 2158.10 611.91
00007695 00000092 1978.53 170.07 396.26 589.16 2014.29 406.45 2151.56 397.03 2026.72 524.80 2059.17 624.30 2164.80 614.59
00007696 00000093 1977.92 170.92 397.76 609.53 2013.30 413.22 2153.33 394.99 2027.98 527.13 2068.15 634.70 2178.17 617.40
00007697 00000094 1977.15 169.91 399.35 620.17 2013.52 413.76 2153.74 394.19 2029.75 530.00 2073.05 639.71 2183.04 620.85
00007698 00000095 1975.80 167.81 396.81 605.43 2012.87 409.57 2152.33 391.98 2028.40 524.28 2068.32 633.07 2175.28 616.47
00007699 00000096 1977.78 164.84 390.95 599.71 2013.71 406.71 2149.90 392.49 2025.65 517.82 2057.33 628.17 2161.63 614.91
00007700 00000097 1980.63 158.07 394.00 597.00 2015.33 404.49 2151.92 391.14 2027.53 512.73 2050.61 631.03 2148.56 619.71
00007701 00000098 1978.91 150.70 398.96 599.99 2013.21 399.09 2150.96 383.45 2025.61 504.43 2048.86 624.15 2146.88 611.03
00007702 00000099 1975.74 145.19 403.09 599.82 2010.09 393.15 2154.17 375.11 2025.35 501.50 2050.36 617.99 2155.68 602.18
00007703 00000100 1980.57 142.95 396.65 596.64 2016.79 391.24 2167.04 360.87 2041.60 490.68 2072.67 608.90 2189.39 582.49
00007704 00000101 1989.36 133.58 397.54 601.13 2025.57 382.90 2179.49 349.93 2056.68 477.11 2080.47 598.47 2204.89 569.46
00007705 DELETE   1993.57 123.44 399.42 606.35 2029.81 375.45 2188.18 341.22 2067.26 468.51 2082.12 590.93 2212.57 561.56
00007706 00000103 1995.96 116.37 397.77 605.48 2032.74 368.26 2191.88 337.80 2076.17 463.10 2081.81 584.21 2209.47 558.36
00007707 00000104 1996.87 115.64 399.35 604.31 2034.84 368.78 2193.93 336.52 2079.31 462.05 2085.21 584.68 2210.87 557.64
00007708 00000105 1998.60 118.29 399.96 612.77 2036.24 374.11 2197.07 337.73 2079.87 471.78 2094.53 593.81 2222.69 562.64
00007709 00000106 2002.55 131.98 393.21 603.21 2040.15 383.82 2195.19 346.68 2079.37 480.61 2102.35 602.18 2223.25 570.34
00007710 00000107 1999.84 147.04 393.76 589.71 2035.81 394.96 2189.94 360.29 2070.87 494.49 2093.30 612.83 2209.55 583.52
00007711 00000108 1999.03 162.12 393.93 583.84 2038.28 404.04 2184.77 376.88 2072.68 515.66 2092.53 621.16 2200.69 597.79
00007712 00000109 1998.14 168.29 392.02 575.44 2038.26 409.61 2182.04 388.53 2070.05 531.28 2096.61 622.87 2201.15 603.53
00007713 00000110 1994.87 173.88 398.10 584.62 2035.33 418.79 2182.26 394.36 2069.66 542.37 2099.93 634.29 2209.58 611.94
00007714 00000111 1995.37 170.35 394.85 582.29 2036.25 421.67 2180.73 400.19 2068.58 550.56 2102.61 635.03 2209.05 614.37
00007715 00000112 1997.12 173.91 392.12 585.19 2044.15 424.95 2180.03 403.05 2066.39 553.43 2099.91 639.67 2202.62 618.98
00007716 00000113 1996.40 174.40 395.76 584.40 2043.22 427.21 2180.12 407.03 2066.28 555.16 2101.21 642.13 2204.19 622.80
00007717 00000114 1995.25 173.10 398.48 607.69 2040.90 430.95 2178.78 407.02 2059.62 554.73 2099.34 651.88 2203.27 630.00
00007718 00000115 1996.38 172.22 398.04 607.56 2040.71 430.88 2178.38 406.79 2060.14 552.76 2096.46 652.65 2199.40 631.27
00007719 00000116 1997.14 166.85 398.55 612.01 2040.47 431.29 2175.14 405.16 2057.09 550.56 2097.87 654.83 2197.42 632.20
00007720 00000117 1999.92 166.96 396.68 611.39 2043.68 428.39 2173.96 402.26 2058.25 547.98 2101.59 653.78 2196.75 630.93
00007721 00000118 2002.50 164.06 395.77 611.57 2043.67 424.31 2174.59 401.10 2058.78 547.05 2099.86 651.12 2196.68 630.50
00007722 00000119 2007.38 166.86 392.56 609.71 2047.31 422.11 2176.79 398.82 2060.35 544.95 2099.52 650.77 2195.56 630.21
00007723 00000120 2008.24 169.65 392.46 608.10 2050.06 423.98 2177.20 396.38 2061.99 542.26 2099.20 651.96 2193.28 628.63
00007724 00000121 2007.40 165.53 395.79 603.17 2050.88 415.84 2178.33 394.34 2063.45 538.61 2093.94 643.41 2187.47 624.93
00007725 00000122 2011.32 164.14 387.72 588.15 2053.27 410.61 2181.00 391.07 2066.37 536.23 2095.37 635.27 2189.95 617.83
00007726 00000123 2010.19 161.34 387.83 592.92 2050.73 408.65 2179.38 389.50 2065.33 533.22 2092.67 632.63 2188.05 615.54
00007727 00000124 2010.20 156.20 383.70 602.23 2046.29 406.65 2178.54 384.35 2061.95 530.23 2092.33 633.33 2190.46 613.59
00007728 00000125 2002.57 165.92 390.58 581.12 2036.34 408.23 2178.63 388.20 2060.14 525.91 2093.71 626.96 2195.96 608.21
00007729 00000126 2000.50 159.16 391.76 585.38 2034.84 403.85 2178.14 383.69 2058.98 520.55 2088.55 621.70 2193.06 602.92
00007730 00000127 1996.82 156.93 393.26 581.12 2032.07 404.42 2175.02 382.16 2057.93 511.57 2087.12 615.22 2193.26 594.84
00007731 00000128 1996.76 152.33 394.46 577.79 2035.72 404.49 2182.72 376.10 2066.01 503.56 2090.63 609.34 2203.74 584.89
00007732 00000129 1997.46 147.67 395.32 583.77 2037.88 399.03 2188.69 369.94 2071.63 498.03 2094.18 604.21 2211.92 579.25
00007733 00000130 1996.38 139.82 398.16 586.93 2039.32 395.20 2192.86 365.57 2076.70 492.95 2097.08 600.55 2215.83 575.15
00007734 00000131 1996.21 137.83 397.86 589.23 2038.72 394.72 2190.98 361.99 2076.75 488.44 2098.71 597.68 2215.47 569.91
00007735 00000132 1998.47 135.64 394.07 584.57 2041.35 391.65 2190.41 357.01 2079.54 482.58 2097.92 594.72 2212.96 565.36
00007736 00000133 1996.47 129.44 394.31 593.84 2038.11 390.02 2188.56 354.09 2076.71 478.35 2095.49 594.79 2210.39 564.48
00007737 00000134 1994.17 123.69 392.35 597.89 2035.98 383.50 2185.40 351.79 2068.58 472.53 2084.85 593.76 2197.09 567.37
00007738 00000135 1991.28 120.61 393.73 595.43 2033.33 378.37 2177.96 351.04 2059.91 467.32 2074.88 590.34 2180.61 567.80
00007739 00000136 1987.69 118.11 394.27 601.42 2026.54 377.62 2167.60 351.40 2044.77 470.77 2069.89 594.60 2174.10 572.11
00007740 00000137 1986.89 124.74 394.33 602.93 2023.26 377.31 2162.65 352.64 2040.98 477.38 2071.17 592.15 2178.96 570.07
CROP_BBOX: 1498 0 2614 1052
