Video ID: 	ULEZfCArhjw
H: 	1080
W: 	1920
FPS: 	25.0

FRAME INDEX X0 Y0 W H [Landmarks (5 Points)]

00002571 00000000 990.67 212.58 457.35 542.57 1132.81 386.11 1289.50 486.76 1119.94 507.51 1036.90 568.64 1156.50 650.74
00002572 00000001 994.46 217.48 453.22 531.70 1133.83 387.32 1288.76 488.26 1120.22 512.97 1040.01 567.49 1158.98 649.74
00002573 00000002 997.54 220.39 449.64 528.18 1131.81 388.77 1287.44 489.96 1119.52 515.65 1043.03 566.54 1163.12 648.93
00002574 00000003 990.27 216.04 453.41 531.68 1127.90 390.43 1283.67 492.53 1116.69 520.25 1039.35 568.50 1157.39 651.24
00002575 00000004 985.68 221.08 450.61 530.18 1122.43 391.49 1281.62 491.24 1114.69 522.48 1033.76 573.85 1153.88 654.52
00002576 DELETE   979.45 221.01 449.16 528.83 1112.90 388.86 1274.39 487.99 1107.35 524.70 1026.59 574.68 1147.35 654.89
00002577 00000006 976.96 223.17 445.77 520.76 1109.32 384.75 1271.42 481.84 1106.41 519.83 1024.08 572.19 1145.78 650.64
00002578 00000007 978.17 211.26 446.94 526.58 1110.89 378.15 1273.44 477.30 1108.42 509.23 1026.95 563.98 1148.79 644.10
00002579 00000008 981.59 205.77 444.20 529.57 1113.19 375.60 1275.36 473.27 1112.36 502.79 1031.19 559.36 1154.62 638.72
00002580 00000009 985.16 190.66 441.28 543.79 1117.38 372.23 1279.95 465.65 1121.92 493.92 1037.71 558.82 1159.88 635.26
00002581 00000010 992.65 188.55 439.21 546.98 1124.73 375.05 1284.24 463.57 1126.92 493.34 1045.06 560.78 1161.13 633.86
00002582 00000011 996.19 184.99 436.33 548.73 1125.85 376.37 1284.98 461.17 1130.73 493.47 1047.92 562.66 1163.77 632.78
00002583 00000012 999.96 182.25 436.07 552.07 1130.09 373.78 1289.87 459.42 1135.88 492.14 1052.54 561.00 1172.09 631.90
00002584 00000013 1002.86 178.49 436.48 555.81 1132.34 371.29 1294.04 456.94 1140.11 490.54 1057.20 560.23 1179.78 631.20
00002585 00000014 1003.33 184.76 435.32 554.69 1135.49 374.23 1296.86 457.19 1147.58 492.95 1062.88 563.11 1186.66 632.38
00002586 00000015 1003.50 185.33 435.83 556.57 1137.13 375.60 1299.42 458.99 1152.29 498.26 1065.87 566.48 1190.07 636.17
00002587 00000016 1003.38 186.20 438.42 560.08 1138.67 378.80 1300.61 462.58 1154.32 501.67 1067.86 569.13 1192.21 639.10
00002588 00000017 1002.44 191.15 437.40 555.14 1139.53 380.29 1302.94 461.37 1157.12 503.35 1065.87 574.19 1190.58 642.10
00002589 00000018 1003.44 186.40 439.69 557.55 1138.98 381.47 1304.59 461.13 1158.41 503.61 1067.39 577.37 1192.88 643.97
00002590 00000019 1001.94 188.86 438.86 557.40 1136.73 384.51 1303.67 461.48 1158.42 505.48 1068.23 579.71 1194.12 644.14
00002591 00000020 999.88 192.73 438.95 555.36 1137.42 383.54 1302.79 462.06 1157.64 507.02 1067.84 577.82 1193.15 643.51
00002592 00000021 996.10 197.32 440.10 551.46 1134.50 382.75 1301.67 464.14 1154.39 508.84 1064.22 573.90 1192.68 641.61
00002593 00000022 992.15 195.16 441.04 553.44 1130.84 382.95 1299.65 464.50 1152.10 510.44 1060.84 574.95 1189.97 642.68
00002594 00000023 983.31 181.69 445.02 566.96 1124.37 380.26 1296.36 461.69 1151.45 509.22 1055.56 575.07 1185.16 642.39
00002595 00000024 979.47 176.57 442.62 572.73 1118.34 381.64 1291.94 458.50 1148.26 509.18 1052.47 580.19 1179.11 643.94
00002596 00000025 976.99 180.17 441.72 569.27 1114.66 383.24 1286.10 462.63 1141.29 508.17 1046.37 577.41 1173.80 643.04
00002597 00000026 972.93 180.48 442.54 570.50 1107.45 383.06 1281.55 462.71 1134.37 506.62 1037.90 577.78 1168.91 643.65
00002598 00000027 967.85 182.60 443.59 568.79 1102.45 383.43 1277.60 462.18 1130.91 505.00 1032.77 579.04 1165.11 644.07
00002599 00000028 961.89 182.25 443.92 572.78 1096.12 380.02 1270.71 458.50 1123.20 502.10 1026.66 577.42 1160.41 642.56
00002600 00000029 956.16 173.72 443.34 582.23 1087.70 375.51 1265.87 454.93 1118.09 503.44 1019.91 575.58 1157.02 641.78
00002601 00000030 951.48 163.58 442.28 592.63 1080.93 374.57 1260.32 455.32 1110.55 502.32 1014.92 575.94 1149.62 643.48
00002602 00000031 939.59 169.03 441.81 576.57 1075.97 378.15 1250.04 461.43 1106.68 506.57 1003.27 567.82 1138.99 636.81
00002603 00000032 946.95 175.00 430.53 559.27 1070.09 370.94 1240.90 454.88 1090.48 495.55 1003.95 562.75 1141.16 632.70
00002604 00000033 943.65 176.34 429.76 554.22 1066.02 372.29 1238.31 452.74 1088.37 490.97 1001.69 564.12 1138.80 630.95
00002605 00000034 942.24 184.37 425.30 541.38 1063.29 370.16 1234.60 448.76 1082.74 487.36 998.83 561.01 1136.67 626.54
00002606 00000035 937.67 173.30 424.14 546.63 1061.18 365.74 1229.70 447.25 1081.53 486.50 993.78 557.32 1131.83 624.32
00002607 00000036 934.57 174.11 425.20 546.79 1057.40 367.25 1226.99 445.93 1077.77 485.88 990.11 558.48 1129.27 623.20
00002608 00000037 932.85 175.50 424.34 543.40 1055.11 368.76 1224.92 446.10 1076.65 485.57 987.28 559.98 1126.08 623.31
00002609 00000038 931.04 169.76 423.84 547.08 1051.34 366.92 1222.04 446.32 1072.48 486.38 983.60 558.81 1123.67 623.35
00002610 00000039 928.56 168.03 425.77 549.38 1048.94 366.29 1220.06 447.13 1069.59 486.96 980.37 557.84 1119.86 623.48
00002611 00000040 922.29 171.94 430.74 552.19 1045.93 368.60 1217.09 448.70 1065.49 487.00 977.40 559.66 1114.28 625.13
00002612 00000041 917.52 171.53 433.89 557.58 1041.60 370.43 1214.25 450.66 1064.13 491.24 973.62 563.57 1107.59 629.23
00002613 00000042 910.72 178.53 432.68 557.57 1037.77 376.79 1209.78 453.42 1062.76 491.35 969.83 570.61 1101.18 633.79
00002614 00000043 907.77 188.01 432.11 547.43 1033.95 378.46 1205.91 453.47 1057.17 491.73 965.54 571.67 1096.83 633.48
00002615 00000044 905.35 190.86 429.92 543.91 1028.67 379.97 1199.58 454.71 1051.78 489.61 961.92 571.02 1093.97 632.54
00002616 00000045 904.50 187.39 426.04 545.78 1026.43 378.89 1196.00 452.62 1051.41 487.38 960.62 569.71 1092.07 630.61
00002617 00000046 904.60 188.27 425.23 543.70 1026.20 379.83 1195.01 451.92 1051.48 487.04 961.94 569.35 1092.84 628.90
00002618 00000047 905.55 189.48 426.19 542.18 1028.13 379.34 1196.51 452.68 1052.80 484.26 962.63 567.74 1093.46 628.27
00002619 00000048 907.04 184.55 426.59 546.83 1029.20 378.90 1198.46 452.20 1055.84 483.44 964.96 567.84 1095.54 628.35
00002620 00000049 909.83 182.48 428.05 548.45 1035.13 377.26 1203.98 450.01 1062.44 484.45 970.59 566.49 1099.05 626.54
00002621 00000050 914.35 183.84 426.65 545.53 1039.44 375.72 1207.91 449.27 1064.44 484.70 974.15 564.91 1102.23 625.62
00002622 00000051 917.47 177.64 429.21 550.44 1041.63 373.78 1210.85 450.01 1065.93 487.92 976.69 563.39 1104.99 626.16
00002623 00000052 923.37 176.93 425.81 550.37 1045.22 372.21 1214.72 449.13 1066.72 487.66 979.78 563.25 1109.32 626.62
00002624 00000053 926.78 174.88 425.45 552.39 1047.54 370.55 1217.25 448.85 1065.86 488.67 979.82 562.32 1110.97 626.86
00002625 00000054 925.64 171.46 427.98 556.52 1047.43 370.08 1216.86 448.75 1065.87 489.49 979.68 563.06 1108.62 627.81
00002626 00000055 925.56 173.85 425.51 554.91 1044.99 371.12 1214.64 448.27 1063.66 490.12 977.71 565.69 1106.68 629.42
00002627 00000056 921.04 179.07 423.89 554.29 1041.17 374.47 1211.07 448.95 1061.92 491.65 974.98 568.87 1101.94 630.57
00002628 00000057 919.92 178.02 419.43 558.71 1034.49 377.08 1207.66 446.55 1056.16 489.78 973.24 573.43 1101.91 630.96
00002629 00000058 919.71 174.86 416.21 563.79 1030.97 376.22 1205.23 443.46 1054.03 489.03 969.86 575.82 1098.19 631.88
00002630 00000059 916.29 177.81 417.10 558.51 1032.32 376.67 1203.45 445.11 1054.73 489.15 969.97 572.29 1096.72 629.47
00002631 00000060 913.47 182.15 416.20 553.82 1029.52 377.96 1201.98 443.47 1056.02 493.60 971.49 574.14 1099.63 628.81
00002632 00000061 916.04 176.09 413.68 561.74 1027.84 379.17 1203.81 442.47 1058.51 494.88 972.53 576.43 1104.81 629.05
00002633 00000062 922.03 180.33 408.63 562.37 1028.12 384.21 1203.94 446.06 1058.06 506.05 976.37 582.95 1108.75 634.43
00002634 00000063 928.00 193.62 410.73 558.30 1032.40 392.18 1205.78 453.59 1057.42 516.22 982.35 590.43 1114.94 641.70
00002635 DELETE   931.73 189.27 414.76 561.24 1041.92 386.81 1213.61 451.89 1063.28 515.53 987.61 586.07 1119.74 640.58
00002636 00000065 933.64 181.52 413.80 566.74 1045.66 381.16 1217.98 446.65 1070.71 506.54 990.81 582.29 1123.80 637.39
00002637 00000066 930.21 174.60 416.64 568.87 1044.31 377.28 1218.71 445.14 1071.71 501.90 989.66 576.90 1124.23 633.68
00002638 00000067 929.19 173.44 416.95 564.08 1044.54 375.47 1216.29 443.29 1071.57 502.63 989.60 573.90 1122.04 630.68
00002639 00000068 931.30 174.40 414.56 558.01 1044.48 374.99 1216.26 443.02 1070.24 502.54 989.04 573.61 1121.73 630.39
00002640 00000069 929.67 179.19 414.53 552.74 1044.23 376.50 1216.72 445.99 1069.67 505.92 987.21 573.47 1122.76 631.30
00002641 00000070 929.13 180.13 415.78 553.87 1044.84 376.03 1218.20 446.58 1070.75 504.96 987.49 572.75 1125.02 631.34
00002642 00000071 928.31 180.20 417.48 556.98 1044.02 376.80 1218.74 447.06 1070.26 505.46 987.13 575.23 1125.11 633.45
00002643 00000072 926.50 178.62 418.20 559.62 1042.07 378.22 1218.74 449.71 1069.22 506.37 984.87 575.20 1127.28 634.17
00002644 00000073 923.28 181.04 420.99 559.57 1039.99 380.15 1216.92 454.30 1064.47 510.24 981.35 574.56 1125.59 635.53
00002645 00000074 921.93 184.21 422.99 558.66 1038.52 383.96 1215.26 458.56 1061.46 512.77 980.20 576.45 1124.01 637.63
00002646 00000075 920.66 187.14 423.98 560.28 1036.89 385.08 1213.95 459.75 1058.51 513.65 977.01 577.80 1121.57 639.01
00002647 00000076 919.28 186.98 426.55 566.16 1036.72 386.16 1214.32 460.91 1058.82 515.00 974.33 581.61 1117.82 642.92
00002648 00000077 916.17 184.71 428.90 570.06 1035.99 384.34 1213.30 461.01 1057.99 513.96 973.01 578.53 1119.73 641.36
00002649 00000078 915.29 183.96 428.29 566.34 1034.39 384.21 1213.19 460.31 1058.63 513.70 971.94 578.82 1118.46 641.09
00002650 00000079 912.44 188.27 428.98 561.50 1029.66 390.21 1209.79 464.66 1055.57 519.52 968.76 585.40 1112.97 646.21
00002651 00000080 909.22 189.05 430.02 562.37 1025.90 391.19 1203.96 466.39 1048.66 522.89 963.30 586.68 1101.14 648.44
00002652 00000081 907.50 195.11 430.24 559.08 1021.91 392.33 1197.37 465.85 1042.56 524.42 958.69 588.51 1092.02 648.99
00002653 00000082 906.96 193.92 428.11 561.54 1020.46 392.00 1194.46 464.92 1040.81 523.42 957.77 589.23 1087.60 649.46
00002654 00000083 907.48 195.14 425.65 556.65 1020.04 391.41 1193.28 463.45 1040.49 521.88 957.93 588.47 1087.22 647.96
00002655 00000084 904.90 191.85 424.26 556.16 1015.66 389.80 1191.87 460.94 1039.14 519.19 955.33 587.51 1088.15 646.21
00002656 00000085 902.63 193.78 420.75 550.22 1012.39 389.97 1188.16 463.96 1035.74 518.55 952.62 584.03 1088.26 644.67
00002657 00000086 899.65 192.75 420.03 548.70 1009.55 389.53 1185.77 463.70 1034.60 517.30 948.78 582.93 1087.60 643.61
00002658 00000087 898.14 190.32 424.02 554.41 1010.93 389.28 1187.34 466.76 1033.62 517.37 948.18 581.65 1088.25 645.03
00002659 00000088 898.18 202.10 424.18 544.23 1013.15 391.99 1187.91 470.38 1035.24 520.99 949.61 583.17 1088.80 647.16
00002660 00000089 902.88 205.77 423.17 543.41 1019.17 393.59 1191.19 473.94 1038.36 526.52 953.03 583.74 1093.06 649.40
00002661 00000090 905.21 203.47 423.41 548.06 1021.15 394.65 1192.49 475.78 1038.64 528.62 956.53 584.27 1095.41 650.52
00002662 00000091 905.20 203.65 426.44 546.14 1021.03 397.19 1192.64 477.57 1038.81 528.65 957.96 584.32 1096.86 649.88
00002663 00000092 903.80 205.50 426.07 546.05 1020.34 398.38 1192.59 479.97 1037.53 529.24 956.84 585.05 1095.41 651.66
00002664 00000093 901.98 208.01 426.14 542.52 1019.05 397.78 1191.53 480.02 1036.43 530.24 955.20 584.53 1094.55 651.66
00002665 00000094 900.18 206.46 427.86 544.20 1016.05 397.32 1190.07 479.51 1033.86 530.78 953.84 584.74 1093.37 651.84
00002666 00000095 894.61 195.54 430.07 551.99 1011.42 396.04 1185.76 478.96 1031.33 528.98 950.90 583.58 1088.84 651.10
00002667 00000096 893.04 198.32 427.25 549.48 1005.12 395.44 1181.17 477.73 1024.82 529.95 944.11 582.96 1084.26 650.04
00002668 00000097 885.27 198.61 426.43 548.68 996.43 395.53 1173.59 478.22 1020.24 530.41 936.59 583.58 1079.70 650.86
00002669 00000098 882.72 201.65 423.89 548.24 991.93 399.13 1168.61 481.17 1017.61 532.94 933.77 586.89 1075.48 653.83
00002670 00000099 879.27 202.01 421.30 552.61 987.21 400.89 1164.50 486.06 1013.88 539.66 928.72 589.16 1072.33 659.01
00002671 00000100 865.96 215.01 428.61 549.01 974.87 408.78 1150.98 484.27 989.15 542.55 920.56 599.12 1060.97 661.73
00002672 00000101 862.82 221.47 428.83 545.14 971.79 410.62 1149.38 485.81 985.71 543.28 913.08 603.80 1054.14 666.37
00002673 00000102 859.79 229.52 429.60 540.17 969.41 412.99 1148.41 490.25 982.66 545.95 908.20 606.95 1049.69 671.20
00002674 00000103 865.43 227.94 422.39 534.76 972.04 412.92 1144.05 493.72 986.34 545.49 906.23 606.10 1047.01 670.85
00002675 00000104 863.72 229.18 424.77 540.14 971.94 415.61 1144.33 495.78 986.31 547.11 907.47 607.26 1048.95 671.92
00002676 00000105 855.10 228.74 433.42 556.84 966.42 419.36 1147.98 500.54 982.15 553.75 906.52 612.16 1053.16 679.59
00002677 00000106 855.91 229.18 432.83 558.31 966.65 419.78 1148.43 502.55 981.49 556.48 906.84 613.07 1053.93 681.86
00002678 00000107 857.58 233.88 429.51 555.53 967.78 421.65 1147.44 504.63 981.83 559.14 906.47 615.35 1051.99 684.47
00002679 00000108 857.39 232.57 429.77 557.73 968.26 423.06 1147.91 505.99 982.73 560.85 907.29 617.11 1051.79 686.44
00002680 00000109 857.85 233.34 429.48 558.72 969.05 423.08 1147.62 507.64 982.67 562.48 907.94 617.69 1051.39 688.27
00002681 00000110 857.53 234.58 431.42 557.73 968.66 422.52 1147.33 507.24 980.37 561.16 906.33 616.74 1050.39 687.30
00002682 00000111 865.30 232.64 426.20 548.87 977.15 419.88 1146.15 506.39 984.73 559.45 910.54 612.20 1049.88 682.78
00002683 00000112 868.17 234.62 425.02 546.09 979.47 418.99 1147.55 507.08 985.06 559.94 912.14 610.13 1051.63 682.07
00002684 00000113 871.01 233.32 425.09 549.68 981.33 420.11 1151.32 508.66 987.73 562.08 916.03 611.33 1058.12 683.78
00002685 00000114 868.19 238.34 435.10 551.89 983.45 425.34 1155.75 521.94 998.69 569.91 918.55 611.71 1060.66 690.63
00002686 00000115 869.38 238.42 436.61 552.43 985.48 425.40 1158.48 522.00 1001.04 570.20 919.73 612.25 1061.52 691.08
00002687 00000116 873.40 237.12 433.52 553.47 987.83 426.06 1161.21 523.01 1002.44 570.13 921.79 611.63 1063.90 690.76
00002688 00000117 873.24 238.45 436.83 553.73 988.63 426.55 1162.47 522.86 1003.54 570.69 922.27 612.78 1065.16 691.30
00002689 00000118 873.38 239.12 436.92 553.89 990.09 427.66 1164.58 523.48 1004.96 571.91 923.15 613.42 1066.45 691.70
00002690 00000119 876.05 233.46 436.42 559.18 991.05 427.28 1165.99 524.05 1004.69 573.12 925.96 612.81 1068.41 691.92
00002691 00000120 876.34 235.87 435.71 558.79 991.73 428.67 1165.27 526.69 1003.11 575.85 925.89 612.91 1068.25 693.01
00002692 00000121 877.35 239.94 436.22 556.23 992.38 428.96 1164.82 526.73 1001.94 577.55 926.43 614.15 1068.29 693.93
00002693 00000122 876.88 239.90 437.32 556.25 991.62 428.64 1164.35 528.15 1000.35 579.82 925.71 612.83 1069.27 694.03
00002694 00000123 877.08 239.39 436.39 558.03 990.73 428.34 1162.61 530.73 996.67 582.75 925.53 609.98 1072.81 693.37
00002695 00000124 871.12 232.95 440.28 562.35 988.39 424.85 1160.67 535.89 995.01 586.23 922.98 599.89 1078.07 690.33
00002696 00000125 870.25 238.69 436.67 555.34 985.75 425.27 1159.56 541.63 991.75 592.68 921.01 593.91 1084.29 688.91
00002697 00000126 867.53 240.07 439.72 553.29 983.24 422.06 1160.46 547.88 987.41 597.80 919.26 585.86 1091.54 688.83
00002698 00000127 865.88 245.55 438.64 545.63 982.27 420.67 1161.35 551.62 986.77 600.81 915.44 581.56 1092.69 688.77
00002699 00000128 863.29 239.63 442.35 552.01 980.15 419.65 1160.08 553.38 984.53 600.50 913.36 578.72 1093.79 688.15
00002700 00000129 861.32 242.49 446.91 548.70 979.27 418.43 1160.14 555.69 982.07 602.16 910.64 575.45 1094.62 687.65
00002701 00000130 860.06 237.19 446.84 552.71 976.64 417.54 1157.85 555.11 980.75 601.91 908.60 573.57 1093.47 685.88
00002702 00000131 859.63 233.24 446.66 556.87 974.98 416.34 1156.23 553.77 979.78 602.66 906.99 573.91 1092.44 686.26
00002703 00000132 852.23 236.23 446.66 557.71 970.41 416.78 1152.62 539.66 973.45 596.74 899.34 580.82 1087.93 681.63
00002704 00000133 852.34 233.37 442.91 560.41 968.07 415.87 1148.46 537.41 970.53 594.35 896.17 580.77 1083.35 680.37
00002705 00000134 849.11 243.22 440.00 548.95 966.16 416.07 1143.93 538.70 968.40 593.20 891.27 576.70 1078.41 677.51
00002706 00000135 845.08 242.68 438.64 548.75 960.88 417.97 1139.95 539.19 964.62 594.28 887.49 577.55 1075.80 676.96
00002707 00000136 843.25 245.48 437.79 546.78 959.57 417.62 1137.64 539.46 963.05 594.70 886.96 576.31 1075.56 676.34
00002708 00000137 843.34 245.69 437.93 547.64 959.30 418.87 1137.65 538.96 963.17 594.58 887.09 578.32 1075.09 677.04
00002709 00000138 842.94 247.21 437.49 545.70 958.34 420.17 1135.49 540.42 961.24 594.00 886.86 577.12 1074.65 676.00
00002710 00000139 849.28 245.56 431.71 542.35 957.74 412.87 1131.99 537.67 962.95 589.24 887.77 574.12 1072.78 675.41
00002711 00000140 840.94 245.89 439.94 550.09 954.35 422.48 1133.20 539.79 957.58 595.43 886.63 581.64 1074.69 677.97
00002712 00000141 838.41 248.56 441.42 549.36 952.51 422.51 1132.69 540.68 955.23 595.76 885.44 582.80 1073.71 679.93
00002713 00000142 836.34 256.93 442.21 542.47 951.40 423.18 1129.54 541.78 952.87 595.36 884.25 583.00 1071.00 680.57
00002714 00000143 833.81 247.07 443.71 549.73 946.51 422.45 1125.72 542.42 948.74 596.68 881.03 582.47 1067.53 680.88
00002715 00000144 832.25 245.96 444.81 552.10 944.26 421.08 1124.17 541.12 945.56 595.11 880.20 582.61 1066.38 680.95
00002716 00000145 829.31 238.79 445.05 558.22 940.16 419.02 1122.06 539.56 944.76 596.48 877.25 582.62 1065.41 681.47
00002717 00000146 828.17 241.63 445.63 558.12 936.01 421.23 1119.20 537.48 943.41 597.14 876.58 587.21 1065.24 682.41
00002718 00000147 828.65 240.30 444.94 559.10 934.47 421.76 1117.23 535.94 941.81 596.56 876.89 588.57 1064.09 681.90
00002719 00000148 829.59 250.29 444.25 550.71 934.27 421.13 1117.78 533.13 941.65 595.34 877.46 590.84 1064.99 682.22
00002720 00000149 832.07 249.39 445.86 552.50 935.84 421.40 1118.93 532.29 941.68 594.85 879.61 591.70 1066.47 681.99
00002721 00000150 836.56 250.02 440.64 553.68 937.86 421.17 1120.43 530.78 943.24 596.25 881.65 592.34 1069.80 681.71
00002722 00000151 853.00 261.70 426.69 533.96 944.75 417.77 1120.20 531.13 948.64 591.19 888.82 587.89 1073.86 679.71
00002723 00000152 855.08 253.75 429.36 542.80 948.22 419.02 1124.15 531.98 952.65 591.90 891.73 586.73 1077.50 678.19
00002724 00000153 858.12 244.22 428.69 550.05 953.12 422.16 1128.85 532.94 958.29 593.67 896.97 588.09 1079.53 677.11
00002725 00000154 858.18 252.98 433.21 541.83 956.36 425.02 1131.74 532.60 960.51 592.55 901.10 590.88 1081.59 677.44
00002726 00000155 860.34 245.32 433.10 551.34 958.65 426.67 1136.06 534.13 964.54 593.91 902.16 591.08 1085.89 677.48
00002727 00000156 862.11 249.47 431.73 547.80 961.03 428.97 1137.10 534.91 966.57 595.13 904.23 592.45 1087.02 677.77
00002728 00000157 862.37 248.00 432.57 549.31 962.31 428.59 1139.42 535.19 968.84 595.86 905.10 592.81 1088.39 678.74
00002729 00000158 860.74 249.16 433.86 549.83 961.63 431.49 1140.61 537.14 970.20 598.56 905.07 595.98 1090.01 681.13
00002730 00000159 860.33 254.54 433.77 544.91 960.65 435.33 1139.74 537.68 971.28 600.84 906.40 600.01 1090.33 682.69
00002731 00000160 858.95 260.17 434.35 541.26 959.72 437.89 1138.79 537.32 970.79 603.67 906.37 602.59 1091.09 683.21
00002732 00000161 859.31 260.39 433.27 542.93 958.56 439.79 1138.49 536.49 970.35 603.43 906.67 606.34 1091.12 684.68
00002733 00000162 858.35 259.24 432.73 546.97 956.70 441.80 1137.21 535.71 969.87 604.22 906.17 609.04 1091.52 684.99
00002734 00000163 858.52 259.00 429.18 548.99 953.91 445.83 1134.56 533.21 970.68 603.47 906.46 613.91 1091.66 684.48
00002735 00000164 857.33 266.78 428.38 543.49 952.82 447.62 1132.31 532.79 969.81 603.54 907.09 616.11 1090.98 685.08
00002736 00000165 859.58 263.20 426.30 546.65 953.24 448.79 1134.57 531.91 971.26 603.49 908.52 617.51 1093.70 684.79
