Video ID: 	DTPMvAG-ZYo
H: 	1080
W: 	1920
FPS: 	25.0

FRAME INDEX X0 Y0 W H [Landmarks (5 Points)]

00003827 00000000 827.03 84.47 419.35 617.93 948.39 316.75 1156.50 324.78 1070.85 421.13 949.45 524.21 1152.45 530.91
00003828 00000001 833.29 86.29 419.24 617.49 955.26 317.06 1162.44 328.17 1077.03 425.74 954.21 523.76 1159.31 532.51
00003829 00000002 838.62 83.43 419.97 621.51 961.81 317.29 1166.90 331.20 1079.36 429.86 956.25 522.04 1161.57 533.15
00003830 00000003 841.87 84.87 419.38 619.48 965.41 316.88 1169.76 335.07 1079.92 431.17 955.29 519.31 1161.49 533.87
00003831 00000004 841.49 85.22 420.13 619.90 966.67 317.94 1171.35 337.37 1080.89 431.54 956.00 519.70 1162.40 535.19
00003832 00000005 841.00 87.40 420.76 621.33 966.60 320.06 1171.66 339.34 1080.86 434.75 955.02 522.97 1161.47 538.40
00003833 00000006 840.21 91.24 420.18 620.79 963.33 321.76 1169.90 341.15 1075.65 437.17 951.08 525.98 1159.14 541.48
00003834 00000007 838.47 96.44 419.92 619.51 960.69 323.98 1168.55 342.39 1073.05 439.63 948.18 529.16 1156.95 544.01
00003835 00000008 837.29 99.17 417.80 619.83 959.60 325.92 1165.81 343.87 1071.25 443.17 946.21 531.51 1152.54 546.29
00003836 00000009 836.02 99.33 415.43 623.66 956.71 327.14 1162.15 343.78 1069.19 443.83 946.94 537.26 1147.97 550.95
00003837 00000010 832.24 98.42 413.34 627.86 951.67 329.58 1157.42 344.18 1065.41 444.14 945.53 542.49 1142.70 554.33
00003838 00000011 826.90 98.56 416.07 628.41 946.47 331.32 1153.48 345.45 1059.52 444.28 943.51 546.72 1136.30 558.21
00003839 00000012 821.31 103.12 419.45 625.47 941.55 332.44 1149.42 347.48 1053.77 446.61 939.94 548.38 1130.89 560.67
00003840 00000013 825.53 118.70 411.67 613.30 942.44 330.21 1145.05 350.05 1046.37 451.05 934.82 547.94 1113.38 563.74
00003841 00000014 818.53 106.69 413.73 620.96 933.06 331.37 1139.21 348.39 1036.72 451.96 927.48 550.19 1113.35 564.46
00003842 00000015 809.30 113.75 420.85 607.81 923.95 334.23 1130.67 346.83 1029.47 453.34 922.92 551.53 1105.96 561.44
00003843 00000016 796.07 109.93 427.71 611.09 911.01 336.52 1121.48 349.88 1018.11 452.63 911.57 548.92 1098.83 559.31
00003844 00000017 782.85 102.14 426.99 615.04 898.54 336.71 1110.38 353.41 1001.30 446.95 896.44 542.23 1095.55 555.97
00003845 DELETE   773.36 102.82 430.55 611.73 887.21 334.08 1099.19 352.25 987.03 444.29 884.51 536.80 1087.46 551.09
00003846 00000019 766.70 103.54 425.58 610.12 875.43 331.26 1086.00 349.37 975.42 443.00 875.77 537.09 1074.55 551.09
00003847 DELETE   760.59 105.59 421.46 600.08 864.96 329.29 1074.17 345.46 961.24 436.62 868.87 536.88 1058.77 549.08
00003848 00000021 759.20 100.59 417.44 599.35 857.47 329.61 1066.99 340.73 952.08 431.56 863.28 538.10 1051.58 546.30
00003849 00000022 756.91 101.74 416.72 595.87 852.82 328.33 1060.04 333.23 946.90 423.94 863.37 538.86 1046.71 542.27
00003850 00000023 757.29 97.09 416.28 600.18 851.11 327.62 1059.94 329.60 946.52 419.00 863.43 538.44 1050.07 539.12
00003851 00000024 757.53 94.68 417.07 602.36 852.53 325.30 1060.82 328.20 948.13 417.87 864.16 537.14 1050.85 538.47
00003852 00000025 760.87 90.41 418.58 604.34 858.07 321.44 1066.06 328.48 952.55 416.44 865.75 533.58 1053.27 538.16
00003853 00000026 764.96 90.94 420.10 603.01 864.94 317.30 1072.25 328.30 957.46 414.50 870.40 530.73 1057.97 538.45
00003854 00000027 768.83 91.30 422.46 604.57 873.37 314.29 1081.48 333.37 964.80 410.57 872.24 525.27 1062.49 539.55
00003855 00000028 770.00 90.58 429.49 606.92 880.22 314.55 1088.70 337.97 971.39 411.05 875.37 524.90 1066.72 542.65
00003856 00000029 773.66 90.95 430.51 607.04 886.89 315.21 1095.33 343.95 977.95 417.74 877.88 523.89 1071.56 546.05
00003857 00000030 775.33 94.60 432.93 608.04 892.13 318.00 1100.30 349.39 980.73 421.92 880.75 526.43 1072.63 551.08
00003858 00000031 778.96 98.71 430.56 608.07 896.47 320.60 1102.69 353.45 980.08 427.81 884.00 529.17 1071.55 555.26
00003859 00000032 780.25 102.03 430.15 609.21 897.77 323.95 1103.59 356.53 981.80 431.36 887.04 535.55 1069.03 561.72
00003860 00000033 781.47 106.46 427.07 612.20 898.34 327.56 1102.21 358.79 983.15 435.66 887.12 541.01 1066.34 566.47
00003861 00000034 782.47 108.19 424.91 609.90 897.73 331.39 1103.06 361.76 983.74 442.15 888.39 545.65 1067.36 570.58
00003862 00000035 786.48 108.53 422.40 605.82 899.60 332.57 1105.61 362.78 984.40 443.01 891.36 546.92 1069.38 571.88
00003863 00000036 791.59 104.79 422.74 606.09 905.41 329.66 1109.49 361.35 989.05 441.03 896.50 544.63 1071.20 571.01
00003864 00000037 798.21 107.23 422.38 597.79 913.99 327.18 1117.69 362.33 997.23 438.27 901.71 540.67 1074.23 570.32
00003865 00000038 802.65 105.46 422.93 590.90 919.80 326.10 1123.12 363.87 1002.55 434.90 907.39 537.36 1076.74 569.03
00003866 00000039 810.88 110.73 430.03 584.68 934.23 335.61 1136.75 379.97 1015.43 433.17 908.53 530.28 1081.24 566.50
00003867 DELETE   815.60 118.35 429.06 576.93 941.74 333.18 1143.32 378.59 1020.80 435.83 912.90 531.50 1084.42 569.25
00003868 00000041 819.50 121.17 427.50 575.62 949.16 330.82 1151.49 380.96 1030.30 440.18 917.41 531.82 1088.61 573.78
00003869 00000042 824.69 119.20 427.70 583.26 956.95 331.55 1160.11 385.00 1037.65 443.83 922.98 536.87 1091.67 581.91
00003870 00000043 827.40 124.02 429.92 586.78 962.19 334.38 1167.40 387.83 1044.49 449.45 927.33 542.63 1097.71 588.13
00003871 00000044 830.89 124.38 433.54 589.60 965.46 340.24 1171.68 392.18 1048.23 453.77 931.18 549.22 1100.44 593.87
00003872 00000045 830.78 124.67 436.40 594.72 968.24 347.39 1173.86 399.00 1052.06 463.56 935.50 555.47 1104.68 599.75
00003873 00000046 833.17 128.96 435.30 594.76 972.27 351.54 1174.86 404.37 1054.88 474.68 939.59 559.94 1106.73 605.21
00003874 00000047 834.49 132.05 436.46 599.31 971.83 353.53 1176.87 407.40 1055.11 479.67 937.53 564.59 1108.60 610.48
00003875 00000048 838.52 133.33 430.74 607.41 970.83 354.42 1174.07 407.32 1057.73 470.27 938.73 565.70 1115.27 608.74
00003876 00000049 835.33 136.21 427.85 603.65 963.14 349.39 1169.25 400.64 1051.77 467.17 929.09 560.77 1114.69 602.80
00003877 DELETE   828.20 119.78 430.41 610.16 952.55 339.37 1162.63 386.33 1039.25 460.18 918.77 547.07 1108.21 586.25
00003878 DELETE   819.31 118.88 429.70 597.65 943.68 326.64 1153.57 372.72 1027.40 448.07 910.91 532.06 1106.64 569.89
00003879 00000052 813.74 109.54 431.98 593.23 936.29 316.91 1147.78 360.82 1019.15 434.98 905.14 521.65 1104.12 556.71
00003880 00000053 806.20 92.52 437.21 606.79 932.80 306.85 1139.98 350.80 1016.53 422.89 903.25 512.33 1094.14 548.47
00003881 00000054 801.75 85.56 438.98 604.38 927.79 300.14 1135.41 342.77 1013.62 414.75 899.26 502.46 1089.53 538.14
00003882 00000055 800.48 80.14 435.42 601.29 925.73 296.33 1131.16 337.46 1008.93 407.40 897.57 496.24 1086.16 530.90
00003883 00000056 794.90 68.38 432.54 603.00 916.36 294.72 1117.53 335.26 993.50 401.81 894.64 494.80 1081.25 527.63
00003884 00000057 790.82 69.65 429.76 607.36 908.92 299.05 1108.90 334.40 988.20 404.35 891.44 500.05 1079.51 528.25
00003885 00000058 788.37 72.58 427.02 609.77 898.15 303.55 1101.34 331.85 979.25 407.69 885.85 509.34 1077.21 531.55
00003886 00000059 783.14 77.76 427.50 614.22 891.82 308.06 1095.22 334.94 973.89 412.06 879.70 514.14 1073.02 534.93
00003887 00000060 778.81 81.92 427.75 613.73 886.43 313.36 1089.57 336.60 970.92 416.08 878.29 519.96 1068.90 537.48
00003888 00000061 773.46 85.87 429.30 611.21 883.44 317.55 1087.09 341.72 970.77 419.91 876.69 523.78 1065.25 541.97
00003889 00000062 771.75 86.05 428.19 611.18 881.49 318.90 1084.87 343.50 968.64 421.67 874.80 525.06 1062.10 543.59
00003890 00000063 770.94 87.48 427.62 613.52 879.74 320.10 1082.62 342.62 967.22 422.55 874.31 527.79 1060.97 544.59
00003891 00000064 769.57 86.67 428.92 620.77 877.24 320.88 1082.85 340.43 966.76 423.33 873.11 530.22 1065.49 544.56
00003892 00000065 768.48 89.82 429.64 618.92 874.80 320.74 1081.70 339.63 965.45 425.61 870.86 530.19 1067.47 544.13
00003893 00000066 768.95 90.97 426.35 616.13 872.07 322.07 1079.06 340.67 962.15 428.61 869.08 530.26 1066.20 543.95
00003894 00000067 767.15 91.71 426.20 613.58 869.61 322.97 1076.79 341.14 959.96 429.40 868.94 531.39 1064.04 544.60
00003895 00000068 765.25 93.06 425.10 609.65 866.44 324.96 1073.74 341.86 957.64 430.25 867.70 531.30 1062.55 543.32
00003896 00000069 763.12 95.91 423.32 604.57 862.02 327.02 1070.11 342.59 951.79 431.13 863.34 531.04 1059.77 542.06
00003897 00000070 761.63 96.19 421.05 604.00 859.41 328.68 1067.37 345.35 946.48 432.73 858.77 531.51 1054.98 543.53
00003898 00000071 760.97 98.31 420.13 602.64 857.65 328.81 1066.06 347.78 941.84 433.16 854.49 531.25 1050.58 545.29
00003899 00000072 760.50 96.44 419.33 605.36 858.37 327.36 1065.41 349.13 940.63 432.64 852.58 530.26 1046.96 546.57
00003900 00000073 760.46 97.87 418.46 602.79 858.85 326.75 1063.75 349.60 939.53 432.75 851.88 528.97 1044.27 546.30
00003901 00000074 759.37 100.99 417.78 595.46 859.18 326.90 1062.51 352.10 938.64 435.51 850.93 527.45 1038.52 546.92
00003902 00000075 757.53 103.12 419.51 594.58 857.49 329.03 1061.72 353.44 936.50 439.27 850.68 529.45 1037.87 548.35
00003903 00000076 759.06 102.49 419.94 598.08 855.87 333.16 1062.93 354.02 936.52 444.00 851.51 532.52 1043.84 548.25
00003904 00000077 760.62 102.29 423.04 603.45 859.14 334.07 1068.91 357.44 941.08 447.73 853.02 531.68 1051.31 549.44
00003905 00000078 761.65 102.92 427.29 604.61 863.71 334.39 1071.55 359.76 945.64 450.58 856.34 530.57 1055.75 550.20
00003906 00000079 764.04 109.35 428.26 601.72 869.03 332.37 1075.79 361.35 951.74 454.70 856.62 528.93 1060.26 552.24
00003907 00000080 767.05 111.27 428.05 601.37 874.32 332.38 1080.14 364.55 955.33 455.86 859.55 528.01 1064.03 554.05
00003908 00000081 768.23 112.62 429.61 604.25 876.05 332.53 1084.64 365.50 958.91 458.73 860.26 530.40 1068.04 557.29
00003909 00000082 768.46 112.23 431.99 607.31 876.25 334.93 1085.63 366.79 960.31 461.37 860.94 533.04 1069.77 559.00
00003910 00000083 768.14 112.64 431.71 608.04 875.38 336.32 1086.04 367.84 960.36 463.61 860.69 534.98 1070.06 560.67
00003911 00000084 768.64 113.34 431.95 609.95 875.42 338.35 1086.94 368.69 961.67 465.67 861.19 536.96 1072.43 561.68
00003912 00000085 769.99 114.06 432.05 611.11 876.43 340.89 1088.26 369.20 964.26 467.65 863.63 539.06 1075.58 562.03
00003913 00000086 772.16 116.30 431.14 612.36 878.73 342.92 1091.07 369.89 968.07 470.13 865.94 541.59 1079.12 563.46
00003914 00000087 774.76 119.51 431.14 610.33 882.16 344.46 1094.92 372.11 971.09 472.16 868.99 543.29 1082.53 565.58
00003915 00000088 775.80 121.48 431.93 610.72 884.37 345.16 1098.27 374.56 973.30 474.76 869.83 544.33 1084.54 567.97
00003916 00000089 776.06 124.75 433.72 610.73 885.75 346.87 1099.57 377.02 974.24 477.32 870.51 545.89 1084.97 570.04
00003917 00000090 775.63 124.24 433.73 613.10 885.48 347.98 1098.96 378.30 973.55 477.70 870.15 547.30 1084.45 571.51
00003918 00000091 775.30 126.45 433.35 612.85 885.37 349.41 1098.70 378.95 974.18 478.19 870.02 547.86 1085.25 571.38
00003919 00000092 774.44 127.67 434.33 613.10 884.67 349.87 1098.77 378.94 973.83 478.23 869.60 548.38 1085.51 571.48
00003920 00000093 777.66 138.37 430.07 602.24 885.51 360.07 1090.95 383.35 973.07 481.37 871.52 550.72 1084.86 568.95
00003921 00000094 776.72 139.44 429.70 602.94 883.40 360.52 1088.70 382.82 970.97 482.33 869.97 551.70 1083.78 569.13
00003922 00000095 776.28 138.66 428.71 602.69 882.02 360.06 1088.19 382.48 969.84 481.55 868.32 551.51 1082.94 568.99
00003923 00000096 776.09 138.85 428.06 602.39 882.22 359.79 1087.36 382.43 969.76 480.87 868.12 550.50 1082.45 568.11
00003924 00000097 768.95 127.12 435.67 614.31 877.14 351.81 1091.70 378.45 966.87 479.09 863.23 549.38 1081.13 570.40
00003925 00000098 767.52 127.40 436.12 614.16 875.27 352.90 1089.27 378.70 964.39 479.89 862.09 550.49 1078.91 570.81
00003926 00000099 766.07 130.40 437.04 611.37 873.83 353.82 1085.99 380.33 960.38 479.28 859.49 550.34 1074.70 571.24
00003927 00000100 764.58 128.06 435.31 612.72 870.93 355.47 1082.02 380.13 957.18 480.08 856.86 551.12 1070.08 570.48
00003928 00000101 760.97 128.74 437.56 611.27 866.68 357.97 1079.17 379.74 953.76 480.99 854.42 553.01 1067.67 570.13
00003929 00000102 758.75 131.26 437.27 608.10 863.78 357.28 1075.77 379.59 950.48 481.88 852.00 553.03 1063.36 570.87
00003930 00000103 756.27 131.32 435.08 607.45 858.90 358.12 1069.95 379.86 944.81 483.05 847.80 552.95 1057.81 570.60
00003931 00000104 753.33 133.33 432.29 604.43 855.78 358.42 1064.11 379.41 940.76 483.06 846.58 552.86 1052.76 569.96
00003932 00000105 748.63 131.15 431.64 606.30 851.48 358.62 1058.58 378.48 937.49 483.29 843.62 553.20 1048.66 569.29
00003933 00000106 744.84 128.79 430.34 604.70 847.89 356.87 1056.54 376.41 935.43 482.20 841.52 551.38 1047.37 567.07
00003934 00000107 741.91 125.93 429.30 604.04 844.05 357.07 1053.30 374.97 932.18 480.65 839.37 549.85 1046.29 563.95
00003935 00000108 742.24 122.97 429.37 605.03 842.52 356.76 1050.93 373.20 929.72 479.24 839.11 549.36 1044.96 561.99
00003936 00000109 743.06 122.34 428.00 602.88 841.06 356.04 1051.01 372.48 928.65 477.51 838.47 549.01 1044.30 561.47
00003937 00000110 743.21 122.96 428.58 602.79 841.14 356.09 1051.37 372.32 928.69 477.89 838.25 548.82 1045.10 561.16
00003938 00000111 743.83 122.83 428.36 603.35 843.73 355.40 1052.13 372.94 930.41 478.93 840.11 548.44 1045.14 561.97
00003939 00000112 744.77 123.55 429.36 603.95 845.55 356.02 1054.47 375.24 932.24 479.85 840.37 548.66 1046.36 563.69
00003940 00000113 745.70 124.35 429.45 604.10 847.05 355.84 1056.89 375.72 934.31 480.25 841.17 549.71 1047.17 565.43
00003941 00000114 746.63 125.52 428.82 603.59 848.49 354.63 1058.54 375.95 935.85 480.33 840.63 549.62 1046.48 566.69
00003942 00000115 746.82 126.59 430.08 602.84 850.40 354.01 1059.73 376.26 937.82 479.88 841.57 549.78 1046.25 567.72
00003943 00000116 747.10 126.24 429.99 603.41 852.31 351.58 1060.22 376.26 938.22 478.39 841.12 548.76 1043.34 568.71
00003944 00000117 747.05 125.68 429.22 605.00 854.31 351.00 1060.87 377.75 939.27 476.59 841.72 551.39 1037.49 573.23
00003945 00000118 745.93 128.90 430.14 605.34 855.30 352.49 1060.41 378.90 940.44 476.98 842.35 555.84 1032.73 577.88
00003946 00000119 745.36 130.98 430.22 605.20 854.75 356.78 1060.49 382.17 940.88 480.20 842.25 559.94 1030.90 581.47
00003947 00000120 744.83 133.09 430.88 603.35 853.66 359.85 1059.26 383.70 939.24 483.37 843.67 562.66 1030.38 583.14
00003948 00000121 743.31 131.89 432.12 606.02 852.27 362.25 1058.80 385.04 939.36 485.02 843.32 565.04 1030.07 584.70
00003949 00000122 742.09 131.78 432.56 606.60 850.53 365.26 1058.57 387.19 938.54 487.70 842.21 566.98 1030.38 585.92
00003950 00000123 739.10 132.81 435.12 605.26 848.16 368.88 1055.18 390.50 935.69 489.95 840.66 568.98 1027.45 587.63
00003951 00000124 736.01 139.56 435.10 596.08 845.16 379.46 1054.47 402.69 930.06 493.27 834.69 568.70 1026.19 588.34
00003952 00000125 734.74 142.80 429.62 591.31 842.27 383.91 1049.03 407.04 925.06 493.35 833.69 569.03 1022.85 588.43
00003953 00000126 726.22 137.83 433.14 599.31 833.22 379.19 1042.89 403.07 917.03 493.18 827.13 571.37 1014.74 591.26
00003954 00000127 714.68 131.68 435.08 603.73 823.20 368.12 1027.23 392.99 906.21 496.20 819.18 572.14 1004.05 591.12
00003955 00000128 711.43 131.30 429.63 603.79 817.08 365.43 1020.42 392.48 898.89 495.84 813.54 572.01 996.06 592.76
00003956 00000129 708.25 133.86 428.46 600.02 810.74 363.66 1013.89 391.87 891.64 494.62 806.14 570.32 990.42 592.26
00003957 00000130 707.20 135.53 427.19 600.64 807.34 363.64 1010.78 392.49 886.57 492.97 801.14 571.35 986.36 593.89
00003958 00000131 706.56 137.30 426.20 599.92 805.30 364.03 1008.75 392.07 883.97 493.13 799.13 571.63 984.54 593.58
00003959 00000132 705.75 138.53 426.85 599.06 804.53 364.36 1007.59 392.05 883.03 492.92 798.04 570.81 984.85 592.48
00003960 00000133 705.20 136.95 426.95 601.01 803.12 365.16 1006.56 392.09 881.52 492.47 797.84 571.21 984.90 592.16
00003961 00000134 705.91 138.51 424.72 599.07 802.71 367.26 1005.26 393.62 880.52 493.31 797.30 571.75 984.59 592.28
00003962 00000135 704.96 139.94 425.17 598.12 801.31 367.24 1004.66 394.12 878.77 493.61 796.08 571.95 984.18 592.89
00003963 00000136 704.43 140.40 425.04 596.79 800.54 367.66 1003.62 394.46 877.81 492.93 795.43 571.87 983.59 592.77
00003964 00000137 697.95 130.96 433.61 607.19 798.53 368.49 1008.44 398.90 874.84 497.53 787.90 568.16 981.85 592.66
00003965 00000138 699.93 135.62 429.36 599.31 798.48 384.20 1002.88 410.82 869.05 498.96 787.99 568.45 980.77 589.71
00003966 DELETE   698.41 136.19 430.52 599.74 793.63 378.47 999.76 404.81 864.57 498.02 783.79 568.27 978.16 589.48
00003967 00000140 694.42 131.06 431.84 605.63 790.08 367.42 996.11 395.86 863.36 496.55 781.47 567.14 973.63 590.03
00003968 00000141 693.83 125.16 428.79 611.45 787.04 366.95 990.37 390.73 862.00 493.63 781.68 567.60 970.26 586.77
00003969 00000142 694.75 125.63 427.33 610.99 785.63 367.20 987.65 389.64 858.84 494.49 781.84 567.74 969.39 585.82
00003970 00000143 695.34 122.96 427.03 613.80 783.84 369.04 985.67 388.95 856.87 494.76 783.00 569.29 969.72 585.20
00003971 00000144 696.11 122.50 424.18 613.60 783.33 369.34 985.20 387.13 858.20 494.59 784.18 569.72 970.70 583.83
00003972 00000145 695.61 118.10 424.31 617.68 782.98 367.86 985.31 384.75 858.33 493.26 785.33 569.19 972.15 582.49
00003973 00000146 695.28 117.39 424.08 616.96 783.59 365.22 984.39 381.81 858.69 489.75 786.22 565.97 972.60 578.97
00003974 00000147 695.51 117.50 424.45 615.98 783.33 363.55 985.19 379.82 858.47 487.78 786.10 564.71 973.02 577.49
00003975 00000148 695.73 118.96 423.59 613.17 783.65 361.37 984.56 377.79 858.59 484.98 786.31 562.96 971.87 575.87
00003976 00000149 695.93 118.60 422.89 612.03 784.03 360.12 984.40 376.35 859.29 483.13 786.95 561.44 972.51 574.22
00003977 00000150 696.28 118.54 422.57 611.19 784.30 359.38 985.17 375.19 860.10 482.12 787.62 560.81 973.20 573.21
00003978 00000151 696.34 118.87 423.47 610.75 785.34 359.26 986.21 375.24 861.66 481.65 788.16 560.38 974.32 572.87
00003979 00000152 696.53 120.17 424.76 610.49 786.44 359.43 988.00 375.10 863.42 481.49 789.04 560.90 975.85 573.14
00003980 00000153 696.82 118.42 426.30 612.40 787.90 359.05 990.20 375.85 865.17 481.85 789.90 561.05 976.91 574.26
00003981 00000154 698.30 119.22 425.15 611.48 790.14 359.54 993.56 377.66 867.51 482.18 790.59 561.87 978.95 576.22
00003982 00000155 700.38 118.56 427.59 615.10 793.65 364.98 1000.46 381.63 873.04 486.04 792.69 565.44 985.98 578.48
00003983 00000156 705.72 131.51 426.60 602.50 801.55 372.56 1004.92 388.97 885.02 487.53 800.79 569.46 997.18 581.59
00003984 00000157 707.47 132.13 426.29 601.62 805.26 372.88 1007.64 389.45 889.58 489.29 804.86 569.01 1000.58 581.30
00003985 00000158 709.04 131.17 426.12 602.97 807.96 373.54 1010.73 390.36 892.46 490.50 808.01 569.51 1002.92 582.06
00003986 00000159 707.65 124.22 426.96 614.10 806.83 373.37 1015.58 387.89 891.55 495.02 808.03 570.44 1003.67 581.77
00003987 00000160 708.60 124.80 426.44 614.33 808.53 375.00 1017.26 389.87 893.82 496.93 809.68 571.86 1004.97 583.33
00003988 00000161 708.87 126.08 426.49 614.32 809.50 376.17 1017.86 390.94 895.16 497.77 810.33 572.43 1005.76 583.74
00003989 00000162 709.70 126.04 425.97 615.41 809.89 375.82 1018.84 390.91 895.81 498.07 810.78 572.70 1007.07 584.19
00003990 00000163 711.74 124.88 424.97 618.37 812.02 375.49 1020.33 390.45 897.31 496.91 812.44 572.62 1009.13 583.95
00003991 00000164 713.74 126.57 423.35 617.81 814.26 374.93 1023.05 390.76 899.80 497.95 813.71 573.01 1011.43 584.98
00003992 00000165 715.44 125.65 423.31 620.33 816.00 374.64 1025.61 391.37 901.01 498.94 814.66 574.00 1012.56 586.72
00003993 00000166 717.07 126.89 423.10 619.40 818.27 375.72 1028.34 392.92 902.76 499.03 815.81 574.40 1013.69 587.58
00003994 00000167 719.43 126.78 422.64 619.30 820.08 375.08 1030.28 392.90 904.36 499.31 817.36 573.87 1015.49 587.55
00003995 00000168 720.17 129.37 425.17 616.27 822.03 374.93 1032.55 394.45 906.11 501.77 818.57 573.26 1017.15 588.30
