Video ID: 	8quZFn5AHAk
H: 	1080
W: 	1920
FPS: 	25.0

FRAME INDEX X0 Y0 W H [Landmarks (5 Points)]

00037030 00000000 983.12 184.95 344.63 518.27 1022.10 393.84 1162.46 377.81 1056.31 474.88 1051.33 583.35 1155.90 572.91
00037031 00000001 986.79 184.55 342.77 516.77 1024.47 391.26 1167.43 373.13 1061.29 471.25 1056.49 583.37 1162.91 571.04
00037032 00000002 989.57 185.05 342.63 513.32 1029.88 389.17 1171.49 370.27 1067.15 464.28 1062.42 578.63 1168.93 565.35
00037033 00000003 995.03 186.33 343.63 514.43 1035.99 384.37 1177.66 365.91 1071.22 457.61 1070.21 577.44 1178.02 564.12
00037034 00000004 1000.25 184.77 344.93 520.51 1045.23 380.18 1187.47 362.19 1080.34 454.40 1081.98 582.08 1185.10 568.51
00037035 DELETE   1008.62 182.64 348.58 519.20 1058.25 379.68 1199.89 361.69 1091.47 451.69 1090.49 577.47 1193.05 563.76
00037036 DELETE   1019.86 186.42 350.17 510.42 1071.28 377.47 1211.83 366.58 1112.67 453.55 1094.95 563.51 1204.58 556.80
00037037 DELETE   1026.94 187.77 354.68 505.36 1082.76 378.53 1225.00 364.89 1127.25 451.42 1105.37 559.72 1219.58 551.43
00037038 00000008 1032.92 183.60 357.72 508.89 1094.22 374.90 1239.36 361.96 1143.39 451.07 1115.52 560.27 1230.83 552.48
00037039 00000009 1038.63 180.31 361.05 511.60 1105.72 369.52 1254.23 353.46 1161.11 449.45 1129.94 562.49 1242.42 552.13
00037040 00000010 1043.57 174.28 362.67 522.75 1118.49 368.31 1270.88 352.41 1182.50 450.77 1145.44 566.24 1259.24 554.88
00037041 00000011 1050.48 175.33 361.79 528.54 1127.68 370.75 1282.76 354.29 1196.74 450.18 1158.20 571.09 1275.85 558.49
00037042 00000012 1058.21 178.47 359.54 525.70 1138.81 368.50 1292.39 352.33 1211.55 446.27 1170.02 568.42 1288.70 556.54
00037043 00000013 1061.41 175.28 360.48 521.27 1145.00 360.87 1301.48 358.54 1221.98 446.07 1174.79 553.62 1288.88 552.87
00037044 00000014 1069.18 177.43 358.73 511.96 1151.33 359.79 1311.11 356.08 1231.24 445.96 1180.23 550.25 1298.53 548.46
00037045 00000015 1078.38 177.75 355.74 510.41 1161.36 360.14 1320.56 356.19 1240.73 443.55 1187.70 549.31 1306.57 547.56
00037046 DELETE   1084.33 182.13 355.15 513.04 1171.20 360.82 1328.70 357.97 1248.78 444.22 1194.26 553.25 1312.56 552.75
00037047 DELETE   1087.05 186.38 358.60 513.06 1178.94 366.40 1336.46 365.63 1257.70 451.06 1199.62 556.99 1319.32 558.17
00037048 00000018 1092.48 184.02 356.83 518.10 1184.21 368.02 1340.55 365.79 1262.71 454.89 1203.24 559.12 1326.53 559.11
00037049 00000019 1095.31 184.22 358.88 520.22 1187.75 368.96 1346.02 364.81 1268.29 456.72 1206.63 558.69 1337.79 556.85
00037050 00000020 1098.50 184.23 358.90 522.79 1192.19 371.08 1351.28 367.05 1273.96 458.16 1208.66 558.92 1346.59 557.03
00037051 00000021 1100.35 188.56 359.20 517.61 1196.13 372.15 1354.41 368.62 1278.95 460.35 1212.97 560.52 1347.99 559.07
00037052 00000022 1102.52 186.55 358.37 516.75 1199.01 374.46 1356.86 369.50 1285.11 464.11 1218.85 564.85 1351.28 562.03
00037053 00000023 1105.09 182.86 354.96 517.16 1202.15 374.31 1362.05 371.23 1289.96 465.37 1221.20 565.63 1355.33 564.20
00037054 00000024 1107.08 183.09 355.14 517.03 1205.39 374.25 1367.26 370.14 1296.15 465.15 1227.48 568.72 1360.61 566.19
00037055 00000025 1108.90 184.50 359.64 521.52 1209.58 374.25 1371.36 369.16 1301.72 465.90 1234.82 571.74 1366.52 568.16
00037056 00000026 1110.70 187.44 363.19 526.00 1215.96 373.07 1374.94 369.11 1307.14 465.14 1239.51 571.44 1370.67 568.55
00037057 00000027 1114.12 187.77 363.20 524.83 1219.73 376.17 1378.22 371.77 1311.21 467.80 1242.66 571.35 1375.50 568.06
00037058 00000028 1116.82 191.02 362.61 521.41 1220.96 378.43 1380.90 373.50 1314.25 470.22 1244.78 572.52 1378.24 568.93
00037059 00000029 1117.45 191.23 363.86 523.34 1223.11 380.66 1382.52 375.79 1314.90 473.05 1247.58 575.01 1378.99 571.35
00037060 00000030 1117.74 192.78 363.93 522.26 1224.18 382.02 1382.84 377.34 1315.53 474.54 1248.36 575.68 1379.33 572.29
00037061 00000031 1117.92 190.94 363.36 524.17 1222.68 381.30 1381.59 376.57 1313.31 474.62 1247.35 575.44 1378.56 571.91
00037062 00000032 1115.63 190.51 363.65 521.41 1218.91 381.23 1377.04 374.99 1308.56 473.77 1244.37 573.91 1375.53 569.14
00037063 00000033 1113.10 188.92 362.90 521.48 1214.25 379.38 1372.52 373.00 1303.00 473.78 1240.48 573.72 1370.86 568.85
00037064 00000034 1109.89 189.41 362.67 520.53 1207.27 377.95 1365.45 372.34 1294.05 473.23 1233.92 572.86 1363.38 568.76
00037065 00000035 1107.88 190.03 360.30 519.97 1199.93 380.07 1354.65 373.43 1281.98 474.33 1225.97 571.66 1354.07 567.09
00037066 00000036 1101.38 185.34 360.36 525.07 1189.60 382.14 1343.37 375.58 1265.91 475.29 1214.79 571.43 1341.26 567.12
00037067 DELETE   1093.30 189.44 361.55 523.68 1178.52 382.28 1335.19 375.52 1250.63 473.43 1201.76 571.84 1328.55 568.00
00037068 DELETE   1081.64 189.87 365.09 522.89 1164.98 382.92 1322.50 382.52 1232.62 476.32 1188.75 573.36 1311.16 574.97
00037069 DELETE   1073.49 186.62 360.39 519.69 1150.22 385.64 1308.17 385.32 1216.53 476.80 1171.72 572.11 1295.37 573.79
00037070 00000040 1069.16 180.85 350.49 525.96 1137.38 382.23 1290.24 381.49 1189.01 475.28 1162.95 575.61 1279.13 575.59
00037071 00000041 1063.04 180.59 350.82 524.66 1124.93 381.06 1279.89 378.83 1176.74 476.19 1152.52 576.98 1272.40 576.34
00037072 00000042 1059.32 183.40 349.57 521.31 1115.81 381.22 1272.71 377.10 1167.70 475.87 1143.20 578.43 1264.39 576.42
00037073 00000043 1051.86 179.91 354.83 524.36 1105.43 381.83 1266.75 373.79 1159.24 477.18 1135.88 581.46 1259.87 576.37
00037074 00000044 1047.15 183.22 355.93 516.40 1099.08 381.81 1260.26 372.40 1153.23 479.87 1129.86 580.70 1254.31 574.80
00037075 00000045 1045.96 184.27 354.23 512.45 1093.43 384.31 1255.22 372.93 1147.89 482.58 1127.60 583.98 1250.44 576.57
00037076 00000046 1044.03 188.39 353.97 513.17 1089.51 386.72 1251.33 376.39 1143.39 489.00 1124.55 588.13 1246.80 581.79
00037077 00000047 1038.50 194.61 364.40 514.20 1098.35 396.17 1243.29 383.97 1144.74 489.28 1124.62 581.88 1246.89 573.18
00037078 00000048 1037.60 195.87 362.26 514.80 1096.69 398.07 1239.88 385.48 1142.79 488.99 1121.36 582.28 1243.97 573.59
00037079 00000049 1037.54 195.55 360.66 511.37 1096.47 395.71 1237.97 384.17 1140.53 484.10 1119.01 577.24 1240.58 569.45
00037080 00000050 1037.33 192.88 359.01 509.51 1094.20 392.85 1235.02 381.54 1137.61 480.31 1117.53 574.96 1236.41 567.28
00037081 00000051 1036.94 190.79 356.02 512.43 1092.51 389.90 1231.04 378.48 1133.98 476.82 1114.86 572.79 1231.84 565.27
00037082 00000052 1035.30 191.07 355.34 511.26 1089.94 389.50 1228.77 377.47 1130.20 474.35 1110.42 570.62 1228.57 562.63
00037083 00000053 1033.58 190.40 355.00 512.07 1086.75 388.67 1225.10 376.95 1124.34 473.95 1106.69 572.64 1222.93 565.06
00037084 00000054 1031.99 190.39 352.95 512.94 1084.80 388.25 1221.76 377.55 1121.14 474.11 1104.34 574.40 1217.60 567.86
00037085 00000055 1031.22 192.30 351.09 511.84 1080.16 388.78 1216.38 377.10 1116.77 473.92 1103.37 580.48 1210.45 573.44
00037086 00000056 1028.64 192.92 350.90 514.50 1077.72 390.61 1212.83 378.61 1113.95 475.11 1103.31 584.20 1206.61 576.87
00037087 00000057 1026.23 193.73 350.90 516.31 1074.52 393.17 1210.85 380.73 1111.13 478.72 1100.99 588.09 1204.62 580.15
00037088 00000058 1022.14 193.75 352.67 517.99 1071.41 393.55 1208.57 381.46 1108.47 481.30 1099.38 586.80 1206.06 578.97
00037089 00000059 1020.26 193.10 352.85 515.79 1070.33 390.62 1209.32 378.47 1109.25 478.03 1098.31 582.47 1207.33 574.45
00037090 00000060 1017.97 192.46 352.32 511.82 1067.59 387.34 1206.84 375.03 1106.50 474.71 1095.62 577.94 1204.45 569.67
00037091 00000061 1013.74 191.81 351.69 509.14 1063.83 384.12 1205.18 373.11 1104.78 472.21 1091.28 573.59 1201.34 566.07
00037092 00000062 1011.01 190.90 349.74 509.51 1062.46 382.87 1203.84 373.77 1105.41 472.80 1088.38 573.60 1197.41 567.48
00037093 00000063 1012.15 188.89 346.67 513.00 1062.90 386.17 1205.85 374.73 1097.91 476.23 1092.55 584.62 1199.89 576.48
00037094 00000064 1009.40 192.64 347.69 512.62 1060.33 390.87 1204.18 377.32 1098.39 478.81 1093.38 587.16 1203.12 576.90
00037095 00000065 1007.93 194.74 352.80 521.84 1063.80 391.30 1209.58 376.87 1104.48 477.59 1099.36 588.45 1212.60 576.53
00037096 00000066 1009.47 195.25 353.82 523.30 1062.92 389.93 1210.42 374.55 1104.26 480.31 1099.54 588.51 1220.24 575.35
00037097 00000067 1008.11 191.89 354.31 522.35 1061.17 388.76 1209.11 372.31 1102.78 477.52 1097.95 585.31 1219.29 571.60
00037098 00000068 1007.34 189.97 351.54 519.33 1060.84 386.52 1207.45 370.82 1103.02 472.90 1094.69 580.32 1216.03 567.75
00037099 00000069 1006.75 189.92 349.86 511.95 1057.13 386.38 1204.71 369.51 1101.17 472.78 1092.19 577.31 1215.14 563.97
00037100 00000070 1006.12 189.80 348.68 510.87 1055.97 385.76 1203.64 368.78 1100.79 471.05 1091.45 576.18 1213.59 562.77
00037101 00000071 1006.53 189.43 348.24 513.50 1057.17 384.71 1204.78 368.43 1102.14 470.43 1093.36 576.87 1213.54 563.92
00037102 00000072 1006.20 190.31 349.87 517.34 1058.57 385.16 1205.45 368.44 1102.72 469.84 1096.19 578.94 1215.26 565.34
00037103 00000073 1005.98 189.74 350.64 521.55 1059.36 386.19 1205.89 368.42 1104.05 469.57 1098.39 580.95 1216.84 566.35
00037104 00000074 1006.21 191.38 351.27 514.62 1058.58 387.63 1204.64 368.71 1104.01 471.38 1098.27 580.53 1216.61 565.15
00037105 00000075 1005.48 191.41 350.32 508.61 1057.36 387.30 1203.40 368.46 1103.89 470.44 1095.88 577.39 1214.96 562.16
00037106 00000076 1004.70 190.52 350.53 507.31 1056.40 387.36 1201.96 367.70 1103.74 469.75 1095.60 575.99 1214.08 560.03
00037107 00000077 1004.10 188.90 350.26 507.48 1056.77 388.52 1201.39 368.05 1103.76 469.86 1097.20 576.29 1213.32 559.66
00037108 00000078 1003.76 188.99 351.67 508.92 1056.87 390.45 1201.56 368.05 1103.92 471.97 1099.83 580.14 1213.19 562.01
00037109 00000079 1004.20 188.42 351.46 509.53 1057.68 390.52 1202.85 368.68 1104.39 474.60 1101.03 581.13 1213.79 563.39
00037110 00000080 1005.93 189.71 352.16 508.20 1059.35 389.96 1205.27 368.55 1105.52 474.08 1102.11 580.77 1215.29 563.38
00037111 00000081 1006.14 193.51 356.46 503.03 1062.92 389.44 1206.90 373.09 1115.13 472.02 1101.33 570.68 1214.51 558.63
00037112 00000082 1012.61 194.03 355.16 509.43 1067.88 387.74 1210.95 371.93 1116.31 470.11 1103.72 570.77 1221.36 559.36
00037113 00000083 1016.51 193.61 357.29 510.47 1072.00 388.21 1218.05 372.88 1121.10 469.40 1104.78 569.52 1228.60 558.43
00037114 00000084 1019.98 192.88 357.80 509.99 1076.79 387.05 1222.21 372.12 1125.68 467.53 1106.79 568.22 1228.79 557.67
00037115 00000085 1024.34 193.24 358.43 511.75 1084.97 392.64 1228.47 374.37 1133.48 464.82 1113.52 572.28 1232.47 559.19
00037116 00000086 1026.10 192.81 363.73 512.87 1094.91 388.96 1241.52 371.66 1150.36 460.94 1120.51 570.36 1238.35 558.33
00037117 DELETE   1033.63 190.29 363.77 513.26 1109.77 383.65 1255.37 363.46 1168.88 456.13 1135.53 568.77 1249.95 554.18
00037118 DELETE   1041.23 186.96 367.12 518.44 1125.18 378.10 1277.20 358.62 1195.34 452.42 1155.69 569.40 1274.38 554.18
00037119 DELETE   1052.68 188.86 362.91 521.05 1137.22 376.09 1289.66 354.00 1214.08 448.15 1172.35 568.53 1296.98 551.07
00037120 00000090 1061.68 190.13 357.53 520.58 1146.33 373.37 1301.62 350.90 1231.15 447.02 1183.84 568.39 1313.10 550.73
00037121 00000091 1061.95 186.91 357.28 521.78 1151.15 362.42 1309.60 356.43 1237.81 446.59 1185.17 557.49 1316.15 553.30
00037122 00000092 1065.46 190.59 358.34 520.87 1156.05 365.97 1314.06 361.75 1243.76 451.71 1187.62 559.49 1320.42 556.72
00037123 00000093 1067.19 193.85 360.69 517.69 1160.29 370.80 1318.47 368.18 1247.48 457.70 1187.90 561.45 1323.24 560.20
00037124 00000094 1067.45 196.64 363.24 513.21 1160.31 376.37 1319.19 372.06 1247.67 463.11 1188.76 563.52 1326.04 560.70
00037125 00000095 1068.22 197.95 362.39 511.50 1160.88 378.93 1320.11 374.58 1247.53 467.01 1188.92 565.07 1325.43 562.27
00037126 00000096 1067.91 198.19 362.03 515.39 1161.47 379.30 1320.29 375.23 1247.95 470.13 1189.30 568.23 1323.57 565.75
00037127 00000097 1066.73 197.33 361.35 518.55 1160.88 380.87 1319.25 375.85 1247.75 473.64 1192.33 573.66 1320.35 570.44
00037128 00000098 1064.94 195.15 360.92 524.13 1159.01 380.90 1316.05 375.70 1245.43 475.98 1195.53 579.21 1314.55 575.74
00037129 00000099 1064.41 194.09 360.98 527.94 1157.84 381.63 1314.89 375.75 1244.59 477.23 1196.50 582.79 1313.22 578.74
00037130 00000100 1064.93 193.76 359.71 531.03 1158.44 381.95 1315.35 375.94 1245.80 479.09 1198.09 587.42 1312.84 583.22
00037131 00000101 1065.38 192.76 362.77 530.29 1159.07 383.08 1317.80 377.00 1246.72 478.44 1196.83 585.57 1317.57 581.23
00037132 00000102 1067.82 193.20 361.61 523.37 1160.26 382.77 1320.50 376.04 1249.14 477.17 1196.91 582.37 1321.70 577.46
00037133 00000103 1069.61 192.62 361.55 520.14 1160.49 381.96 1321.77 373.79 1249.95 473.96 1196.39 579.76 1324.73 573.64
00037134 00000104 1069.08 193.34 361.63 521.09 1161.39 378.71 1321.44 371.76 1250.89 470.83 1196.11 576.62 1322.57 571.59
00037135 00000105 1067.78 195.03 362.75 524.02 1160.61 378.87 1319.77 370.99 1249.53 469.75 1195.26 574.67 1325.87 568.75
00037136 00000106 1065.89 196.38 362.81 524.70 1159.13 378.86 1317.43 372.38 1245.66 471.36 1193.91 574.62 1321.95 570.01
00037137 00000107 1064.34 196.20 362.20 527.42 1156.21 381.02 1314.72 374.14 1242.58 475.02 1192.13 577.14 1320.79 572.09
00037138 00000108 1061.93 195.92 361.42 529.23 1154.91 383.48 1311.33 377.27 1240.31 478.60 1190.99 577.90 1319.46 573.37
00037139 00000109 1058.89 193.93 363.44 527.41 1151.21 384.58 1310.40 379.21 1236.52 478.21 1187.81 575.82 1318.62 571.95
00037140 00000110 1056.56 194.59 363.00 520.16 1147.79 384.93 1308.20 379.31 1232.85 479.23 1183.19 574.94 1313.60 571.13
00037141 00000111 1052.32 200.20 368.38 517.31 1144.89 390.55 1302.64 374.17 1232.06 479.05 1179.20 577.80 1314.61 564.30
00037142 00000112 1049.08 198.88 368.64 516.56 1141.33 389.95 1298.45 373.20 1228.54 475.25 1174.12 575.11 1311.76 561.45
00037143 00000113 1046.84 195.99 368.88 517.42 1136.85 389.45 1294.48 369.90 1224.01 472.06 1171.16 574.47 1310.27 558.65
00037144 00000114 1043.42 196.12 368.44 515.12 1134.08 387.44 1288.89 368.02 1219.26 468.14 1168.53 572.10 1305.07 556.50
00037145 00000115 1041.27 196.91 368.31 514.65 1129.80 386.51 1283.59 367.29 1212.09 466.75 1163.48 570.97 1299.32 555.76
00037146 00000116 1040.12 199.31 365.98 512.83 1123.45 393.92 1273.49 369.93 1201.87 472.94 1157.68 573.85 1292.78 555.12
00037147 00000117 1036.37 200.94 365.73 513.18 1115.94 399.13 1264.58 374.38 1190.85 478.56 1152.75 578.45 1285.42 558.77
00037148 00000118 1031.05 201.49 368.08 516.49 1108.18 402.49 1258.88 378.67 1180.65 483.41 1144.29 582.12 1278.63 562.91
00037149 00000119 1026.20 202.82 369.53 522.10 1100.29 406.41 1251.50 381.56 1170.46 487.30 1136.41 587.00 1271.81 567.17
00037150 00000120 1023.78 202.41 368.25 525.04 1092.99 408.43 1242.88 383.37 1158.85 491.30 1130.86 591.06 1262.72 571.32
00037151 00000121 1022.87 202.03 366.01 526.03 1090.00 406.74 1237.62 383.31 1151.68 491.97 1127.71 591.05 1258.00 572.38
00037152 00000122 1022.88 199.21 363.25 531.31 1088.63 402.22 1234.74 382.55 1146.55 489.93 1123.06 588.99 1254.04 573.26
00037153 00000123 1021.78 194.71 362.26 538.51 1085.93 401.80 1230.85 384.22 1140.14 489.90 1118.46 589.17 1249.41 575.20
00037154 00000124 1018.99 193.74 363.12 543.12 1082.81 402.77 1227.36 385.25 1134.76 493.69 1115.67 594.63 1242.25 580.75
00037155 00000125 1011.26 197.79 363.28 532.16 1075.58 410.82 1219.14 395.65 1128.51 501.38 1109.42 600.62 1227.84 589.24
00037156 00000126 1004.56 203.84 357.57 523.70 1067.17 415.87 1210.25 403.60 1118.10 508.55 1102.92 606.54 1216.01 597.93
00037157 00000127 1001.18 205.95 355.71 528.46 1063.62 418.61 1202.50 406.94 1114.20 515.94 1102.56 613.74 1210.37 605.04
00037158 00000128 1001.22 219.64 357.23 525.09 1061.02 422.74 1203.99 408.28 1109.22 516.44 1106.49 619.16 1208.78 605.31
00037159 00000129 1000.26 214.71 354.20 521.04 1059.00 423.81 1199.59 410.08 1105.27 518.31 1102.36 614.68 1207.13 601.83
00037160 00000130 999.13 213.34 353.13 521.94 1058.35 421.47 1197.14 408.03 1101.71 515.18 1101.68 611.09 1207.04 598.26
00037161 00000131 999.18 212.66 356.42 528.76 1058.40 417.85 1196.83 401.70 1100.36 508.28 1102.72 609.75 1211.06 594.13
00037162 00000132 1001.22 210.81 353.93 526.71 1056.89 414.70 1197.03 397.79 1099.41 505.97 1099.13 605.06 1216.93 588.55
00037163 00000133 1001.86 205.23 352.42 530.96 1056.42 412.98 1196.71 394.88 1099.45 502.52 1096.94 603.18 1217.05 585.83
00037164 00000134 1001.64 203.23 351.74 532.67 1056.60 413.67 1195.69 394.84 1099.20 501.22 1097.04 602.77 1215.85 584.90
00037165 00000135 999.23 212.92 354.21 528.92 1058.22 420.00 1194.76 401.52 1097.88 503.62 1101.33 608.07 1212.94 590.25
00037166 00000136 995.81 214.67 356.15 525.59 1056.87 423.82 1192.68 407.57 1098.67 510.94 1102.81 612.41 1206.50 596.74
00037167 00000137 993.38 212.66 354.70 524.47 1054.01 425.22 1192.80 412.19 1097.60 515.74 1098.03 613.09 1202.27 600.45
00037168 00000138 993.26 212.01 351.79 521.08 1051.72 425.17 1191.20 413.47 1094.41 517.25 1095.08 612.32 1197.97 601.28
00037169 00000139 993.29 211.28 350.41 519.09 1049.80 424.72 1189.35 412.25 1092.02 515.85 1093.56 612.21 1195.83 600.94
00037170 00000140 990.27 208.87 353.98 524.01 1048.96 422.72 1190.19 408.81 1092.64 511.26 1093.75 614.37 1192.22 602.28
00037171 00000141 987.16 209.61 357.66 530.32 1048.13 420.81 1191.08 406.27 1093.08 508.74 1093.82 617.34 1191.54 604.37
00037172 00000142 986.48 210.91 357.06 533.49 1048.17 423.42 1191.15 406.63 1094.52 510.28 1096.30 621.16 1196.13 605.95
00037173 00000143 987.81 214.11 357.48 531.86 1051.18 425.45 1190.29 408.65 1096.94 514.09 1101.21 618.55 1204.42 602.45
00037174 00000144 989.37 216.69 355.79 531.16 1052.52 429.93 1190.28 411.99 1097.78 518.19 1102.33 619.37 1210.10 602.02
00037175 00000145 990.62 217.22 354.80 530.24 1053.16 432.42 1189.27 413.76 1097.65 519.32 1101.95 617.67 1212.23 599.65
00037176 00000146 989.75 217.70 355.53 527.87 1051.46 431.05 1187.88 411.88 1095.59 517.67 1100.45 614.99 1213.57 596.30
00037177 00000147 988.33 215.59 357.80 528.38 1049.10 424.68 1185.73 406.90 1094.08 515.77 1099.57 610.54 1213.97 592.54
00037178 00000148 989.31 212.84 357.62 526.69 1049.68 421.80 1185.74 402.78 1094.07 511.84 1100.86 607.09 1214.07 588.22
00037179 00000149 990.59 210.25 356.94 528.34 1050.51 420.32 1185.99 400.19 1093.96 508.90 1101.48 606.09 1214.37 586.47
00037180 00000150 990.91 207.32 356.73 529.48 1049.84 420.35 1185.60 400.20 1093.64 508.97 1101.28 606.42 1212.47 587.13
00037181 00000151 990.78 211.07 357.53 526.01 1050.92 421.75 1186.26 403.09 1094.35 511.56 1102.60 607.36 1211.73 589.18
00037182 00000152 989.71 214.31 359.44 526.67 1050.47 423.68 1187.20 405.48 1096.04 515.06 1103.47 610.61 1212.99 592.55
00037183 00000153 989.37 214.65 359.47 528.06 1049.94 425.57 1187.44 408.00 1095.27 517.35 1102.71 613.34 1212.20 595.89
00037184 00000154 989.98 209.39 355.31 520.38 1044.77 425.45 1186.65 408.24 1092.31 519.68 1097.95 614.19 1207.40 598.29
00037185 00000155 986.83 210.01 352.95 515.13 1043.99 421.62 1187.33 402.54 1089.28 514.67 1091.94 608.18 1199.05 591.20
00037186 00000156 990.86 200.73 353.68 523.49 1045.43 415.64 1186.81 394.97 1093.61 504.76 1097.81 606.95 1204.01 589.30
00037187 00000157 990.47 197.12 355.97 533.49 1047.57 413.55 1188.41 389.49 1096.39 499.22 1099.11 604.46 1211.63 582.87
00037188 00000158 992.47 194.37 352.47 529.07 1045.39 413.40 1189.34 388.35 1096.90 500.75 1096.13 601.10 1217.54 579.19
00037189 00000159 992.52 196.29 350.19 523.11 1043.92 413.41 1188.05 389.28 1095.76 502.23 1093.92 600.54 1214.75 579.95
00037190 00000160 991.37 201.35 350.59 524.06 1044.24 414.07 1185.85 392.02 1093.11 503.39 1094.68 602.30 1210.84 582.71
00037191 00000161 989.95 206.80 353.64 527.58 1046.77 417.34 1184.65 396.09 1092.66 505.31 1097.50 604.95 1211.16 584.90
00037192 00000162 990.52 209.95 355.35 533.78 1050.30 418.35 1185.75 396.38 1093.12 505.20 1102.93 609.47 1213.85 588.08
