Video ID: 	tIsxB-LXAfY
H: 	1080
W: 	1920
FPS: 	29.97002997002997

FRAME INDEX X0 Y0 W H [Landmarks (5 Points)]

00001769 00000000 680.28 105.50 381.13 578.19 829.42 329.37 993.28 327.91 946.80 458.99 843.64 539.91 979.84 539.66
00001770 00000001 680.25 104.84 381.39 575.07 829.05 331.38 992.64 328.87 945.23 458.83 841.94 537.37 979.39 536.49
00001771 00000002 679.83 102.63 382.40 574.13 827.79 331.82 994.28 329.40 943.84 459.05 840.58 536.52 980.04 535.83
00001772 00000003 678.91 102.94 383.30 574.22 827.84 333.82 994.85 330.93 944.06 460.85 839.97 537.24 979.80 536.35
00001773 00000004 678.34 103.96 384.14 573.33 825.64 334.65 995.93 332.45 943.01 460.68 840.27 539.92 980.12 539.58
00001774 00000005 675.97 102.12 385.99 577.16 825.06 337.07 993.99 336.87 940.45 462.00 839.56 542.79 975.37 544.21
00001775 00000006 675.07 103.06 386.81 589.23 822.49 343.16 990.53 345.31 935.58 464.06 838.49 550.34 971.76 554.11
00001776 DELETE   676.61 112.61 386.44 594.09 820.66 353.40 992.72 356.53 937.52 474.63 837.39 561.06 975.05 566.03
00001777 00000008 675.66 121.47 386.17 591.47 818.51 364.78 994.03 366.41 937.73 483.11 837.57 569.21 976.23 572.99
00001778 DELETE   673.76 135.61 387.67 584.47 818.61 377.43 993.29 377.26 937.55 497.40 833.52 588.56 975.46 588.31
00001779 DELETE   673.37 146.28 387.64 586.06 821.98 386.19 994.88 387.10 940.61 503.23 835.21 597.65 974.27 598.77
00001780 DELETE   673.24 148.02 391.29 592.77 820.83 395.46 996.29 395.26 941.00 513.63 835.62 605.93 977.05 605.93
00001781 00000012 675.87 154.59 390.64 596.13 823.72 397.00 993.59 395.37 940.60 524.94 838.50 611.45 972.50 611.04
00001782 00000013 674.60 163.80 393.78 595.21 821.82 403.36 993.61 401.61 940.30 530.28 837.99 616.28 976.76 616.00
00001783 00000014 675.72 166.86 395.46 598.70 822.77 409.52 996.19 410.03 939.77 535.02 837.44 621.47 976.40 623.45
00001784 00000015 676.33 173.57 395.74 598.30 822.00 412.46 997.12 413.30 940.18 538.85 836.32 626.14 977.00 628.80
00001785 00000016 677.68 174.75 397.11 599.76 822.13 415.95 1000.19 416.72 942.90 541.25 837.96 629.66 980.41 632.28
00001786 00000017 678.69 176.79 397.63 599.14 823.67 417.32 1003.34 418.05 944.53 542.91 840.82 632.01 983.02 634.50
00001787 00000018 680.91 177.79 396.84 597.23 826.88 416.81 1006.29 417.20 946.76 543.85 846.46 632.82 986.92 634.70
00001788 00000019 682.55 178.54 398.16 599.71 830.05 416.90 1008.59 416.85 950.27 544.26 852.63 635.81 991.32 637.06
00001789 00000020 685.03 177.98 400.20 602.76 833.67 418.55 1010.64 417.85 953.75 546.18 857.35 637.08 996.07 637.45
00001790 00000021 687.05 177.34 401.86 601.57 838.06 421.96 1014.34 422.38 957.23 548.56 860.68 638.68 998.47 639.88
00001791 00000022 687.66 179.01 404.53 601.43 840.41 424.11 1018.20 425.50 959.01 551.13 860.66 639.75 999.58 641.74
00001792 00000023 688.84 177.99 405.18 601.49 841.38 426.51 1021.27 429.03 960.46 551.94 859.89 639.50 1000.92 642.30
00001793 00000024 690.04 179.08 405.35 601.67 842.41 430.20 1024.93 432.94 963.66 555.50 859.97 641.52 1004.04 644.38
00001794 00000025 690.69 189.93 405.07 590.63 846.07 442.91 1023.28 443.78 964.88 560.52 861.82 643.39 1002.94 644.79
00001795 00000026 694.89 193.81 399.55 584.30 849.31 449.65 1024.73 453.55 965.02 562.04 863.06 646.53 999.39 650.54
00001796 00000027 697.95 197.47 402.87 586.85 853.91 448.51 1028.92 455.19 968.24 565.46 865.42 653.09 997.19 659.59
00001797 00000028 707.93 201.39 398.91 584.83 857.79 434.01 1035.85 445.19 974.45 560.93 867.04 657.75 999.47 665.70
00001798 00000029 709.09 199.76 399.53 586.95 861.25 429.63 1038.55 442.29 979.12 556.81 870.54 653.89 1003.38 663.11
00001799 00000030 708.23 198.11 402.82 585.93 861.96 424.58 1039.89 437.71 978.93 556.57 871.04 648.60 1003.46 658.04
00001800 00000031 705.91 192.53 407.33 590.60 862.01 420.72 1042.27 434.77 980.22 556.70 868.36 642.73 1006.71 653.28
00001801 00000032 705.02 188.00 408.99 593.37 859.84 417.53 1040.89 433.15 975.26 557.28 864.78 639.54 1003.99 651.39
00001802 00000033 706.23 190.04 404.16 590.43 855.22 417.06 1036.40 433.30 969.00 557.51 860.61 640.18 999.70 652.44
00001803 00000034 699.18 184.01 404.63 597.76 852.59 423.96 1030.28 440.99 962.49 557.16 855.28 639.65 993.53 654.57
00001804 00000035 699.14 186.29 404.30 595.65 850.65 424.08 1030.35 440.88 961.49 557.95 854.05 640.82 993.47 655.59
00001805 00000036 697.04 184.54 408.70 599.85 850.47 425.63 1031.80 440.57 962.63 559.12 855.35 643.52 996.62 656.73
00001806 00000037 696.75 184.00 409.76 602.15 853.07 426.21 1032.96 440.19 965.28 560.04 858.14 644.79 998.26 657.04
00001807 00000038 701.06 190.39 410.32 597.84 852.08 417.90 1036.64 433.67 968.41 558.60 860.13 646.93 999.43 658.35
00001808 00000039 696.04 182.36 411.85 605.96 852.28 424.82 1033.35 437.51 965.97 559.59 858.66 646.13 1000.19 657.37
00001809 00000040 695.00 182.29 412.42 606.93 852.00 423.89 1033.77 436.70 966.22 559.46 859.19 647.21 1000.29 658.50
00001810 00000041 693.65 180.14 413.27 605.96 850.14 423.81 1033.28 434.89 966.21 559.06 859.26 645.50 1002.11 655.33
00001811 00000042 692.65 178.55 415.33 611.10 849.44 423.63 1033.81 433.72 967.50 557.82 857.23 643.69 1006.01 652.55
00001812 00000043 691.29 181.00 415.92 610.85 848.04 425.19 1033.24 434.29 966.75 559.02 855.92 643.37 1007.54 651.21
00001813 00000044 694.10 189.36 416.59 609.91 849.84 416.73 1036.97 430.52 970.50 557.95 859.57 643.96 1005.26 653.51
00001814 00000045 690.57 184.62 415.63 605.92 847.25 424.38 1032.58 434.06 964.96 558.95 856.62 644.67 1004.67 653.21
00001815 00000046 689.31 181.12 415.01 609.09 845.73 423.39 1029.71 432.42 963.57 558.50 856.93 643.65 1004.55 651.45
00001816 00000047 689.26 180.61 413.70 602.62 845.00 421.54 1027.70 430.40 962.26 556.84 856.86 641.56 1001.72 649.33
00001817 00000048 688.46 178.80 413.29 604.15 842.26 418.17 1026.47 426.36 959.83 555.04 855.17 640.53 1001.86 647.71
00001818 00000049 686.85 176.51 413.13 607.73 839.18 414.98 1024.41 421.98 958.19 552.59 852.52 639.15 1001.48 645.39
00001819 00000050 685.47 171.10 412.63 612.89 837.12 411.30 1022.18 416.54 958.09 549.78 852.05 638.07 1001.08 642.83
00001820 00000051 684.93 165.29 411.47 620.57 833.88 406.96 1020.55 412.12 957.32 544.36 851.77 638.43 1000.56 643.06
00001821 00000052 684.52 161.26 410.76 627.80 832.14 402.59 1019.74 408.49 956.88 540.68 850.67 639.49 997.09 644.73
00001822 00000053 682.46 159.87 410.28 624.17 830.34 406.12 1019.10 412.69 955.31 535.54 847.69 635.38 996.69 640.99
00001823 00000054 681.24 157.25 409.57 615.63 827.47 407.11 1017.01 411.98 952.38 531.78 843.79 626.28 997.25 629.97
00001824 00000055 681.74 153.38 406.12 604.31 825.79 402.21 1014.22 405.31 950.97 524.98 843.80 616.05 997.19 618.17
00001825 DELETE   680.30 148.79 403.36 600.40 825.59 396.10 1013.19 401.81 950.74 515.19 839.24 606.72 991.88 611.27
00001826 DELETE   675.55 140.68 406.97 593.80 826.78 388.69 1017.73 397.69 948.06 505.38 834.78 589.30 988.45 598.38
00001827 DELETE   675.86 130.64 401.91 588.95 825.78 379.02 1015.42 389.90 945.54 493.79 832.84 581.39 982.62 592.36
00001828 00000059 674.89 125.82 400.75 585.65 822.95 366.34 1011.63 377.37 944.23 485.75 830.94 574.05 980.10 585.37
00001829 DELETE   672.39 117.82 399.33 590.27 818.90 356.79 1005.44 370.89 938.46 473.89 824.02 563.62 976.05 577.40
00001830 DELETE   671.60 107.48 399.40 598.66 815.96 344.42 1001.54 360.17 935.84 465.03 818.56 555.16 974.66 569.58
00001831 DELETE   669.54 97.40 400.07 598.68 817.47 336.98 1000.93 353.27 936.00 456.74 820.30 547.05 974.22 561.53
00001832 00000063 668.76 91.55 399.20 597.94 817.67 329.46 997.45 343.64 936.96 450.25 822.17 540.38 972.90 553.10
00001833 00000064 667.08 88.31 396.03 590.66 815.33 333.04 996.11 344.15 938.84 441.64 826.41 538.21 975.86 547.92
00001834 00000065 664.88 82.10 396.22 592.64 812.58 327.33 994.25 339.58 937.00 435.74 822.44 532.98 974.54 543.74
00001835 00000066 664.00 82.33 395.96 590.39 809.39 322.50 992.50 336.51 932.53 428.49 817.29 528.56 970.60 540.88
00001836 00000067 660.56 78.60 398.12 590.44 804.27 320.49 988.51 334.05 927.13 425.49 814.11 526.53 968.36 538.34
00001837 00000068 660.01 79.94 396.53 586.48 801.85 319.70 986.39 332.98 924.34 422.90 811.59 524.51 966.38 536.25
00001838 00000069 659.38 81.24 396.48 587.57 801.88 321.73 984.96 334.67 924.55 424.08 810.67 524.62 966.04 536.11
00001839 00000070 658.99 81.83 396.98 588.63 802.17 325.21 984.26 337.91 923.48 428.70 811.03 526.47 966.13 537.70
00001840 00000071 660.51 85.86 396.37 591.84 802.42 328.75 984.60 339.96 923.81 432.86 812.67 531.67 968.47 541.78
00001841 00000072 660.43 89.39 395.65 594.87 802.62 332.41 983.68 342.79 922.42 438.49 814.58 537.37 968.24 546.58
00001842 00000073 660.38 91.14 397.20 602.13 802.02 334.58 983.26 343.78 920.22 445.12 815.80 546.52 966.31 554.34
00001843 00000074 659.60 100.70 399.20 594.39 801.84 338.09 986.04 347.83 920.16 451.74 819.35 553.48 967.54 561.41
00001844 00000075 659.71 101.79 399.97 593.04 803.07 342.14 986.33 351.20 920.99 454.64 822.66 556.28 968.50 563.76
00001845 00000076 658.91 101.35 400.10 592.90 804.80 348.84 988.18 356.47 923.08 459.50 824.56 558.77 970.76 565.04
00001846 00000077 659.90 104.17 399.56 598.33 807.54 361.87 988.11 367.23 924.55 465.86 823.03 563.04 973.46 567.21
00001847 00000078 665.97 108.02 401.00 595.57 807.66 359.16 996.40 367.08 927.63 466.73 819.21 556.83 981.58 564.27
00001848 00000079 667.78 113.10 400.19 593.13 809.97 362.28 996.99 370.13 929.24 470.70 820.03 559.66 980.33 567.43
00001849 00000080 667.23 117.64 398.80 589.95 809.98 360.67 996.70 369.12 929.04 470.93 821.71 561.76 978.76 570.31
00001850 00000081 665.87 117.00 398.33 594.95 809.59 358.36 996.96 366.66 930.22 471.88 822.82 564.02 978.36 572.78
00001851 00000082 666.52 117.37 400.08 593.17 810.80 358.13 997.67 366.06 931.77 471.71 824.33 563.59 979.40 572.06
00001852 00000083 667.45 118.87 400.67 590.43 812.20 356.49 1000.56 365.48 933.91 471.77 824.04 563.62 979.53 573.14
00001853 00000084 666.17 119.51 402.10 588.98 813.02 356.79 1001.53 364.93 935.53 472.02 825.81 564.75 980.66 573.56
00001854 00000085 666.48 121.33 401.63 585.94 813.19 357.33 1001.77 365.40 935.00 473.91 826.12 565.24 979.73 574.12
00001855 00000086 665.71 122.97 401.75 585.37 813.14 357.70 1001.32 365.27 935.23 474.80 826.81 566.12 979.82 574.64
00001856 00000087 665.22 124.66 400.51 585.10 811.98 357.68 998.98 364.93 934.21 475.05 826.32 566.08 979.84 574.21
00001857 00000088 663.88 123.25 400.72 586.00 811.29 355.98 997.71 363.95 934.33 473.87 825.10 565.46 979.01 574.12
00001858 00000089 662.86 123.02 399.94 584.59 810.59 353.89 996.60 361.69 934.47 472.22 826.45 566.12 977.85 574.72
00001859 00000090 661.48 117.92 401.67 589.19 809.21 352.99 995.34 360.53 931.79 471.29 824.26 564.21 976.76 572.62
00001860 00000091 660.72 116.41 401.01 590.75 807.61 352.07 993.57 359.77 929.88 470.88 821.93 562.07 976.50 570.53
00001861 00000092 659.83 120.14 395.93 579.89 802.69 358.29 991.11 363.89 931.04 477.00 815.73 569.03 971.84 573.92
00001862 00000093 657.70 120.12 397.40 584.13 802.03 359.13 989.58 365.07 930.63 477.72 814.94 571.33 969.16 576.22
00001863 00000094 656.91 118.11 397.57 586.61 799.99 359.39 987.06 364.52 927.57 476.96 814.45 571.44 968.59 575.28
00001864 00000095 655.93 117.62 397.79 586.50 799.43 359.44 984.98 364.16 926.55 475.96 814.44 570.63 968.02 574.05
00001865 00000096 655.49 115.24 397.47 588.60 798.17 357.17 982.96 361.75 924.64 473.74 811.50 565.69 968.19 569.06
00001866 00000097 654.27 115.62 396.70 585.36 796.02 353.61 981.28 358.06 923.33 470.20 809.24 561.22 967.39 564.72
00001867 00000098 653.20 113.97 397.71 587.01 794.40 351.25 980.30 356.53 921.49 466.60 805.61 557.92 966.58 562.26
00001868 00000099 651.28 112.37 399.21 588.06 794.28 347.51 978.81 353.93 921.25 463.03 804.03 555.58 963.40 560.91
00001869 00000100 651.09 109.48 400.05 591.87 793.16 344.85 978.66 351.78 920.25 458.46 801.61 552.02 962.96 557.75
00001870 00000101 652.00 107.14 397.07 592.47 791.30 344.55 977.24 352.50 913.80 453.62 802.35 550.74 963.18 557.65
00001871 00000102 651.59 102.79 397.23 597.15 790.00 344.06 976.02 351.33 912.11 452.96 801.79 550.85 962.43 557.18
00001872 00000103 650.68 104.37 396.18 593.24 789.27 340.92 976.28 349.47 912.51 450.65 801.14 549.03 961.56 556.49
00001873 00000104 649.89 103.64 395.74 590.64 787.17 340.66 977.17 349.24 911.70 450.00 801.80 550.14 962.74 557.64
00001874 00000105 650.25 101.94 395.73 591.77 788.20 337.75 978.50 347.19 912.65 449.68 802.99 550.28 962.26 558.36
00001875 00000106 650.73 99.99 395.25 594.00 787.72 336.14 978.74 345.34 912.52 449.04 803.21 550.33 963.07 558.13
00001876 00000107 650.00 101.78 395.39 590.84 786.99 336.56 979.53 345.86 913.01 449.42 804.34 551.41 963.56 559.24
00001877 00000108 649.95 103.09 395.73 591.37 786.56 338.59 979.21 347.01 912.78 451.29 804.10 553.48 963.16 560.60
00001878 00000109 649.48 102.66 396.00 591.74 786.11 341.15 978.92 349.27 912.26 452.96 803.72 554.72 963.13 561.68
00001879 00000110 648.49 99.93 396.49 593.35 785.16 341.02 977.57 349.16 910.62 452.06 802.01 553.25 962.51 560.23
00001880 00000111 648.45 103.30 396.76 592.52 785.45 342.06 977.80 350.20 910.83 454.69 801.32 554.52 962.10 561.52
00001881 00000112 648.78 103.53 396.67 592.15 786.11 343.66 978.16 351.68 911.01 455.99 802.29 555.43 962.10 562.30
00001882 00000113 648.62 105.27 397.50 592.89 786.82 345.82 977.44 353.16 911.42 458.34 802.02 556.35 961.46 562.60
00001883 00000114 648.68 106.52 396.83 592.42 786.66 346.97 976.97 354.46 910.82 459.94 802.03 557.42 961.29 563.87
00001884 00000115 647.60 108.24 398.33 594.68 786.55 349.67 975.91 356.46 910.40 462.86 801.17 559.69 960.28 565.56
00001885 00000116 647.61 106.93 397.60 596.86 786.92 353.73 974.91 359.73 909.95 467.11 802.17 562.87 959.62 567.86
00001886 00000117 647.12 113.31 396.67 591.02 786.17 355.44 974.35 361.25 908.83 468.72 801.65 563.68 958.61 568.49
00001887 00000118 646.00 114.50 397.11 589.85 784.94 354.85 973.98 360.35 907.40 469.67 799.24 563.69 956.82 568.36
00001888 00000119 646.12 115.25 397.16 588.00 785.27 354.98 975.22 360.51 907.85 470.59 800.06 564.47 957.44 569.22
00001889 00000120 646.35 115.57 397.37 588.23 785.97 354.61 974.92 360.37 907.70 470.62 799.06 563.45 956.29 568.38
00001890 00000121 648.64 120.58 398.73 582.02 789.21 351.31 975.52 359.12 913.13 470.34 799.15 560.87 957.26 567.32
00001891 00000122 648.29 121.12 398.91 580.38 789.04 350.25 975.49 357.72 913.55 470.20 799.15 560.10 957.25 566.23
00001892 00000123 647.84 119.23 399.98 583.34 788.50 349.93 974.71 357.26 912.91 468.82 798.85 558.94 957.58 564.88
00001893 00000124 648.26 117.16 399.35 586.35 788.20 348.62 974.50 356.11 913.30 466.72 798.77 557.90 958.12 564.02
00001894 00000125 649.95 113.02 394.60 589.30 787.88 348.28 974.41 356.68 909.58 461.18 798.83 556.04 956.73 563.51
00001895 00000126 653.52 111.36 392.52 588.90 791.80 346.66 976.05 355.61 911.63 457.91 801.96 554.25 957.25 562.16
00001896 00000127 658.57 109.35 389.43 586.90 796.06 344.11 978.19 352.03 914.94 453.28 807.32 549.04 962.45 556.02
00001897 00000128 663.89 109.99 386.85 573.27 802.05 339.10 981.03 344.26 920.82 453.20 815.44 542.75 966.02 547.65
00001898 00000129 669.94 107.42 386.86 569.35 808.40 339.37 985.49 342.03 927.39 450.91 823.77 539.24 972.53 542.46
00001899 00000130 675.09 96.95 386.40 575.16 814.79 338.18 995.00 340.99 937.43 449.65 829.20 537.00 979.92 540.12
00001900 00000131 679.78 97.03 384.97 572.34 821.85 330.03 997.31 331.13 942.78 446.30 839.57 532.75 984.27 534.81
00001901 00000132 682.80 98.18 386.01 573.48 827.41 328.94 1002.55 329.25 948.09 447.95 846.58 534.01 987.78 535.10
00001902 00000133 687.21 96.37 385.32 574.23 831.11 326.68 1006.35 327.15 951.07 443.77 850.99 532.14 992.30 532.94
00001903 00000134 690.31 95.64 385.22 573.79 834.00 323.15 1006.77 325.68 950.99 439.79 853.21 529.31 992.05 531.65
00001904 00000135 693.07 95.24 383.05 572.54 836.61 322.69 1008.05 326.20 953.19 438.62 855.00 526.37 993.26 529.37
00001905 00000136 695.67 95.28 382.37 572.06 838.54 320.51 1008.61 324.46 953.96 435.76 855.86 524.30 993.54 527.69
00001906 00000137 697.70 93.57 380.41 574.24 838.83 318.49 1009.39 322.49 954.13 433.34 855.49 522.96 994.69 526.29
00001907 00000138 699.89 93.45 379.05 573.49 838.57 318.73 1009.55 322.19 953.95 432.18 854.63 522.12 995.43 525.13
00001908 00000139 702.67 92.03 376.32 571.56 837.63 320.08 1008.88 321.56 953.13 431.04 854.96 519.86 997.07 521.30
00001909 00000140 703.96 94.46 375.62 564.26 835.80 321.69 1008.79 322.48 951.22 430.00 854.91 517.55 998.54 518.50
00001910 00000141 707.47 95.39 371.53 560.75 836.05 324.80 1007.52 324.11 951.12 432.25 858.14 518.85 999.64 518.65
00001911 00000142 709.55 97.50 369.05 558.35 835.94 327.36 1007.17 323.63 951.68 433.73 860.09 520.06 1002.23 517.47
CROP_BBOX: 301 0 1310 943
