Video ID: 	TnS5K2oRTUo
H: 	1080
W: 	1920
FPS: 	25.0

FRAME INDEX X0 Y0 W H [Landmarks (5 Points)]

00001681 00000000 918.55 138.36 370.98 522.75 1125.44 332.41 1274.52 363.06 1265.96 422.97 1137.31 516.80 1248.89 541.15
00001682 00000001 919.12 136.70 371.38 525.18 1123.68 331.41 1275.70 361.64 1266.31 423.83 1137.27 518.74 1249.74 542.65
00001683 00000002 916.19 134.40 374.51 530.93 1120.80 330.44 1275.87 363.66 1266.37 423.66 1131.38 518.87 1247.77 545.29
00001684 00000003 918.87 138.50 368.13 527.52 1125.62 314.69 1270.60 351.03 1271.49 432.97 1127.42 525.19 1246.67 556.92
00001685 00000004 915.57 135.80 371.83 530.11 1123.21 311.10 1270.18 354.05 1269.73 431.30 1119.11 522.69 1242.94 559.77
00001686 00000005 914.79 126.57 372.43 539.42 1119.41 306.32 1268.25 348.91 1269.02 428.29 1116.55 521.33 1243.04 557.63
00001687 00000006 911.04 121.72 375.70 543.97 1117.12 301.88 1266.89 345.82 1267.74 425.11 1113.24 518.85 1242.17 555.61
00001688 00000007 909.56 114.50 376.41 550.12 1115.21 297.68 1264.77 339.94 1266.22 419.74 1114.44 516.35 1244.52 551.31
00001689 00000008 907.43 107.09 378.42 555.36 1112.76 296.47 1264.27 332.87 1264.39 416.83 1113.09 512.82 1248.18 542.94
00001690 00000009 904.43 104.00 380.76 557.03 1110.86 293.30 1264.15 327.43 1263.23 415.35 1109.68 510.35 1247.87 538.61
00001691 00000010 902.77 101.82 381.02 560.33 1109.48 290.27 1263.65 326.56 1263.50 413.07 1106.91 509.37 1246.27 539.49
00001692 00000011 895.59 101.91 389.14 561.14 1103.89 303.33 1263.94 343.68 1256.58 403.74 1106.43 498.49 1236.83 530.99
00001693 00000012 894.49 101.75 388.88 558.86 1101.89 303.58 1261.34 342.61 1253.33 402.85 1106.02 497.56 1235.97 528.82
00001694 00000013 890.57 105.46 393.23 550.55 1102.05 309.49 1264.05 348.73 1256.29 401.24 1107.19 495.30 1237.46 526.70
00001695 DELETE   888.25 103.92 394.80 547.48 1101.98 315.46 1265.17 351.85 1252.60 401.92 1107.98 495.26 1240.23 524.39
00001696 00000015 885.53 103.77 392.22 546.40 1095.10 319.41 1259.20 354.12 1245.49 405.33 1105.31 498.17 1237.17 525.95
00001697 00000016 882.46 102.14 389.81 549.19 1089.08 318.23 1252.52 351.34 1239.85 405.60 1103.31 498.31 1235.90 524.77
00001698 00000017 879.15 101.83 388.99 550.33 1085.43 315.85 1247.18 349.04 1239.53 406.79 1100.17 500.62 1232.07 527.32
00001699 00000018 888.30 96.89 380.46 559.44 1082.99 308.36 1255.80 333.71 1241.00 401.38 1096.28 510.14 1236.04 531.21
00001700 00000019 882.85 98.23 382.87 560.57 1076.98 314.92 1248.52 333.82 1233.47 405.49 1093.88 514.39 1233.90 529.88
00001701 DELETE   877.97 99.34 384.20 564.70 1070.92 317.46 1244.26 336.39 1230.02 408.49 1090.71 519.96 1230.51 535.38
00001702 00000021 874.40 101.95 383.97 569.33 1068.34 320.28 1240.26 335.02 1226.95 415.75 1087.60 524.59 1227.24 536.70
00001703 00000022 871.78 104.45 382.42 568.25 1063.43 324.99 1234.90 334.34 1223.42 419.97 1083.83 528.28 1223.08 536.28
00001704 00000023 867.75 104.32 385.17 568.35 1057.13 327.84 1230.29 333.41 1217.97 420.85 1080.54 530.22 1221.48 535.04
00001705 00000024 865.49 104.46 386.95 567.96 1055.07 330.14 1229.76 333.35 1216.71 421.77 1080.43 531.48 1222.56 534.17
00001706 00000025 866.63 103.64 385.51 566.21 1052.88 330.44 1228.95 332.62 1213.16 421.27 1079.18 530.46 1222.14 532.21
00001707 00000026 866.97 103.92 384.54 564.37 1051.04 331.15 1225.61 329.99 1211.65 418.98 1079.48 529.83 1222.24 528.76
00001708 00000027 868.66 99.88 384.01 564.62 1051.49 328.96 1224.05 324.45 1212.32 415.78 1079.45 526.81 1222.21 523.22
00001709 00000028 870.46 97.73 381.70 562.61 1050.11 325.66 1223.19 317.82 1214.56 410.97 1079.67 524.01 1224.24 517.78
00001710 00000029 872.42 95.92 380.69 563.58 1048.64 323.23 1221.67 313.78 1212.58 407.90 1079.98 522.17 1224.92 514.59
00001711 00000030 872.46 96.39 380.22 563.43 1048.86 322.19 1221.30 312.06 1214.37 406.88 1079.65 520.09 1226.69 512.09
00001712 DELETE   868.20 94.59 384.31 563.09 1055.04 328.28 1227.73 324.70 1219.36 406.34 1081.61 518.58 1229.12 515.76
00001713 00000032 867.81 96.55 383.73 560.12 1054.44 326.97 1226.01 322.70 1219.48 405.19 1081.98 517.74 1228.74 514.38
00001714 00000033 868.04 97.05 382.90 558.32 1049.60 326.71 1219.27 314.50 1216.29 406.07 1081.32 519.01 1227.39 509.29
00001715 00000034 869.49 99.20 382.41 555.93 1046.96 327.30 1220.27 314.45 1213.20 406.57 1081.89 521.59 1228.29 511.05
00001716 00000035 870.72 103.33 381.79 551.07 1046.30 329.37 1220.04 314.17 1211.63 408.66 1083.24 523.31 1229.61 510.69
00001717 00000036 871.28 103.21 382.16 550.74 1046.78 331.57 1221.48 314.60 1212.32 411.63 1083.07 524.03 1230.61 510.16
00001718 00000037 871.48 105.12 381.18 549.97 1048.50 333.72 1222.82 319.04 1211.85 415.97 1081.26 525.54 1227.95 513.67
00001719 00000038 871.49 109.86 380.65 550.71 1046.48 333.95 1220.32 320.64 1209.94 417.17 1078.53 527.57 1225.66 517.01
00001720 00000039 868.89 108.84 380.77 551.69 1045.10 334.68 1217.00 321.07 1207.85 414.75 1080.43 527.75 1223.58 516.46
00001721 00000040 863.75 107.78 384.46 545.35 1044.68 337.72 1217.65 322.21 1208.92 408.33 1084.94 524.07 1228.27 510.84
00001722 00000041 863.20 104.16 383.39 542.55 1050.73 339.02 1219.24 329.05 1210.28 403.69 1093.12 521.04 1227.51 511.91
00001723 00000042 860.08 102.68 384.02 540.30 1047.92 337.35 1212.80 325.38 1206.58 399.56 1096.64 519.54 1226.68 508.57
00001724 00000043 859.61 101.01 382.51 544.13 1043.90 330.52 1205.32 315.29 1199.91 396.72 1095.04 518.96 1223.09 505.48
00001725 00000044 856.97 103.55 382.65 540.39 1038.64 326.69 1198.00 310.50 1195.30 393.98 1093.00 517.15 1219.36 502.91
00001726 00000045 855.64 102.38 380.11 538.51 1034.66 323.94 1192.72 306.48 1190.62 391.33 1091.78 515.56 1215.50 500.17
00001727 00000046 853.93 98.62 377.08 536.10 1031.79 324.80 1187.12 305.45 1186.19 389.58 1091.87 513.20 1210.32 496.07
00001728 00000047 849.26 101.90 380.23 532.26 1025.14 324.66 1183.64 305.92 1183.23 387.90 1087.69 511.50 1209.19 494.51
00001729 00000048 847.04 101.79 377.66 534.99 1019.61 322.99 1175.84 306.47 1175.29 387.41 1083.73 511.79 1202.68 496.59
00001730 00000049 844.97 99.69 373.05 542.73 1012.46 322.47 1167.74 304.75 1168.78 388.65 1080.56 514.71 1197.66 498.49
00001731 00000050 842.79 103.85 374.18 541.04 1007.92 325.03 1163.40 304.84 1165.03 391.72 1076.93 517.41 1194.56 499.38
00001732 00000051 842.53 101.16 375.38 538.98 1008.57 331.19 1163.33 308.08 1162.37 391.11 1076.27 513.86 1195.28 493.43
00001733 00000052 845.29 101.92 373.97 535.56 1011.37 333.58 1165.64 307.44 1165.87 391.02 1078.28 512.67 1199.13 489.81
00001734 00000053 847.93 103.72 373.01 534.56 1015.12 334.38 1168.19 310.35 1169.51 392.13 1079.81 514.59 1199.59 493.56
00001735 00000054 849.90 106.92 374.39 535.76 1018.88 338.26 1173.42 313.32 1173.62 395.62 1078.05 517.12 1201.67 495.76
00001736 00000055 854.26 108.79 374.54 533.70 1022.91 340.66 1179.37 311.55 1181.44 396.46 1079.63 518.51 1208.58 493.86
00001737 00000056 855.03 107.12 376.97 529.43 1028.69 337.85 1185.93 309.37 1189.76 393.80 1083.47 514.74 1213.12 490.57
00001738 00000057 854.79 105.39 380.59 531.86 1031.62 333.76 1188.87 301.95 1197.32 391.87 1086.12 514.21 1216.96 487.53
00001739 00000058 854.44 101.44 379.61 533.68 1033.20 330.87 1188.68 298.37 1199.12 389.55 1089.31 513.46 1216.56 486.30
00001740 00000059 854.39 99.91 378.45 532.64 1034.15 329.38 1188.35 293.60 1202.37 386.74 1091.95 512.12 1217.68 482.27
00001741 00000060 854.10 98.83 378.72 529.00 1035.22 327.19 1186.07 290.37 1201.95 384.54 1097.52 509.97 1218.75 479.06
00001742 00000061 850.45 99.04 380.61 526.88 1031.77 324.00 1181.70 288.23 1198.40 380.67 1097.89 507.25 1216.75 477.13
00001743 00000062 846.74 99.78 381.06 528.62 1024.53 321.01 1175.45 286.86 1190.43 379.37 1094.34 507.33 1213.68 478.11
00001744 00000063 842.09 99.35 381.66 531.52 1018.41 318.37 1168.17 284.15 1185.08 378.19 1095.33 508.60 1210.69 478.89
00001745 00000064 838.06 97.03 386.18 532.53 1014.48 317.70 1161.05 281.63 1181.10 373.34 1102.11 508.12 1213.52 476.62
00001746 00000065 833.66 96.31 387.58 531.65 1010.45 315.71 1155.34 280.46 1176.95 371.47 1103.03 507.19 1212.36 476.49
00001747 00000066 828.62 95.70 385.59 534.76 1005.90 315.32 1146.83 282.21 1168.45 373.37 1100.79 509.32 1204.71 480.74
00001748 00000067 826.47 94.40 382.03 538.90 1000.31 314.23 1141.82 283.83 1160.30 371.55 1095.54 509.41 1200.05 483.00
00001749 DELETE   820.31 88.25 384.92 542.31 996.59 326.12 1143.92 295.74 1154.70 369.77 1087.07 507.04 1198.09 479.98
00001750 DELETE   823.52 89.26 377.31 536.96 997.84 323.06 1151.38 284.52 1158.20 370.35 1065.95 510.28 1191.76 477.55
00001751 00000070 815.69 91.73 381.64 538.10 988.40 320.08 1145.70 275.54 1156.20 369.21 1059.77 511.41 1189.06 474.16
00001752 00000071 810.20 90.43 380.80 539.80 983.97 318.25 1138.04 272.15 1153.35 369.22 1057.07 512.05 1184.05 473.92
00001753 00000072 806.06 87.16 380.79 544.27 978.40 315.51 1135.47 270.29 1149.46 369.11 1053.96 513.97 1181.03 476.25
00001754 00000073 804.01 84.53 379.98 549.23 976.26 313.47 1133.56 267.73 1149.26 369.88 1049.10 513.82 1177.72 475.75
00001755 00000074 801.03 83.28 381.99 547.74 973.97 312.35 1132.23 265.75 1146.82 368.38 1046.18 511.59 1176.10 472.61
00001756 00000075 798.69 82.02 385.78 545.43 972.30 312.55 1133.07 263.71 1146.70 366.59 1045.86 510.64 1176.80 469.75
00001757 00000076 798.48 82.72 390.57 538.68 976.21 320.68 1139.89 272.05 1152.13 367.86 1048.46 508.67 1182.12 467.87
00001758 00000077 798.92 82.11 388.91 538.20 977.53 319.66 1140.21 270.91 1153.08 367.11 1048.62 506.96 1181.71 466.42
00001759 00000078 801.19 82.07 386.52 539.03 978.24 316.78 1136.11 267.79 1151.88 364.45 1049.57 506.50 1179.70 466.06
00001760 00000079 800.99 82.01 388.10 538.54 978.27 313.66 1135.18 264.44 1152.47 361.28 1051.91 504.87 1181.39 464.17
00001761 00000080 800.88 82.11 389.10 538.07 978.01 311.52 1135.06 264.41 1151.00 359.08 1051.86 502.87 1181.18 463.70
00001762 00000081 799.93 82.27 390.49 536.31 977.62 311.55 1135.01 263.60 1151.15 359.34 1051.85 502.58 1180.97 462.72
00001763 00000082 798.69 82.17 391.11 537.43 976.76 311.46 1135.86 262.89 1151.92 360.90 1050.42 503.27 1180.81 462.81
00001764 00000083 798.93 81.59 390.26 537.60 976.93 311.72 1135.39 262.93 1151.33 362.31 1049.27 503.15 1179.47 462.61
00001765 00000084 796.58 79.55 394.46 537.23 978.31 318.91 1139.56 265.53 1156.90 365.41 1048.70 502.32 1182.49 458.38
00001766 00000085 794.02 82.45 405.14 540.20 973.39 316.37 1134.74 276.41 1147.05 364.82 1055.01 495.22 1186.60 461.30
00001767 00000086 799.11 78.46 392.70 538.34 979.01 316.62 1141.01 266.32 1155.27 366.89 1046.99 502.62 1182.14 461.12
00001768 00000087 799.68 77.59 390.38 538.49 979.10 313.75 1140.36 264.65 1153.29 367.89 1046.59 503.63 1180.00 463.18
00001769 00000088 800.43 77.24 389.97 539.30 978.45 312.45 1139.33 262.54 1152.87 366.92 1047.35 503.57 1180.57 462.35
00001770 00000089 801.52 75.92 388.31 540.05 978.87 311.60 1139.68 263.46 1151.75 366.55 1047.46 502.87 1180.20 463.12
00001771 00000090 802.30 75.83 387.82 540.24 978.89 311.57 1139.98 262.53 1151.95 367.36 1047.29 503.35 1180.00 462.91
00001772 00000091 802.86 75.67 387.26 539.89 979.31 311.81 1140.30 262.61 1152.91 367.73 1048.27 503.17 1180.82 462.58
00001773 00000092 803.29 74.79 386.69 542.47 979.62 312.61 1140.00 262.06 1153.59 368.31 1047.80 503.57 1180.39 462.09
00001774 00000093 804.20 76.55 386.33 539.93 979.54 312.01 1140.32 260.34 1153.63 368.86 1047.65 503.79 1180.63 461.43
00001775 00000094 805.66 74.98 383.38 542.79 980.85 311.06 1138.64 259.47 1153.30 370.17 1047.22 504.10 1177.73 462.18
00001776 00000095 806.54 75.28 382.86 542.44 981.71 311.19 1139.74 259.68 1153.29 370.84 1047.98 504.94 1177.51 463.07
00001777 00000096 806.19 73.10 385.23 544.12 982.91 316.02 1145.60 267.12 1156.84 372.16 1047.98 505.08 1182.07 465.13
00001778 00000097 803.24 79.73 392.58 542.06 980.35 316.99 1139.83 286.53 1145.81 369.70 1059.74 495.06 1185.37 468.53
00001779 00000098 810.30 72.37 380.85 544.51 987.33 315.93 1147.49 271.91 1156.56 371.98 1049.39 504.13 1180.88 468.24
00001780 00000099 812.05 72.74 380.38 544.54 988.15 314.29 1144.15 266.58 1155.59 373.06 1050.26 504.95 1178.39 466.42
00001781 00000100 813.51 72.37 379.91 544.76 989.61 312.89 1144.50 265.12 1157.09 372.14 1052.57 504.18 1179.62 465.62
00001782 00000101 813.39 76.85 388.98 543.62 985.48 308.33 1140.48 275.28 1147.64 368.39 1064.47 495.54 1185.50 467.02
00001783 00000102 816.91 77.42 387.15 542.29 987.56 307.72 1143.37 276.03 1148.99 369.26 1067.21 496.51 1187.27 468.78
00001784 00000103 820.66 76.19 385.85 543.16 992.67 306.93 1148.24 276.62 1153.51 369.96 1070.29 496.92 1188.84 470.20
00001785 00000104 824.68 79.23 385.07 541.92 996.56 308.36 1151.66 279.11 1157.03 370.15 1074.13 498.59 1191.86 472.51
00001786 00000105 828.53 80.41 382.45 542.02 1000.63 309.87 1153.65 278.35 1162.21 370.02 1078.76 500.33 1194.69 472.28
00001787 00000106 831.73 82.58 382.86 540.13 1005.89 311.08 1158.93 278.55 1169.28 370.70 1082.81 501.30 1198.17 472.48
00001788 00000107 833.28 83.85 385.22 540.50 1009.12 313.53 1162.48 280.82 1174.78 371.06 1087.47 503.29 1202.89 474.24
00001789 00000108 831.61 80.58 388.42 544.57 1020.26 318.82 1173.22 283.88 1188.09 373.84 1093.09 506.76 1206.59 476.27
00001790 DELETE   836.86 82.60 389.15 541.01 1023.91 320.63 1178.08 286.16 1190.76 373.43 1094.50 506.16 1210.98 476.06
00001791 00000110 841.76 84.47 388.45 540.40 1021.10 318.77 1176.43 280.76 1189.33 373.94 1093.95 508.06 1212.29 475.17
00001792 00000111 844.50 88.87 382.53 535.25 1022.10 317.34 1174.39 281.48 1188.08 374.86 1096.57 507.15 1212.76 475.93
00001793 00000112 847.60 88.32 381.96 535.43 1024.71 318.99 1177.42 279.80 1190.66 376.21 1096.32 508.53 1213.43 474.92
00001794 00000113 848.06 87.56 382.50 536.27 1028.22 317.84 1181.18 279.51 1196.08 376.11 1098.22 508.69 1215.77 476.15
00001795 00000114 848.95 88.51 384.09 535.73 1030.10 317.74 1186.25 280.74 1198.88 376.49 1099.26 509.12 1219.80 477.62
00001796 00000115 849.93 89.91 384.60 535.23 1033.03 318.16 1188.66 280.70 1201.89 377.36 1099.37 509.34 1220.75 477.56
00001797 00000116 850.98 88.42 384.82 536.55 1036.39 317.40 1190.88 281.69 1203.87 376.69 1102.51 509.10 1222.10 478.77
00001798 00000117 852.09 87.77 387.70 538.54 1038.59 317.35 1196.19 281.09 1207.14 377.70 1102.90 510.36 1225.39 479.69
00001799 00000118 853.68 87.38 388.46 539.65 1040.81 317.59 1198.25 281.25 1210.59 377.23 1105.22 510.98 1228.08 480.33
00001800 00000119 853.00 87.42 388.45 540.34 1041.71 318.30 1198.89 282.15 1212.08 378.12 1105.53 511.61 1228.07 481.08
00001801 00000120 853.00 88.80 388.55 539.49 1041.37 318.71 1199.03 281.81 1212.68 378.97 1105.58 512.47 1228.52 481.33
00001802 00000121 851.92 89.82 388.57 539.30 1040.86 320.41 1197.90 284.82 1211.25 379.72 1105.42 513.46 1227.12 483.37
00001803 00000122 851.23 92.65 388.94 538.07 1038.84 321.22 1195.07 284.48 1208.97 381.80 1103.38 515.10 1224.64 484.21
00001804 00000123 849.99 93.88 388.23 537.87 1037.20 323.13 1192.22 285.67 1206.39 383.42 1100.87 515.15 1222.14 483.67
00001805 00000124 848.72 95.21 388.53 536.16 1034.55 323.39 1189.69 286.20 1203.62 383.21 1098.86 514.56 1219.91 483.27
00001806 00000125 847.82 96.04 384.66 535.16 1030.77 323.89 1182.72 285.65 1198.59 383.17 1097.18 514.32 1214.82 482.20
00001807 00000126 845.93 96.88 382.96 535.58 1027.99 322.96 1176.43 285.33 1194.24 383.55 1094.61 513.63 1209.63 482.01
00001808 00000127 843.44 96.92 383.19 536.34 1024.22 323.27 1173.41 287.08 1189.45 384.11 1093.38 513.97 1208.50 483.26
00001809 00000128 839.39 96.56 384.51 538.46 1020.43 322.10 1169.12 286.17 1185.13 383.25 1092.80 513.70 1206.51 482.77
00001810 00000129 837.44 96.32 383.93 539.37 1017.27 322.23 1164.16 286.26 1181.34 383.47 1092.67 514.14 1203.91 482.97
00001811 00000130 836.71 93.91 380.90 540.46 1016.50 326.08 1165.80 297.51 1177.13 382.70 1092.12 513.82 1203.99 488.21
00001812 00000131 833.42 92.53 380.16 540.72 1018.02 330.09 1163.84 302.24 1176.52 381.91 1094.14 513.37 1202.02 488.51
00001813 00000132 834.68 91.32 376.50 541.23 1010.51 328.61 1157.04 296.98 1167.82 383.84 1092.30 514.42 1199.66 486.17
00001814 00000133 831.14 94.09 376.98 538.81 1001.95 327.68 1148.59 293.24 1161.33 381.71 1089.61 513.10 1197.44 482.69
00001815 00000134 828.74 94.64 377.70 535.74 997.22 325.85 1142.56 290.73 1152.72 381.33 1085.96 511.46 1191.31 480.77
00001816 00000135 827.37 95.14 377.40 534.42 992.90 323.91 1139.97 288.69 1147.12 381.91 1082.01 510.34 1187.71 479.56
00001817 00000136 826.17 96.11 378.30 533.96 989.00 323.76 1137.93 288.83 1144.70 381.65 1077.26 509.17 1187.66 478.82
00001818 00000137 824.54 95.73 375.34 532.40 985.87 322.30 1135.56 287.45 1140.59 380.57 1072.15 507.41 1184.10 477.43
00001819 00000138 821.57 93.75 372.49 534.64 989.85 327.51 1144.79 281.48 1151.46 382.04 1056.65 516.51 1181.39 478.82
00001820 00000139 819.05 92.05 372.88 535.99 987.66 326.78 1143.87 279.12 1151.31 381.27 1056.02 516.41 1181.50 477.40
00001821 00000140 817.24 91.95 372.18 535.36 986.85 326.42 1142.51 279.82 1150.39 380.01 1054.49 514.94 1180.04 476.96
00001822 00000141 815.69 92.60 373.19 534.59 985.21 324.83 1142.98 278.99 1149.94 379.07 1054.43 515.25 1180.47 477.60
00001823 00000142 812.12 91.68 376.00 534.79 982.21 322.97 1140.88 275.78 1148.32 378.60 1053.05 515.05 1179.06 476.24
00001824 00000143 811.45 91.41 375.42 533.24 981.00 322.71 1139.74 274.82 1147.06 378.49 1052.25 514.65 1178.13 475.22
00001825 00000144 809.25 91.65 377.16 532.99 979.52 321.60 1138.68 275.45 1146.56 376.75 1051.84 513.94 1178.28 475.83
00001826 00000145 807.55 91.53 376.68 532.88 979.40 320.51 1137.56 273.94 1146.66 376.12 1051.86 514.05 1177.01 475.65
00001827 00000146 805.51 90.96 376.22 532.78 978.20 320.38 1137.28 274.73 1146.33 376.33 1050.58 513.81 1176.03 476.02
00001828 00000147 803.89 89.40 376.34 534.10 977.03 320.97 1135.71 275.62 1144.39 376.33 1049.60 513.68 1174.87 476.08
00001829 00000148 802.07 88.67 376.71 533.31 974.40 320.20 1135.51 276.04 1142.29 376.08 1047.80 512.96 1174.36 476.01
00001830 00000149 800.94 88.22 376.45 533.56 973.79 317.13 1134.17 274.02 1141.73 376.35 1046.09 511.66 1172.10 475.59
00001831 00000150 799.93 87.43 375.84 533.33 972.71 315.26 1133.83 273.97 1140.54 375.79 1044.75 510.58 1170.80 475.86
00001832 00000151 799.16 87.21 375.83 532.25 972.39 314.04 1134.01 273.33 1140.53 375.17 1044.52 509.77 1170.61 475.40
00001833 00000152 799.30 87.83 375.96 530.62 971.91 313.98 1133.54 273.14 1139.94 374.30 1045.39 509.64 1170.77 475.11
00001834 00000153 799.21 88.25 376.09 529.93 971.64 313.92 1133.37 273.83 1139.14 374.10 1045.39 509.01 1170.61 475.08
00001835 00000154 799.24 89.29 376.53 528.72 972.22 316.82 1132.93 276.79 1139.22 373.58 1045.75 508.93 1170.59 475.25
00001836 00000155 799.96 90.30 375.92 527.18 971.13 317.90 1134.10 278.84 1137.95 373.31 1045.59 509.25 1171.70 476.33
00001837 00000156 800.24 91.91 376.30 525.39 971.49 318.89 1134.50 279.76 1137.96 373.42 1045.24 508.90 1171.46 476.02
00001838 00000157 801.93 91.88 374.37 525.46 972.25 318.72 1134.75 279.10 1139.79 372.98 1046.15 508.81 1172.25 475.68
00001839 00000158 803.10 94.58 374.17 522.45 972.58 318.76 1134.64 278.97 1139.66 372.33 1046.74 508.46 1172.13 475.32
00001840 00000159 804.86 94.98 372.17 521.70 972.94 319.23 1135.11 280.27 1139.43 374.09 1045.94 509.23 1171.05 476.80
00001841 00000160 806.25 96.75 370.75 520.83 973.18 318.60 1134.40 280.65 1138.87 374.13 1046.60 508.46 1171.24 476.91
00001842 00000161 806.23 97.50 371.04 519.82 972.29 317.91 1133.47 279.64 1137.26 373.48 1046.56 509.31 1171.09 477.59
00001843 00000162 805.59 95.23 370.71 521.52 973.84 320.09 1134.78 280.39 1140.28 373.45 1047.88 509.27 1172.91 476.21
00001844 00000163 807.21 95.02 368.53 521.63 974.44 320.22 1134.49 279.64 1140.91 374.06 1048.23 509.60 1173.50 475.70
00001845 00000164 808.09 94.46 368.10 521.68 976.00 321.34 1134.66 279.84 1142.06 374.68 1048.57 509.16 1173.62 474.55
00001846 00000165 808.75 95.77 367.25 519.98 976.42 321.60 1134.63 280.83 1141.60 374.10 1049.01 508.66 1174.43 474.52
