Video ID: 	rrp4jM4_guM
H: 	1080
W: 	1920
FPS: 	25.0

FRAME INDEX X0 Y0 W H [Landmarks (5 Points)]

00032518 00000000 972.94 153.93 327.78 518.53 1022.74 362.90 1166.38 357.81 1063.23 453.83 1039.03 543.76 1162.29 540.70
00032519 DELETE   972.42 153.15 329.36 525.77 1021.76 363.04 1166.25 357.44 1061.25 453.73 1038.85 548.97 1160.89 545.77
00032520 DELETE   979.62 158.57 330.06 526.56 1021.14 364.70 1164.70 359.09 1058.90 448.83 1040.14 547.85 1160.01 546.27
00032521 00000003 978.33 158.28 330.57 527.23 1020.16 365.35 1164.05 360.14 1058.73 450.79 1039.24 549.09 1159.64 547.68
00032522 00000004 971.41 153.29 328.95 530.06 1019.95 363.61 1165.55 357.58 1060.07 455.49 1037.08 553.12 1160.64 549.59
00032523 00000005 971.04 153.82 329.04 523.77 1019.17 364.08 1164.91 358.77 1059.24 456.01 1035.96 551.15 1158.43 548.09
00032524 00000006 970.70 154.26 327.59 516.00 1018.77 363.83 1164.30 359.20 1060.35 455.94 1034.80 548.42 1157.66 545.66
00032525 DELETE   970.45 154.40 326.56 512.66 1018.75 362.79 1164.03 359.24 1060.19 455.32 1033.88 547.08 1156.02 545.04
00032526 00000008 970.22 154.81 326.27 510.41 1018.49 362.38 1163.68 359.01 1060.39 455.18 1033.55 546.47 1154.98 544.51
00032527 DELETE   970.82 154.62 325.62 509.18 1018.98 361.70 1163.97 358.57 1060.54 454.63 1033.59 546.00 1154.24 544.22
00032528 DELETE   971.40 153.95 325.13 510.20 1019.53 361.74 1163.70 358.69 1059.80 454.24 1033.35 545.99 1153.76 544.30
00032529 00000011 971.64 153.51 325.02 509.56 1019.92 361.45 1163.57 358.45 1059.70 453.64 1033.31 545.47 1153.58 543.83
00032530 00000012 971.97 152.46 325.00 510.68 1019.91 361.23 1164.04 357.72 1059.97 452.85 1033.22 545.37 1153.58 543.45
00032531 00000013 972.18 151.89 325.39 510.13 1020.25 360.84 1164.40 357.84 1059.87 452.56 1032.93 545.20 1153.23 543.69
00032532 00000014 972.74 152.60 325.54 509.82 1020.59 361.02 1164.72 358.31 1059.58 452.47 1033.01 545.28 1152.95 544.00
00032533 00000015 973.22 153.55 324.45 510.43 1020.90 360.55 1164.94 357.50 1059.60 452.15 1034.21 546.09 1152.48 544.63
00032534 00000016 973.48 153.32 324.12 518.82 1021.11 360.57 1164.87 356.85 1058.51 451.48 1035.67 547.96 1152.75 546.21
00032535 00000017 973.71 153.58 323.45 522.27 1021.63 360.86 1164.07 356.50 1058.56 451.51 1037.51 549.24 1152.38 547.30
00032536 00000018 973.95 152.88 323.19 526.79 1021.93 361.09 1163.78 355.83 1057.29 450.59 1038.31 551.47 1151.87 549.04
00032537 00000019 973.73 153.29 323.69 530.12 1021.80 361.27 1163.93 355.37 1056.84 450.00 1038.64 553.36 1152.79 550.50
00032538 00000020 973.89 153.22 323.20 531.88 1021.79 360.96 1163.69 354.76 1056.10 448.67 1038.84 554.56 1151.47 551.61
00032539 00000021 973.92 152.56 323.64 536.04 1021.72 360.68 1163.28 354.37 1055.35 448.46 1038.87 555.70 1151.53 552.76
00032540 00000022 973.70 151.77 323.91 537.57 1021.53 360.74 1163.52 354.29 1055.23 448.22 1038.88 556.63 1151.24 553.63
00032541 00000023 974.20 150.86 324.29 540.11 1021.53 360.96 1163.11 353.65 1054.45 448.73 1040.61 558.15 1152.33 554.51
00032542 00000024 978.85 158.03 326.87 530.14 1021.63 359.84 1161.23 356.57 1056.56 443.29 1044.48 553.81 1147.69 554.86
00032543 00000025 978.86 158.53 327.53 529.55 1021.16 359.39 1161.29 355.30 1056.38 442.77 1045.23 552.48 1148.46 553.15
00032544 00000026 979.16 158.28 327.80 529.04 1021.29 358.33 1162.28 354.00 1057.57 442.58 1046.19 552.62 1148.09 553.30
00032545 00000027 976.83 156.91 324.31 532.41 1022.29 357.31 1165.59 353.51 1052.00 441.22 1048.20 555.99 1144.55 550.94
00032546 00000028 976.76 158.25 323.85 533.35 1021.64 358.26 1165.29 353.68 1051.57 442.95 1048.13 557.76 1145.35 552.16
00032547 00000029 980.16 157.83 328.59 533.09 1020.55 357.01 1162.64 353.47 1055.91 445.74 1045.50 556.23 1148.15 557.70
00032548 00000030 980.20 156.25 331.16 534.86 1020.61 358.27 1164.18 353.26 1057.94 447.21 1047.35 555.36 1154.26 555.07
00032549 00000031 980.16 156.18 331.41 536.03 1021.64 358.56 1164.83 354.37 1060.17 448.75 1048.49 553.52 1158.53 553.43
00032550 00000032 979.20 155.57 332.90 539.63 1019.96 360.10 1165.71 355.10 1058.11 449.36 1046.14 556.76 1159.58 555.89
00032551 00000033 979.75 153.37 333.19 541.65 1019.55 362.87 1167.61 356.30 1057.30 449.67 1045.86 556.15 1164.75 553.29
00032552 00000034 978.70 153.23 334.15 539.89 1018.80 362.95 1167.86 356.23 1058.10 449.65 1045.30 555.50 1165.10 552.64
00032553 00000035 978.50 154.18 334.86 537.97 1018.43 362.72 1167.45 355.37 1057.30 448.37 1044.00 553.89 1164.79 550.69
00032554 00000036 978.32 155.14 335.26 536.25 1017.85 362.93 1166.83 356.15 1056.08 448.24 1041.72 551.70 1165.22 548.90
00032555 00000037 978.79 155.04 334.91 534.43 1018.33 363.12 1167.26 355.71 1056.64 447.62 1041.20 549.79 1166.68 546.40
00032556 00000038 980.53 155.13 333.17 532.45 1020.02 360.08 1168.53 353.13 1056.85 446.26 1041.47 547.16 1168.50 544.14
00032557 00000039 980.86 153.44 333.24 532.58 1020.58 359.43 1169.39 352.75 1057.91 446.10 1041.55 546.49 1168.62 543.65
00032558 00000040 980.75 153.65 332.94 531.75 1020.83 358.52 1169.92 352.84 1057.75 445.01 1040.78 547.25 1165.11 545.51
00032559 00000041 980.54 153.45 332.93 532.24 1020.43 358.25 1170.12 352.99 1057.60 444.73 1039.85 547.92 1163.99 546.64
00032560 00000042 981.41 152.29 332.27 532.39 1021.17 355.55 1170.27 351.20 1057.55 444.63 1040.27 547.60 1162.21 547.25
00032561 00000043 981.39 152.71 331.85 531.09 1021.44 353.27 1170.86 349.73 1057.69 443.73 1040.22 547.45 1160.42 547.85
00032562 00000044 983.20 153.02 331.12 531.54 1022.09 354.06 1171.58 348.40 1057.30 441.77 1040.77 548.17 1161.31 547.24
00032563 00000045 983.41 153.58 330.87 530.14 1022.81 352.33 1172.02 346.63 1058.55 440.47 1042.04 548.01 1159.46 547.28
00032564 00000046 983.40 154.24 331.53 528.08 1023.71 352.60 1171.98 346.30 1059.15 439.95 1043.53 547.82 1158.84 546.62
00032565 00000047 985.15 154.60 330.40 528.27 1024.60 352.21 1172.21 345.08 1058.62 437.68 1043.66 547.82 1158.42 546.22
00032566 00000048 985.27 155.16 330.27 525.93 1025.33 350.83 1172.45 344.02 1059.37 436.68 1044.32 546.63 1157.80 545.33
00032567 00000049 986.73 155.62 327.81 525.20 1025.28 362.01 1174.42 353.67 1059.10 436.24 1042.18 546.41 1162.47 543.68
00032568 00000050 976.35 149.67 335.65 535.33 1030.36 367.82 1179.03 362.50 1068.32 441.03 1048.38 550.81 1170.32 544.76
00032569 00000051 976.09 149.97 335.03 531.54 1029.73 364.27 1177.34 359.07 1066.46 442.49 1048.61 549.48 1168.66 543.66
00032570 00000052 978.67 147.54 329.85 526.71 1027.27 355.48 1172.30 348.61 1061.99 443.46 1042.59 547.72 1157.60 544.36
00032571 00000053 977.43 154.04 334.20 506.60 1027.69 358.62 1174.86 353.80 1065.90 440.40 1042.52 542.17 1155.37 538.43
00032572 00000054 976.18 153.47 336.26 500.54 1029.11 366.57 1175.85 361.47 1067.73 439.10 1040.61 540.35 1157.09 537.00
00032573 00000055 976.27 152.97 335.86 500.69 1028.74 364.88 1176.43 360.33 1067.74 438.82 1040.65 540.73 1156.12 537.86
00032574 00000056 975.91 152.49 335.46 500.86 1027.41 361.17 1176.16 356.15 1067.36 438.94 1040.43 541.39 1155.85 537.83
00032575 00000057 979.56 146.33 329.06 512.13 1028.89 353.84 1174.26 348.66 1064.81 441.12 1041.03 541.45 1156.92 539.22
00032576 00000058 979.84 145.28 328.89 513.78 1028.91 352.99 1174.28 347.62 1064.04 440.30 1040.79 541.54 1156.52 539.19
00032577 00000059 979.83 145.04 328.97 513.41 1029.10 352.75 1174.09 347.36 1064.16 440.39 1040.98 541.58 1156.53 539.18
00032578 00000060 977.97 150.79 334.61 503.09 1028.36 356.17 1175.66 351.50 1066.29 437.69 1041.16 539.71 1155.59 536.16
00032579 00000061 977.94 151.34 334.42 504.73 1028.37 355.91 1175.40 351.17 1066.19 437.76 1041.63 539.94 1154.77 536.35
00032580 00000062 978.47 151.43 334.10 505.90 1028.71 356.31 1175.16 350.42 1066.33 437.64 1042.65 541.25 1154.99 536.68
00032581 00000063 980.78 144.31 328.30 519.13 1030.24 353.50 1174.76 347.82 1064.68 439.52 1042.88 543.13 1154.42 540.74
00032582 00000064 980.78 142.54 327.34 508.05 1029.79 351.68 1172.43 349.45 1063.42 436.21 1044.49 535.07 1146.69 533.59
00032583 00000065 977.42 143.18 327.79 503.27 1033.64 350.35 1173.12 346.93 1058.01 421.53 1043.26 529.79 1136.46 526.94
00032584 00000066 976.48 131.14 329.48 504.10 1025.86 345.94 1170.57 336.21 1051.51 407.92 1031.75 519.11 1135.17 514.62
00032585 00000067 973.99 124.64 332.68 506.16 1027.40 331.31 1170.74 331.11 1059.68 408.06 1030.96 511.06 1137.17 511.49
00032586 00000068 981.12 128.22 327.19 506.22 1030.16 331.79 1167.95 333.31 1058.89 407.64 1035.85 511.58 1140.56 517.20
00032587 00000069 973.49 130.02 330.88 516.18 1033.98 339.30 1170.45 335.64 1051.22 403.31 1037.74 522.23 1127.42 519.51
00032588 00000070 970.18 136.51 335.35 522.16 1031.70 343.78 1171.21 338.98 1053.67 409.32 1040.59 536.66 1126.58 532.42
00032589 00000071 968.20 144.09 334.91 537.20 1027.90 349.08 1171.71 341.69 1054.33 417.79 1042.62 550.56 1129.27 543.47
00032590 00000072 970.29 149.63 332.57 520.20 1029.59 351.13 1170.39 349.43 1053.92 425.10 1041.69 544.17 1130.64 541.71
00032591 00000073 970.98 149.75 330.04 507.02 1026.90 348.08 1167.31 350.06 1048.34 425.69 1034.53 539.06 1124.54 540.16
00032592 00000074 969.56 145.07 331.52 507.00 1019.29 344.93 1161.90 342.62 1052.28 427.16 1026.03 534.66 1125.79 535.05
00032593 00000075 968.39 143.39 332.01 499.30 1017.42 344.67 1160.63 341.32 1051.18 424.78 1024.47 528.29 1126.94 527.80
00032594 00000076 968.10 142.89 332.99 496.65 1016.57 344.89 1160.48 340.52 1050.49 424.50 1024.23 527.52 1129.34 526.28
00032595 00000077 968.16 142.79 331.63 495.12 1016.41 346.56 1161.44 342.01 1050.62 424.92 1022.99 529.06 1132.16 527.71
00032596 00000078 967.90 141.64 331.45 498.23 1015.35 347.08 1160.46 342.42 1050.10 427.52 1023.73 531.02 1132.36 529.50
00032597 00000079 967.34 142.68 331.74 503.76 1015.32 347.88 1160.19 343.35 1049.95 430.76 1025.16 534.35 1132.75 532.89
00032598 00000080 965.07 142.24 332.13 507.36 1013.58 353.32 1158.91 349.78 1048.93 433.93 1023.22 538.12 1132.45 537.43
00032599 00000081 963.86 143.44 331.22 510.23 1012.26 356.67 1156.78 353.64 1044.51 437.94 1019.44 542.88 1131.55 542.23
00032600 00000082 955.06 148.37 338.59 505.14 1008.30 360.22 1154.55 359.05 1043.20 445.45 1017.59 542.90 1130.79 541.96
00032601 00000083 953.05 151.96 338.21 504.21 1006.94 361.22 1151.79 361.20 1041.66 449.61 1015.09 543.82 1128.56 543.88
00032602 00000084 951.80 153.33 338.83 505.96 1005.64 360.87 1149.01 362.79 1037.95 451.43 1011.53 543.51 1124.99 544.98
00032603 00000085 949.91 151.61 337.07 504.53 1004.25 360.38 1146.41 362.57 1034.16 448.48 1008.59 542.14 1119.45 543.91
00032604 00000086 954.19 145.71 330.17 506.03 1002.08 356.25 1145.23 357.22 1029.28 443.35 1006.80 540.87 1115.60 542.72
00032605 00000087 953.46 143.46 330.13 499.89 1002.29 352.50 1145.13 354.66 1028.21 436.43 1004.48 535.39 1110.82 538.64
00032606 00000088 950.50 142.27 332.43 491.94 1003.16 351.30 1145.52 352.16 1030.85 433.14 1005.42 530.33 1111.29 531.29
00032607 00000089 951.12 143.05 329.56 491.74 1003.35 350.56 1144.98 351.19 1031.51 432.95 1005.43 531.34 1107.38 532.31
00032608 00000090 955.35 146.02 328.15 502.02 1005.52 351.33 1142.37 350.32 1031.73 434.92 1010.19 539.16 1101.66 540.47
00032609 00000091 954.89 145.74 331.54 509.30 1006.73 355.14 1143.37 353.44 1034.59 436.44 1011.57 543.27 1100.92 544.49
00032610 00000092 956.15 146.85 328.99 529.44 1009.27 370.65 1152.85 365.87 1028.65 433.11 1013.40 558.73 1105.86 555.21
00032611 00000093 956.71 154.47 330.01 520.49 1007.12 373.54 1152.40 369.81 1030.31 440.96 1015.31 561.43 1110.84 558.50
00032612 00000094 959.32 157.34 330.43 518.76 1008.62 366.95 1147.76 370.27 1027.76 448.53 1012.88 553.06 1112.55 555.60
00032613 DELETE   958.10 156.47 331.64 517.56 1009.04 362.42 1149.31 367.16 1030.52 448.40 1013.29 550.58 1115.86 554.29
00032614 00000096 958.45 153.79 331.81 515.10 1011.64 358.22 1154.15 364.48 1037.57 443.54 1015.70 545.15 1118.53 550.56
00032615 00000097 956.00 153.44 331.34 513.55 1007.93 358.14 1154.13 360.33 1044.99 445.00 1014.37 542.93 1127.61 545.82
00032616 00000098 957.39 152.65 330.06 518.79 1010.38 357.76 1159.70 359.72 1050.22 445.32 1015.01 540.51 1142.10 542.73
00032617 00000099 958.80 152.82 331.13 526.69 1012.95 357.02 1162.45 357.12 1054.06 444.22 1019.08 541.18 1152.03 541.87
00032618 00000100 964.53 146.75 332.32 540.72 1013.77 358.22 1160.75 359.97 1044.06 441.39 1021.15 540.00 1146.43 544.28
00032619 00000101 958.79 148.41 331.33 530.10 1009.49 357.03 1158.07 351.86 1043.80 434.35 1017.93 541.59 1146.22 538.19
00032620 00000102 956.75 145.79 329.56 511.33 1006.64 350.43 1151.01 349.08 1038.70 429.64 1013.07 533.75 1124.77 534.27
00032621 00000103 949.83 143.30 334.98 499.81 1003.30 349.40 1148.40 347.64 1035.44 425.45 1007.12 525.13 1117.14 524.67
00032622 00000104 954.21 145.64 328.98 493.14 1004.25 346.53 1145.93 346.25 1034.50 424.20 1008.08 522.29 1110.37 523.82
00032623 DELETE   951.14 142.64 335.27 500.37 1004.44 349.56 1150.02 347.56 1037.15 423.80 1007.63 525.02 1117.17 524.49
00032624 DELETE   958.59 142.48 330.42 515.63 1011.28 353.50 1153.81 351.72 1044.76 428.67 1016.72 533.11 1125.20 532.86
00032625 DELETE   963.83 150.47 330.57 517.24 1013.78 362.74 1160.75 358.71 1053.75 431.80 1021.19 539.86 1135.00 539.19
00032626 00000108 966.37 153.35 332.13 519.22 1019.34 362.09 1169.12 360.18 1061.21 439.58 1028.57 542.67 1145.20 543.62
00032627 00000109 968.20 149.50 335.22 522.54 1023.20 359.47 1177.37 358.16 1068.09 445.49 1035.54 546.36 1155.36 547.52
00032628 00000110 975.12 151.21 333.61 520.66 1024.85 358.39 1178.69 362.07 1063.42 448.00 1033.00 536.85 1157.21 543.18
00032629 00000111 979.22 155.57 333.42 522.19 1031.65 354.52 1179.82 354.07 1075.27 440.51 1045.58 544.92 1156.48 548.61
00032630 00000112 982.90 157.50 331.27 523.27 1032.56 356.47 1186.29 357.80 1076.81 443.59 1043.11 541.45 1169.79 546.07
00032631 00000113 983.37 158.06 331.19 520.09 1034.42 356.01 1188.76 360.18 1080.89 446.71 1043.64 539.51 1173.61 546.32
00032632 00000114 976.60 158.40 331.99 510.69 1036.27 355.27 1192.62 358.77 1085.70 447.91 1043.74 538.54 1172.70 542.11
00032633 00000115 980.91 153.01 334.18 514.06 1039.93 355.12 1197.22 357.89 1092.07 447.09 1049.09 536.18 1176.02 539.11
00032634 00000116 984.99 152.31 332.47 512.37 1044.29 352.96 1199.18 355.29 1095.91 443.98 1054.72 533.82 1178.42 536.28
00032635 00000117 987.58 149.07 330.82 516.32 1045.03 350.96 1199.73 352.66 1096.14 440.33 1056.56 534.75 1176.52 536.84
00032636 00000118 986.41 148.37 331.46 518.19 1043.36 349.26 1199.86 351.10 1095.23 435.95 1054.68 536.00 1175.35 538.26
00032637 00000119 983.35 154.34 334.24 505.70 1045.20 349.04 1198.82 352.26 1096.86 434.65 1054.51 532.33 1166.68 536.11
00032638 00000120 982.53 153.19 334.71 502.13 1045.11 348.38 1198.65 351.31 1096.21 433.48 1052.24 530.54 1167.48 533.95
00032639 00000121 982.19 150.19 334.95 497.94 1045.97 348.65 1201.14 351.77 1099.16 433.58 1051.51 528.53 1173.82 531.79
00032640 00000122 985.56 147.21 332.10 502.34 1043.56 347.41 1204.07 350.21 1097.74 434.14 1054.20 530.52 1178.35 533.80
00032641 00000123 986.42 145.78 331.76 508.65 1044.36 347.55 1203.84 349.44 1098.59 434.19 1056.70 532.15 1179.75 534.64
00032642 00000124 985.49 144.71 332.86 510.64 1043.27 347.18 1204.58 348.19 1098.78 435.42 1056.43 532.77 1182.96 534.34
00032643 00000125 985.37 144.43 333.75 514.04 1042.99 347.19 1203.19 347.65 1097.28 434.53 1056.68 532.51 1182.04 533.65
00032644 00000126 987.30 145.21 332.69 514.70 1044.54 346.41 1203.02 346.93 1098.16 433.78 1057.11 531.46 1184.30 532.51
00032645 00000127 987.93 144.56 333.92 512.33 1046.20 345.48 1205.61 346.98 1100.71 434.64 1057.57 529.81 1188.94 531.44
00032646 00000128 989.69 143.93 331.87 508.66 1047.84 343.67 1205.96 345.74 1103.24 433.71 1057.29 528.08 1190.76 530.14
00032647 00000129 990.69 144.54 331.79 507.47 1049.46 344.81 1206.69 347.60 1104.36 436.63 1058.92 527.95 1191.95 530.46
00032648 00000130 991.92 147.79 330.65 506.26 1050.46 347.85 1207.31 351.83 1104.64 442.47 1059.34 530.30 1192.47 533.57
00032649 00000131 994.35 147.80 329.04 508.01 1052.25 349.93 1208.91 355.78 1104.95 446.18 1059.82 534.77 1191.19 539.73
00032650 00000132 996.45 146.43 327.34 514.05 1053.96 351.05 1210.88 357.27 1106.34 448.27 1062.57 538.62 1190.96 543.92
00032651 00000133 997.34 149.60 327.25 513.20 1055.54 352.12 1212.12 357.83 1108.18 448.54 1064.47 541.05 1190.42 546.07
00032652 00000134 998.99 148.80 326.76 516.84 1057.11 351.83 1213.51 357.13 1109.54 446.61 1067.83 542.55 1188.66 547.65
00032653 00000135 996.88 160.06 326.14 512.42 1059.27 348.39 1208.08 353.48 1101.46 439.22 1070.38 543.45 1176.19 550.11
00032654 00000136 997.78 158.24 324.42 514.31 1060.35 347.82 1207.91 354.13 1101.14 438.84 1071.61 543.26 1173.89 551.06
00032655 00000137 996.59 150.05 323.76 515.63 1055.40 349.74 1207.15 357.71 1101.39 444.30 1072.24 540.00 1172.93 545.66
00032656 00000138 996.89 149.57 323.87 517.49 1054.02 349.22 1205.75 358.23 1097.86 443.73 1067.09 536.77 1171.83 543.31
00032657 00000139 996.76 157.64 325.65 508.30 1058.51 347.82 1205.45 354.88 1094.54 437.86 1064.63 529.05 1179.24 537.16
00032658 00000140 997.40 150.53 326.34 517.61 1052.13 346.99 1208.22 353.29 1101.70 434.72 1061.04 536.45 1177.13 542.98
00032659 00000141 1000.81 157.86 329.26 519.55 1056.25 349.76 1204.85 351.52 1102.05 433.21 1060.89 535.41 1180.17 540.47
00032660 00000142 999.54 158.41 331.12 519.76 1054.51 344.89 1205.73 347.59 1099.95 427.66 1054.36 531.36 1178.45 537.30
00032661 00000143 996.71 153.87 333.20 523.13 1052.39 340.46 1205.74 345.72 1094.80 424.46 1046.42 526.62 1173.48 534.86
00032662 00000144 992.32 149.47 336.33 522.84 1050.37 337.23 1206.20 345.37 1092.44 422.44 1043.19 522.93 1171.34 533.43
00032663 00000145 993.63 153.72 333.95 518.15 1052.32 341.05 1205.09 347.57 1095.38 426.00 1046.30 527.34 1167.19 536.88
00032664 00000146 995.84 156.16 332.00 514.55 1054.32 346.14 1200.89 350.20 1097.20 430.91 1052.46 535.13 1159.77 543.13
00032665 00000147 983.49 151.17 332.11 518.59 1046.82 343.00 1198.88 353.30 1086.64 431.84 1054.48 540.45 1149.10 548.43
00032666 00000148 980.73 149.25 334.77 522.91 1044.67 344.67 1195.45 354.82 1082.00 436.76 1053.95 543.22 1148.88 550.86
00032667 00000149 977.30 151.10 334.82 522.66 1040.06 345.17 1189.50 356.11 1071.92 438.25 1046.58 543.54 1144.10 551.85
00032668 00000150 975.48 148.98 338.57 534.52 1034.27 346.15 1186.64 358.13 1069.84 446.06 1035.69 545.47 1150.97 555.10
00032669 00000151 974.10 148.86 339.53 536.94 1031.23 352.11 1183.07 368.41 1065.68 446.10 1029.10 543.74 1150.37 556.49
00032670 00000152 982.55 155.56 329.49 521.41 1028.89 353.47 1176.49 370.11 1056.10 443.17 1024.58 533.63 1146.13 551.51
00032671 00000153 980.37 153.62 330.27 521.49 1026.90 351.27 1175.13 366.99 1054.37 441.66 1022.62 533.03 1144.54 550.10
00032672 00000154 972.68 148.62 338.17 527.40 1028.50 351.23 1178.08 366.73 1059.56 440.86 1026.26 538.62 1149.45 550.17
00032673 00000155 972.59 146.47 338.93 525.11 1028.37 348.82 1179.59 362.90 1061.34 438.01 1027.22 538.00 1149.47 548.56
00032674 00000156 973.85 146.39 340.38 520.63 1028.23 347.47 1180.57 361.10 1063.33 439.90 1028.55 536.93 1150.93 547.20
00032675 00000157 974.38 151.69 334.96 509.41 1036.00 347.30 1182.53 364.48 1062.17 434.72 1032.35 530.80 1139.41 544.14
00032676 00000158 975.29 151.93 336.22 508.86 1036.87 347.74 1183.05 365.62 1063.70 438.34 1033.49 531.22 1141.71 544.97
00032677 00000159 975.19 153.49 336.85 506.91 1036.53 346.76 1183.85 365.82 1063.70 439.55 1032.10 530.65 1142.02 545.35
00032678 00000160 972.76 149.87 341.77 504.93 1031.32 349.56 1181.59 363.22 1066.68 443.34 1027.79 532.12 1146.09 543.60
00032679 00000161 972.72 150.17 341.27 503.50 1031.06 349.72 1181.99 362.88 1067.72 443.57 1027.84 532.48 1146.34 543.65
00032680 00000162 974.05 149.50 340.26 504.05 1031.85 348.90 1183.78 362.32 1068.88 443.65 1028.50 532.51 1148.38 543.92
00032681 00000163 975.56 150.30 337.43 507.47 1034.83 348.89 1187.34 362.96 1069.77 443.76 1029.08 531.83 1150.45 543.50
