Video ID: 	Ch9y34ah7UY
H: 	1080
W: 	1920
FPS: 	25.0

FRAME INDEX X0 Y0 W H [Landmarks (5 Points)]

00001625 00000000 816.38 77.62 341.47 535.51 869.55 307.42 1000.53 306.10 907.51 391.90 888.67 482.58 990.15 483.58
00001626 00000001 823.16 93.26 334.43 516.95 872.04 303.11 1002.09 305.74 909.19 390.03 892.00 477.14 993.68 481.72
00001627 00000002 824.26 98.02 335.86 512.07 878.02 308.67 1011.57 310.36 918.55 391.86 894.84 478.69 1001.67 482.55
00001628 00000003 824.91 96.60 338.07 514.11 884.13 312.65 1017.97 312.06 928.88 392.51 901.12 482.79 1007.72 484.46
00001629 DELETE   823.90 99.27 342.52 514.38 884.60 310.60 1025.33 307.09 935.88 392.96 903.63 486.60 1013.26 486.03
00001630 00000005 824.79 96.11 342.30 518.25 885.78 309.27 1026.07 306.03 938.23 393.64 904.81 488.50 1014.15 488.03
00001631 00000006 824.24 94.89 344.40 521.13 884.74 307.22 1026.57 303.05 937.90 391.94 903.90 488.70 1014.54 487.62
00001632 00000007 822.85 93.94 343.32 522.23 883.40 307.52 1025.01 302.88 936.36 391.85 903.64 489.18 1012.96 487.54
00001633 00000008 821.82 94.86 342.85 525.89 881.87 309.70 1023.45 304.40 934.01 394.85 902.52 491.53 1013.59 489.14
00001634 00000009 822.14 99.61 342.74 525.46 882.52 313.80 1024.60 308.33 934.01 400.80 902.45 495.92 1014.98 493.35
00001635 00000010 822.12 102.05 344.14 525.01 882.24 318.13 1025.31 311.27 934.20 405.58 903.31 499.74 1017.58 495.92
00001636 00000011 821.86 100.59 344.77 526.89 881.89 319.08 1025.34 311.96 934.19 406.40 903.31 500.26 1018.09 496.16
00001637 00000012 820.97 100.33 344.76 526.72 881.17 318.43 1023.35 312.69 932.63 407.00 902.43 499.20 1016.63 496.19
00001638 00000013 820.34 99.59 343.77 526.17 878.94 315.40 1019.28 310.21 928.18 403.01 900.45 496.63 1012.77 494.19
00001639 00000014 821.25 94.37 343.25 528.79 877.30 311.76 1017.95 307.87 925.78 399.59 898.75 493.30 1010.45 492.07
00001640 00000015 822.14 94.70 342.16 529.02 877.31 311.95 1017.34 307.26 925.02 398.87 899.20 493.55 1011.16 491.64
00001641 00000016 821.33 95.17 343.17 528.50 877.05 311.95 1018.45 307.46 925.47 398.82 898.87 493.28 1011.78 491.56
00001642 00000017 820.50 97.58 342.85 526.37 876.82 312.66 1018.21 307.93 925.59 399.47 898.85 493.60 1011.70 491.66
00001643 00000018 820.48 94.13 342.23 530.26 876.43 312.02 1016.63 307.94 924.90 399.30 898.89 493.44 1010.97 491.90
00001644 00000019 820.66 93.62 342.24 530.14 876.14 311.29 1016.80 307.01 924.88 398.60 898.93 492.91 1011.27 491.19
00001645 00000020 820.68 94.08 341.65 529.65 876.30 310.85 1015.96 306.41 924.66 397.52 899.36 492.86 1010.06 490.99
00001646 00000021 820.81 92.98 341.78 530.20 876.09 310.39 1015.61 305.73 924.71 396.55 899.70 492.60 1010.07 490.56
00001647 00000022 821.54 93.61 340.95 529.42 876.40 310.36 1015.58 305.85 924.57 396.63 899.62 492.32 1009.90 490.45
00001648 00000023 821.56 94.62 341.32 529.40 877.85 310.76 1017.42 306.72 926.15 396.96 899.75 492.79 1011.28 491.32
00001649 00000024 822.19 89.16 343.14 537.68 878.51 310.48 1021.89 308.58 927.89 398.39 899.55 492.92 1016.37 493.04
00001650 00000025 821.66 91.93 344.67 537.63 879.23 312.65 1023.34 312.10 928.17 403.01 897.33 492.91 1019.82 493.79
00001651 00000026 823.81 98.31 340.63 534.05 881.21 317.29 1025.40 316.79 931.11 411.44 899.17 498.64 1021.25 499.34
00001652 00000027 824.44 98.85 340.46 537.75 882.68 319.59 1026.80 316.88 933.78 414.30 903.38 503.53 1023.80 502.33
00001653 00000028 825.30 99.85 339.71 532.11 884.64 319.16 1027.82 314.34 937.50 411.58 906.85 503.05 1023.04 500.28
00001654 00000029 826.11 92.33 338.63 535.77 884.18 314.61 1027.78 308.40 938.21 406.03 908.81 500.08 1022.91 496.25
00001655 00000030 825.87 92.48 339.98 534.77 882.79 314.63 1025.80 307.46 936.28 403.69 907.57 498.62 1021.83 494.17
00001656 00000031 825.93 95.03 340.51 531.64 882.80 315.19 1025.85 308.34 934.98 405.78 906.73 499.10 1022.20 494.90
00001657 00000032 826.47 95.06 340.43 532.84 882.40 316.70 1025.13 308.86 933.58 406.65 906.21 499.61 1022.77 494.64
00001658 00000033 825.41 100.24 341.51 527.63 882.21 316.85 1024.60 306.72 933.96 403.20 905.46 498.84 1022.21 492.31
00001659 00000034 825.87 105.93 343.42 520.24 884.54 322.00 1023.17 311.02 933.66 403.61 905.00 495.03 1026.52 487.50
00001660 00000035 822.31 112.17 347.49 511.90 885.74 326.96 1025.93 315.67 937.23 402.89 904.93 490.37 1029.75 482.38
00001661 00000036 824.30 89.54 346.39 533.81 883.76 322.47 1025.17 317.26 934.48 408.20 902.50 491.42 1029.33 487.85
00001662 00000037 826.89 88.72 344.53 535.96 883.15 320.03 1023.88 315.63 931.43 411.62 900.98 493.52 1026.88 490.77
00001663 00000038 825.74 91.79 345.29 534.70 880.27 316.69 1022.06 311.86 926.73 408.12 898.96 494.11 1020.80 491.67
00001664 00000039 824.92 96.18 342.83 529.97 877.74 315.46 1018.40 309.88 923.84 403.64 897.90 494.07 1016.41 491.31
00001665 00000040 823.00 97.01 344.31 524.83 875.87 314.73 1017.68 309.69 922.49 404.61 896.12 492.52 1015.33 490.22
00001666 00000041 820.05 97.39 345.66 521.19 874.43 315.82 1017.24 310.75 922.86 406.10 895.73 492.05 1015.85 489.43
00001667 00000042 818.00 98.67 346.33 519.24 873.92 315.55 1017.01 311.05 923.32 405.81 895.39 491.78 1015.13 489.64
00001668 00000043 816.90 98.32 345.81 518.93 872.61 313.64 1016.29 309.61 923.13 403.30 894.21 489.51 1013.98 487.93
00001669 00000044 817.11 94.28 344.50 520.26 870.10 311.35 1011.95 306.87 918.70 398.08 894.31 487.56 1008.65 485.77
00001670 00000045 810.41 76.96 348.74 538.02 868.24 311.21 1008.06 307.19 913.93 395.87 890.72 485.81 1001.26 484.19
00001671 00000046 809.12 78.55 348.64 537.39 867.30 311.49 1007.58 306.58 913.45 394.21 889.40 486.85 999.73 484.59
00001672 00000047 810.60 80.52 345.37 538.28 865.68 313.26 1004.11 308.19 909.55 395.54 887.49 489.57 996.62 487.19
00001673 00000048 811.40 84.10 343.43 537.11 864.03 315.50 1000.62 310.31 905.91 400.81 887.01 493.86 994.02 491.50
00001674 00000049 816.15 95.14 337.88 525.33 864.71 313.40 1001.48 309.14 907.02 399.95 888.56 495.42 996.63 493.86
00001675 00000050 816.08 92.03 338.01 528.31 864.90 311.80 1000.67 309.68 905.92 399.00 888.00 493.33 995.51 493.54
00001676 00000051 812.72 83.06 342.08 536.46 862.66 313.96 998.12 309.56 901.81 399.45 884.90 494.05 989.08 492.29
00001677 00000052 813.35 86.38 339.96 531.11 862.58 313.80 997.69 309.82 899.45 398.36 882.29 493.23 985.80 491.87
00001678 00000053 812.77 86.06 340.38 531.80 862.02 313.16 996.61 310.29 898.49 399.45 881.64 493.94 983.52 493.53
00001679 00000054 813.26 87.70 339.46 532.30 862.29 313.23 996.41 310.70 898.54 400.97 881.37 495.19 982.82 495.18
00001680 00000055 814.41 87.42 339.40 532.67 862.93 313.60 996.32 312.00 897.52 402.20 881.27 495.76 981.94 496.56
00001681 00000056 814.43 88.06 339.59 531.94 862.55 313.79 996.49 312.37 896.81 402.65 880.81 495.70 981.90 496.54
00001682 00000057 816.81 95.32 335.91 521.33 862.35 310.62 996.88 311.68 898.81 400.16 882.47 495.05 986.08 498.15
00001683 00000058 814.39 87.34 339.76 532.61 861.81 313.36 996.11 312.06 895.78 402.90 879.79 495.35 981.67 496.23
00001684 00000059 814.29 85.81 339.88 534.62 862.04 313.67 995.97 312.67 895.94 402.82 879.73 495.69 980.91 496.79
00001685 00000060 814.26 87.20 339.88 532.30 861.51 313.95 995.81 312.75 895.15 402.65 879.08 495.09 980.72 495.96
00001686 00000061 813.72 88.56 339.36 531.46 860.72 313.90 995.03 312.79 894.47 402.49 877.88 495.03 979.83 495.93
00001687 00000062 813.59 88.11 339.97 532.05 860.61 312.79 994.50 312.59 893.84 402.69 877.51 494.62 978.84 496.29
00001688 00000063 813.34 88.03 339.72 531.79 860.55 312.16 994.43 312.25 893.76 402.93 877.55 494.20 979.13 496.08
00001689 00000064 812.87 87.72 340.05 532.44 860.42 312.79 994.64 312.90 893.60 403.22 877.27 494.41 979.09 496.24
00001690 00000065 812.88 87.94 340.16 532.54 860.21 312.87 994.22 312.50 893.14 403.24 877.42 494.70 978.93 496.17
00001691 00000066 812.75 86.93 340.19 533.23 860.24 312.55 994.05 312.57 893.05 403.33 877.56 494.72 978.85 496.45
00001692 00000067 811.96 87.40 340.76 532.87 860.04 312.95 994.39 312.84 893.53 403.38 877.72 495.01 979.20 496.56
00001693 00000068 811.80 87.49 341.06 532.88 860.32 313.02 994.89 313.00 893.96 403.80 877.57 495.39 978.83 497.12
00001694 00000069 811.50 88.28 341.41 532.33 860.05 313.21 995.01 313.03 894.04 404.06 877.49 495.39 979.31 496.93
00001695 00000070 811.43 88.78 341.49 532.33 859.99 313.42 995.73 313.46 894.20 404.38 876.84 494.86 979.97 496.63
00001696 00000071 813.98 96.62 337.41 521.28 860.61 310.59 996.51 313.74 896.82 401.54 878.97 494.63 983.92 499.18
00001697 00000072 811.52 88.07 341.34 535.53 861.10 314.38 995.75 314.81 894.56 405.02 876.48 494.35 980.45 496.58
00001698 00000073 812.11 88.34 341.63 535.79 860.62 314.84 996.67 315.28 893.96 406.03 875.11 494.23 981.79 496.45
00001699 00000074 813.05 89.89 340.94 534.25 860.82 315.75 997.63 315.79 894.55 406.66 875.20 494.52 982.73 496.58
00001700 00000075 813.35 85.62 340.26 538.69 861.27 316.11 997.53 315.55 895.25 405.89 877.76 494.96 984.12 496.59
00001701 00000076 817.02 94.45 335.93 531.19 863.25 312.69 997.73 313.58 899.39 402.44 885.00 499.46 988.56 502.35
00001702 00000077 817.57 96.41 335.72 532.97 864.61 314.21 997.00 313.26 901.06 403.06 889.33 503.11 989.11 504.47
00001703 00000078 818.61 96.20 335.34 532.25 865.05 313.90 997.79 312.72 901.36 401.41 889.31 502.10 989.85 503.28
00001704 00000079 818.03 95.25 335.93 531.53 864.56 313.78 997.79 312.59 901.66 401.45 889.17 501.91 990.24 503.07
00001705 00000080 818.47 94.88 336.96 530.57 864.85 315.43 999.05 314.28 902.30 402.00 889.16 503.09 991.44 504.25
00001706 00000081 817.55 93.42 337.20 530.16 864.84 314.46 998.60 315.11 902.88 402.90 888.60 502.96 988.54 505.80
00001707 00000082 817.09 92.78 336.55 530.36 864.15 311.89 996.54 313.54 900.93 402.44 887.08 500.57 985.78 504.29
00001708 00000083 816.54 91.69 335.41 529.97 863.66 309.91 993.40 311.75 899.09 400.36 886.94 498.34 983.17 502.17
00001709 00000084 816.96 93.31 334.91 532.52 864.84 310.26 993.55 311.29 899.86 399.80 888.58 499.84 983.35 503.17
00001710 00000085 817.94 95.41 335.91 532.65 866.25 312.65 997.87 313.32 902.55 402.35 890.06 504.34 986.29 507.44
00001711 00000086 819.73 94.60 335.12 534.57 866.90 313.52 999.21 312.62 903.34 400.48 890.54 504.27 988.60 506.13
00001712 00000087 821.78 98.18 333.23 526.87 870.30 316.68 1001.15 314.29 906.66 399.89 894.09 500.85 994.63 501.07
00001713 00000088 822.83 105.44 336.90 517.92 874.59 319.64 1010.55 315.00 915.45 399.05 895.42 496.06 1003.93 494.34
00001714 00000089 826.07 103.00 340.83 521.51 879.40 318.57 1019.01 313.97 922.08 405.40 897.48 495.15 1014.87 493.54
00001715 00000090 827.94 97.68 345.30 523.86 881.51 316.39 1025.83 311.23 928.48 405.68 900.91 494.65 1021.98 492.13
00001716 00000091 828.09 95.10 345.30 521.33 882.47 311.67 1028.66 304.85 932.45 398.91 903.07 490.38 1024.25 486.72
00001717 00000092 827.90 90.77 343.56 523.16 883.35 307.98 1026.51 301.68 933.88 394.49 904.68 488.14 1019.51 485.16
00001718 00000093 828.01 88.06 344.95 524.59 882.63 307.68 1029.65 305.13 934.21 397.13 901.94 484.93 1024.88 484.53
00001719 00000094 829.12 89.59 343.68 524.20 882.25 307.96 1028.28 306.79 931.49 398.95 900.49 485.11 1022.29 486.01
00001720 00000095 829.01 86.64 342.17 532.71 881.58 305.12 1026.70 303.57 929.01 393.97 897.97 486.37 1017.87 487.29
00001721 00000096 826.23 83.00 339.84 538.46 879.53 301.38 1016.62 299.16 923.11 389.15 900.87 490.94 1002.96 491.46
00001722 00000097 825.72 84.18 338.32 530.61 877.74 301.43 1012.73 300.24 920.18 388.57 900.35 489.35 998.03 490.81
00001723 00000098 825.16 88.47 341.11 524.24 877.28 303.57 1013.15 302.63 920.65 392.62 900.04 488.17 1001.46 489.70
00001724 00000099 826.19 92.11 341.79 520.66 877.86 306.06 1016.81 305.12 921.17 395.57 897.97 486.93 1006.88 488.42
00001725 00000100 826.57 92.22 342.32 522.59 877.92 307.07 1018.08 305.59 921.31 397.48 897.69 488.64 1008.52 489.65
00001726 00000101 826.32 93.08 344.99 522.31 878.73 308.66 1021.03 306.07 923.91 398.06 897.80 489.28 1012.07 489.29
00001727 00000102 826.09 91.99 345.99 519.53 878.67 307.42 1021.16 306.06 924.38 396.64 899.03 487.06 1012.19 488.06
00001728 00000103 825.43 87.64 346.60 523.04 877.96 307.17 1020.80 306.80 923.96 395.97 898.13 487.20 1011.15 488.98
00001729 00000104 826.66 88.23 343.77 522.10 878.55 306.46 1019.37 306.39 923.77 396.52 898.97 487.10 1009.08 489.31
00001730 00000105 826.20 84.86 344.31 526.41 878.44 306.75 1018.86 306.97 923.70 396.42 898.66 487.67 1007.40 490.10
00001731 00000106 825.95 86.09 343.85 524.81 878.29 307.55 1019.15 306.80 924.27 395.87 898.70 489.05 1007.28 490.76
00001732 00000107 825.32 87.08 343.58 521.97 878.01 306.55 1018.77 304.57 924.49 392.88 898.23 486.69 1006.78 487.52
00001733 00000108 824.08 82.22 344.33 525.69 877.83 304.68 1018.11 302.38 925.80 390.69 898.86 485.62 1005.82 486.18
00001734 00000109 823.52 80.14 345.19 527.61 877.04 304.25 1018.14 301.91 925.15 390.81 898.94 485.75 1006.28 486.20
00001735 00000110 824.09 84.31 344.46 525.25 877.30 305.07 1017.52 301.31 924.27 391.25 900.16 488.39 1006.32 487.61
00001736 00000111 824.11 83.22 344.35 532.27 878.28 305.60 1017.78 300.21 925.46 389.91 901.31 489.14 1008.60 487.00
00001737 00000112 825.60 85.84 342.25 534.83 879.09 306.79 1017.62 299.55 925.23 390.90 900.73 490.54 1009.10 486.88
00001738 00000113 828.23 87.13 339.10 538.51 880.52 307.97 1018.73 301.33 924.90 392.26 900.97 491.73 1011.88 488.48
00001739 00000114 828.76 89.61 341.44 533.21 881.62 309.69 1023.93 306.68 928.02 396.35 899.40 487.72 1020.12 487.17
00001740 00000115 828.52 88.50 341.80 533.48 881.49 309.51 1025.07 307.24 928.77 396.44 897.98 484.92 1022.83 484.81
00001741 00000116 828.07 88.04 342.65 532.98 880.50 309.13 1023.51 306.38 927.41 394.83 897.87 484.86 1020.81 484.53
00001742 00000117 827.83 87.34 341.65 532.15 880.36 307.63 1022.55 304.82 927.52 392.34 898.55 483.44 1019.48 483.10
00001743 00000118 827.11 89.36 342.27 529.03 880.03 306.72 1022.86 303.34 927.76 391.31 898.52 483.41 1018.72 482.77
00001744 00000119 826.27 87.72 342.58 530.16 880.13 306.94 1022.23 303.02 927.71 390.19 899.82 485.24 1016.90 484.23
00001745 00000120 826.99 88.10 342.32 529.81 881.94 306.69 1023.38 304.31 929.61 392.35 900.22 485.28 1016.03 485.46
00001746 00000121 826.91 88.91 342.31 531.08 881.90 306.99 1024.12 304.87 930.05 394.53 900.22 488.83 1014.68 489.25
00001747 00000122 826.20 90.97 342.38 529.24 881.98 308.61 1024.63 306.20 931.21 397.31 900.44 491.09 1014.67 491.29
00001748 00000123 826.32 92.25 342.46 527.95 882.29 308.96 1025.11 306.42 931.52 397.24 900.33 491.39 1014.48 491.52
00001749 00000124 826.74 91.07 343.25 529.59 882.16 309.08 1025.29 305.97 930.61 396.98 900.26 491.81 1015.23 491.40
00001750 00000125 826.62 87.41 343.76 532.32 882.09 308.28 1026.29 305.74 931.71 396.77 901.16 491.66 1016.01 491.62
00001751 00000126 826.47 90.20 344.08 528.57 882.37 308.72 1026.20 305.46 932.09 396.36 901.46 491.52 1016.16 490.84
00001752 00000127 826.72 89.84 344.29 528.17 882.20 308.72 1026.29 305.25 932.13 396.85 901.82 491.86 1016.37 490.99
00001753 00000128 827.37 87.62 343.49 530.43 882.56 308.72 1026.37 305.56 932.15 396.97 902.14 491.61 1016.71 490.98
00001754 00000129 827.24 86.82 344.08 530.45 882.55 309.08 1026.59 306.03 932.27 397.41 902.30 491.36 1017.05 490.86
00001755 00000130 827.94 85.61 343.67 529.65 882.60 309.11 1027.30 307.26 932.43 399.16 902.33 490.96 1017.75 491.38
00001756 00000131 827.21 90.05 344.41 525.69 882.80 310.77 1027.63 308.08 932.72 401.11 902.34 492.61 1017.65 492.23
00001757 00000132 827.13 88.86 344.94 526.32 882.26 311.86 1028.48 309.50 932.51 402.35 901.96 493.07 1019.34 492.77
00001758 00000133 826.58 88.63 345.22 526.25 882.23 311.31 1028.53 308.94 932.63 402.37 901.89 493.47 1018.83 493.15
00001759 00000134 826.34 89.13 346.14 526.16 881.70 312.16 1028.47 309.54 932.07 402.87 901.36 493.87 1019.54 493.31
00001760 00000135 826.35 88.90 345.49 526.05 881.16 310.87 1027.65 309.00 931.05 402.41 900.81 493.11 1018.14 493.21
00001761 00000136 826.88 90.45 345.54 524.41 881.39 311.83 1027.99 309.40 931.14 402.04 900.45 491.93 1019.38 491.66
00001762 00000137 826.92 88.76 345.19 525.50 881.40 311.03 1028.13 309.64 931.23 401.25 899.89 489.28 1019.52 489.91
00001763 00000138 826.07 90.14 345.32 523.39 880.84 309.68 1028.02 309.94 931.65 401.21 896.69 484.67 1020.70 486.72
00001764 00000139 825.96 88.99 345.74 530.07 881.10 309.95 1027.45 310.15 930.66 399.89 895.99 485.19 1021.53 487.10
00001765 00000140 825.96 91.35 345.03 534.07 881.91 311.21 1026.87 310.31 930.96 401.98 896.90 488.54 1021.98 489.60
00001766 00000141 826.45 93.99 343.75 535.51 883.01 314.87 1025.97 313.21 930.15 406.12 898.97 494.56 1020.47 494.89
00001767 00000142 825.48 99.70 343.96 527.44 881.54 317.09 1027.14 314.54 930.38 410.71 899.88 499.25 1018.93 498.94
00001768 00000143 824.54 97.00 344.44 528.71 881.30 317.04 1026.97 313.91 931.78 410.23 901.70 500.18 1018.16 499.37
00001769 00000144 826.07 95.54 343.94 530.23 881.12 314.68 1027.82 311.46 930.60 407.02 898.97 496.34 1020.90 495.55
00001770 00000145 826.30 94.34 343.78 529.84 880.21 310.32 1027.18 308.39 929.35 403.52 895.72 492.78 1018.29 493.27
00001771 00000146 826.04 93.24 343.57 531.78 878.47 310.16 1025.05 309.76 925.38 404.40 893.16 494.25 1014.56 496.08
00001772 00000147 823.06 100.58 342.46 525.01 877.49 315.18 1021.70 314.99 924.78 410.50 896.06 502.89 1007.42 504.81
00001773 00000148 818.61 104.74 343.43 523.20 877.89 320.12 1020.43 321.02 927.02 415.93 898.68 506.42 1005.24 509.18
00001774 00000149 815.89 103.62 344.13 533.12 877.19 323.34 1022.10 324.87 927.74 423.64 897.37 510.60 1008.18 513.69
00001775 00000150 814.04 103.47 344.87 540.75 875.20 326.89 1021.55 327.01 925.93 430.27 896.54 514.62 1014.21 516.07
00001776 00000151 812.08 105.92 344.17 539.03 875.18 327.50 1019.83 326.40 926.80 430.99 900.57 518.04 1011.28 518.93
00001777 00000152 811.51 102.27 344.31 540.19 873.30 326.87 1016.96 323.34 926.14 426.71 900.86 516.87 1010.58 515.47
00001778 00000153 810.91 97.42 343.29 532.50 870.99 322.20 1011.83 320.89 922.17 419.95 900.31 511.79 1002.36 512.31
00001779 00000154 812.65 93.65 340.92 527.06 869.11 315.33 1007.14 313.64 917.61 409.87 897.18 502.80 996.19 503.21
00001780 00000155 807.97 77.96 347.82 543.30 868.21 312.28 1007.52 307.30 917.23 402.40 896.26 496.95 997.68 495.14
00001781 00000156 809.17 76.86 344.73 539.34 866.15 310.31 1007.78 306.70 914.67 400.23 891.52 489.32 999.34 488.26
00001782 00000157 807.26 72.13 346.05 542.19 865.52 307.82 1007.86 304.24 913.27 394.82 889.10 485.35 999.45 484.14
00001783 00000158 803.84 67.92 346.22 544.22 865.32 306.19 1005.57 301.39 915.74 390.64 891.70 487.77 995.30 485.59
00001784 00000159 807.09 76.90 342.56 534.66 869.09 312.78 1008.76 307.93 916.91 388.39 889.85 487.34 993.70 485.69
00001785 00000160 806.26 74.37 341.14 535.78 868.57 309.91 1008.41 304.10 917.66 384.81 889.73 485.58 993.45 483.31
00001786 00000161 804.43 62.85 342.24 545.22 867.22 305.22 1003.38 300.17 915.80 383.31 891.43 483.96 992.06 482.04
00001787 00000162 800.88 60.70 343.43 544.57 864.22 302.34 1002.88 297.70 915.82 383.77 889.74 479.81 995.86 477.56
00001788 00000163 799.62 57.37 344.81 543.49 861.75 298.12 1002.31 294.11 913.60 381.88 886.14 476.81 994.35 475.12
00001789 00000164 799.03 55.79 344.33 542.25 861.14 294.75 1002.51 290.77 912.74 379.85 885.31 475.53 992.66 474.05
00001790 00000165 797.88 53.47 345.18 543.93 861.19 293.44 1000.67 288.94 911.95 377.54 885.26 476.74 988.60 475.13
00001791 00000166 797.38 57.11 346.42 543.22 864.26 302.38 998.19 285.63 906.35 369.85 890.39 482.64 981.88 469.61
00001792 00000167 798.23 57.49 345.56 542.68 864.48 301.43 998.00 284.12 905.79 367.82 889.47 482.28 980.41 468.70
00001793 00000168 800.08 58.02 345.19 541.49 865.76 300.65 998.60 283.01 908.33 366.85 892.24 481.57 981.15 467.64
00001794 00000169 801.23 59.42 345.22 542.15 868.21 301.66 1001.30 282.75 911.52 366.30 895.56 483.06 984.46 467.93
