Video ID: 	3OsQhtLHuZA
H: 	1080
W: 	1920
FPS: 	25.0

FRAME INDEX X0 Y0 W H [Landmarks (5 Points)]

00059391 00000000 918.27 71.61 581.67 861.89 1118.37 473.64 1366.35 438.72 1291.54 591.51 1194.84 759.72 1378.00 728.87
00059392 00000001 921.07 70.12 577.49 855.95 1118.25 474.29 1366.36 439.89 1290.16 594.69 1192.64 756.69 1376.57 726.39
00059393 00000002 920.84 69.98 577.96 857.11 1118.73 474.25 1365.76 440.46 1289.35 592.37 1190.52 754.68 1375.69 724.93
00059394 00000003 927.21 71.70 573.31 849.59 1121.82 473.76 1367.01 438.02 1291.03 588.21 1192.74 748.35 1375.73 717.64
00059395 00000004 926.64 73.70 575.28 855.46 1122.85 471.55 1367.55 439.47 1290.38 582.00 1191.42 748.50 1373.80 720.66
00059396 00000005 931.68 74.47 570.90 865.29 1126.44 468.09 1361.01 442.10 1284.67 578.08 1187.20 746.67 1365.66 723.93
00059397 00000006 922.36 71.11 578.97 867.61 1123.07 462.09 1352.31 438.43 1273.56 582.19 1178.16 742.97 1353.32 723.01
00059398 DELETE   914.47 75.69 589.63 859.80 1107.71 463.86 1346.14 443.63 1256.49 584.10 1161.80 743.55 1342.30 725.61
00059399 DELETE   913.06 66.40 582.82 853.04 1084.90 462.73 1333.83 440.30 1228.88 584.62 1138.28 739.44 1327.06 720.20
00059400 DELETE   906.15 61.77 589.88 848.90 1069.62 461.88 1325.55 441.64 1207.86 585.62 1122.59 741.92 1311.55 725.45
00059401 00000010 904.73 61.35 595.14 853.32 1055.79 455.42 1317.82 439.35 1184.67 577.57 1100.80 741.50 1294.95 728.73
00059402 00000011 912.74 61.30 592.15 850.29 1053.55 454.59 1310.76 437.34 1170.51 571.36 1093.58 737.94 1284.28 724.76
00059403 00000012 922.66 68.13 585.48 840.86 1057.83 447.42 1311.69 439.45 1163.88 569.31 1086.74 732.49 1273.79 726.85
00059404 00000013 936.39 70.46 578.72 832.96 1063.56 441.40 1319.61 436.58 1166.86 565.94 1090.72 730.26 1276.99 727.38
00059405 00000014 948.48 70.16 575.88 843.24 1074.18 434.69 1327.64 437.33 1172.89 563.30 1094.09 727.76 1282.31 731.04
00059406 00000015 952.10 64.71 579.17 840.27 1087.34 438.47 1342.30 443.93 1186.03 562.49 1100.65 721.40 1289.11 726.46
00059407 00000016 957.44 66.64 584.57 859.96 1102.84 435.15 1355.47 446.32 1198.73 563.26 1107.17 722.01 1298.73 732.04
00059408 00000017 966.37 64.24 584.02 874.21 1112.11 435.31 1363.82 448.99 1207.24 567.41 1115.32 727.85 1306.93 739.85
00059409 00000018 973.06 69.05 590.57 885.97 1116.67 437.70 1376.61 454.16 1211.63 571.90 1113.32 735.63 1315.43 750.44
00059410 00000019 990.20 67.32 582.79 893.16 1135.29 436.95 1386.29 460.49 1224.70 584.63 1125.99 738.51 1318.98 759.73
00059411 00000020 1000.92 100.16 580.31 855.78 1145.16 425.83 1393.53 460.49 1229.49 595.78 1132.13 730.61 1314.62 762.25
00059412 00000021 1004.94 98.07 576.24 854.76 1150.18 433.18 1399.57 462.16 1239.30 590.31 1141.42 739.44 1320.71 766.67
00059413 00000022 995.51 111.86 590.69 832.61 1155.20 433.07 1407.16 467.98 1250.18 595.47 1142.42 730.21 1325.79 763.17
00059414 00000023 1003.41 84.36 585.13 861.13 1149.99 438.28 1408.87 469.47 1246.83 595.25 1138.95 741.22 1334.58 768.65
00059415 00000024 1002.90 82.88 588.11 850.47 1152.35 437.79 1410.47 470.59 1248.95 594.42 1141.21 734.09 1336.23 762.63
00059416 00000025 1002.90 82.20 587.70 850.79 1152.58 438.55 1411.49 473.49 1248.97 597.16 1139.15 732.73 1337.76 763.10
00059417 00000026 1004.11 85.80 587.04 834.73 1152.57 439.50 1412.93 472.56 1250.26 597.86 1141.82 732.53 1337.75 761.11
00059418 00000027 1005.09 84.11 586.87 837.42 1153.12 437.80 1413.56 469.78 1251.24 595.65 1144.63 732.85 1339.47 760.53
00059419 00000028 1005.94 83.41 585.80 840.03 1152.73 436.80 1413.14 467.50 1249.78 592.86 1144.20 733.52 1338.72 760.19
00059420 00000029 1003.96 80.69 587.15 844.79 1153.08 437.86 1412.46 466.33 1252.13 591.00 1146.94 734.87 1339.31 759.74
00059421 00000030 1004.07 80.91 586.37 847.73 1152.68 437.65 1412.49 465.66 1252.53 591.74 1147.83 736.21 1340.33 760.66
00059422 00000031 1005.15 80.62 583.73 848.45 1152.51 438.39 1411.70 466.23 1251.10 591.53 1146.82 737.00 1338.66 761.44
00059423 00000032 1001.59 82.55 585.75 838.09 1149.99 437.10 1411.23 465.42 1251.60 591.69 1146.04 735.06 1338.12 759.67
00059424 00000033 1000.92 83.26 585.10 844.42 1147.59 434.84 1407.78 463.18 1249.13 590.10 1144.04 735.30 1337.49 760.07
00059425 00000034 996.87 81.55 587.83 858.80 1145.87 433.34 1406.58 462.92 1247.22 588.96 1138.37 735.93 1336.99 762.01
00059426 00000035 999.12 77.40 584.95 859.36 1145.89 433.56 1405.65 462.35 1245.91 587.57 1139.26 737.49 1334.08 762.92
00059427 00000036 997.69 102.46 585.45 851.87 1150.50 424.45 1397.28 455.56 1243.61 592.65 1154.13 729.46 1324.68 758.02
00059428 00000037 998.27 103.42 583.69 855.01 1150.95 424.33 1398.88 452.98 1246.40 591.62 1156.75 731.20 1325.47 757.84
00059429 00000038 995.98 102.17 586.03 858.03 1150.89 423.25 1400.25 452.88 1247.83 592.06 1156.06 731.35 1326.41 758.85
00059430 00000039 994.63 74.62 588.56 886.61 1146.59 432.02 1402.79 459.29 1246.12 582.32 1140.44 742.11 1334.76 766.06
00059431 00000040 994.65 104.01 587.14 857.30 1149.29 425.89 1398.67 455.13 1246.31 594.28 1155.52 734.28 1327.80 761.35
00059432 00000041 993.76 100.43 588.40 861.81 1148.26 427.42 1396.65 456.32 1244.73 598.55 1154.74 736.66 1326.97 763.36
00059433 00000042 996.89 100.29 584.87 861.85 1149.57 427.34 1394.70 458.80 1240.25 598.47 1152.31 736.64 1322.98 765.59
00059434 00000043 996.41 98.32 583.92 862.18 1148.58 427.04 1393.34 459.32 1238.13 600.83 1150.63 737.45 1321.14 767.04
00059435 00000044 996.82 98.75 583.00 864.01 1146.70 427.01 1391.68 459.57 1235.11 601.12 1147.84 738.68 1319.40 768.58
00059436 00000045 994.89 101.26 583.78 860.67 1145.21 426.18 1391.56 459.46 1234.84 601.47 1146.60 738.71 1318.77 769.14
00059437 00000046 989.82 72.96 590.52 896.97 1143.48 436.56 1394.30 462.88 1233.62 588.99 1134.19 748.16 1322.34 771.88
00059438 00000047 989.19 71.75 591.57 897.33 1142.49 437.10 1394.48 462.99 1233.15 588.74 1134.15 748.72 1322.78 772.03
00059439 00000048 988.96 68.98 591.16 900.60 1141.93 437.42 1394.08 462.59 1232.67 588.89 1133.64 748.68 1322.59 771.46
00059440 00000049 988.64 68.94 590.68 901.70 1141.52 437.43 1393.24 462.42 1232.63 588.66 1133.41 749.00 1322.41 771.61
00059441 00000050 987.54 68.76 591.28 902.97 1140.62 437.09 1393.23 461.55 1232.83 588.34 1132.71 749.26 1323.02 771.43
00059442 00000051 985.95 70.32 593.76 900.70 1139.18 436.84 1392.71 460.03 1232.08 587.67 1132.70 748.99 1323.94 770.01
00059443 00000052 984.78 71.01 593.88 900.31 1138.66 436.70 1392.47 460.41 1232.34 586.33 1131.70 747.85 1323.70 769.18
00059444 00000053 985.81 68.81 592.08 899.68 1138.35 436.37 1391.33 459.83 1230.87 584.97 1132.03 746.68 1322.32 767.65
00059445 00000054 982.15 67.78 593.39 902.34 1135.98 436.46 1389.80 459.82 1229.97 584.87 1128.95 745.85 1321.17 766.68
00059446 00000055 980.72 66.43 594.26 902.16 1134.36 436.35 1389.15 459.15 1228.84 582.98 1127.84 744.52 1321.62 764.90
00059447 00000056 978.72 65.67 595.21 904.37 1133.48 435.46 1388.09 457.84 1227.76 582.43 1126.68 744.13 1320.63 764.13
00059448 00000057 975.34 65.87 596.86 899.48 1130.60 436.33 1386.73 457.83 1226.94 582.07 1125.74 742.20 1320.75 761.30
00059449 00000058 971.24 67.16 598.75 891.81 1128.14 437.65 1385.37 457.02 1226.85 580.48 1125.72 741.73 1319.67 758.81
00059450 00000059 967.57 69.11 602.39 881.78 1126.37 437.95 1383.83 455.60 1226.63 577.49 1126.97 738.60 1319.82 754.03
00059451 00000060 966.17 70.13 600.37 862.54 1124.48 438.67 1382.37 453.24 1227.68 574.87 1130.53 733.95 1320.04 746.47
00059452 00000061 965.97 68.73 598.89 851.40 1122.40 438.02 1381.09 453.18 1225.72 572.91 1127.06 726.22 1318.29 739.28
00059453 00000062 964.89 69.26 598.73 830.08 1120.44 435.53 1381.10 450.58 1226.19 570.86 1128.36 719.06 1318.54 731.60
00059454 00000063 961.53 61.08 605.18 848.82 1123.50 433.73 1384.24 447.30 1232.95 570.65 1135.82 722.16 1325.83 733.41
00059455 00000064 972.40 65.29 596.45 846.95 1132.85 437.22 1391.39 445.59 1245.03 576.06 1151.71 731.17 1340.00 738.49
00059456 00000065 970.05 60.47 596.75 846.29 1138.78 438.99 1399.52 444.08 1263.29 576.26 1166.10 727.41 1359.13 731.98
00059457 00000066 970.56 64.09 588.59 840.15 1146.67 440.55 1404.53 440.99 1284.56 577.93 1184.15 728.38 1374.45 728.20
00059458 00000067 964.39 68.25 590.50 840.56 1151.69 441.97 1406.50 439.25 1294.27 578.12 1192.36 729.10 1378.72 727.13
00059459 00000068 958.63 64.31 582.85 871.85 1152.26 444.55 1402.66 435.51 1302.80 580.60 1197.26 740.26 1383.61 733.04
00059460 00000069 957.41 68.65 572.68 874.91 1154.95 452.80 1398.18 437.52 1310.40 583.51 1204.18 747.04 1389.84 734.20
00059461 00000070 953.54 69.54 572.33 870.88 1147.90 455.94 1394.80 436.37 1308.94 585.79 1201.69 748.07 1390.99 731.58
00059462 00000071 950.36 68.54 570.19 864.33 1143.74 457.40 1389.58 434.75 1305.31 584.58 1201.88 748.22 1387.30 728.95
00059463 00000072 937.64 61.29 579.27 876.70 1136.68 456.43 1387.94 431.48 1305.07 587.45 1197.23 750.29 1389.69 727.62
00059464 00000073 933.52 63.05 579.08 875.85 1130.30 455.37 1381.94 427.10 1300.52 584.77 1195.10 751.23 1387.22 726.00
00059465 00000074 931.26 64.58 578.15 872.87 1127.04 459.57 1378.26 428.45 1299.13 587.37 1195.55 752.39 1386.85 724.49
00059466 00000075 933.45 61.15 573.94 871.02 1130.43 461.03 1378.02 428.38 1301.55 586.00 1200.78 749.44 1387.66 720.22
00059467 00000076 936.04 64.93 565.84 854.12 1133.08 464.86 1374.64 427.29 1306.76 578.05 1208.21 745.50 1387.78 713.61
00059468 00000077 934.20 63.40 567.12 859.09 1132.81 466.16 1373.30 426.57 1307.25 577.12 1208.97 745.43 1390.06 711.85
00059469 00000078 933.04 67.34 565.48 853.32 1131.13 466.15 1370.40 425.70 1305.81 575.63 1209.05 744.71 1387.21 710.42
00059470 00000079 923.28 63.71 574.35 872.48 1126.68 463.41 1369.67 424.93 1302.86 581.02 1203.71 750.60 1388.90 716.51
00059471 00000080 917.38 67.04 579.91 872.66 1123.78 462.54 1367.03 425.76 1299.50 581.53 1200.41 752.02 1384.64 719.43
00059472 00000081 923.48 68.97 572.13 869.05 1124.35 461.08 1363.00 423.99 1299.31 569.30 1205.10 751.35 1382.35 719.76
00059473 00000082 912.35 71.90 579.69 880.74 1115.17 461.44 1358.77 421.39 1291.54 575.77 1194.53 757.79 1381.77 722.76
00059474 00000083 908.38 66.27 580.69 885.52 1109.88 459.81 1355.13 418.80 1285.52 574.22 1188.31 756.69 1378.66 721.03
00059475 00000084 902.86 65.78 584.60 881.59 1106.08 460.11 1352.92 416.98 1282.94 571.95 1186.79 757.22 1376.56 719.79
00059476 00000085 902.01 65.28 583.94 880.06 1103.94 459.19 1347.42 413.05 1279.51 570.19 1188.21 756.42 1374.14 716.68
00059477 00000086 897.77 64.79 587.04 880.84 1100.78 458.36 1344.47 410.60 1276.41 567.64 1185.87 755.91 1372.02 714.83
00059478 00000087 903.22 62.34 577.19 884.82 1107.23 456.99 1341.40 411.75 1280.91 560.49 1189.58 751.42 1370.33 713.35
00059479 00000088 893.79 65.05 587.17 882.41 1098.74 459.80 1338.68 411.89 1272.14 568.55 1185.11 757.83 1366.21 716.62
00059480 00000089 899.74 63.83 578.68 884.36 1104.28 460.39 1337.62 412.15 1278.52 563.13 1187.28 752.88 1369.08 712.07
00059481 00000090 898.90 62.27 579.41 887.75 1104.59 463.27 1336.12 413.26 1277.88 566.66 1187.79 755.18 1367.91 713.11
00059482 00000091 889.73 68.96 587.33 880.59 1094.43 463.91 1332.93 414.11 1269.52 573.28 1184.47 762.73 1364.79 720.05
00059483 00000092 890.17 69.44 587.27 880.68 1094.64 464.81 1333.96 415.31 1269.52 573.72 1184.10 763.42 1364.66 721.09
00059484 00000093 900.52 67.29 576.83 886.02 1104.24 466.50 1336.43 417.65 1277.91 570.85 1188.01 759.91 1367.77 718.61
00059485 00000094 892.04 70.42 588.17 883.82 1094.35 466.08 1336.78 417.43 1269.46 575.83 1183.03 765.48 1365.92 723.97
00059486 00000095 892.04 69.75 589.25 883.74 1096.89 466.60 1338.63 418.53 1272.88 576.03 1185.77 765.66 1367.08 724.66
00059487 00000096 894.31 68.82 588.00 883.16 1097.72 466.46 1341.52 419.78 1273.77 577.42 1184.91 765.32 1367.81 725.57
00059488 00000097 897.27 71.42 585.82 881.52 1098.08 468.14 1342.43 422.71 1272.53 580.02 1183.40 765.96 1366.90 727.39
00059489 00000098 899.32 72.97 585.92 879.32 1098.74 467.97 1344.44 423.82 1272.97 582.22 1183.41 766.27 1367.21 728.76
00059490 00000099 899.19 72.21 587.65 878.82 1099.48 467.89 1346.14 424.49 1274.10 582.73 1183.36 765.10 1367.82 728.19
00059491 00000100 899.29 71.93 586.73 875.72 1100.37 468.87 1346.23 424.95 1275.49 582.92 1185.92 764.76 1368.17 727.28
00059492 00000101 900.29 71.62 585.04 870.83 1101.76 469.37 1346.47 425.54 1276.51 582.66 1188.13 762.98 1367.70 725.49
00059493 00000102 899.93 70.52 584.13 870.41 1102.03 469.55 1344.50 424.35 1276.23 581.57 1189.10 761.58 1367.39 722.97
00059494 00000103 909.40 70.03 572.95 859.00 1108.11 469.86 1344.10 422.98 1281.94 574.31 1190.99 750.69 1369.62 710.66
00059495 00000104 908.37 69.51 573.21 862.58 1109.52 469.36 1345.35 423.37 1282.95 574.02 1187.41 748.42 1370.31 709.21
00059496 00000105 908.19 71.01 571.41 858.77 1109.31 468.02 1344.42 423.63 1282.01 571.39 1186.18 746.47 1368.08 708.64
00059497 00000106 910.57 70.75 570.65 858.58 1108.89 468.08 1344.76 421.81 1281.38 572.56 1187.33 747.29 1370.59 707.99
00059498 00000107 908.45 67.42 573.21 866.56 1107.33 465.96 1340.49 418.90 1277.68 568.61 1188.95 748.17 1368.11 708.39
00059499 00000108 898.24 70.55 585.43 868.31 1100.04 462.22 1336.31 415.83 1271.05 569.73 1183.40 751.85 1366.30 712.13
00059500 00000109 908.21 66.91 573.18 862.27 1104.85 466.02 1335.42 414.04 1275.90 562.90 1191.70 746.84 1368.25 703.22
00059501 00000110 906.95 66.32 572.48 840.63 1103.84 462.92 1331.89 419.09 1269.28 559.51 1180.64 731.20 1360.02 693.69
00059502 00000111 906.22 66.54 572.94 844.09 1098.03 454.78 1325.96 417.31 1256.94 555.39 1164.02 722.07 1355.49 689.28
CROP_BBOX: 534 0 1811 1080
