Video ID: 	hzJlGydugyI
H: 	1080
W: 	1920
FPS: 	25.0

FRAME INDEX X0 Y0 W H [Landmarks (5 Points)]

00023726 00000000 887.16 218.39 521.35 651.38 996.07 450.42 1234.36 498.76 1075.25 630.67 987.80 693.08 1189.34 732.34
00023727 DELETE   883.64 219.16 521.70 650.40 985.30 446.47 1231.81 497.75 1062.83 632.18 987.55 698.03 1182.26 739.54
00023728 00000002 872.77 215.98 525.02 655.54 973.65 441.91 1224.40 490.62 1053.68 636.58 982.16 699.49 1176.56 739.36
00023729 00000003 870.85 219.54 521.14 658.03 968.78 444.11 1216.03 491.43 1046.66 639.93 979.21 703.60 1169.39 742.50
00023730 00000004 868.49 221.45 517.75 659.54 966.49 446.33 1210.35 493.54 1041.59 640.50 975.77 704.01 1165.92 742.54
00023731 00000005 868.05 223.67 518.37 657.91 962.59 456.02 1202.65 489.50 1040.37 641.72 972.57 704.83 1166.83 733.19
00023732 00000006 862.04 220.56 523.61 666.80 956.85 457.79 1198.56 493.23 1032.66 645.27 966.01 707.21 1161.82 737.21
00023733 00000007 855.50 221.27 525.91 672.48 949.14 457.23 1191.70 493.43 1022.34 647.18 957.76 710.90 1156.35 741.40
00023734 00000008 850.63 228.25 528.67 665.04 942.79 460.95 1184.20 497.83 1013.89 650.31 953.86 713.46 1150.91 744.51
00023735 00000009 848.12 228.92 531.87 661.36 936.94 464.28 1177.43 498.38 1007.71 653.48 952.57 716.33 1149.59 744.92
00023736 00000010 844.28 230.37 531.55 658.80 933.21 467.26 1175.49 499.86 1006.89 655.39 949.87 719.46 1146.07 746.96
00023737 00000011 841.06 233.64 532.06 654.80 930.14 470.22 1173.91 503.18 1005.40 659.52 947.22 721.81 1143.40 749.74
00023738 00000012 840.91 235.08 531.24 654.43 928.61 472.21 1172.49 506.03 1003.62 662.95 945.29 724.58 1138.67 753.39
00023739 00000013 841.00 237.48 529.23 654.08 925.64 476.36 1169.16 509.14 1000.13 665.39 944.97 732.56 1132.80 760.49
00023740 00000014 840.15 244.59 528.09 645.25 922.85 481.01 1167.32 513.75 998.56 668.06 944.20 735.39 1128.78 763.19
00023741 00000015 836.98 246.99 526.70 642.70 920.63 482.53 1165.38 516.16 997.73 672.19 941.03 735.71 1125.19 764.33
00023742 00000016 836.82 250.49 527.81 639.21 918.88 483.82 1165.79 519.03 996.93 675.08 939.05 738.24 1122.22 768.13
00023743 00000017 836.98 255.99 526.91 633.02 918.91 484.48 1166.20 520.34 997.43 675.45 938.53 738.97 1121.26 769.39
00023744 00000018 838.25 256.69 527.41 633.84 920.14 485.72 1166.54 521.44 998.24 675.79 939.71 740.89 1121.95 771.09
00023745 00000019 839.71 259.26 528.99 633.11 922.53 485.56 1169.00 521.87 1000.79 675.53 941.12 741.05 1124.63 771.69
00023746 00000020 842.27 260.36 530.05 633.81 925.80 485.59 1172.04 520.70 1004.40 674.66 946.27 743.20 1127.99 772.91
00023747 00000021 843.55 260.01 531.72 634.61 926.89 484.31 1173.50 518.46 1005.36 674.92 949.00 743.06 1131.59 772.02
00023748 00000022 846.10 255.36 532.40 636.65 929.17 482.95 1175.37 518.21 1007.52 675.45 950.29 741.27 1134.04 771.07
00023749 00000023 847.12 254.56 533.28 636.12 931.21 481.17 1178.39 517.21 1010.28 674.71 951.78 738.96 1136.88 769.44
00023750 00000024 849.09 250.44 531.84 639.14 934.17 479.67 1180.12 515.10 1013.40 673.30 953.33 735.89 1139.47 765.95
00023751 00000025 850.80 251.19 532.16 637.07 935.76 477.79 1183.56 513.44 1016.23 672.53 953.53 733.87 1142.59 764.18
00023752 00000026 852.74 250.94 530.70 636.44 938.36 476.64 1185.73 512.07 1018.49 669.37 954.88 731.83 1146.01 761.87
00023753 00000027 853.79 239.96 530.37 643.44 940.74 472.20 1189.44 509.94 1020.93 667.67 954.39 726.03 1149.87 757.93
00023754 00000028 858.91 232.07 527.28 644.24 944.74 467.39 1193.75 508.42 1022.99 662.98 958.42 717.41 1155.82 751.75
00023755 00000029 864.03 230.99 519.18 640.32 952.18 468.54 1196.44 506.66 1029.91 654.26 967.78 710.75 1165.12 741.72
00023756 00000030 865.66 225.12 519.39 640.38 958.06 464.55 1198.73 502.69 1038.16 649.11 972.40 705.01 1166.91 736.08
00023757 00000031 866.58 225.61 518.77 636.71 961.49 460.57 1202.13 497.60 1042.90 644.07 973.98 699.68 1169.34 730.20
00023758 00000032 868.16 221.38 520.91 639.52 964.41 453.12 1207.33 490.97 1046.86 638.03 973.31 695.57 1170.91 727.17
00023759 00000033 869.61 224.43 520.70 630.26 963.03 440.53 1211.15 489.42 1040.09 639.08 972.61 692.32 1166.28 731.62
00023760 00000034 870.64 218.36 521.93 634.19 964.12 435.20 1215.51 484.10 1042.76 631.25 971.90 686.40 1168.40 726.08
00023761 00000035 870.53 217.53 524.26 631.36 967.88 427.98 1216.99 479.49 1044.60 620.65 971.10 676.53 1168.34 718.50
00023762 00000036 872.25 204.49 522.92 637.83 970.48 423.84 1220.20 470.26 1049.45 608.71 972.98 672.44 1170.41 710.73
00023763 00000037 875.04 193.90 523.80 653.69 972.09 419.92 1223.14 461.19 1053.60 601.97 977.47 671.21 1177.39 705.66
00023764 00000038 876.54 188.68 523.63 661.88 974.02 416.60 1224.77 451.08 1059.54 594.15 985.75 673.31 1181.88 702.38
00023765 00000039 878.02 184.80 525.02 659.56 977.09 412.57 1226.48 444.56 1062.27 583.94 989.37 667.98 1184.85 694.90
00023766 00000040 880.79 183.41 525.16 649.83 982.60 407.92 1230.23 438.59 1068.14 574.23 994.15 661.76 1187.75 687.49
00023767 00000041 881.28 173.10 525.18 649.88 989.26 402.02 1233.08 434.19 1073.02 569.68 995.94 653.07 1187.30 680.33
00023768 00000042 882.54 172.10 524.64 646.57 990.81 396.08 1234.42 428.71 1074.87 565.80 996.96 648.58 1188.75 676.21
00023769 00000043 883.13 161.46 527.17 652.17 994.37 392.08 1237.03 423.35 1078.74 561.04 1000.20 643.36 1192.06 670.01
00023770 00000044 885.14 154.14 528.57 655.68 997.64 386.43 1239.01 417.56 1080.67 557.62 1005.53 638.06 1196.56 664.68
00023771 00000045 887.72 152.42 527.98 654.86 1000.38 374.14 1246.04 421.12 1083.01 553.89 1003.97 637.39 1189.31 676.05
00023772 00000046 889.32 140.80 530.61 665.97 1001.76 372.54 1249.93 417.77 1085.82 549.72 1006.05 637.06 1192.56 674.47
00023773 00000047 890.67 144.39 532.24 665.86 1004.91 367.27 1254.28 414.27 1090.12 543.92 1007.23 632.79 1196.66 671.65
00023774 00000048 892.76 139.91 532.34 670.29 1006.65 362.94 1259.05 409.21 1094.98 537.02 1010.36 632.49 1198.89 671.03
00023775 00000049 895.77 145.68 533.29 663.67 1009.66 358.85 1264.27 405.01 1100.17 532.97 1013.70 630.07 1205.53 668.47
00023776 00000050 897.92 136.73 532.17 672.39 1013.79 358.70 1267.27 403.57 1104.53 529.93 1014.71 625.97 1212.30 663.47
00023777 00000051 898.71 135.25 534.15 671.30 1017.66 355.14 1270.97 401.65 1108.41 528.45 1016.47 620.27 1216.69 659.12
00023778 00000052 899.54 133.64 534.21 667.55 1021.39 353.17 1274.01 400.09 1112.35 526.31 1017.94 617.07 1218.25 656.24
00023779 00000053 902.55 130.34 534.21 662.91 1023.08 353.34 1275.75 398.45 1114.55 523.53 1020.50 615.73 1217.74 653.22
00023780 00000054 903.72 130.40 535.97 656.74 1025.93 352.78 1277.04 397.77 1115.26 522.87 1023.91 613.86 1216.08 651.19
00023781 00000055 905.94 125.93 534.90 655.52 1027.92 353.29 1278.61 397.12 1118.31 522.11 1026.23 610.36 1219.87 646.72
00023782 00000056 907.70 125.73 534.14 654.52 1030.12 353.19 1281.31 396.96 1121.55 522.26 1026.86 608.41 1222.82 644.91
00023783 00000057 910.39 119.12 533.10 665.35 1032.38 355.23 1281.61 397.60 1123.09 522.64 1029.82 611.22 1224.49 646.61
00023784 00000058 916.66 120.10 528.91 673.92 1037.55 359.37 1279.69 402.06 1124.23 521.79 1036.14 615.39 1224.93 651.30
00023785 00000059 920.49 124.01 524.76 674.80 1041.65 364.50 1278.96 406.56 1127.22 520.26 1037.97 619.10 1224.41 654.64
00023786 00000060 924.20 129.73 522.52 674.62 1039.55 355.57 1286.14 386.02 1128.41 519.81 1038.06 621.17 1225.89 646.38
00023787 00000061 923.40 129.40 523.58 677.15 1040.81 353.66 1287.60 384.10 1130.65 519.57 1038.20 619.74 1230.53 644.79
00023788 00000062 922.74 130.09 525.30 676.66 1040.80 353.42 1288.20 384.25 1131.14 519.78 1036.99 617.78 1234.17 643.01
00023789 00000063 922.05 128.57 526.30 676.54 1041.55 352.48 1288.21 384.62 1131.98 520.30 1035.75 613.98 1236.64 640.10
00023790 00000064 917.33 119.70 531.22 684.66 1039.88 351.57 1291.07 395.37 1135.18 523.09 1032.19 609.19 1243.16 645.84
00023791 00000065 917.34 120.99 531.40 681.14 1040.73 351.76 1291.65 396.25 1135.98 524.29 1032.29 606.07 1244.54 643.11
00023792 00000066 916.63 121.75 531.92 677.31 1039.87 352.17 1291.49 397.10 1135.22 524.93 1032.27 605.43 1243.57 642.78
00023793 00000067 915.45 124.50 531.29 667.61 1039.16 352.67 1290.91 399.41 1133.84 526.08 1031.23 606.27 1237.85 645.34
00023794 00000068 914.16 125.12 532.33 660.05 1037.69 352.82 1290.65 402.14 1131.95 528.63 1028.56 606.65 1232.13 647.92
00023795 00000069 914.60 132.31 527.93 654.53 1037.09 356.23 1288.05 397.18 1126.32 533.98 1022.45 609.52 1226.93 644.34
00023796 00000070 913.67 136.64 529.74 649.48 1036.67 356.63 1288.24 399.05 1125.20 536.41 1022.10 609.48 1226.34 645.49
00023797 00000071 913.40 138.60 530.03 650.93 1037.55 357.65 1288.36 399.62 1126.03 537.36 1023.44 612.19 1226.11 647.64
00023798 00000072 914.56 137.61 529.41 656.62 1037.93 358.26 1288.32 399.45 1126.09 538.19 1025.51 616.43 1225.85 651.14
00023799 00000073 915.39 138.31 529.49 657.29 1037.72 358.65 1288.94 399.53 1125.83 538.67 1025.46 618.18 1226.37 652.59
00023800 00000074 915.97 136.71 529.22 658.49 1038.33 359.09 1289.49 400.61 1126.30 538.82 1025.43 618.44 1226.40 653.33
00023801 00000075 915.83 137.16 529.63 658.56 1038.04 358.84 1289.63 400.46 1125.89 539.41 1025.31 619.14 1226.12 654.06
00023802 00000076 916.12 136.38 529.43 659.34 1037.69 358.70 1289.14 400.66 1125.30 539.10 1024.96 620.10 1224.63 655.25
00023803 00000077 917.54 138.67 527.48 657.32 1037.98 361.02 1288.12 402.23 1124.46 539.28 1025.95 621.30 1225.20 655.73
00023804 00000078 914.83 137.00 532.61 651.70 1038.74 357.67 1289.19 411.48 1130.44 535.21 1030.37 615.32 1228.69 660.19
00023805 00000079 914.79 138.52 532.86 651.27 1039.82 358.76 1290.26 412.82 1132.32 536.80 1030.98 616.15 1229.72 661.28
00023806 00000080 917.37 142.71 527.95 655.54 1039.47 364.45 1287.76 406.70 1125.30 542.15 1026.62 623.78 1225.67 658.95
00023807 00000081 917.90 144.85 527.49 653.44 1038.52 365.14 1287.82 407.42 1124.09 543.52 1026.23 625.52 1225.04 660.63
00023808 00000082 918.05 143.57 527.87 654.60 1038.64 365.42 1287.54 407.68 1123.80 543.85 1027.16 626.14 1224.65 661.20
00023809 00000083 917.80 144.42 528.63 654.85 1038.36 365.07 1287.81 407.84 1123.24 544.35 1026.66 626.73 1224.04 662.21
00023810 00000084 918.00 144.78 529.14 655.81 1038.95 365.81 1287.40 407.79 1123.43 543.55 1028.76 628.28 1224.47 662.96
00023811 00000085 918.08 145.89 529.31 656.01 1038.75 366.37 1286.80 407.35 1123.49 543.45 1031.39 630.81 1224.59 664.54
00023812 00000086 918.57 144.64 528.86 660.91 1039.31 367.55 1285.51 407.45 1122.97 543.28 1033.43 633.93 1223.49 666.77
00023813 00000087 918.75 144.77 529.15 660.09 1039.86 364.79 1287.33 416.38 1130.01 538.37 1035.71 630.51 1225.65 673.72
00023814 00000088 923.84 155.43 520.08 655.31 1040.33 375.16 1283.26 411.70 1124.62 545.11 1039.19 636.19 1226.25 665.83
00023815 00000089 924.78 157.59 513.59 656.91 1043.06 388.28 1277.09 422.60 1125.29 544.67 1038.60 637.62 1226.62 665.51
00023816 00000090 924.91 160.87 512.26 652.63 1042.29 390.48 1276.27 423.77 1124.44 545.25 1038.05 638.08 1227.91 665.11
00023817 00000091 922.33 157.96 516.57 652.93 1038.66 386.27 1276.75 420.93 1121.77 546.40 1036.40 636.81 1227.71 664.80
00023818 00000092 916.03 153.10 526.69 655.91 1034.57 383.92 1273.92 419.79 1116.77 548.52 1026.39 636.74 1222.47 666.13
00023819 00000093 911.01 151.43 530.40 654.96 1030.88 378.08 1274.20 418.22 1114.37 550.97 1020.18 633.81 1219.37 666.60
00023820 00000094 907.96 148.89 532.85 656.42 1029.42 378.51 1274.84 420.26 1113.69 553.05 1016.47 632.36 1218.18 666.67
00023821 00000095 904.56 151.97 533.03 653.07 1026.88 377.78 1273.78 420.57 1111.93 554.80 1013.08 632.12 1216.57 667.35
00023822 00000096 900.29 159.72 537.72 643.38 1023.67 377.42 1272.22 422.93 1106.51 557.94 1009.14 630.86 1212.86 668.25
00023823 00000097 897.06 159.20 538.33 646.56 1020.77 380.12 1268.71 426.95 1103.66 561.89 1005.66 631.44 1210.52 670.04
00023824 00000098 896.02 154.54 535.63 654.66 1017.94 380.92 1263.33 428.28 1099.60 564.39 1003.86 633.76 1207.21 672.67
00023825 00000099 891.45 160.84 535.18 654.59 1009.57 389.96 1264.94 430.52 1099.55 570.17 1009.35 641.48 1213.69 674.35
00023826 00000100 896.80 156.56 528.88 665.83 1015.28 399.86 1259.80 438.18 1100.66 568.89 1011.64 645.88 1216.66 677.96
00023827 DELETE   896.44 173.55 530.24 652.72 1013.43 419.70 1255.42 457.91 1098.09 576.23 1011.28 654.64 1214.94 686.07
00023828 00000102 898.33 182.35 528.51 646.89 1014.72 426.53 1255.75 464.24 1099.41 581.20 1013.27 659.60 1214.47 690.45
00023829 00000103 896.72 181.91 530.20 648.46 1013.34 430.29 1254.43 470.43 1097.34 588.39 1011.44 662.06 1214.31 694.76
00023830 00000104 892.61 190.55 524.55 646.72 1009.21 435.82 1252.83 473.33 1098.05 593.77 1001.39 664.34 1214.68 694.78
00023831 00000105 893.34 193.44 524.22 646.04 1009.62 437.27 1253.33 475.76 1097.69 595.54 1000.80 665.27 1213.93 696.55
00023832 00000106 892.22 189.41 522.84 654.91 1009.35 438.05 1250.79 476.18 1097.60 597.39 1000.16 667.20 1211.81 698.30
00023833 00000107 890.39 192.75 532.11 654.65 1008.39 428.10 1255.29 473.11 1094.96 599.97 1005.19 669.84 1209.44 707.00
00023834 00000108 891.31 195.20 525.17 656.57 1003.49 425.92 1251.40 467.01 1092.52 607.80 994.87 672.39 1205.97 706.74
00023835 00000109 889.98 191.84 530.93 659.41 1001.79 425.18 1251.78 471.88 1089.06 610.30 1000.71 674.78 1203.93 713.54
00023836 00000110 890.21 199.79 527.98 654.47 1000.84 426.17 1251.12 474.19 1087.26 613.66 1000.27 678.04 1201.61 717.84
00023837 00000111 889.18 207.11 526.57 651.34 1000.00 425.66 1248.07 477.12 1084.30 616.44 995.85 680.11 1195.22 722.57
00023838 00000112 885.32 211.79 525.37 643.82 996.45 428.65 1242.85 482.08 1078.08 622.15 992.50 680.06 1191.79 723.87
00023839 00000113 883.83 219.03 524.00 639.46 991.49 430.04 1237.56 484.85 1071.12 625.30 989.57 682.19 1187.62 726.92
00023840 00000114 883.59 222.63 524.15 642.30 988.08 432.64 1233.87 484.57 1066.43 628.21 991.43 689.52 1185.85 731.83
00023841 00000115 880.51 220.09 523.25 649.37 981.44 440.70 1230.59 486.59 1063.34 634.43 992.02 700.28 1185.60 737.63
00023842 00000116 880.56 227.95 521.40 643.48 981.56 456.20 1224.22 503.46 1057.88 635.08 989.91 704.59 1182.15 742.25
00023843 00000117 881.67 234.79 519.12 633.68 986.37 464.08 1216.01 508.24 1061.19 632.53 988.20 700.42 1180.61 735.66
00023844 00000118 879.05 231.77 520.37 639.36 985.36 464.40 1216.26 508.17 1061.88 631.39 987.80 702.36 1180.16 737.31
00023845 00000119 880.83 228.85 520.13 644.63 984.62 461.25 1218.02 500.36 1061.24 629.66 989.46 707.02 1179.40 738.97
00023846 00000120 874.61 215.70 526.00 656.69 979.82 448.79 1225.36 495.66 1059.03 632.54 989.69 705.31 1179.15 743.64
00023847 00000121 872.63 210.46 528.81 662.68 981.32 442.60 1229.78 489.20 1062.71 629.83 988.07 702.18 1179.94 740.71
00023848 00000122 875.57 214.73 527.63 662.10 982.48 440.73 1231.86 485.42 1065.07 627.91 990.50 701.94 1184.73 738.76
00023849 00000123 876.70 214.53 526.65 660.54 984.96 437.78 1234.61 482.95 1068.84 626.41 991.48 699.44 1186.77 736.71
00023850 00000124 878.56 216.47 525.31 653.81 986.69 437.44 1234.98 484.17 1069.93 628.57 991.52 695.69 1186.77 734.21
00023851 00000125 879.40 216.74 524.01 648.38 984.68 438.46 1233.93 484.65 1068.11 630.86 991.26 696.76 1184.52 734.95
00023852 00000126 880.98 226.33 522.19 639.80 982.77 440.29 1232.33 486.11 1066.20 636.57 992.26 700.77 1184.82 738.27
00023853 00000127 878.14 223.82 525.76 646.18 981.70 458.76 1227.19 488.00 1069.51 640.55 994.24 707.75 1191.18 732.60
00023854 00000128 878.84 229.88 524.86 642.45 981.08 466.42 1227.48 499.28 1068.34 652.05 992.44 714.67 1187.76 742.36
00023855 00000129 876.08 229.00 525.43 651.06 978.87 466.36 1228.35 512.85 1060.23 666.37 988.58 721.75 1182.37 758.80
00023856 00000130 874.60 251.41 526.20 643.04 969.91 484.77 1224.21 521.92 1058.33 681.55 982.02 737.24 1179.98 768.53
00023857 00000131 871.37 260.10 524.64 644.64 964.80 488.57 1220.29 529.41 1051.65 689.99 974.06 741.95 1177.73 775.92
00023858 00000132 868.07 262.40 525.62 641.90 962.56 490.29 1217.92 528.29 1050.59 689.22 973.81 742.28 1177.60 773.85
00023859 00000133 865.72 262.99 527.40 641.62 961.54 487.03 1218.62 523.49 1051.49 684.69 974.18 740.61 1178.13 771.13
00023860 00000134 866.26 251.42 527.13 647.47 962.45 482.73 1217.27 516.45 1052.83 677.95 979.47 735.94 1179.11 764.21
00023861 00000135 867.35 235.32 526.47 657.20 963.61 479.98 1218.51 510.27 1055.72 669.25 981.13 734.64 1177.20 760.15
00023862 00000136 868.64 233.60 524.17 656.45 963.58 478.93 1217.94 505.81 1056.15 663.53 984.17 735.37 1175.92 758.11
00023863 00000137 867.30 229.79 525.78 658.95 959.00 480.86 1212.77 509.26 1049.25 666.96 979.18 737.06 1170.31 761.56
00023864 00000138 868.87 254.51 518.60 653.60 960.65 488.03 1209.62 510.52 1047.32 678.45 980.65 750.72 1172.02 769.99
00023865 00000139 858.03 249.86 528.50 663.66 952.99 497.72 1209.36 531.14 1045.88 691.52 970.49 759.44 1169.13 787.96
00023866 00000140 856.63 260.64 533.35 670.09 950.61 514.47 1204.55 552.62 1039.52 714.27 970.33 776.82 1164.71 808.89
00023867 00000141 852.68 279.70 534.33 667.60 947.12 536.52 1203.26 571.66 1033.92 735.72 968.64 786.39 1167.79 815.77
00023868 00000142 849.69 303.96 534.71 654.46 938.31 549.59 1197.91 585.48 1029.22 757.15 962.84 804.82 1162.13 835.08
00023869 DELETE   844.54 315.38 537.31 655.38 937.64 566.37 1196.39 603.47 1030.14 773.82 958.48 815.40 1165.64 846.36
00023870 00000144 840.43 320.07 542.72 656.71 935.59 573.21 1195.51 609.20 1029.60 781.23 956.58 821.47 1166.66 851.49
00023871 DELETE   838.50 319.69 541.70 655.80 935.63 572.54 1193.96 607.03 1030.04 779.51 956.15 819.25 1166.21 847.89
00023872 DELETE   840.60 318.27 539.02 647.76 934.80 565.60 1190.12 596.40 1029.25 768.32 959.65 812.04 1163.25 837.69
00023873 00000147 840.51 311.71 539.16 646.21 934.04 553.57 1190.17 583.81 1027.94 756.92 962.02 803.12 1162.72 828.47
00023874 00000148 839.86 298.43 543.19 656.61 935.86 539.97 1191.53 574.27 1025.19 745.19 961.57 791.54 1164.09 820.02
00023875 DELETE   843.14 282.43 539.25 666.29 941.13 531.83 1195.50 561.81 1031.35 731.11 966.29 782.11 1169.22 806.84
00023876 00000150 846.04 275.81 536.15 662.22 942.14 518.06 1197.48 551.21 1037.06 717.44 965.90 777.33 1168.45 804.76
00023877 00000151 845.92 261.23 537.58 659.82 945.06 509.86 1200.34 541.47 1040.37 705.32 967.11 763.10 1172.21 789.32
00023878 00000152 848.07 244.28 538.37 672.43 951.62 500.03 1206.60 528.66 1048.38 692.49 972.05 752.34 1183.17 776.01
CROP_BBOX: 456 0 1720 1080
