Video ID: 	ikHpFgKJax8
H: 	1080
W: 	1920
FPS: 	25.0

FRAME INDEX X0 Y0 W H [Landmarks (5 Points)]

00025779 00000000 1010.27 151.89 442.67 596.46 1101.35 376.07 1310.02 366.30 1185.30 483.17 1130.02 604.40 1295.91 594.38
00025780 00000001 1001.15 155.11 445.53 599.33 1088.49 376.93 1297.23 364.64 1171.22 482.71 1120.24 609.10 1285.57 596.99
00025781 DELETE   990.31 156.83 452.99 605.79 1074.54 373.75 1285.22 360.06 1157.04 485.14 1112.31 611.86 1277.25 598.39
00025782 00000003 983.82 156.60 455.23 612.62 1065.65 371.72 1280.23 356.07 1151.61 485.33 1107.23 616.92 1272.63 601.81
00025783 00000004 979.65 158.12 451.77 609.74 1059.67 374.29 1273.30 355.76 1145.07 481.93 1102.06 617.34 1269.60 600.07
00025784 00000005 976.86 151.65 451.22 616.26 1054.48 375.98 1268.77 355.82 1141.32 481.30 1094.57 616.51 1266.86 598.78
00025785 00000006 973.34 148.70 454.38 622.17 1046.16 379.80 1260.36 353.02 1126.87 478.47 1086.90 616.88 1266.91 593.13
00025786 00000007 969.76 150.48 454.09 625.01 1038.83 379.05 1251.00 351.49 1114.76 479.59 1078.34 616.85 1261.61 592.45
00025787 00000008 963.13 148.60 453.76 633.47 1029.05 375.81 1238.83 345.29 1104.39 474.52 1070.12 615.67 1254.93 588.68
00025788 00000009 958.99 158.55 455.46 625.20 1020.74 372.67 1226.88 341.02 1089.74 470.42 1061.07 614.98 1245.42 586.03
00025789 00000010 949.60 151.90 461.32 628.19 1008.86 384.35 1210.84 347.42 1081.61 479.65 1056.14 615.15 1237.75 582.98
00025790 00000011 940.86 142.53 464.26 636.44 1005.00 383.58 1206.38 348.81 1075.63 476.06 1048.18 610.41 1228.78 580.11
00025791 00000012 936.88 149.62 463.92 621.43 997.56 382.47 1200.56 346.57 1068.33 473.56 1041.40 610.86 1218.88 579.94
00025792 00000013 937.25 152.53 462.76 608.53 993.23 383.48 1201.71 347.48 1062.19 465.47 1026.91 605.39 1209.15 576.03
00025793 00000014 931.47 139.39 463.31 607.78 988.38 380.64 1191.88 340.82 1057.79 459.52 1028.48 603.33 1192.35 570.12
00025794 00000015 933.77 144.66 456.64 607.17 982.10 379.81 1192.75 344.77 1053.30 461.27 1013.23 601.10 1194.72 573.26
00025795 00000016 933.12 153.02 458.20 600.05 983.47 378.92 1191.91 348.04 1050.77 463.88 1012.82 599.56 1191.16 575.17
00025796 00000017 932.01 152.54 460.18 604.85 983.46 382.69 1191.05 348.02 1049.55 463.42 1014.03 602.99 1192.32 575.23
00025797 00000018 932.55 150.69 460.78 608.09 984.01 382.71 1191.07 347.78 1048.85 462.35 1014.12 605.42 1191.58 577.55
00025798 00000019 932.56 149.69 460.46 609.66 985.95 381.69 1191.50 347.71 1048.91 463.65 1015.76 607.39 1189.38 580.36
00025799 00000020 933.42 152.28 460.05 605.99 985.25 380.93 1190.76 350.32 1045.02 462.74 1012.93 603.70 1184.28 579.34
00025800 00000021 933.88 149.02 459.06 607.04 985.21 382.23 1188.60 351.99 1043.52 465.89 1014.30 606.27 1178.37 582.65
00025801 00000022 934.41 154.41 457.48 602.25 984.99 388.25 1184.82 361.29 1040.51 472.61 1011.75 605.07 1176.61 583.82
00025802 00000023 932.51 146.92 461.22 621.36 984.41 392.09 1180.56 360.57 1045.99 483.91 1023.54 622.44 1176.64 596.41
00025803 00000024 925.94 149.72 472.23 632.43 980.24 401.52 1178.43 370.44 1044.84 499.14 1019.97 635.94 1177.01 610.24
00025804 00000025 930.66 176.42 467.25 623.00 984.59 418.65 1184.28 391.86 1045.24 516.38 1020.77 649.29 1171.34 627.05
00025805 00000026 929.17 184.68 467.25 628.59 982.63 434.57 1180.11 408.38 1042.69 542.74 1023.19 672.32 1170.43 651.03
00025806 00000027 931.45 204.48 460.26 623.70 983.69 452.29 1170.89 433.96 1035.54 567.72 1026.92 687.96 1161.35 673.01
00025807 00000028 912.78 210.59 475.74 630.05 975.44 461.13 1170.07 444.74 1039.69 595.25 1028.19 705.71 1165.86 691.98
00025808 00000029 919.40 222.16 462.94 636.03 971.70 477.32 1155.06 460.20 1026.82 610.90 1029.70 722.37 1163.83 707.01
00025809 00000030 920.16 243.08 460.72 629.82 966.57 488.30 1148.51 471.68 1010.71 626.69 1021.36 730.13 1165.53 715.52
00025810 00000031 916.37 249.91 459.26 627.77 964.19 492.32 1144.49 481.46 1009.23 636.61 1019.25 734.19 1160.22 724.49
00025811 00000032 913.61 268.91 458.10 607.48 960.66 501.16 1141.33 492.40 1007.63 647.64 1019.06 738.96 1157.11 731.07
00025812 00000033 908.02 272.05 459.78 598.85 958.23 505.22 1150.60 496.57 1018.36 656.24 1018.84 739.51 1166.26 729.92
00025813 00000034 907.73 260.83 457.92 610.63 959.79 506.79 1149.72 496.20 1020.13 655.11 1018.76 740.20 1166.34 729.22
00025814 00000035 907.10 260.54 459.85 612.36 954.40 507.22 1135.68 496.95 1007.54 654.05 1017.84 739.49 1154.79 730.52
00025815 00000036 904.87 252.77 460.14 621.35 954.12 505.47 1135.05 498.15 1005.92 655.68 1015.31 736.17 1155.49 729.62
00025816 00000037 906.80 247.47 456.95 627.94 955.02 505.12 1133.28 497.03 1003.41 655.47 1015.89 737.11 1154.76 729.93
00025817 00000038 905.52 248.50 460.05 626.65 954.09 503.91 1133.84 495.70 1002.76 654.68 1015.10 735.91 1154.44 728.72
00025818 00000039 904.45 244.91 458.49 627.25 954.04 501.75 1135.34 492.09 1003.96 650.35 1013.34 733.67 1155.89 725.43
00025819 00000040 905.27 248.52 460.44 624.31 952.12 498.15 1137.62 485.20 1004.18 643.92 1011.11 734.74 1152.78 724.12
00025820 00000041 900.68 244.06 463.11 625.29 952.81 494.88 1141.10 473.77 1003.26 621.30 1007.85 733.23 1160.12 714.48
00025821 00000042 902.02 233.73 467.74 629.19 955.03 491.71 1148.65 469.29 1010.97 614.29 1010.29 725.65 1168.57 705.68
00025822 DELETE   909.38 225.57 460.90 625.57 963.46 482.27 1158.30 456.01 1024.26 597.57 1017.71 713.80 1175.91 689.80
00025823 00000044 909.36 225.98 463.45 611.48 968.54 474.49 1176.20 436.74 1040.07 579.06 1026.31 702.59 1199.28 668.72
00025824 DELETE   915.63 209.81 465.09 617.66 976.29 458.11 1185.91 423.61 1052.59 567.65 1035.70 690.10 1210.28 659.17
00025825 00000046 916.29 198.90 464.59 610.55 984.70 451.78 1198.60 415.87 1068.11 551.32 1041.80 676.93 1218.22 645.80
00025826 00000047 925.08 176.19 468.25 615.43 991.59 430.45 1194.69 390.79 1074.16 531.19 1043.75 656.34 1209.13 623.69
00025827 00000048 924.82 173.05 461.13 606.34 991.22 423.91 1197.99 382.14 1067.64 515.76 1048.39 645.11 1222.41 609.26
00025828 00000049 926.60 157.52 461.04 609.56 993.51 409.20 1197.10 361.17 1067.70 496.67 1049.43 629.66 1220.55 587.66
00025829 00000050 928.77 134.86 464.82 623.27 995.03 401.49 1200.54 347.18 1074.98 481.88 1049.38 627.74 1206.48 583.42
00025830 00000051 928.66 134.87 466.13 616.03 994.54 395.83 1198.66 345.40 1072.10 475.44 1046.89 618.60 1202.38 577.46
00025831 00000052 921.10 137.24 468.27 618.59 990.98 391.29 1196.58 348.00 1062.19 473.85 1044.66 612.37 1212.74 575.30
00025832 00000053 919.56 141.01 467.83 606.95 988.58 388.30 1198.95 346.84 1060.73 470.17 1037.70 606.55 1212.85 571.09
00025833 00000054 919.88 138.33 467.42 607.84 987.58 387.97 1197.24 346.13 1058.03 468.49 1035.41 605.60 1208.49 570.41
00025834 00000055 917.14 139.20 470.70 614.33 987.38 384.52 1193.03 343.50 1055.97 467.93 1039.94 608.02 1199.78 573.53
00025835 00000056 915.61 141.95 471.43 614.43 986.56 386.32 1187.91 343.24 1055.70 463.20 1043.08 609.61 1192.49 573.79
00025836 00000057 911.38 147.21 469.07 613.28 982.28 389.12 1178.29 343.32 1050.00 466.33 1043.34 614.40 1188.27 575.73
00025837 00000058 908.54 148.20 470.13 616.40 978.18 388.91 1172.33 340.90 1045.21 467.68 1044.62 619.92 1186.46 578.74
00025838 00000059 907.25 160.90 468.42 601.22 977.12 395.91 1168.47 343.68 1045.76 470.40 1045.49 621.02 1185.70 576.28
00025839 00000060 905.14 161.50 468.27 601.73 976.15 397.16 1169.61 345.02 1047.40 472.72 1044.67 623.12 1185.78 578.61
00025840 00000061 904.69 156.00 469.21 608.98 974.51 399.12 1169.52 346.26 1046.07 476.66 1042.73 626.58 1185.26 581.74
00025841 00000062 903.32 159.05 470.46 605.84 973.32 400.11 1171.40 346.57 1047.49 478.11 1041.38 626.62 1187.47 581.03
00025842 00000063 904.15 159.78 469.33 605.37 973.76 401.56 1173.30 347.26 1048.34 479.48 1040.08 626.84 1190.23 580.62
00025843 00000064 904.14 160.04 470.29 605.04 973.41 402.92 1174.69 347.43 1048.43 478.55 1041.06 628.70 1193.54 581.38
00025844 00000065 903.55 152.45 472.99 618.69 973.48 403.70 1172.42 348.24 1048.11 482.56 1041.85 631.30 1194.48 583.92
00025845 00000066 905.67 149.56 473.65 625.77 974.21 407.35 1173.15 348.42 1046.66 483.57 1042.87 635.70 1196.33 585.64
00025846 00000067 907.07 152.42 472.50 622.59 975.56 409.31 1174.77 349.00 1048.92 483.27 1044.65 635.20 1200.47 583.87
00025847 00000068 907.58 148.27 471.88 627.61 977.39 404.65 1177.85 348.99 1051.67 482.21 1044.91 633.04 1202.71 585.70
00025848 00000069 908.55 149.17 473.82 628.63 979.92 406.77 1180.91 349.25 1055.51 483.25 1048.74 635.05 1206.19 585.85
00025849 00000070 909.12 152.70 474.48 623.21 980.63 407.16 1182.83 349.87 1058.38 483.82 1050.59 635.22 1209.41 586.21
00025850 00000071 911.99 150.01 477.28 625.96 982.78 405.69 1187.42 349.95 1059.16 483.70 1051.37 634.19 1211.54 586.15
00025851 00000072 915.77 150.97 476.17 625.28 987.07 405.04 1191.43 348.94 1061.57 482.99 1053.59 634.72 1213.11 586.53
00025852 00000073 919.66 147.02 472.38 628.67 990.22 403.32 1195.11 350.18 1065.10 484.82 1054.58 635.09 1214.20 589.60
00025853 00000074 921.27 151.04 468.92 624.26 993.70 401.86 1197.50 351.11 1069.49 485.08 1056.12 632.57 1216.28 588.91
00025854 00000075 924.98 145.07 464.27 632.46 995.86 399.57 1198.01 351.60 1069.03 484.88 1055.55 633.10 1215.22 592.11
00025855 00000076 928.11 143.89 466.16 636.40 1003.37 397.12 1209.21 355.93 1081.50 483.18 1051.20 630.07 1212.05 596.93
00025856 00000077 932.70 141.05 465.34 629.66 998.10 399.42 1205.12 347.77 1078.23 483.78 1052.88 633.45 1211.52 590.89
00025857 00000078 935.24 142.92 463.97 627.35 1000.62 402.17 1205.68 348.15 1080.82 484.95 1056.99 632.83 1216.73 588.10
00025858 00000079 938.24 144.50 461.34 628.26 1005.32 404.74 1208.25 352.23 1085.07 486.03 1057.18 632.86 1222.06 588.96
00025859 00000080 939.57 141.92 462.78 630.66 1007.32 404.42 1208.76 351.83 1087.32 489.04 1062.22 633.78 1225.70 589.84
00025860 00000081 939.90 145.53 465.02 638.59 1014.22 404.24 1219.84 358.35 1098.80 492.76 1068.67 634.58 1238.95 597.01
00025861 00000082 940.70 139.71 466.12 641.09 1011.80 404.43 1211.35 360.21 1097.57 501.16 1075.29 636.30 1237.35 598.56
00025862 00000083 941.66 147.50 464.42 634.65 1010.58 404.92 1221.32 361.58 1095.03 505.60 1068.97 641.45 1237.91 603.58
00025863 00000084 940.81 148.04 465.67 636.77 1010.73 406.97 1226.13 365.40 1096.95 511.23 1067.48 642.96 1241.20 606.79
00025864 00000085 942.87 153.56 463.71 638.82 1012.67 411.16 1224.31 369.83 1098.54 518.19 1070.01 648.29 1244.86 612.74
00025865 00000086 941.85 171.76 462.64 637.88 1015.95 418.23 1217.59 378.26 1100.59 525.14 1077.27 658.60 1241.46 625.47
00025866 00000087 941.65 179.50 465.40 640.49 1011.85 438.21 1209.92 392.06 1094.87 551.27 1077.64 673.62 1239.69 634.82
00025867 00000088 937.46 189.29 468.17 631.55 1008.10 463.50 1210.29 414.09 1099.25 574.58 1075.65 690.48 1239.32 648.97
00025868 00000089 931.89 210.81 468.23 632.44 1008.27 468.02 1213.15 427.26 1096.01 589.73 1078.72 705.85 1244.10 672.46
00025869 00000090 932.13 226.10 462.42 619.57 997.43 481.27 1209.86 435.51 1091.15 611.88 1071.47 720.69 1237.99 681.93
00025870 00000091 925.75 227.72 465.08 628.87 995.32 493.43 1201.15 453.18 1092.78 632.94 1074.67 730.18 1243.18 696.05
00025871 00000092 923.78 239.14 468.09 623.70 992.28 506.13 1194.80 468.25 1089.86 650.29 1073.37 736.53 1237.20 704.31
00025872 00000093 920.77 252.89 464.45 623.85 1000.01 515.63 1199.09 482.98 1088.45 651.40 1073.92 746.50 1234.52 719.48
00025873 00000094 919.86 256.49 467.72 627.71 997.87 518.19 1197.05 485.75 1084.91 655.62 1070.47 752.26 1228.55 725.89
00025874 00000095 917.71 267.61 470.12 620.36 996.88 518.11 1197.28 490.09 1081.42 659.46 1067.54 755.15 1221.62 732.57
00025875 00000096 914.74 265.45 472.72 621.78 992.99 518.08 1195.70 490.90 1078.21 662.30 1064.21 759.28 1218.37 737.51
00025876 00000097 914.35 268.41 475.66 619.26 991.56 520.13 1196.41 491.69 1078.20 665.28 1065.15 764.28 1216.68 741.57
00025877 00000098 915.71 264.69 472.45 620.63 991.99 518.39 1196.59 489.62 1077.93 661.99 1065.08 766.14 1212.11 743.63
00025878 00000099 915.28 263.16 469.60 616.64 992.56 516.07 1196.17 488.97 1078.04 661.42 1068.23 764.27 1207.95 743.33
00025879 00000100 916.55 260.45 468.46 617.20 994.45 517.64 1195.31 488.95 1079.58 661.42 1070.66 763.54 1207.53 741.23
00025880 00000101 913.67 264.55 473.04 617.45 994.77 517.93 1196.86 490.62 1081.68 663.70 1072.77 768.04 1206.38 747.08
00025881 00000102 913.34 270.30 476.79 623.70 997.10 523.06 1197.23 496.80 1083.54 670.25 1073.48 771.91 1211.34 751.39
00025882 00000103 916.62 280.46 473.86 610.39 996.77 529.64 1196.80 503.44 1083.92 675.97 1073.25 772.99 1212.64 752.65
00025883 00000104 916.43 287.74 473.00 605.23 995.63 532.25 1197.83 507.13 1083.36 678.33 1070.04 773.69 1212.91 754.19
00025884 00000105 914.50 285.22 474.65 614.88 994.30 532.90 1197.91 508.33 1083.27 679.39 1070.02 777.62 1214.96 758.27
00025885 00000106 914.11 287.21 474.88 614.16 992.40 535.41 1196.93 509.13 1081.68 679.70 1068.54 779.44 1217.40 758.60
00025886 00000107 914.43 283.13 476.37 611.02 981.57 536.63 1196.17 504.71 1077.43 683.78 1059.10 776.83 1218.07 750.27
00025887 00000108 912.26 280.67 476.73 613.95 978.76 538.78 1193.28 507.22 1073.52 687.66 1054.80 775.78 1217.98 749.13
00025888 00000109 912.79 287.32 472.57 608.94 977.62 539.98 1194.28 507.63 1072.81 688.51 1053.79 777.72 1218.54 750.08
00025889 00000110 912.21 285.98 472.08 612.58 978.57 540.81 1193.12 507.17 1072.66 689.28 1056.55 778.79 1220.93 750.05
00025890 00000111 911.62 285.99 472.15 609.65 978.63 539.56 1192.57 506.21 1072.90 689.53 1056.34 777.07 1219.92 748.68
00025891 00000112 911.78 284.24 474.30 614.59 979.23 542.01 1191.38 508.48 1071.70 687.37 1055.38 777.70 1217.87 749.13
00025892 00000113 912.76 289.50 471.87 608.11 977.63 538.71 1191.85 506.45 1070.89 687.91 1052.83 776.80 1215.60 749.48
00025893 00000114 911.74 289.97 472.21 605.50 977.34 538.05 1191.93 506.01 1071.77 687.86 1052.45 776.41 1214.66 749.27
00025894 00000115 911.20 286.85 472.78 607.86 976.04 536.63 1190.89 505.12 1071.01 688.09 1051.66 777.28 1211.62 750.71
00025895 00000116 908.32 294.44 472.62 601.26 981.39 537.59 1189.21 511.60 1070.15 676.00 1057.60 773.50 1223.13 748.19
00025896 00000117 907.72 288.64 471.91 604.12 980.73 536.40 1189.97 510.43 1071.93 676.20 1057.86 773.16 1224.55 747.98
00025897 00000118 908.51 285.15 472.54 607.52 980.52 536.34 1188.29 509.11 1070.82 674.81 1058.18 771.02 1224.48 744.74
00025898 00000119 907.91 281.00 471.25 612.39 979.87 534.02 1186.96 507.09 1071.05 675.08 1059.36 770.87 1224.86 744.73
00025899 00000120 910.73 265.34 471.49 632.01 986.14 524.80 1183.85 500.10 1067.46 674.90 1060.45 767.03 1211.00 747.02
00025900 00000121 912.03 268.69 471.17 624.89 985.86 518.36 1186.40 490.98 1067.39 663.97 1059.41 762.50 1213.02 740.31
00025901 00000122 915.17 258.87 467.88 627.76 989.14 516.71 1184.62 484.61 1069.21 653.57 1061.50 750.38 1217.20 723.98
00025902 00000123 915.68 247.61 468.74 623.63 983.69 506.81 1182.80 469.28 1069.13 639.52 1059.39 738.80 1216.93 707.48
00025903 00000124 917.22 229.17 469.02 634.27 989.36 495.65 1188.72 458.89 1073.37 623.61 1060.58 728.60 1222.70 697.32
CROP_BBOX: 650 0 1783 1063
