Video ID: 	Z_aE_EsaMp4
H: 	1080
W: 	1920
FPS: 	25.0

FRAME INDEX X0 Y0 W H [Landmarks (5 Points)]

00017540 00000000 834.07 134.20 412.12 536.00 939.80 350.89 1113.25 304.94 1051.31 399.30 1012.79 541.15 1159.56 502.90
00017541 00000001 827.42 133.62 417.01 536.70 934.48 347.07 1110.31 300.56 1047.79 396.26 1007.98 539.43 1158.25 500.61
00017542 00000002 825.43 133.09 413.18 535.96 930.66 343.88 1106.48 298.02 1042.23 392.64 1001.92 536.82 1153.55 498.87
00017543 00000003 823.99 131.78 412.96 538.34 930.20 345.29 1105.83 299.97 1042.29 395.66 1001.36 537.75 1152.66 500.22
00017544 00000004 822.88 132.20 414.58 539.37 929.58 349.71 1108.50 304.78 1042.88 400.06 1002.10 541.38 1154.38 503.91
00017545 00000005 822.61 134.06 416.96 542.87 930.58 353.05 1107.32 306.37 1045.49 404.13 1005.35 545.57 1155.11 506.69
00017546 00000006 822.76 137.50 415.46 547.69 930.67 356.57 1106.79 309.25 1047.89 413.13 1007.89 553.84 1154.47 514.35
00017547 00000007 825.15 141.60 416.25 554.29 933.11 362.60 1110.76 316.92 1049.04 419.27 1007.73 559.68 1157.02 521.23
00017548 00000008 832.07 157.69 412.83 553.94 945.92 373.79 1116.05 321.33 1062.24 426.49 1020.19 574.46 1160.71 530.30
00017549 00000009 837.52 165.98 412.33 551.65 949.85 382.05 1118.04 327.91 1066.09 432.91 1028.38 582.17 1167.82 536.12
00017550 00000010 842.67 167.89 411.32 557.17 953.05 389.33 1122.45 334.55 1070.85 447.29 1032.45 591.56 1171.01 544.75
00017551 DELETE   848.30 172.61 407.40 553.43 956.78 400.14 1124.11 347.27 1072.84 462.80 1038.66 601.47 1171.28 556.35
00017552 DELETE   849.42 178.73 405.98 549.89 964.27 415.33 1131.76 365.99 1083.33 480.23 1046.20 612.61 1175.07 571.74
00017553 DELETE   856.67 189.66 399.22 547.73 970.82 427.47 1139.13 377.91 1090.27 496.03 1049.92 625.06 1180.01 583.18
00017554 00000014 855.63 187.41 404.72 559.03 974.92 431.51 1145.41 379.36 1100.45 507.29 1055.70 635.75 1183.33 591.74
00017555 00000015 857.25 185.28 406.79 564.47 978.95 435.25 1150.48 380.39 1106.11 513.87 1059.95 640.01 1188.13 593.63
00017556 00000016 861.80 191.26 407.52 565.15 980.87 432.87 1155.17 376.05 1114.85 509.73 1058.36 645.67 1186.68 597.20
00017557 00000017 862.17 192.35 409.27 563.86 982.58 433.67 1156.78 375.48 1117.40 508.23 1058.27 642.86 1190.07 592.96
00017558 00000018 862.97 192.43 408.13 564.21 981.88 434.61 1156.76 377.22 1115.50 510.53 1053.82 642.54 1188.84 593.21
00017559 00000019 864.42 193.01 404.40 564.32 981.33 436.30 1155.68 380.04 1113.92 514.43 1052.92 645.65 1185.57 597.59
00017560 00000020 864.08 194.61 406.09 566.08 982.33 438.17 1157.07 383.97 1114.76 520.35 1054.71 648.52 1185.80 602.28
00017561 00000021 865.58 199.54 404.47 563.90 981.44 440.58 1157.28 385.29 1113.61 523.62 1056.19 653.14 1185.48 606.82
00017562 00000022 866.13 203.10 403.47 563.56 983.30 440.23 1157.28 386.08 1115.72 524.13 1057.80 653.76 1184.66 608.56
00017563 00000023 866.78 195.20 402.38 567.34 986.05 433.52 1157.90 383.54 1118.27 516.67 1056.85 647.54 1182.80 605.65
00017564 DELETE   866.41 184.85 402.28 559.87 987.62 422.15 1155.53 378.71 1110.68 498.37 1057.18 626.78 1185.81 590.95
00017565 DELETE   860.07 174.78 410.95 568.78 989.74 395.61 1157.91 358.46 1109.56 474.63 1051.46 607.42 1184.18 576.30
00017566 00000026 864.32 156.68 407.04 565.50 987.54 376.64 1158.14 339.62 1112.29 448.66 1048.68 585.18 1187.12 554.22
00017567 00000027 871.09 148.74 396.40 560.30 989.57 362.90 1161.74 324.12 1112.88 425.21 1045.83 570.70 1188.07 538.63
00017568 00000028 876.79 139.48 391.40 553.76 991.19 348.89 1168.30 313.42 1115.47 410.52 1048.20 557.49 1191.71 527.19
00017569 00000029 875.78 134.93 393.31 552.86 990.83 339.36 1168.18 308.81 1112.25 397.96 1046.14 546.06 1191.41 519.40
00017570 00000030 879.08 128.87 394.03 538.80 992.64 327.04 1170.99 307.39 1106.56 390.96 1049.10 536.43 1191.60 521.28
00017571 00000031 881.77 126.77 393.22 535.61 994.82 323.39 1174.12 305.37 1111.96 384.22 1049.32 530.88 1193.94 517.12
00017572 00000032 885.08 122.25 391.44 544.14 998.55 320.12 1175.87 304.65 1116.91 378.09 1051.51 527.01 1195.52 515.66
00017573 00000033 885.81 121.79 394.04 536.49 1001.44 318.09 1176.15 302.37 1116.46 374.64 1053.20 520.12 1195.20 508.55
00017574 00000034 888.93 120.88 393.64 535.95 1004.98 314.02 1176.85 300.55 1117.27 370.27 1053.71 513.52 1195.47 503.59
00017575 00000035 890.88 121.00 393.78 528.39 1004.88 311.32 1178.55 297.24 1116.88 368.48 1052.69 509.28 1197.35 498.49
00017576 00000036 891.09 120.33 393.55 530.52 1005.11 311.51 1178.63 297.57 1115.55 368.91 1052.51 508.66 1196.92 498.03
00017577 00000037 890.34 120.15 395.08 533.81 1002.83 312.83 1179.42 298.73 1114.32 370.97 1050.48 510.95 1198.18 500.21
00017578 00000038 887.05 118.39 398.72 550.59 1002.84 316.91 1177.46 302.57 1115.81 373.29 1049.78 517.42 1199.24 506.76
00017579 00000039 884.53 121.45 400.87 553.34 999.72 319.11 1176.04 303.76 1113.01 377.23 1047.40 520.83 1199.30 509.36
00017580 00000040 884.06 125.46 400.25 547.13 997.87 321.33 1173.89 305.10 1108.82 384.19 1046.91 522.29 1197.08 510.15
00017581 00000041 882.84 129.59 401.12 545.26 996.11 323.86 1172.77 307.36 1106.86 391.59 1044.50 524.85 1195.86 512.30
00017582 00000042 882.98 133.92 402.75 543.06 996.53 325.18 1172.71 309.76 1105.91 395.24 1044.24 524.57 1196.54 512.58
00017583 00000043 883.16 136.22 401.86 543.33 995.77 327.21 1174.74 311.68 1106.37 397.61 1042.89 527.95 1197.02 515.77
00017584 00000044 883.31 134.41 399.59 539.54 996.26 328.72 1174.89 312.82 1107.24 400.57 1044.26 528.60 1195.21 516.37
00017585 00000045 885.39 135.65 393.76 527.64 999.41 330.67 1180.60 314.10 1111.03 402.61 1050.13 532.30 1195.80 519.67
00017586 00000046 886.39 134.55 393.23 529.18 1002.36 330.49 1182.03 315.11 1113.00 403.75 1051.94 532.17 1195.45 520.65
00017587 00000047 886.09 134.95 393.24 529.29 1002.42 330.85 1182.26 315.12 1112.92 403.86 1052.44 533.77 1194.48 521.98
00017588 00000048 884.78 134.96 396.62 530.99 1003.21 331.11 1182.97 315.49 1113.12 404.91 1054.16 534.73 1194.83 522.97
00017589 00000049 884.11 137.33 397.54 529.92 1002.97 332.15 1180.95 315.54 1112.48 407.01 1054.64 536.19 1193.48 523.42
00017590 00000050 883.70 137.44 399.30 533.53 1001.90 332.74 1180.30 315.24 1111.37 408.33 1054.06 537.29 1194.99 523.74
00017591 00000051 882.63 138.80 400.32 537.30 998.75 333.40 1180.42 314.46 1110.47 409.81 1052.71 541.64 1197.31 526.63
00017592 00000052 882.03 140.84 401.27 541.41 996.26 332.84 1180.43 314.10 1109.96 410.44 1049.67 543.67 1199.10 528.76
00017593 00000053 881.40 141.23 401.35 543.78 996.22 331.79 1179.73 314.45 1109.91 411.04 1048.55 544.49 1197.23 530.78
00017594 00000054 881.51 140.77 399.69 545.73 995.81 331.87 1179.56 314.78 1109.34 409.64 1047.75 544.47 1196.80 531.02
00017595 00000055 881.06 139.10 400.89 545.87 995.94 331.92 1179.67 314.87 1108.66 407.82 1047.33 542.63 1196.48 529.23
00017596 00000056 881.10 138.22 399.88 544.85 995.85 331.76 1179.36 314.44 1108.51 407.22 1047.32 542.16 1195.71 528.56
00017597 00000057 881.61 138.41 399.30 544.96 996.08 330.75 1179.83 313.78 1108.74 406.30 1047.34 542.10 1195.77 528.80
00017598 00000058 880.98 138.01 400.10 546.41 995.40 331.30 1179.13 313.77 1109.30 405.00 1047.92 542.93 1196.28 529.22
00017599 00000059 881.32 136.87 400.04 547.17 995.60 330.91 1179.03 313.37 1109.83 404.51 1048.46 542.73 1196.65 529.00
00017600 00000060 880.89 136.89 400.61 548.28 995.65 329.91 1178.44 312.77 1109.70 404.01 1048.35 542.60 1196.47 529.17
00017601 00000061 880.86 137.45 400.26 548.19 995.28 329.42 1177.75 312.32 1109.44 403.61 1048.51 542.96 1195.83 529.60
00017602 00000062 879.59 137.18 401.90 553.87 994.92 329.13 1176.18 311.97 1109.23 403.25 1048.38 544.23 1195.45 530.80
00017603 00000063 878.14 139.40 403.20 554.25 992.46 329.44 1174.19 312.38 1107.61 403.96 1047.09 544.97 1195.69 531.36
00017604 00000064 875.54 138.84 404.69 554.57 988.49 329.00 1169.21 311.39 1103.82 402.13 1044.32 545.45 1192.55 531.38
00017605 00000065 871.69 133.01 398.78 559.15 981.84 342.43 1161.03 306.95 1098.86 395.77 1034.57 547.92 1186.07 516.84
00017606 DELETE   860.32 129.95 407.33 546.92 965.00 334.26 1146.00 300.47 1076.94 386.53 1020.55 531.25 1178.73 503.08
00017607 DELETE   854.66 126.51 406.38 534.33 953.82 331.58 1130.31 291.12 1060.93 384.75 1017.19 527.34 1168.94 493.51
00017608 DELETE   837.45 123.52 410.24 532.51 941.77 330.58 1119.00 287.14 1051.43 375.50 1009.76 523.02 1159.57 486.73
00017609 00000069 831.10 120.99 407.38 538.30 934.85 334.48 1112.20 293.15 1044.03 381.32 1000.47 527.83 1148.62 494.20
00017610 DELETE   828.52 127.25 410.32 542.57 932.24 346.97 1110.56 302.86 1046.16 400.79 1002.53 542.15 1151.03 505.82
00017611 00000071 826.58 130.19 411.14 555.09 934.82 355.63 1108.38 314.21 1047.63 413.86 1005.28 554.79 1145.04 520.40
00017612 DELETE   829.98 155.97 406.90 550.11 945.41 365.84 1112.09 329.11 1055.80 422.35 1008.67 569.55 1138.83 539.20
00017613 00000073 832.70 165.89 407.94 563.83 940.62 380.97 1115.53 346.61 1053.23 445.56 1004.17 587.46 1143.65 559.35
00017614 00000074 837.59 174.32 406.87 572.76 941.66 396.89 1112.43 360.65 1048.39 472.80 1007.07 603.27 1150.79 572.24
00017615 DELETE   838.35 186.68 408.41 563.07 942.95 408.07 1114.85 372.98 1047.18 489.55 1009.24 615.90 1149.02 585.91
00017616 00000076 836.89 187.90 407.39 566.55 944.19 418.28 1116.83 384.13 1051.91 501.62 1010.46 623.26 1148.60 594.05
00017617 00000077 835.57 190.45 408.97 565.44 944.42 422.30 1117.50 389.39 1052.30 505.42 1009.52 624.75 1147.47 596.81
00017618 00000078 840.26 190.77 402.80 553.50 946.91 418.03 1121.68 386.09 1055.20 501.44 1013.82 620.67 1148.51 593.56
00017619 00000079 847.15 184.61 397.88 553.31 948.12 406.81 1121.77 378.07 1051.68 489.80 1009.54 610.31 1147.92 585.85
00017620 00000080 848.96 176.19 398.86 566.76 951.04 393.56 1121.97 366.22 1049.83 476.11 1007.67 599.76 1147.47 576.82
00017621 00000081 850.80 169.06 402.76 568.11 952.91 384.02 1129.44 356.54 1051.28 463.49 1006.93 595.35 1147.77 572.45
00017622 00000082 856.48 164.19 394.99 562.14 956.84 375.04 1134.36 349.75 1056.33 454.41 1008.08 587.95 1147.40 567.30
00017623 00000083 857.81 160.55 394.58 559.22 959.86 370.14 1137.49 347.00 1060.14 450.52 1009.69 581.48 1148.22 562.28
00017624 00000084 856.33 160.72 396.94 552.60 959.22 366.07 1137.54 342.69 1060.89 445.60 1009.42 576.06 1147.04 556.77
00017625 00000085 856.66 158.91 395.15 547.53 960.93 362.79 1136.52 340.21 1061.97 439.62 1009.00 570.72 1144.14 552.20
00017626 00000086 855.75 160.55 397.77 539.78 960.54 358.60 1137.25 334.85 1060.29 431.63 1007.53 565.59 1140.98 546.38
00017627 00000087 850.79 155.48 401.21 543.01 956.82 355.63 1132.72 327.73 1058.14 426.39 1007.26 562.67 1138.43 539.98
00017628 00000088 850.70 154.48 400.74 542.63 954.86 354.60 1131.72 324.86 1056.26 424.25 1004.49 560.00 1139.13 536.03
00017629 00000089 850.45 155.40 401.43 540.79 954.35 352.51 1132.21 321.90 1056.28 422.69 1005.41 559.55 1139.97 534.74
00017630 00000090 850.93 153.64 401.51 542.89 955.46 352.04 1133.96 321.48 1058.52 420.90 1007.00 560.30 1141.26 535.50
00017631 00000091 853.35 150.98 398.72 546.54 956.76 351.96 1136.17 321.01 1060.27 420.98 1008.20 562.32 1142.91 537.31
00017632 00000092 856.52 152.10 395.27 547.55 961.10 352.83 1139.45 324.71 1062.74 420.33 1008.32 562.13 1144.83 539.36
00017633 00000093 857.26 151.67 394.54 548.05 963.28 354.50 1140.81 326.42 1065.54 423.84 1011.82 563.00 1146.73 540.02
00017634 00000094 859.11 151.62 393.49 546.87 963.64 354.60 1142.05 327.41 1066.61 426.52 1009.78 562.05 1147.25 540.09
00017635 00000095 857.24 153.57 394.97 543.14 962.16 353.70 1139.27 325.92 1065.22 425.80 1009.31 561.07 1144.20 539.02
00017636 00000096 853.02 152.43 399.22 542.62 956.82 349.70 1134.36 320.68 1057.21 419.39 1006.42 559.72 1139.64 535.85
00017637 DELETE   835.77 138.83 412.46 553.06 938.91 344.59 1129.40 324.29 1039.58 425.72 986.52 556.95 1135.78 540.55
00017638 DELETE   827.27 137.79 410.18 557.22 927.44 342.88 1109.51 326.76 1017.26 424.58 969.83 556.03 1111.99 543.61
00017639 00000099 822.20 142.98 407.19 546.06 922.57 339.77 1104.10 325.87 1012.12 423.94 964.02 551.56 1106.18 540.84
00017640 00000100 823.20 141.70 405.31 551.30 925.16 338.79 1105.08 322.23 1018.02 421.09 969.07 551.11 1112.24 538.13
00017641 00000101 824.20 135.50 411.47 561.85 928.58 342.51 1109.89 320.35 1024.31 421.64 978.05 554.29 1123.61 536.36
00017642 00000102 822.04 138.88 412.49 554.95 929.87 347.71 1112.92 325.43 1030.82 423.60 983.84 555.41 1128.00 537.37
00017643 00000103 821.41 143.04 410.02 551.53 931.97 354.08 1112.18 331.30 1035.95 432.32 989.29 559.87 1129.25 541.21
00017644 00000104 827.00 159.62 405.76 547.21 938.92 363.07 1114.59 338.36 1044.80 434.24 995.18 570.97 1123.36 550.85
00017645 00000105 827.22 161.88 404.56 547.84 936.50 365.74 1113.34 340.87 1042.83 438.69 993.50 573.40 1122.91 553.22
00017646 00000106 817.48 153.88 408.26 542.89 928.42 359.17 1105.22 333.77 1034.23 439.32 991.67 563.18 1129.39 542.02
00017647 00000107 816.15 145.85 413.10 549.04 919.78 356.63 1094.16 321.23 1023.92 429.00 989.07 562.89 1123.98 533.75
00017648 00000108 808.58 140.84 420.74 551.97 912.04 353.92 1085.20 315.02 1017.26 417.87 984.34 558.74 1119.82 526.54
00017649 00000109 805.06 140.63 416.08 551.22 906.17 352.12 1077.15 313.19 1011.07 410.67 978.70 555.77 1115.57 523.91
00017650 00000110 799.14 142.75 416.04 552.87 899.82 351.82 1073.44 315.79 1004.69 412.80 971.49 558.27 1108.57 528.78
00017651 00000111 797.32 149.06 415.79 549.01 898.57 357.84 1074.27 324.15 1000.28 424.73 966.76 564.00 1103.14 536.47
00017652 00000112 803.75 158.21 403.04 538.79 904.50 373.70 1076.03 331.85 1013.37 429.59 969.06 574.52 1101.96 538.63
00017653 00000113 804.80 164.15 400.60 533.20 906.13 374.41 1076.74 333.43 1015.09 430.67 969.47 574.88 1101.20 540.00
00017654 00000114 803.60 160.79 407.07 537.48 905.79 372.88 1077.22 329.08 1017.19 431.45 972.57 574.40 1104.80 536.88
00017655 00000115 799.69 154.97 418.12 550.14 903.48 359.99 1078.65 327.42 1006.88 432.46 972.47 566.28 1110.88 539.28
00017656 00000116 798.56 152.77 419.49 556.31 901.55 361.03 1077.42 325.91 1006.23 432.27 973.27 569.07 1113.54 540.04
00017657 00000117 803.21 164.13 418.50 548.84 908.42 368.48 1079.65 331.26 1013.27 432.91 971.90 574.22 1113.56 543.25
00017658 00000118 802.87 168.44 422.44 547.04 906.51 372.02 1080.05 334.30 1012.07 438.35 971.62 577.12 1114.77 545.67
00017659 00000119 804.49 172.58 419.98 540.21 906.68 375.79 1078.54 335.58 1011.12 441.72 973.32 578.34 1114.32 544.86
00017660 00000120 802.80 174.16 421.95 535.72 905.59 378.04 1076.60 334.65 1010.87 441.07 974.83 579.56 1114.08 543.39
00017661 00000121 796.68 167.21 414.46 534.93 898.41 385.89 1065.67 333.13 1010.10 439.05 974.43 581.68 1107.49 536.89
00017662 00000122 791.04 160.96 412.02 542.01 892.90 384.48 1057.47 328.48 1003.58 433.34 971.97 581.53 1102.55 534.33
00017663 00000123 785.57 161.57 411.63 539.58 886.40 385.19 1047.94 323.73 995.66 432.25 968.47 580.89 1097.64 529.48
00017664 DELETE   775.49 161.80 415.45 544.56 877.70 381.92 1039.61 321.06 985.97 430.59 958.91 580.04 1090.05 529.54
00017665 00000125 766.03 163.51 418.74 537.33 867.67 386.15 1030.67 321.93 975.84 429.80 950.63 580.25 1082.56 527.04
00017666 00000126 756.93 175.56 424.04 526.78 859.76 390.83 1017.69 326.24 962.49 434.44 942.17 582.72 1069.97 529.92
00017667 00000127 750.47 188.71 428.56 517.63 856.40 399.56 1010.01 331.14 960.70 439.77 943.32 587.27 1069.51 530.92
00017668 00000128 748.16 192.08 428.10 522.78 855.56 408.39 1007.43 339.08 958.14 452.55 944.58 596.30 1068.37 539.48
00017669 00000129 749.43 189.73 426.29 537.85 855.96 419.49 1005.16 354.44 955.98 469.17 942.53 608.13 1063.81 555.20
00017670 00000130 752.34 195.37 421.17 540.17 854.16 429.60 1006.65 365.03 956.67 485.81 944.52 616.60 1069.88 563.35
00017671 00000131 751.46 201.29 423.18 537.31 855.52 437.24 1009.29 371.58 960.63 493.35 946.86 621.09 1073.37 566.81
00017672 00000132 754.39 203.60 422.87 535.79 857.51 436.76 1014.01 374.32 962.32 497.49 947.03 622.41 1075.13 570.25
00017673 00000133 760.06 199.42 416.96 537.19 860.55 435.84 1017.37 374.96 964.65 496.31 948.86 622.17 1076.55 571.28
00017674 00000134 760.49 197.29 417.39 538.24 863.93 428.70 1021.13 371.03 967.35 493.71 951.29 619.49 1075.28 571.96
00017675 00000135 765.43 193.87 414.60 541.01 867.03 423.88 1023.34 367.19 970.17 490.10 952.62 614.92 1078.98 568.08
00017676 00000136 768.80 192.00 414.65 542.94 870.91 420.93 1027.51 363.79 975.87 485.97 956.15 613.71 1082.45 566.47
00017677 00000137 769.66 194.78 417.84 537.26 875.49 418.16 1030.15 361.27 980.29 481.29 959.10 609.20 1084.42 562.24
00017678 00000138 772.03 192.29 421.44 540.02 876.96 416.08 1035.60 354.73 985.75 475.33 963.67 608.97 1093.32 557.89
00017679 00000139 772.49 192.86 423.89 537.95 879.36 412.52 1038.76 350.74 989.10 470.60 965.78 604.20 1097.56 552.48
00017680 00000140 773.48 191.46 424.58 537.38 880.61 410.93 1039.85 348.75 991.04 467.89 967.58 602.17 1099.41 550.07
00017681 00000141 774.88 189.45 419.30 536.99 881.56 411.50 1041.05 350.13 992.56 467.76 968.20 604.15 1096.73 553.10
00017682 00000142 776.34 189.42 416.27 535.50 881.60 414.41 1042.30 352.87 993.22 471.74 969.02 606.98 1096.43 556.12
00017683 00000143 775.64 192.35 416.39 534.10 880.42 419.02 1041.46 358.23 990.97 478.73 967.90 609.95 1095.03 559.65
00017684 00000144 775.57 193.14 413.84 531.69 879.09 423.53 1039.49 364.16 988.57 482.56 967.37 612.05 1092.64 562.79
00017685 00000145 774.70 197.22 412.81 528.83 880.30 424.87 1040.56 366.48 991.04 488.84 969.90 613.47 1094.53 564.71
00017686 00000146 778.03 199.74 408.06 527.11 881.41 428.12 1040.46 370.76 991.12 493.73 972.35 616.04 1095.52 567.89
00017687 00000147 780.35 198.41 410.56 530.29 883.90 428.48 1043.16 373.18 992.80 495.83 973.57 616.22 1095.96 569.70
00017688 00000148 786.11 196.99 411.39 532.96 888.20 426.57 1045.81 374.42 994.63 496.89 975.60 616.25 1096.01 572.77
00017689 00000149 794.63 189.59 415.40 539.72 898.60 418.83 1062.27 371.79 1003.01 480.10 976.04 610.25 1103.57 571.48
00017690 00000150 802.53 187.39 410.38 546.40 905.57 410.37 1072.68 368.63 1011.06 474.79 977.48 606.15 1108.96 572.01
00017691 00000151 809.72 178.33 406.29 548.57 914.34 407.63 1080.94 369.83 1016.99 473.71 978.16 602.72 1109.42 572.68
00017692 00000152 821.25 175.48 402.86 547.43 927.48 397.37 1093.83 363.55 1029.36 468.95 990.95 599.44 1115.24 572.81
00017693 DELETE   833.43 164.85 397.08 559.09 942.33 387.55 1109.76 363.08 1044.69 459.52 1001.88 592.64 1126.64 573.05
00017694 DELETE   844.07 160.40 397.00 563.90 952.45 377.47 1120.04 354.22 1053.49 457.78 1008.31 586.23 1132.78 567.21
00017695 00000155 850.58 159.52 404.89 568.68 959.33 375.05 1132.38 349.21 1064.08 452.02 1015.10 585.54 1146.71 563.57
00017696 DELETE   857.87 155.27 404.91 574.07 968.48 377.72 1142.44 351.24 1074.84 452.17 1021.96 586.71 1159.69 564.30
00017697 00000157 863.71 163.00 403.86 565.50 975.86 384.70 1150.18 358.36 1081.74 457.72 1028.54 590.23 1169.39 567.76
00017698 00000158 866.47 167.00 403.25 562.18 980.26 392.46 1153.41 365.36 1088.21 465.26 1034.62 593.62 1175.37 570.60
00017699 00000159 865.92 171.54 403.69 562.14 980.73 400.38 1154.66 372.23 1090.74 475.15 1038.95 600.97 1178.92 577.41
00017700 00000160 864.50 176.91 402.48 557.38 979.43 404.80 1152.11 376.07 1090.52 482.05 1039.72 605.84 1176.09 581.69
CROP_BBOX: 557 0 1539 946
