Video ID: 	Umy4GyKZcZA
H: 	1080
W: 	1920
FPS: 	29.97002997002997

FRAME INDEX X0 Y0 W H [Landmarks (5 Points)]

00050155 00000000 600.96 103.57 372.16 539.08 695.55 326.78 864.98 283.05 807.75 396.97 761.44 515.80 904.24 477.68
00050156 00000001 602.20 105.35 372.72 534.97 697.28 329.27 865.74 283.57 809.17 397.00 763.99 515.42 905.40 475.78
00050157 00000002 605.76 107.90 373.37 534.41 704.05 329.12 872.99 284.05 819.05 394.46 770.14 516.18 911.53 477.44
00050158 00000003 614.24 108.62 367.84 534.27 710.48 330.07 879.76 288.35 824.36 393.65 773.30 515.93 915.62 480.13
00050159 00000004 617.45 110.26 367.71 533.52 714.89 329.57 885.91 292.69 828.62 394.45 773.79 515.06 918.50 483.38
00050160 DELETE   616.67 110.86 365.16 532.79 716.11 330.22 886.54 296.46 829.67 399.52 771.52 514.20 916.46 485.24
00050161 DELETE   607.76 113.72 367.14 530.90 710.62 330.91 879.81 299.26 824.03 405.88 765.87 515.58 908.02 488.29
00050162 00000007 595.27 123.73 367.84 532.47 699.70 338.90 867.52 309.21 810.28 418.56 749.62 523.08 894.92 497.20
00050163 DELETE   580.05 125.82 363.47 539.00 685.85 347.44 850.47 318.06 798.53 428.46 736.95 527.26 881.64 501.90
00050164 DELETE   567.37 132.62 360.13 540.33 677.25 355.56 838.15 328.27 787.76 433.11 729.48 535.84 867.59 512.57
00050165 00000010 549.80 134.15 369.03 540.85 664.59 358.78 827.29 333.46 775.20 436.12 720.57 540.09 856.35 518.17
00050166 00000011 553.03 149.84 360.79 526.98 652.75 362.47 817.43 324.53 774.22 427.84 710.56 551.91 847.49 518.51
00050167 00000012 547.96 152.14 363.96 527.09 648.68 363.84 816.10 323.92 772.75 431.84 707.26 555.16 846.69 520.32
00050168 00000013 540.34 155.98 373.20 539.15 646.64 365.68 812.28 324.40 773.15 431.05 713.52 565.46 846.79 529.76
00050169 00000014 537.97 160.17 375.18 538.58 647.37 365.35 812.18 325.81 773.36 432.42 713.94 567.39 845.17 533.32
00050170 00000015 536.34 163.26 377.52 537.14 647.17 366.32 811.63 325.98 772.42 433.65 712.89 568.16 844.17 533.46
00050171 00000016 535.60 163.46 377.03 540.44 646.53 367.29 811.90 327.43 773.01 436.02 712.77 571.05 845.05 536.58
00050172 00000017 534.98 163.28 373.81 538.53 645.86 369.60 811.52 331.22 771.61 438.85 710.00 571.67 842.29 538.48
00050173 00000018 533.67 161.75 375.66 539.57 645.05 371.42 811.63 332.64 771.22 439.90 709.26 570.60 843.46 537.01
00050174 00000019 533.77 160.24 373.80 536.93 645.35 372.50 813.35 333.90 770.89 441.71 707.85 570.86 841.70 537.62
00050175 00000020 533.08 159.61 374.77 537.59 645.49 372.66 813.68 334.68 770.88 440.53 706.51 570.20 840.81 537.60
00050176 00000021 531.27 159.14 375.23 542.53 643.68 372.55 811.67 336.22 768.14 441.90 702.48 571.55 837.63 540.45
00050177 00000022 530.25 158.50 375.89 545.73 642.05 373.68 810.85 337.00 766.86 440.86 699.90 571.26 838.24 539.99
00050178 00000023 527.86 158.89 378.19 552.20 639.98 371.52 809.91 336.39 764.35 441.26 694.95 571.55 837.18 541.40
00050179 00000024 527.29 159.79 379.04 550.87 639.46 370.99 809.32 336.82 762.86 440.71 693.32 569.30 836.77 539.89
00050180 00000025 527.57 159.84 379.49 550.01 639.46 370.14 809.56 336.22 762.76 440.14 692.85 567.55 837.70 538.38
00050181 00000026 527.88 159.26 378.90 549.18 639.47 370.48 809.73 335.85 763.29 440.13 694.15 567.84 838.42 537.99
00050182 00000027 528.43 159.31 377.96 546.01 640.01 370.73 809.85 336.21 763.12 440.25 694.69 566.79 838.28 537.10
00050183 00000028 528.96 159.00 376.49 540.13 640.70 372.78 809.74 337.53 763.13 441.16 696.49 566.95 837.09 536.74
00050184 00000029 529.19 156.62 375.50 539.52 639.96 372.85 809.85 337.58 762.66 441.76 695.80 566.23 837.27 535.89
00050185 00000030 528.50 156.50 374.81 537.96 638.67 373.47 808.43 338.00 760.97 443.64 694.24 565.01 836.22 534.51
00050186 00000031 527.78 154.40 375.69 540.80 638.26 373.77 807.50 338.27 760.56 445.79 692.97 564.70 836.00 534.12
00050187 00000032 526.75 154.02 376.88 540.25 637.69 374.07 807.36 337.08 760.40 446.95 692.68 562.75 837.89 530.95
00050188 00000033 526.54 153.53 374.88 538.31 636.88 374.11 806.64 336.95 759.24 446.88 691.34 561.16 836.88 529.23
00050189 00000034 525.46 153.10 374.75 538.51 636.26 373.43 805.62 336.70 758.78 446.97 689.00 559.07 835.71 527.61
00050190 00000035 525.93 153.51 373.16 537.30 635.97 373.80 805.18 337.16 757.87 447.17 689.44 560.13 834.80 528.72
00050191 00000036 525.32 153.30 374.17 539.64 635.28 373.98 803.89 337.29 757.01 446.95 689.24 560.92 834.02 529.38
00050192 00000037 524.93 152.91 373.61 539.83 634.36 374.44 803.16 338.24 756.15 447.78 689.09 562.91 832.72 531.75
00050193 00000038 526.18 153.20 373.10 540.33 634.61 374.96 803.48 338.20 756.50 448.73 690.26 564.90 833.45 533.32
00050194 00000039 527.44 152.32 371.08 542.77 635.08 374.58 803.77 338.48 756.73 448.30 691.06 566.53 832.83 535.48
00050195 00000040 526.77 152.10 370.93 543.72 634.83 374.62 802.76 338.85 756.41 447.61 691.98 568.07 831.44 537.16
00050196 00000041 527.46 152.44 372.32 545.59 635.52 375.03 802.63 339.76 756.43 446.95 692.67 568.99 831.44 538.39
00050197 00000042 527.54 152.25 372.54 545.99 635.89 374.93 802.53 339.96 756.03 446.76 693.86 569.95 830.60 539.56
00050198 00000043 527.61 153.24 372.52 546.55 636.28 374.92 802.56 340.23 756.19 446.33 693.85 570.57 830.10 540.42
00050199 00000044 527.67 153.37 372.39 546.40 636.43 374.93 802.60 340.23 756.49 446.29 694.28 571.19 829.85 541.10
00050200 00000045 527.61 153.48 372.70 546.71 636.57 374.68 802.82 339.84 756.98 446.13 694.09 571.08 830.11 540.86
00050201 00000046 527.61 153.04 372.28 546.64 635.99 374.97 803.38 339.80 756.73 447.08 694.09 571.75 830.94 541.26
00050202 00000047 528.00 152.32 372.51 548.07 635.70 375.62 803.19 339.42 756.68 447.39 694.41 572.08 832.18 540.74
00050203 00000048 527.39 151.78 373.38 549.65 635.82 375.51 803.58 339.51 757.58 447.64 694.44 572.02 832.70 540.77
00050204 00000049 527.60 153.09 373.30 548.38 635.83 375.24 803.77 339.92 757.16 447.86 693.95 571.65 832.53 541.02
00050205 00000050 527.95 152.69 373.52 549.07 636.17 375.01 804.69 340.00 757.96 448.09 694.32 572.37 832.93 541.98
00050206 00000051 527.88 152.48 372.46 548.58 635.71 375.15 804.96 340.16 757.32 449.14 693.86 573.23 832.27 542.90
00050207 00000052 528.32 151.39 372.53 550.27 635.93 374.92 805.80 340.57 757.53 449.26 693.49 573.04 832.84 543.26
00050208 00000053 528.31 153.09 372.30 548.01 635.98 375.09 805.57 340.76 757.53 448.82 693.26 572.63 832.48 542.94
00050209 00000054 527.76 152.55 373.25 549.73 636.00 374.94 805.62 341.08 757.77 448.73 693.30 573.38 832.24 544.07
00050210 00000055 527.36 152.20 373.78 552.12 635.75 375.26 805.38 341.07 757.59 448.20 693.30 574.17 832.70 544.54
00050211 00000056 525.43 152.95 376.38 561.36 635.46 373.20 805.01 340.70 757.73 448.25 690.67 576.47 832.24 548.31
00050212 00000057 525.38 154.79 377.25 561.47 635.10 372.62 805.80 341.31 757.17 448.69 686.71 573.66 833.87 546.56
00050213 00000058 524.99 154.81 379.03 564.28 634.15 373.51 806.29 341.09 756.77 450.59 684.04 572.20 837.26 544.26
00050214 00000059 524.59 154.85 379.87 564.31 633.95 373.89 806.08 340.86 756.40 451.84 682.95 571.70 837.69 543.32
00050215 00000060 525.27 153.54 379.28 565.43 634.62 374.55 805.74 341.95 756.61 451.76 683.66 572.27 836.71 544.22
00050216 00000061 524.97 153.89 380.01 563.86 635.08 374.85 806.82 342.84 757.67 453.31 686.51 574.78 836.41 547.00
00050217 00000062 525.34 154.87 380.22 563.84 636.34 374.85 807.84 345.24 758.62 453.54 688.59 576.54 835.37 550.77
00050218 00000063 526.00 157.35 379.62 560.85 638.00 376.08 808.25 347.19 760.08 454.20 691.26 577.76 834.46 552.76
00050219 00000064 526.42 155.08 377.65 564.07 639.07 376.31 808.61 348.42 760.27 457.85 691.48 579.10 832.60 555.20
00050220 00000065 526.55 157.87 377.50 559.63 639.42 377.18 808.19 350.10 759.44 459.61 692.93 580.23 830.88 556.94
00050221 00000066 527.88 156.99 375.71 559.43 639.49 380.01 808.08 352.82 759.03 459.96 694.08 581.53 831.41 558.37
00050222 00000067 528.67 158.30 374.38 558.87 639.99 382.73 807.91 355.31 759.31 461.82 694.96 581.84 832.87 558.93
00050223 00000068 529.39 157.65 373.26 558.94 640.38 384.26 807.98 357.97 758.57 464.32 694.33 582.07 832.45 560.28
00050224 00000069 529.30 157.97 372.53 561.54 639.73 384.55 807.88 358.98 757.60 467.93 692.77 583.23 832.05 562.04
00050225 00000070 530.33 159.33 371.71 558.15 639.90 385.83 807.58 360.42 756.33 469.29 693.57 584.30 830.49 563.27
00050226 00000071 531.42 158.78 371.72 561.04 641.17 385.78 808.86 361.93 756.91 469.81 694.62 585.45 830.30 565.81
00050227 00000072 531.67 158.51 372.62 564.33 641.50 385.49 810.68 361.29 758.24 469.53 694.57 586.92 831.50 567.32
00050228 00000073 533.46 158.73 371.77 567.83 641.56 383.95 812.04 360.43 758.34 469.60 693.98 588.16 831.98 569.34
00050229 00000074 533.23 157.42 373.46 568.39 641.94 384.21 812.23 359.94 758.97 469.56 694.41 588.00 832.33 568.74
00050230 00000075 533.41 157.41 373.24 568.04 642.02 383.93 812.19 360.46 759.89 469.14 693.49 587.55 831.75 569.22
00050231 00000076 534.03 158.69 373.06 566.50 642.34 384.71 812.44 361.49 759.43 468.66 693.61 587.42 831.62 569.30
00050232 00000077 534.92 158.46 372.42 564.78 643.01 385.36 812.51 361.63 760.02 468.25 694.73 586.30 831.96 567.77
00050233 00000078 535.24 158.53 372.77 564.82 643.59 385.56 813.44 361.91 760.71 468.07 695.23 586.66 832.64 568.15
00050234 00000079 536.84 158.13 371.42 566.22 644.51 384.90 814.38 361.80 761.18 467.39 695.74 586.72 833.44 568.61
00050235 00000080 537.97 157.19 370.01 566.89 645.46 385.16 815.00 362.25 762.09 467.03 696.62 586.71 833.90 568.71
00050236 00000081 537.85 156.91 370.17 566.86 646.16 385.57 815.33 362.85 762.63 467.58 697.01 586.81 833.86 569.06
00050237 00000082 538.11 157.00 369.78 566.88 646.41 385.72 815.55 363.25 762.76 467.43 696.81 586.69 833.78 569.18
00050238 00000083 538.09 157.74 369.84 566.39 646.21 385.55 815.44 363.20 762.61 467.39 696.53 586.64 833.69 569.22
00050239 00000084 538.08 156.81 369.99 568.22 646.30 385.66 815.57 363.71 762.72 467.54 696.40 586.80 833.73 569.73
00050240 00000085 538.60 157.18 369.19 568.02 646.47 385.55 815.48 363.67 762.57 467.66 696.53 586.76 833.79 569.78
00050241 00000086 537.83 158.32 370.20 566.35 645.95 385.41 815.14 363.08 762.81 467.29 696.71 586.84 833.76 569.51
00050242 00000087 536.87 158.38 370.98 566.36 645.48 385.22 814.54 362.98 762.68 467.88 696.31 587.24 832.74 570.05
00050243 00000088 536.49 158.52 371.75 567.11 644.94 384.67 814.52 362.72 762.46 468.38 695.66 587.10 833.13 570.11
00050244 00000089 536.45 159.07 371.33 566.40 644.47 384.55 814.04 362.57 761.42 469.09 695.50 587.79 832.65 570.72
00050245 00000090 536.21 158.48 371.90 569.57 644.32 383.76 813.34 361.81 760.69 468.17 696.00 588.21 832.65 570.98
00050246 00000091 535.90 158.54 372.20 569.96 644.37 383.43 812.37 362.23 759.25 468.45 696.00 588.84 829.89 572.36
00050247 00000092 536.06 157.60 371.01 572.21 644.83 383.24 811.40 362.23 758.56 467.78 697.14 589.96 828.81 573.70
00050248 00000093 535.91 156.91 371.75 574.54 644.37 381.52 812.17 360.83 757.85 466.17 695.17 589.81 828.88 573.77
00050249 00000094 536.92 153.01 371.54 577.15 643.66 378.62 814.55 357.84 760.56 462.34 691.27 586.17 831.41 569.72
00050250 00000095 537.16 154.36 370.99 568.83 643.76 378.31 812.76 356.11 759.40 460.08 690.52 581.38 830.61 563.20
00050251 00000096 538.94 155.59 370.80 564.32 644.48 376.92 813.96 353.27 760.79 456.62 689.78 576.34 832.80 556.86
00050252 00000097 541.90 153.91 370.60 565.21 645.46 377.11 816.03 351.83 761.28 457.71 691.15 575.45 836.74 554.60
00050253 00000098 543.92 155.06 370.16 560.85 647.45 377.45 818.89 353.37 761.40 456.66 692.96 575.95 837.73 555.92
00050254 00000099 547.03 155.05 368.80 561.09 649.34 376.89 820.25 354.59 762.30 456.29 695.38 576.15 839.63 557.56
00050255 00000100 549.48 156.46 367.19 560.87 651.25 376.28 821.28 355.24 762.68 457.07 697.37 576.22 840.86 558.57
00050256 00000101 551.00 156.92 366.38 560.27 652.90 375.95 822.42 355.83 764.07 457.25 698.33 575.71 841.89 558.72
00050257 00000102 551.31 157.06 366.98 560.76 653.66 376.01 823.19 355.51 764.98 457.24 699.25 576.11 842.59 558.87
00050258 00000103 550.99 156.96 366.65 561.73 653.20 375.80 822.36 355.74 764.38 456.59 699.41 576.71 841.59 559.76
00050259 00000104 550.53 156.79 365.57 563.20 652.52 376.47 820.88 356.02 762.79 457.16 699.35 578.26 840.08 560.80
00050260 00000105 549.64 157.07 366.60 564.69 651.69 377.93 821.71 357.31 762.44 459.74 697.89 580.47 839.97 562.99
00050261 00000106 548.29 154.72 367.85 566.20 651.16 379.89 821.61 358.26 763.56 463.93 699.63 583.49 839.29 565.54
00050262 00000107 546.11 158.09 369.25 562.99 650.18 380.56 818.92 361.04 760.06 466.55 698.70 585.76 833.35 569.38
00050263 00000108 544.61 166.18 370.45 563.01 649.92 380.07 817.46 359.72 758.72 466.58 698.78 588.37 832.03 571.08
00050264 00000109 543.34 170.87 373.24 562.94 649.33 379.53 818.11 359.70 759.01 469.83 698.41 590.67 832.62 573.53
00050265 00000110 542.57 170.46 374.14 564.68 649.37 381.92 818.19 360.84 759.38 472.50 700.45 592.63 834.58 574.30
00050266 00000111 541.42 172.60 375.80 564.61 647.87 385.61 817.44 363.54 758.19 476.31 700.24 594.59 835.81 575.46
00050267 00000112 541.98 172.78 376.39 569.74 647.17 388.75 817.80 366.74 756.04 481.81 699.79 599.12 835.95 580.24
00050268 00000113 542.16 174.60 378.93 571.39 646.56 391.70 820.29 368.68 757.22 485.28 700.81 603.70 838.17 584.02
00050269 00000114 540.07 170.82 376.02 571.29 645.46 387.71 813.46 366.21 757.40 487.05 708.34 599.35 839.02 580.95
00050270 00000115 542.04 171.90 373.31 567.85 648.12 388.44 814.01 367.07 759.14 487.38 712.26 598.79 838.53 580.54
00050271 00000116 542.65 171.10 374.78 570.05 650.44 388.08 816.75 367.34 762.81 487.13 715.07 599.39 840.82 581.58
00050272 00000117 543.68 170.75 376.08 570.44 649.20 389.10 819.03 365.82 763.81 485.01 715.30 599.02 849.74 578.54
00050273 00000118 542.71 171.87 378.27 569.82 647.57 387.91 818.27 363.99 762.21 484.14 710.49 596.24 852.17 575.10
00050274 00000119 545.32 176.39 376.21 563.85 646.89 392.83 821.20 361.36 762.35 477.98 708.72 599.98 849.95 572.57
00050275 00000120 541.76 173.47 373.00 552.80 642.02 393.99 812.37 356.50 757.18 476.39 709.35 596.00 844.72 563.54
00050276 00000121 534.65 182.06 377.65 539.34 634.29 397.31 801.99 353.30 746.30 475.51 704.29 594.57 838.87 556.66
00050277 00000122 524.06 183.85 388.24 534.13 624.47 402.64 791.82 352.49 736.97 477.93 697.22 593.58 833.64 550.22
00050278 00000123 521.36 188.52 389.84 527.04 618.98 406.53 786.84 352.76 729.93 483.63 688.43 589.23 833.65 543.10
00050279 00000124 520.12 187.93 389.18 530.25 617.11 406.92 785.05 353.81 727.08 485.02 681.72 587.49 831.31 542.13
00050280 00000125 522.97 192.31 386.60 533.57 621.19 405.56 788.29 356.83 729.66 485.26 687.20 595.39 828.17 553.36
00050281 00000126 527.03 193.72 383.77 541.22 626.15 407.09 794.18 360.79 736.35 489.73 694.22 603.05 833.26 563.02
00050282 00000127 529.34 193.66 382.85 542.65 629.31 409.01 795.74 363.51 739.47 490.68 698.90 605.30 833.92 566.27
00050283 00000128 529.75 192.68 383.32 543.73 630.19 410.14 795.45 366.26 739.34 492.95 698.02 605.19 832.82 567.72
00050284 00000129 529.56 191.48 383.99 546.59 629.85 411.07 795.74 367.76 738.87 494.83 697.04 606.26 832.19 569.44
00050285 00000130 529.63 193.41 383.28 545.78 629.59 409.86 796.55 367.48 738.27 494.87 695.26 605.92 832.02 569.69
00050286 00000131 531.46 192.64 380.84 545.28 630.47 407.91 796.44 366.19 737.61 492.70 696.16 604.73 831.57 569.11
00050287 00000132 531.47 191.84 380.36 548.34 630.17 404.30 796.66 364.37 736.55 488.57 694.16 603.60 830.22 569.48
00050288 00000133 529.63 190.85 380.23 541.61 628.50 401.08 794.68 360.83 734.06 484.21 692.14 598.58 828.41 563.66
00050289 00000134 527.10 186.03 379.16 539.30 626.00 398.20 792.42 358.48 731.96 482.33 691.01 597.70 823.38 563.17
00050290 00000135 525.92 179.92 379.53 544.00 624.28 396.49 791.55 355.31 732.04 480.62 691.16 596.36 824.38 560.41
00050291 00000136 525.10 175.78 380.01 549.77 623.53 396.11 792.24 355.59 731.84 481.46 688.68 597.19 824.53 561.88
00050292 00000137 524.96 179.71 377.98 547.32 622.50 396.71 792.66 359.11 730.64 486.51 683.98 597.83 822.62 564.82
00050293 00000138 524.56 188.64 376.71 545.94 619.77 404.92 791.79 368.05 729.39 493.29 675.67 600.61 821.88 569.11
00050294 DELETE   517.23 187.27 380.80 555.31 617.43 415.12 785.03 381.11 725.87 503.49 675.84 611.28 812.73 582.33
CROP_BBOX: 273 0 1274 956
