Video ID: 	NwE5qhVyjIM
H: 	1080
W: 	1920
FPS: 	29.97002997002997

FRAME INDEX X0 Y0 W H [Landmarks (5 Points)]

00054239 00000000 760.59 138.43 381.81 517.00 890.68 354.32 1038.15 314.87 1005.91 415.12 959.36 528.00 1082.60 494.80
00054240 00000001 766.01 136.46 380.86 515.25 896.80 349.34 1042.30 310.02 1010.72 408.13 962.32 522.78 1085.46 489.83
00054241 00000002 771.22 133.17 380.63 517.49 899.92 345.47 1046.53 304.37 1013.57 404.21 964.76 520.21 1089.91 485.88
00054242 00000003 775.38 131.93 382.12 517.73 903.34 344.55 1051.85 300.80 1019.78 402.64 968.35 520.19 1095.15 483.55
00054243 00000004 778.35 131.03 380.07 520.19 905.32 344.46 1054.77 301.91 1023.05 402.66 970.68 521.39 1098.29 485.61
00054244 00000005 779.96 130.42 377.89 523.69 906.65 344.94 1055.80 302.64 1024.64 404.51 971.85 523.17 1098.79 487.82
00054245 00000006 782.17 131.39 376.95 525.82 908.19 345.04 1057.98 303.68 1025.82 405.67 972.40 524.15 1100.66 489.66
00054246 00000007 783.08 132.30 376.13 526.34 909.72 346.24 1060.11 304.89 1028.11 406.22 973.39 525.41 1102.49 491.15
00054247 00000008 783.93 132.70 373.98 527.01 911.04 347.73 1061.06 306.52 1029.36 408.52 974.29 527.40 1102.38 493.38
00054248 00000009 785.81 132.12 373.41 528.61 912.49 348.75 1064.28 309.21 1031.26 409.63 974.34 528.57 1103.96 495.96
00054249 00000010 786.83 130.25 372.38 530.77 913.98 350.84 1064.29 311.65 1032.27 410.81 975.52 529.73 1103.74 497.44
00054250 00000011 787.29 130.56 372.30 531.84 916.08 353.63 1067.08 314.71 1035.10 412.90 977.10 532.75 1104.18 500.74
00054251 00000012 787.95 133.57 372.66 530.52 917.28 356.46 1069.71 318.80 1036.88 414.86 978.14 535.51 1105.07 504.38
00054252 DELETE   788.33 136.78 372.99 531.15 921.09 358.97 1072.40 322.79 1039.96 420.04 976.87 538.96 1103.95 509.01
00054253 00000014 789.21 138.80 372.33 531.39 921.34 361.27 1073.71 324.62 1040.93 422.22 976.47 541.31 1104.38 510.98
00054254 00000015 790.67 138.35 371.71 533.70 923.21 360.24 1074.51 324.76 1042.38 422.25 977.40 541.77 1104.66 512.46
00054255 00000016 793.96 140.15 369.25 533.91 923.46 357.18 1075.78 320.87 1044.25 421.19 979.56 542.64 1106.17 512.59
00054256 00000017 793.98 139.64 368.77 534.53 923.40 358.50 1076.63 322.07 1045.17 421.86 979.67 542.93 1107.57 512.64
00054257 00000018 793.60 139.17 370.37 534.76 923.01 358.95 1077.71 321.50 1046.10 421.75 980.27 543.44 1109.12 512.21
00054258 00000019 793.31 139.16 371.59 534.17 923.07 358.76 1079.24 321.39 1046.64 421.64 980.76 543.35 1110.54 512.11
00054259 00000020 794.68 139.77 371.45 532.59 923.96 359.77 1080.29 321.65 1047.83 422.25 982.06 543.54 1112.56 511.67
00054260 00000021 794.34 140.18 372.73 528.64 924.39 360.36 1081.57 321.74 1048.49 422.37 983.48 542.65 1113.61 510.26
00054261 00000022 794.88 140.15 373.71 524.19 923.95 360.59 1081.79 320.31 1048.21 422.40 984.83 540.84 1115.14 506.93
00054262 00000023 794.98 140.15 374.12 520.37 924.07 361.36 1081.03 320.31 1047.72 421.10 985.75 538.79 1114.84 504.15
00054263 00000024 794.67 138.75 374.43 518.06 924.23 361.41 1081.24 320.11 1047.61 420.68 986.91 538.05 1114.66 503.19
00054264 00000025 794.91 138.44 375.15 517.07 924.45 361.58 1081.64 319.97 1047.60 419.96 987.05 537.38 1115.04 502.21
00054265 00000026 795.84 137.21 375.14 516.08 924.57 361.34 1082.08 319.84 1046.94 419.98 987.00 536.49 1115.10 501.42
00054266 00000027 796.60 137.32 375.12 515.39 925.04 360.45 1082.43 319.68 1046.60 420.13 986.93 535.51 1114.48 501.10
00054267 00000028 797.76 137.99 374.96 514.58 925.43 359.97 1083.44 319.59 1046.81 419.97 987.35 535.29 1115.24 501.12
00054268 00000029 798.66 138.79 375.91 514.61 926.26 359.64 1084.69 319.46 1047.69 419.17 987.26 535.19 1116.12 501.22
00054269 00000030 798.67 140.11 376.81 516.36 926.79 360.10 1084.18 320.41 1048.16 419.48 986.53 535.27 1115.82 501.76
00054270 00000031 798.53 141.18 375.77 517.85 927.07 360.59 1083.70 321.08 1048.33 420.99 987.40 537.80 1114.73 504.57
00054271 00000032 799.60 142.16 374.53 517.09 927.78 361.04 1084.49 322.09 1049.00 421.37 988.34 538.83 1115.61 505.99
00054272 00000033 799.91 142.14 375.02 517.26 928.58 362.13 1085.30 322.05 1050.94 420.69 990.25 539.29 1117.74 505.45
00054273 00000034 801.40 140.38 375.41 516.38 929.24 362.19 1087.18 321.60 1051.90 420.60 991.37 538.49 1120.38 504.13
00054274 00000035 802.43 139.56 376.57 520.40 929.24 361.97 1090.35 321.38 1054.12 420.05 990.56 537.59 1126.13 503.07
00054275 00000036 803.34 139.54 375.63 520.69 929.96 362.64 1090.68 321.98 1054.69 420.00 990.80 537.48 1126.48 502.95
00054276 00000037 804.03 140.94 374.62 518.67 930.44 362.39 1090.69 322.08 1054.73 420.59 991.18 536.86 1126.18 502.62
00054277 00000038 804.23 141.22 374.63 518.43 930.90 362.24 1091.24 322.19 1055.46 421.12 991.33 537.16 1126.19 503.16
00054278 00000039 804.42 141.16 374.27 518.52 930.74 362.63 1091.27 323.10 1055.04 421.08 990.87 537.43 1125.94 503.87
00054279 00000040 804.31 140.85 374.83 520.06 930.71 362.58 1091.61 323.13 1055.39 421.63 990.86 538.42 1126.01 504.93
00054280 00000041 804.16 140.84 374.33 521.04 930.80 363.22 1091.10 323.26 1055.79 421.81 990.96 539.02 1125.87 505.15
00054281 00000042 803.48 142.38 375.12 520.01 930.65 363.10 1090.34 323.86 1054.99 422.91 990.65 539.27 1124.40 505.94
00054282 00000043 803.90 142.87 374.92 516.95 931.30 362.92 1090.40 323.41 1054.47 423.15 991.99 539.23 1123.18 505.65
00054283 00000044 803.77 145.09 372.19 516.47 932.53 363.35 1086.65 325.68 1051.85 422.74 991.75 540.26 1116.41 508.60
00054284 00000045 802.87 144.80 372.41 522.80 932.57 363.23 1087.40 327.40 1052.50 424.07 991.29 543.67 1116.59 513.62
00054285 00000046 802.73 145.09 372.41 524.08 932.68 363.44 1087.52 327.78 1052.90 424.45 990.65 544.37 1116.35 514.50
00054286 00000047 802.53 145.25 372.45 522.33 932.31 363.49 1087.95 327.75 1053.11 424.48 990.84 543.97 1116.92 514.01
00054287 00000048 802.33 145.70 373.41 517.89 932.42 363.19 1088.19 326.96 1053.24 424.43 991.33 542.14 1116.90 511.73
00054288 00000049 801.88 145.37 373.70 514.55 932.19 363.36 1087.68 326.08 1053.04 425.60 991.61 540.94 1116.34 509.62
00054289 00000050 802.64 145.33 375.03 513.35 932.02 363.80 1088.25 325.62 1053.24 425.59 992.05 540.19 1118.06 508.02
00054290 00000051 803.59 145.77 375.98 511.64 931.89 364.25 1087.96 325.59 1052.24 425.84 992.05 539.07 1118.63 506.35
00054291 00000052 805.09 146.58 375.34 509.40 932.46 364.30 1088.42 325.83 1052.14 425.57 991.67 537.11 1119.42 504.47
00054292 00000053 805.34 148.42 375.19 507.34 932.74 363.56 1088.77 325.29 1052.22 425.65 991.09 536.10 1119.22 503.57
00054293 00000054 805.93 149.45 374.58 507.55 933.16 363.51 1089.29 325.92 1052.93 425.47 991.05 535.91 1119.89 503.95
00054294 00000055 806.78 149.23 372.60 508.84 933.88 362.93 1089.20 325.85 1053.09 425.31 992.43 537.49 1118.97 506.05
00054295 00000056 807.80 148.58 370.96 511.48 935.56 361.92 1090.43 326.39 1054.57 424.88 993.85 539.23 1118.96 509.21
00054296 00000057 807.91 148.11 371.41 511.31 935.69 362.15 1090.45 326.79 1054.60 423.86 994.34 538.60 1119.59 508.66
00054297 00000058 808.30 148.67 372.09 509.28 936.04 362.03 1091.58 326.71 1055.27 423.93 994.57 537.48 1120.77 507.40
00054298 00000059 808.44 149.63 371.70 510.35 935.74 362.92 1092.07 327.60 1055.89 425.99 993.02 537.76 1121.76 507.58
00054299 00000060 808.69 148.61 372.01 510.41 935.07 362.56 1093.78 327.18 1057.28 425.25 993.55 538.73 1124.00 508.47
00054300 00000061 808.29 149.45 372.78 509.50 935.71 362.99 1094.08 326.89 1058.21 424.98 994.76 539.57 1124.11 508.76
00054301 00000062 809.22 149.60 371.21 508.08 936.62 362.85 1091.65 327.84 1055.43 425.80 994.12 538.16 1119.32 508.38
00054302 00000063 808.15 148.98 372.35 508.34 936.42 362.37 1092.75 328.20 1055.56 426.85 993.26 538.05 1119.52 508.91
00054303 00000064 808.95 149.35 371.23 507.61 937.56 361.94 1092.70 328.16 1055.70 426.99 994.06 537.92 1118.62 509.23
00054304 00000065 808.34 149.13 371.05 508.16 937.62 361.90 1093.20 327.94 1056.49 427.26 994.94 539.37 1119.17 510.58
00054305 00000066 807.45 148.79 371.22 511.29 937.52 362.11 1093.46 328.40 1057.34 427.66 995.02 540.79 1119.86 512.19
00054306 00000067 806.92 149.12 371.19 514.28 937.56 362.64 1092.86 329.23 1057.35 427.88 995.10 542.40 1119.49 514.09
00054307 00000068 810.02 151.18 370.75 514.86 935.20 363.79 1089.53 331.34 1054.40 422.76 990.90 548.05 1110.87 520.26
00054308 00000069 809.24 151.93 371.05 518.61 934.98 362.92 1088.36 331.69 1053.57 423.32 989.13 549.16 1108.43 522.59
00054309 00000070 808.98 150.95 371.35 520.60 934.72 362.92 1088.45 331.94 1053.43 424.09 988.66 550.16 1107.99 523.84
00054310 00000071 808.03 149.98 372.17 519.87 935.09 363.69 1089.41 332.35 1054.20 425.20 988.40 550.13 1108.28 523.47
00054311 00000072 808.31 149.82 371.87 514.44 934.97 364.19 1089.10 331.75 1053.17 425.87 987.77 548.20 1107.93 520.57
00054312 00000073 805.23 148.38 371.00 514.22 936.48 363.63 1090.48 329.94 1055.34 430.94 992.43 542.70 1115.40 514.29
00054313 00000074 806.34 148.47 371.55 513.37 935.65 364.32 1090.25 329.45 1054.28 430.76 991.61 541.02 1117.39 511.44
00054314 00000075 806.54 149.65 371.32 514.29 935.12 364.97 1089.12 329.47 1054.16 431.16 990.35 540.02 1118.21 509.85
00054315 00000076 805.86 148.20 371.71 517.49 934.76 364.08 1091.31 328.95 1056.12 431.12 989.97 541.68 1119.93 511.87
00054316 00000077 806.54 147.87 371.07 514.52 935.34 364.28 1091.27 328.09 1055.86 430.32 992.18 542.47 1118.45 511.88
00054317 00000078 806.93 148.38 370.46 513.02 936.15 363.46 1091.13 328.28 1055.52 429.32 993.28 542.72 1116.50 513.18
00054318 00000079 807.25 148.47 370.37 514.11 936.37 363.31 1091.27 329.66 1054.93 430.59 991.26 542.31 1115.40 514.10
00054319 00000080 806.86 148.58 371.31 512.00 936.50 362.90 1091.95 329.10 1055.50 431.70 991.62 541.45 1116.05 512.87
00054320 00000081 808.66 150.55 372.54 509.83 937.42 362.81 1093.24 329.99 1055.51 433.07 992.21 540.43 1117.62 512.36
00054321 00000082 814.66 154.28 370.17 508.99 936.33 366.60 1093.09 333.70 1054.31 430.33 987.21 546.14 1113.74 517.92
00054322 00000083 817.79 156.73 368.38 509.70 938.27 366.90 1096.67 335.48 1056.03 431.82 988.72 549.23 1114.82 522.24
00054323 00000084 821.89 158.64 366.48 507.50 939.13 366.33 1100.36 335.43 1057.96 433.73 990.28 550.20 1118.46 523.56
00054324 00000085 824.94 157.16 365.43 505.79 940.47 367.93 1102.61 336.33 1060.03 434.12 992.05 549.18 1122.53 522.06
00054325 00000086 820.50 161.91 373.42 503.34 949.92 360.21 1098.82 338.77 1052.57 445.28 1001.69 537.92 1117.55 518.95
00054326 00000087 821.27 162.85 372.81 500.57 950.18 359.16 1098.67 338.52 1053.08 446.39 1002.16 537.32 1117.63 519.11
00054327 00000088 821.21 162.45 373.13 505.47 950.99 358.70 1099.09 338.53 1054.02 446.31 1001.03 536.62 1118.60 518.41
00054328 00000089 820.93 161.76 374.30 508.40 950.71 357.92 1099.03 338.32 1053.71 446.11 999.88 535.85 1118.12 518.04
00054329 00000090 826.50 162.33 367.73 509.32 941.55 365.70 1103.25 334.70 1059.58 434.88 989.39 547.33 1125.74 520.71
00054330 00000091 822.42 162.52 370.55 513.50 937.94 366.58 1099.02 335.45 1056.87 434.89 987.05 547.51 1123.87 520.72
00054331 00000092 820.27 162.52 369.18 515.16 934.62 367.81 1093.79 336.43 1052.81 436.51 983.70 546.42 1120.33 519.61
00054332 00000093 818.77 161.69 369.59 517.58 933.64 368.51 1090.21 337.30 1050.61 438.97 980.92 545.02 1118.71 518.54
00054333 00000094 815.79 161.00 371.03 520.79 932.60 369.59 1089.96 338.26 1049.92 441.75 979.56 547.88 1117.09 521.38
00054334 00000095 814.50 162.36 370.91 522.45 933.01 369.36 1088.68 339.61 1048.37 443.55 978.65 550.90 1112.19 525.86
00054335 00000096 813.99 163.30 369.62 520.62 933.15 369.17 1085.56 339.40 1044.66 439.61 981.11 555.69 1103.99 530.65
00054336 00000097 811.97 162.03 370.29 523.90 931.25 368.99 1084.99 339.14 1043.40 439.89 981.39 559.09 1102.38 533.80
00054337 00000098 810.50 159.79 371.49 528.06 927.66 369.24 1083.75 338.45 1041.27 440.33 979.07 561.25 1102.17 535.23
00054338 00000099 809.05 159.93 371.69 525.25 924.95 368.87 1082.95 338.13 1038.66 441.43 977.43 561.96 1100.54 535.97
00054339 00000100 807.45 158.92 374.25 528.05 921.79 370.12 1080.94 337.82 1036.59 443.87 976.55 562.69 1102.10 534.85
00054340 00000101 805.98 156.35 371.18 528.97 916.74 370.68 1077.71 339.57 1031.05 447.07 971.11 563.84 1098.51 537.02
00054341 00000102 804.79 159.21 369.79 525.45 913.65 373.18 1074.25 342.83 1025.50 449.99 967.89 565.31 1094.20 539.22
00054342 00000103 803.51 158.89 367.13 526.59 909.07 377.55 1068.88 346.85 1018.15 455.63 963.16 569.54 1089.39 543.51
00054343 00000104 802.36 163.04 365.76 529.31 909.30 383.24 1060.05 352.98 1012.42 459.83 963.92 571.52 1081.10 546.49
00054344 00000105 796.33 168.48 369.92 534.17 906.34 388.29 1057.49 361.40 1008.30 472.35 956.93 577.20 1076.59 554.92
00054345 00000106 793.21 175.79 372.46 536.09 902.86 391.93 1055.85 368.56 1003.45 484.11 952.51 583.97 1073.21 564.38
00054346 00000107 793.59 182.05 372.28 535.09 899.86 398.06 1054.04 374.63 999.37 493.44 951.17 589.68 1074.45 570.14
00054347 00000108 793.03 188.45 371.05 531.95 900.13 402.19 1054.96 380.66 998.41 499.38 948.19 590.83 1073.04 572.87
00054348 00000109 794.59 195.16 369.84 527.22 900.36 408.29 1054.23 387.15 996.35 506.45 948.34 594.13 1072.72 576.65
00054349 00000110 795.94 198.72 369.10 527.08 899.87 414.65 1056.53 394.24 995.83 516.12 948.56 602.43 1073.00 586.07
00054350 00000111 795.86 202.70 366.79 528.80 899.59 422.18 1059.08 403.49 997.74 527.71 948.29 611.24 1073.23 596.17
00054351 00000112 795.78 209.51 369.52 525.68 899.93 426.50 1062.45 407.81 998.34 534.40 947.01 616.30 1073.03 601.36
00054352 00000113 796.52 211.23 368.68 525.54 898.88 430.64 1060.03 413.73 994.82 538.07 944.09 618.63 1069.08 605.25
00054353 00000114 796.17 212.60 368.74 523.19 895.73 431.34 1056.88 415.21 990.52 539.26 941.35 619.05 1065.16 606.35
00054354 00000115 795.79 211.67 369.07 523.57 892.24 431.00 1052.41 417.07 983.79 539.69 937.47 617.98 1061.21 607.11
00054355 00000116 792.88 208.92 371.12 527.97 888.34 432.11 1048.96 419.04 978.98 540.21 933.79 618.89 1057.87 608.55
00054356 00000117 788.47 210.74 374.05 527.63 885.26 433.01 1047.58 419.79 976.70 540.67 931.39 619.98 1056.51 609.38
00054357 00000118 784.23 214.62 376.49 525.30 882.77 435.39 1044.60 422.38 974.58 542.70 929.98 621.03 1054.17 610.41
00054358 00000119 779.96 219.52 377.70 523.90 878.77 436.42 1040.41 424.79 969.74 548.06 926.35 623.22 1049.40 613.76
00054359 00000120 775.66 218.64 379.63 527.37 874.06 437.38 1035.37 426.20 964.29 547.81 923.44 625.58 1044.71 616.51
00054360 DELETE   769.14 220.94 383.11 526.23 869.44 435.97 1030.75 425.45 958.89 548.93 919.93 624.97 1040.66 616.22
00054361 00000122 766.34 220.76 382.56 527.67 864.80 435.86 1024.96 424.84 953.62 548.00 916.54 624.32 1037.03 615.10
00054362 DELETE   762.17 221.13 382.63 527.00 860.19 433.21 1020.01 422.47 948.67 548.08 912.31 622.45 1032.83 613.54
00054363 00000124 763.08 222.54 378.18 528.92 851.70 429.66 1013.00 419.41 944.39 553.56 904.64 625.28 1031.52 613.97
00054364 DELETE   759.83 220.19 379.46 530.54 848.84 431.35 1009.14 421.21 940.18 555.08 900.00 625.79 1028.81 614.50
CROP_BBOX: 460 0 1407 942
