Video ID: 	wprlE3-hZ98
H: 	2160
W: 	3840
FPS: 	23.976023976023978

FRAME INDEX X0 Y0 W H [Landmarks (5 Points)]

00091653 00000000 1930.79 238.81 730.43 1044.80 2044.86 717.38 2340.03 681.65 2123.19 820.91 2081.36 1028.19 2347.37 1000.04
00091654 00000001 1922.58 229.22 740.54 1028.42 2036.98 695.20 2336.69 658.21 2115.94 800.36 2071.09 1005.00 2343.41 976.74
00091655 00000002 1918.03 229.08 740.25 1007.89 2036.43 683.87 2338.52 639.85 2116.19 780.43 2067.26 991.08 2342.87 957.11
00091656 00000003 1917.18 224.60 742.49 1016.44 2036.41 683.08 2339.39 640.17 2118.61 782.74 2068.21 989.93 2347.04 956.62
00091657 DELETE   1924.70 220.75 739.12 1043.54 2040.44 692.73 2344.37 662.51 2124.37 808.63 2076.22 1008.06 2352.95 985.11
00091658 DELETE   1938.90 237.35 726.31 1052.30 2056.14 716.69 2356.18 687.43 2140.12 826.09 2091.70 1027.78 2363.51 1004.57
00091659 DELETE   1952.03 236.60 724.41 1066.72 2064.44 726.60 2366.69 706.69 2143.97 849.36 2096.84 1040.51 2367.36 1025.04
00091660 00000007 1965.73 231.00 722.63 1095.36 2082.63 725.11 2383.52 707.73 2147.97 843.00 2100.33 1058.77 2363.76 1042.46
00091661 DELETE   1987.16 225.49 716.52 1083.93 2107.31 723.77 2387.08 690.20 2169.13 848.05 2133.38 1057.83 2386.37 1029.32
00091662 00000009 1999.85 226.52 723.53 1071.46 2123.37 715.58 2412.38 683.36 2186.30 834.84 2138.40 1043.60 2403.94 1016.50
00091663 DELETE   2019.62 232.72 725.66 1055.50 2144.95 703.63 2436.79 682.23 2203.87 830.11 2146.41 1033.47 2421.75 1016.69
00091664 DELETE   2031.73 229.46 727.64 1064.50 2166.87 698.57 2461.59 685.57 2226.29 825.31 2160.41 1025.46 2435.53 1014.85
00091665 DELETE   2033.07 218.25 736.76 1088.32 2182.99 699.00 2485.70 695.44 2245.97 822.04 2172.90 1025.47 2447.29 1021.57
00091666 00000013 2042.53 230.23 745.88 1091.85 2200.79 698.97 2507.19 706.30 2259.89 823.61 2178.61 1021.25 2454.96 1025.76
00091667 00000014 2059.63 229.85 733.35 1086.33 2199.89 676.02 2528.11 720.41 2272.81 832.06 2184.24 1001.72 2480.15 1039.35
00091668 00000015 2064.11 220.26 740.53 1100.86 2211.69 674.90 2545.57 724.59 2288.92 835.54 2195.30 1008.11 2495.30 1049.14
00091669 00000016 2064.51 218.04 753.36 1106.88 2223.26 673.20 2558.60 727.52 2306.42 843.35 2205.19 1013.13 2507.34 1057.38
00091670 00000017 2069.93 212.93 758.17 1114.09 2231.44 679.87 2570.91 732.17 2318.82 848.92 2212.64 1021.64 2516.30 1064.21
00091671 00000018 2082.45 208.87 752.09 1111.50 2239.71 685.49 2583.76 746.49 2327.03 865.74 2221.02 1028.31 2525.01 1076.88
00091672 00000019 2088.97 216.04 750.47 1104.22 2245.53 689.58 2593.34 753.99 2331.63 869.67 2224.63 1029.98 2530.72 1081.50
00091673 00000020 2086.82 217.22 757.16 1099.41 2246.26 688.48 2598.89 757.56 2333.92 872.73 2224.76 1028.83 2536.06 1084.18
00091674 00000021 2087.87 216.34 758.73 1097.53 2248.09 688.26 2598.77 758.35 2333.11 872.52 2226.71 1029.33 2533.39 1085.22
00091675 00000022 2085.63 218.52 762.17 1097.22 2249.84 685.48 2596.49 755.61 2330.57 868.38 2225.30 1028.32 2526.11 1084.72
00091676 00000023 2083.55 218.31 763.55 1097.61 2245.23 683.20 2592.16 753.50 2323.17 864.54 2221.87 1027.86 2522.32 1084.15
00091677 00000024 2083.02 213.60 762.06 1106.48 2246.25 679.10 2590.79 752.36 2321.94 865.93 2217.57 1024.33 2517.86 1083.04
00091678 00000025 2084.26 214.66 757.60 1106.15 2246.72 678.21 2586.77 750.27 2321.05 864.99 2218.10 1023.87 2514.54 1082.01
00091679 00000026 2082.90 205.91 761.34 1109.42 2241.24 679.11 2587.10 750.30 2318.64 863.01 2215.02 1024.72 2515.29 1081.32
00091680 00000027 2084.06 205.66 759.70 1099.44 2240.75 678.24 2585.52 750.41 2317.83 861.24 2213.64 1021.88 2510.42 1079.14
00091681 00000028 2086.16 203.91 757.22 1103.15 2240.69 679.05 2586.02 749.10 2318.36 861.31 2214.58 1022.69 2512.66 1078.24
00091682 00000029 2086.86 204.98 757.33 1103.91 2240.04 680.31 2587.77 750.23 2317.88 863.47 2213.86 1024.19 2514.88 1079.67
00091683 00000030 2085.81 206.56 758.35 1103.71 2241.09 680.27 2588.94 749.88 2320.62 862.88 2215.68 1025.20 2516.67 1080.48
00091684 00000031 2087.05 202.46 756.68 1114.08 2243.05 680.39 2588.50 747.14 2324.58 863.46 2218.15 1026.25 2519.33 1079.29
00091685 00000032 2090.54 201.80 751.63 1117.71 2245.07 681.21 2588.63 744.13 2328.20 861.91 2221.34 1028.38 2520.43 1078.95
00091686 00000033 2093.65 199.34 749.62 1110.94 2243.84 682.41 2588.74 741.60 2327.96 856.75 2223.42 1027.86 2521.18 1075.16
00091687 00000034 2096.77 204.48 745.46 1096.79 2244.50 679.39 2584.20 734.22 2324.35 847.78 2223.41 1023.12 2516.33 1067.41
00091688 00000035 2098.32 207.03 744.75 1087.13 2247.36 676.15 2581.10 727.34 2325.25 839.89 2224.87 1017.23 2512.55 1058.65
00091689 00000036 2097.29 206.54 746.62 1079.47 2248.43 674.48 2581.54 724.75 2328.00 830.33 2227.65 1015.05 2511.61 1055.82
00091690 00000037 2099.72 206.54 745.35 1072.49 2248.28 670.44 2583.67 720.34 2328.70 822.86 2227.83 1010.62 2515.06 1050.89
00091691 00000038 2095.73 202.09 751.26 1069.02 2247.34 663.00 2586.67 717.45 2331.74 815.63 2229.61 1004.99 2520.78 1048.25
00091692 00000039 2092.87 199.02 753.41 1062.78 2248.29 656.52 2588.25 715.35 2337.50 809.55 2232.66 998.35 2524.39 1044.40
00091693 00000040 2091.26 194.36 758.15 1060.10 2248.06 651.11 2590.64 709.82 2337.34 802.55 2233.42 991.86 2527.55 1037.54
00091694 00000041 2090.96 192.45 760.56 1059.75 2245.87 644.56 2593.80 703.20 2334.89 799.63 2230.43 986.16 2534.01 1031.82
00091695 00000042 2087.71 185.34 766.23 1075.35 2243.75 639.96 2596.52 698.39 2336.73 790.04 2231.09 988.18 2539.88 1033.53
00091696 00000043 2091.06 177.88 762.27 1090.94 2245.59 641.06 2598.43 693.20 2339.92 786.90 2234.30 995.14 2542.33 1035.99
00091697 00000044 2093.66 180.54 759.46 1088.66 2249.22 639.35 2599.44 691.03 2343.20 785.67 2234.94 992.55 2541.52 1033.34
00091698 00000045 2092.24 180.11 762.87 1080.47 2248.33 636.25 2601.20 694.06 2340.42 785.41 2232.51 986.27 2541.66 1032.04
00091699 00000046 2091.07 184.11 764.74 1068.62 2249.56 634.34 2601.99 696.73 2342.32 786.61 2231.89 980.80 2541.08 1030.19
00091700 00000047 2089.52 185.88 766.01 1059.28 2248.79 635.44 2602.86 701.05 2342.50 789.51 2233.26 981.20 2540.86 1033.35
00091701 00000048 2092.13 193.83 760.77 1054.96 2250.64 643.19 2599.00 701.96 2345.07 794.37 2237.43 985.16 2541.44 1031.46
00091702 00000049 2096.35 196.05 757.63 1065.35 2252.22 649.68 2599.68 709.82 2343.15 808.03 2233.90 989.80 2541.77 1037.05
00091703 00000050 2099.34 198.50 749.20 1070.25 2254.35 660.30 2594.40 714.27 2344.47 815.57 2237.60 1001.08 2533.78 1044.50
00091704 00000051 2096.42 203.41 747.03 1084.53 2247.95 671.39 2593.16 720.58 2337.54 826.10 2232.51 1017.32 2530.80 1057.29
00091705 00000052 2092.51 203.97 748.05 1090.53 2238.63 679.72 2582.74 727.38 2326.17 839.32 2225.16 1027.18 2519.23 1065.68
00091706 00000053 2089.12 206.90 746.79 1098.20 2234.41 692.07 2572.61 732.77 2322.75 848.99 2224.94 1037.44 2510.04 1071.06
00091707 00000054 2076.39 209.48 756.40 1111.99 2227.31 692.44 2568.47 743.47 2311.71 861.65 2212.39 1036.13 2504.26 1078.02
00091708 00000055 2068.98 218.36 753.77 1112.99 2220.52 701.19 2559.05 755.39 2303.24 876.54 2205.02 1042.36 2496.27 1086.84
00091709 00000056 2063.81 227.94 751.41 1116.94 2215.40 705.37 2548.55 762.00 2294.54 887.58 2199.92 1047.50 2487.60 1094.30
00091710 00000057 2056.46 223.54 756.40 1155.84 2211.62 713.10 2533.80 758.88 2290.28 897.58 2186.37 1072.19 2459.30 1108.49
00091711 00000058 2051.51 231.88 758.93 1142.78 2205.83 714.82 2531.94 759.22 2288.30 900.13 2183.62 1077.52 2459.64 1112.38
00091712 00000059 2051.19 241.96 751.92 1133.47 2204.77 716.91 2528.14 758.32 2285.57 895.40 2182.81 1076.79 2456.79 1109.28
00091713 00000060 2051.53 239.68 745.79 1134.63 2201.89 716.13 2524.37 753.29 2280.61 890.06 2181.02 1074.30 2455.26 1103.53
00091714 00000061 2052.95 239.69 739.80 1133.93 2203.57 711.32 2521.72 741.94 2275.07 879.09 2182.87 1068.79 2453.42 1092.85
00091715 00000062 2058.16 222.89 742.44 1131.26 2204.25 698.94 2533.56 741.98 2281.27 872.07 2188.71 1042.73 2478.19 1079.93
00091716 00000063 2058.37 224.03 741.91 1126.87 2208.51 691.06 2537.33 735.53 2285.16 863.98 2188.84 1034.11 2480.92 1072.72
00091717 00000064 2062.38 222.14 735.03 1111.39 2205.27 691.19 2532.81 733.22 2281.21 855.51 2191.62 1028.22 2480.56 1064.23
00091718 00000065 2064.05 219.77 732.42 1101.85 2205.54 687.91 2534.00 730.85 2282.62 849.25 2194.23 1020.60 2482.96 1056.93
00091719 00000066 2067.78 221.91 729.06 1090.30 2206.90 691.54 2531.94 730.43 2283.54 847.12 2198.14 1019.37 2482.58 1052.45
00091720 00000067 2067.13 221.79 729.46 1084.90 2207.77 689.81 2533.20 732.42 2284.95 847.37 2197.28 1017.47 2480.75 1053.62
00091721 00000068 2070.93 222.81 725.27 1086.91 2208.39 693.70 2532.97 735.46 2285.30 850.69 2198.30 1020.78 2480.49 1056.18
00091722 00000069 2065.32 224.96 730.71 1092.39 2207.17 695.81 2531.10 738.81 2286.21 856.76 2196.93 1024.45 2478.42 1061.53
00091723 00000070 2061.55 225.13 733.75 1094.53 2204.55 699.51 2531.85 744.20 2283.35 862.64 2195.29 1029.83 2478.62 1068.30
00091724 00000071 2060.75 225.98 733.10 1101.35 2204.29 702.60 2532.17 751.40 2285.09 872.26 2194.41 1034.83 2477.45 1076.34
00091725 00000072 2056.53 224.11 740.95 1126.15 2210.82 710.27 2529.27 746.94 2285.43 881.25 2186.43 1058.47 2455.28 1087.03
00091726 00000073 2059.14 230.88 737.88 1123.14 2208.39 714.16 2527.01 748.64 2282.32 884.00 2186.11 1061.79 2456.14 1088.60
00091727 00000074 2059.26 232.31 737.86 1122.88 2207.24 716.08 2526.29 748.82 2282.20 883.96 2186.74 1063.93 2454.57 1089.36
00091728 00000075 2060.25 225.39 737.39 1130.77 2207.83 713.14 2526.99 748.20 2281.07 885.25 2186.68 1062.99 2453.61 1090.40
00091729 00000076 2058.62 221.82 737.50 1137.73 2210.27 711.88 2528.52 747.84 2283.34 883.82 2188.48 1064.64 2451.96 1092.97
00091730 00000077 2064.62 218.79 734.05 1119.63 2206.91 703.80 2535.18 752.74 2284.77 876.49 2194.83 1043.88 2474.40 1085.53
00091731 00000078 2066.85 218.05 734.60 1123.64 2208.94 703.79 2535.90 746.11 2286.80 871.02 2197.03 1047.27 2475.27 1084.00
00091732 00000079 2070.42 221.84 735.16 1121.12 2212.98 706.55 2541.78 746.39 2292.86 868.59 2203.53 1048.55 2484.46 1082.99
00091733 00000080 2073.28 225.43 734.20 1113.01 2215.24 711.38 2545.01 748.87 2295.88 863.55 2205.71 1049.97 2483.93 1082.67
00091734 00000081 2074.10 222.88 735.55 1109.18 2212.72 713.30 2545.99 753.57 2295.00 866.05 2204.70 1047.57 2485.65 1081.83
00091735 00000082 2076.00 224.20 733.05 1100.89 2214.78 713.98 2547.74 757.33 2297.10 868.25 2205.47 1046.29 2484.76 1082.69
00091736 00000083 2072.10 223.61 740.08 1126.66 2222.70 728.07 2543.13 765.68 2300.91 879.24 2197.54 1068.22 2462.22 1097.70
00091737 00000084 2070.29 229.06 745.65 1127.92 2223.16 737.65 2542.61 773.36 2305.53 891.29 2205.53 1082.69 2461.76 1110.65
00091738 00000085 2076.90 256.69 739.49 1110.73 2220.13 758.77 2537.94 788.11 2305.95 906.75 2207.41 1100.86 2454.97 1124.96
00091739 00000086 2081.32 261.19 738.61 1117.73 2216.60 770.92 2532.19 805.11 2301.95 928.08 2205.89 1110.38 2455.94 1139.15
00091740 00000087 2086.51 272.81 733.34 1116.02 2215.30 788.92 2529.06 828.88 2304.30 955.89 2207.54 1124.86 2453.50 1159.02
00091741 00000088 2084.39 295.61 736.40 1101.93 2212.61 804.49 2532.89 844.58 2305.67 970.95 2210.72 1140.68 2457.92 1174.78
00091742 00000089 2075.94 328.62 743.32 1076.11 2214.98 815.67 2536.54 855.19 2299.56 982.72 2213.41 1148.96 2487.55 1180.42
00091743 00000090 2074.38 327.32 745.00 1088.33 2206.11 828.91 2536.08 863.80 2306.48 991.90 2210.76 1167.10 2466.76 1196.49
00091744 00000091 2065.13 329.85 749.24 1098.87 2220.29 835.74 2529.75 859.50 2303.70 1006.27 2208.87 1169.61 2468.18 1186.86
00091745 00000092 2065.49 333.51 747.99 1099.50 2219.30 837.17 2529.24 864.49 2304.87 1015.33 2206.51 1174.83 2467.90 1195.27
00091746 00000093 2066.27 332.48 745.88 1107.36 2220.78 840.94 2529.55 869.79 2305.07 1021.11 2209.69 1179.38 2469.03 1200.98
00091747 00000094 2065.65 330.18 747.36 1112.90 2220.16 840.89 2530.43 869.91 2304.62 1021.37 2208.84 1181.98 2469.14 1203.78
00091748 00000095 2065.07 329.44 748.18 1111.12 2220.74 839.52 2531.10 867.71 2304.33 1014.26 2208.10 1179.29 2465.00 1200.33
00091749 00000096 2064.24 320.57 749.27 1123.02 2220.52 836.21 2533.73 862.99 2305.42 1011.43 2209.53 1180.37 2468.48 1200.35
00091750 00000097 2068.29 322.39 744.80 1117.11 2223.51 834.24 2534.70 858.81 2307.58 1004.21 2210.94 1177.78 2467.63 1196.37
00091751 00000098 2074.68 330.93 745.61 1094.69 2216.84 827.97 2540.29 864.10 2304.79 990.48 2217.51 1166.65 2488.25 1195.52
00091752 00000099 2077.27 333.00 743.33 1086.09 2217.24 827.20 2537.04 860.13 2304.73 988.43 2221.61 1163.28 2489.50 1189.57
00091753 00000100 2076.65 332.41 744.87 1082.77 2218.24 824.25 2535.55 856.17 2305.58 985.42 2219.76 1161.57 2485.27 1187.43
00091754 00000101 2078.42 328.86 743.78 1083.28 2218.28 822.55 2537.94 855.67 2305.36 983.66 2218.35 1157.07 2488.12 1183.60
00091755 00000102 2076.26 330.80 746.30 1081.90 2217.04 823.57 2537.77 856.13 2303.68 983.42 2216.29 1157.96 2487.21 1184.22
00091756 00000103 2074.58 334.11 746.02 1079.11 2216.12 826.28 2539.40 860.65 2302.20 985.26 2214.78 1159.81 2488.11 1187.43
00091757 00000104 2071.09 331.20 748.22 1086.99 2214.36 827.14 2540.16 862.79 2303.76 989.70 2213.27 1162.71 2489.74 1191.08
00091758 00000105 2068.00 331.54 748.89 1088.21 2212.39 826.82 2538.34 864.34 2300.33 993.80 2210.69 1165.36 2484.99 1195.54
00091759 00000106 2066.95 323.42 741.85 1105.76 2218.74 831.99 2529.48 853.81 2301.15 1003.86 2205.08 1175.54 2464.37 1192.24
00091760 00000107 2067.46 327.93 740.34 1098.88 2220.21 830.20 2528.96 850.91 2302.72 999.64 2207.08 1172.04 2465.91 1187.98
00091761 00000108 2064.60 328.80 742.44 1099.33 2220.59 827.51 2528.75 847.15 2298.82 991.16 2208.67 1168.62 2462.24 1183.30
00091762 00000109 2070.20 320.62 742.71 1095.40 2207.29 814.22 2532.36 848.65 2292.95 979.24 2205.02 1156.61 2479.59 1185.27
00091763 00000110 2074.10 320.00 737.94 1092.17 2206.56 810.57 2532.84 843.04 2290.93 973.58 2203.04 1151.64 2480.88 1179.00
00091764 00000111 2073.78 314.24 739.62 1096.93 2205.86 805.05 2532.75 838.25 2289.41 972.62 2201.15 1148.43 2481.44 1176.45
00091765 00000112 2077.24 302.92 732.63 1105.96 2202.86 800.39 2530.40 835.08 2285.31 970.73 2201.35 1146.86 2482.16 1175.65
00091766 00000113 2077.64 289.02 734.28 1128.37 2200.30 792.04 2526.63 827.62 2289.98 963.99 2196.30 1147.18 2453.76 1178.01
00091767 00000114 2078.68 283.02 735.10 1129.02 2202.47 789.42 2526.04 825.27 2290.98 959.20 2198.04 1142.68 2451.07 1174.00
00091768 00000115 2079.69 279.77 736.32 1131.79 2205.96 785.63 2528.58 821.65 2295.12 955.50 2201.35 1138.74 2454.68 1170.18
00091769 00000116 2077.95 282.77 737.67 1123.00 2207.07 781.90 2527.79 819.99 2296.40 955.04 2200.49 1133.97 2455.89 1166.74
00091770 00000117 2078.20 282.27 736.58 1121.09 2208.55 779.89 2525.60 819.81 2296.15 953.21 2201.10 1131.53 2451.92 1165.86
00091771 00000118 2078.11 281.78 736.96 1117.25 2208.21 780.50 2523.66 819.76 2294.72 952.09 2201.57 1130.86 2450.41 1164.40
00091772 00000119 2078.99 277.21 737.59 1120.47 2209.45 779.43 2522.62 816.90 2294.97 949.13 2203.03 1128.18 2447.41 1160.56
00091773 00000120 2079.68 271.13 736.38 1126.08 2208.41 774.91 2520.10 811.27 2290.16 941.84 2199.63 1125.25 2441.24 1156.76
00091774 00000121 2075.51 264.17 742.32 1141.54 2204.99 768.64 2517.20 800.69 2284.01 927.27 2198.02 1126.68 2437.48 1154.88
00091775 00000122 2072.27 270.41 732.92 1134.20 2199.21 767.67 2514.93 798.18 2282.47 935.14 2202.28 1134.73 2470.62 1161.55
00091776 00000123 2064.85 277.82 735.45 1145.17 2196.61 768.64 2508.29 801.37 2277.48 938.08 2200.77 1143.01 2463.36 1171.78
00091777 00000124 2048.06 313.32 746.71 1131.32 2206.99 796.29 2507.19 806.60 2264.25 956.44 2205.76 1166.36 2439.14 1174.97
00091778 00000125 2050.73 330.72 737.85 1077.47 2191.97 797.61 2495.23 805.49 2251.10 958.18 2186.32 1160.74 2436.32 1167.78
00091779 00000126 2051.83 311.25 734.85 1071.62 2172.26 780.45 2490.25 798.86 2258.71 937.96 2177.80 1138.94 2431.78 1153.17
00091780 DELETE   2053.55 293.47 739.97 1066.45 2183.52 762.11 2488.64 778.68 2265.84 916.22 2186.26 1114.74 2438.53 1126.57
00091781 DELETE   2056.24 254.60 737.27 1079.97 2198.64 721.67 2508.65 749.08 2272.81 879.52 2183.90 1075.84 2442.47 1096.99
00091782 00000129 2053.46 225.10 742.02 1111.40 2205.07 706.56 2518.54 729.56 2273.43 859.91 2182.83 1055.63 2443.89 1073.48
CROP_BBOX: 1428 0 3286 1733
