Video ID: 	ftY1NlPk5YY
H: 	1080
W: 	1920
FPS: 	25.0

FRAME INDEX X0 Y0 W H [Landmarks (5 Points)]

00010092 00000000 787.61 328.71 393.08 493.42 902.99 499.79 1079.55 472.84 1018.47 587.88 957.16 707.13 1089.00 683.48
00010093 00000001 788.43 319.13 391.75 494.86 905.49 492.51 1082.81 465.54 1022.47 582.86 953.84 696.25 1094.03 672.85
00010094 00000002 790.53 314.44 388.29 495.76 907.93 490.02 1085.43 463.06 1026.73 581.67 954.48 692.63 1097.32 669.27
00010095 00000003 791.01 309.59 386.99 500.06 908.77 486.71 1085.78 458.70 1029.14 578.32 955.50 690.73 1099.03 666.60
00010096 00000004 790.99 307.92 387.35 509.28 909.24 484.37 1085.30 456.91 1030.99 574.33 958.95 695.23 1095.45 671.21
00010097 00000005 791.44 309.99 386.30 509.60 910.38 485.65 1085.79 458.69 1032.40 574.96 962.04 697.71 1097.20 674.17
00010098 00000006 794.66 310.92 386.60 510.02 912.52 489.85 1089.72 460.26 1037.31 576.04 966.00 701.88 1103.03 676.06
00010099 00000007 800.61 308.30 384.81 508.30 917.00 493.95 1092.87 462.39 1041.73 575.53 970.48 701.86 1108.12 674.27
00010100 00000008 805.43 308.17 383.87 506.71 920.52 496.00 1098.57 463.40 1046.58 576.91 974.40 701.85 1114.59 673.30
00010101 00000009 808.44 308.54 385.14 507.30 925.03 500.44 1103.28 465.91 1052.44 578.91 978.10 701.41 1121.54 671.24
00010102 00000010 811.67 308.35 384.09 505.30 929.59 501.74 1107.71 468.78 1058.30 578.60 983.87 701.84 1124.49 672.67
00010103 00000011 815.57 312.48 383.75 503.25 933.65 502.41 1112.08 470.34 1062.14 583.37 988.57 703.84 1127.58 674.95
00010104 00000012 813.32 317.69 391.24 512.25 933.85 507.18 1110.25 474.55 1064.07 589.38 987.69 704.87 1133.35 675.51
00010105 00000013 815.79 331.61 389.95 504.19 931.09 515.80 1109.81 478.76 1059.15 603.19 987.61 715.77 1133.55 683.18
00010106 DELETE   804.93 326.44 390.98 526.63 920.37 523.76 1098.80 489.96 1047.82 620.70 983.69 740.03 1117.66 710.25
00010107 00000015 801.14 339.79 392.53 512.48 912.25 526.76 1089.54 491.93 1036.83 620.95 979.77 739.32 1112.05 708.58
00010108 00000016 799.43 334.74 396.66 512.44 910.75 525.02 1087.89 485.90 1036.34 615.94 973.20 727.47 1117.97 693.13
00010109 00000017 798.59 333.51 396.63 510.53 910.27 518.35 1088.92 481.79 1034.67 607.70 969.01 722.49 1116.54 690.31
00010110 00000018 800.22 323.56 390.75 510.65 910.48 514.49 1088.92 479.65 1032.29 602.95 966.57 718.54 1112.03 688.10
00010111 00000019 800.86 319.08 389.53 509.91 910.10 509.08 1089.52 475.13 1031.05 596.89 963.77 713.15 1110.25 683.57
00010112 00000020 800.05 308.88 390.63 516.04 909.95 508.71 1087.05 476.94 1025.68 589.98 960.86 709.40 1103.93 681.43
00010113 00000021 793.83 300.82 392.62 517.75 904.78 506.92 1079.85 475.08 1017.73 579.58 954.82 703.64 1093.73 675.77
00010114 00000022 785.67 306.03 391.28 506.45 893.80 494.80 1067.55 465.19 1004.14 574.32 948.75 698.03 1077.10 672.15
00010115 DELETE   762.23 291.16 405.54 513.87 869.65 496.01 1050.11 464.71 979.38 576.66 940.03 693.93 1072.69 667.25
00010116 DELETE   749.99 286.61 409.47 524.32 853.43 490.96 1032.96 461.20 956.15 567.16 917.01 690.67 1049.84 666.19
00010117 00000025 740.54 291.54 407.84 530.83 839.53 489.36 1021.37 460.35 943.07 566.35 904.39 695.44 1035.15 671.62
00010118 00000026 741.80 306.11 401.75 520.53 837.29 492.81 1012.56 453.94 941.31 566.26 898.81 705.58 1026.00 671.79
00010119 00000027 739.85 306.01 399.94 522.97 831.90 495.57 1008.65 457.69 934.09 566.01 890.35 707.42 1021.91 674.86
00010120 00000028 737.45 308.16 398.32 522.00 829.07 495.98 1007.26 460.24 932.77 568.36 883.46 705.08 1019.76 674.49
00010121 00000029 733.88 307.35 396.94 509.91 825.74 498.75 1007.63 465.15 927.26 571.84 874.96 699.62 1021.98 669.96
00010122 00000030 729.78 308.22 400.18 510.42 824.35 499.91 1004.92 467.10 927.40 575.73 873.51 699.01 1021.46 669.77
00010123 00000031 729.08 310.33 399.64 508.09 825.27 499.87 1005.35 466.99 929.68 576.76 875.40 702.21 1017.95 673.07
00010124 00000032 731.44 311.89 396.60 507.92 828.14 501.93 1007.56 469.34 934.78 581.26 880.82 707.92 1016.71 679.15
00010125 00000033 730.78 313.00 396.75 510.47 829.30 505.75 1008.08 473.62 938.41 590.08 885.26 714.28 1017.13 685.84
00010126 00000034 728.82 314.75 399.21 515.36 830.32 509.12 1006.96 476.42 940.02 593.87 888.68 720.14 1017.52 691.25
00010127 00000035 726.91 320.38 400.42 509.80 831.76 507.08 1005.60 474.44 942.01 591.77 891.21 717.16 1015.43 688.47
00010128 00000036 728.44 322.41 400.00 503.09 831.88 502.28 1007.89 467.79 943.18 582.43 888.47 709.42 1019.01 679.05
00010129 00000037 729.78 313.84 398.47 509.36 832.00 500.98 1011.85 464.92 946.62 579.31 884.19 702.49 1031.89 670.62
00010130 00000038 733.62 317.35 397.86 508.90 834.83 504.75 1014.81 468.04 949.92 586.30 887.18 703.77 1039.88 671.35
00010131 00000039 735.75 323.69 400.84 512.93 838.23 513.18 1017.27 474.81 955.06 595.85 892.18 710.26 1047.03 676.73
00010132 00000040 739.29 323.19 401.65 517.14 842.10 513.39 1022.94 475.43 960.35 594.39 895.28 710.44 1052.34 677.15
00010133 00000041 743.80 317.42 398.48 519.14 847.48 506.57 1029.43 469.86 966.11 585.19 899.77 708.19 1054.43 675.75
00010134 00000042 747.64 314.79 395.07 512.42 851.49 503.24 1034.27 468.66 967.76 579.38 901.94 704.59 1054.34 673.71
00010135 00000043 749.95 312.57 394.51 510.53 855.24 501.14 1036.89 466.01 973.27 575.98 908.18 702.95 1057.06 671.43
00010136 00000044 755.12 315.91 396.56 503.70 860.02 486.84 1042.20 460.60 975.69 574.38 916.20 694.56 1054.01 671.15
00010137 00000045 758.95 311.32 398.38 505.10 864.99 482.91 1047.35 453.10 980.42 569.32 922.29 690.56 1061.01 664.20
00010138 00000046 758.66 304.81 397.74 491.34 866.61 477.21 1056.36 455.22 986.83 561.26 931.72 676.71 1078.63 657.80
00010139 DELETE   764.85 296.67 396.45 493.47 877.41 468.39 1057.26 445.18 996.53 543.91 940.44 664.31 1082.76 644.86
00010140 00000048 770.89 285.30 397.55 502.35 885.68 463.86 1063.47 437.11 1006.78 536.14 948.25 658.59 1092.91 635.69
00010141 00000049 775.74 279.20 395.40 509.27 890.28 462.99 1069.16 435.96 1014.51 535.42 951.61 659.69 1096.18 636.53
00010142 00000050 776.56 283.33 393.80 508.72 892.52 466.95 1072.62 441.08 1017.39 544.39 953.81 663.91 1097.97 641.39
00010143 00000051 782.96 303.67 387.10 492.16 905.71 471.49 1081.41 442.98 1027.37 557.40 958.74 681.46 1089.19 656.22
00010144 DELETE   781.82 303.97 388.10 507.35 906.74 483.17 1083.39 453.79 1030.79 571.00 962.84 697.08 1087.50 671.20
00010145 DELETE   786.31 310.70 385.06 512.89 908.64 495.22 1084.83 467.12 1032.56 589.11 968.79 713.14 1090.01 688.08
00010146 00000054 786.37 325.04 383.77 510.64 906.47 511.64 1076.33 482.38 1030.18 608.49 972.55 726.34 1090.77 700.64
00010147 DELETE   786.14 341.03 385.90 523.17 909.09 532.60 1084.56 512.91 1031.69 638.54 975.42 752.57 1088.88 735.81
00010148 DELETE   789.97 366.20 382.71 524.02 916.35 556.02 1087.17 529.63 1043.97 660.34 981.32 782.15 1092.34 758.64
00010149 00000057 786.63 378.89 388.13 527.48 913.57 567.62 1082.72 540.27 1037.57 672.58 974.91 790.39 1089.87 766.52
00010150 00000058 786.74 377.35 386.30 522.84 909.39 567.40 1081.78 537.03 1033.02 667.48 965.40 782.69 1093.10 756.16
00010151 00000059 788.83 366.30 382.20 519.87 909.07 560.09 1085.44 529.91 1035.35 662.37 960.88 772.35 1099.13 746.05
00010152 00000060 791.12 355.20 383.00 524.87 909.65 558.46 1090.12 529.13 1038.05 659.28 958.82 766.96 1106.38 741.01
00010153 00000061 791.78 350.76 387.20 530.09 909.73 554.82 1098.92 530.79 1040.22 656.34 964.22 760.60 1114.28 739.83
00010154 00000062 794.81 350.58 387.82 525.12 913.70 550.43 1102.18 526.97 1042.87 651.70 969.24 758.14 1114.85 737.83
00010155 00000063 796.00 350.62 388.31 513.91 917.41 543.65 1103.71 520.89 1044.82 644.97 976.94 752.57 1113.18 732.41
00010156 00000064 798.19 349.00 389.27 510.92 918.92 540.63 1104.19 517.20 1046.07 638.75 978.84 747.57 1115.83 726.69
00010157 00000065 797.50 345.74 392.52 518.55 919.64 545.31 1106.34 519.09 1048.21 643.76 977.86 749.12 1120.79 725.85
00010158 00000066 798.95 349.29 390.64 522.44 920.57 549.15 1106.64 522.93 1050.84 648.32 975.26 751.18 1123.22 728.30
00010159 00000067 801.70 352.61 389.74 523.89 922.40 550.20 1108.97 524.72 1053.44 651.21 979.34 758.04 1124.29 735.61
00010160 00000068 803.26 353.29 389.05 521.26 925.33 550.11 1111.42 524.63 1055.91 653.93 986.50 760.25 1125.31 737.39
00010161 00000069 803.41 347.80 389.80 526.96 926.46 551.83 1110.58 525.74 1055.42 654.65 987.75 761.55 1124.24 738.20
00010162 00000070 804.25 352.75 389.70 522.13 926.64 552.59 1110.72 526.73 1054.97 654.71 987.20 761.38 1123.95 738.28
00010163 00000071 803.72 351.12 389.20 522.29 926.20 552.28 1110.78 525.93 1055.30 654.86 987.89 761.84 1124.29 738.27
00010164 00000072 803.62 350.55 389.13 521.59 925.49 551.83 1112.84 525.65 1056.51 654.12 988.18 762.33 1127.16 738.77
00010165 00000073 803.53 351.74 388.68 518.67 924.64 551.85 1112.44 524.37 1055.57 653.87 988.69 762.58 1127.72 737.94
00010166 00000074 802.02 346.02 388.22 524.54 923.43 552.75 1110.27 525.53 1053.47 653.70 986.08 762.45 1125.55 738.32
00010167 00000075 801.22 353.07 387.16 519.16 921.54 554.04 1107.02 525.18 1051.07 656.16 983.50 763.23 1122.17 737.94
00010168 00000076 800.00 355.92 387.09 520.32 918.88 557.12 1102.45 526.65 1047.47 657.14 980.51 763.20 1120.33 736.61
00010169 00000077 798.01 355.41 387.46 525.21 917.39 558.52 1101.01 528.77 1046.46 659.23 975.60 763.19 1118.63 737.38
00010170 00000078 796.11 356.75 386.64 524.21 914.53 560.29 1098.74 529.77 1044.41 660.31 972.90 763.16 1118.16 736.65
00010171 00000079 792.64 353.90 388.53 527.82 911.92 556.76 1095.94 528.64 1041.53 656.49 968.65 760.51 1114.06 736.20
00010172 00000080 796.35 360.48 380.81 512.92 912.98 547.30 1090.37 515.41 1040.66 646.37 966.39 760.79 1104.69 732.76
00010173 00000081 790.83 347.58 387.35 518.27 908.11 535.86 1087.41 507.94 1036.54 630.13 966.84 744.25 1105.06 720.26
00010174 00000082 792.67 327.41 386.72 526.63 911.04 524.45 1088.70 493.46 1038.91 613.12 968.73 733.72 1106.63 706.74
00010175 00000083 793.56 324.71 385.32 522.06 915.31 513.35 1090.11 483.74 1044.45 598.42 971.06 722.25 1107.36 696.27
00010176 00000084 795.75 320.70 386.47 525.49 918.59 508.78 1092.78 480.18 1049.02 592.01 974.14 719.75 1109.55 694.69
00010177 00000085 796.95 313.62 388.60 536.95 920.76 512.92 1095.03 485.10 1051.24 591.14 972.48 720.12 1112.62 695.98
00010178 00000086 798.80 317.94 388.81 532.89 928.61 521.00 1099.36 495.96 1057.76 597.16 980.27 723.49 1114.68 702.11
00010179 00000087 803.31 331.30 383.91 527.03 932.96 524.43 1103.56 500.94 1061.47 607.77 988.37 732.95 1116.89 712.68
00010180 00000088 804.56 332.80 380.45 528.86 931.06 524.77 1103.27 503.23 1059.03 612.35 988.90 738.32 1113.90 719.77
00010181 00000089 800.64 333.32 381.60 521.37 928.21 516.80 1097.28 494.98 1054.34 605.06 986.25 730.12 1108.60 711.00
00010182 00000090 796.44 328.94 381.14 522.17 922.43 509.19 1089.33 486.05 1048.51 596.58 979.76 724.16 1099.99 704.29
00010183 00000091 791.39 313.62 384.83 531.89 916.69 503.16 1084.42 478.22 1041.83 592.93 975.21 719.39 1094.17 697.91
00010184 00000092 789.58 321.11 387.30 524.11 913.89 500.73 1083.36 475.95 1038.34 591.20 972.92 716.79 1093.30 695.21
00010185 00000093 787.37 320.13 388.69 524.13 910.96 500.81 1082.77 475.46 1035.36 591.30 969.90 716.04 1092.43 693.80
00010186 00000094 786.09 317.90 390.21 521.76 908.46 503.88 1085.10 476.55 1034.25 592.84 967.06 715.97 1099.26 691.29
00010187 00000095 786.95 318.36 390.32 519.43 908.69 507.13 1086.22 478.86 1034.31 594.35 966.24 715.41 1101.35 689.89
00010188 00000096 786.41 319.18 390.20 517.28 906.96 508.27 1086.15 479.33 1032.82 596.70 965.03 715.99 1102.19 689.93
00010189 00000097 786.99 318.87 389.78 516.87 907.49 508.12 1086.24 479.23 1032.89 595.57 965.21 715.39 1102.16 689.43
00010190 00000098 788.76 317.64 387.89 517.78 909.36 506.62 1086.04 477.60 1034.22 593.13 965.84 716.11 1099.64 690.18
00010191 00000099 788.65 318.46 387.35 519.32 910.90 504.08 1083.91 475.56 1035.25 592.46 967.80 715.55 1097.00 690.41
00010192 00000100 789.57 318.65 386.61 521.14 911.24 504.24 1084.88 476.73 1035.64 593.19 966.96 717.24 1096.16 693.10
00010193 00000101 792.28 309.92 382.94 529.18 915.27 505.22 1087.69 478.57 1041.63 593.24 968.10 717.06 1097.99 694.03
00010194 00000102 797.54 322.37 381.84 511.43 923.82 503.56 1095.79 479.77 1050.59 590.60 974.53 714.62 1102.17 693.97
00010195 00000103 801.99 324.79 381.57 510.56 929.69 507.43 1103.43 484.66 1058.46 592.10 978.79 716.33 1109.47 696.41
00010196 00000104 804.96 333.17 386.11 508.08 933.09 516.36 1108.89 493.53 1061.43 601.59 982.95 722.42 1116.61 702.07
00010197 00000105 807.83 338.68 385.14 516.14 932.96 526.30 1114.85 505.76 1062.51 619.91 983.88 736.60 1121.69 718.24
00010198 DELETE   809.24 351.82 385.10 515.90 936.10 539.61 1118.29 527.79 1062.11 637.45 985.85 750.58 1116.93 740.24
00010199 00000107 807.73 357.92 386.67 518.17 933.30 552.16 1120.26 540.00 1061.05 656.97 984.55 761.51 1121.07 750.30
00010200 00000108 806.66 355.01 386.67 521.82 934.82 555.45 1117.91 541.90 1061.12 665.57 987.35 766.58 1117.55 754.37
00010201 00000109 810.73 358.57 384.95 515.98 939.17 556.55 1121.90 541.12 1066.44 667.13 994.09 767.85 1121.97 753.84
00010202 00000110 817.10 355.74 381.55 514.83 947.01 557.52 1128.82 538.86 1075.22 664.35 1001.44 766.49 1129.72 749.67
00010203 00000111 818.82 359.22 379.66 507.95 947.45 554.36 1131.16 535.61 1077.88 659.05 1002.21 763.01 1133.75 746.04
00010204 00000112 818.12 355.67 379.62 514.33 944.77 555.33 1128.26 535.49 1074.12 661.19 997.36 763.33 1131.84 745.58
00010205 00000113 817.30 354.23 380.88 513.91 945.28 555.94 1129.17 534.34 1076.33 662.10 1000.50 764.71 1133.95 745.46
00010206 00000114 818.37 360.46 381.59 512.22 946.56 550.99 1132.85 532.25 1080.75 656.21 1001.63 765.26 1135.59 748.29
00010207 00000115 820.87 364.43 380.82 514.62 947.67 549.25 1130.11 530.76 1080.01 652.39 1002.02 763.49 1134.88 746.66
00010208 00000116 817.65 365.42 381.30 510.97 944.70 550.84 1127.89 535.75 1073.34 657.20 996.19 763.17 1129.23 749.10
00010209 00000117 815.56 356.33 382.40 523.52 940.79 556.48 1122.21 539.39 1066.16 664.22 991.27 767.09 1124.45 751.96
00010210 00000118 814.40 357.76 383.57 524.67 940.23 557.97 1121.34 539.26 1066.50 664.93 989.93 767.68 1124.57 751.36
00010211 00000119 816.11 362.06 383.11 516.42 942.47 555.00 1126.08 538.68 1070.30 661.21 992.16 765.53 1127.01 750.84
00010212 00000120 816.47 359.82 382.74 513.11 943.48 554.06 1128.93 536.94 1073.12 659.93 995.51 764.87 1131.23 749.23
00010213 00000121 815.96 357.42 384.08 517.49 941.20 554.53 1127.15 537.19 1069.85 661.78 993.19 764.79 1130.20 749.09
00010214 00000122 814.38 354.51 384.11 521.79 940.05 554.01 1124.51 538.49 1066.80 660.58 989.13 763.11 1126.95 749.14
00010215 00000123 813.81 356.61 384.45 521.63 939.46 553.38 1124.29 539.42 1066.49 659.95 985.74 762.83 1125.38 750.41
00010216 00000124 814.91 358.49 384.39 520.64 939.95 553.59 1124.21 539.11 1066.99 659.10 986.17 761.87 1126.29 748.98
00010217 00000125 815.22 355.92 384.48 524.90 939.90 554.29 1124.41 538.67 1067.11 659.90 985.65 761.52 1128.01 747.78
00010218 00000126 814.93 356.20 385.06 524.22 940.28 556.02 1124.50 539.77 1067.16 661.92 985.80 761.56 1128.10 747.35
00010219 00000127 815.50 357.73 383.48 522.27 940.43 555.88 1124.80 539.57 1068.39 660.67 985.23 760.78 1128.67 746.66
00010220 00000128 814.09 356.52 383.38 522.13 939.64 553.50 1124.55 537.50 1068.37 660.20 984.52 759.53 1127.95 745.61
00010221 00000129 813.60 355.14 383.45 522.68 939.81 554.37 1124.18 538.26 1068.12 660.33 985.32 760.46 1127.20 746.44
00010222 00000130 811.64 351.89 383.81 522.48 939.46 554.56 1123.78 538.16 1067.54 659.89 987.72 761.76 1126.00 747.25
00010223 00000131 810.87 348.11 384.77 522.01 940.07 554.85 1123.65 537.50 1066.94 658.79 990.75 759.51 1127.26 744.08
00010224 00000132 811.65 346.38 384.28 522.99 940.38 555.65 1123.85 537.51 1067.28 659.25 992.72 760.02 1128.69 743.87
00010225 00000133 810.22 347.44 384.58 524.06 937.80 554.60 1121.88 537.47 1064.74 659.21 986.42 758.14 1126.31 743.04
00010226 00000134 809.47 349.54 384.07 523.93 935.64 553.17 1119.60 536.25 1062.64 658.96 981.94 758.53 1122.92 743.88
00010227 00000135 808.06 349.50 384.24 529.64 934.28 553.63 1116.05 536.70 1061.34 659.89 980.06 760.33 1119.79 745.80
00010228 00000136 807.58 349.72 383.80 527.82 933.22 553.39 1116.36 536.52 1060.95 659.78 978.92 759.51 1120.27 745.03
00010229 00000137 806.87 349.64 383.88 524.21 932.62 553.23 1117.68 535.74 1061.29 660.59 979.06 758.89 1121.72 743.77
00010230 00000138 804.77 352.03 383.18 523.30 932.38 554.00 1113.23 535.91 1059.45 662.59 982.16 761.07 1117.69 745.44
00010231 00000139 804.88 351.74 382.83 524.23 932.58 552.71 1112.68 535.71 1059.66 660.96 984.20 761.85 1116.93 747.12
00010232 00000140 800.10 348.17 386.19 525.68 934.09 555.87 1113.68 540.78 1060.55 656.75 981.12 756.91 1115.05 743.71
00010233 00000141 801.03 348.90 386.19 516.23 934.83 547.90 1117.42 537.07 1061.12 646.53 974.79 745.69 1113.95 736.45
00010234 00000142 802.60 349.96 386.59 510.77 936.33 534.93 1121.02 527.56 1065.28 633.96 971.33 733.65 1116.84 727.26
00010235 00000143 805.17 349.50 389.58 506.37 941.26 523.95 1127.27 517.64 1071.16 627.99 970.84 725.90 1120.12 720.39
00010236 00000144 808.15 342.33 391.82 507.59 948.93 511.84 1135.06 510.18 1079.20 618.30 970.76 716.73 1121.55 714.99
00010237 00000145 813.11 328.65 394.33 518.35 961.62 500.46 1141.94 510.16 1079.78 613.30 968.00 708.31 1114.36 715.85
00010238 00000146 817.33 328.29 394.21 514.43 968.69 493.22 1145.68 509.44 1080.34 610.08 964.43 704.27 1105.71 716.46
00010239 00000147 819.61 327.97 394.60 510.36 971.83 486.45 1149.24 506.55 1078.88 606.97 961.55 697.78 1101.81 712.83
00010240 00000148 820.05 317.87 399.13 522.88 971.57 486.03 1148.15 509.30 1074.33 606.30 957.46 694.85 1097.04 713.09
00010241 00000149 815.72 317.28 403.14 525.69 967.73 485.90 1146.67 511.74 1068.44 606.92 950.19 695.80 1092.28 716.27
00010242 00000150 811.89 320.90 406.85 524.57 963.89 485.50 1144.56 514.55 1061.90 607.58 944.48 694.84 1088.51 717.91
00010243 00000151 807.08 316.23 413.30 531.42 963.45 488.05 1143.66 516.59 1059.95 612.23 943.33 698.28 1083.56 720.92
00010244 00000152 806.02 318.33 414.85 529.14 964.71 491.98 1143.66 519.93 1059.28 618.30 942.90 703.49 1079.72 725.53
00010245 00000153 807.48 317.61 415.46 525.19 968.57 495.50 1144.96 526.59 1060.56 620.28 941.58 701.85 1080.78 726.49
00010246 00000154 811.08 316.50 414.49 528.98 972.24 496.39 1146.41 530.14 1062.06 621.21 944.48 701.03 1081.89 727.99
00010247 00000155 807.56 299.26 423.76 547.67 974.22 494.61 1154.44 535.80 1064.15 624.98 943.85 696.77 1082.36 732.81
00010248 00000156 808.36 298.81 426.39 551.33 976.02 495.45 1157.01 537.82 1065.26 626.22 944.24 698.22 1083.73 735.39
00010249 00000157 917.17 274.33 461.53 628.68 993.91 534.33 1173.05 499.03 1081.63 686.61 1093.04 770.17 1227.93 736.57
00010250 00000158 916.57 257.90 468.58 646.62 994.76 519.66 1180.96 489.05 1083.53 676.06 1083.67 749.73 1234.60 723.13
00010251 00000159 920.19 253.44 466.19 643.93 996.45 515.03 1181.82 483.30 1083.83 665.48 1082.32 745.06 1231.41 717.49
00010252 00000160 926.80 253.99 464.43 634.44 994.94 517.73 1181.51 486.54 1079.79 667.46 1083.05 744.17 1227.32 717.64
00010253 00000161 925.20 256.00 464.80 632.96 992.95 514.55 1179.79 485.57 1076.96 665.16 1080.41 745.30 1222.29 720.72
00010254 00000162 917.22 248.59 469.13 644.36 994.76 507.09 1179.01 479.63 1080.95 662.87 1082.47 744.07 1222.70 719.94
00010255 00000163 919.25 243.57 465.61 648.51 995.31 503.66 1180.81 477.05 1082.19 661.27 1080.71 742.07 1224.34 718.75
00010256 00000164 921.68 248.94 467.26 643.37 1000.11 509.41 1187.70 481.95 1090.37 664.40 1084.18 742.11 1229.65 718.62
00010257 00000165 927.86 258.08 465.03 638.38 1006.15 516.80 1192.87 485.02 1100.53 668.92 1092.38 745.34 1244.23 718.61
00010258 00000166 935.22 263.33 463.53 637.28 1012.75 521.50 1197.74 485.72 1109.14 670.87 1100.32 747.56 1257.93 717.84
