Video ID: 	M5vRspcqS88
H: 	1080
W: 	1920
FPS: 	23.976023976023978

FRAME INDEX X0 Y0 W H [Landmarks (5 Points)]

00005836 00000000 923.75 126.52 443.61 636.11 1086.41 376.38 1294.65 377.36 1228.67 496.81 1106.30 606.75 1280.71 607.26
00005837 00000001 923.27 127.74 446.26 635.96 1084.31 370.84 1291.80 378.05 1218.99 493.61 1096.53 600.25 1271.27 605.98
00005838 00000002 923.69 119.19 450.45 638.19 1080.67 366.13 1293.22 377.24 1206.29 486.23 1089.80 594.37 1261.97 605.43
00005839 00000003 930.67 127.21 454.12 633.38 1095.67 364.50 1307.64 383.28 1219.54 489.48 1098.79 593.40 1268.75 610.86
00005840 DELETE   943.89 130.51 462.79 634.66 1116.95 368.71 1325.67 388.35 1243.32 495.52 1120.15 599.08 1287.18 616.71
00005841 00000005 958.76 137.95 456.34 636.19 1142.43 371.33 1341.87 396.07 1271.75 496.75 1140.99 601.26 1307.10 620.58
00005842 00000006 974.87 134.82 448.12 636.99 1158.87 371.19 1357.66 397.23 1289.20 497.40 1159.98 607.22 1321.12 627.47
00005843 00000007 977.50 134.94 452.06 635.44 1161.27 368.88 1359.60 396.18 1290.46 495.72 1159.52 604.05 1320.83 625.72
00005844 00000008 974.70 134.71 456.18 636.54 1156.40 367.12 1355.92 397.64 1281.70 494.21 1150.50 600.97 1313.66 625.50
00005845 00000009 973.75 133.49 460.19 637.96 1155.86 366.34 1357.50 398.35 1280.98 494.94 1148.24 601.17 1312.05 627.06
00005846 00000010 977.75 133.66 456.13 636.96 1161.56 368.18 1360.95 399.14 1289.29 495.80 1155.18 602.66 1318.12 627.61
00005847 00000011 982.55 133.31 450.62 639.06 1168.43 371.31 1367.08 401.56 1300.08 495.25 1164.73 606.40 1327.02 630.77
00005848 00000012 981.85 133.60 449.30 638.18 1166.33 371.40 1363.43 400.36 1296.12 495.65 1163.04 606.04 1324.19 629.26
00005849 00000013 972.75 134.00 453.66 638.31 1156.33 367.95 1354.70 396.63 1283.06 497.82 1151.93 604.72 1312.10 627.48
00005850 00000014 964.17 135.20 457.74 638.88 1146.62 366.38 1346.62 396.01 1270.79 497.18 1139.85 602.58 1300.54 626.18
00005851 00000015 960.14 132.88 461.14 645.00 1138.08 365.73 1343.09 397.55 1259.11 497.44 1129.37 606.06 1291.52 631.78
00005852 00000016 950.84 134.61 461.66 649.37 1127.33 363.29 1330.43 398.11 1247.66 499.36 1114.26 604.91 1278.22 633.55
00005853 00000017 945.38 135.51 457.48 646.33 1113.68 363.79 1316.18 397.39 1227.79 496.73 1103.47 603.52 1260.56 631.26
00005854 00000018 936.15 137.89 455.91 641.81 1096.02 361.11 1299.23 393.56 1203.53 492.27 1087.29 598.83 1244.06 625.60
00005855 DELETE   931.49 132.66 454.49 649.01 1076.00 360.45 1278.65 388.18 1176.39 488.25 1068.07 597.92 1222.13 621.40
00005856 00000020 923.63 125.35 455.31 651.31 1060.75 360.96 1265.28 384.06 1158.07 487.92 1055.06 599.41 1213.59 620.64
00005857 00000021 918.54 122.89 455.98 645.20 1049.37 356.72 1260.97 383.53 1144.52 488.31 1044.30 600.74 1208.18 621.63
00005858 00000022 912.42 125.82 457.60 640.00 1042.45 355.16 1257.37 382.39 1138.04 485.80 1037.90 599.38 1202.85 620.60
00005859 00000023 909.22 125.65 455.08 640.06 1034.71 355.13 1250.66 383.12 1128.93 484.77 1030.64 598.54 1196.75 620.39
00005860 00000024 905.92 125.93 454.65 644.42 1031.28 353.58 1243.84 383.33 1120.93 487.46 1023.83 597.37 1188.35 620.97
00005861 00000025 903.08 128.08 448.93 646.40 1025.07 351.47 1238.71 379.68 1115.10 485.45 1017.76 599.13 1181.49 621.91
00005862 00000026 900.88 126.42 448.43 654.13 1023.52 350.75 1234.33 379.21 1111.86 486.34 1014.02 597.94 1177.81 621.33
00005863 00000027 900.68 127.54 446.11 654.45 1018.40 350.13 1229.81 375.71 1104.91 486.07 1010.73 600.95 1174.10 622.20
00005864 00000028 898.87 124.25 446.88 654.59 1015.78 351.28 1228.23 376.43 1104.72 485.35 1007.28 599.56 1173.65 620.44
00005865 00000029 899.19 124.27 448.16 647.05 1015.08 351.41 1228.93 377.85 1104.25 482.63 1005.23 594.50 1176.43 615.99
00005866 00000030 899.52 126.45 449.58 640.73 1015.06 349.83 1230.11 377.62 1104.47 482.23 1005.95 592.29 1174.68 614.96
00005867 00000031 900.40 127.33 447.25 642.28 1015.58 350.49 1230.89 377.12 1105.28 479.96 1006.21 594.52 1175.74 616.35
00005868 00000032 902.26 127.05 446.90 646.82 1017.82 350.61 1232.07 377.08 1106.74 481.18 1010.32 597.58 1176.08 619.64
00005869 00000033 902.65 125.25 446.55 650.73 1019.57 350.59 1231.53 377.83 1106.60 481.07 1012.27 597.02 1175.61 619.61
00005870 00000034 904.16 126.54 445.91 648.04 1019.26 349.75 1231.90 377.04 1105.60 480.31 1011.95 596.36 1175.74 618.93
00005871 00000035 904.46 125.67 447.88 645.69 1019.35 349.65 1234.38 378.30 1106.98 479.69 1010.91 594.03 1179.56 617.38
00005872 00000036 905.30 126.04 448.76 643.38 1019.77 349.68 1234.75 378.44 1106.58 479.60 1012.67 594.53 1179.19 617.86
00005873 00000037 905.42 124.03 448.47 644.57 1023.11 349.33 1236.03 380.06 1108.65 480.88 1014.51 593.81 1177.91 618.85
00005874 00000038 905.90 126.93 448.60 641.67 1022.90 348.94 1234.72 379.33 1106.93 480.75 1013.62 593.81 1175.44 618.67
00005875 00000039 904.55 129.11 450.55 635.05 1020.55 351.12 1235.85 381.70 1107.75 478.55 1008.20 591.37 1181.07 615.92
00005876 00000040 904.88 130.30 449.09 631.30 1019.29 350.89 1234.51 380.85 1105.82 478.29 1008.34 591.55 1177.78 615.79
00005877 00000041 903.90 128.52 449.43 641.35 1018.54 351.62 1234.84 380.79 1106.18 480.25 1006.57 595.85 1178.16 619.76
00005878 00000042 903.58 127.65 446.83 651.54 1020.84 349.61 1232.77 378.02 1105.24 481.71 1010.19 598.12 1173.95 621.79
00005879 00000043 904.25 127.26 446.95 650.37 1018.71 350.56 1232.16 377.29 1102.79 480.68 1008.92 598.55 1174.53 620.82
00005880 00000044 904.31 129.34 447.23 643.10 1017.96 350.29 1231.51 377.15 1102.59 480.25 1009.36 596.99 1173.80 619.32
00005881 00000045 905.85 128.68 446.99 640.47 1018.04 349.92 1232.32 376.95 1102.52 480.34 1010.52 596.33 1174.62 618.72
00005882 00000046 904.94 127.79 447.95 639.59 1016.23 350.54 1231.73 377.15 1102.09 478.88 1008.76 595.63 1175.35 617.55
00005883 00000047 904.29 128.27 447.63 636.72 1015.68 350.78 1231.60 378.08 1101.69 479.35 1007.98 594.50 1175.62 616.88
00005884 00000048 903.38 127.32 446.66 638.10 1014.64 351.33 1229.43 377.89 1100.68 478.95 1007.45 594.41 1174.78 616.18
00005885 00000049 900.51 128.87 447.16 641.07 1013.96 351.27 1227.86 377.42 1100.42 478.91 1006.36 595.21 1174.06 616.76
00005886 00000050 899.90 128.32 446.84 645.61 1012.96 351.43 1226.67 377.46 1098.89 480.13 1004.45 596.18 1174.21 617.63
00005887 00000051 898.85 130.38 446.10 643.07 1011.57 352.21 1226.68 377.59 1098.64 481.10 1003.05 596.62 1173.36 617.56
00005888 00000052 899.40 126.46 445.96 643.05 1011.14 353.28 1225.00 379.90 1098.15 481.21 1001.99 593.99 1173.36 615.72
00005889 00000053 898.49 129.21 446.02 638.54 1010.24 353.82 1224.50 379.37 1098.05 481.32 1001.82 594.17 1173.09 614.97
00005890 00000054 898.70 128.54 446.63 635.81 1010.77 354.58 1226.29 380.37 1099.21 480.47 1002.11 593.13 1175.34 614.05
00005891 00000055 898.84 126.87 448.48 635.16 1012.55 353.60 1229.23 380.56 1101.56 479.60 1004.60 591.88 1177.41 613.43
00005892 00000056 898.33 129.62 448.21 632.21 1013.03 354.92 1230.90 381.08 1103.66 481.08 1006.82 594.04 1180.14 614.80
00005893 00000057 898.12 133.39 448.64 629.67 1014.57 356.88 1232.82 381.85 1107.77 482.65 1009.15 596.66 1183.47 616.29
00005894 00000058 897.82 133.49 451.14 634.05 1016.17 357.83 1236.16 382.83 1111.59 485.22 1011.37 599.63 1185.78 619.34
00005895 00000059 897.56 133.01 452.33 631.01 1018.38 358.06 1240.31 382.04 1118.77 484.25 1016.82 598.41 1195.02 616.74
00005896 00000060 897.98 132.00 454.86 632.42 1022.45 358.67 1242.56 381.08 1124.86 485.44 1023.67 598.17 1199.36 615.07
00005897 00000061 900.25 131.80 454.26 635.89 1023.82 359.69 1245.30 382.17 1126.94 487.53 1025.15 601.71 1202.65 618.75
00005898 00000062 902.15 133.22 453.56 646.94 1024.73 366.37 1242.47 391.15 1122.29 497.66 1022.53 609.84 1200.11 629.59
00005899 00000063 901.12 137.54 454.29 651.49 1018.14 379.77 1237.15 404.08 1112.38 510.37 1013.20 619.59 1194.05 639.23
00005900 00000064 900.29 149.40 452.45 645.22 1016.34 387.99 1230.22 416.20 1103.49 526.83 1006.99 623.25 1183.44 646.31
00005901 00000065 901.68 157.01 451.23 638.19 1018.59 394.45 1229.67 424.78 1102.74 531.03 1007.79 625.67 1182.42 650.30
00005902 00000066 904.72 155.57 451.58 643.06 1022.83 399.94 1232.99 430.94 1106.42 536.37 1011.24 628.27 1189.71 653.15
00005903 00000067 908.91 167.73 451.86 638.05 1021.71 406.54 1232.02 437.91 1100.47 543.29 1011.28 636.38 1185.76 661.45
00005904 DELETE   909.79 174.29 449.79 641.72 1014.39 412.09 1220.44 440.73 1088.16 547.54 1004.70 641.93 1176.24 664.77
00005905 DELETE   903.95 176.23 445.68 647.89 1001.68 409.77 1203.95 439.59 1064.38 547.05 987.51 643.40 1156.30 667.51
00005906 DELETE   901.67 158.08 446.68 662.40 987.53 393.88 1193.07 421.49 1046.31 536.69 980.73 642.79 1136.85 668.21
00005907 00000071 893.89 149.11 451.21 668.70 984.39 382.75 1186.29 412.31 1039.59 527.95 973.42 631.44 1131.92 658.16
00005908 00000072 890.78 140.47 449.20 666.01 981.51 378.91 1182.10 406.06 1036.85 518.15 970.14 622.87 1129.16 647.42
00005909 00000073 888.64 139.11 447.64 654.02 976.93 379.35 1176.35 403.34 1034.21 511.12 967.22 619.46 1125.85 641.38
00005910 00000074 882.70 141.33 449.21 642.76 969.98 373.05 1176.84 400.97 1029.95 501.72 962.76 611.04 1121.66 636.31
00005911 00000075 886.51 125.82 442.88 652.80 969.25 372.50 1171.94 395.61 1029.59 499.29 960.41 606.96 1125.49 627.60
00005912 00000076 879.81 129.78 446.95 641.46 966.32 366.58 1172.20 388.28 1030.83 496.13 963.73 600.34 1122.42 620.48
00005913 00000077 879.81 132.07 447.15 633.86 966.65 363.11 1173.24 383.62 1032.76 492.56 964.36 597.27 1122.69 616.53
00005914 00000078 880.69 133.38 447.29 629.69 970.00 360.43 1176.76 381.87 1037.30 488.47 966.42 592.83 1126.12 612.76
00005915 00000079 884.32 132.55 448.38 626.96 973.74 359.99 1179.61 381.70 1041.22 489.61 970.66 591.45 1128.09 611.66
00005916 00000080 885.99 127.75 449.13 630.86 978.10 359.25 1184.13 380.58 1048.27 488.73 974.68 590.06 1132.97 610.07
00005917 00000081 887.84 126.61 451.34 629.89 983.35 358.02 1188.09 380.61 1053.71 486.99 979.54 588.41 1136.89 609.37
00005918 00000082 890.18 127.53 450.55 629.37 986.98 357.91 1192.06 381.26 1057.10 486.17 982.39 588.10 1139.77 609.69
00005919 00000083 895.63 135.53 447.76 626.02 996.05 360.18 1202.89 386.03 1066.19 486.23 980.89 589.77 1152.40 611.01
00005920 00000084 896.86 141.25 448.80 622.63 998.41 360.82 1205.24 387.59 1068.05 487.60 982.61 590.96 1154.75 612.80
00005921 00000085 898.42 139.75 447.85 624.90 999.14 362.05 1207.74 388.66 1070.22 488.31 984.44 592.81 1157.09 614.43
00005922 00000086 898.90 142.06 448.52 622.65 999.84 361.79 1208.28 388.60 1070.65 488.29 984.64 592.39 1158.02 614.12
00005923 00000087 898.92 142.01 449.12 622.01 999.35 361.87 1208.62 388.65 1070.28 488.47 984.31 592.83 1157.58 614.54
00005924 00000088 898.92 141.42 449.09 623.15 999.65 361.91 1208.88 388.96 1071.11 488.25 984.50 592.35 1158.88 614.20
00005925 00000089 898.47 144.03 449.31 621.12 1000.13 361.66 1209.60 388.63 1071.78 488.03 984.96 592.42 1159.42 614.21
00005926 00000090 898.54 143.07 448.49 622.37 1000.09 361.93 1209.32 388.78 1072.02 488.71 985.11 592.75 1158.98 614.50
00005927 00000091 898.41 141.66 448.39 622.93 1000.17 361.66 1209.69 388.80 1072.66 488.27 984.74 592.62 1158.71 614.59
00005928 00000092 898.54 141.21 448.76 621.49 998.17 361.40 1208.61 386.99 1070.48 486.71 984.04 592.81 1158.49 613.52
00005929 00000093 898.42 142.07 448.32 620.33 998.85 359.68 1207.67 385.97 1070.53 486.52 983.81 590.78 1157.41 612.17
00005930 00000094 898.10 141.65 447.73 623.42 998.78 359.83 1207.20 385.51 1070.01 487.31 984.76 593.44 1155.52 614.57
00005931 00000095 898.08 138.14 448.66 628.02 998.54 359.13 1206.93 385.29 1068.85 487.92 984.72 593.15 1154.66 614.84
00005932 00000096 898.11 139.14 448.24 629.30 998.83 359.20 1205.79 385.16 1068.67 489.73 984.99 593.89 1152.79 615.59
00005933 00000097 897.67 139.04 448.66 632.73 999.48 359.58 1206.81 386.64 1069.84 490.71 984.94 595.81 1152.73 618.45
00005934 00000098 897.89 141.07 449.45 637.30 1003.92 361.87 1212.50 389.85 1076.66 494.55 988.33 600.07 1158.81 623.44
00005935 00000099 899.94 141.81 449.74 641.90 1007.28 366.59 1220.17 395.49 1083.29 496.10 992.45 605.11 1166.42 629.14
00005936 00000100 901.15 138.08 453.75 652.37 1011.06 372.45 1226.36 398.70 1093.58 502.32 1004.31 614.81 1175.86 636.69
00005937 00000101 903.45 135.76 456.66 657.70 1022.52 377.44 1240.06 401.79 1115.07 506.96 1020.35 621.79 1190.63 641.81
00005938 DELETE   906.52 137.43 459.49 659.72 1033.58 382.39 1248.49 406.43 1128.81 515.13 1030.50 627.14 1200.88 646.93
00005939 00000103 909.22 140.46 458.78 664.93 1042.81 385.54 1254.39 409.06 1138.91 519.67 1039.66 632.78 1208.50 651.90
00005940 00000104 911.74 136.79 457.65 664.85 1048.78 381.91 1258.49 404.69 1146.69 514.97 1045.97 627.80 1215.88 645.71
00005941 00000105 911.80 131.24 456.27 661.73 1047.56 378.22 1259.65 400.66 1147.63 509.15 1044.95 622.10 1217.40 639.83
00005942 00000106 909.65 126.04 456.86 658.22 1045.29 371.05 1260.44 394.72 1148.04 503.83 1043.43 615.81 1217.18 634.25
00005943 00000107 908.23 129.39 458.25 648.40 1041.14 363.52 1258.52 389.95 1139.96 496.62 1036.76 609.70 1208.46 630.57
00005944 00000108 907.49 128.36 459.65 638.08 1035.33 360.11 1257.21 384.83 1136.65 490.04 1033.95 601.84 1210.69 620.80
00005945 00000109 906.16 125.35 459.51 631.95 1032.39 356.81 1253.02 381.73 1134.41 483.19 1031.12 592.97 1208.09 611.91
00005946 00000110 905.82 123.81 456.06 627.72 1028.33 354.05 1248.89 377.43 1130.74 478.62 1029.65 589.19 1205.80 606.70
00005947 00000111 907.08 122.25 452.28 625.01 1022.97 355.77 1241.51 378.26 1122.22 472.12 1024.01 585.11 1203.58 601.67
00005948 00000112 906.90 107.99 447.72 635.87 1022.76 357.14 1234.47 377.80 1112.44 474.00 1020.21 579.55 1197.84 596.46
00005949 00000113 908.52 120.51 447.40 622.57 1018.81 353.07 1237.87 376.53 1112.91 468.22 1018.62 582.43 1196.81 600.20
00005950 00000114 906.75 107.30 447.60 635.57 1020.25 354.93 1232.82 375.32 1108.91 476.19 1018.64 580.50 1195.65 597.16
00005951 00000115 907.59 110.15 448.32 635.91 1020.47 353.97 1232.24 375.05 1108.59 477.55 1018.21 581.34 1195.20 598.63
00005952 00000116 909.29 120.58 448.16 624.66 1018.47 351.24 1236.79 376.28 1109.87 472.49 1016.27 583.24 1194.21 602.21
00005953 00000117 909.54 121.78 447.31 623.63 1018.48 350.68 1236.09 375.07 1109.37 471.91 1016.38 583.06 1193.80 601.56
00005954 00000118 908.99 121.74 448.53 625.21 1017.78 351.60 1234.52 375.80 1108.45 473.61 1016.07 583.59 1193.35 601.88
00005955 00000119 908.16 123.49 449.81 626.29 1018.37 351.23 1234.76 376.92 1108.22 474.94 1015.82 584.61 1190.77 604.39
00005956 00000120 907.57 124.16 452.33 629.46 1018.87 352.73 1236.08 377.44 1110.06 477.50 1016.15 588.31 1191.49 607.36
00005957 00000121 907.47 126.10 452.30 632.09 1018.51 354.07 1236.62 378.49 1109.63 478.61 1015.60 593.13 1189.61 612.18
00005958 00000122 906.28 123.74 454.26 638.80 1018.60 355.36 1235.46 378.56 1110.20 478.72 1017.72 595.36 1188.10 613.55
00005959 00000123 906.32 124.93 451.86 637.76 1017.44 354.77 1232.59 377.75 1107.70 478.71 1016.97 594.69 1185.00 612.90
00005960 00000124 905.98 126.90 450.78 637.41 1016.57 354.35 1231.27 377.28 1105.29 479.84 1014.80 594.67 1183.22 612.97
00005961 00000125 905.21 125.84 449.39 639.84 1015.15 354.69 1230.54 377.02 1104.16 479.54 1013.44 596.14 1182.03 614.04
00005962 00000126 904.50 124.35 449.04 643.54 1015.61 355.22 1231.30 378.23 1106.27 480.90 1012.66 597.49 1183.00 615.91
00005963 00000127 904.02 127.15 449.58 643.64 1015.51 355.14 1231.10 377.54 1105.74 481.31 1012.12 598.47 1182.27 616.54
00005964 00000128 904.16 125.86 449.37 645.80 1016.26 356.60 1232.46 380.63 1105.43 482.86 1011.50 598.84 1182.85 618.19
00005965 00000129 903.74 126.85 450.22 649.33 1018.85 359.28 1234.23 383.98 1109.57 484.21 1013.49 601.37 1184.70 621.22
00005966 00000130 903.84 128.31 452.80 651.67 1020.42 361.12 1236.37 385.62 1112.95 486.75 1015.26 604.57 1188.80 624.19
00005967 00000131 903.81 128.80 454.73 654.59 1022.47 362.31 1238.86 386.52 1116.80 489.53 1018.33 606.39 1192.06 625.65
00005968 00000132 905.88 127.81 453.94 658.02 1027.87 363.96 1240.97 389.38 1120.68 494.47 1022.11 608.08 1194.67 628.37
00005969 00000133 906.45 128.94 456.14 659.51 1031.01 365.53 1244.93 390.02 1124.99 497.91 1024.96 610.07 1200.54 629.45
00005970 00000134 907.57 130.32 456.61 657.28 1033.57 368.55 1248.60 393.32 1129.43 496.88 1028.73 611.33 1204.80 631.05
00005971 00000135 907.93 132.38 456.84 656.07 1033.84 369.92 1249.65 393.64 1130.26 496.95 1029.75 612.20 1206.95 630.96
00005972 00000136 908.26 131.71 456.87 656.97 1033.94 370.83 1249.59 395.02 1130.52 497.70 1029.04 612.09 1207.31 631.32
00005973 00000137 908.25 130.85 456.96 658.11 1034.36 371.46 1249.62 395.56 1131.19 498.55 1030.05 612.77 1207.32 632.01
00005974 00000138 908.82 132.77 456.35 653.26 1035.92 373.95 1250.59 396.86 1134.88 498.71 1033.10 612.95 1209.74 631.09
00005975 00000139 909.86 133.36 454.93 648.70 1036.77 376.29 1250.61 398.28 1135.90 499.74 1035.20 613.14 1210.25 630.50
00005976 00000140 910.19 132.95 455.04 645.61 1032.24 377.98 1249.68 398.80 1131.49 498.87 1031.72 613.96 1210.30 630.18
00005977 00000141 909.28 135.93 454.14 641.65 1027.98 380.32 1245.71 398.16 1127.10 499.40 1030.64 615.98 1208.12 629.65
00005978 00000142 908.78 137.87 454.66 639.32 1027.89 381.64 1246.45 400.28 1127.60 502.18 1030.00 616.97 1208.31 631.46
00005979 00000143 909.72 140.10 454.46 637.80 1033.91 385.53 1252.05 402.74 1136.77 508.94 1041.60 621.60 1216.77 634.94
00005980 00000144 909.18 138.71 453.82 640.11 1036.66 388.20 1252.44 405.71 1141.42 510.71 1043.77 621.77 1220.02 635.18
00005981 00000145 905.67 137.17 454.40 642.91 1030.12 387.12 1246.60 403.48 1133.80 510.65 1037.66 621.98 1214.09 634.66
00005982 00000146 901.51 140.15 454.67 643.14 1024.31 385.72 1243.95 403.86 1128.72 509.09 1027.55 621.48 1207.92 636.02
00005983 00000147 901.79 141.06 455.27 639.93 1027.29 386.61 1246.64 402.13 1134.54 508.90 1034.47 621.17 1214.74 633.39
00005984 00000148 902.44 139.99 455.65 639.18 1033.86 387.29 1251.90 401.39 1145.50 510.65 1045.41 621.87 1223.07 632.39
00005985 00000149 902.59 136.00 455.57 640.19 1033.76 386.06 1252.50 400.37 1146.01 507.35 1045.54 620.85 1223.11 631.46
00005986 00000150 901.04 136.31 456.53 639.53 1031.83 385.14 1251.78 399.72 1144.63 505.50 1042.82 620.01 1221.08 630.90
00005987 00000151 902.05 135.07 456.87 640.24 1032.55 384.64 1252.68 399.41 1144.80 504.79 1043.33 619.08 1222.84 630.12
00005988 00000152 903.51 136.14 455.45 638.67 1033.15 385.70 1252.84 399.78 1145.32 505.36 1044.85 620.06 1223.80 630.52
00005989 00000153 901.70 139.07 456.45 638.53 1029.99 385.28 1250.31 399.50 1140.44 505.11 1039.41 620.05 1220.00 630.93
00005990 00000154 901.73 142.45 455.27 635.13 1025.76 384.38 1246.92 399.31 1133.90 504.25 1034.68 620.60 1214.94 632.08
00005991 00000155 901.06 140.58 456.11 639.37 1025.17 384.61 1246.38 400.34 1133.00 504.43 1032.09 620.77 1213.49 632.93
00005992 00000156 900.16 141.43 456.88 640.64 1025.09 383.44 1245.56 400.14 1131.82 503.72 1030.17 619.58 1211.89 632.65
00005993 00000157 897.78 137.57 456.68 648.16 1019.83 382.46 1240.19 399.06 1125.30 503.06 1024.94 619.93 1207.26 632.79
00005994 00000158 894.83 141.54 454.93 641.99 1009.46 384.09 1229.38 399.43 1110.37 501.42 1014.83 619.02 1195.38 630.71
00005995 00000159 893.83 139.11 451.90 642.63 1006.44 384.04 1222.62 401.92 1101.33 502.89 1008.16 615.72 1186.75 629.51
00005996 00000160 892.63 139.67 452.64 638.97 1001.96 384.19 1220.02 401.44 1095.45 501.94 1003.10 615.76 1184.85 628.96
00005997 00000161 891.66 130.61 456.95 645.67 1001.56 384.87 1210.04 397.93 1088.43 505.35 1008.49 613.57 1172.10 625.52
00005998 00000162 888.02 131.50 457.01 643.49 996.43 382.71 1206.05 396.02 1082.54 505.78 1002.63 612.29 1167.57 624.66
00005999 00000163 885.77 127.77 456.59 647.81 993.07 380.64 1202.99 394.99 1077.27 502.06 997.59 609.30 1162.08 622.63
