Video ID: 	fxdq5TZhRZ0
H: 	1080
W: 	1920
FPS: 	23.976023976023978

FRAME INDEX X0 Y0 W H [Landmarks (5 Points)]

00004953 00000000 547.49 235.93 381.48 543.92 631.82 454.67 801.93 481.02 698.15 597.92 638.14 661.05 749.51 683.01
00004954 DELETE   552.43 224.87 382.93 550.47 640.87 454.47 811.96 479.80 708.96 599.53 644.35 658.87 759.49 680.25
00004955 00000002 552.66 225.69 390.95 538.28 646.71 450.13 819.10 477.50 715.12 595.16 652.54 657.35 758.79 680.08
00004956 00000003 552.11 226.75 397.72 550.40 650.91 451.44 825.55 478.61 717.21 595.61 654.76 655.07 767.57 678.56
00004957 00000004 549.93 227.73 392.98 552.61 645.68 454.76 818.45 481.43 712.19 598.70 649.24 655.92 769.35 678.60
00004958 00000005 537.39 227.15 390.38 550.79 639.05 452.48 807.60 482.80 706.87 582.83 640.91 647.94 761.09 673.35
00004959 00000006 538.42 232.75 380.71 546.76 627.28 456.58 798.59 480.28 694.75 597.47 638.33 658.14 755.28 678.11
00004960 00000007 537.18 230.96 380.63 538.48 629.92 449.36 801.65 478.03 701.81 582.96 631.96 646.63 758.17 671.50
00004961 00000008 536.96 228.20 386.17 546.86 629.39 448.04 803.08 476.48 700.40 579.00 638.23 642.73 765.78 666.88
00004962 DELETE   534.92 225.01 382.25 540.31 619.86 439.04 794.05 473.42 685.37 578.04 622.84 632.02 752.19 660.22
00004963 DELETE   525.16 223.18 385.38 552.89 598.85 419.47 775.33 465.23 656.47 565.19 594.93 618.73 742.65 655.11
00004964 DELETE   517.96 216.45 381.02 544.49 592.76 420.90 760.32 461.05 634.22 550.61 578.59 617.43 701.91 649.46
00004965 00000012 517.90 211.37 375.13 536.01 588.38 404.60 751.87 447.52 624.23 537.80 572.84 604.61 701.60 638.62
00004966 00000013 513.31 185.07 379.63 553.14 589.42 403.69 743.31 441.54 619.81 527.11 574.35 597.54 698.91 629.02
00004967 00000014 517.40 185.47 376.61 553.24 590.33 393.18 741.56 433.75 616.97 520.41 573.95 592.34 693.44 625.08
00004968 00000015 518.70 182.56 375.14 549.35 591.52 390.94 740.61 431.62 614.33 516.64 572.96 585.64 695.42 618.62
00004969 00000016 516.67 180.41 375.01 552.87 589.67 388.57 740.30 430.07 611.01 513.95 569.37 584.01 695.06 617.87
00004970 00000017 517.57 171.51 378.62 559.69 590.38 389.04 740.14 425.23 616.37 507.32 575.34 581.20 703.42 610.95
00004971 00000018 521.58 163.52 375.68 565.37 589.07 381.07 739.56 414.72 613.24 497.34 574.99 576.28 704.63 604.49
00004972 00000019 522.60 157.44 375.69 568.58 590.12 373.17 743.50 404.48 616.36 483.77 575.73 567.40 708.22 594.08
00004973 00000020 526.49 147.55 375.74 569.11 591.70 366.07 745.91 395.18 618.71 477.04 579.20 560.53 710.86 585.66
00004974 00000021 528.47 147.17 374.23 562.83 593.28 360.51 749.67 389.19 620.68 469.72 580.07 549.68 718.90 574.57
00004975 00000022 533.19 135.98 373.21 569.59 594.23 351.49 752.64 375.90 624.52 462.39 583.65 542.55 724.26 563.88
00004976 00000023 536.06 129.00 372.66 570.91 595.61 344.93 754.94 366.55 629.01 459.19 586.03 538.80 724.93 558.31
00004977 00000024 536.82 129.08 371.86 566.31 596.92 342.14 757.46 364.14 632.81 455.55 587.69 534.07 727.91 553.87
00004978 00000025 537.71 127.86 374.25 564.60 599.88 341.83 762.77 364.09 637.40 455.11 591.48 531.45 734.19 551.17
00004979 00000026 540.62 125.50 372.11 565.94 606.21 335.84 759.15 367.38 637.33 453.74 594.06 529.70 721.48 556.25
00004980 00000027 539.21 124.17 373.95 568.14 605.82 334.79 757.63 368.81 633.72 453.15 591.04 529.29 717.54 557.96
00004981 00000028 537.86 123.69 371.52 569.93 603.88 336.24 755.34 372.57 630.38 454.33 588.07 530.58 713.45 561.36
00004982 00000029 534.08 126.08 372.97 579.32 596.76 337.49 756.02 371.69 622.73 457.80 579.84 532.87 718.85 562.43
00004983 00000030 532.53 131.76 372.42 574.31 591.85 345.00 747.41 376.59 612.03 458.21 577.70 538.13 712.51 565.52
00004984 00000031 527.32 138.73 373.74 564.89 587.30 352.96 741.03 386.24 604.99 460.49 572.65 541.26 708.23 569.97
00004985 00000032 526.81 141.07 372.29 567.46 585.79 356.85 737.64 390.18 603.92 465.88 572.22 546.61 705.44 575.08
00004986 00000033 524.43 140.10 369.85 570.94 584.16 355.96 733.45 393.52 600.49 471.21 568.46 551.49 692.24 583.43
00004987 00000034 522.95 142.06 362.39 568.45 579.78 357.99 724.17 393.98 592.73 471.62 563.36 558.77 675.55 589.57
00004988 00000035 518.30 144.88 362.75 569.28 578.71 361.36 722.45 397.44 593.60 475.44 561.68 565.02 671.00 595.96
00004989 00000036 518.45 150.08 364.36 565.43 579.45 364.20 723.97 402.45 594.03 479.40 561.33 566.04 673.95 598.77
00004990 00000037 519.11 153.38 365.27 567.12 579.05 364.54 724.46 405.01 591.68 480.82 559.28 566.77 675.01 601.31
00004991 00000038 513.70 153.75 372.06 566.97 577.81 363.74 721.47 407.75 587.43 483.06 552.48 564.40 665.52 601.41
00004992 00000039 511.40 160.09 371.38 567.73 577.15 364.07 717.50 409.00 584.16 482.78 550.67 565.16 663.25 603.27
00004993 00000040 513.41 160.63 372.76 573.39 580.52 365.03 723.01 410.65 590.02 485.16 557.50 567.18 674.76 605.53
00004994 00000041 516.62 160.41 374.46 576.68 584.14 366.12 729.71 410.31 594.58 486.36 563.36 568.38 685.23 605.36
00004995 00000042 518.45 161.03 375.13 575.33 585.66 367.37 730.17 411.14 595.54 486.45 565.50 567.75 688.34 604.26
00004996 00000043 518.85 161.17 374.96 572.67 586.13 366.88 730.92 412.14 595.29 486.61 565.99 563.76 690.68 601.34
00004997 00000044 518.08 164.57 377.83 566.75 586.04 368.86 732.90 415.13 594.10 487.09 563.56 559.26 693.52 597.28
00004998 00000045 519.46 163.34 378.27 567.09 587.32 373.37 736.00 418.81 597.44 490.16 564.91 563.10 695.38 600.29
00004999 00000046 520.63 165.15 378.21 569.86 588.15 372.81 734.65 419.44 596.38 493.42 566.55 563.68 697.13 601.51
00005000 00000047 519.59 167.67 378.33 570.53 587.46 372.92 734.74 422.93 594.94 498.83 566.53 565.26 699.21 605.30
00005001 00000048 518.59 168.78 381.69 577.04 588.04 379.90 738.21 431.27 597.05 508.42 567.60 569.60 710.32 609.56
00005002 00000049 516.78 175.08 385.40 587.91 587.41 389.93 736.52 436.85 599.88 517.26 570.31 581.19 716.00 617.54
00005003 00000050 515.83 180.55 385.75 588.48 587.29 395.16 735.32 441.34 601.26 522.26 569.07 583.57 717.01 619.77
00005004 00000051 515.57 181.31 386.15 590.58 587.23 395.18 736.05 440.75 601.54 521.91 568.34 585.59 716.81 621.52
00005005 00000052 514.61 182.87 388.21 589.16 588.23 395.56 736.64 440.19 603.99 522.32 568.75 584.82 718.82 619.87
00005006 00000053 514.81 184.59 389.05 579.60 589.20 395.31 738.16 440.97 605.38 524.00 567.14 579.07 721.25 615.01
00005007 00000054 516.36 183.86 387.94 574.00 590.85 394.95 739.02 440.87 607.06 523.48 568.49 575.72 720.63 612.03
00005008 00000055 517.74 181.74 385.41 568.37 592.58 394.80 740.14 440.33 609.20 521.86 570.43 574.31 718.53 610.48
00005009 00000056 520.19 181.27 386.79 563.31 596.11 394.88 745.68 440.88 613.44 521.39 573.06 571.19 721.19 608.16
00005010 00000057 526.55 181.95 385.40 563.56 601.22 392.38 753.38 436.88 618.43 519.43 575.97 569.64 727.37 605.83
00005011 00000058 530.54 180.23 387.29 569.92 605.40 390.04 759.21 436.55 621.13 518.30 579.11 568.35 734.09 606.11
00005012 00000059 534.06 174.36 385.58 583.27 608.51 385.62 762.46 433.10 621.73 514.75 581.76 567.89 738.21 606.02
00005013 00000060 534.60 169.52 384.88 584.11 609.68 382.28 763.76 431.05 622.82 510.83 584.00 565.87 739.08 604.92
00005014 00000061 536.03 162.23 382.93 576.62 607.23 381.40 761.61 428.53 622.17 505.29 583.14 564.35 732.49 602.16
00005015 00000062 534.90 161.85 382.17 571.56 603.24 382.88 755.79 426.28 619.29 503.24 581.30 566.31 724.74 601.43
00005016 00000063 531.04 158.47 381.35 576.01 597.02 382.85 747.31 422.38 612.25 503.27 577.76 573.20 714.10 605.18
00005017 00000064 523.03 160.61 382.29 573.99 592.00 380.53 740.05 422.52 606.79 498.28 573.38 571.23 704.46 605.33
00005018 00000065 521.24 159.51 382.86 576.14 589.37 375.42 737.16 417.35 602.30 491.36 569.50 571.60 694.69 606.21
00005019 00000066 522.57 156.83 376.80 576.27 587.65 372.91 732.09 412.40 599.17 486.88 567.68 574.13 685.11 607.53
00005020 00000067 520.60 155.44 379.31 576.50 586.49 372.27 732.22 412.10 598.97 487.17 566.24 573.58 682.50 607.53
00005021 00000068 520.02 158.67 378.22 577.88 584.20 375.99 727.82 416.05 592.85 489.93 563.48 578.75 676.56 612.75
00005022 00000069 515.14 162.21 379.46 578.42 579.21 377.70 726.75 421.99 588.62 501.43 558.33 582.98 673.37 619.69
00005023 00000070 513.59 169.17 380.21 570.61 576.39 378.87 723.04 423.85 583.98 505.74 555.40 585.52 667.58 622.83
00005024 00000071 514.89 165.40 380.64 580.15 579.37 377.69 728.50 418.62 592.62 502.54 563.55 583.30 684.39 616.91
00005025 00000072 515.48 163.98 385.19 586.82 585.13 377.24 735.19 417.34 602.47 500.68 571.25 576.91 704.36 609.05
00005026 00000073 515.29 167.17 384.34 576.20 587.12 377.22 736.64 418.94 604.44 499.44 571.54 568.84 711.61 601.89
00005027 00000074 513.93 167.78 384.51 571.96 585.92 375.49 736.57 419.52 602.24 499.62 569.13 565.72 707.73 600.91
00005028 00000075 513.57 169.45 382.15 567.32 583.77 375.56 732.80 419.89 598.32 499.58 566.12 565.32 701.59 600.93
00005029 00000076 512.43 172.33 381.77 560.61 581.35 375.52 728.66 420.33 595.11 498.90 562.52 564.27 695.07 600.40
00005030 00000077 512.80 169.88 382.34 567.81 580.94 375.52 729.02 418.30 595.74 499.58 563.91 569.84 695.95 604.36
00005031 00000078 514.87 166.64 380.58 570.96 581.54 376.35 728.81 416.47 596.12 497.91 566.89 574.07 692.75 607.08
00005032 00000079 517.58 164.34 377.27 571.34 582.77 376.36 728.35 414.29 597.07 493.62 568.29 574.41 690.91 605.86
00005033 00000080 523.47 160.37 375.51 575.16 587.87 375.98 732.28 412.77 600.94 489.82 572.93 572.46 696.40 603.21
00005034 00000081 526.26 157.68 376.65 571.23 588.55 378.25 733.74 412.54 604.57 487.67 575.43 573.18 698.03 601.69
00005035 00000082 529.66 153.79 374.07 568.93 590.66 378.24 736.24 412.14 607.73 487.17 576.24 572.00 698.88 600.33
00005036 00000083 533.86 155.90 372.22 560.95 594.11 376.90 742.08 411.38 612.15 484.89 577.31 565.10 706.99 593.67
00005037 00000084 536.36 154.69 371.95 559.63 597.89 373.32 747.36 407.64 617.11 483.82 580.56 560.50 714.20 588.98
00005038 00000085 537.03 147.41 376.19 569.26 599.89 369.34 757.45 404.87 621.96 481.34 579.88 560.29 717.38 589.83
00005039 00000086 540.56 141.68 375.12 574.31 600.64 369.21 759.22 401.77 623.93 480.58 583.73 560.68 721.70 587.61
00005040 00000087 540.10 141.60 375.08 564.09 600.41 364.16 758.97 396.23 625.54 475.39 586.31 556.20 718.45 583.19
00005041 00000088 537.31 142.15 374.63 562.59 598.41 363.66 752.49 393.00 625.42 474.18 586.49 554.83 716.74 579.58
00005042 00000089 536.24 144.39 373.33 560.99 597.21 362.04 745.37 391.80 620.84 474.11 585.13 549.93 714.06 575.02
00005043 00000090 532.46 144.45 374.06 561.12 591.94 359.50 740.14 389.97 613.15 471.02 579.18 545.14 710.71 571.14
00005044 00000091 528.55 145.46 372.95 559.76 588.17 357.26 736.24 390.19 609.78 469.86 575.55 542.86 706.94 571.01
00005045 00000092 526.23 146.11 371.01 561.08 584.82 356.42 731.59 388.32 605.16 468.90 574.39 543.83 703.55 571.05
00005046 DELETE   523.60 147.52 369.18 562.12 580.69 357.81 726.18 390.41 596.02 468.01 571.03 544.50 698.16 571.81
00005047 DELETE   518.14 151.18 370.47 558.86 576.25 354.55 720.01 388.77 588.83 464.32 565.78 542.66 692.26 571.17
00005048 DELETE   513.52 148.57 369.90 565.97 572.72 350.63 715.76 386.52 583.90 465.14 562.15 542.79 687.91 572.32
00005049 00000096 513.10 148.06 362.44 572.94 570.73 351.91 710.64 387.47 579.43 466.32 559.07 548.37 682.34 578.09
00005050 00000097 511.64 152.02 358.76 575.06 569.95 353.32 706.99 389.62 575.58 468.77 557.61 551.87 679.11 582.34
00005051 00000098 506.08 156.27 365.76 565.95 566.09 357.13 707.37 397.82 571.58 477.04 551.98 548.48 681.06 581.95
00005052 00000099 497.18 153.28 375.11 565.64 561.03 364.23 703.54 406.12 567.55 480.50 545.36 545.76 679.53 579.30
00005053 00000100 493.11 152.73 375.15 562.84 556.55 367.07 701.00 407.25 567.93 480.32 540.85 550.14 671.59 582.47
00005054 00000101 495.41 159.02 366.21 554.99 552.07 372.70 693.50 409.64 563.41 489.15 535.56 562.32 656.61 593.01
00005055 00000102 495.25 161.36 367.08 559.17 551.08 376.28 693.24 410.34 564.48 493.16 537.06 568.44 653.97 597.01
00005056 00000103 492.07 153.37 375.08 565.38 553.72 371.67 694.01 407.66 565.92 482.59 543.53 561.61 659.31 590.72
00005057 00000104 491.71 150.04 372.78 562.75 554.82 366.09 694.88 405.68 566.73 479.39 542.64 552.99 660.99 584.55
00005058 00000105 490.76 147.84 372.55 564.34 553.67 362.00 692.00 405.92 563.03 477.06 539.27 546.50 661.26 581.25
00005059 DELETE   489.41 147.22 370.07 563.41 553.02 358.52 689.67 404.79 559.63 474.68 536.39 542.94 658.35 579.59
00005060 00000107 489.83 141.69 367.71 567.82 551.03 351.80 685.62 403.28 553.05 471.99 533.19 537.47 655.45 578.40
00005061 00000108 491.01 138.84 365.68 567.83 550.18 349.15 683.59 401.86 549.95 469.65 531.49 535.98 650.78 578.01
00005062 00000109 491.69 133.76 365.57 572.35 549.16 352.14 680.10 400.46 548.91 466.41 532.04 537.68 648.13 576.12
00005063 00000110 491.29 130.04 362.12 569.47 543.41 350.16 674.05 398.60 540.97 466.45 526.22 539.13 638.70 577.75
00005064 00000111 487.22 126.93 361.62 573.09 536.90 352.14 667.93 395.64 536.99 464.68 521.66 545.98 628.12 580.69
00005065 00000112 488.25 128.67 358.06 571.27 536.64 353.96 665.56 396.41 537.33 465.21 521.92 547.96 625.65 581.63
00005066 DELETE   495.20 145.02 357.94 565.78 540.43 360.69 680.31 400.20 544.64 487.81 521.94 560.24 627.68 594.00
00005067 DELETE   499.05 152.69 370.91 561.47 556.45 367.76 702.33 401.72 572.79 487.74 539.63 563.12 653.45 591.96
00005068 DELETE   501.74 157.40 371.81 560.34 564.11 364.41 711.35 392.90 588.69 481.65 554.45 564.48 670.92 588.80
00005069 00000116 505.85 158.25 369.65 550.35 568.22 360.49 715.61 389.44 594.65 475.59 560.94 555.61 682.71 579.89
00005070 00000117 504.30 157.10 370.45 549.58 566.27 361.93 716.02 390.55 594.34 479.43 559.53 555.01 685.70 578.70
00005071 00000118 501.63 162.44 372.31 547.42 563.37 367.90 710.58 394.89 591.56 485.42 559.02 561.46 681.58 583.86
00005072 00000119 497.89 161.85 374.28 553.26 559.05 374.13 704.44 402.03 585.19 491.87 556.55 567.99 676.74 590.96
00005073 00000120 493.12 154.31 378.94 565.48 557.42 380.91 702.65 409.65 579.86 494.10 556.36 563.92 684.19 587.39
00005074 00000121 483.02 167.68 379.76 558.84 546.43 374.82 694.24 402.03 566.73 498.13 547.65 562.79 684.92 583.33
00005075 00000122 478.65 168.42 376.35 559.51 538.76 371.90 690.93 400.54 562.54 499.59 540.84 558.60 687.40 580.05
00005076 00000123 477.45 169.63 372.42 559.46 534.29 373.49 685.46 400.09 557.26 500.06 536.95 558.77 686.44 578.33
00005077 00000124 477.03 170.91 370.80 565.91 531.44 372.83 678.46 396.71 550.43 501.00 539.00 561.23 690.35 577.09
00005078 00000125 472.61 171.67 371.52 565.11 526.21 378.60 671.86 395.97 547.58 498.65 538.12 564.96 685.74 575.69
00005079 00000126 462.96 166.42 377.19 567.15 517.64 379.37 665.65 392.08 546.69 494.54 530.53 564.24 678.55 572.47
00005080 00000127 466.25 167.19 374.04 560.47 513.98 382.49 660.75 390.07 542.84 495.78 532.40 568.41 674.38 573.50
00005081 00000128 466.68 169.71 373.48 548.79 507.74 385.48 657.25 390.17 537.84 500.23 530.85 576.49 665.29 580.36
00005082 00000129 461.64 177.13 375.94 545.20 501.90 392.74 649.78 393.84 530.39 505.67 529.65 584.77 658.31 585.66
00005083 00000130 452.55 176.23 383.79 557.05 495.70 396.42 646.74 392.89 530.66 513.35 532.45 594.53 662.77 590.36
00005084 00000131 455.99 181.45 377.40 550.23 506.45 397.52 642.75 396.17 535.19 510.03 538.04 591.46 657.78 588.03
00005085 00000132 454.08 189.51 376.21 539.55 501.61 402.39 636.76 399.16 530.95 515.75 535.49 595.56 652.45 590.62
00005086 00000133 450.53 183.48 376.92 543.02 496.90 405.28 628.45 398.46 524.78 517.83 533.08 597.69 644.97 590.04
00005087 00000134 444.06 180.29 379.71 548.37 490.49 406.99 619.98 398.35 517.09 518.79 531.76 600.50 642.73 590.90
00005088 00000135 438.09 177.86 382.34 551.98 487.08 406.06 615.97 397.89 513.08 520.26 529.00 600.41 641.89 590.80
00005089 00000136 430.07 179.08 388.38 554.91 482.11 407.36 611.15 397.58 508.25 521.25 526.75 601.73 639.09 590.36
00005090 00000137 423.98 178.70 392.57 559.67 476.22 408.62 606.45 396.61 504.13 522.07 523.80 603.91 638.83 590.19
00005091 00000138 422.15 175.88 382.76 562.40 471.35 405.63 595.02 398.72 496.89 518.19 520.25 602.17 635.38 593.69
00005092 00000139 422.14 175.41 390.09 564.11 472.52 406.33 599.67 394.30 493.95 519.05 520.13 601.04 635.66 586.86
00005093 00000140 420.38 175.02 386.79 557.90 469.37 405.38 598.57 395.26 492.47 519.00 516.19 598.60 631.95 586.39
00005094 00000141 419.28 173.59 383.80 557.10 467.55 406.84 596.74 395.87 489.99 516.96 512.75 597.93 627.72 585.23
00005095 00000142 418.06 172.43 383.33 556.43 466.10 406.58 594.92 395.73 488.96 515.41 511.39 597.11 625.86 584.66
00005096 00000143 418.28 171.84 380.42 556.00 465.78 406.58 594.15 395.10 488.42 514.26 510.84 596.40 626.13 583.48
00005097 00000144 417.01 172.06 382.68 560.74 466.08 406.59 594.02 394.80 487.15 513.24 511.15 597.10 625.97 583.51
00005098 00000145 416.30 171.76 385.79 565.16 465.97 406.47 595.40 392.57 488.76 512.70 512.30 599.39 627.53 583.90
00005099 00000146 417.15 169.87 385.89 568.90 466.84 406.02 595.57 391.19 488.94 511.82 513.53 600.72 627.67 584.48
00005100 00000147 417.18 170.59 386.77 568.43 466.86 404.20 596.65 389.27 489.26 509.90 513.69 600.24 627.89 583.96
00005101 00000148 418.70 171.00 386.69 567.03 466.65 403.42 598.06 388.13 489.24 508.86 512.40 599.71 628.31 583.29
00005102 00000149 418.93 169.34 386.04 568.50 466.66 403.49 598.91 387.75 489.95 508.21 511.93 599.31 628.39 582.57
00005103 00000150 419.28 171.55 378.43 563.10 466.94 400.81 596.43 392.77 490.62 505.54 509.68 596.60 628.71 587.75
00005104 00000151 418.98 172.61 379.31 561.64 466.21 399.65 596.87 391.53 490.06 504.86 508.18 594.79 629.15 585.79
00005105 00000152 419.76 172.43 378.47 561.53 467.33 400.20 597.78 392.00 491.11 503.32 508.26 593.47 630.33 584.41
00005106 00000153 421.16 169.94 377.69 563.71 467.58 399.79 598.19 390.26 490.63 503.06 509.87 593.15 633.19 582.92
00005107 00000154 420.64 168.85 378.20 564.73 467.68 399.22 597.50 388.28 491.52 501.11 511.02 592.15 634.74 580.78
00005108 00000155 421.76 169.31 378.57 564.10 468.99 397.45 597.53 385.64 491.78 498.50 512.69 590.60 635.46 578.58
00005109 00000156 421.10 168.95 380.16 563.60 468.64 396.68 597.61 384.55 492.06 496.82 513.09 589.11 635.99 576.80
00005110 00000157 420.45 167.89 379.00 562.14 467.74 394.95 597.87 381.92 492.66 495.24 513.09 586.83 636.97 573.72
00005111 00000158 419.19 166.46 380.42 563.14 466.92 392.88 598.33 379.94 492.94 493.86 512.54 585.62 636.91 572.59
00005112 00000159 419.32 166.62 379.95 561.57 466.46 391.83 597.69 379.86 491.67 494.42 510.98 584.07 635.64 571.79
00005113 00000160 418.62 167.43 380.81 561.45 465.43 392.99 596.72 380.26 490.41 494.88 509.95 585.21 634.71 572.21
00005114 00000161 416.91 168.35 381.01 559.83 463.54 393.13 595.80 380.29 489.11 495.72 508.63 584.83 634.02 571.62
00005115 00000162 415.45 171.06 380.81 556.23 461.79 393.37 593.20 380.09 486.75 495.75 508.25 585.27 631.22 571.69
00005116 00000163 413.65 169.78 382.33 557.51 459.32 394.53 592.00 379.38 484.50 495.17 506.75 587.14 629.86 572.06
00005117 00000164 413.42 170.18 380.56 556.61 459.35 394.13 591.15 378.83 484.02 493.76 505.98 585.66 629.00 570.51
00005118 00000165 412.77 169.98 379.16 557.56 459.54 394.94 590.05 379.82 482.67 493.34 506.24 586.40 627.61 571.35
00005119 00000166 411.71 161.53 382.59 572.04 455.31 397.34 587.50 372.63 481.66 491.86 506.46 588.63 629.85 564.35
00005120 00000167 408.71 160.70 384.70 573.49 454.64 398.96 585.10 373.39 480.60 491.91 507.85 590.07 628.25 564.94
00005121 00000168 407.13 160.99 384.88 572.96 453.81 399.01 584.33 373.56 480.20 492.03 507.63 590.22 626.94 565.29
00005122 00000169 405.70 163.82 385.69 569.67 452.82 397.95 582.83 373.37 479.43 492.67 508.29 590.84 625.66 566.45
00005123 00000170 406.57 163.96 384.04 569.87 451.59 399.11 580.41 373.81 476.39 492.34 506.74 592.43 622.98 567.51
CROP_BBOX: 209 0 1128 911
