Video ID: 	-aQ4eQV8uH0
H: 	1080
W: 	1920
FPS: 	25.0

FRAME INDEX X0 Y0 W H [Landmarks (5 Points)]

00002276 00000000 756.30 115.24 392.73 579.47 983.03 380.28 1118.78 384.76 1125.45 442.41 1003.03 551.91 1115.61 555.05
00002277 00000001 754.11 115.31 397.00 585.85 987.70 374.47 1116.42 385.23 1129.10 443.77 1010.59 550.04 1120.15 559.49
00002278 00000002 755.90 109.16 394.85 598.17 991.75 375.66 1111.33 384.21 1126.87 446.00 1016.06 556.44 1114.97 563.70
00002279 00000003 757.27 111.52 382.74 600.44 993.01 370.93 1099.30 381.67 1120.05 450.44 1020.22 563.84 1102.19 573.17
00002280 00000004 756.03 110.43 379.71 596.25 993.37 369.63 1093.21 377.40 1117.36 448.92 1020.56 561.26 1098.04 568.38
00002281 00000005 758.63 110.09 369.35 593.10 991.15 370.96 1100.39 375.71 1117.62 460.63 1015.15 571.75 1094.99 577.81
00002282 00000006 757.56 111.28 369.72 592.86 988.07 372.66 1098.57 377.08 1115.08 461.88 1012.89 571.66 1094.81 577.45
00002283 00000007 754.65 114.63 373.97 590.60 990.16 377.96 1092.82 384.33 1111.82 448.97 1008.16 562.56 1090.71 568.01
00002284 00000008 754.94 114.13 374.93 591.19 993.89 378.64 1093.51 385.90 1113.07 450.79 1008.95 561.62 1090.56 567.85
00002285 00000009 756.25 115.18 374.62 584.74 993.04 380.73 1094.82 386.23 1113.43 450.60 1009.15 559.62 1092.58 564.39
00002286 00000010 755.70 111.49 376.48 587.06 992.26 380.82 1096.87 384.19 1115.07 450.18 1009.47 558.13 1096.79 560.89
00002287 00000011 755.28 113.39 375.93 586.96 990.29 383.07 1097.79 384.34 1114.92 452.10 1007.09 559.52 1097.25 560.46
00002288 00000012 753.50 115.81 375.05 581.82 983.15 385.15 1097.34 383.41 1108.42 452.71 998.76 558.84 1092.89 557.55
00002289 DELETE   750.38 112.01 377.02 583.03 976.93 386.02 1097.08 381.16 1105.61 453.37 992.85 557.05 1092.02 553.13
00002290 00000014 746.03 109.11 378.19 584.28 975.95 383.82 1096.94 382.58 1102.57 455.89 989.92 557.47 1086.64 556.90
00002291 00000015 742.74 110.59 376.42 598.12 970.75 376.80 1090.20 384.79 1092.94 455.78 979.90 562.27 1074.03 569.43
00002292 00000016 737.07 116.32 380.04 591.29 963.71 377.42 1089.67 386.68 1089.43 460.09 971.20 562.48 1070.21 570.93
00002293 00000017 736.05 120.59 380.95 574.86 957.34 381.61 1086.08 384.86 1082.84 460.75 967.08 554.98 1070.59 558.85
00002294 00000018 730.86 124.97 389.69 575.94 949.96 380.62 1091.60 387.99 1084.05 462.82 959.63 552.76 1078.67 559.53
00002295 00000019 731.21 123.52 389.92 571.54 947.50 378.26 1092.69 387.78 1081.08 460.67 957.19 550.38 1076.58 559.14
00002296 00000020 734.69 128.58 384.61 577.16 955.53 374.86 1096.15 390.13 1091.84 455.32 955.89 558.97 1078.43 573.02
00002297 00000021 728.95 123.75 387.85 579.62 950.14 369.67 1087.62 386.01 1075.70 460.48 955.97 553.64 1065.09 567.71
00002298 00000022 733.24 126.60 385.85 577.57 954.36 369.74 1096.55 390.15 1090.48 453.10 953.59 556.49 1076.18 574.70
00002299 00000023 732.29 126.35 386.24 575.52 952.91 368.88 1095.06 390.19 1088.20 452.98 952.40 554.46 1074.82 573.36
00002300 00000024 731.24 125.64 388.21 573.49 949.69 368.71 1093.94 387.14 1086.86 451.66 951.70 552.29 1076.50 568.76
00002301 00000025 728.03 119.35 390.61 574.80 942.98 370.66 1086.90 382.73 1071.82 456.28 955.31 548.46 1068.94 559.18
00002302 00000026 732.82 122.95 389.94 564.56 944.51 373.27 1089.85 382.44 1074.58 457.26 959.24 548.71 1072.74 556.90
00002303 00000027 738.27 125.20 392.30 561.46 948.03 375.37 1099.42 386.94 1081.82 457.56 962.88 550.34 1081.62 560.38
00002304 00000028 739.35 127.34 394.53 561.35 949.97 377.47 1103.04 389.64 1086.95 455.68 962.36 549.33 1086.13 559.97
00002305 00000029 740.63 127.70 391.26 567.19 949.01 378.75 1101.63 390.36 1083.34 457.85 959.92 552.32 1083.98 562.38
00002306 00000030 736.43 126.37 391.48 571.33 946.08 377.50 1095.63 389.55 1077.82 457.77 957.67 552.12 1078.34 562.72
00002307 00000031 735.39 118.62 392.20 572.61 943.34 376.88 1090.12 383.56 1072.16 457.33 960.27 552.43 1075.37 558.58
00002308 00000032 736.27 116.66 393.40 566.40 941.22 377.30 1091.17 382.29 1072.43 455.13 963.13 551.25 1077.80 555.90
00002309 00000033 741.99 118.07 392.03 561.36 943.18 378.46 1095.80 382.33 1074.33 457.17 967.53 553.32 1082.38 556.85
00002310 00000034 748.52 116.56 392.46 568.21 950.24 381.19 1098.76 383.97 1077.44 459.28 973.84 557.53 1086.84 559.72
00002311 00000035 756.70 118.67 390.30 573.79 956.98 383.48 1104.14 384.74 1082.81 458.85 981.42 562.97 1094.14 563.68
00002312 DELETE   761.65 117.73 398.84 579.64 965.75 377.07 1114.40 382.57 1097.44 446.74 996.36 559.30 1108.81 563.19
00002313 00000037 771.53 116.80 399.93 584.67 972.85 378.83 1127.04 382.23 1106.16 446.83 1001.59 562.39 1122.69 564.29
00002314 00000038 775.44 117.82 398.65 575.12 979.18 373.23 1135.36 380.73 1112.82 446.69 1005.71 559.94 1125.55 565.28
00002315 00000039 778.72 112.24 403.35 577.41 984.60 368.08 1145.02 377.00 1124.12 442.17 1009.93 554.50 1138.79 560.93
00002316 00000040 785.39 106.09 401.31 583.02 997.52 365.17 1152.35 375.58 1133.89 433.95 1019.39 549.36 1145.90 557.23
00002317 00000041 792.87 102.74 398.15 583.62 1004.48 359.65 1160.58 372.31 1141.14 431.81 1025.83 548.26 1152.33 557.77
00002318 00000042 801.93 104.12 392.18 580.92 1010.68 355.18 1164.41 367.59 1144.41 434.05 1029.04 548.90 1153.37 558.05
00002319 00000043 802.24 106.70 392.86 582.60 1004.22 355.79 1157.89 361.54 1134.41 441.38 1033.04 547.14 1148.77 551.49
00002320 00000044 806.11 106.96 393.87 579.67 1011.10 356.37 1162.56 364.19 1140.69 443.74 1036.31 546.29 1150.91 552.26
00002321 00000045 809.88 108.58 396.54 573.79 1011.82 357.89 1170.47 366.90 1143.98 444.38 1034.84 541.87 1157.17 548.46
00002322 00000046 814.73 110.57 395.23 573.13 1018.95 363.24 1172.50 369.70 1148.94 451.56 1041.50 548.14 1159.34 553.12
00002323 00000047 819.62 109.80 395.40 573.35 1026.18 370.96 1177.35 372.91 1156.76 457.97 1050.66 555.08 1165.95 556.27
00002324 00000048 828.86 113.41 395.05 575.90 1033.79 377.45 1187.02 376.79 1167.72 456.78 1062.59 561.06 1179.42 559.78
00002325 00000049 834.51 123.08 397.39 579.30 1040.90 382.65 1192.62 387.88 1173.41 458.69 1070.45 565.38 1188.51 568.49
00002326 00000050 841.41 127.15 400.16 586.31 1039.56 384.11 1198.78 394.40 1174.86 462.48 1067.14 567.29 1192.25 575.80
00002327 00000051 843.29 125.23 404.67 604.28 1043.92 380.70 1207.57 396.26 1183.64 465.92 1072.08 580.16 1198.56 592.69
00002328 00000052 846.89 124.35 405.11 614.95 1049.09 381.73 1214.41 400.53 1188.75 468.18 1079.52 589.92 1204.08 604.84
00002329 00000053 849.98 125.80 403.82 617.74 1050.74 382.59 1219.36 399.54 1191.64 474.43 1079.46 594.82 1206.08 608.15
00002330 00000054 847.12 125.86 403.09 613.23 1049.44 384.40 1216.39 398.26 1188.54 480.83 1077.40 595.25 1199.85 606.03
00002331 00000055 843.55 128.39 402.06 620.18 1048.28 390.07 1206.67 399.71 1183.32 486.58 1069.80 595.26 1192.90 602.79
00002332 00000056 840.54 130.22 402.53 622.90 1047.46 385.34 1200.95 391.25 1185.14 488.26 1073.57 598.39 1193.89 603.63
00002333 00000057 836.07 125.60 407.26 631.23 1046.49 386.39 1199.84 392.75 1183.56 488.02 1072.36 599.24 1192.20 604.88
00002334 00000058 836.44 123.98 401.07 616.37 1047.81 385.36 1197.03 390.76 1181.06 484.13 1073.12 590.50 1187.97 595.53
00002335 00000059 833.05 124.39 401.48 613.53 1042.40 385.28 1195.61 392.40 1178.44 483.35 1065.39 587.49 1184.63 594.22
00002336 00000060 832.60 120.95 397.52 609.15 1040.21 385.08 1193.94 390.80 1176.18 480.25 1061.18 580.33 1184.65 585.68
00002337 00000061 827.34 124.98 401.92 598.56 1040.06 384.58 1185.88 392.02 1170.71 469.47 1051.97 566.41 1172.47 573.01
00002338 00000062 824.92 121.68 397.75 599.88 1036.50 381.91 1187.66 386.08 1175.16 474.07 1056.75 573.09 1180.60 577.15
00002339 00000063 818.37 119.48 397.51 591.90 1030.43 379.76 1183.44 380.09 1173.57 471.49 1056.89 574.24 1178.04 575.05
00002340 00000064 813.94 119.36 396.00 587.46 1025.08 378.55 1179.18 380.51 1160.87 463.57 1041.51 565.05 1165.23 566.02
00002341 00000065 811.41 118.61 393.68 587.88 1021.15 374.73 1174.04 380.15 1156.71 456.46 1036.72 559.93 1160.91 563.83
00002342 00000066 807.41 120.10 393.79 582.34 1017.52 370.88 1170.24 381.59 1151.94 447.42 1033.14 553.44 1154.89 561.92
00002343 00000067 804.57 120.72 397.57 582.09 1015.94 372.00 1168.33 383.49 1153.06 440.84 1038.17 554.13 1158.08 563.60
00002344 00000068 802.03 115.51 396.92 580.39 1010.06 370.28 1166.44 378.80 1148.57 442.71 1033.72 552.46 1154.75 559.72
00002345 00000069 798.17 110.55 395.53 587.36 1002.41 364.08 1160.56 370.90 1138.97 442.65 1024.65 549.16 1149.23 554.82
00002346 00000070 800.82 109.76 393.92 588.91 1012.89 366.29 1167.66 379.45 1147.19 444.23 1020.57 555.62 1149.08 565.68
00002347 00000071 799.22 109.96 394.93 588.08 1011.20 366.34 1165.65 381.44 1144.84 443.64 1018.92 553.96 1148.10 565.63
00002348 00000072 795.57 114.31 397.95 583.89 1008.69 366.16 1163.72 383.13 1142.44 441.11 1016.02 551.34 1146.80 564.55
00002349 00000073 791.66 114.10 400.43 585.43 1009.68 368.20 1161.21 385.54 1142.81 441.79 1015.43 551.54 1144.05 564.98
00002350 00000074 786.34 113.12 402.80 583.13 998.47 363.25 1151.93 379.72 1137.07 441.36 1010.07 547.90 1141.52 562.12
00002351 00000075 781.83 112.45 404.25 585.67 995.18 364.40 1149.08 380.78 1135.02 441.75 1006.56 547.99 1140.10 561.91
00002352 00000076 778.42 114.06 405.58 582.32 989.62 366.40 1146.18 382.95 1129.64 442.66 1002.67 548.61 1137.26 562.56
00002353 00000077 777.69 115.99 405.10 577.87 985.19 366.30 1145.83 383.59 1125.51 443.67 997.55 548.00 1135.73 562.65
00002354 00000078 776.56 116.94 405.62 574.97 983.11 365.02 1145.59 385.01 1122.92 443.74 995.47 547.29 1133.60 563.80
00002355 00000079 775.59 115.69 404.25 576.37 979.81 365.16 1141.44 382.83 1118.24 443.33 993.84 546.69 1131.83 561.18
00002356 00000080 775.39 116.30 402.71 573.25 977.65 364.59 1139.93 381.67 1114.42 444.67 992.12 546.72 1129.35 560.66
00002357 00000081 774.13 118.18 401.99 571.31 976.48 364.67 1138.70 385.27 1112.10 444.63 989.65 545.72 1126.34 562.43
00002358 00000082 772.23 116.89 404.46 572.02 975.59 366.23 1137.20 384.66 1111.16 445.42 990.12 545.30 1126.82 559.97
00002359 00000083 773.70 113.02 404.88 576.52 975.71 362.91 1139.18 382.83 1112.67 445.08 988.76 544.17 1127.41 560.25
00002360 00000084 777.12 110.48 405.45 580.90 975.52 361.94 1139.46 375.88 1113.99 445.64 989.43 543.58 1132.23 555.14
00002361 00000085 776.51 110.99 401.69 594.04 978.41 363.23 1138.28 376.30 1114.11 449.18 989.78 552.72 1126.26 563.59
00002362 00000086 775.14 111.52 403.76 595.76 976.52 364.78 1136.22 377.47 1112.02 450.11 988.74 554.69 1124.30 565.08
00002363 00000087 773.54 112.72 405.47 590.07 975.35 368.43 1134.22 379.09 1109.52 447.00 991.77 553.06 1125.83 561.36
00002364 00000088 775.11 113.11 406.84 587.02 973.93 370.52 1136.25 380.75 1109.59 445.24 992.19 551.97 1131.08 559.78
00002365 00000089 778.37 113.45 402.51 582.61 978.00 368.23 1136.13 379.11 1110.60 444.03 996.54 553.05 1126.61 561.57
00002366 00000090 782.64 114.99 399.63 580.42 982.41 367.34 1140.58 379.36 1113.52 444.68 1000.48 554.73 1128.43 564.23
00002367 00000091 784.45 118.48 399.85 577.15 982.25 368.67 1142.51 381.60 1113.58 446.07 1001.11 557.11 1129.41 567.27
00002368 00000092 785.23 120.31 396.89 576.00 981.04 369.08 1139.84 380.19 1110.58 449.13 999.82 558.98 1126.03 567.88
00002369 00000093 784.37 118.75 398.77 578.46 978.21 368.86 1140.31 378.80 1110.37 449.17 997.66 557.68 1129.43 565.55
00002370 00000094 783.80 116.97 400.61 582.98 981.01 366.91 1142.45 378.81 1114.10 448.12 997.57 557.01 1130.47 566.75
00002371 00000095 784.36 120.04 403.17 584.59 982.75 369.18 1144.35 382.16 1116.49 449.28 997.94 559.32 1132.50 569.99
00002372 00000096 786.92 123.35 404.46 587.70 987.46 373.49 1147.00 386.02 1122.11 452.18 998.65 561.40 1138.22 571.95
00002373 00000097 787.53 122.69 404.36 586.07 986.54 376.72 1149.45 387.56 1123.74 453.67 998.70 561.91 1141.75 571.18
00002374 00000098 788.54 125.77 403.80 581.99 984.53 378.69 1149.66 390.00 1122.01 455.39 997.09 563.36 1141.22 573.05
00002375 00000099 786.86 122.85 405.24 585.40 984.05 379.11 1147.97 389.19 1121.03 456.81 995.59 561.81 1141.07 570.70
00002376 00000100 787.20 123.24 404.15 585.77 983.75 375.23 1146.78 385.37 1120.46 454.30 995.84 561.85 1139.00 570.87
00002377 00000101 786.87 122.29 405.06 586.42 986.22 374.73 1147.71 386.30 1122.07 452.85 996.37 559.66 1139.92 569.76
00002378 00000102 785.89 121.68 406.69 587.96 987.30 374.37 1149.14 386.19 1124.18 456.17 995.03 558.90 1141.07 569.46
00002379 00000103 786.25 120.61 405.13 582.94 987.46 371.34 1151.98 384.86 1125.61 456.04 994.12 554.81 1141.79 566.97
00002380 00000104 785.26 116.76 407.16 581.98 984.66 369.98 1153.91 385.96 1124.92 453.52 993.14 553.41 1141.89 567.41
00002381 00000105 788.41 112.93 403.82 585.66 994.26 369.51 1156.89 388.37 1125.86 449.71 998.98 551.44 1138.17 566.65
00002382 00000106 790.17 113.04 402.73 581.14 995.99 367.22 1158.06 385.75 1127.00 447.40 1001.19 550.37 1137.86 565.49
00002383 00000107 790.23 111.22 401.44 582.16 998.93 365.08 1158.16 385.04 1128.82 446.19 1002.48 550.54 1135.38 566.88
00002384 00000108 791.71 114.02 402.60 581.74 1001.92 363.28 1160.81 382.90 1133.25 444.83 1004.36 549.19 1138.88 565.19
00002385 00000109 793.57 112.51 400.81 581.90 1003.16 361.91 1162.70 382.24 1133.66 443.79 1005.12 549.12 1139.57 565.65
00002386 00000110 793.77 114.13 401.03 575.57 1003.28 360.68 1164.13 382.95 1134.42 440.62 1005.39 545.08 1141.14 563.17
00002387 00000111 793.51 113.65 400.93 570.64 1002.58 361.25 1164.53 382.79 1135.16 436.70 1007.90 543.05 1142.95 560.55
00002388 00000112 793.63 109.53 400.44 576.22 1001.18 360.86 1162.21 379.85 1133.89 433.11 1008.83 542.31 1145.21 557.46
00002389 00000113 792.59 108.91 400.80 578.93 1001.45 360.81 1161.36 379.62 1134.58 432.95 1012.46 544.08 1147.39 558.70
00002390 00000114 791.04 110.67 401.58 575.15 1004.06 364.05 1161.08 380.57 1137.30 437.13 1015.58 546.14 1146.62 559.23
00002391 00000115 790.53 111.30 401.29 574.77 1004.90 365.74 1160.50 379.71 1138.40 438.80 1017.83 548.73 1145.83 559.71
00002392 00000116 787.88 110.29 398.29 576.67 1001.35 370.64 1154.73 381.59 1133.78 443.35 1019.28 554.61 1141.13 563.23
00002393 00000117 784.82 102.84 399.40 584.45 999.28 367.00 1150.64 375.88 1132.99 439.52 1019.46 551.37 1141.82 557.77
00002394 00000118 783.82 106.16 398.21 580.71 992.45 363.01 1148.44 375.59 1128.37 428.96 1008.49 539.93 1141.74 549.18
00002395 00000119 783.20 105.93 397.92 583.09 991.62 357.33 1150.44 373.61 1127.06 430.47 1001.83 539.40 1138.00 551.97
00002396 00000120 781.10 105.67 400.72 593.00 997.05 356.29 1152.15 373.05 1133.70 433.01 999.33 542.31 1137.32 555.70
00002397 00000121 779.10 107.27 401.97 592.91 995.96 356.90 1153.79 373.52 1133.61 437.67 994.33 541.69 1136.04 555.17
00002398 00000122 776.48 112.07 401.46 582.86 996.38 358.53 1150.51 376.06 1132.15 438.75 990.93 537.62 1129.79 552.29
00002399 00000123 772.95 112.61 404.60 580.83 997.16 359.42 1150.05 376.80 1132.89 440.22 988.61 534.17 1128.89 548.47
00002400 00000124 772.19 110.66 404.18 579.80 1000.01 359.32 1149.74 377.68 1133.85 438.64 989.84 533.43 1124.56 548.41
00002401 00000125 772.60 106.67 404.97 584.69 1000.26 360.40 1151.56 377.73 1135.22 438.83 992.44 537.17 1127.00 551.21
00002402 00000126 773.60 107.87 402.31 584.12 998.51 357.44 1150.43 376.22 1133.50 438.42 992.50 537.51 1126.06 552.88
00002403 00000127 771.50 106.08 402.90 588.06 995.23 359.21 1148.12 375.48 1132.62 439.99 993.20 540.82 1126.60 553.86
00002404 00000128 769.31 108.85 405.37 590.75 991.51 360.72 1145.14 377.55 1129.89 437.14 994.02 542.77 1128.90 555.63
00002405 00000129 769.36 110.00 403.47 588.32 987.81 362.24 1143.27 377.37 1128.99 433.63 993.83 542.11 1129.96 553.42
00002406 00000130 769.15 112.40 403.12 580.89 984.64 363.59 1138.88 378.03 1126.43 428.56 996.69 537.35 1132.00 547.97
00002407 00000131 770.57 114.22 402.60 578.30 984.95 364.97 1141.85 380.65 1127.99 428.97 996.26 537.74 1132.17 549.62
00002408 00000132 773.22 110.72 399.48 576.01 986.75 364.06 1146.08 382.05 1127.70 433.92 995.64 539.27 1130.28 553.33
00002409 00000133 774.24 107.34 401.20 584.75 993.70 360.60 1147.77 375.84 1130.62 436.95 1001.65 544.27 1129.55 555.87
00002410 00000134 773.02 106.77 401.28 590.54 996.71 358.73 1148.19 376.22 1132.76 438.84 997.92 544.79 1126.58 558.48
00002411 00000135 772.94 106.08 401.37 592.59 997.50 355.81 1148.66 376.56 1132.57 438.16 995.24 543.81 1126.34 560.44
00002412 00000136 776.25 105.01 400.51 602.40 998.14 351.77 1148.91 375.16 1131.68 434.60 994.86 542.21 1130.78 560.66
00002413 00000137 777.22 100.50 402.15 599.66 997.83 353.75 1151.68 373.37 1133.55 431.64 1000.98 540.54 1137.32 555.43
00002414 00000138 777.23 96.69 401.86 587.28 994.07 354.74 1149.96 368.35 1132.98 422.87 1011.04 536.49 1141.95 546.29
00002415 00000139 778.01 96.70 397.79 582.96 991.91 352.78 1146.59 368.92 1130.02 416.34 1010.52 532.48 1139.05 544.38
00002416 00000140 774.43 96.60 398.85 584.22 988.85 355.34 1141.38 369.30 1127.44 417.76 1009.85 533.56 1136.61 543.68
00002417 00000141 771.16 97.62 398.63 579.56 981.45 354.87 1136.53 367.68 1119.27 420.88 1002.58 533.81 1128.83 543.06
00002418 00000142 770.11 95.76 397.22 581.94 980.51 353.20 1134.42 366.70 1116.97 420.88 1000.55 533.77 1125.33 543.68
00002419 00000143 769.25 93.32 398.92 587.44 984.03 351.78 1134.53 365.71 1119.36 424.80 1001.65 535.68 1124.31 546.04
00002420 00000144 770.03 97.83 398.02 588.90 984.54 353.34 1135.20 368.53 1119.30 427.56 995.98 537.22 1121.52 548.84
00002421 00000145 765.67 100.49 400.27 591.48 983.52 355.33 1133.77 370.92 1119.61 433.33 992.11 539.07 1120.22 550.67
00002422 00000146 764.00 99.74 402.55 605.09 981.60 356.29 1132.90 369.03 1117.92 438.44 989.05 544.64 1122.44 553.85
00002423 00000147 766.27 101.06 400.47 606.20 982.14 356.85 1131.16 368.24 1117.01 437.89 989.64 545.73 1121.99 554.00
00002424 00000148 767.90 102.73 400.20 587.03 986.71 359.24 1135.12 371.58 1122.04 433.70 997.56 539.95 1122.94 549.15
00002425 00000149 769.33 104.01 397.77 577.68 986.74 360.60 1132.23 371.17 1121.01 429.20 1002.97 537.23 1122.13 545.10
00002426 00000150 770.57 108.24 396.08 571.36 984.64 363.87 1132.69 373.30 1119.17 432.50 1004.21 540.51 1122.32 547.33
00002427 00000151 771.77 111.84 399.55 572.83 980.62 359.26 1134.62 372.93 1117.76 439.96 1000.91 543.64 1127.18 554.61
00002428 00000152 774.10 113.66 396.63 572.71 983.75 357.99 1137.64 373.68 1120.94 441.66 1001.66 545.31 1126.19 558.35
00002429 00000153 775.18 112.25 401.75 577.57 991.60 364.52 1142.19 378.64 1125.58 438.48 1005.06 544.63 1129.24 555.36
00002430 00000154 776.71 115.50 400.61 571.54 991.73 369.89 1144.58 381.95 1126.04 441.28 1008.15 547.54 1131.66 556.47
00002431 00000155 776.92 117.52 400.30 571.37 987.91 371.66 1146.10 386.33 1123.41 442.40 1007.04 550.97 1132.27 562.31
00002432 00000156 777.14 116.64 397.83 575.52 990.10 369.04 1143.75 384.11 1126.14 447.10 1009.06 553.83 1130.74 566.08
00002433 00000157 774.88 117.53 401.46 572.34 990.57 368.07 1145.59 386.98 1126.79 450.71 1003.02 550.43 1129.91 565.85
00002434 00000158 775.22 118.65 398.23 567.16 986.83 366.78 1144.13 385.59 1123.45 448.71 1000.53 546.91 1129.16 562.61
00002435 00000159 774.13 121.64 398.46 566.82 984.82 368.35 1142.54 385.06 1122.25 449.86 1000.38 550.48 1128.43 564.46
00002436 00000160 770.56 121.28 400.45 574.52 984.63 372.12 1137.21 383.16 1120.79 451.61 1003.00 555.89 1127.12 565.10
00002437 00000161 764.75 126.73 399.05 576.94 979.38 374.47 1130.79 388.43 1112.40 456.53 993.86 558.17 1116.94 569.89
00002438 00000162 759.19 127.54 400.18 586.39 976.08 373.96 1124.29 391.01 1108.88 458.29 987.76 560.97 1108.81 575.19
00002439 00000163 757.87 127.95 399.09 588.98 975.49 375.24 1120.22 394.38 1106.39 456.66 987.13 561.53 1105.03 577.12
00002440 00000164 753.59 131.58 395.27 577.69 970.86 373.85 1113.07 389.37 1101.57 455.82 982.24 556.50 1097.39 569.76
00002441 00000165 752.86 125.25 399.67 580.69 970.31 370.94 1114.01 384.50 1101.40 453.37 982.81 553.92 1099.47 565.61
