Video ID: 	A1MZE7ZxaPQ
H: 	1080
W: 	1920
FPS: 	29.97002997002997

FRAME INDEX X0 Y0 W H [Landmarks (5 Points)]

00002037 00000000 693.89 110.41 622.90 856.99 993.56 469.44 1228.54 448.96 1240.24 562.68 1075.93 763.65 1272.09 744.30
00002038 00000001 690.14 108.02 623.39 855.17 990.38 468.10 1224.32 443.10 1237.49 562.47 1073.24 761.20 1268.74 738.49
00002039 00000002 690.28 107.12 620.07 854.31 987.57 465.82 1222.10 442.50 1233.97 559.78 1071.41 759.34 1266.39 737.61
00002040 00000003 688.07 104.44 623.61 857.75 987.08 462.53 1224.71 440.32 1235.03 557.51 1068.37 758.46 1266.26 737.63
00002041 00000004 682.48 98.80 627.74 863.19 983.14 462.51 1221.41 441.40 1230.91 555.94 1062.10 756.92 1261.30 736.98
00002042 00000005 683.49 100.63 626.82 861.11 982.31 462.46 1221.57 440.20 1228.28 556.43 1062.46 758.06 1260.67 737.19
00002043 00000006 680.14 97.04 632.62 862.84 977.72 463.83 1221.13 444.17 1223.70 554.24 1057.18 756.01 1258.62 736.75
00002044 DELETE   679.37 93.94 631.75 866.54 975.03 459.67 1219.45 439.23 1221.93 550.34 1055.40 755.37 1258.07 735.51
00002045 DELETE   677.35 93.20 628.27 867.04 974.62 457.15 1216.91 435.99 1220.65 550.28 1054.30 753.76 1255.97 733.11
00002046 00000009 671.39 91.54 637.04 868.13 966.46 459.73 1214.45 436.47 1214.11 548.47 1047.12 752.79 1254.76 730.15
00002047 DELETE   668.12 92.56 642.01 864.55 963.49 460.65 1213.51 439.87 1210.98 548.46 1044.29 752.56 1252.10 731.50
00002048 00000011 663.61 85.19 645.21 874.10 959.90 456.76 1211.50 434.96 1207.58 544.24 1039.12 749.67 1250.38 727.65
00002049 00000012 662.02 83.05 647.38 875.01 956.20 457.11 1208.87 432.25 1204.73 541.61 1037.27 749.43 1248.99 724.81
00002050 DELETE   659.22 80.88 648.03 884.55 956.00 455.27 1206.88 427.91 1205.78 543.80 1034.50 751.35 1246.13 724.92
00002051 00000014 652.84 81.41 648.87 877.55 948.38 454.14 1202.83 427.11 1200.01 542.07 1031.73 749.51 1244.81 722.94
00002052 00000015 652.10 83.10 649.17 877.39 946.97 454.45 1201.37 431.37 1195.70 538.84 1031.37 747.80 1244.15 723.96
00002053 00000016 650.05 84.16 643.56 876.38 944.73 454.79 1196.66 428.39 1194.69 541.42 1028.55 749.58 1240.02 723.41
00002054 00000017 647.79 83.11 643.15 877.71 943.09 453.33 1195.46 428.51 1193.80 540.06 1027.20 748.47 1239.59 723.37
00002055 00000018 646.31 84.03 641.82 876.27 942.98 455.52 1192.27 429.50 1192.60 542.36 1026.95 749.13 1236.45 723.22
00002056 00000019 643.42 84.21 640.70 874.12 938.94 455.47 1190.16 428.81 1189.10 543.46 1024.78 749.50 1234.92 722.67
00002057 00000020 642.91 84.08 638.69 874.47 937.73 454.45 1189.15 427.15 1187.95 544.29 1023.88 749.49 1234.36 722.19
00002058 00000021 641.59 86.17 636.14 876.20 936.91 454.88 1187.74 430.28 1186.96 544.37 1021.88 750.29 1233.18 724.96
00002059 00000022 641.84 84.55 638.57 877.93 935.32 454.39 1189.74 430.52 1184.17 543.47 1019.19 750.54 1232.28 725.74
00002060 00000023 640.44 85.38 641.21 878.11 935.21 454.92 1190.53 430.69 1184.50 545.07 1018.17 751.76 1231.62 726.91
00002061 00000024 640.11 88.34 637.13 876.00 932.54 456.47 1187.39 433.31 1182.45 544.22 1016.39 752.47 1229.47 728.27
00002062 00000025 640.48 88.72 637.62 877.25 932.57 456.99 1186.14 433.13 1181.49 545.42 1016.20 753.06 1228.24 728.35
00002063 00000026 639.34 90.47 639.07 879.12 930.29 458.76 1185.70 436.36 1180.12 547.98 1013.94 756.24 1227.96 732.44
00002064 00000027 638.51 93.65 639.97 876.27 928.66 459.40 1187.02 439.98 1178.17 549.63 1010.44 756.91 1226.84 735.46
00002065 00000028 636.86 94.24 638.57 877.18 927.31 461.10 1187.33 443.06 1177.64 550.82 1009.92 759.68 1225.90 739.06
00002066 00000029 635.74 94.85 643.28 875.01 923.81 463.60 1186.50 445.12 1172.99 553.43 1006.16 761.38 1224.07 740.44
00002067 00000030 636.24 92.34 645.82 878.20 923.58 465.04 1187.24 448.25 1171.36 552.77 1005.75 762.18 1223.38 742.45
00002068 00000031 633.17 98.70 654.03 874.42 920.50 469.06 1187.54 450.14 1169.90 555.97 1004.77 766.03 1224.73 744.50
00002069 00000032 632.72 98.87 657.43 876.88 919.11 470.64 1187.55 451.20 1167.48 557.96 1003.27 768.26 1223.94 746.17
00002070 00000033 632.90 99.92 648.31 874.79 917.65 471.62 1183.57 449.82 1166.61 559.92 1003.70 768.07 1223.36 744.48
00002071 00000034 630.29 101.39 657.38 874.62 914.48 471.48 1186.01 452.39 1162.42 560.37 998.90 770.32 1220.80 748.57
00002072 00000035 630.33 102.03 659.61 875.03 914.73 471.56 1186.71 451.19 1162.49 561.30 999.09 770.48 1221.55 747.64
00002073 00000036 625.98 104.80 652.40 870.60 909.90 472.39 1181.27 451.18 1159.67 562.55 996.74 770.52 1219.19 746.86
00002074 00000037 625.17 106.79 652.43 870.26 909.57 473.76 1181.13 453.33 1158.33 563.91 994.57 770.42 1218.46 747.30
00002075 00000038 625.74 107.03 649.76 870.78 910.31 473.10 1181.64 451.66 1158.72 566.69 993.84 771.83 1217.54 748.28
00002076 00000039 623.68 111.04 651.87 864.18 906.44 474.56 1177.90 452.90 1153.88 566.21 991.78 771.20 1214.76 747.18
00002077 00000040 622.13 109.96 652.34 865.09 905.96 475.28 1177.37 453.35 1153.99 566.38 992.16 771.35 1215.15 747.02
00002078 00000041 621.28 110.42 649.47 866.72 904.23 476.85 1174.05 454.17 1150.94 571.41 988.04 773.04 1210.65 748.41
00002079 00000042 618.90 118.91 652.00 849.50 902.28 479.79 1171.39 458.63 1150.86 572.83 987.29 772.03 1205.27 752.12
00002080 00000043 620.57 115.09 648.48 865.54 900.44 480.45 1170.87 455.59 1146.41 577.55 985.13 777.16 1208.99 750.55
00002081 00000044 616.75 127.31 651.36 844.34 898.79 482.77 1167.09 460.38 1145.48 577.40 982.12 774.73 1200.90 753.82
00002082 00000045 617.94 127.09 651.53 843.56 899.17 482.94 1167.21 462.53 1144.17 578.66 981.63 775.57 1198.92 756.28
00002083 00000046 616.63 130.38 652.82 842.86 896.37 485.08 1165.81 467.04 1141.15 578.25 978.39 778.41 1196.60 760.84
00002084 00000047 615.86 133.64 652.42 841.55 894.07 487.29 1164.68 469.14 1138.54 579.56 976.48 780.04 1195.58 762.34
00002085 00000048 615.74 134.17 650.67 842.28 893.33 486.92 1163.33 470.61 1135.74 580.23 973.95 780.97 1191.50 764.80
00002086 00000049 614.08 134.28 650.10 841.67 891.03 488.31 1161.75 470.39 1132.92 583.53 970.42 781.43 1188.50 763.81
00002087 00000050 613.61 135.05 650.27 841.35 890.93 488.41 1160.96 473.33 1132.25 581.87 969.78 780.66 1187.69 765.28
00002088 00000051 612.42 135.66 646.74 844.95 889.05 490.05 1157.55 474.94 1127.96 585.74 965.69 783.21 1182.63 767.57
00002089 00000052 611.14 134.82 644.76 847.23 885.07 491.60 1154.12 476.72 1123.28 585.68 961.87 784.60 1179.17 768.82
00002090 00000053 609.32 135.32 643.67 851.47 886.04 491.57 1152.33 476.21 1124.30 586.51 961.58 785.43 1177.84 769.26
00002091 00000054 609.71 135.11 642.24 848.52 883.63 492.57 1151.80 478.06 1120.71 588.30 957.77 786.98 1173.74 771.50
00002092 00000055 608.23 136.47 643.73 848.18 882.79 493.54 1151.14 479.96 1120.21 588.04 957.29 787.17 1173.87 772.23
00002093 00000056 603.26 134.78 644.37 854.03 878.97 491.55 1148.30 477.20 1116.36 593.09 949.55 788.75 1169.87 772.93
00002094 00000057 598.56 133.82 646.85 859.96 877.19 491.42 1146.66 476.77 1115.00 594.42 945.46 788.97 1168.17 772.70
00002095 00000058 597.03 135.55 643.13 860.09 875.91 491.81 1144.34 472.53 1115.98 596.99 944.80 790.88 1168.16 770.99
00002096 00000059 594.04 135.10 645.61 858.69 870.23 490.82 1145.07 472.99 1110.92 596.76 940.06 791.47 1167.74 772.31
00002097 00000060 592.56 134.28 645.38 859.19 869.44 492.64 1142.29 473.36 1109.09 599.94 939.59 792.81 1165.34 772.47
00002098 00000061 592.16 133.65 645.03 856.52 866.64 490.86 1142.51 476.41 1104.85 599.43 933.88 791.58 1161.12 774.77
00002099 00000062 591.08 133.80 644.38 856.72 864.21 489.98 1141.46 476.00 1101.93 599.63 929.36 790.33 1159.35 773.89
00002100 00000063 591.95 130.71 642.44 855.80 861.08 488.80 1140.84 474.11 1097.66 600.91 928.25 790.28 1157.48 773.00
00002101 00000064 588.21 130.16 640.24 858.05 858.67 486.13 1136.35 471.66 1095.09 600.08 923.62 789.69 1151.57 772.72
00002102 00000065 586.80 131.48 640.82 857.94 856.83 488.69 1133.54 472.11 1094.25 598.78 922.42 790.81 1150.85 772.06
00002103 00000066 581.68 132.63 644.41 867.87 852.28 489.93 1129.05 473.73 1088.79 600.10 918.83 794.66 1147.75 775.82
00002104 00000067 579.03 132.15 640.69 872.42 850.41 488.28 1126.76 472.06 1087.60 600.04 915.42 794.65 1145.71 775.90
00002105 00000068 572.88 128.70 652.23 853.03 844.03 494.90 1130.30 476.82 1085.83 610.50 912.06 799.43 1143.72 779.89
00002106 00000069 569.94 132.16 654.62 844.93 840.67 494.68 1129.28 476.89 1083.80 610.37 909.14 799.89 1140.94 780.77
00002107 00000070 569.34 131.43 657.61 853.37 840.07 494.71 1129.61 476.44 1084.14 610.47 909.83 800.90 1143.23 781.01
00002108 00000071 564.34 127.14 660.66 859.51 839.20 494.14 1128.37 473.33 1086.04 609.91 909.86 801.80 1141.15 780.12
00002109 00000072 567.57 131.06 644.46 870.60 840.21 486.14 1117.93 470.36 1078.98 599.77 907.16 791.63 1138.64 773.33
00002110 DELETE   561.21 125.57 656.01 862.29 838.45 494.61 1121.53 472.29 1084.72 611.28 908.74 800.77 1136.98 778.25
00002111 00000074 561.64 127.04 643.91 878.12 836.58 483.91 1111.04 464.49 1074.62 605.01 903.60 794.02 1130.98 773.23
00002112 00000075 561.40 129.52 643.83 874.58 832.80 486.50 1109.11 471.17 1071.41 599.70 901.67 793.42 1131.77 775.25
00002113 00000076 560.02 133.07 644.91 869.82 828.53 485.96 1105.51 472.76 1063.82 601.69 896.42 793.55 1127.07 776.91
00002114 00000077 559.86 125.09 645.20 875.18 826.76 483.33 1104.99 469.52 1059.94 601.32 893.63 792.44 1123.79 775.27
00002115 00000078 556.92 143.74 653.99 838.48 826.57 488.02 1105.18 469.71 1062.00 601.85 893.50 789.08 1116.57 772.38
00002116 00000079 555.41 143.48 653.09 843.56 826.74 489.34 1102.47 472.59 1062.11 600.46 891.68 788.91 1114.43 773.46
00002117 00000080 555.34 137.79 650.53 851.37 826.02 489.18 1100.82 472.02 1060.07 600.33 891.01 790.06 1112.79 774.00
00002118 00000081 558.93 136.37 641.90 845.49 822.61 490.44 1096.98 476.94 1051.19 600.00 887.76 788.95 1106.52 776.04
00002119 00000082 558.32 140.66 641.51 842.95 819.23 488.31 1096.13 479.77 1047.54 598.11 881.61 787.24 1104.43 778.24
00002120 00000083 557.75 136.36 643.08 850.71 818.57 489.82 1095.14 478.85 1045.75 599.67 881.24 790.07 1103.02 778.99
00002121 00000084 556.31 128.53 645.70 853.84 817.30 491.86 1095.41 482.49 1044.53 598.63 879.99 789.25 1100.87 779.38
00002122 00000085 558.05 130.65 644.91 850.00 814.60 492.56 1092.36 483.18 1040.36 598.98 877.76 789.32 1098.15 779.62
00002123 00000086 553.95 124.62 648.41 855.53 811.34 493.70 1090.84 483.45 1037.49 598.04 874.50 791.18 1097.22 781.15
00002124 00000087 554.30 130.07 646.46 851.92 812.53 495.67 1090.20 485.67 1037.98 599.48 875.21 791.00 1098.24 780.98
00002125 00000088 555.50 132.29 649.50 855.62 814.58 494.43 1091.89 487.68 1038.57 599.49 877.29 791.62 1099.31 784.01
00002126 00000089 555.82 141.66 645.05 844.44 811.80 493.36 1091.96 489.27 1036.67 604.33 873.37 792.26 1098.20 786.67
00002127 00000090 556.70 140.69 642.51 843.77 811.73 495.03 1090.16 487.35 1037.89 599.16 875.76 792.24 1099.28 784.10
00002128 00000091 559.85 150.62 636.44 834.14 812.81 497.16 1089.24 488.69 1038.05 600.49 876.94 792.20 1098.37 783.30
00002129 00000092 559.11 131.93 635.63 854.52 807.34 494.18 1087.54 484.30 1033.84 602.74 870.90 795.33 1095.72 785.20
00002130 00000093 551.57 133.97 638.40 864.38 811.88 490.98 1092.78 490.68 1037.90 605.04 872.08 796.14 1100.80 790.98
00002131 00000094 553.06 133.44 638.14 865.52 812.15 491.30 1097.54 493.30 1039.66 602.44 873.82 797.54 1103.35 793.76
00002132 00000095 564.21 135.67 631.94 842.70 809.12 492.47 1093.08 486.88 1035.18 597.61 876.11 794.00 1098.17 787.64
00002133 00000096 557.16 132.05 647.33 857.55 808.32 485.36 1098.99 488.83 1040.39 587.43 876.53 792.79 1105.44 792.89
00002134 00000097 562.31 129.62 646.55 857.60 815.89 484.32 1103.76 490.19 1046.20 586.86 881.71 792.96 1106.13 795.93
00002135 DELETE   566.29 133.55 639.29 868.84 828.47 485.38 1110.98 491.84 1051.88 605.88 883.18 796.47 1112.99 797.09
00002136 00000099 578.29 145.55 628.50 850.75 825.02 492.02 1112.89 498.55 1048.93 599.94 884.85 798.82 1114.02 798.53
00002137 00000100 576.47 137.14 632.20 857.82 824.40 492.87 1112.56 501.68 1046.95 600.23 883.50 798.62 1114.00 800.40
00002138 00000101 577.99 152.88 638.57 831.85 825.11 488.16 1117.01 485.31 1054.41 598.50 893.66 795.51 1120.83 792.57
00002139 00000102 579.95 146.71 626.02 850.15 824.40 491.03 1112.91 498.23 1051.00 595.75 888.83 798.56 1120.09 798.84
00002140 00000103 577.70 172.71 628.13 830.90 835.25 492.90 1117.54 499.45 1061.72 607.86 897.13 795.94 1129.29 795.99
00002141 00000104 579.88 154.56 626.23 846.04 840.73 493.46 1119.49 498.50 1065.06 607.58 900.66 795.41 1128.29 794.06
00002142 DELETE   591.49 134.36 614.08 862.83 837.36 492.28 1117.80 495.84 1061.04 597.55 898.14 797.81 1126.79 795.50
00002143 00000106 590.88 148.60 618.13 849.61 846.58 493.25 1121.38 498.87 1072.14 599.53 902.47 796.96 1128.13 796.57
00002144 DELETE   595.48 150.98 617.27 847.34 848.43 491.97 1124.78 499.83 1072.46 598.17 903.39 796.28 1129.28 797.59
00002145 DELETE   596.62 177.06 614.84 821.60 845.42 498.20 1123.63 500.10 1071.45 601.99 906.39 797.91 1132.96 794.34
00002146 00000109 597.35 171.34 618.98 824.59 849.24 496.25 1128.15 500.34 1076.83 596.84 908.46 796.50 1138.09 795.11
00002147 00000110 599.65 169.61 619.96 820.52 850.29 496.14 1132.78 502.45 1077.61 597.11 907.82 796.04 1137.63 796.35
00002148 DELETE   602.24 170.12 620.14 820.45 851.92 492.98 1135.51 503.51 1080.50 595.08 907.33 794.64 1139.80 798.46
00002149 00000112 604.64 164.06 620.61 826.97 854.67 492.76 1135.31 502.81 1080.97 594.14 910.18 794.21 1139.60 797.68
00002150 DELETE   602.72 169.46 622.06 826.77 859.03 492.40 1136.45 503.64 1085.91 596.00 912.39 792.08 1142.35 796.56
00002151 00000114 605.82 162.18 621.16 829.77 858.96 494.47 1136.73 505.11 1083.88 596.45 913.24 793.27 1141.04 797.46
00002152 DELETE   604.54 159.67 624.33 836.13 860.74 489.90 1138.82 504.67 1085.15 597.84 911.99 791.18 1140.66 798.59
00002153 00000116 609.10 156.30 627.91 839.32 863.82 493.38 1140.84 503.82 1084.06 598.46 914.10 790.43 1142.71 794.76
00002154 00000117 613.08 143.01 627.85 854.61 868.35 492.39 1145.07 502.52 1089.37 595.70 920.27 789.62 1148.49 793.74
00002155 DELETE   610.46 170.26 632.07 826.60 870.37 491.47 1142.10 491.81 1093.84 609.25 919.17 792.84 1147.58 790.13
00002156 DELETE   622.44 167.92 628.92 827.05 880.40 477.08 1153.22 495.61 1101.68 594.69 933.40 782.55 1153.00 793.34
00002157 00000120 627.46 146.34 626.71 846.56 880.68 481.44 1158.40 494.15 1104.71 594.12 933.17 785.34 1160.55 792.34
00002158 00000121 633.97 136.45 626.08 849.11 889.35 483.77 1162.08 495.14 1113.03 590.18 940.57 780.82 1164.93 787.97
00002159 00000122 635.66 130.95 625.37 860.67 890.97 482.99 1163.12 495.20 1116.14 590.86 940.16 781.04 1166.95 788.96
00002160 DELETE   636.90 144.57 624.25 850.31 895.45 477.99 1166.33 481.52 1118.65 594.16 945.69 784.85 1167.23 786.66
00002161 DELETE   640.34 144.87 623.80 841.26 897.09 482.49 1171.84 488.62 1120.87 595.12 947.62 780.78 1172.12 785.18
00002162 00000125 642.32 132.53 625.94 848.57 898.08 477.75 1175.46 490.40 1122.68 588.89 947.47 776.82 1173.36 786.33
00002163 00000126 643.98 132.73 619.38 853.65 899.68 474.41 1177.75 493.99 1115.62 593.52 945.70 776.04 1174.49 785.95
00002164 DELETE   650.12 129.21 615.78 856.73 903.45 474.79 1179.43 494.38 1118.63 592.67 948.19 773.97 1178.40 783.75
00002165 DELETE   652.86 149.02 620.08 838.36 901.06 471.75 1180.39 484.40 1117.04 591.54 951.90 776.06 1182.43 780.77
00002166 00000129 656.29 138.31 619.60 846.42 908.98 468.76 1183.63 489.21 1124.30 591.04 955.69 773.70 1183.19 784.53
00002167 00000130 657.06 135.35 619.60 848.08 909.01 469.95 1183.83 491.29 1123.94 589.22 955.97 772.58 1184.29 783.91
00002168 DELETE   650.73 140.64 630.18 842.55 917.00 475.51 1190.29 486.27 1137.36 601.74 964.17 778.91 1189.57 783.29
00002169 00000132 659.92 142.50 620.17 843.18 911.93 467.59 1187.72 486.40 1130.12 592.94 961.74 774.98 1189.81 784.05
00002170 DELETE   654.17 148.86 626.47 833.71 919.56 472.01 1194.81 479.89 1141.04 602.77 968.00 779.57 1192.99 781.84
00002171 DELETE   663.83 150.61 616.59 836.46 922.65 461.93 1192.91 478.47 1140.22 594.50 968.44 771.47 1192.23 779.46
00002172 00000135 666.62 137.37 620.48 847.78 924.65 467.40 1197.83 486.23 1141.16 592.92 969.85 772.10 1196.61 782.03
00002173 00000136 663.44 138.16 623.99 842.53 935.78 477.87 1200.49 486.37 1158.65 599.21 979.52 777.06 1198.80 780.58
00002174 00000137 665.07 139.04 624.29 843.53 937.77 475.35 1202.22 482.58 1162.06 599.25 982.97 777.63 1201.72 780.06
00002175 00000138 666.65 140.67 627.03 840.04 938.69 478.04 1204.07 479.93 1163.71 598.94 985.02 778.00 1205.23 776.22
00002176 00000139 678.36 139.36 614.36 835.83 938.16 469.27 1205.94 485.11 1155.40 590.26 982.37 765.38 1203.82 773.55
00002177 00000140 666.23 139.94 630.07 836.23 939.63 477.59 1207.65 483.89 1164.12 598.63 985.23 772.55 1207.48 774.00
00002178 00000141 683.16 136.98 614.67 831.42 938.83 469.06 1210.60 487.00 1156.78 586.71 984.51 762.58 1207.71 772.57
00002179 00000142 688.48 135.40 615.15 832.01 942.68 467.81 1214.41 490.22 1157.83 584.28 984.33 760.45 1207.25 774.31
00002180 DELETE   688.74 139.92 613.54 826.74 941.32 468.99 1211.35 480.80 1156.86 585.62 988.32 762.18 1209.90 767.57
00002181 DELETE   692.81 135.83 617.29 830.95 950.09 468.50 1218.90 488.00 1162.97 586.58 990.37 759.23 1211.68 770.97
CROP_BBOX: 287 0 1581 1080
