Video ID: 	kHVZVTbLM38
H: 	1080
W: 	1920
FPS: 	25.0

FRAME INDEX X0 Y0 W H [Landmarks (5 Points)]

00007332 00000000 1148.90 121.78 363.19 526.49 1289.93 318.60 1442.81 350.12 1369.73 455.77 1269.69 522.85 1375.25 550.49
00007333 00000001 1152.26 129.77 362.58 519.71 1295.28 327.01 1449.25 356.09 1376.45 463.70 1284.85 530.53 1386.64 555.95
00007334 00000002 1148.80 135.15 366.73 522.25 1293.91 334.12 1451.38 357.88 1381.20 471.71 1289.60 539.72 1391.39 560.57
00007335 DELETE   1140.69 141.12 374.58 525.33 1288.17 343.71 1448.47 368.58 1375.16 475.23 1278.63 542.00 1388.16 564.24
00007336 00000004 1138.13 143.48 366.10 521.67 1279.61 347.25 1436.71 371.22 1366.55 475.69 1276.27 545.64 1380.75 566.98
00007337 00000005 1129.23 144.85 366.61 528.78 1266.56 348.96 1424.96 375.24 1355.56 481.42 1261.31 547.34 1370.96 570.95
00007338 00000006 1123.09 143.08 365.57 539.23 1258.26 348.38 1417.84 376.12 1348.21 486.44 1250.03 549.82 1363.90 575.06
00007339 00000007 1120.58 146.02 362.13 540.92 1254.30 348.48 1414.26 376.69 1346.39 487.94 1244.83 554.28 1359.50 579.93
00007340 00000008 1119.68 149.10 361.61 538.76 1254.95 349.00 1413.71 376.82 1346.82 490.07 1244.97 553.57 1360.47 578.99
00007341 00000009 1119.22 157.13 365.30 534.11 1252.11 351.71 1413.65 371.95 1345.41 493.69 1254.94 563.01 1371.52 580.56
00007342 00000010 1118.17 158.31 362.23 531.18 1248.24 351.51 1410.18 369.68 1342.74 493.83 1254.12 563.47 1369.76 579.09
00007343 00000011 1118.58 148.55 358.52 534.08 1233.60 352.35 1408.44 370.22 1335.19 491.34 1237.99 566.03 1360.54 581.93
00007344 00000012 1114.77 146.33 359.36 535.04 1227.96 351.22 1402.01 370.03 1327.22 491.11 1232.57 565.07 1352.57 581.69
00007345 00000013 1115.13 149.32 355.06 528.94 1225.23 352.98 1397.85 370.94 1322.83 491.93 1230.42 565.04 1350.59 581.09
00007346 00000014 1111.43 151.83 356.82 527.24 1222.65 352.46 1394.23 371.30 1318.25 493.84 1226.01 563.89 1346.51 580.86
00007347 00000015 1108.78 152.34 357.91 527.06 1219.39 351.33 1390.35 369.36 1313.39 495.84 1221.35 562.60 1343.19 579.18
00007348 00000016 1106.12 149.72 357.77 528.65 1214.72 350.94 1386.00 366.71 1308.37 493.83 1217.68 561.81 1339.97 576.37
00007349 00000017 1101.05 146.98 357.05 527.58 1208.75 350.14 1378.59 361.48 1301.84 491.52 1212.37 558.33 1332.53 569.18
00007350 00000018 1092.35 146.76 351.70 521.44 1205.42 342.92 1370.32 361.79 1297.70 485.08 1212.78 550.38 1325.14 568.47
00007351 00000019 1085.30 142.94 349.77 524.83 1195.75 340.01 1358.76 360.26 1286.29 481.71 1199.15 544.82 1314.98 564.28
00007352 00000020 1078.89 143.73 347.28 523.91 1189.67 340.61 1351.48 358.31 1281.12 482.50 1194.11 545.98 1309.58 563.39
00007353 00000021 1070.30 147.41 352.77 527.05 1184.64 342.77 1344.11 359.96 1275.17 484.42 1188.81 548.05 1304.63 564.83
00007354 00000022 1065.89 146.43 354.59 526.78 1179.39 341.77 1342.36 358.52 1271.57 485.50 1183.51 549.99 1300.72 566.26
00007355 00000023 1064.41 149.02 354.25 523.85 1176.30 342.73 1339.98 359.14 1268.03 485.98 1180.88 550.20 1299.65 566.15
00007356 00000024 1062.72 146.69 353.47 521.81 1172.64 342.02 1339.19 358.40 1265.33 485.27 1177.83 548.69 1300.29 564.39
00007357 00000025 1064.16 146.34 346.81 517.35 1166.91 356.05 1333.33 362.92 1261.13 489.59 1175.50 548.74 1305.06 557.18
00007358 00000026 1058.82 142.79 341.92 515.77 1156.76 360.06 1323.70 362.23 1250.16 481.99 1167.99 548.02 1303.24 552.36
00007359 DELETE   1046.73 141.19 348.55 521.74 1138.49 357.44 1311.60 351.85 1234.78 482.45 1166.97 551.77 1301.46 547.76
00007360 DELETE   1029.66 140.16 349.71 521.04 1120.72 358.50 1291.62 349.17 1219.59 478.38 1155.13 548.87 1287.05 542.42
00007361 00000029 1020.07 139.02 345.94 520.95 1107.39 358.42 1275.73 349.66 1206.13 479.78 1151.34 550.23 1280.01 543.75
00007362 00000030 1010.17 143.60 349.68 518.92 1099.46 361.61 1271.44 348.77 1203.35 480.05 1149.19 555.55 1280.85 545.02
00007363 00000031 1004.13 142.41 352.52 519.99 1097.16 364.42 1269.45 349.66 1203.25 481.25 1151.80 558.65 1280.63 546.27
00007364 00000032 1006.85 142.22 350.65 526.09 1101.90 365.91 1272.56 350.09 1210.85 484.07 1157.22 561.96 1283.42 548.85
00007365 00000033 1014.92 145.04 343.50 534.16 1114.15 368.15 1277.56 353.41 1221.94 485.61 1164.08 563.77 1285.35 552.05
00007366 00000034 1030.34 149.75 339.70 530.58 1125.35 362.56 1287.96 348.88 1227.88 483.16 1164.60 568.37 1285.94 557.41
00007367 00000035 1027.31 146.82 344.00 525.50 1128.11 368.15 1293.51 353.29 1237.28 489.33 1176.21 567.69 1292.96 555.93
00007368 00000036 1038.26 144.94 343.73 529.03 1134.81 362.36 1303.52 349.73 1241.64 488.78 1171.88 571.18 1295.76 561.46
00007369 00000037 1041.73 140.14 343.98 536.83 1138.04 357.68 1307.27 348.61 1244.13 488.58 1175.96 571.81 1295.60 564.94
00007370 00000038 1037.50 147.12 344.41 524.49 1139.46 361.18 1305.82 349.44 1244.93 489.02 1181.12 565.44 1297.96 556.43
00007371 00000039 1035.95 143.77 343.59 517.49 1138.26 357.02 1303.65 347.10 1241.71 484.68 1178.46 558.35 1292.74 550.98
00007372 00000040 1036.21 141.51 345.77 518.23 1138.54 346.39 1305.68 337.83 1239.83 477.21 1172.49 550.34 1291.28 544.14
00007373 00000041 1041.61 136.24 345.72 521.52 1143.42 338.23 1306.27 331.67 1240.26 469.89 1172.05 542.03 1292.68 537.71
00007374 00000042 1042.00 128.12 348.43 518.66 1143.55 331.45 1307.68 325.55 1239.63 457.86 1171.66 534.45 1293.77 530.92
00007375 00000043 1043.56 120.57 349.25 520.67 1144.85 325.47 1308.66 321.38 1238.64 448.72 1170.82 527.22 1293.77 525.34
00007376 00000044 1045.40 119.47 348.23 518.32 1145.10 322.12 1309.05 318.48 1237.38 446.75 1170.81 524.43 1293.27 523.03
00007377 00000045 1047.32 121.19 347.59 518.64 1147.09 321.09 1311.34 318.79 1239.16 447.14 1171.66 525.23 1294.16 524.90
00007378 00000046 1050.09 122.28 348.11 518.53 1150.52 320.83 1314.86 319.97 1242.54 448.30 1175.01 526.25 1296.80 526.99
00007379 00000047 1051.06 124.77 347.69 520.60 1152.33 322.20 1316.17 320.95 1244.82 451.29 1177.39 528.50 1299.22 528.62
00007380 00000048 1050.62 122.22 348.56 522.28 1151.84 322.64 1315.38 321.62 1243.67 451.43 1176.46 528.49 1298.35 528.97
00007381 00000049 1050.39 121.88 348.76 522.34 1151.24 322.78 1315.35 321.61 1242.63 453.59 1175.27 529.41 1297.06 529.83
00007382 00000050 1051.90 123.80 349.01 521.10 1153.53 323.30 1318.27 322.73 1245.79 454.02 1177.89 529.11 1300.93 529.96
00007383 00000051 1055.51 124.85 348.87 522.63 1157.04 324.90 1323.80 324.46 1250.75 456.27 1182.04 532.57 1306.01 533.35
00007384 00000052 1060.72 127.16 348.97 524.87 1162.01 325.82 1329.53 327.24 1254.72 457.19 1183.60 532.48 1310.21 534.50
00007385 00000053 1064.48 128.24 351.13 528.54 1166.16 325.54 1333.15 327.45 1257.14 459.81 1187.16 533.58 1312.63 535.47
00007386 00000054 1064.93 124.71 350.55 533.00 1161.95 325.06 1328.28 326.95 1249.77 457.79 1183.76 533.35 1310.29 534.99
00007387 00000055 1064.32 116.15 350.71 539.75 1154.91 322.71 1319.79 324.65 1237.42 456.04 1175.90 531.78 1302.38 533.87
00007388 00000056 1063.33 115.92 347.56 539.71 1150.26 318.40 1312.44 322.29 1226.95 450.72 1166.21 524.24 1294.91 528.20
00007389 00000057 1060.93 117.76 346.24 541.74 1143.67 315.98 1307.78 321.68 1215.95 446.41 1157.09 523.23 1289.67 529.01
00007390 00000058 1059.41 121.20 346.30 540.36 1140.09 319.30 1301.83 323.85 1211.10 455.98 1156.53 528.89 1283.83 533.63
00007391 00000059 1056.92 120.87 348.36 538.91 1134.65 321.03 1299.95 324.88 1206.57 460.87 1154.53 535.41 1279.04 539.84
00007392 00000060 1055.45 118.35 345.36 536.97 1130.49 319.97 1293.74 324.02 1199.37 459.60 1150.40 532.88 1272.24 537.62
00007393 00000061 1053.47 113.84 339.44 537.61 1124.28 313.17 1287.22 319.08 1186.76 451.10 1138.24 526.29 1260.51 532.74
00007394 00000062 1050.31 104.56 336.71 542.32 1119.82 308.03 1281.51 316.38 1178.92 442.76 1129.94 524.16 1249.90 532.90
00007395 00000063 1048.40 100.84 338.11 547.95 1116.22 305.80 1279.16 313.75 1173.23 437.61 1124.62 520.92 1249.30 529.09
00007396 00000064 1046.36 101.83 340.44 547.93 1111.99 304.95 1274.17 312.19 1165.99 432.80 1121.22 519.85 1246.30 527.49
00007397 00000065 1045.05 99.98 340.88 545.60 1107.86 302.56 1270.05 308.32 1162.55 429.27 1119.58 515.43 1246.07 521.85
00007398 00000066 1043.32 100.75 340.60 538.55 1104.48 302.19 1262.78 308.50 1156.18 421.76 1116.79 505.43 1245.31 512.53
00007399 00000067 1042.32 101.55 340.93 536.67 1102.62 301.65 1261.18 306.99 1155.67 421.92 1115.73 501.24 1247.80 507.20
00007400 00000068 1041.29 104.33 341.00 535.79 1100.80 305.86 1260.63 309.02 1155.10 424.68 1112.59 501.31 1251.65 505.43
00007401 00000069 1039.23 108.18 342.03 532.49 1100.22 310.24 1261.25 313.68 1156.18 433.59 1115.34 508.18 1250.39 512.66
00007402 00000070 1040.78 114.76 341.63 531.68 1101.57 314.19 1261.70 318.04 1155.86 439.42 1115.93 510.24 1253.32 515.04
00007403 00000071 1041.44 119.08 342.42 528.74 1102.73 316.94 1264.14 322.05 1157.80 444.72 1116.68 511.16 1256.74 516.93
00007404 00000072 1040.09 121.48 345.05 529.42 1102.13 317.27 1265.97 325.65 1158.16 449.50 1110.45 511.33 1256.15 520.10
00007405 00000073 1040.44 125.41 343.37 527.18 1102.16 320.23 1267.57 330.52 1160.17 453.72 1109.94 512.14 1258.87 522.35
00007406 00000074 1040.29 125.25 344.55 527.12 1102.10 322.00 1267.62 332.63 1160.40 454.48 1110.70 512.35 1259.50 522.92
00007407 00000075 1038.91 127.45 345.22 523.56 1100.09 324.09 1265.25 334.46 1159.09 454.94 1110.02 513.91 1257.28 524.23
00007408 00000076 1038.34 128.73 345.52 523.54 1099.76 324.59 1263.95 335.93 1157.82 455.30 1108.89 514.42 1255.23 525.54
00007409 00000077 1040.51 128.49 344.39 523.74 1100.64 323.87 1264.73 336.08 1157.93 456.92 1110.64 514.72 1256.90 526.37
00007410 00000078 1042.97 127.47 344.34 524.57 1104.12 323.55 1267.71 335.63 1160.88 456.87 1113.81 514.55 1258.40 526.15
00007411 00000079 1044.85 127.21 345.64 525.09 1107.19 324.34 1269.14 335.45 1163.20 457.96 1117.25 517.13 1257.40 527.97
00007412 00000080 1047.94 131.21 346.35 524.11 1110.16 327.37 1271.23 338.21 1166.33 462.56 1122.91 521.63 1258.76 531.88
00007413 00000081 1053.35 135.45 343.98 522.94 1114.67 330.33 1273.39 342.69 1169.21 467.88 1129.25 526.66 1259.62 537.92
00007414 00000082 1058.48 137.02 344.03 527.53 1121.96 332.18 1281.42 345.94 1177.76 471.41 1134.58 530.25 1263.90 542.50
00007415 00000083 1059.31 131.32 345.05 539.63 1126.53 333.43 1292.79 352.56 1185.32 473.54 1133.14 534.99 1269.00 550.55
00007416 00000084 1064.07 128.57 345.68 543.84 1132.47 333.46 1298.25 352.33 1190.09 472.58 1138.56 536.63 1273.35 552.01
00007417 00000085 1069.06 126.95 346.26 546.80 1136.59 333.01 1301.70 351.42 1194.34 470.81 1140.75 535.52 1277.50 550.44
00007418 00000086 1071.04 126.87 351.03 548.87 1140.30 333.10 1305.84 351.88 1198.48 469.25 1143.54 536.97 1278.09 552.33
00007419 00000087 1072.65 126.11 353.72 551.81 1143.87 333.28 1310.72 351.18 1203.64 470.57 1147.95 539.14 1283.56 553.94
00007420 00000088 1074.64 130.11 354.75 550.11 1144.59 339.42 1313.40 356.03 1207.16 475.25 1150.08 541.73 1288.43 555.15
00007421 DELETE   1075.81 134.42 354.56 548.48 1148.35 345.00 1315.54 360.68 1212.73 479.91 1154.40 543.76 1291.95 556.03
00007422 00000090 1078.63 134.67 356.54 547.31 1153.93 349.03 1326.89 362.79 1222.46 483.75 1157.90 545.64 1298.52 557.13
00007423 00000091 1079.12 128.34 359.40 547.33 1168.12 340.83 1336.00 366.87 1238.84 479.87 1165.27 539.74 1296.94 563.19
00007424 00000092 1083.33 132.32 360.07 548.75 1175.64 341.82 1342.99 365.81 1247.05 484.71 1172.05 540.28 1305.85 562.61
00007425 00000093 1086.31 135.53 358.03 544.13 1182.07 339.40 1346.52 361.69 1255.85 483.95 1180.02 541.27 1308.33 562.57
00007426 00000094 1089.30 135.49 356.07 546.21 1186.63 339.43 1351.89 360.77 1262.58 485.39 1186.89 542.11 1315.50 562.48
00007427 00000095 1093.23 134.37 353.53 544.68 1190.77 339.53 1354.87 360.54 1268.08 485.87 1192.78 542.93 1318.01 563.18
00007428 00000096 1096.68 132.53 354.04 548.05 1194.93 338.90 1359.71 359.02 1273.82 485.98 1197.50 546.20 1321.26 565.61
00007429 00000097 1098.18 133.76 356.52 553.36 1198.73 335.70 1367.98 356.35 1280.31 484.05 1198.71 546.82 1329.37 566.25
00007430 00000098 1099.49 133.08 358.24 548.81 1201.73 335.75 1372.36 354.92 1285.31 481.43 1202.58 545.60 1332.35 563.81
00007431 00000099 1098.85 131.68 360.90 556.27 1203.04 334.07 1375.59 353.90 1287.16 480.82 1200.89 543.89 1337.41 562.37
00007432 00000100 1100.15 134.25 359.75 552.74 1204.16 334.16 1375.26 355.69 1286.38 481.70 1195.98 535.98 1339.39 556.18
00007433 00000101 1100.82 134.50 360.38 547.49 1209.43 337.64 1377.22 357.74 1293.05 485.75 1199.29 532.68 1342.47 552.40
00007434 00000102 1104.45 133.80 363.01 553.46 1216.83 337.32 1385.64 360.69 1301.55 486.49 1204.94 535.54 1350.04 557.44
00007435 00000103 1110.35 137.09 362.59 553.97 1225.34 341.12 1391.68 364.63 1311.90 490.88 1211.82 536.36 1359.18 558.41
00007436 00000104 1114.12 141.71 362.18 553.94 1231.85 343.85 1397.16 368.41 1318.51 493.73 1216.81 539.44 1364.75 562.06
00007437 00000105 1113.58 139.45 364.89 551.13 1230.06 344.99 1406.13 369.89 1322.76 499.07 1212.27 542.36 1362.29 564.42
00007438 00000106 1114.57 144.36 365.94 547.76 1232.20 347.15 1407.20 374.29 1323.73 501.14 1213.03 542.79 1363.19 566.94
00007439 00000107 1117.40 145.80 365.40 546.15 1234.18 350.50 1408.95 377.12 1325.19 503.22 1214.33 542.79 1366.06 566.69
00007440 00000108 1119.34 148.30 365.22 544.22 1237.85 351.25 1411.63 377.95 1329.32 505.50 1216.00 541.89 1370.09 566.18
00007441 00000109 1116.61 149.90 363.92 542.14 1245.79 356.49 1413.19 384.38 1331.31 503.59 1217.38 538.23 1361.84 564.78
00007442 00000110 1117.43 150.62 362.73 536.25 1249.40 355.96 1414.90 383.51 1333.57 502.48 1219.94 534.52 1363.33 560.73
00007443 00000111 1117.53 149.22 365.39 537.33 1250.74 353.06 1415.56 381.55 1333.72 500.44 1218.37 532.84 1361.49 560.08
00007444 00000112 1116.81 149.67 364.93 532.33 1251.47 352.79 1413.53 379.98 1332.32 499.24 1217.39 527.37 1361.36 553.72
00007445 00000113 1115.59 147.28 364.67 534.34 1249.48 350.95 1411.34 379.05 1330.09 495.49 1216.42 529.74 1357.37 556.63
00007446 00000114 1114.63 148.85 362.42 530.67 1246.98 351.54 1409.80 381.73 1326.47 495.43 1214.18 530.03 1355.29 558.41
00007447 00000115 1113.21 147.68 363.29 534.29 1244.85 352.95 1409.00 385.17 1322.97 496.67 1209.46 530.99 1353.38 561.08
00007448 00000116 1111.24 149.20 364.18 536.81 1244.23 355.04 1408.65 388.69 1321.35 499.30 1206.28 530.21 1353.27 561.60
00007449 00000117 1110.62 148.22 365.41 540.23 1244.36 355.06 1408.04 389.97 1321.36 499.08 1206.20 531.20 1351.43 563.67
00007450 00000118 1111.22 146.64 364.51 541.50 1244.50 355.29 1408.42 389.96 1322.11 498.70 1207.93 534.08 1349.94 566.33
00007451 00000119 1111.38 147.05 364.13 540.01 1243.93 354.75 1407.92 388.93 1321.92 498.66 1208.22 533.21 1350.26 565.03
00007452 00000120 1110.44 144.72 364.83 545.70 1243.21 353.93 1407.02 389.34 1321.03 498.64 1206.57 533.93 1349.45 566.76
00007453 00000121 1108.45 143.88 366.81 549.42 1243.08 354.36 1407.20 390.40 1321.69 497.67 1205.79 535.88 1348.74 569.19
00007454 00000122 1107.92 145.01 367.91 549.41 1243.05 355.41 1407.89 389.69 1322.85 499.17 1207.34 537.24 1350.85 569.12
00007455 00000123 1109.49 144.03 368.03 545.82 1244.81 358.33 1412.09 390.48 1327.61 498.71 1212.76 538.60 1355.01 568.39
00007456 00000124 1110.80 145.85 368.93 541.51 1246.83 361.85 1416.61 390.64 1330.30 500.04 1215.93 539.10 1359.09 566.35
00007457 00000125 1111.64 145.35 370.86 543.09 1249.52 358.22 1418.00 385.92 1334.16 500.75 1220.18 539.89 1359.70 566.43
00007458 00000126 1112.13 143.72 368.49 544.51 1249.41 355.57 1414.91 383.05 1336.83 497.66 1221.97 540.13 1359.16 566.52
00007459 00000127 1112.00 138.60 367.54 551.25 1247.88 351.47 1413.69 378.95 1337.58 495.49 1222.40 542.95 1358.78 569.26
00007460 00000128 1112.46 136.98 366.11 553.04 1247.78 349.22 1412.41 377.94 1337.39 493.87 1224.55 545.52 1355.52 572.73
00007461 00000129 1113.12 142.51 370.28 546.40 1247.04 347.74 1408.29 373.25 1334.93 496.45 1240.99 553.69 1360.95 576.03
00007462 00000130 1112.21 140.02 370.37 551.77 1243.47 349.76 1405.65 373.38 1332.79 494.91 1243.65 560.46 1360.57 580.93
00007463 00000131 1111.24 132.27 371.78 556.94 1233.35 350.09 1405.44 373.10 1330.92 495.98 1231.18 562.59 1351.81 582.51
00007464 00000132 1110.75 142.24 368.79 551.24 1237.53 351.90 1402.81 376.75 1327.52 493.47 1235.82 558.89 1359.82 580.47
00007465 00000133 1109.79 144.83 367.62 548.85 1233.92 353.23 1398.36 378.50 1322.51 493.25 1233.07 558.24 1357.16 580.21
00007466 00000134 1108.70 144.18 367.23 555.01 1231.33 352.71 1393.43 378.23 1317.93 496.78 1227.50 557.52 1353.12 579.99
00007467 00000135 1106.65 142.44 366.03 555.86 1225.31 352.98 1388.74 377.71 1312.30 495.41 1221.99 556.88 1349.13 579.01
00007468 00000136 1103.63 139.11 363.26 547.73 1216.95 351.21 1382.01 374.72 1303.70 494.92 1219.52 556.72 1341.49 578.23
00007469 00000137 1100.38 137.98 362.64 548.56 1213.53 350.13 1376.31 374.12 1299.71 492.46 1216.62 555.08 1336.13 576.91
00007470 00000138 1095.97 135.77 365.61 555.69 1207.82 344.77 1371.42 372.41 1290.13 488.29 1202.78 550.11 1326.87 575.70
00007471 00000139 1093.24 136.09 365.16 553.14 1203.27 342.17 1367.75 371.72 1281.83 487.43 1190.96 544.30 1320.06 571.98
00007472 00000140 1090.91 135.91 364.18 544.66 1199.34 341.62 1362.58 369.44 1276.60 488.14 1188.18 540.30 1316.57 566.67
00007473 00000141 1087.30 132.66 363.45 545.66 1194.54 341.08 1357.56 367.71 1272.01 486.58 1184.86 538.96 1314.17 564.37
00007474 00000142 1084.50 128.54 362.49 555.21 1189.97 339.85 1352.91 368.03 1264.02 484.19 1177.87 537.82 1310.49 564.08
00007475 00000143 1082.94 126.73 357.92 555.70 1186.50 336.79 1346.94 363.97 1260.45 482.14 1174.80 536.89 1304.13 562.08
00007476 00000144 1079.72 125.15 357.22 553.34 1182.09 336.57 1343.64 363.41 1257.85 480.67 1171.18 535.75 1301.88 560.53
00007477 00000145 1075.95 124.98 357.55 551.68 1177.30 337.90 1339.88 364.73 1252.28 478.38 1168.06 535.68 1299.26 560.20
00007478 00000146 1072.78 125.23 357.51 551.45 1171.53 337.23 1335.73 363.95 1247.77 476.12 1164.13 535.79 1297.94 559.72
00007479 00000147 1069.72 122.07 355.17 547.93 1163.62 335.05 1327.26 363.85 1238.66 474.91 1157.55 533.60 1290.18 558.97
00007480 DELETE   1060.56 115.59 352.08 556.87 1146.47 330.91 1312.01 356.59 1219.12 469.16 1143.75 535.54 1278.41 558.02
00007481 DELETE   1048.53 117.64 343.75 538.73 1114.90 335.15 1281.42 344.63 1179.15 468.62 1131.10 532.53 1264.76 541.60
00007482 DELETE   1037.96 120.04 340.71 537.48 1096.75 328.11 1252.63 339.79 1147.33 458.51 1109.81 531.90 1234.78 543.80
00007483 00000151 1029.71 120.07 338.97 542.80 1085.44 326.54 1235.77 336.80 1132.77 452.90 1099.25 533.63 1219.31 544.35
00007484 00000152 1024.36 123.21 339.71 538.25 1081.79 327.04 1230.95 339.54 1131.17 456.02 1096.69 537.50 1210.61 550.02
00007485 00000153 1022.06 126.32 341.04 535.13 1083.46 327.17 1234.83 340.58 1137.88 459.53 1098.88 539.77 1211.20 553.19
00007486 00000154 1021.51 126.42 340.58 535.68 1083.60 325.77 1237.13 339.28 1140.48 460.81 1100.64 541.59 1213.56 555.03
00007487 00000155 1019.92 126.36 340.95 540.28 1076.61 326.36 1243.35 332.92 1133.21 462.55 1101.95 548.14 1219.60 554.79
00007488 00000156 1017.59 132.28 342.97 543.51 1076.43 328.74 1242.51 338.16 1133.65 465.10 1096.24 545.06 1221.64 553.29
00007489 00000157 1018.43 133.54 340.31 543.09 1074.71 331.26 1241.64 340.62 1134.06 471.09 1091.74 546.64 1223.42 554.75
00007490 00000158 1019.22 135.23 338.75 541.04 1076.48 331.62 1242.90 341.99 1135.18 472.45 1090.68 546.75 1222.11 555.99
00007491 00000159 1019.97 136.04 340.17 544.87 1077.22 331.75 1245.72 343.51 1135.19 472.77 1090.78 547.79 1221.88 557.93
00007492 00000160 1023.34 128.47 340.63 550.21 1085.44 330.70 1241.40 347.05 1138.55 468.69 1094.06 542.05 1219.27 557.63
00007493 00000161 1024.73 131.57 340.40 541.16 1087.07 330.38 1245.60 347.94 1142.71 469.70 1095.46 542.44 1220.36 559.25
00007494 00000162 1026.83 132.65 340.35 542.98 1087.57 331.11 1245.74 349.01 1141.74 470.57 1096.13 544.97 1219.96 562.12
