Video ID: 	-QpV0FCHAKM
H: 	1080
W: 	1920
FPS: 	25.0

FRAME INDEX X0 Y0 W H [Landmarks (5 Points)]

00009750 00000000 545.33 122.05 364.72 520.20 696.00 365.69 849.38 324.42 834.53 429.66 765.21 540.32 884.08 506.27
00009751 00000001 551.46 117.48 366.51 519.09 707.36 363.82 859.68 323.27 850.90 422.33 779.76 536.44 896.02 502.43
00009752 00000002 559.02 116.36 366.58 521.70 714.92 370.22 863.65 326.06 857.67 423.78 785.65 538.27 902.90 501.12
00009753 00000003 562.79 119.66 364.65 523.05 715.38 373.95 867.38 329.30 857.76 430.41 784.26 545.23 903.50 508.00
00009754 00000004 563.27 124.33 367.88 524.75 718.49 379.46 871.49 334.40 861.65 440.30 783.95 550.80 904.13 513.53
00009755 00000005 569.71 123.35 365.38 530.43 725.27 384.18 880.33 341.23 867.39 450.69 785.64 555.86 904.87 520.73
00009756 00000006 573.36 121.27 365.48 539.54 730.78 387.08 883.46 344.80 870.48 456.83 786.52 559.90 904.73 525.58
00009757 00000007 578.52 119.61 365.46 547.59 738.01 386.06 893.40 346.07 877.07 460.46 789.78 566.15 909.21 533.81
00009758 00000008 584.56 117.76 367.91 548.36 746.51 382.84 902.26 343.82 885.77 459.01 797.46 568.09 915.50 536.59
00009759 00000009 591.23 114.77 372.62 548.29 754.41 378.04 912.57 341.97 895.72 454.37 806.14 566.40 926.30 537.04
00009760 00000010 601.23 112.90 371.49 547.98 762.71 367.54 919.85 340.34 896.90 446.65 821.21 551.85 940.43 529.88
00009761 00000011 608.25 120.24 371.06 535.70 772.62 369.49 927.70 343.11 907.83 448.91 826.94 550.22 943.43 528.76
00009762 00000012 615.13 122.33 368.56 532.75 777.30 371.15 931.49 347.20 910.40 450.97 827.60 550.40 945.19 530.53
00009763 00000013 618.25 121.72 367.60 537.19 780.90 371.01 934.46 349.57 914.39 452.01 828.89 549.50 946.34 531.58
00009764 00000014 627.44 116.37 363.35 548.00 787.41 369.12 940.92 355.24 918.14 447.97 830.03 548.82 949.58 537.06
00009765 DELETE   641.36 115.51 357.41 545.72 815.13 365.31 961.05 357.72 943.45 438.98 844.47 545.11 956.78 539.48
00009766 DELETE   652.80 111.03 358.90 547.43 836.17 354.72 981.62 353.77 969.97 426.77 863.70 536.71 978.03 536.60
00009767 00000017 660.23 110.20 357.76 539.63 848.04 344.24 994.36 349.24 985.76 416.60 875.55 527.01 992.11 531.84
00009768 00000018 676.27 110.26 351.02 537.85 858.50 334.96 1008.09 338.61 995.18 415.60 880.57 524.39 1001.41 528.46
00009769 00000019 682.42 110.57 348.92 539.24 863.64 330.24 1014.29 337.01 998.75 414.74 881.65 521.36 1003.21 528.01
00009770 00000020 682.57 109.44 348.49 539.41 870.05 327.29 1016.46 339.09 1001.73 415.53 882.80 518.94 999.17 530.05
00009771 00000021 687.40 111.18 348.48 539.56 876.39 328.18 1019.95 344.45 1007.01 414.89 887.12 518.17 1001.15 533.06
00009772 00000022 691.74 113.20 346.29 538.97 882.65 326.48 1021.82 348.21 1011.64 413.89 891.44 516.21 1002.96 535.55
00009773 00000023 693.03 112.42 331.75 526.95 882.44 322.79 1009.58 345.28 1003.81 408.88 905.27 504.93 1009.33 523.70
00009774 00000024 694.44 113.78 331.42 521.83 886.84 314.67 1013.35 343.80 1007.82 399.50 903.16 496.34 1009.16 520.58
00009775 00000025 695.79 112.62 342.00 532.39 890.96 314.85 1027.05 351.32 1018.00 400.79 885.76 499.58 1000.33 531.86
00009776 00000026 687.58 113.95 344.23 524.72 880.81 310.50 1022.52 350.41 1010.71 392.73 876.43 492.46 995.52 527.56
00009777 00000027 678.34 111.82 347.07 525.65 868.45 311.14 1016.73 352.09 1001.04 389.36 866.51 491.46 990.05 527.24
00009778 00000028 669.55 115.59 348.00 518.70 856.08 310.70 1005.82 352.81 987.63 387.60 855.67 488.10 980.87 524.53
00009779 00000029 659.74 113.00 353.45 522.64 849.36 314.41 996.31 352.84 978.59 392.53 850.74 490.80 973.56 523.67
00009780 00000030 654.36 113.66 354.06 522.45 839.52 318.84 990.18 352.45 971.27 397.34 844.74 494.29 970.12 522.67
00009781 00000031 643.51 111.44 364.88 530.34 832.28 321.70 986.30 356.13 966.69 397.11 839.03 498.17 967.58 526.66
00009782 00000032 637.52 113.64 369.79 529.87 827.98 322.66 983.86 357.53 960.36 399.53 835.13 500.17 962.42 528.82
00009783 00000033 636.18 113.21 367.79 535.48 822.96 325.41 977.47 357.41 953.75 404.46 830.28 504.11 956.71 530.51
00009784 00000034 634.16 112.93 366.91 539.05 817.00 329.23 970.72 356.07 945.38 410.53 825.67 508.81 950.88 531.10
00009785 00000035 630.46 113.17 369.82 539.77 813.94 331.19 970.22 355.96 943.37 413.35 824.54 512.18 950.17 532.58
00009786 00000036 632.09 111.87 369.06 541.55 816.48 333.07 969.75 353.49 943.52 415.30 831.19 515.33 952.57 531.72
00009787 00000037 634.83 111.91 365.79 538.22 815.18 333.73 966.13 350.54 940.07 414.91 835.55 517.23 952.18 530.62
00009788 00000038 632.64 112.49 367.21 539.85 809.88 335.77 960.61 348.49 935.36 416.19 836.71 521.99 951.42 532.08
00009789 00000039 632.10 113.36 367.73 539.55 806.61 338.54 958.70 349.28 931.61 419.09 836.10 525.91 949.20 534.44
00009790 00000040 634.86 114.09 366.01 537.00 807.19 341.20 961.13 351.64 931.55 421.09 835.69 526.30 950.55 534.61
00009791 00000041 636.19 115.40 366.02 534.23 807.64 343.70 962.35 352.03 932.35 422.98 838.16 527.81 952.08 534.60
00009792 00000042 638.79 114.45 366.15 535.71 809.98 345.58 965.20 353.25 932.90 426.12 839.17 530.27 953.53 536.62
00009793 00000043 640.23 115.48 365.26 535.48 808.09 348.05 965.68 354.48 932.54 428.09 839.77 533.35 955.05 538.76
00009794 00000044 639.41 116.96 365.49 534.57 806.34 349.76 964.34 354.35 930.40 432.40 839.03 535.73 954.35 539.55
00009795 00000045 639.57 116.56 366.52 537.02 805.81 350.37 964.59 354.18 929.37 436.12 838.32 538.57 953.61 541.84
00009796 00000046 642.43 119.12 364.85 541.02 812.83 351.36 968.46 354.28 936.51 436.22 845.57 542.85 957.54 545.25
00009797 00000047 647.01 119.05 363.36 543.57 821.81 350.89 977.51 356.63 949.26 438.85 853.96 545.04 964.34 549.62
00009798 00000048 652.00 127.28 364.51 544.45 835.37 355.15 977.98 361.92 963.75 442.31 867.22 548.75 967.57 555.04
00009799 00000049 656.61 132.09 363.10 545.15 839.55 355.48 981.55 362.14 968.19 445.58 869.46 554.78 970.46 561.56
00009800 00000050 661.23 135.72 362.10 544.32 845.09 356.23 986.59 366.08 973.40 447.14 871.05 556.57 974.19 566.22
00009801 00000051 662.96 134.35 364.03 547.69 847.96 357.81 993.90 369.45 980.79 447.76 871.31 556.64 981.36 567.67
00009802 00000052 664.93 133.86 365.33 546.21 850.26 361.39 1000.13 371.15 986.19 449.09 873.76 555.73 989.65 564.95
00009803 00000053 670.80 136.18 360.53 542.51 853.65 361.71 1004.45 372.84 988.69 451.83 873.42 555.34 991.66 566.07
00009804 00000054 670.90 138.23 362.87 540.35 857.13 365.58 1008.03 377.29 988.20 454.44 876.38 559.35 992.24 569.64
00009805 00000055 674.77 137.46 355.87 536.18 853.71 363.90 1001.69 375.51 983.42 453.83 874.73 555.87 986.63 567.24
00009806 00000056 671.89 137.55 357.45 536.19 850.96 363.79 1000.04 376.55 982.10 452.04 871.19 554.92 985.87 567.14
00009807 00000057 660.54 133.85 366.63 540.38 847.13 361.98 995.91 373.78 981.42 451.07 869.73 554.27 984.03 564.92
00009808 00000058 656.01 132.77 368.11 540.24 842.17 359.02 990.65 371.04 976.64 449.36 866.13 552.04 978.51 562.91
00009809 00000059 652.33 130.62 367.82 541.96 837.94 356.12 986.77 367.21 972.53 448.56 863.67 551.51 973.88 561.44
00009810 00000060 650.91 133.20 365.68 537.22 838.03 352.58 983.59 367.88 969.58 446.73 861.84 548.32 966.96 561.89
00009811 00000061 647.06 130.62 365.72 539.51 836.72 351.10 981.04 365.74 969.54 446.56 861.04 547.08 964.40 559.79
00009812 00000062 638.37 124.64 366.73 542.63 830.17 357.14 977.33 368.50 959.25 446.01 852.68 546.41 958.09 555.80
00009813 00000063 632.02 124.56 365.13 539.96 819.11 356.97 969.25 367.33 947.82 446.13 841.88 545.40 949.50 553.88
00009814 00000064 626.66 124.36 362.22 537.35 808.66 355.25 959.16 365.51 934.27 444.58 827.95 541.45 938.51 550.14
00009815 00000065 617.58 123.54 363.56 538.29 799.10 352.69 951.53 362.66 927.20 442.42 820.80 540.74 933.01 548.81
00009816 00000066 607.49 121.93 364.54 541.43 790.17 349.35 945.42 360.23 919.86 438.67 812.72 537.70 928.79 546.63
00009817 00000067 606.53 125.47 361.76 540.42 786.82 347.20 941.97 357.37 917.79 439.44 797.06 541.39 921.34 551.04
00009818 00000068 586.87 114.45 367.83 545.68 765.09 348.48 922.67 352.97 897.07 437.59 784.10 540.28 906.67 544.65
00009819 00000069 577.61 114.06 365.01 539.07 740.64 351.97 901.54 353.13 868.66 436.21 765.39 536.20 890.22 537.71
00009820 00000070 567.81 112.56 365.29 544.77 722.65 353.16 884.68 352.75 847.05 438.14 753.75 536.24 880.99 536.08
00009821 00000071 558.41 112.18 368.40 546.39 712.47 352.67 875.29 349.47 838.57 441.46 751.54 538.94 877.30 536.01
00009822 00000072 555.66 108.95 368.31 548.54 707.26 352.82 870.44 346.93 833.00 441.57 751.56 539.56 874.68 534.48
00009823 00000073 551.68 111.11 370.60 546.90 704.86 351.50 866.55 345.23 830.03 440.09 751.02 539.81 871.73 534.34
00009824 00000074 550.24 110.25 370.57 552.30 707.07 355.32 862.83 348.54 829.46 439.61 753.15 544.74 868.08 538.88
00009825 00000075 550.98 112.52 372.81 556.71 707.75 357.02 865.27 352.08 830.77 440.85 748.73 545.37 869.92 540.82
00009826 00000076 553.77 111.61 371.79 561.27 707.53 360.76 868.15 353.33 832.74 445.59 746.28 546.66 873.85 540.02
00009827 00000077 557.02 113.88 369.11 566.90 708.42 361.48 872.29 356.48 836.53 447.85 743.75 548.60 877.95 544.05
00009828 00000078 562.55 115.67 366.96 575.02 712.29 362.51 876.40 357.72 840.73 448.63 743.50 551.68 881.70 547.46
00009829 00000079 571.81 120.77 370.38 574.45 722.99 354.17 885.92 354.16 852.98 442.19 752.21 554.13 883.36 553.93
00009830 00000080 580.69 117.75 366.86 569.59 738.31 353.44 898.18 355.13 871.70 440.90 765.82 552.47 891.92 553.78
00009831 00000081 589.01 112.98 366.76 571.56 759.63 361.20 913.98 357.78 890.25 446.72 785.42 556.03 911.23 553.08
00009832 00000082 607.03 123.61 363.20 567.20 783.15 357.66 936.32 362.76 915.20 447.43 801.10 558.86 925.24 563.18
00009833 00000083 615.80 129.70 364.52 561.62 794.24 361.42 942.23 369.40 925.23 445.52 805.89 553.68 927.85 562.04
00009834 00000084 619.14 136.50 364.01 561.85 801.20 356.50 943.50 367.19 925.48 447.01 819.96 551.92 931.64 561.17
00009835 00000085 626.56 141.19 364.51 566.91 805.79 358.11 949.66 374.47 928.60 451.97 817.70 556.47 931.74 570.36
00009836 00000086 631.56 140.26 364.88 571.82 808.67 360.57 954.30 376.42 932.92 458.92 817.17 560.99 933.30 574.85
00009837 00000087 629.34 141.61 368.87 566.38 806.37 365.33 955.48 380.25 930.99 463.09 814.39 563.49 933.29 576.57
00009838 00000088 624.80 142.80 372.51 562.52 800.83 369.14 952.86 379.68 925.60 466.88 812.07 567.07 931.14 576.78
00009839 00000089 619.32 143.12 372.79 563.13 795.80 370.78 946.78 377.86 919.05 470.84 809.15 568.86 925.35 575.71
00009840 00000090 616.63 145.73 369.85 559.00 789.33 376.02 940.91 378.93 912.23 473.43 804.58 570.11 921.72 573.53
00009841 00000091 612.86 147.71 367.44 556.14 782.55 381.09 933.79 380.56 904.84 475.83 798.99 572.36 916.64 573.10
00009842 00000092 618.70 153.01 365.88 549.05 777.85 387.53 941.88 387.92 905.81 482.33 788.29 576.35 925.93 578.99
00009843 00000093 618.13 157.04 364.97 548.81 772.35 390.59 939.33 389.04 901.17 485.24 785.16 580.53 925.54 581.51
00009844 00000094 617.61 157.40 365.92 550.98 772.00 393.24 939.77 390.32 901.76 488.83 786.12 584.09 926.80 583.65
00009845 00000095 616.75 158.87 367.57 550.94 773.97 396.19 940.78 392.11 904.92 489.77 787.78 585.57 927.66 584.31
00009846 00000096 612.57 157.11 370.38 556.93 775.61 395.20 933.96 389.06 904.23 488.28 796.90 583.92 923.89 580.21
00009847 00000097 616.87 157.28 369.41 558.19 784.51 395.83 939.19 390.40 911.52 488.83 804.74 582.85 928.16 579.47
00009848 00000098 627.02 156.91 369.37 559.61 792.11 395.67 949.57 392.99 918.13 489.14 812.89 583.58 937.31 582.04
00009849 00000099 637.85 157.10 366.38 558.98 801.79 394.08 956.43 392.74 925.52 488.83 820.62 582.89 942.35 582.38
00009850 00000100 644.14 155.79 366.36 558.74 810.78 394.06 964.53 395.46 934.86 488.36 825.53 581.34 948.11 583.12
00009851 00000101 647.56 152.59 368.97 558.11 816.22 392.19 972.35 393.66 944.43 484.07 831.55 580.19 955.98 582.14
00009852 00000102 647.12 150.32 372.47 560.04 821.67 391.29 977.88 393.29 952.58 482.19 838.32 580.49 961.87 582.79
00009853 00000103 649.86 149.27 371.14 559.83 824.89 392.54 979.24 392.75 956.30 482.48 841.53 580.37 964.89 581.35
00009854 00000104 651.55 150.70 370.27 558.27 826.01 393.42 981.10 393.48 957.85 482.84 842.94 580.88 966.75 581.70
00009855 00000105 650.86 151.01 371.48 557.23 825.87 393.33 982.32 394.15 957.43 483.32 842.17 580.96 966.80 582.41
00009856 00000106 654.99 150.26 369.49 557.17 827.89 393.60 985.43 393.75 959.04 486.04 842.33 581.95 968.63 583.15
00009857 00000107 659.58 150.53 366.95 552.13 832.57 392.90 991.37 394.60 963.98 485.74 847.14 580.54 973.48 583.23
00009858 00000108 672.77 151.47 359.16 545.25 841.65 391.99 1000.46 393.55 972.39 485.57 855.13 579.05 982.62 582.39
00009859 00000109 682.83 154.08 355.38 540.90 853.38 388.52 1011.64 392.19 984.20 483.29 864.85 576.64 992.12 581.73
00009860 00000110 686.85 154.11 357.26 540.77 863.77 385.35 1019.01 393.28 993.87 482.64 872.22 574.06 995.90 582.46
00009861 00000111 688.32 156.09 357.67 540.23 869.38 385.57 1019.89 394.10 998.12 483.70 875.87 573.85 995.73 582.91
00009862 00000112 688.70 155.02 358.28 541.03 870.06 384.38 1021.14 394.15 998.96 482.34 876.29 573.08 996.85 583.07
00009863 00000113 686.78 155.46 357.61 544.31 868.23 383.48 1019.77 395.38 997.09 481.55 871.66 572.04 995.21 583.87
00009864 00000114 685.63 154.79 358.14 544.61 864.13 381.07 1018.73 394.29 993.87 480.39 867.84 571.51 994.21 584.40
00009865 00000115 684.67 153.49 357.18 547.08 859.42 380.18 1017.08 393.74 990.09 480.24 863.28 572.52 992.46 585.76
00009866 00000116 683.11 152.69 357.29 550.32 856.46 380.61 1015.10 393.09 987.80 480.62 859.24 573.63 991.46 586.10
00009867 00000117 684.31 155.30 355.59 549.31 859.33 379.00 1015.36 394.01 989.61 479.69 861.77 574.01 990.58 588.43
00009868 00000118 686.32 156.34 355.14 549.22 864.72 379.37 1017.63 394.86 994.56 479.25 867.45 574.14 991.99 588.68
00009869 00000119 690.23 158.39 354.27 549.89 872.73 377.53 1021.12 392.74 1003.05 481.11 872.47 573.35 994.09 588.32
00009870 00000120 693.47 158.29 355.37 553.01 879.35 379.49 1022.98 392.75 1007.75 483.22 877.06 573.43 995.54 587.04
00009871 00000121 686.07 153.50 357.09 558.26 878.99 381.05 1008.20 391.15 997.27 481.02 885.24 571.47 985.12 580.95
00009872 00000122 686.23 153.57 355.46 557.34 878.06 378.20 1007.68 389.47 997.99 478.86 884.42 569.40 985.60 579.87
00009873 00000123 690.01 155.27 357.35 552.01 879.35 375.60 1022.26 389.07 1008.23 479.29 874.71 568.44 994.78 582.35
00009874 00000124 688.12 153.41 356.38 544.92 874.62 374.61 1020.64 388.90 1003.52 478.43 871.16 564.83 993.58 579.36
00009875 00000125 684.26 149.26 359.56 545.11 865.97 376.47 1015.29 388.59 995.35 472.29 870.00 564.57 994.29 576.50
00009876 00000126 681.99 149.91 355.78 538.75 858.62 380.40 1010.44 386.60 987.57 473.97 867.83 565.77 991.80 572.94
00009877 00000127 675.71 147.28 355.66 539.91 847.60 383.63 999.72 385.16 973.29 477.12 860.49 568.18 982.83 571.99
00009878 00000128 665.23 143.57 361.52 546.85 836.55 383.87 989.51 382.73 962.72 480.49 852.93 571.57 973.41 572.63
00009879 00000129 655.59 141.94 367.89 550.99 823.18 383.73 980.28 382.40 948.29 483.66 842.15 574.19 964.11 574.19
CROP_BBOX: 293 0 1284 941
