Video ID: 	eHcEYS_l0dE
H: 	1080
W: 	1920
FPS: 	25.0

FRAME INDEX X0 Y0 W H [Landmarks (5 Points)]

00056455 00000000 708.04 156.47 443.40 601.61 827.88 397.81 1036.95 395.27 940.88 494.17 861.07 619.65 1022.90 615.21
00056456 00000001 708.09 159.81 442.47 596.42 822.59 399.37 1031.51 397.28 929.93 498.20 853.28 617.18 1019.23 613.33
00056457 00000002 706.42 166.67 446.91 588.14 815.69 400.83 1027.68 400.09 919.47 500.74 845.46 616.73 1015.83 613.86
00056458 00000003 709.38 165.60 444.05 584.19 813.97 398.43 1025.31 399.97 912.65 500.05 840.94 613.02 1011.61 612.06
00056459 00000004 710.94 162.18 443.16 584.66 813.98 395.56 1022.99 396.25 910.25 496.62 840.23 610.25 1008.03 608.35
00056460 DELETE   710.90 159.40 444.43 587.21 811.80 390.91 1019.29 392.83 904.69 494.10 836.43 608.02 1000.13 607.04
00056461 00000006 709.86 155.09 445.74 592.34 807.46 387.99 1014.53 391.37 896.60 493.69 828.92 607.02 989.01 607.27
00056462 00000007 707.20 155.39 447.40 598.50 802.25 384.61 1011.00 389.01 888.69 493.06 820.96 605.26 986.37 606.29
00056463 DELETE   704.23 155.64 445.57 603.36 799.03 382.49 1005.54 389.55 881.32 489.07 810.45 597.31 986.24 600.61
00056464 00000009 701.54 156.50 443.11 597.05 792.42 379.50 1001.42 387.72 873.56 483.45 798.97 589.49 985.15 594.23
00056465 DELETE   700.37 157.75 441.14 589.08 787.07 376.05 996.66 385.18 865.07 478.56 792.64 586.81 979.11 592.74
00056466 DELETE   698.67 156.36 439.28 582.19 784.48 372.34 989.61 383.05 859.97 475.74 788.79 582.03 969.02 589.71
00056467 DELETE   697.09 150.95 438.05 576.87 783.88 368.05 985.38 381.86 856.49 469.21 783.87 573.24 962.69 583.67
00056468 00000013 695.61 150.58 438.24 570.09 782.25 366.99 982.58 381.19 853.16 464.56 780.76 568.57 957.96 579.62
00056469 00000014 694.60 151.28 438.26 570.14 780.69 368.32 980.89 381.52 852.43 465.43 780.08 571.17 952.62 581.62
00056470 00000015 695.21 152.06 437.93 576.12 780.28 370.54 981.77 382.85 854.27 473.88 784.38 583.42 945.41 593.46
00056471 00000016 696.53 154.90 438.62 582.58 779.12 373.85 982.31 382.89 854.98 480.41 788.41 590.89 948.65 598.13
00056472 00000017 699.24 154.76 436.86 591.86 780.49 374.49 981.41 383.30 854.82 485.02 791.52 595.44 949.97 602.40
00056473 00000018 700.34 154.27 436.82 599.84 781.54 378.96 982.00 384.20 855.65 488.23 795.86 602.31 955.44 606.06
00056474 00000019 701.89 154.99 439.01 600.21 783.53 379.48 983.33 383.76 856.82 485.50 798.02 599.85 959.78 602.47
00056475 00000020 705.07 154.77 439.27 600.48 785.48 379.51 984.81 381.82 857.84 483.96 801.81 598.48 963.86 599.21
00056476 00000021 708.27 153.87 438.54 596.12 786.67 377.72 986.34 379.71 858.02 482.92 802.71 595.57 964.68 596.05
00056477 00000022 710.54 151.08 439.45 592.13 787.20 376.07 988.38 379.72 856.49 481.67 800.61 591.45 967.72 592.99
00056478 00000023 713.59 148.15 438.97 589.40 789.04 374.32 991.85 380.48 856.99 481.29 800.30 588.70 969.97 592.19
00056479 00000024 715.66 147.94 440.96 589.84 792.25 376.47 994.78 382.48 858.57 481.38 803.35 588.91 973.02 592.06
00056480 00000025 719.17 148.59 445.62 592.07 791.63 380.79 995.53 379.54 861.68 489.13 809.24 596.48 972.25 595.62
00056481 00000026 722.67 146.13 449.29 598.03 796.24 384.28 996.47 382.91 864.13 494.84 818.01 598.22 979.45 597.14
00056482 00000027 727.28 150.23 447.95 598.51 796.98 389.60 996.74 387.39 863.55 501.32 818.92 603.38 981.44 601.76
00056483 00000028 730.47 155.96 448.12 594.52 797.19 392.72 996.04 388.27 863.38 503.47 820.94 605.56 983.59 602.20
00056484 00000029 732.40 159.10 450.31 592.75 796.13 395.26 993.90 389.22 860.27 504.81 821.99 607.03 983.71 602.29
00056485 00000030 732.48 161.82 452.51 591.41 795.29 397.89 991.65 390.46 858.88 506.02 825.54 608.13 981.89 602.21
00056486 00000031 734.28 165.08 453.03 589.27 795.81 398.16 988.10 391.55 856.31 509.94 827.62 609.53 974.37 604.54
00056487 00000032 735.38 166.51 452.69 592.46 796.35 401.52 984.00 394.57 853.39 513.97 828.92 614.67 966.81 609.61
00056488 00000033 734.10 168.35 453.48 594.22 793.99 404.38 980.31 394.23 851.00 514.62 830.68 620.85 964.41 613.01
00056489 00000034 734.74 167.83 453.28 596.66 794.69 404.76 980.24 392.91 851.74 514.26 832.39 622.21 965.35 613.08
00056490 00000035 738.05 169.41 451.52 593.90 798.73 402.49 986.33 390.59 859.51 514.46 837.29 620.11 972.57 611.11
00056491 00000036 740.71 170.06 450.56 592.50 801.91 401.38 990.58 390.00 864.55 516.11 841.32 618.65 978.34 610.05
00056492 00000037 738.73 171.41 450.16 589.74 798.51 402.79 985.90 393.07 858.53 517.49 835.58 619.59 971.08 612.34
00056493 00000038 736.77 171.90 451.29 590.14 797.49 403.19 985.02 394.09 856.88 516.91 833.24 620.07 967.21 613.41
00056494 00000039 739.51 171.93 450.35 590.00 801.07 401.49 990.92 391.48 863.39 516.69 838.30 619.70 974.06 612.40
00056495 00000040 741.33 168.31 449.38 594.35 805.02 401.55 995.69 387.64 871.05 512.69 845.27 619.25 981.85 608.79
00056496 00000041 739.21 169.18 447.80 595.72 802.71 400.60 993.81 388.34 868.19 513.18 841.51 620.25 979.00 611.12
00056497 00000042 734.48 171.59 450.86 600.37 797.90 403.74 989.66 389.29 862.45 511.56 835.96 625.74 976.41 614.74
00056498 00000043 733.47 176.61 449.98 596.72 797.64 404.86 988.13 390.58 861.34 509.82 835.24 624.39 978.31 613.33
00056499 00000044 732.93 176.69 450.75 592.90 797.78 404.89 989.67 390.48 863.23 509.27 834.91 621.17 983.29 609.88
00056500 00000045 729.04 172.67 452.06 593.73 793.46 404.85 985.93 391.25 858.40 508.43 830.05 619.54 979.26 608.78
00056501 00000046 719.08 165.42 458.12 602.35 788.34 405.57 981.66 391.21 855.31 507.62 823.88 619.40 974.41 607.78
00056502 00000047 712.26 163.45 461.42 606.09 784.55 403.49 977.26 388.55 851.44 504.80 819.13 617.44 969.22 605.25
00056503 00000048 709.16 162.59 463.20 604.58 782.22 403.03 975.00 386.61 849.90 503.36 818.71 617.04 969.58 603.55
00056504 00000049 709.23 161.99 463.30 605.69 782.68 402.79 977.60 385.50 852.94 503.83 820.30 616.82 973.92 602.58
00056505 00000050 711.32 164.99 461.79 603.68 784.89 402.86 982.60 386.06 858.77 505.23 821.35 615.64 979.85 601.82
00056506 DELETE   714.55 172.04 455.76 598.20 792.82 409.78 993.70 396.53 871.76 510.26 823.48 616.63 988.93 605.79
00056507 DELETE   723.37 169.69 440.76 600.12 807.53 403.24 1014.29 390.57 895.38 506.18 835.83 611.45 1004.90 600.43
00056508 00000053 729.76 167.29 433.92 597.28 820.05 396.38 1029.00 392.16 913.61 505.55 841.85 607.25 1013.57 603.38
00056509 00000054 726.02 162.84 443.17 601.97 825.49 392.88 1030.37 390.16 919.55 509.30 845.72 601.29 1012.10 598.41
00056510 00000055 716.41 159.33 442.33 597.84 828.15 388.73 1030.53 397.23 921.93 502.64 838.23 595.17 1015.95 600.46
00056511 00000056 711.63 157.65 442.17 603.74 830.97 387.83 1033.15 402.16 925.46 505.46 834.84 594.72 1015.55 605.04
00056512 00000057 710.57 159.76 441.25 605.46 834.72 390.41 1037.67 405.31 933.77 506.58 836.57 596.13 1021.35 607.41
00056513 00000058 709.21 152.97 441.84 611.94 841.33 390.31 1042.10 407.26 944.74 502.76 838.85 592.57 1025.64 605.56
00056514 00000059 705.90 149.18 443.12 610.07 843.82 388.63 1046.06 405.62 953.19 497.39 843.29 588.50 1029.09 601.22
00056515 00000060 703.29 144.18 443.41 607.26 847.55 387.31 1049.61 404.43 964.16 495.65 851.95 587.97 1031.20 600.50
00056516 00000061 702.37 146.93 442.99 601.56 848.81 388.36 1050.35 403.53 968.32 499.73 859.70 593.14 1030.76 603.97
00056517 00000062 699.47 151.54 442.42 602.10 845.41 391.96 1047.85 405.14 967.05 506.98 858.84 600.18 1029.97 609.54
00056518 00000063 695.80 158.59 442.55 602.84 842.57 399.87 1043.93 410.27 966.83 516.91 856.65 608.40 1028.59 615.84
00056519 00000064 694.69 160.27 441.16 606.83 839.26 405.05 1041.90 414.10 963.84 521.66 852.67 615.02 1026.82 621.69
00056520 00000065 695.27 162.23 438.24 607.21 837.06 406.45 1039.54 416.04 960.44 522.40 849.86 617.26 1023.66 624.47
00056521 00000066 694.08 164.44 437.05 607.74 834.20 406.31 1036.90 415.75 957.05 522.73 846.98 619.76 1020.64 626.81
00056522 00000067 693.70 164.19 436.91 607.54 832.19 405.40 1035.65 415.19 954.20 521.07 846.28 619.28 1019.49 626.45
00056523 00000068 691.20 165.92 438.46 606.75 829.81 404.52 1035.21 413.96 952.21 520.55 843.18 618.50 1019.82 625.58
00056524 00000069 691.68 167.54 437.81 605.62 829.65 405.38 1036.54 413.30 952.18 522.09 841.24 619.55 1021.08 625.80
00056525 00000070 690.85 170.90 438.65 603.08 829.05 407.94 1036.78 413.78 951.80 525.49 840.76 620.89 1022.48 625.71
00056526 00000071 690.54 172.43 439.08 603.44 828.56 409.71 1038.09 415.78 951.73 527.59 840.07 622.60 1023.18 627.63
00056527 00000072 690.41 172.05 440.04 604.73 829.17 411.96 1038.67 417.64 952.29 529.34 841.13 623.87 1023.75 628.58
00056528 00000073 690.45 172.51 440.73 607.40 831.60 413.88 1039.39 417.91 955.42 533.18 842.79 626.12 1024.45 629.67
00056529 00000074 692.86 173.99 439.53 610.85 834.49 416.41 1039.92 420.16 956.38 536.78 843.92 629.31 1023.57 632.68
00056530 00000075 697.02 176.47 436.64 619.50 838.56 417.59 1040.41 421.20 958.91 538.33 845.48 631.96 1024.49 635.13
00056531 00000076 698.30 183.66 441.41 614.93 839.61 418.01 1040.91 422.65 963.22 540.40 850.04 631.84 1023.31 634.08
00056532 00000077 700.27 186.07 440.72 613.54 840.26 417.95 1041.92 423.15 963.17 541.33 849.30 631.38 1024.08 634.17
00056533 00000078 697.94 186.42 444.20 612.01 836.63 422.33 1044.60 425.51 960.73 542.78 848.90 634.92 1026.32 635.65
00056534 00000079 704.05 184.87 435.11 610.84 841.50 428.91 1043.80 433.18 963.15 542.99 850.34 635.28 1027.42 637.53
00056535 00000080 702.39 187.01 439.30 605.58 838.76 423.41 1047.99 428.11 962.44 543.51 849.65 635.21 1028.13 637.66
00056536 00000081 705.76 187.70 437.20 601.61 841.39 421.70 1047.01 425.57 964.28 542.89 852.52 634.87 1028.03 636.86
00056537 00000082 705.47 185.45 438.01 602.59 842.43 419.07 1046.92 422.22 966.60 540.86 856.78 635.03 1028.27 636.33
00056538 00000083 707.73 185.80 436.51 601.41 844.21 419.17 1047.53 420.36 969.03 540.61 859.77 636.26 1029.88 636.04
00056539 00000084 708.84 184.54 436.75 602.19 845.86 418.73 1048.33 418.74 970.74 540.23 862.66 636.65 1030.59 635.43
00056540 00000085 710.13 185.97 436.50 600.52 846.82 418.54 1049.28 417.43 972.26 539.46 864.86 637.28 1031.77 635.08
00056541 00000086 710.15 186.43 436.66 599.61 847.17 418.72 1049.27 417.75 972.67 539.10 865.17 636.97 1031.42 634.90
00056542 00000087 709.89 185.83 436.99 599.95 847.45 418.44 1049.32 417.44 973.22 539.09 865.73 636.84 1031.39 634.71
00056543 00000088 709.63 185.80 437.33 600.99 847.63 418.09 1049.31 417.20 973.46 539.07 865.66 636.72 1031.45 634.67
00056544 00000089 709.73 187.28 438.41 602.68 848.05 417.78 1049.11 416.63 973.69 538.53 865.99 637.57 1031.39 635.21
00056545 00000090 709.63 188.20 438.44 604.34 848.15 417.27 1048.94 416.59 973.34 538.41 865.29 638.25 1030.04 636.29
00056546 00000091 709.01 189.32 439.80 607.79 848.77 416.93 1048.39 416.68 973.29 538.84 865.31 639.64 1028.83 638.02
00056547 00000092 709.49 190.40 438.61 609.49 849.15 417.45 1048.00 417.81 972.94 539.23 863.50 639.54 1028.74 638.55
00056548 00000093 709.43 193.09 437.96 608.51 849.74 418.88 1047.82 419.63 972.93 539.94 860.18 636.33 1030.51 635.98
00056549 00000094 708.35 193.80 438.21 606.24 850.62 419.96 1048.56 421.89 974.05 541.69 859.10 634.09 1031.44 634.80
00056550 00000095 708.49 192.68 435.92 602.05 852.05 422.01 1050.14 425.39 977.00 543.83 859.38 633.60 1031.63 635.82
00056551 00000096 707.25 193.02 436.17 598.06 854.07 423.75 1052.27 427.90 980.30 545.31 863.17 636.85 1031.93 639.74
00056552 00000097 710.26 193.87 432.36 596.71 857.18 426.22 1054.24 429.25 985.27 545.14 871.12 643.10 1033.72 644.80
00056553 00000098 714.32 192.57 431.52 599.38 865.14 425.54 1058.41 427.99 994.57 543.54 879.92 642.46 1040.18 643.71
00056554 00000099 718.51 188.80 429.93 601.15 871.41 422.42 1066.24 423.71 1005.85 541.53 885.68 639.76 1049.50 640.40
00056555 00000100 716.90 188.31 436.34 599.53 876.85 420.33 1072.31 419.52 1016.27 538.19 892.37 636.04 1057.70 634.66
00056556 00000101 725.41 183.62 430.59 600.73 884.02 419.49 1081.30 419.59 1016.94 533.85 896.70 630.56 1066.10 632.38
00056557 00000102 726.53 181.95 430.86 602.54 887.06 420.30 1083.19 417.96 1022.30 533.54 894.70 627.65 1068.71 627.54
00056558 00000103 726.21 180.95 432.52 606.24 886.87 421.23 1082.88 417.05 1022.40 534.47 892.16 626.51 1070.64 624.96
00056559 DELETE   725.43 177.26 432.53 611.49 881.39 419.02 1078.70 415.11 1015.12 531.73 886.95 625.19 1067.72 623.49
00056560 00000105 720.99 179.42 437.93 599.85 873.54 416.15 1079.15 413.75 1002.13 527.77 882.12 619.36 1069.61 618.28
00056561 00000106 723.99 181.86 431.80 585.98 868.14 412.31 1077.68 412.16 991.82 518.95 880.66 617.00 1067.61 617.08
00056562 00000107 719.45 171.80 430.76 592.18 863.66 410.59 1069.56 413.52 994.60 518.79 884.82 619.50 1060.38 622.06
00056563 00000108 722.30 171.74 426.75 593.13 864.42 409.35 1068.21 412.86 994.28 519.14 892.99 628.32 1055.10 630.88
00056564 00000109 726.94 178.07 429.61 593.51 870.37 411.13 1076.74 414.18 994.35 522.89 893.52 633.53 1058.18 636.67
00056565 00000110 730.52 176.14 429.25 603.21 875.24 415.11 1080.51 418.29 1001.41 528.86 897.61 638.41 1059.82 642.03
00056566 DELETE   734.33 176.07 427.57 611.68 879.48 416.15 1082.66 421.13 1008.21 533.92 902.39 642.00 1062.98 647.44
00056567 00000112 740.59 179.06 424.78 612.61 884.66 417.38 1086.73 424.03 1014.59 533.18 907.58 644.85 1065.55 651.70
00056568 00000113 742.18 174.58 425.20 616.80 888.62 418.26 1088.74 426.64 1016.22 529.76 907.45 641.18 1065.48 649.28
00056569 DELETE   741.51 172.08 427.77 620.90 890.70 415.86 1090.74 423.46 1019.92 526.71 906.50 637.03 1069.77 644.29
CROP_BBOX: 458 0 1544 1017
