Video ID: 	Xd5ySYjaom8
H: 	1080
W: 	1920
FPS: 	29.97002997002997

FRAME INDEX X0 Y0 W H [Landmarks (5 Points)]

00027691 00000000 547.49 60.90 396.19 592.78 673.45 321.38 854.82 291.99 811.72 398.44 734.43 521.97 883.74 496.60
00027692 00000001 550.28 63.83 397.24 593.59 674.31 324.29 858.13 294.78 812.71 403.05 736.79 527.87 885.88 502.00
00027693 00000002 553.07 74.40 401.90 597.63 678.59 333.84 869.28 307.80 818.32 417.07 736.85 540.24 891.55 517.21
00027694 00000003 554.98 77.72 401.13 602.14 681.20 341.88 876.57 318.13 821.39 430.05 735.08 548.23 896.39 527.51
00027695 00000004 557.40 75.62 400.71 608.48 685.96 337.94 878.55 320.59 823.69 427.80 733.91 545.82 894.31 530.49
00027696 00000005 563.07 68.38 395.60 613.15 689.90 323.53 881.77 316.00 825.32 413.17 730.09 535.51 890.91 528.65
00027697 00000006 562.62 64.50 396.79 608.68 690.06 315.93 881.99 310.67 824.74 405.54 727.80 526.35 889.31 520.86
00027698 00000007 563.82 63.06 395.85 605.90 690.60 313.85 883.82 311.96 824.91 404.83 726.73 523.53 888.99 520.60
00027699 00000008 564.95 65.79 394.86 605.76 695.76 317.47 886.73 319.41 827.75 411.46 727.15 525.85 887.82 526.49
00027700 00000009 566.06 73.78 395.97 603.49 702.87 325.19 894.80 330.43 837.61 417.99 730.52 531.07 892.44 535.55
00027701 00000010 572.82 75.86 392.57 603.43 712.44 331.30 900.25 333.72 849.36 423.00 741.79 535.83 900.93 538.72
00027702 00000011 578.41 75.40 391.66 601.38 718.05 330.60 906.08 329.40 859.22 418.52 750.09 535.35 910.18 535.59
00027703 00000012 580.94 67.98 391.72 606.48 719.48 324.56 908.23 318.77 864.84 411.17 756.33 531.03 918.19 526.85
00027704 00000013 581.18 66.08 394.66 607.05 719.38 324.11 907.67 312.79 867.35 407.15 761.19 530.47 924.20 521.05
00027705 00000014 583.42 70.58 396.16 600.85 719.35 329.04 909.05 312.94 869.30 410.07 766.19 534.95 929.00 521.46
00027706 00000015 587.93 75.89 399.36 587.44 725.76 343.00 912.21 320.04 874.57 419.70 780.97 541.46 936.46 522.17
00027707 00000016 591.01 79.99 400.48 587.27 729.52 351.10 918.65 323.36 878.43 434.85 787.45 551.32 940.98 527.79
00027708 00000017 598.47 90.36 398.54 594.10 730.14 358.95 915.02 323.62 871.79 445.50 795.86 560.36 949.68 531.28
00027709 00000018 601.55 101.12 400.81 591.91 736.08 374.97 921.24 335.47 877.27 462.72 799.53 573.14 953.43 540.55
00027710 DELETE   607.88 108.19 397.93 601.86 740.00 385.84 926.74 345.89 883.46 474.92 797.18 584.98 953.88 552.04
00027711 00000020 611.90 110.76 396.70 601.38 741.47 389.20 932.54 351.90 885.06 478.37 796.92 589.47 954.60 558.42
00027712 00000021 613.49 113.57 397.84 598.34 744.01 391.18 935.23 354.17 886.48 480.52 796.26 589.33 955.44 558.59
00027713 DELETE   613.44 114.79 398.57 596.05 744.92 392.42 935.48 355.67 886.40 481.52 795.74 588.25 954.71 557.78
00027714 00000023 613.81 116.47 398.00 592.80 744.97 394.27 935.38 357.85 885.03 483.71 794.31 587.56 954.08 557.25
00027715 00000024 611.69 117.54 400.00 592.59 744.35 395.49 935.42 360.97 883.23 486.28 791.65 587.40 952.37 558.68
00027716 00000025 609.77 119.69 399.50 595.74 741.36 396.51 933.05 361.94 881.30 487.02 788.21 588.34 951.52 559.66
00027717 00000026 608.06 119.79 396.55 603.64 737.18 396.58 930.94 361.74 879.22 487.39 783.75 590.63 950.73 561.86
00027718 00000027 601.42 124.44 398.69 595.70 731.00 395.78 928.40 362.51 881.37 486.87 773.09 596.02 944.19 569.21
00027719 00000028 599.56 123.04 398.27 597.15 726.73 395.64 923.66 362.15 876.63 486.84 768.57 595.24 941.20 568.18
00027720 00000029 596.45 122.69 398.29 598.61 722.65 394.65 920.93 362.74 871.70 487.88 762.20 593.08 938.91 567.27
00027721 00000030 594.52 122.77 397.75 600.11 719.27 394.57 917.70 362.13 867.82 489.19 757.85 592.29 937.55 566.13
00027722 00000031 592.06 122.10 398.00 600.96 717.39 394.84 913.79 362.14 865.46 488.95 755.07 591.31 934.33 564.85
00027723 00000032 589.70 121.95 397.90 600.83 714.78 395.30 910.16 362.58 861.92 489.65 751.26 590.99 930.35 564.57
00027724 00000033 587.73 121.89 397.63 601.35 713.14 395.47 908.24 361.58 861.59 489.37 749.63 591.23 929.04 563.89
00027725 00000034 586.92 121.07 397.65 602.17 712.11 395.32 907.51 362.18 860.31 489.05 749.04 590.87 928.49 564.08
00027726 00000035 586.90 121.04 397.80 601.38 711.78 395.26 907.29 362.08 859.60 488.26 749.48 590.77 928.80 563.79
00027727 00000036 587.00 120.90 398.13 602.20 711.58 394.91 906.92 361.31 858.95 487.57 749.62 590.41 929.07 562.86
00027728 00000037 586.89 120.29 398.86 603.75 711.04 394.68 906.81 360.76 858.01 486.65 748.56 589.80 929.64 561.91
00027729 00000038 587.13 119.58 399.13 606.52 711.39 394.00 906.53 361.02 857.70 486.16 748.44 590.01 928.64 562.96
00027730 00000039 587.34 118.51 398.89 605.85 710.63 393.07 906.53 360.78 856.62 485.39 747.92 589.43 928.75 562.83
00027731 00000040 586.94 118.02 400.77 606.10 710.15 391.26 906.61 359.89 855.70 485.02 745.77 587.43 928.75 561.55
00027732 00000041 586.14 115.83 401.33 605.24 707.85 390.52 905.24 358.33 852.60 485.41 742.64 586.42 926.46 560.02
00027733 00000042 584.03 111.71 404.23 606.42 703.02 390.28 901.79 356.94 845.03 482.94 740.51 585.53 924.35 557.40
00027734 00000043 579.21 108.34 407.57 607.13 693.55 387.33 892.08 353.20 830.04 479.54 735.21 584.14 915.87 554.37
00027735 DELETE   569.09 102.41 409.32 616.63 685.45 382.84 882.36 349.45 812.66 478.03 728.97 584.79 901.52 555.79
00027736 00000045 557.85 99.28 414.91 614.03 671.93 376.37 869.82 342.99 800.95 472.29 723.16 581.46 892.14 552.34
00027737 00000046 551.40 98.73 415.47 607.26 660.49 366.85 858.65 339.34 786.11 467.00 712.05 572.32 880.26 547.89
00027738 00000047 549.78 98.47 411.42 604.32 650.06 361.24 846.74 335.93 768.26 459.69 701.03 566.67 867.37 545.21
00027739 00000048 545.46 90.06 410.41 611.67 644.61 355.38 837.56 331.68 758.61 452.43 695.49 563.74 857.02 544.03
00027740 00000049 543.49 84.18 409.47 619.53 641.05 349.78 834.26 326.60 754.13 447.93 689.59 562.79 851.27 543.98
00027741 00000050 538.62 81.44 409.00 613.18 634.02 347.45 833.62 325.73 746.95 446.55 677.17 554.30 850.48 536.60
00027742 00000051 535.22 80.68 409.54 606.87 629.94 346.71 830.51 323.02 743.44 442.57 674.41 546.85 851.70 528.20
00027743 00000052 534.38 82.20 410.02 603.09 629.14 346.17 828.16 319.68 743.88 437.26 675.11 542.85 854.25 521.85
00027744 00000053 534.82 81.39 412.04 608.02 631.55 345.28 828.23 314.47 749.67 435.72 680.53 542.26 860.29 517.15
00027745 00000054 535.47 83.62 413.05 606.07 635.20 347.87 831.59 314.40 758.08 435.56 687.81 543.83 867.42 516.21
00027746 00000055 534.55 88.26 412.82 602.73 637.22 354.32 834.70 316.62 765.10 440.09 693.07 548.49 873.50 517.59
00027747 00000056 536.04 89.48 412.02 604.61 638.39 361.44 834.87 319.82 767.39 447.64 699.75 556.36 876.72 522.26
00027748 00000057 529.98 97.13 417.64 596.73 636.69 368.12 832.16 319.97 767.57 450.90 705.46 563.31 878.89 523.83
00027749 00000058 524.66 102.02 421.83 593.00 634.44 373.43 829.16 320.85 765.95 455.41 707.27 567.64 879.79 524.76
00027750 DELETE   518.48 108.21 424.81 588.29 624.74 381.45 819.31 321.55 758.90 463.16 707.44 576.19 879.84 526.47
00027751 00000060 507.93 114.24 428.58 588.58 611.31 393.67 806.90 328.72 744.73 471.32 698.96 584.59 871.18 530.55
00027752 DELETE   491.30 127.51 435.69 581.92 604.83 406.64 792.12 336.63 736.01 480.81 686.15 596.75 844.09 537.87
00027753 DELETE   482.20 129.09 441.01 580.57 600.94 409.30 785.52 342.74 731.40 485.80 683.66 598.42 834.70 542.84
00027754 DELETE   480.24 131.82 440.97 581.34 599.98 411.79 784.68 346.16 730.32 489.80 681.07 600.06 833.12 545.13
00027755 00000064 479.47 128.53 438.21 581.95 599.30 410.05 785.04 344.32 731.14 488.37 679.30 598.22 832.98 543.34
00027756 00000065 479.87 126.27 437.53 582.19 600.25 406.91 786.35 341.72 732.90 485.44 680.18 596.48 833.82 542.03
00027757 00000066 480.72 123.93 438.15 586.87 600.87 406.23 787.25 339.37 735.14 483.22 681.32 596.98 836.76 540.97
00027758 00000067 480.01 126.44 440.25 585.93 600.52 407.28 786.05 337.26 736.41 483.25 685.95 599.03 839.46 540.28
00027759 DELETE   480.48 127.99 444.55 584.69 596.48 409.02 779.40 337.80 729.76 482.99 688.35 600.08 842.07 538.50
00027760 00000069 478.79 134.08 444.54 584.85 594.39 413.83 778.07 343.28 728.51 487.85 686.27 605.32 841.30 544.77
00027761 00000070 478.50 136.73 443.31 590.83 594.45 418.10 779.08 349.26 728.51 497.68 683.22 609.10 841.24 550.42
00027762 00000071 479.85 141.25 442.61 589.18 594.74 419.36 783.20 353.97 728.60 504.59 680.44 611.37 842.23 555.11
00027763 00000072 482.49 141.99 440.62 588.06 598.34 419.83 789.36 359.28 732.54 505.48 679.63 611.16 843.62 558.82
00027764 00000073 485.78 139.78 437.74 588.24 603.02 418.59 795.99 360.53 737.95 505.38 679.70 609.74 846.49 559.05
00027765 00000074 489.54 138.03 433.14 589.50 607.06 417.82 799.60 359.49 742.66 506.02 682.82 610.03 848.86 559.36
00027766 00000075 491.19 135.95 432.14 590.28 608.36 417.82 801.16 359.05 744.69 505.01 683.18 609.48 850.54 558.19
00027767 00000076 491.94 135.69 431.89 590.23 609.50 417.66 802.49 359.53 745.77 504.68 683.97 609.38 851.69 558.45
00027768 00000077 493.63 137.29 431.05 589.49 610.86 417.42 803.13 359.74 746.61 504.98 684.62 610.16 851.51 559.63
00027769 00000078 494.15 137.78 430.66 588.83 611.49 417.69 803.98 360.19 747.37 505.91 684.65 610.33 852.03 559.91
00027770 00000079 495.26 138.66 430.40 588.84 612.64 418.55 804.72 360.73 748.58 506.52 686.50 611.32 853.04 560.65
00027771 00000080 496.70 138.83 429.97 589.13 614.36 419.03 806.05 361.08 750.70 507.29 688.04 612.02 854.31 561.28
00027772 00000081 498.49 138.32 428.97 589.01 615.81 418.58 807.70 359.96 752.89 506.87 689.61 611.92 856.11 560.59
00027773 00000082 498.96 139.48 429.29 589.13 617.01 418.28 808.94 360.34 754.28 506.47 690.75 612.08 857.32 561.27
00027774 00000083 500.19 140.23 428.54 590.20 618.10 418.00 809.44 360.57 754.92 505.17 691.45 612.94 856.63 562.56
00027775 00000084 499.42 138.90 429.92 593.22 617.44 416.81 809.14 360.25 754.12 504.42 690.54 612.52 856.52 562.83
00027776 00000085 498.90 137.52 430.20 595.07 616.38 414.98 807.84 359.75 751.49 502.91 689.70 612.00 854.49 563.35
00027777 00000086 495.99 136.32 432.15 595.23 613.12 413.80 804.69 359.33 746.90 501.88 686.21 611.13 850.56 563.07
00027778 00000087 491.93 133.53 435.22 599.55 606.79 411.46 799.06 358.25 737.91 501.47 680.04 610.13 844.37 563.31
00027779 00000088 488.12 134.20 438.51 597.56 601.52 409.46 790.71 357.26 729.31 497.42 677.31 609.10 835.60 563.37
00027780 00000089 484.50 129.54 439.10 601.37 593.24 403.91 780.62 352.02 719.32 493.40 671.06 608.08 826.15 562.61
00027781 00000090 481.51 126.73 438.51 599.45 580.88 401.62 771.54 352.05 702.49 494.82 658.80 606.99 816.86 563.45
00027782 00000091 473.96 123.14 431.33 596.98 573.36 396.71 762.08 352.10 687.23 494.07 641.75 595.28 799.48 557.62
00027783 00000092 471.55 120.05 429.53 589.97 566.49 388.46 755.60 350.05 674.41 487.08 629.80 586.13 788.23 553.72
00027784 00000093 470.40 114.97 430.40 591.89 559.73 381.81 748.41 348.56 662.27 482.95 619.05 579.39 779.96 551.15
00027785 00000094 472.03 111.78 427.89 594.14 556.37 377.45 743.85 345.42 654.79 478.67 614.34 577.15 774.52 549.94
00027786 00000095 473.38 109.60 425.88 598.45 554.20 374.66 740.77 342.36 649.77 474.40 612.57 576.74 771.78 549.63
00027787 00000096 475.08 107.72 424.20 602.68 554.95 371.38 739.60 339.67 647.64 470.97 611.19 575.00 770.45 548.26
00027788 00000097 476.96 109.43 422.91 600.50 557.50 369.38 739.83 337.47 648.95 467.93 612.67 571.79 771.82 544.88
00027789 00000098 479.01 108.49 422.97 601.48 559.86 368.98 741.46 336.40 650.79 466.22 614.61 569.98 774.30 542.28
00027790 00000099 480.67 107.12 423.29 602.27 563.77 367.79 744.50 334.01 655.60 461.95 618.77 567.57 777.37 538.71
00027791 00000100 481.63 104.64 423.14 597.09 567.55 365.01 748.41 330.65 663.05 455.98 624.01 563.52 779.44 534.07
00027792 00000101 484.32 100.60 420.83 594.53 570.73 362.40 751.64 328.68 667.65 451.09 626.87 559.08 780.55 529.99
00027793 00000102 485.91 98.18 419.48 592.34 572.04 359.08 754.54 326.43 670.15 447.92 627.83 556.06 782.66 528.05
00027794 00000103 486.34 96.20 418.91 592.80 571.28 358.42 754.89 325.36 669.88 446.06 627.45 556.12 782.20 527.87
00027795 00000104 485.54 95.44 419.91 593.41 570.06 357.23 753.83 324.02 667.93 445.23 626.98 555.57 782.39 527.14
00027796 00000105 484.96 95.73 420.05 594.24 568.48 357.96 752.06 323.02 666.24 444.77 625.96 556.58 781.51 526.79
00027797 00000106 483.88 95.16 421.14 594.79 567.11 358.73 750.51 322.67 664.57 446.30 625.83 557.25 781.66 526.44
00027798 00000107 483.16 95.08 422.09 595.72 565.56 359.50 748.01 322.39 662.09 447.16 625.11 558.28 780.49 526.58
00027799 00000108 483.16 94.70 421.38 594.43 564.23 360.51 746.88 323.30 660.43 448.11 623.73 558.27 779.18 526.42
00027800 00000109 482.57 94.32 421.36 593.49 562.64 360.25 746.05 323.84 658.53 448.71 621.55 558.10 777.48 526.96
00027801 00000110 481.57 94.20 422.03 592.24 560.56 360.71 744.46 324.04 656.28 450.14 619.40 558.25 776.04 526.89
00027802 00000111 480.51 94.07 423.36 592.13 559.64 360.80 743.02 324.59 654.12 451.15 618.26 557.95 774.46 526.95
00027803 00000112 480.69 93.90 423.16 591.90 558.19 361.07 742.68 324.96 652.36 451.82 616.12 558.30 773.68 527.41
00027804 00000113 479.27 94.46 425.05 590.94 556.81 361.07 741.78 325.43 650.49 452.23 614.69 558.46 772.40 527.98
00027805 00000114 478.45 94.25 425.08 589.19 555.44 361.00 741.66 325.85 649.29 452.17 612.96 558.32 770.73 528.36
00027806 00000115 477.84 94.57 424.13 586.91 554.23 361.14 740.85 325.97 648.36 452.15 611.50 557.85 769.38 527.86
00027807 00000116 476.31 94.61 424.82 585.19 552.96 361.65 739.42 326.53 647.22 451.92 610.02 557.14 767.45 527.25
00027808 00000117 475.23 94.84 424.86 584.83 551.82 361.31 737.97 326.79 645.66 452.22 608.70 556.86 765.52 527.54
00027809 00000118 473.54 94.31 426.37 585.87 550.23 360.74 736.92 325.94 644.77 453.11 607.93 556.76 765.29 527.28
00027810 00000119 473.11 95.36 426.63 587.07 549.17 358.90 735.42 324.13 642.62 452.54 607.48 557.36 763.91 527.82
00027811 00000120 472.13 94.31 426.44 587.87 548.45 357.56 734.22 322.52 642.10 451.16 607.78 557.55 761.81 527.97
00027812 00000121 471.19 93.10 426.81 588.77 547.27 356.22 733.29 320.55 641.25 450.03 607.49 557.56 761.70 527.28
00027813 00000122 469.92 92.53 426.76 589.35 546.63 355.93 733.05 319.36 641.18 449.31 607.52 558.11 761.99 527.26
00027814 00000123 469.85 92.79 425.86 589.29 546.18 355.88 733.74 318.78 641.49 449.55 608.05 559.04 763.10 527.79
00027815 00000124 468.04 94.07 427.77 586.75 545.95 356.09 734.14 318.80 642.09 449.88 608.13 559.12 764.67 527.68
00027816 00000125 466.72 93.18 428.73 587.72 545.15 356.37 734.00 318.30 642.03 450.15 607.52 559.58 765.69 527.40
00027817 00000126 464.97 93.67 430.76 587.00 544.24 356.66 733.74 318.34 641.90 450.19 607.18 559.99 765.12 527.65
00027818 00000127 465.97 93.76 429.22 586.87 544.59 357.16 733.64 318.74 642.11 450.23 607.43 560.37 765.16 528.00
00027819 00000128 465.96 93.84 427.96 586.27 544.68 357.71 733.80 319.10 643.12 449.76 607.51 560.13 765.50 527.65
00027820 00000129 466.11 94.20 428.29 585.86 545.43 357.26 734.27 318.45 644.36 449.18 608.61 560.00 766.08 527.43
00027821 00000130 466.97 94.05 427.46 585.55 546.05 357.69 734.77 318.17 645.43 448.06 609.20 558.96 767.64 525.90
00027822 00000131 466.53 94.16 427.54 582.94 546.50 358.14 734.36 318.76 646.38 447.53 609.55 557.00 767.30 524.26
00027823 00000132 466.01 94.00 426.90 581.46 544.38 357.78 733.68 318.42 645.19 447.96 607.56 555.80 766.09 522.93
00027824 00000133 466.28 94.37 426.25 580.00 544.47 358.20 733.91 319.57 644.78 447.67 606.55 555.25 765.62 523.01
00027825 00000134 466.85 94.25 424.72 580.04 545.44 357.83 736.18 321.04 645.54 448.32 605.48 555.33 765.27 524.62
00027826 00000135 467.45 93.31 424.86 583.14 547.72 357.26 738.43 320.80 648.10 447.61 606.75 555.69 767.48 525.35
00027827 00000136 468.42 92.42 423.97 588.67 549.56 355.83 739.84 319.92 649.33 447.50 607.27 556.37 770.34 526.36
00027828 00000137 469.41 91.65 422.61 592.11 551.22 354.74 741.30 319.97 650.97 448.42 608.03 556.80 771.30 527.52
00027829 00000138 469.39 90.43 422.53 594.17 551.29 353.89 742.51 318.83 652.19 447.70 608.36 557.20 772.44 527.86
00027830 00000139 469.83 90.33 421.32 596.71 550.63 353.76 741.27 317.95 651.07 446.92 609.05 559.73 772.02 529.72
00027831 00000140 468.39 89.73 421.89 599.13 549.61 353.92 740.01 317.55 650.43 447.24 609.52 561.22 770.13 530.78
00027832 00000141 467.88 90.63 421.66 596.25 548.82 354.87 739.54 319.16 649.46 447.75 608.23 560.21 768.26 530.18
00027833 00000142 467.09 91.06 421.33 592.42 548.34 356.08 739.97 321.17 650.79 449.95 607.33 558.82 767.78 529.40
00027834 00000143 465.99 92.87 421.95 587.59 548.14 356.81 740.55 322.48 651.19 451.21 607.07 558.16 767.69 529.13
00027835 00000144 466.76 93.94 420.82 585.62 548.65 358.72 741.04 325.54 650.89 451.39 605.61 557.43 767.67 529.42
00027836 00000145 466.75 96.26 420.56 582.15 549.15 358.91 741.45 327.03 650.77 452.74 605.59 557.39 766.77 530.37
00027837 00000146 466.34 96.16 421.04 583.28 548.28 359.39 741.44 327.16 650.26 453.11 604.73 557.78 767.17 530.46
00027838 00000147 466.57 96.62 421.02 582.24 548.29 360.64 740.88 328.66 649.49 453.94 604.71 557.77 766.93 530.67
00027839 00000148 467.05 96.92 419.66 582.46 547.95 361.06 741.22 329.28 649.45 454.99 604.33 558.62 766.94 531.82
00027840 00000149 466.20 98.89 421.85 585.46 547.25 361.69 740.54 329.59 648.45 456.28 605.63 562.16 767.88 534.84
00027841 00000150 466.38 99.81 421.35 585.42 547.73 362.03 740.15 329.71 648.36 457.07 607.55 564.33 767.94 536.77
00027842 00000151 466.60 100.56 421.52 585.97 548.45 361.97 740.25 330.01 648.80 457.08 608.34 565.22 767.82 537.90
00027843 00000152 467.12 101.05 420.77 585.27 549.55 361.57 741.19 329.54 650.69 457.44 609.51 565.34 768.58 538.06
00027844 00000153 467.60 101.34 421.22 585.37 550.54 361.31 742.84 329.37 652.13 456.64 609.90 564.94 770.21 537.72
00027845 00000154 467.39 101.23 421.49 584.51 550.67 361.58 743.23 329.11 652.85 456.54 610.10 564.21 770.74 536.71
00027846 00000155 466.22 101.09 421.98 585.03 549.33 362.36 741.68 330.19 651.45 456.92 608.62 564.06 769.52 536.72
00027847 00000156 462.44 100.09 422.79 584.73 547.01 362.43 740.14 331.67 649.43 458.26 604.66 562.04 766.91 535.76
00027848 00000157 461.00 99.10 422.40 584.31 544.95 361.81 738.44 330.92 647.05 458.36 602.97 561.99 765.19 535.59
00027849 00000158 459.90 99.09 423.39 584.65 544.31 361.92 737.67 331.14 646.27 458.56 602.12 561.69 764.53 535.36
00027850 00000159 459.23 99.93 423.35 583.90 544.02 362.26 737.15 331.13 646.00 458.28 601.82 561.84 764.19 535.32
00027851 00000160 458.58 98.20 424.52 585.88 543.59 362.20 737.03 330.41 645.75 458.08 601.52 561.82 764.76 534.81
00027852 00000161 458.51 98.19 424.44 585.81 543.61 361.88 737.09 330.28 645.46 458.23 601.02 560.97 764.67 534.12
00027853 00000162 457.89 97.71 425.60 586.38 543.06 361.63 736.81 329.72 644.82 458.01 600.59 560.57 764.95 533.47
00027854 00000163 458.36 96.86 424.49 587.01 542.64 361.06 736.60 328.61 644.61 456.99 599.83 559.59 766.19 531.91
00027855 00000164 461.07 96.53 422.86 587.23 542.38 360.84 737.94 327.91 644.85 456.54 598.62 558.48 768.33 530.32
00027856 00000165 463.55 94.24 422.14 589.81 545.41 359.93 740.65 327.39 648.49 455.67 600.71 557.03 771.41 529.15
00027857 00000166 467.97 93.72 422.88 591.84 550.90 358.36 744.95 325.80 654.33 454.61 605.08 555.33 777.36 527.35
00027858 00000167 474.33 92.70 421.57 594.01 556.98 356.64 752.63 324.91 660.73 453.17 609.87 554.14 784.68 527.00
00027859 00000168 482.87 91.72 419.53 596.28 568.45 352.80 761.53 322.87 672.74 446.78 620.50 550.65 792.17 524.81
CROP_BBOX: 214 0 1269 957
