Video ID: 	6lUux0B9Kt0
H: 	1080
W: 	1080
FPS: 	25.0

FRAME INDEX X0 Y0 W H [Landmarks (5 Points)]

00000509 00000000 362.42 188.85 344.63 549.39 479.00 422.16 637.01 400.34 592.88 532.19 489.21 588.25 652.33 571.11
00000510 00000001 362.64 188.16 343.65 548.99 476.91 419.98 636.31 398.79 591.51 532.31 481.65 582.93 652.02 566.43
00000511 00000002 360.51 186.81 343.45 548.96 475.26 416.64 634.98 398.79 588.39 531.57 476.61 579.44 648.69 565.66
00000512 00000003 359.63 185.58 343.05 547.72 473.12 414.88 633.31 399.30 584.02 531.62 473.29 577.12 646.17 564.99
00000513 00000004 356.21 185.75 346.03 545.97 470.69 413.37 631.66 398.97 580.54 531.32 472.38 577.48 643.29 566.17
00000514 00000005 353.36 184.88 347.60 547.18 468.17 413.93 629.66 397.98 578.74 530.30 468.53 577.66 640.10 565.08
00000515 DELETE   354.15 186.04 344.77 544.24 468.52 421.53 627.80 405.84 576.03 530.04 466.16 578.43 637.38 565.77
00000516 DELETE   351.82 184.99 346.72 546.87 466.65 419.24 627.38 404.49 574.10 529.63 464.25 578.44 635.76 566.53
00000517 00000008 350.97 184.05 346.25 545.86 463.97 412.65 624.69 401.16 570.56 528.16 463.27 575.08 634.32 565.64
00000518 DELETE   350.92 183.28 345.56 545.01 461.46 410.00 622.78 398.04 568.30 526.93 461.93 573.05 633.59 563.16
00000519 00000010 335.57 127.79 339.19 501.54 451.03 331.44 603.45 299.67 570.30 402.97 505.16 514.79 626.99 486.03
00000520 DELETE   334.56 129.64 336.14 501.66 446.58 332.31 597.29 300.88 563.81 405.24 499.73 515.47 622.16 487.08
00000521 00000012 331.12 135.07 333.67 498.29 440.05 334.99 589.65 309.39 552.99 410.96 486.24 515.13 611.02 492.16
00000522 00000013 327.90 135.14 331.86 502.16 435.45 335.78 586.13 311.04 549.04 415.92 478.38 517.84 606.59 495.98
00000523 00000014 329.56 136.23 328.13 507.15 439.02 336.63 584.96 312.39 552.55 418.29 479.63 520.73 605.64 499.17
00000524 00000015 328.91 138.38 328.43 511.76 440.94 339.46 584.79 317.21 553.74 420.66 475.86 523.02 603.59 503.75
00000525 00000016 328.21 139.22 327.35 509.94 443.24 347.10 586.30 327.16 555.52 422.72 474.01 521.37 602.82 504.80
00000526 00000017 326.61 140.86 327.92 508.37 440.83 348.09 584.05 329.08 551.77 427.29 471.52 521.86 601.14 505.69
00000527 00000018 324.74 141.18 329.17 511.86 436.37 346.77 580.04 326.52 547.72 430.45 471.49 527.02 600.10 509.41
00000528 00000019 323.89 144.65 328.95 508.68 435.37 349.59 577.72 328.92 544.61 436.68 470.83 529.09 598.74 511.21
00000529 00000020 322.48 148.58 331.37 506.80 434.18 353.67 577.33 332.78 543.20 443.35 468.72 530.32 599.27 512.59
00000530 00000021 322.49 150.29 331.91 505.76 432.99 357.60 577.55 336.44 542.35 446.94 469.80 532.65 600.25 514.97
00000531 00000022 322.82 151.74 330.69 505.15 432.11 360.27 579.30 338.11 543.93 450.71 471.18 536.33 601.70 518.12
00000532 00000023 321.74 151.31 331.63 510.13 432.82 362.48 579.06 341.19 543.62 453.94 471.76 538.98 600.74 521.30
00000533 00000024 321.76 152.01 332.73 514.50 432.47 365.35 581.17 343.89 545.08 458.31 467.35 541.57 599.99 524.35
00000534 00000025 321.65 152.91 333.64 521.49 432.81 370.59 583.48 349.13 545.08 460.43 463.92 544.90 600.12 528.08
00000535 00000026 324.75 155.10 332.48 522.02 433.98 375.06 586.35 354.14 546.09 464.99 464.97 549.45 601.54 533.06
00000536 00000027 325.50 154.48 334.11 523.28 433.67 376.83 585.45 352.25 546.75 468.29 466.85 549.19 604.96 529.56
00000537 00000028 328.21 159.63 333.50 521.62 434.81 375.64 587.87 353.11 547.40 470.76 469.15 553.29 604.58 535.25
00000538 00000029 328.87 160.99 335.63 529.23 438.38 374.44 594.87 351.70 551.62 472.79 472.90 562.67 604.69 541.83
00000539 00000030 330.76 163.34 335.63 527.33 440.71 378.06 596.73 355.05 554.36 475.48 475.24 563.97 608.15 542.91
00000540 00000031 330.75 166.14 338.00 523.68 443.42 383.04 597.95 358.51 558.09 477.74 474.61 563.22 610.63 541.23
00000541 00000032 332.37 169.01 339.30 522.55 445.37 388.48 600.44 361.96 561.17 482.53 475.02 564.58 614.45 541.11
00000542 00000033 333.01 169.77 338.84 527.02 449.70 391.65 604.02 366.58 564.83 487.51 475.38 566.85 615.51 544.89
00000543 00000034 337.03 172.64 333.09 527.17 450.92 398.05 605.92 375.71 563.28 490.06 476.41 568.38 615.12 549.71
00000544 00000035 339.45 170.97 334.12 524.73 457.90 395.23 607.62 374.69 567.52 492.51 489.36 574.43 614.24 555.88
00000545 00000036 340.00 169.49 335.46 525.20 460.32 390.81 609.94 368.25 571.03 488.62 491.33 569.85 616.98 549.57
00000546 00000037 340.11 172.06 336.49 519.03 457.58 391.17 611.16 369.25 568.52 487.74 486.43 565.24 619.41 546.70
00000547 00000038 340.09 171.10 337.92 521.79 457.11 390.75 612.10 368.50 571.03 486.35 484.90 565.37 620.65 546.75
00000548 00000039 340.91 168.68 339.07 530.67 463.21 388.09 614.56 366.21 577.54 486.36 489.56 570.28 620.48 551.00
00000549 00000040 342.16 169.74 338.69 532.57 465.42 388.36 616.57 368.31 578.84 486.69 487.85 571.35 621.15 553.86
00000550 00000041 342.89 169.34 338.38 536.79 467.64 388.69 617.40 368.69 580.71 486.05 488.26 572.71 622.28 555.33
00000551 00000042 344.32 167.76 336.92 539.74 470.50 391.57 620.55 368.70 586.96 481.94 492.01 575.06 626.25 555.44
00000552 00000043 346.55 170.85 336.71 525.37 463.94 389.57 620.94 368.93 580.77 477.59 494.26 570.94 628.93 553.33
00000553 00000044 344.20 169.47 338.27 524.36 459.75 384.44 619.57 359.79 580.67 477.74 491.43 567.79 629.83 547.08
00000554 00000045 343.34 167.48 337.46 524.04 455.66 381.65 616.16 358.25 575.56 476.51 488.46 567.07 626.27 547.29
00000555 00000046 340.54 165.74 339.72 527.78 456.80 379.88 615.85 355.84 577.10 475.42 486.02 568.35 621.62 547.37
00000556 00000047 338.61 169.10 340.75 526.41 456.39 380.35 614.28 356.52 575.02 475.54 485.17 566.97 622.43 545.86
00000557 00000048 338.43 169.83 340.16 522.15 454.71 380.94 613.71 356.52 573.74 475.47 485.82 566.64 623.52 544.95
00000558 00000049 337.58 168.87 339.84 521.35 454.27 381.22 612.09 357.62 572.40 475.55 485.78 566.06 620.67 545.12
00000559 00000050 336.54 169.69 340.09 521.31 454.44 382.64 610.31 359.23 571.72 478.15 482.25 564.45 618.19 543.92
00000560 00000051 335.87 171.57 338.95 520.39 453.79 385.85 608.94 361.99 570.51 483.13 478.32 564.08 617.32 543.34
00000561 00000052 334.30 172.33 339.18 521.16 452.51 386.40 607.66 362.35 569.84 483.45 476.55 564.07 616.61 543.16
00000562 00000053 334.29 172.20 338.15 524.39 453.14 386.00 606.42 362.30 569.69 483.51 476.43 565.31 615.10 544.58
00000563 00000054 333.52 170.20 337.61 527.32 451.84 386.43 604.15 362.70 567.04 483.27 478.11 567.56 613.59 546.55
00000564 00000055 332.72 170.44 335.72 524.99 449.24 386.38 601.09 363.53 563.38 483.63 477.75 569.22 609.70 548.84
00000565 00000056 332.75 171.03 334.92 522.48 447.04 388.21 600.30 364.59 562.37 484.41 475.24 569.13 609.69 548.19
00000566 00000057 331.39 171.56 336.07 521.79 444.74 389.00 598.63 365.33 559.19 485.99 473.47 568.77 609.42 547.80
00000567 00000058 330.23 170.90 336.25 523.36 442.76 387.63 596.23 364.71 556.40 484.27 471.56 568.57 607.26 548.13
00000568 00000059 330.57 171.12 336.18 522.90 443.43 387.98 596.21 364.55 557.48 483.79 474.03 568.64 608.49 547.58
00000569 00000060 330.21 170.89 337.13 523.86 445.13 389.05 597.57 364.38 560.49 484.77 474.21 568.47 610.53 546.52
00000570 00000061 329.91 171.92 337.53 524.73 447.55 391.82 598.75 365.94 563.88 487.66 474.59 570.29 610.51 547.88
00000571 00000062 330.50 173.48 336.96 522.93 448.08 392.92 600.44 366.21 565.55 489.51 477.78 571.83 612.47 548.55
00000572 00000063 330.32 174.39 337.14 522.83 449.99 393.89 601.04 366.99 567.92 490.50 482.89 574.68 613.98 551.14
00000573 00000064 330.75 175.45 336.57 522.11 450.28 396.13 600.76 367.08 568.89 490.97 485.19 576.60 615.45 551.26
00000574 00000065 331.64 177.00 335.23 522.38 449.80 396.73 600.40 368.97 568.02 491.64 485.44 578.54 615.69 554.16
00000575 00000066 330.56 178.39 336.77 522.39 448.50 397.86 599.96 369.97 566.88 493.15 483.52 579.28 615.50 554.82
00000576 00000067 330.25 177.92 337.16 522.80 448.35 398.03 600.09 370.21 566.64 492.99 483.41 579.34 615.63 554.92
00000577 00000068 329.87 177.69 337.13 523.13 448.32 398.09 600.02 370.12 566.61 493.21 483.01 579.17 615.41 554.63
00000578 00000069 329.69 178.06 336.93 521.57 448.43 397.34 599.62 369.31 566.67 492.73 483.44 578.20 614.92 553.61
00000579 00000070 329.41 177.56 336.88 522.29 447.94 396.79 599.31 368.29 566.71 491.88 483.24 578.35 614.81 553.37
00000580 00000071 322.11 175.87 335.87 530.75 433.10 396.54 581.98 380.18 538.79 499.61 465.88 580.38 597.13 565.44
00000581 00000072 322.58 176.75 335.57 530.17 434.34 396.26 581.86 379.56 538.97 499.27 468.25 580.45 597.84 565.08
00000582 00000073 322.78 176.06 335.70 530.60 434.66 396.06 582.83 379.51 539.87 498.99 468.64 580.30 598.16 565.06
00000583 00000074 322.71 175.28 337.86 528.87 433.58 397.16 585.24 378.57 541.93 499.81 467.97 579.19 601.76 562.14
00000584 00000075 323.48 174.87 337.05 528.41 434.40 396.19 585.11 379.24 541.47 498.71 467.95 578.42 599.45 562.93
00000585 00000076 324.26 174.73 335.98 531.51 435.67 395.35 584.77 378.51 541.27 498.73 468.71 580.62 599.08 565.13
00000586 00000077 324.44 175.73 336.29 531.70 437.38 395.53 585.48 377.91 543.14 498.68 469.69 581.06 600.19 564.94
00000587 00000078 324.94 176.30 335.91 530.21 438.17 396.00 585.60 377.70 543.87 498.25 471.23 580.58 601.06 563.87
00000588 00000079 325.71 175.99 335.00 529.07 438.81 396.18 586.26 378.31 544.45 498.59 472.07 580.48 600.02 564.19
00000589 00000080 325.93 175.52 335.65 526.92 437.67 397.75 588.55 378.72 546.24 499.90 470.44 580.16 601.57 562.94
00000590 00000081 326.31 176.15 335.40 523.59 437.69 397.20 589.31 377.77 546.80 498.77 470.58 578.78 602.25 561.18
00000591 00000082 326.23 172.50 335.97 529.43 438.98 396.86 589.85 378.48 547.02 497.82 469.68 577.54 601.80 560.78
00000592 00000083 329.15 170.84 333.61 534.09 436.21 399.10 593.39 377.53 546.72 493.88 464.47 571.38 607.05 553.53
00000593 00000084 325.55 171.33 336.55 533.66 438.47 399.62 590.31 380.36 548.10 498.42 464.63 577.14 603.18 559.75
00000594 00000085 326.40 173.36 336.57 531.26 438.88 398.09 591.56 378.61 548.72 498.86 466.10 577.90 603.53 560.38
00000595 00000086 326.68 174.76 336.67 530.00 439.19 397.88 591.30 378.94 548.57 499.96 466.48 577.77 603.22 560.74
00000596 00000087 327.00 175.44 336.39 530.03 439.17 397.65 591.60 378.42 549.10 500.35 466.64 578.44 603.42 561.27
00000597 00000088 326.70 176.37 336.65 530.10 439.10 397.78 590.49 378.58 548.50 500.04 467.26 578.82 603.61 561.65
00000598 00000089 326.55 176.31 336.44 529.41 439.52 397.07 590.32 378.66 547.96 499.79 469.67 579.73 603.09 563.10
00000599 00000090 325.98 175.78 336.05 528.29 439.34 396.99 589.56 378.81 547.55 500.26 470.23 579.47 602.23 562.99
00000600 00000091 325.78 176.03 336.52 528.13 439.37 396.54 588.98 378.80 546.75 500.01 471.19 579.23 601.99 563.09
00000601 00000092 325.70 175.53 336.36 529.29 439.23 396.07 588.73 378.52 546.43 499.73 471.85 579.67 601.76 563.64
00000602 00000093 325.22 176.19 336.10 530.38 440.82 396.22 587.49 378.18 546.76 499.84 472.08 580.48 600.72 564.05
00000603 00000094 324.74 176.18 336.02 529.15 439.94 395.84 587.13 378.68 545.51 500.23 471.92 579.92 599.83 564.19
00000604 00000095 325.05 175.90 336.12 527.84 437.85 397.13 589.21 378.97 546.31 502.74 470.63 581.88 600.57 565.42
00000605 00000096 325.75 175.90 336.14 526.87 438.20 397.85 591.28 378.38 548.14 502.68 470.64 580.39 604.57 562.66
00000606 00000097 328.52 174.79 334.49 530.23 440.50 395.55 592.69 378.38 548.93 502.05 473.18 581.39 602.77 565.65
00000607 00000098 331.40 174.93 333.67 532.76 444.42 393.72 596.85 377.41 552.87 501.15 475.57 582.36 604.58 567.24
00000608 00000099 336.66 172.89 332.37 529.05 444.45 392.25 604.50 374.81 555.61 494.23 473.44 573.13 610.52 558.54
00000609 00000100 337.06 170.40 333.91 529.15 446.35 390.90 606.55 374.41 557.32 492.97 472.05 570.41 610.59 556.70
00000610 00000101 334.19 170.10 337.14 532.02 450.49 387.54 606.67 375.84 560.85 495.28 474.33 574.62 605.43 563.57
00000611 00000102 335.08 172.49 336.88 528.27 450.49 383.71 605.29 375.32 556.92 489.71 476.29 572.37 604.10 563.56
00000612 00000103 336.31 171.38 336.59 525.52 451.53 382.23 608.27 373.23 560.29 489.50 476.96 570.79 606.82 561.65
00000613 00000104 338.07 169.63 336.37 526.02 453.64 381.66 611.36 370.70 565.42 491.38 477.21 569.28 609.55 558.85
00000614 00000105 339.16 168.65 336.61 525.98 452.19 381.03 611.68 370.13 563.71 490.91 476.24 568.59 609.44 558.15
00000615 00000106 339.93 166.05 338.05 527.93 449.86 377.68 608.98 370.74 554.82 487.73 475.51 568.01 602.44 560.56
00000616 00000107 342.75 164.66 336.91 526.65 450.73 375.36 608.23 369.70 551.97 486.58 475.98 565.49 599.44 559.08
00000617 00000108 345.48 163.53 335.25 520.51 456.76 374.53 610.10 369.03 555.18 483.82 478.41 559.09 602.86 553.84
00000618 00000109 348.91 158.66 336.41 522.94 464.08 373.62 613.48 367.56 560.60 479.88 485.12 557.09 608.26 551.00
00000619 00000110 352.64 155.50 335.25 523.37 466.52 370.12 616.71 365.40 562.29 476.46 487.41 555.15 609.91 550.08
00000620 00000111 355.68 154.74 334.98 523.52 469.97 368.52 619.84 363.88 564.51 475.63 490.36 554.46 612.34 549.23
00000621 00000112 359.69 153.63 334.80 522.39 476.36 369.13 626.36 364.23 570.52 474.00 495.33 552.52 617.68 546.82
00000622 DELETE   372.52 149.91 324.34 525.29 483.71 367.87 634.38 367.96 580.21 472.09 495.03 542.77 624.57 543.32
00000623 DELETE   377.02 150.25 323.40 522.62 487.60 366.92 636.25 365.82 584.08 470.07 500.21 542.39 626.79 542.10
00000624 00000115 379.18 148.69 325.79 523.73 490.24 363.00 637.16 362.43 585.59 468.23 502.36 541.05 627.87 541.24
00000625 00000116 383.54 148.46 324.53 523.02 492.98 359.89 640.25 359.73 588.56 465.95 504.81 540.92 630.20 541.27
00000626 00000117 387.03 148.45 324.23 520.52 497.38 358.20 644.01 357.95 592.82 464.42 509.61 538.80 636.59 538.72
00000627 00000118 389.62 148.36 324.86 520.28 503.23 356.40 647.73 357.79 596.99 464.02 513.48 537.20 638.48 538.22
00000628 00000119 393.31 149.81 324.64 516.89 508.28 354.72 652.86 357.30 601.93 462.46 518.55 536.94 641.76 538.74
00000629 00000120 397.45 150.59 323.60 515.30 511.47 353.96 657.56 356.94 606.48 460.97 521.39 536.64 646.12 538.62
00000630 00000121 401.62 151.61 322.18 514.83 514.62 353.86 660.31 358.12 609.46 462.78 523.92 538.17 648.54 541.14
00000631 00000122 401.52 151.00 323.55 519.13 514.52 354.30 661.78 360.56 608.83 464.08 520.48 538.93 647.40 543.57
00000632 00000123 400.92 153.05 322.71 514.47 514.87 357.73 662.36 366.52 605.26 463.76 516.97 538.82 642.65 545.60
00000633 00000124 400.69 153.56 323.29 514.27 514.31 359.99 660.81 369.65 602.56 465.08 514.75 538.54 640.28 546.13
00000634 00000125 403.06 152.73 321.87 515.44 515.89 355.59 662.76 364.79 604.93 462.67 519.28 537.85 645.02 544.84
00000635 00000126 405.81 151.97 320.55 514.19 519.08 354.63 664.39 361.33 608.57 462.42 526.10 538.59 648.42 543.30
00000636 00000127 406.15 153.89 322.39 511.63 520.40 354.41 665.67 360.36 609.86 463.00 527.94 538.43 650.28 542.38
00000637 00000128 404.52 153.93 324.37 512.34 518.04 355.70 665.09 361.69 609.21 464.29 524.73 539.10 648.73 543.25
00000638 00000129 403.99 154.68 323.35 512.75 515.62 357.05 664.37 363.88 607.42 465.64 521.27 539.64 648.48 544.53
00000639 00000130 402.68 154.36 323.94 516.40 514.97 358.74 663.77 366.51 606.99 467.67 519.48 540.88 647.97 546.60
00000640 00000131 401.30 156.91 324.80 516.13 512.10 360.90 660.76 367.93 602.80 469.04 517.47 542.75 645.07 548.10
00000641 00000132 398.36 157.61 326.11 518.04 508.88 362.55 657.16 368.67 597.50 471.38 513.03 543.38 640.75 548.22
00000642 00000133 395.71 158.50 326.61 518.93 501.60 362.32 653.35 368.56 591.55 471.69 507.04 544.07 637.58 549.26
00000643 00000134 394.42 159.71 327.97 519.28 498.13 363.10 653.20 370.35 588.21 473.12 502.85 545.64 635.21 551.88
00000644 00000135 394.38 159.95 328.83 520.63 499.56 365.09 654.45 371.31 590.64 475.81 505.21 548.18 636.95 553.54
00000645 00000136 393.82 160.95 328.52 518.96 498.49 367.76 655.50 373.25 591.22 477.40 503.67 548.51 638.02 553.16
00000646 00000137 391.22 162.92 330.39 519.07 496.11 369.75 653.13 376.03 587.48 478.87 499.79 548.31 635.11 553.75
00000647 00000138 389.91 165.39 328.90 517.19 491.53 371.10 650.29 376.34 582.83 481.76 497.39 551.40 632.62 556.10
00000648 00000139 389.39 166.20 328.06 520.37 490.57 374.49 648.61 378.64 582.31 486.70 497.58 554.19 632.52 558.02
00000649 00000140 389.17 167.43 327.74 522.74 488.79 377.49 648.09 379.32 581.44 491.17 498.86 558.76 635.06 560.57
00000650 00000141 388.12 169.35 327.30 522.10 487.37 379.85 646.11 379.88 580.90 492.73 498.85 560.08 635.45 560.52
00000651 00000142 386.22 168.85 327.96 523.68 486.65 381.34 645.72 380.56 581.10 493.43 498.76 561.56 634.73 561.41
00000652 00000143 384.28 168.37 329.28 528.20 484.79 382.07 643.96 381.02 579.49 496.35 497.55 564.55 632.16 564.31
00000653 00000144 383.39 169.80 328.57 529.11 483.81 384.31 641.07 383.19 577.16 498.29 496.40 566.08 629.61 565.84
00000654 00000145 381.45 169.68 329.37 531.14 482.28 386.95 641.00 384.16 577.49 500.87 495.12 568.18 629.39 566.68
00000655 00000146 379.90 171.08 330.12 531.54 480.21 389.12 640.35 385.35 576.92 503.34 494.16 570.77 630.41 568.48
00000656 00000147 379.38 171.35 328.98 538.93 479.80 390.51 638.26 388.51 574.99 505.09 493.81 574.54 628.38 573.57
00000657 00000148 377.56 172.82 328.83 543.92 479.35 391.33 636.24 391.02 573.52 505.90 492.10 577.71 624.96 578.18
00000658 00000149 375.58 173.51 329.29 544.98 477.20 393.24 635.43 392.48 572.23 506.69 490.03 578.92 624.39 579.00
00000659 00000150 368.50 176.97 335.95 539.64 483.56 394.53 633.67 399.64 573.84 514.64 492.81 580.52 620.52 584.84
00000660 00000151 368.03 177.80 335.22 539.71 483.51 396.10 633.17 400.49 574.40 515.92 494.49 583.22 619.99 587.01
00000661 00000152 368.61 177.67 334.40 542.82 484.24 397.21 634.52 401.56 575.96 518.12 495.79 585.89 621.08 589.60
00000662 00000153 369.35 176.54 334.16 542.78 486.35 399.51 636.04 405.08 577.18 518.56 497.23 585.10 620.66 589.66
00000663 00000154 370.17 174.98 334.50 541.70 487.10 401.56 636.22 405.99 578.95 518.32 498.86 585.05 621.63 588.65
00000664 00000155 376.76 171.46 327.08 541.25 480.11 398.29 637.99 396.89 575.10 509.21 492.95 579.48 622.74 578.92
00000665 00000156 378.41 170.36 327.67 535.22 482.04 392.93 639.75 393.23 575.90 505.53 491.96 573.71 621.15 574.92
00000666 00000157 380.18 168.92 327.92 533.25 483.81 388.35 640.71 389.46 576.77 502.30 493.11 570.08 622.43 571.99
00000667 00000158 382.62 169.53 328.58 531.14 484.40 387.43 642.93 387.59 578.43 501.80 494.23 568.34 628.02 569.09
00000668 00000159 385.26 171.95 329.07 530.29 487.73 385.08 645.01 387.06 579.48 500.49 496.41 567.49 629.89 569.61
00000669 00000160 389.37 170.88 327.98 527.29 490.79 380.71 648.90 385.85 581.29 494.69 497.45 563.73 628.99 568.50
00000670 00000161 391.64 163.87 331.30 528.33 499.39 376.23 653.83 385.30 587.16 489.89 501.73 558.12 630.10 565.96
00000671 00000162 393.83 158.24 331.11 527.01 502.98 375.20 658.14 384.60 592.09 484.62 504.37 553.69 633.64 561.75
00000672 00000163 398.72 153.44 332.25 533.09 509.82 371.40 664.63 384.90 598.02 482.67 507.80 551.36 640.10 562.29
00000673 00000164 401.97 154.00 334.75 533.58 515.53 368.70 669.41 385.05 602.77 482.34 510.88 551.46 642.51 564.65
00000674 00000165 405.94 154.72 335.11 536.16 521.96 366.70 673.34 385.92 606.43 481.00 514.88 552.06 644.83 567.45
00000675 00000166 408.58 155.64 335.13 532.43 527.91 368.22 678.10 389.01 609.91 481.29 519.43 551.46 647.95 567.90
00000676 00000167 410.35 158.75 339.56 525.69 533.63 371.15 681.27 392.78 614.24 483.38 523.27 548.62 651.29 565.63
00000677 00000168 418.14 161.39 335.22 522.96 537.04 367.97 687.66 392.27 618.95 483.12 519.34 540.20 653.17 561.35
00000678 00000169 417.08 164.23 338.63 523.10 537.55 368.07 689.42 393.82 618.36 483.93 516.92 540.73 651.84 563.14
00000679 00000170 419.38 165.29 339.83 522.52 537.22 369.59 689.58 395.69 615.53 487.66 516.61 542.58 649.67 565.35
