Video ID: 	95XQ2K78dSk
H: 	1080
W: 	1920
FPS: 	23.976009326447663

FRAME INDEX X0 Y0 W H [Landmarks (5 Points)]

00002379 00000000 671.94 99.35 378.08 576.88 791.71 387.51 962.93 354.41 912.15 472.54 842.08 573.14 979.39 545.36
00002380 00000001 671.49 98.43 378.13 579.41 792.03 386.67 962.73 353.69 912.51 471.90 842.46 573.39 978.73 545.78
00002381 00000002 671.58 98.77 377.79 580.58 792.48 387.08 963.01 354.61 912.51 472.68 841.77 574.06 977.96 546.86
00002382 00000003 674.17 102.34 375.91 580.72 794.28 389.30 963.43 356.27 913.87 473.90 841.99 575.21 978.40 547.57
00002383 00000004 674.95 103.97 375.81 581.10 794.76 391.07 962.81 357.68 913.50 476.48 842.27 576.62 978.27 548.66
00002384 00000005 678.04 106.34 372.13 579.52 796.89 397.96 961.51 364.03 913.96 479.39 843.56 578.61 978.62 549.78
00002385 DELETE   680.14 103.86 371.00 582.24 801.51 397.48 964.38 365.76 916.30 479.91 845.33 578.20 978.92 551.16
00002386 DELETE   679.57 106.14 372.94 579.68 801.35 397.29 964.44 363.60 916.95 479.33 846.55 578.57 979.67 550.04
00002387 00000008 678.26 106.70 375.39 577.20 801.00 395.27 965.81 362.73 917.67 477.90 847.17 576.96 980.77 549.46
00002388 00000009 677.33 108.01 378.03 573.71 800.01 391.90 966.77 360.11 917.16 479.16 848.07 577.41 980.34 550.71
00002389 00000010 679.14 105.89 376.53 576.31 800.68 390.37 968.87 360.38 917.51 479.40 848.30 577.54 981.53 552.30
00002390 00000011 678.54 104.95 378.31 576.97 802.39 389.38 970.97 359.25 920.01 478.22 850.02 577.22 982.87 551.81
00002391 00000012 679.60 104.45 377.80 576.78 803.13 389.24 971.81 359.90 920.99 477.79 849.83 575.67 983.57 550.83
00002392 00000013 683.15 101.39 375.93 575.64 807.90 374.08 976.58 351.24 927.85 466.70 861.38 559.71 999.82 540.42
00002393 00000014 680.09 102.88 379.00 575.07 803.43 386.63 975.79 358.50 923.52 474.56 849.72 572.44 987.25 548.59
00002394 00000015 684.08 101.53 374.82 582.08 809.50 373.70 973.94 352.44 926.83 465.88 863.15 561.25 996.13 543.66
00002395 00000016 683.73 100.30 375.28 586.28 808.30 372.48 974.27 353.16 925.95 466.37 859.81 560.16 996.22 544.03
00002396 00000017 678.11 100.52 380.28 583.41 805.01 382.04 975.85 354.52 924.63 471.71 848.43 571.46 985.96 548.38
00002397 00000018 678.04 99.00 380.55 581.21 804.16 377.41 976.61 351.20 925.05 467.82 849.75 568.55 987.65 546.56
00002398 00000019 677.45 97.65 381.60 580.37 804.90 374.87 976.14 348.97 925.52 464.25 850.85 566.27 987.59 544.57
00002399 00000020 679.35 92.88 380.59 582.29 806.26 371.28 979.10 344.83 928.08 463.50 853.99 565.16 990.78 542.94
00002400 00000021 678.46 93.77 381.52 579.78 805.71 369.03 978.76 340.56 928.82 461.21 856.18 564.04 991.58 540.06
00002401 00000022 678.33 92.31 382.45 580.38 806.35 364.93 978.63 337.73 929.09 458.61 856.30 561.19 990.92 538.25
00002402 00000023 678.86 89.89 381.95 582.34 807.16 363.13 978.13 337.42 928.19 457.77 855.75 558.94 990.39 537.20
00002403 00000024 679.12 92.45 381.93 579.44 805.97 362.28 978.61 337.82 926.83 457.79 853.53 558.07 989.65 537.39
00002404 00000025 676.49 93.70 381.83 576.49 799.55 364.00 976.04 340.01 920.84 459.96 848.47 560.02 987.12 539.93
00002405 00000026 674.05 99.47 379.84 573.30 795.01 368.60 970.89 339.76 917.67 463.82 844.82 563.73 982.75 539.79
00002406 00000027 666.74 93.75 379.84 577.06 786.99 369.88 962.59 339.50 908.78 466.40 838.12 564.80 975.70 539.24
00002407 00000028 658.54 95.67 379.06 576.15 777.85 370.04 949.14 335.67 898.14 468.33 833.48 567.21 965.14 538.30
00002408 00000029 652.38 94.37 378.83 577.67 770.52 372.77 938.67 336.10 889.12 469.87 829.00 567.90 959.20 537.03
00002409 00000030 645.25 99.15 378.99 574.34 765.16 375.52 932.44 337.54 884.30 470.85 825.08 567.81 956.22 535.55
00002410 00000031 642.31 102.09 377.97 573.61 761.92 378.82 927.20 339.86 880.84 474.31 826.54 571.25 953.90 537.91
00002411 00000032 639.46 99.30 378.77 579.20 758.10 381.72 923.29 341.54 878.16 476.11 826.40 574.07 953.36 539.34
00002412 00000033 637.85 100.07 379.63 580.75 755.81 384.71 921.13 344.93 876.01 478.05 824.91 574.93 952.79 540.42
00002413 00000034 637.77 103.07 378.84 578.71 754.88 388.06 919.76 346.50 875.18 480.65 824.24 576.47 952.97 540.42
00002414 00000035 636.65 102.95 379.65 578.74 755.00 390.20 919.22 347.88 875.63 481.56 825.68 577.64 953.21 540.96
00002415 00000036 637.11 101.62 380.22 579.94 756.20 391.80 919.55 347.71 877.18 480.41 828.90 579.23 955.48 541.00
00002416 00000037 637.81 101.15 380.67 578.97 757.67 389.58 920.90 344.42 878.87 477.23 830.83 577.91 957.05 538.85
00002417 00000038 637.93 98.50 380.44 579.65 757.06 385.09 921.10 340.79 878.35 474.89 829.81 575.96 956.01 537.62
00002418 00000039 637.47 98.69 380.31 579.47 755.90 382.84 919.45 339.03 876.94 472.18 827.73 573.54 954.46 535.61
00002419 00000040 636.67 97.79 380.30 581.69 755.38 381.87 919.06 339.10 875.91 470.87 826.27 572.78 953.00 535.78
00002420 00000041 637.01 97.83 379.68 585.07 756.09 382.85 918.42 341.40 875.72 472.44 826.21 573.68 952.09 537.85
00002421 00000042 637.11 98.63 379.40 586.25 756.15 383.31 918.83 343.06 875.31 475.57 825.03 575.07 950.86 540.34
00002422 00000043 637.26 97.72 379.51 589.76 755.40 383.25 919.16 344.58 874.22 475.49 821.50 574.67 949.80 541.34
00002423 00000044 640.47 99.00 377.00 586.50 756.63 386.23 920.45 349.10 873.12 474.98 818.18 572.64 949.87 540.75
00002424 00000045 645.88 100.89 372.67 581.17 759.77 389.26 922.67 353.20 872.51 472.76 815.64 570.03 948.74 539.36
00002425 00000046 646.13 100.36 377.69 581.01 760.32 385.13 926.84 349.23 874.92 471.99 815.74 569.30 952.02 538.76
00002426 00000047 646.61 98.49 380.09 585.28 762.12 380.45 930.94 344.90 879.27 472.53 817.55 570.95 953.98 540.83
00002427 00000048 649.61 99.37 379.29 583.33 764.63 376.47 934.77 341.06 883.26 471.44 820.83 570.56 957.17 540.58
00002428 00000049 650.79 101.09 378.95 577.70 767.06 374.24 936.02 338.60 885.09 469.08 824.69 569.24 956.63 539.28
00002429 00000050 652.88 98.36 379.48 580.42 768.05 371.53 936.14 337.17 884.66 466.87 824.68 568.58 955.60 539.89
00002430 00000051 654.14 96.27 379.84 580.53 769.28 367.75 937.98 335.88 885.48 464.15 823.85 564.58 955.97 537.84
00002431 00000052 656.30 92.34 378.42 577.64 771.59 364.37 940.61 332.74 888.45 462.31 824.48 559.77 958.20 533.31
00002432 00000053 660.04 90.56 379.01 573.35 777.24 357.68 949.59 328.85 895.52 458.01 827.15 554.22 962.86 530.01
00002433 00000054 664.94 86.64 379.83 571.38 783.69 353.33 959.36 330.49 903.23 451.82 833.30 550.27 970.60 530.82
00002434 00000055 671.76 90.83 377.11 563.05 789.49 350.28 966.55 329.40 909.56 447.89 835.52 545.27 975.01 527.84
00002435 00000056 675.13 94.49 376.95 560.56 794.79 345.25 970.89 328.45 914.40 440.59 835.89 537.42 978.69 523.55
00002436 00000057 676.89 84.95 377.13 562.77 795.67 339.81 971.98 324.27 917.39 430.22 839.06 530.93 983.22 517.76
00002437 00000058 680.34 79.40 373.74 560.02 796.36 331.68 972.62 316.74 917.55 420.45 843.58 525.87 983.48 512.80
00002438 00000059 684.06 74.73 373.29 562.60 800.61 322.93 975.19 310.05 921.84 411.78 846.60 518.34 985.61 507.17
00002439 00000060 687.46 80.15 370.16 550.05 808.39 315.03 982.60 300.02 930.51 397.16 848.68 508.44 989.98 496.10
00002440 00000061 688.56 78.32 369.59 547.47 811.46 310.84 984.11 295.81 934.50 392.43 850.96 504.12 991.49 492.06
00002441 00000062 687.20 83.83 371.00 540.18 812.40 308.29 983.46 292.28 936.73 384.87 853.02 500.76 991.38 487.95
00002442 00000063 686.39 83.82 370.90 535.28 811.19 302.37 982.57 286.83 935.92 374.43 853.66 497.03 989.86 484.63
00002443 00000064 686.53 78.19 369.62 530.66 812.29 298.26 982.58 284.05 935.71 370.64 853.01 489.53 989.46 477.62
00002444 00000065 689.68 81.53 366.08 519.25 814.85 292.77 985.87 280.51 938.32 365.35 855.59 483.87 990.71 473.19
00002445 00000066 682.69 74.64 374.23 527.19 820.00 286.38 988.93 281.38 938.36 370.43 862.89 473.29 995.05 469.09
00002446 00000067 683.38 72.06 374.01 529.54 821.28 288.21 988.96 282.51 940.26 369.42 864.51 472.79 996.67 467.97
00002447 00000068 683.15 70.93 375.60 534.53 821.48 297.13 988.39 289.30 939.69 374.19 863.52 475.30 997.94 468.67
00002448 00000069 684.46 69.44 374.00 537.96 823.07 303.02 988.91 294.28 939.87 379.42 863.41 478.49 997.08 471.27
00002449 00000070 685.38 67.56 373.64 542.85 824.95 306.98 988.44 298.91 940.97 382.80 863.26 481.45 995.51 474.84
00002450 00000071 684.92 67.23 375.92 546.85 825.16 310.74 988.92 301.16 941.73 386.40 864.13 485.81 996.55 477.94
00002451 00000072 689.29 73.45 374.31 555.23 826.39 309.99 985.76 298.09 944.57 388.97 868.02 498.66 993.96 489.85
00002452 00000073 689.74 76.20 372.18 555.08 824.68 314.37 984.11 301.33 942.90 395.71 867.09 503.34 993.60 493.67
00002453 00000074 690.85 77.17 371.23 557.51 823.10 318.13 984.65 305.12 941.60 400.78 865.36 506.69 994.61 496.91
00002454 00000075 696.12 75.87 366.46 550.78 819.70 328.38 988.93 313.06 939.64 406.73 857.76 512.42 996.95 500.57
00002455 00000076 693.80 72.12 369.18 555.97 816.82 332.32 986.54 316.94 937.44 413.68 856.11 515.41 995.52 503.31
00002456 00000077 694.23 76.00 368.21 555.42 813.49 336.86 986.23 321.84 934.08 417.43 851.94 517.72 996.70 505.92
00002457 00000078 693.48 80.96 368.38 553.98 812.72 341.68 985.75 325.88 932.12 422.43 851.81 522.11 996.67 509.36
00002458 00000079 692.13 82.41 372.04 557.83 811.44 345.51 984.35 329.88 930.02 429.28 851.54 527.17 994.51 514.27
00002459 00000080 689.62 79.25 373.68 574.87 812.74 341.28 979.68 329.30 927.07 437.01 853.82 531.86 992.92 521.73
00002460 00000081 690.19 85.76 374.61 571.20 812.90 343.26 980.11 332.04 925.93 440.64 855.51 534.49 992.89 525.01
00002461 00000082 689.46 86.80 375.80 571.62 811.83 344.31 980.49 332.98 925.10 442.63 855.55 537.57 992.73 527.94
00002462 00000083 690.04 87.40 374.18 573.90 810.96 347.37 980.24 335.10 924.58 447.90 854.89 539.67 993.73 529.26
00002463 00000084 690.07 85.94 374.39 577.38 810.12 348.57 980.41 335.79 924.01 451.36 853.32 540.97 994.14 530.15
00002464 00000085 690.26 85.61 373.53 578.45 809.69 350.00 979.76 337.78 923.63 452.85 852.41 541.29 994.24 530.85
00002465 00000086 690.71 84.65 373.44 582.70 809.03 352.09 979.87 339.91 922.74 453.63 851.51 542.98 993.78 532.54
00002466 00000087 690.63 84.51 374.51 584.79 809.42 352.25 979.64 340.28 922.80 454.42 852.26 543.86 993.41 533.53
00002467 00000088 690.07 85.65 375.07 583.75 809.59 353.01 979.64 340.65 923.23 454.81 853.12 543.90 994.21 533.27
00002468 00000089 689.96 85.65 374.73 583.89 809.83 353.70 978.88 340.41 923.60 455.47 854.49 544.58 994.49 533.14
00002469 00000090 689.78 87.14 374.23 582.84 809.72 354.58 979.90 340.94 924.81 456.36 854.83 545.48 996.03 533.74
00002470 00000091 689.42 90.10 374.48 580.33 809.60 356.12 979.83 342.52 925.23 457.72 855.09 546.76 995.97 535.13
00002471 00000092 689.15 91.74 374.85 579.93 809.35 359.20 979.16 345.96 924.63 459.46 854.24 548.13 995.58 536.72
00002472 00000093 688.52 92.54 374.47 580.44 809.06 361.36 977.91 347.66 924.61 460.81 854.57 550.03 995.37 538.21
00002473 00000094 688.30 95.71 374.00 577.90 808.79 363.95 977.42 349.61 924.16 463.23 854.92 551.67 995.56 539.34
00002474 00000095 688.90 95.01 373.16 583.25 808.83 366.19 975.54 352.40 923.25 464.84 856.00 553.94 993.80 542.16
00002475 00000096 688.64 94.55 373.46 588.28 807.82 369.40 975.79 355.55 922.03 468.68 854.77 556.78 993.48 544.83
00002476 00000097 688.91 99.86 373.65 586.74 807.77 372.46 974.78 358.29 921.46 470.91 853.92 558.57 992.48 546.45
00002477 00000098 688.26 101.28 373.89 588.53 807.31 375.36 974.59 360.75 921.20 473.17 853.26 560.27 993.01 547.68
00002478 00000099 687.24 107.05 374.04 585.94 806.12 378.04 973.44 362.99 920.00 474.55 851.48 562.09 991.27 549.31
00002479 00000100 686.86 107.84 373.88 586.49 805.19 379.09 973.22 364.32 918.99 476.02 850.86 563.65 990.55 551.19
00002480 00000101 685.71 107.10 375.09 588.59 804.30 379.71 971.85 365.61 917.64 477.23 848.95 564.38 988.59 552.53
00002481 00000102 679.99 116.04 376.57 583.25 800.00 394.70 968.09 368.90 912.75 485.86 840.00 581.88 977.65 559.88
00002482 00000103 679.55 119.78 376.56 580.61 799.58 396.64 966.93 370.24 912.38 487.79 839.99 583.68 976.51 561.24
00002483 00000104 679.57 118.73 375.56 582.15 798.68 397.64 965.47 372.26 911.46 489.16 839.25 584.20 975.65 562.42
00002484 00000105 678.82 122.54 376.79 580.25 797.90 398.28 965.71 373.78 910.18 490.95 838.01 585.41 975.23 564.34
00002485 00000106 678.51 122.02 376.32 579.98 797.36 400.00 964.02 374.62 910.31 491.80 839.30 586.21 974.60 564.39
00002486 00000107 679.45 125.77 375.12 577.20 797.12 401.16 963.62 376.06 908.94 495.08 839.62 587.93 974.14 566.31
00002487 00000108 679.07 125.24 376.25 577.90 797.03 401.39 963.60 376.77 908.86 495.13 839.01 587.14 974.09 565.86
00002488 00000109 680.02 126.36 374.91 575.75 797.84 401.92 964.11 376.94 909.22 495.50 839.68 586.87 974.74 565.29
00002489 00000110 680.04 126.24 375.81 575.47 798.32 402.04 964.97 376.24 909.58 495.80 840.31 585.93 976.23 563.60
00002490 00000111 679.66 129.51 376.39 569.99 797.86 403.37 966.01 377.16 909.48 497.35 840.10 585.41 977.26 562.57
00002491 00000112 680.95 126.95 375.35 570.67 798.78 403.64 966.88 378.45 909.64 497.95 841.37 585.76 977.52 563.63
00002492 00000113 681.45 126.25 375.37 572.52 798.89 403.09 967.07 377.98 909.54 497.79 842.12 586.49 977.94 564.41
00002493 00000114 680.11 124.68 376.86 575.57 798.86 401.70 966.83 375.39 910.94 497.31 844.31 588.75 978.45 565.85
00002494 00000115 678.49 122.66 377.18 576.87 798.12 400.70 966.14 374.55 911.22 494.52 843.53 588.18 977.03 565.62
00002495 00000116 678.15 121.59 376.00 576.63 797.66 399.96 964.41 373.92 911.02 492.85 843.04 587.21 975.00 564.88
00002496 00000117 676.33 120.52 376.62 572.98 796.01 399.76 965.13 373.73 909.82 492.02 840.48 584.84 974.38 562.39
00002497 00000118 676.13 120.85 377.20 572.19 795.42 399.07 965.29 372.67 910.00 491.15 840.34 584.27 975.29 561.48
00002498 00000119 676.61 119.42 377.17 577.83 796.89 398.67 964.97 371.40 912.04 489.77 842.99 585.77 976.76 562.41
00002499 00000120 677.18 118.05 377.12 581.42 797.70 398.55 964.25 370.36 912.87 490.15 844.37 586.61 976.89 562.43
00002500 00000121 678.03 118.94 376.54 582.02 799.46 398.92 965.39 369.69 915.39 489.74 845.68 586.91 978.45 561.93
00002501 00000122 677.14 116.74 378.19 582.85 799.16 398.66 966.09 369.33 916.04 487.10 845.56 585.82 979.84 560.69
00002502 00000123 680.59 116.93 372.34 582.43 803.49 403.48 966.60 373.46 918.36 488.15 846.60 586.04 979.66 560.00
00002503 00000124 681.00 116.50 370.68 578.38 803.67 403.44 967.50 374.59 917.50 490.09 845.44 584.60 978.72 559.50
00002504 00000125 678.67 116.71 372.66 576.82 798.84 405.94 964.65 375.79 913.46 492.63 845.10 586.98 977.67 560.61
00002505 00000126 676.55 119.87 373.47 574.50 794.71 406.11 962.05 375.70 909.31 495.26 842.71 588.20 976.48 561.84
00002506 00000127 674.56 122.38 374.86 575.98 793.03 404.89 960.71 374.34 907.60 497.18 842.04 590.24 975.35 564.11
CROP_BBOX: 405 0 1296 830
