Video ID: 	K0q3MgX62Y0
H: 	1080
W: 	1920
FPS: 	25.0

FRAME INDEX X0 Y0 W H [Landmarks (5 Points)]

00033187 00000000 720.68 171.51 452.16 619.05 855.07 453.65 1036.98 395.75 991.88 540.36 945.26 659.64 1092.37 613.17
00033188 00000001 730.63 172.30 449.37 614.98 869.43 450.96 1048.28 393.57 1005.38 535.07 956.27 657.74 1099.35 611.71
00033189 DELETE   743.94 164.48 442.16 617.29 886.66 451.98 1056.87 397.61 1017.34 530.36 965.26 651.79 1104.28 608.00
00033190 DELETE   755.39 158.24 443.16 621.23 903.45 445.38 1075.84 392.48 1040.87 522.25 977.99 647.50 1119.46 603.26
00033191 DELETE   768.70 156.72 444.58 614.62 921.96 437.30 1101.77 388.44 1064.59 507.37 994.69 640.65 1141.36 599.71
00033192 00000005 793.18 150.78 435.08 622.99 945.25 429.85 1113.92 384.42 1084.08 502.00 1016.72 627.75 1162.33 591.00
00033193 00000006 801.50 149.30 434.60 625.21 956.52 422.02 1128.80 376.78 1099.99 494.92 1030.83 626.24 1178.10 588.81
00033194 00000007 814.21 149.84 426.21 623.31 975.24 417.40 1140.89 374.99 1118.58 493.95 1048.90 625.81 1184.69 590.22
00033195 00000008 825.13 144.27 421.97 625.35 989.46 413.23 1158.90 373.06 1137.95 486.15 1058.80 622.48 1197.62 588.27
00033196 00000009 830.76 143.11 426.47 624.91 1000.83 410.74 1170.08 371.43 1150.28 479.70 1065.77 619.58 1207.92 586.08
00033197 00000010 837.96 140.10 425.62 624.89 1014.82 407.96 1181.22 370.72 1168.18 474.50 1077.21 617.27 1219.06 585.46
00033198 00000011 842.20 133.86 428.47 626.59 1026.28 407.79 1193.89 373.53 1182.95 467.88 1083.83 611.10 1231.14 581.58
00033199 00000012 850.36 135.10 423.78 623.85 1045.85 407.39 1206.91 370.27 1205.68 473.76 1093.00 610.16 1237.08 579.94
00033200 00000013 855.16 132.42 426.01 620.58 1056.45 400.86 1218.15 367.39 1221.01 468.56 1106.44 605.29 1248.83 577.58
00033201 00000014 859.74 126.27 424.43 622.59 1068.12 397.60 1217.75 362.30 1230.31 466.69 1113.45 599.71 1247.44 571.03
00033202 00000015 870.02 121.91 419.37 627.20 1061.55 393.97 1209.81 357.16 1214.65 456.61 1124.12 592.08 1249.07 561.77
00033203 00000016 866.51 129.61 419.32 616.60 1074.08 386.60 1224.29 360.43 1236.47 453.43 1126.20 593.17 1258.95 570.56
00033204 00000017 874.59 125.56 414.64 621.44 1064.03 384.17 1213.43 350.71 1219.60 445.13 1136.42 590.27 1256.24 562.43
00033205 00000018 876.15 122.53 415.21 623.52 1067.55 378.38 1217.44 345.28 1224.37 439.65 1144.50 589.62 1261.59 561.73
00033206 00000019 876.62 122.17 414.56 620.50 1070.01 374.67 1218.99 343.20 1225.93 437.88 1146.45 587.17 1261.04 560.27
00033207 00000020 874.03 120.76 415.77 618.73 1070.39 371.83 1219.30 339.98 1228.24 434.41 1147.15 583.80 1262.05 556.30
00033208 00000021 872.76 115.27 416.77 621.77 1065.98 370.75 1215.99 338.64 1224.22 430.90 1145.50 581.42 1261.45 553.54
00033209 00000022 869.25 115.21 418.23 619.65 1063.89 368.42 1212.76 337.59 1220.49 429.82 1142.90 578.85 1258.14 551.66
00033210 00000023 867.32 115.28 419.05 618.33 1061.61 367.83 1210.08 338.32 1216.52 430.15 1138.92 576.73 1254.49 550.85
00033211 00000024 862.33 117.84 421.79 612.55 1063.95 369.35 1214.58 332.54 1230.45 432.34 1131.21 584.06 1259.33 552.69
00033212 00000025 859.91 117.27 422.38 611.31 1060.12 370.43 1209.97 332.87 1225.80 431.77 1127.04 583.03 1254.62 551.00
00033213 00000026 857.68 119.77 423.62 607.36 1054.98 369.93 1208.15 331.41 1220.08 431.41 1122.74 583.27 1252.70 550.34
00033214 00000027 854.39 117.23 425.43 609.52 1052.65 370.50 1207.14 331.87 1217.16 432.61 1120.45 584.32 1250.80 551.16
00033215 00000028 846.55 115.50 431.71 613.02 1041.17 372.47 1201.93 330.83 1206.30 433.46 1114.89 587.79 1248.23 551.58
00033216 00000029 840.24 115.59 437.80 611.95 1026.44 375.64 1197.61 331.99 1191.42 435.16 1103.56 587.37 1245.63 548.43
00033217 00000030 837.63 112.61 437.11 618.33 1018.77 375.30 1191.10 332.38 1179.57 436.25 1093.21 586.31 1238.97 548.03
00033218 00000031 831.21 115.98 439.82 620.72 1008.00 373.90 1183.94 331.38 1167.11 438.03 1084.92 589.41 1229.83 551.32
00033219 00000032 828.35 119.97 438.39 619.95 999.48 374.02 1174.45 332.61 1152.85 439.96 1075.23 591.79 1214.48 554.65
00033220 00000033 824.45 123.54 438.90 617.01 991.11 377.31 1166.50 338.19 1142.71 438.07 1068.87 592.85 1205.77 557.84
00033221 00000034 822.27 121.43 437.86 624.47 985.23 380.13 1157.51 337.76 1133.35 439.53 1065.42 597.18 1198.87 559.84
00033222 00000035 819.25 129.45 436.15 618.87 978.85 385.40 1152.55 340.72 1127.80 447.28 1059.49 600.40 1196.37 561.75
00033223 00000036 819.73 126.56 431.79 625.45 974.16 390.61 1146.26 342.64 1121.06 452.77 1055.49 604.11 1191.65 563.65
00033224 00000037 819.88 130.90 428.98 624.62 968.78 393.97 1142.68 345.33 1115.37 464.88 1050.13 608.29 1189.70 567.57
00033225 00000038 809.20 144.09 436.47 616.23 963.28 401.60 1138.06 353.51 1112.02 472.38 1042.67 611.53 1187.48 571.83
00033226 00000039 804.34 144.71 439.77 622.20 958.72 408.62 1134.05 361.63 1106.73 481.32 1037.36 617.10 1184.88 578.14
00033227 00000040 799.75 145.61 440.38 627.09 954.31 420.36 1126.61 370.73 1098.49 495.68 1032.79 624.68 1178.84 583.68
00033228 00000041 794.30 146.98 441.31 635.25 946.56 429.94 1119.59 380.65 1088.74 512.73 1024.25 636.52 1169.76 596.05
00033229 00000042 788.76 167.13 444.37 620.05 939.53 437.48 1114.80 389.89 1078.61 523.84 1018.11 647.26 1160.05 609.47
00033230 00000043 785.33 171.01 445.15 620.67 932.75 445.65 1113.19 398.11 1072.06 535.67 1010.15 654.79 1155.02 617.16
00033231 00000044 783.66 180.34 441.42 621.15 923.53 453.72 1110.02 404.09 1065.97 547.35 1005.21 664.33 1156.74 623.90
00033232 00000045 782.27 185.18 437.63 626.70 918.30 467.80 1105.55 415.52 1060.35 555.19 1002.19 674.99 1154.98 632.38
00033233 00000046 772.45 196.16 441.95 610.32 918.25 480.23 1098.21 421.79 1062.62 556.49 996.51 686.75 1138.89 638.11
00033234 00000047 780.49 191.45 435.22 620.72 922.28 486.55 1103.97 439.00 1058.52 566.90 996.11 679.66 1142.84 641.76
00033235 00000048 770.42 197.03 439.22 608.11 916.15 484.71 1091.64 428.68 1055.75 563.39 992.59 689.43 1128.53 642.93
00033236 00000049 765.95 200.32 442.25 604.82 908.95 480.84 1089.88 425.16 1051.37 565.54 987.17 687.00 1129.50 640.41
00033237 00000050 762.56 205.10 447.22 601.20 900.62 476.21 1086.58 418.78 1043.42 564.72 983.73 686.16 1129.92 637.28
00033238 00000051 762.52 201.51 446.99 602.67 898.41 474.18 1084.12 416.53 1040.76 563.58 981.12 684.52 1127.68 635.58
00033239 00000052 762.04 199.11 447.29 601.67 897.88 469.86 1086.02 414.52 1040.50 562.18 978.91 682.33 1125.84 635.02
00033240 00000053 760.80 197.84 448.58 600.29 895.97 466.55 1085.80 411.44 1039.94 560.87 976.09 679.52 1126.39 632.00
00033241 00000054 758.62 199.06 453.96 601.09 895.89 466.23 1086.93 410.89 1039.63 559.89 971.19 674.70 1129.85 626.39
00033242 00000055 759.18 201.60 455.90 598.52 896.45 465.62 1087.08 409.96 1039.12 559.17 968.79 672.05 1130.61 623.25
00033243 00000056 759.40 199.91 458.79 600.00 896.58 465.24 1087.35 409.07 1038.40 559.47 967.88 670.32 1131.73 621.27
00033244 00000057 760.51 198.00 456.67 601.86 897.48 464.21 1088.82 409.31 1038.88 558.65 967.64 670.85 1130.18 622.88
00033245 00000058 759.80 198.72 458.52 601.41 897.54 463.66 1088.22 408.91 1038.60 557.50 967.90 669.85 1130.09 621.87
00033246 00000059 759.82 196.62 460.10 602.71 898.03 463.11 1089.65 409.00 1038.99 556.74 968.20 669.68 1130.13 622.11
00033247 00000060 760.53 196.04 461.96 604.34 899.26 462.38 1091.68 409.41 1039.82 557.87 968.04 670.27 1129.69 623.81
00033248 00000061 761.45 193.96 462.12 605.97 900.54 461.27 1093.36 409.11 1041.40 555.86 968.99 670.04 1130.17 624.30
00033249 00000062 764.17 194.25 461.95 606.93 903.12 461.45 1096.31 412.05 1042.21 558.61 967.18 669.15 1130.26 625.93
00033250 00000063 779.63 176.68 449.02 627.02 919.32 469.94 1108.65 429.21 1050.52 567.45 974.32 659.76 1138.55 627.61
00033251 00000064 785.41 182.25 446.27 622.54 927.50 470.60 1116.89 430.61 1059.92 567.16 979.90 659.68 1144.54 628.29
00033252 00000065 790.97 182.70 446.19 620.01 932.34 463.77 1124.53 426.71 1065.53 563.15 984.98 657.53 1152.25 628.34
00033253 00000066 793.86 185.11 448.70 619.65 938.31 457.19 1129.17 421.17 1073.23 561.55 993.51 657.81 1156.33 629.90
00033254 00000067 798.90 188.01 445.55 616.21 943.66 453.36 1134.33 417.86 1079.61 560.13 999.02 658.20 1159.73 630.59
00033255 00000068 798.54 185.56 452.70 617.99 947.66 450.54 1138.17 415.59 1083.57 558.53 1003.67 658.51 1162.14 631.21
00033256 00000069 802.85 181.66 453.10 621.06 950.31 445.11 1139.99 412.26 1083.63 554.12 1004.85 656.98 1162.29 631.33
00033257 00000070 804.52 178.34 453.12 624.01 952.54 440.83 1141.05 408.48 1085.84 550.03 1009.12 658.06 1162.29 632.65
00033258 00000071 808.29 176.43 450.95 624.28 958.19 441.26 1142.66 409.06 1088.18 548.84 1013.56 658.12 1162.08 632.86
00033259 00000072 812.38 176.91 445.46 620.52 966.57 447.54 1145.17 416.13 1091.70 549.99 1017.94 658.50 1161.75 633.76
00033260 00000073 814.99 175.39 444.39 621.39 967.24 449.71 1146.27 417.17 1093.20 549.03 1020.50 660.07 1162.87 634.31
00033261 00000074 816.63 177.41 445.52 620.09 968.28 446.75 1151.04 413.72 1097.34 547.44 1021.90 660.99 1166.53 634.98
00033262 00000075 816.28 177.11 447.14 618.65 970.31 439.48 1153.31 408.63 1099.89 545.10 1024.90 658.62 1166.77 634.13
00033263 00000076 815.94 178.94 448.39 616.83 969.64 434.58 1155.26 403.73 1101.03 541.16 1026.44 657.33 1169.41 632.49
00033264 00000077 813.84 178.63 450.19 617.69 968.47 429.91 1156.58 400.03 1102.38 535.49 1025.72 654.37 1171.65 630.17
00033265 00000078 812.34 175.80 451.85 619.52 969.21 424.18 1157.33 395.43 1103.06 531.75 1026.89 651.14 1173.12 627.35
00033266 00000079 812.43 175.14 451.39 617.69 967.66 421.79 1156.76 393.29 1102.53 528.28 1025.35 648.44 1173.33 624.78
00033267 00000080 811.76 172.40 451.86 617.90 966.36 418.98 1154.30 390.85 1101.02 524.55 1024.12 645.44 1172.04 622.06
00033268 00000081 809.73 170.51 452.57 617.24 965.51 416.47 1153.50 389.36 1100.58 521.85 1023.33 642.37 1171.49 619.82
00033269 00000082 809.59 169.04 451.03 615.69 965.33 415.99 1151.15 387.79 1100.56 521.04 1023.90 639.97 1170.98 616.57
00033270 00000083 808.15 165.62 451.55 616.59 965.01 414.81 1149.91 387.00 1100.19 519.57 1023.87 638.11 1170.05 615.06
00033271 00000084 807.29 166.45 450.86 613.37 964.63 415.02 1149.37 387.92 1099.97 519.83 1022.94 637.52 1169.32 615.12
00033272 00000085 807.26 164.61 449.89 615.08 962.84 415.53 1146.77 387.85 1098.01 520.60 1021.61 637.71 1167.54 614.93
00033273 00000086 806.34 165.57 450.90 613.96 962.00 415.71 1146.72 388.08 1097.11 520.06 1020.72 637.90 1166.94 615.14
00033274 00000087 807.24 165.36 449.77 614.10 961.20 415.59 1146.35 388.08 1096.04 520.78 1020.29 638.06 1167.11 615.35
00033275 00000088 805.76 164.66 451.97 616.36 961.78 416.95 1146.25 389.46 1096.04 521.57 1020.86 638.98 1167.16 616.26
00033276 00000089 807.34 163.21 451.10 615.11 965.20 426.47 1144.08 396.14 1094.95 521.67 1023.93 640.97 1165.76 616.51
00033277 00000090 813.79 159.36 445.14 617.33 967.53 431.98 1144.99 400.57 1095.98 521.98 1025.52 642.69 1165.15 617.93
00033278 00000091 814.73 161.81 445.08 616.76 969.49 431.93 1148.44 401.54 1099.23 523.20 1025.02 642.81 1167.96 618.63
00033279 00000092 815.72 163.47 445.81 618.22 973.29 427.05 1155.31 398.12 1106.22 524.11 1027.84 644.02 1172.51 620.27
00033280 00000093 817.73 168.29 443.38 616.12 977.51 424.05 1158.81 394.43 1111.59 525.94 1031.80 645.27 1175.03 620.84
00033281 00000094 819.97 164.88 442.99 619.55 980.54 423.16 1162.79 393.41 1115.79 524.06 1035.79 646.09 1177.78 621.43
00033282 00000095 820.49 168.24 444.37 616.24 981.72 423.28 1165.89 393.23 1118.03 524.95 1037.09 646.65 1180.00 621.74
00033283 00000096 821.14 167.14 446.28 617.04 983.31 423.04 1168.06 394.41 1119.14 524.34 1037.95 646.16 1181.50 622.27
00033284 00000097 821.84 171.17 446.97 615.19 984.31 423.81 1169.27 395.61 1119.95 525.84 1038.28 647.67 1181.74 624.21
00033285 00000098 823.70 180.95 447.67 610.67 990.44 421.60 1172.73 392.53 1128.61 520.81 1047.50 649.60 1186.75 622.09
00033286 00000099 826.11 169.93 449.41 620.08 991.16 424.92 1176.37 396.44 1128.49 525.20 1045.58 650.41 1189.05 626.50
00033287 00000100 827.97 168.61 448.45 621.95 993.32 425.92 1178.58 397.00 1131.03 526.03 1047.49 651.03 1191.75 626.60
00033288 00000101 828.67 166.26 446.55 623.67 994.58 428.81 1177.66 399.21 1132.17 525.64 1047.60 652.12 1191.40 627.29
00033289 00000102 830.62 163.88 442.68 625.22 996.96 433.13 1174.83 403.18 1130.62 528.03 1046.52 652.99 1186.28 628.14
00033290 00000103 828.10 167.28 443.31 620.13 993.14 431.62 1170.43 401.27 1124.13 528.55 1042.05 651.62 1180.22 626.54
00033291 00000104 827.96 164.00 441.53 618.54 985.30 432.76 1160.99 400.02 1112.49 527.56 1037.68 649.78 1175.13 623.13
00033292 00000105 824.18 165.49 441.16 617.17 974.34 434.56 1153.44 397.83 1103.33 527.87 1028.88 649.99 1171.18 620.96
00033293 00000106 816.86 163.78 442.54 617.06 965.57 437.11 1145.75 399.50 1095.42 526.09 1024.30 646.58 1168.88 617.18
00033294 00000107 809.77 168.05 443.09 609.12 958.11 438.52 1136.48 400.27 1086.02 531.89 1017.00 642.97 1162.77 613.11
00033295 00000108 805.03 167.67 443.99 610.66 949.30 440.21 1128.78 402.31 1075.63 532.89 1009.58 643.14 1157.81 614.01
00033296 00000109 799.18 166.62 443.37 618.58 938.90 439.94 1118.85 404.23 1062.60 532.10 997.90 644.76 1147.56 617.55
00033297 00000110 787.40 166.21 448.03 618.97 922.93 443.05 1108.33 407.37 1046.29 537.19 982.68 648.51 1134.42 620.86
00033298 00000111 775.86 165.11 453.32 625.70 901.75 439.50 1092.09 403.05 1022.11 539.24 964.84 652.13 1118.03 622.95
00033299 00000112 758.59 176.78 458.41 608.51 888.73 437.59 1076.41 394.23 1012.96 538.61 959.08 655.23 1101.43 618.99
00033300 DELETE   750.40 175.66 458.37 599.06 877.07 431.09 1061.86 392.36 994.20 530.41 949.15 644.97 1088.96 612.52
CROP_BBOX: 466 0 1456 961
