Video ID: 	spGJFovej9A
H: 	2160
W: 	3840
FPS: 	25.0

FRAME INDEX X0 Y0 W H [Landmarks (5 Points)]

00002143 00000000 1552.87 378.60 454.16 670.06 1648.94 667.18 1858.64 642.78 1749.38 786.99 1681.00 866.94 1881.14 844.66
00002144 00000001 1551.11 374.51 459.50 666.97 1648.11 661.56 1861.10 634.77 1752.27 775.47 1681.99 861.08 1882.49 837.43
00002145 00000002 1563.46 372.13 458.44 666.57 1661.55 654.08 1870.75 629.15 1761.00 767.01 1694.35 857.68 1890.12 836.22
00002146 00000003 1575.86 369.84 455.41 667.52 1676.66 647.74 1882.31 625.88 1773.65 768.75 1710.13 856.41 1898.55 837.52
00002147 00000004 1584.14 369.52 448.62 674.13 1685.18 644.30 1891.62 621.95 1782.65 759.03 1720.43 865.17 1899.16 846.82
00002148 00000005 1589.13 361.93 449.32 681.89 1691.16 642.71 1896.79 619.94 1789.69 758.84 1727.34 866.10 1902.17 847.82
00002149 00000006 1595.04 360.24 446.80 680.31 1696.37 642.24 1901.56 620.23 1793.98 758.95 1732.38 866.48 1903.94 849.00
00002150 00000007 1600.03 362.11 444.34 673.89 1700.47 646.85 1906.47 624.18 1800.67 757.25 1734.88 863.74 1909.15 846.08
00002151 DELETE   1610.47 369.75 437.12 665.81 1708.17 651.70 1916.82 633.89 1805.85 765.39 1740.16 862.86 1919.34 846.27
00002152 DELETE   1609.79 370.63 443.09 667.70 1709.59 653.01 1921.73 631.61 1811.01 768.97 1743.45 866.67 1928.17 847.05
00002153 00000010 1618.39 367.18 441.11 675.93 1715.67 654.03 1927.80 627.96 1823.00 766.28 1749.28 865.95 1937.42 844.81
00002154 00000011 1626.15 377.79 440.37 669.09 1724.67 659.58 1939.93 634.31 1834.51 778.79 1759.23 872.44 1950.55 849.94
00002155 00000012 1630.52 376.93 441.04 673.66 1733.47 663.15 1945.90 637.64 1845.85 788.25 1770.17 880.20 1956.55 857.43
00002156 00000013 1635.45 380.45 440.06 674.34 1738.77 666.40 1952.05 640.00 1851.97 792.10 1776.07 882.50 1962.88 858.97
00002157 00000014 1639.11 384.40 440.53 669.63 1743.72 673.35 1955.18 645.22 1855.93 797.74 1782.30 885.77 1967.40 861.07
00002158 00000015 1641.38 387.74 442.81 668.09 1746.56 676.97 1958.51 649.07 1858.81 800.88 1787.77 894.28 1967.03 870.24
00002159 00000016 1643.71 386.94 442.74 676.49 1747.76 681.21 1959.28 655.40 1859.20 802.81 1787.50 899.95 1964.47 877.96
00002160 00000017 1645.03 391.93 444.52 680.73 1748.54 688.24 1962.36 664.12 1861.55 808.63 1784.44 901.19 1966.46 880.98
00002161 00000018 1649.63 399.17 442.40 674.63 1753.58 695.97 1959.44 671.67 1862.42 812.52 1786.73 901.37 1966.70 881.08
00002162 00000019 1652.64 406.21 439.10 670.28 1754.19 697.24 1961.17 674.59 1866.31 823.98 1790.11 904.48 1972.19 885.81
00002163 00000020 1650.91 408.58 445.77 666.51 1753.30 698.84 1960.43 672.81 1866.10 826.13 1794.47 908.47 1974.10 886.60
00002164 00000021 1653.11 409.22 444.00 666.39 1753.45 699.80 1961.52 671.43 1866.87 828.65 1797.31 912.83 1977.07 888.82
00002165 00000022 1653.49 406.26 448.23 668.75 1754.81 697.63 1966.04 666.12 1865.79 821.71 1799.94 919.95 1974.97 893.33
00002166 00000023 1656.94 405.30 444.22 674.80 1756.06 697.71 1966.45 666.17 1866.79 825.03 1802.02 925.70 1975.54 899.16
00002167 00000024 1658.35 405.67 444.99 678.03 1757.91 699.85 1968.25 667.61 1866.97 828.78 1807.10 931.18 1977.30 903.93
00002168 00000025 1658.68 408.20 446.73 682.39 1758.01 703.84 1969.33 670.90 1866.17 833.28 1809.17 935.51 1980.55 907.76
00002169 00000026 1660.41 411.54 445.73 679.41 1759.18 707.59 1969.39 675.36 1868.01 837.96 1809.64 934.20 1982.93 906.98
00002170 00000027 1661.95 416.28 445.56 678.05 1758.22 711.32 1969.34 678.29 1867.28 838.62 1809.19 934.79 1985.63 906.93
00002171 00000028 1661.66 419.63 451.83 675.56 1758.36 715.90 1970.12 681.01 1866.95 836.76 1808.07 932.96 1989.61 903.70
00002172 00000029 1670.49 417.80 444.94 678.27 1764.41 717.70 1970.65 686.11 1869.62 835.80 1809.36 926.48 1992.32 899.84
00002173 00000030 1672.90 418.53 448.33 673.43 1771.24 711.87 1981.24 681.90 1881.53 830.90 1813.79 922.19 1998.30 897.15
00002174 DELETE   1680.29 413.31 447.85 678.17 1782.74 705.36 1995.41 679.70 1894.75 829.39 1820.19 919.50 2007.80 897.60
00002175 00000032 1687.92 403.28 448.50 688.48 1793.46 699.55 2010.34 681.20 1908.85 831.20 1828.97 919.89 2012.87 904.34
00002176 00000033 1694.07 403.38 452.65 694.82 1804.21 698.79 2020.03 688.81 1919.60 834.57 1832.42 918.20 2017.90 909.43
00002177 00000034 1699.52 405.45 452.41 699.47 1813.97 697.34 2024.85 693.79 1927.19 837.74 1837.02 918.90 2017.05 915.18
00002178 00000035 1697.09 408.90 452.50 694.19 1815.47 693.97 2026.31 696.03 1927.79 838.72 1832.81 918.34 2012.09 919.33
00002179 00000036 1695.78 414.17 449.17 686.93 1814.29 692.27 2025.14 696.73 1927.22 838.03 1829.57 918.69 2007.77 921.68
00002180 00000037 1689.69 415.49 449.78 691.99 1808.78 691.85 2021.58 697.38 1923.59 836.87 1824.70 921.07 2003.15 924.77
00002181 00000038 1678.33 408.90 454.65 696.87 1801.54 685.51 2015.97 690.61 1917.61 830.81 1819.94 923.40 1993.33 926.77
00002182 00000039 1670.95 403.13 454.65 691.12 1792.50 681.19 2013.12 686.34 1908.24 827.91 1806.20 916.54 1986.73 920.51
00002183 00000040 1666.41 394.21 449.34 691.28 1788.36 676.36 2004.57 681.71 1899.78 826.74 1798.25 912.51 1975.56 916.20
00002184 00000041 1658.25 392.30 450.65 688.55 1778.19 673.07 1993.19 674.03 1884.88 816.65 1791.99 912.30 1964.10 912.10
00002185 00000042 1644.68 382.51 458.01 691.27 1767.55 665.85 1982.80 666.47 1870.22 804.35 1786.45 909.06 1951.76 908.44
00002186 00000043 1631.54 371.98 461.65 693.51 1757.12 660.12 1974.56 660.35 1862.79 800.63 1772.99 901.22 1945.35 900.01
00002187 DELETE   1618.30 379.44 462.54 688.97 1741.83 665.18 1961.30 666.97 1847.48 801.33 1754.16 897.62 1933.67 897.66
00002188 DELETE   1607.22 382.77 462.65 693.17 1727.89 674.22 1945.42 676.68 1833.82 807.83 1742.33 903.87 1920.81 906.55
00002189 DELETE   1590.44 380.92 468.62 699.34 1712.65 679.09 1934.72 676.18 1822.04 815.36 1730.99 911.58 1913.10 909.49
00002190 00000047 1583.52 385.92 463.80 699.22 1697.91 684.04 1917.93 676.09 1806.83 823.12 1722.75 919.43 1903.48 912.81
00002191 00000048 1573.45 384.29 467.45 703.27 1684.03 686.68 1907.32 676.73 1793.30 827.75 1713.84 926.44 1894.69 918.14
00002192 00000049 1561.73 377.31 474.38 718.95 1672.52 688.48 1899.72 676.85 1788.33 824.66 1703.60 927.22 1885.35 919.03
00002193 00000050 1563.21 381.44 467.29 719.37 1673.28 696.24 1892.85 683.81 1787.07 829.34 1707.79 929.21 1883.50 919.34
00002194 00000051 1560.49 380.68 468.39 726.03 1670.32 695.50 1891.70 684.49 1783.71 833.42 1701.65 928.79 1882.99 919.57
00002195 00000052 1558.85 382.65 468.08 731.83 1668.39 695.27 1889.48 685.66 1782.52 837.39 1697.11 928.54 1883.46 920.07
00002196 00000053 1555.50 383.00 469.59 735.04 1667.41 695.11 1887.55 689.37 1780.67 840.08 1692.93 927.59 1879.24 922.21
00002197 00000054 1551.18 383.72 468.60 735.34 1665.23 693.96 1884.63 691.35 1777.37 839.88 1687.90 926.72 1874.23 923.96
00002198 00000055 1541.20 384.06 469.66 734.53 1659.67 691.35 1880.28 689.31 1773.47 835.00 1682.36 929.05 1866.92 927.07
00002199 00000056 1527.72 385.56 472.54 731.12 1648.68 687.88 1875.27 689.10 1764.15 827.93 1668.58 925.59 1855.77 926.84
00002200 00000057 1521.27 387.05 465.30 719.37 1644.74 685.08 1868.87 689.89 1758.72 824.07 1658.67 921.45 1840.84 925.70
00002201 00000058 1512.56 382.42 465.35 714.92 1638.01 680.03 1862.83 683.59 1752.52 823.81 1653.08 918.72 1831.97 921.41
00002202 00000059 1503.37 381.94 465.65 713.01 1627.12 678.27 1852.05 676.84 1743.24 818.72 1644.80 917.23 1825.08 915.60
00002203 00000060 1492.81 377.86 469.38 710.62 1616.67 675.17 1842.57 670.48 1732.90 817.08 1635.58 916.16 1820.53 911.17
00002204 00000061 1478.42 377.55 473.01 714.19 1603.07 674.90 1830.75 669.93 1722.34 816.83 1627.21 914.98 1816.36 911.34
00002205 00000062 1466.51 376.17 472.46 712.27 1592.86 673.53 1820.45 669.71 1710.43 818.56 1615.09 915.13 1806.44 912.13
00002206 00000063 1457.36 377.90 472.90 708.11 1584.61 675.93 1812.65 670.50 1704.59 820.02 1606.05 914.31 1802.45 909.76
00002207 00000064 1452.76 375.94 475.46 713.21 1580.64 678.11 1808.84 670.63 1702.22 820.93 1602.00 915.20 1800.77 908.99
00002208 00000065 1450.08 372.21 475.78 719.78 1577.14 679.85 1806.02 670.87 1699.54 822.53 1599.19 917.30 1799.04 909.98
00002209 00000066 1449.09 369.96 475.73 724.86 1576.69 679.91 1805.17 669.07 1699.13 822.29 1599.25 917.98 1800.95 908.99
00002210 00000067 1447.38 367.22 480.64 726.91 1577.08 678.35 1806.76 665.60 1699.40 819.54 1602.91 918.43 1802.18 907.75
00002211 00000068 1450.96 365.05 478.68 728.84 1580.43 676.46 1807.46 661.14 1700.18 818.73 1611.78 922.74 1801.98 909.81
00002212 00000069 1456.52 365.87 475.11 733.37 1582.39 676.59 1807.89 662.57 1699.97 820.84 1612.54 922.42 1802.55 910.30
00002213 00000070 1459.78 366.83 475.79 743.30 1583.81 677.92 1808.98 664.46 1700.84 821.29 1613.22 926.40 1804.33 915.04
00002214 00000071 1463.07 368.06 476.66 749.18 1585.74 680.65 1810.09 667.71 1702.55 823.71 1614.18 929.50 1806.81 918.61
00002215 00000072 1466.60 373.51 479.95 744.67 1586.62 687.02 1811.74 672.94 1702.67 828.96 1617.33 932.42 1809.00 920.50
00002216 00000073 1470.72 377.58 479.65 740.54 1587.25 696.02 1813.60 681.03 1704.23 832.14 1619.06 933.09 1813.14 920.67
00002217 00000074 1473.81 377.01 480.50 738.97 1590.04 699.37 1814.87 682.98 1705.58 835.35 1622.66 935.14 1815.61 921.46
00002218 00000075 1472.61 381.15 482.78 737.29 1586.02 699.54 1814.95 683.16 1702.54 837.46 1620.08 937.15 1814.79 923.24
00002219 00000076 1468.18 381.23 481.92 739.11 1581.97 703.35 1811.15 686.68 1699.35 841.60 1615.44 939.78 1811.30 925.61
00002220 00000077 1463.29 386.23 478.85 735.57 1575.51 706.38 1804.52 690.17 1692.78 846.28 1606.10 940.58 1804.42 926.74
00002221 00000078 1451.76 384.75 476.32 741.07 1566.53 708.24 1796.51 691.54 1686.63 847.17 1595.37 938.80 1797.31 924.55
00002222 00000079 1446.63 397.34 469.47 726.76 1555.96 714.79 1783.45 699.65 1672.73 847.11 1583.41 938.36 1783.42 925.66
00002223 DELETE   1437.49 403.27 470.26 720.40 1544.97 717.03 1772.74 700.08 1663.29 851.23 1576.00 942.70 1773.46 928.46
00002224 00000081 1425.65 404.04 477.76 713.79 1535.80 714.56 1766.13 695.17 1654.71 858.28 1570.96 946.82 1768.66 929.93
00002225 00000082 1419.02 398.84 479.99 716.35 1530.00 710.17 1762.02 692.89 1647.45 857.42 1564.26 946.90 1762.26 931.77
00002226 00000083 1415.58 399.25 486.90 719.97 1523.79 713.14 1754.11 698.02 1639.24 864.91 1562.36 947.80 1757.27 933.22
00002227 00000084 1415.47 396.31 484.94 721.42 1521.34 711.77 1752.41 696.46 1635.90 864.02 1559.80 946.34 1755.09 931.56
00002228 00000085 1414.43 391.05 486.04 726.38 1521.02 710.24 1751.58 695.01 1635.45 861.44 1559.56 946.22 1752.53 931.84
00002229 00000086 1414.55 395.00 484.87 719.92 1520.37 708.37 1748.90 691.71 1633.81 860.49 1561.32 947.75 1747.62 932.21
00002230 00000087 1415.01 389.25 480.91 726.51 1518.18 707.84 1746.57 691.18 1631.56 858.95 1558.79 946.88 1746.08 931.57
00002231 00000088 1412.45 390.86 482.38 718.75 1515.73 708.72 1745.57 691.29 1630.27 856.04 1556.76 943.07 1745.43 927.27
00002232 00000089 1410.46 393.72 484.04 711.47 1513.82 709.50 1746.34 692.17 1630.73 854.98 1555.26 941.21 1744.95 925.59
00002233 00000090 1409.48 388.25 483.15 715.14 1513.26 719.10 1747.93 701.42 1632.39 851.57 1552.90 937.70 1746.57 923.01
00002234 00000091 1409.98 392.41 482.75 709.85 1513.83 719.32 1748.88 701.89 1632.57 853.54 1552.52 936.52 1748.11 921.66
00002235 00000092 1409.98 396.87 483.98 704.91 1513.12 713.95 1749.90 697.06 1633.79 853.94 1552.58 936.34 1749.05 921.35
00002236 00000093 1410.95 396.30 481.86 703.97 1513.16 711.22 1748.37 694.64 1632.56 853.29 1551.87 936.04 1747.85 921.25
00002237 00000094 1409.47 395.07 482.41 704.21 1513.25 708.70 1746.43 692.00 1631.71 850.30 1551.75 935.71 1745.30 920.96
00002238 00000095 1409.16 393.06 482.41 704.94 1512.64 705.52 1745.73 688.51 1630.17 847.57 1551.60 936.83 1742.19 921.95
00002239 00000096 1408.60 394.41 482.13 701.74 1511.84 703.18 1744.93 686.76 1628.18 844.21 1549.83 934.76 1740.71 920.59
00002240 00000097 1405.91 389.04 484.03 707.24 1510.40 700.79 1745.40 684.66 1627.88 840.90 1548.00 932.63 1740.14 918.99
00002241 00000098 1407.17 387.34 479.95 707.01 1509.15 706.65 1745.01 689.47 1628.32 838.35 1547.11 931.22 1739.84 917.52
00002242 00000099 1408.30 385.82 476.81 708.16 1510.89 705.14 1744.20 688.73 1628.79 837.36 1547.75 931.10 1738.01 918.04
00002243 00000100 1409.33 385.59 474.81 716.48 1510.77 701.23 1743.57 685.72 1627.56 840.00 1548.82 938.82 1733.16 926.48
00002244 00000101 1412.74 382.84 473.00 731.07 1515.76 700.85 1740.17 687.73 1626.46 845.65 1554.66 949.56 1724.28 938.92
00002245 00000102 1412.33 386.51 476.63 731.55 1516.74 702.78 1745.45 692.34 1627.60 855.52 1555.11 957.62 1723.76 948.90
00002246 00000103 1418.07 399.19 473.05 715.34 1519.37 708.38 1750.13 702.78 1631.90 869.49 1553.99 961.70 1725.03 956.75
00002247 00000104 1419.67 414.15 471.48 705.06 1524.09 712.49 1752.43 708.52 1636.65 873.51 1556.03 961.00 1732.18 956.92
00002248 00000105 1420.85 414.92 471.76 706.34 1528.82 711.34 1754.71 707.04 1639.39 872.76 1561.26 959.04 1739.15 953.97
00002249 00000106 1422.28 410.16 474.27 708.51 1535.32 703.24 1756.07 699.27 1644.63 857.14 1562.68 943.86 1743.63 939.15
00002250 00000107 1423.19 385.94 472.59 728.95 1536.77 686.75 1755.81 682.57 1646.49 838.31 1562.85 930.79 1743.10 926.53
00002251 00000108 1414.69 372.58 479.46 734.13 1533.51 677.52 1757.88 670.29 1645.64 821.67 1559.81 923.49 1742.05 919.07
00002252 00000109 1412.94 365.68 476.30 722.21 1532.49 670.41 1760.32 662.07 1648.32 805.02 1559.31 909.49 1743.54 903.67
00002253 00000110 1416.23 359.84 474.65 718.52 1533.41 661.46 1762.69 655.23 1650.86 803.95 1566.15 908.30 1746.64 902.82
00002254 00000111 1416.82 356.68 474.95 717.67 1536.51 658.55 1766.89 655.69 1653.27 800.07 1571.36 912.91 1741.22 910.40
00002255 00000112 1414.07 361.87 477.09 720.01 1539.09 663.34 1770.02 660.54 1658.51 798.76 1572.52 913.68 1737.18 912.08
00002256 DELETE   1425.11 377.19 472.13 712.64 1548.31 678.01 1775.70 680.98 1665.68 812.58 1575.29 920.67 1735.72 924.21
00002257 00000114 1425.99 380.90 472.90 714.88 1550.27 687.20 1777.75 689.42 1670.60 833.09 1577.63 933.03 1739.30 935.47
00002258 00000115 1429.10 380.79 471.64 731.96 1555.97 687.61 1778.79 691.80 1671.35 836.04 1576.99 933.23 1745.94 935.90
00002259 00000116 1431.77 381.37 467.35 732.77 1557.46 684.97 1778.02 691.88 1670.75 841.14 1572.08 934.51 1744.83 939.46
00002260 00000117 1431.76 376.79 466.38 732.08 1556.33 681.92 1776.20 688.68 1668.17 838.13 1571.20 932.99 1742.82 938.01
00002261 00000118 1419.59 373.30 480.52 730.04 1550.54 677.67 1774.35 683.04 1664.40 837.34 1567.58 933.19 1735.78 938.59
00002262 00000119 1417.81 364.02 477.66 736.59 1544.05 673.27 1770.57 676.77 1660.94 831.02 1563.05 929.58 1732.04 933.48
00002263 00000120 1411.23 358.72 481.92 740.45 1538.55 669.06 1768.58 672.93 1655.53 827.40 1558.80 925.24 1732.10 929.21
00002264 00000121 1409.31 343.54 482.00 757.14 1532.90 660.70 1764.24 666.68 1648.49 822.76 1552.45 919.15 1733.43 923.79
00002265 00000122 1403.81 338.94 484.43 764.52 1529.05 656.04 1760.14 665.42 1644.06 816.84 1545.19 913.54 1727.56 921.43
00002266 00000123 1396.95 334.46 486.52 775.83 1525.08 654.33 1753.81 665.65 1639.51 812.72 1535.65 910.57 1720.36 920.71
00002267 00000124 1383.89 326.47 490.20 789.07 1516.39 651.32 1746.82 667.77 1631.93 811.80 1520.80 906.59 1708.66 921.31
00002268 00000125 1372.83 340.54 484.00 768.09 1504.72 656.85 1738.39 673.37 1620.57 810.48 1509.91 908.23 1702.72 922.02
00002269 00000126 1364.82 337.95 481.72 766.13 1498.05 658.99 1731.17 675.82 1614.82 807.99 1500.25 903.55 1692.78 917.83
00002270 00000127 1352.04 331.71 489.92 766.65 1487.03 649.99 1725.77 662.67 1608.80 806.57 1492.92 903.46 1684.47 913.88
00002271 00000128 1344.04 328.35 496.52 769.38 1482.88 641.32 1721.88 653.62 1601.46 802.20 1487.46 900.13 1681.67 909.86
00002272 00000129 1339.59 321.50 500.27 774.43 1478.55 634.27 1719.33 643.85 1598.37 794.34 1485.17 896.42 1680.59 904.07
00002273 00000130 1338.55 316.66 502.46 774.42 1477.65 627.23 1721.28 637.07 1598.66 786.64 1485.01 889.39 1685.17 897.26
00002274 00000131 1340.25 323.13 507.77 763.85 1481.04 618.45 1726.81 630.54 1600.72 770.41 1490.93 882.68 1690.40 892.67
00002275 00000132 1345.26 319.82 509.81 768.81 1488.38 612.84 1737.18 626.68 1608.63 760.71 1497.22 880.62 1699.44 892.89
00002276 00000133 1348.01 309.98 520.80 783.04 1497.16 607.56 1751.40 625.19 1618.49 754.96 1504.01 879.22 1708.74 895.16
00002277 00000134 1358.48 299.11 538.40 797.37 1507.16 602.27 1764.06 619.75 1626.47 753.90 1507.70 882.20 1722.73 898.33
00002278 00000135 1364.43 296.89 548.29 802.94 1522.96 598.69 1788.52 627.83 1645.11 756.62 1513.83 882.90 1735.42 909.15
00002279 00000136 1376.34 295.19 547.06 807.17 1535.06 600.66 1806.16 633.88 1661.34 762.09 1530.73 892.22 1743.12 921.58
00002280 00000137 1391.58 296.16 548.28 822.05 1553.94 616.06 1816.86 643.76 1675.99 778.09 1550.74 906.70 1758.72 929.86
00002281 00000138 1403.91 297.40 547.20 825.37 1567.07 624.01 1826.80 651.94 1690.10 789.02 1560.43 904.98 1768.46 931.24
00002282 00000139 1411.04 299.33 547.82 836.57 1576.10 633.39 1833.23 667.44 1698.98 801.27 1560.07 912.49 1768.11 943.85
00002283 00000140 1412.36 295.69 547.14 847.21 1576.72 633.19 1831.96 664.76 1702.18 807.44 1562.12 918.01 1768.68 947.51
00002284 00000141 1410.78 289.55 545.33 858.46 1574.15 632.20 1829.23 663.81 1699.18 812.87 1558.78 920.32 1765.29 949.66
00002285 00000142 1400.99 275.89 550.55 875.45 1567.72 628.83 1823.13 658.83 1693.96 812.54 1554.67 921.50 1761.33 949.01
00002286 00000143 1394.50 279.79 546.92 870.18 1559.95 621.99 1813.87 646.78 1687.61 805.58 1551.54 917.88 1757.78 940.65
00002287 00000144 1393.79 276.21 538.45 857.56 1549.93 609.14 1808.34 633.53 1678.54 789.31 1547.49 911.34 1747.76 933.46
00002288 00000145 1379.27 278.34 550.63 837.00 1536.72 599.73 1807.76 625.85 1666.67 775.12 1543.05 901.80 1749.57 923.79
00002289 00000146 1370.94 272.39 556.06 836.64 1530.85 594.27 1803.82 610.20 1669.68 757.45 1545.36 891.60 1748.35 907.91
CROP_BBOX: 1123 0 2366 1328
