Video ID: 	dDmSxAnoNb8
H: 	1080
W: 	1920
FPS: 	25.0

FRAME INDEX X0 Y0 W H [Landmarks (5 Points)]

00008473 00000000 610.52 150.26 418.25 571.78 749.54 380.37 932.80 352.00 883.05 476.09 790.20 576.60 953.22 552.23
00008474 DELETE   619.84 147.36 423.16 575.82 764.92 378.57 945.41 352.56 894.56 477.48 806.56 577.93 962.06 554.17
00008475 DELETE   640.34 140.76 414.29 577.67 783.82 380.84 958.68 356.74 911.48 478.25 823.14 577.51 974.58 555.55
00008476 00000003 650.82 147.53 411.52 571.10 798.30 377.51 973.04 356.72 929.31 474.59 836.58 578.15 984.03 559.03
00008477 00000004 658.92 147.60 407.26 571.67 812.66 378.11 983.40 355.18 946.87 470.55 852.44 583.53 992.16 563.28
00008478 00000005 669.30 148.12 403.25 580.50 823.29 364.56 995.26 355.89 952.01 464.42 863.33 583.50 993.44 576.35
00008479 00000006 679.61 144.31 401.10 589.90 833.56 363.25 1004.69 355.74 961.78 461.77 873.84 586.01 1001.04 579.21
00008480 00000007 685.17 141.77 404.86 591.85 843.62 360.24 1014.80 352.61 972.00 462.24 883.19 584.26 1007.65 576.86
00008481 00000008 689.44 139.55 407.75 590.70 855.07 360.77 1022.31 354.34 981.89 461.29 889.75 579.72 1013.02 573.08
00008482 00000009 694.70 138.53 408.73 591.75 863.51 363.65 1030.66 357.72 992.13 462.61 894.38 578.71 1022.99 572.41
00008483 00000010 700.91 141.03 408.42 596.66 869.37 364.82 1037.95 362.07 1000.66 462.63 895.15 579.23 1031.85 576.11
00008484 00000011 707.79 145.01 405.76 603.46 872.86 364.49 1044.04 363.60 1008.26 462.71 895.75 585.08 1037.70 584.08
00008485 00000012 712.68 144.52 404.60 608.49 878.97 368.08 1047.47 364.80 1017.38 463.39 900.01 585.30 1046.01 582.50
00008486 00000013 718.03 146.70 400.49 605.40 884.75 370.51 1052.94 365.42 1026.69 461.41 903.51 585.81 1051.10 581.93
00008487 00000014 722.62 147.91 397.53 596.96 891.78 373.21 1058.62 363.61 1035.89 465.44 911.20 588.01 1055.58 580.82
00008488 00000015 729.34 141.71 391.44 585.07 899.41 377.41 1065.39 364.34 1041.72 467.95 924.20 586.41 1062.75 576.09
00008489 00000016 732.58 140.67 392.25 573.92 906.76 381.34 1069.79 363.32 1047.52 468.78 931.59 579.28 1070.44 564.83
00008490 00000017 733.77 138.25 393.20 570.30 911.65 381.87 1074.13 360.88 1054.12 469.84 936.83 576.67 1074.72 559.88
00008491 00000018 735.22 136.24 393.26 568.42 915.97 381.21 1078.56 361.38 1059.27 470.30 940.03 575.77 1077.16 559.95
00008492 00000019 736.83 134.27 392.97 568.93 917.93 381.29 1082.12 361.97 1062.70 472.48 942.05 577.15 1080.17 561.62
00008493 00000020 737.57 134.92 392.73 566.28 919.68 381.20 1083.41 363.28 1064.37 473.60 945.23 577.72 1080.75 563.32
00008494 00000021 738.93 135.08 391.23 564.76 921.45 381.81 1084.92 364.19 1066.67 473.86 948.07 578.06 1082.63 563.88
00008495 00000022 739.74 135.58 390.46 563.13 923.15 381.59 1085.17 364.01 1067.71 473.86 950.84 578.39 1082.54 564.21
00008496 00000023 739.46 137.14 390.70 562.02 923.32 383.04 1084.40 365.53 1067.03 473.77 951.40 579.03 1082.20 564.94
00008497 00000024 739.21 138.39 390.79 561.59 922.63 385.20 1083.33 366.10 1066.34 475.23 950.77 580.02 1081.43 564.73
00008498 00000025 738.65 140.27 391.38 562.92 921.81 387.29 1081.45 367.19 1065.03 476.92 948.99 581.08 1080.07 565.09
00008499 00000026 739.10 141.86 390.98 563.06 922.15 387.60 1081.40 368.13 1064.37 478.58 948.00 582.01 1078.72 566.63
00008500 00000027 738.37 140.98 391.26 565.43 920.65 388.31 1081.63 368.01 1063.46 479.40 946.80 584.55 1078.38 568.50
00008501 00000028 737.96 143.84 391.33 565.73 921.09 388.84 1081.54 369.97 1063.51 479.89 945.68 584.72 1078.08 569.87
00008502 00000029 738.23 145.38 390.43 566.93 922.04 390.07 1080.97 370.02 1065.62 480.33 943.72 584.69 1077.63 569.39
00008503 00000030 738.31 147.20 390.34 567.50 923.40 391.70 1082.30 370.20 1068.45 482.04 943.86 585.09 1079.89 568.74
00008504 00000031 738.25 148.28 389.62 569.90 924.26 391.40 1081.23 372.25 1068.43 481.95 943.53 586.26 1077.96 572.06
00008505 00000032 738.31 148.35 389.58 569.42 923.80 391.97 1081.67 373.43 1067.80 482.08 943.45 586.66 1077.67 572.85
00008506 00000033 738.00 148.78 389.26 569.08 923.49 391.71 1081.50 374.10 1067.12 481.50 943.76 587.21 1077.01 574.07
00008507 00000034 737.69 149.61 389.39 573.26 924.05 391.19 1080.67 375.77 1066.72 479.69 945.31 588.76 1076.05 577.36
00008508 00000035 738.31 150.93 388.77 577.62 924.65 391.05 1079.96 377.45 1066.26 478.73 945.76 589.83 1075.68 579.94
00008509 00000036 737.32 151.56 389.65 580.85 924.04 390.72 1079.06 378.58 1065.11 478.22 945.96 591.62 1074.56 582.86
00008510 00000037 735.47 150.78 391.18 586.73 923.82 389.68 1078.90 379.98 1064.99 479.45 943.68 594.00 1072.53 587.36
00008511 00000038 733.84 149.13 391.60 581.76 922.64 391.69 1079.12 375.72 1067.55 481.98 941.00 592.33 1073.73 581.03
00008512 00000039 733.57 147.65 391.43 568.48 920.08 392.11 1080.63 371.59 1066.55 483.48 937.93 587.01 1075.11 571.82
00008513 00000040 733.91 146.50 390.46 564.89 916.87 391.03 1081.46 372.03 1063.07 480.86 938.41 586.39 1075.99 571.94
00008514 00000041 732.64 145.20 390.92 565.38 915.40 391.47 1079.85 371.67 1061.67 479.81 938.80 586.61 1076.29 571.33
00008515 00000042 731.72 145.33 391.25 566.16 913.84 391.06 1078.34 370.52 1060.21 478.63 937.96 586.85 1075.50 570.92
00008516 00000043 730.06 147.31 391.60 565.27 914.01 392.40 1074.61 369.71 1059.27 478.25 938.95 586.47 1073.53 568.70
00008517 00000044 727.36 147.55 392.73 564.91 910.37 392.17 1071.81 369.25 1055.63 476.90 937.95 586.72 1072.14 568.53
00008518 00000045 725.61 145.01 392.66 566.29 906.93 392.13 1066.59 366.89 1051.35 474.45 940.73 586.20 1072.05 565.52
00008519 00000046 723.23 140.89 392.22 567.81 902.39 393.00 1061.97 364.80 1046.96 472.48 939.92 585.81 1070.42 562.40
00008520 00000047 719.64 145.67 392.74 565.06 897.67 391.22 1055.72 363.41 1040.52 468.62 938.28 584.57 1065.69 561.12
00008521 00000048 716.90 143.71 390.53 565.97 893.06 390.09 1049.46 365.07 1031.09 467.55 933.33 583.90 1056.56 562.76
00008522 DELETE   714.72 142.84 390.43 570.48 887.49 388.23 1045.38 366.77 1023.59 468.02 928.93 585.40 1051.76 567.21
00008523 DELETE   708.20 141.70 390.79 572.92 876.94 385.21 1037.05 367.16 1009.66 468.78 920.17 585.09 1042.26 569.06
00008524 00000051 698.30 139.02 395.30 577.37 866.66 381.78 1028.52 367.69 996.90 468.87 910.45 582.66 1031.34 569.29
00008525 00000052 689.74 142.35 398.58 578.80 860.52 381.71 1021.41 368.75 989.53 471.43 900.71 583.17 1021.95 571.53
00008526 00000053 684.67 149.67 399.55 584.06 850.97 385.08 1014.00 371.76 979.58 481.03 891.53 592.61 1013.43 581.30
00008527 00000054 678.48 163.15 403.69 574.69 841.29 390.54 1010.94 378.15 969.79 491.85 884.07 602.88 1006.70 593.06
00008528 00000055 671.76 170.91 406.90 569.81 836.20 397.89 1005.31 387.29 962.01 502.68 876.73 605.73 1002.82 597.74
00008529 00000056 669.42 176.71 405.36 569.51 835.11 406.02 1001.25 394.33 957.78 517.49 875.86 614.77 999.47 605.94
00008530 00000057 665.66 181.30 404.17 568.79 833.22 413.44 999.78 401.64 955.43 527.99 874.38 624.10 992.83 615.67
00008531 00000058 661.76 193.99 405.58 565.69 830.33 418.66 1000.63 410.90 952.37 538.09 867.16 630.78 989.53 625.87
00008532 00000059 660.55 200.81 407.53 563.25 828.32 423.61 1001.83 416.81 950.17 544.80 861.68 635.11 986.53 631.29
00008533 00000060 664.16 224.01 402.41 542.17 823.64 436.20 999.33 425.91 949.83 546.82 850.24 645.42 985.68 636.19
00008534 00000061 664.33 229.10 402.40 539.82 823.09 437.85 999.89 429.40 948.52 551.61 848.88 648.68 984.40 640.90
00008535 00000062 664.33 229.43 401.38 539.78 821.62 438.53 998.42 429.64 947.33 551.47 848.06 648.71 983.85 640.44
00008536 00000063 662.41 228.64 401.57 541.21 820.05 436.84 997.58 427.47 946.29 550.90 845.82 647.68 983.54 638.82
00008537 00000064 659.69 226.59 403.86 547.82 817.71 436.71 993.87 426.94 944.47 548.75 842.82 646.54 981.94 637.27
00008538 00000065 658.91 228.00 404.91 545.93 815.51 437.35 994.71 428.95 942.26 551.13 840.95 647.83 981.66 639.52
00008539 00000066 657.49 229.43 406.46 549.38 815.46 439.65 994.30 431.75 942.83 554.08 839.63 649.46 981.49 641.58
00008540 00000067 658.05 233.54 406.28 550.76 816.04 443.58 992.57 436.71 942.59 557.09 840.10 651.81 980.21 645.01
00008541 00000068 658.50 234.86 405.49 554.83 819.09 450.14 991.76 443.32 944.71 559.58 844.93 655.31 981.45 648.65
00008542 00000069 659.81 241.62 404.06 556.26 819.72 454.93 993.16 450.49 943.95 565.31 846.33 662.49 979.76 657.92
00008543 00000070 660.13 245.10 405.08 560.64 821.54 458.33 997.67 453.17 947.38 571.23 852.43 673.59 981.45 668.05
00008544 00000071 661.32 243.54 405.48 568.66 821.18 461.73 998.09 456.78 948.25 575.93 854.12 680.12 982.11 674.97
00008545 00000072 660.10 243.32 410.80 573.16 822.43 460.10 992.77 457.83 941.60 583.06 852.38 680.25 972.15 679.20
00008546 00000073 659.61 243.57 411.89 576.86 822.65 461.79 992.25 458.44 941.37 588.13 851.08 683.50 970.39 681.71
00008547 00000074 659.61 248.65 412.36 571.74 823.35 465.01 992.63 460.65 941.93 592.49 851.73 684.75 971.24 682.23
00008548 00000075 660.28 250.28 412.16 571.51 825.17 465.60 993.08 461.39 942.09 595.66 851.51 686.30 969.56 683.97
00008549 00000076 660.77 252.49 412.68 569.21 825.99 466.76 993.37 462.89 942.64 596.54 852.02 685.97 970.08 683.96
00008550 00000077 661.72 253.12 414.00 570.02 827.02 467.58 994.93 463.86 943.64 597.02 850.56 686.02 971.53 684.21
00008551 00000078 663.24 253.67 413.05 564.79 825.97 468.52 997.37 463.56 944.93 595.65 849.66 684.58 975.23 681.76
00008552 00000079 664.90 253.77 412.16 560.25 826.34 467.39 999.37 462.57 946.09 594.04 850.21 682.94 976.85 680.15
00008553 00000080 665.22 250.00 413.33 562.24 825.94 464.42 1000.56 458.83 947.06 589.87 851.05 681.94 978.21 678.36
00008554 00000081 664.18 244.65 415.54 570.68 825.88 460.31 1000.83 456.46 948.06 581.76 849.86 678.66 979.64 676.38
00008555 00000082 663.85 239.77 412.66 575.10 828.03 454.25 997.82 453.27 947.18 573.37 851.20 671.80 976.70 671.54
00008556 00000083 665.22 234.26 403.12 575.58 826.03 453.44 998.39 450.99 954.74 562.29 847.29 665.00 984.01 663.00
00008557 00000084 659.77 232.90 407.19 567.55 822.21 442.67 993.68 438.73 952.22 551.85 841.68 652.31 983.07 648.65
00008558 00000085 653.29 217.85 413.05 576.49 814.14 431.41 990.94 428.23 946.26 544.11 832.61 644.32 981.36 640.60
00008559 00000086 650.79 220.17 412.73 569.76 810.66 423.95 987.11 420.08 942.15 539.36 829.37 639.84 976.80 635.47
00008560 00000087 649.40 214.80 413.60 575.69 808.85 421.54 986.23 418.08 941.30 538.58 826.68 639.40 974.69 635.66
00008561 00000088 649.05 218.84 413.17 573.12 808.82 422.80 985.65 420.54 940.17 540.30 824.58 639.71 973.60 637.13
00008562 00000089 650.03 221.12 411.03 570.85 808.67 428.92 986.24 428.74 938.08 545.67 823.95 642.59 973.53 641.65
00008563 00000090 650.18 230.18 410.39 565.09 808.50 434.91 988.32 435.02 936.33 553.61 823.81 647.41 973.06 646.61
00008564 00000091 649.56 227.26 410.44 574.97 807.94 440.74 987.65 441.08 934.91 561.54 824.16 654.44 970.12 653.93
00008565 00000092 652.40 234.71 406.97 569.04 808.57 447.98 989.11 447.94 934.74 567.91 826.04 658.55 971.75 658.10
00008566 00000093 653.42 241.55 406.16 561.56 806.65 452.67 989.78 450.64 933.45 572.16 826.48 660.55 974.74 658.65
00008567 00000094 654.41 245.86 405.13 553.09 806.53 454.73 991.40 452.70 933.31 572.60 826.52 660.07 976.29 658.17
00008568 00000095 654.32 246.14 404.95 549.29 805.60 455.16 992.28 452.34 933.40 572.69 827.44 660.32 977.53 657.60
00008569 00000096 654.63 242.49 405.28 554.03 806.73 453.66 991.08 450.57 934.04 571.17 828.38 658.73 977.40 655.71
00008570 00000097 656.08 237.14 403.56 559.68 808.23 450.83 990.84 449.64 934.89 566.35 830.21 657.59 977.13 655.90
00008571 00000098 654.78 230.53 405.38 561.35 809.05 446.64 991.25 444.16 936.66 563.46 833.71 655.94 977.66 652.68
00008572 00000099 652.96 227.81 408.50 561.88 808.09 443.27 989.37 438.68 936.16 560.59 832.13 652.45 977.94 647.21
00008573 00000100 653.22 231.12 409.03 558.83 809.20 441.46 989.65 437.11 937.12 559.01 833.28 652.49 978.04 647.40
00008574 00000101 652.93 228.98 407.54 566.09 808.64 442.48 989.55 438.85 937.20 561.39 831.59 655.77 976.32 651.47
00008575 00000102 655.36 230.57 404.94 570.91 810.67 446.79 990.71 444.40 938.03 564.87 835.20 661.32 975.89 658.37
00008576 00000103 658.21 237.31 403.80 565.89 814.98 451.82 991.24 449.23 938.80 567.39 844.26 667.71 974.33 664.48
00008577 00000104 658.16 241.41 406.28 564.17 816.38 457.36 994.86 452.48 941.67 571.43 850.64 674.22 979.15 668.59
00008578 00000105 659.26 242.50 407.52 572.36 818.62 461.47 995.76 457.48 943.40 577.40 854.08 684.11 977.82 679.64
00008579 00000106 655.22 249.47 414.44 571.69 824.06 467.96 996.83 464.32 941.82 589.46 851.28 686.46 969.59 684.30
00008580 00000107 655.94 251.22 415.00 570.65 820.90 478.76 993.34 473.40 937.61 593.09 841.26 684.07 970.50 681.21
00008581 DELETE   654.01 251.83 415.70 561.41 819.10 470.83 991.71 465.89 937.05 587.81 840.28 673.92 976.62 671.32
00008582 00000109 654.80 252.10 413.57 556.73 815.78 466.10 989.15 460.78 935.92 580.35 837.59 667.77 977.22 664.79
00008583 00000110 657.95 249.59 405.64 555.36 814.53 460.99 994.24 454.46 941.61 575.86 837.16 667.99 979.29 662.41
00008584 00000111 656.37 239.89 405.60 563.46 813.75 456.75 991.34 452.02 939.39 570.22 837.61 665.77 976.29 661.29
00008585 00000112 655.63 238.06 405.13 557.76 810.28 454.65 990.85 450.29 937.04 568.98 834.36 661.89 976.64 657.57
00008586 00000113 655.21 234.48 407.10 559.93 809.82 461.89 990.59 459.40 934.15 570.70 826.31 659.10 973.52 656.75
00008587 00000114 653.12 242.14 408.07 567.55 809.27 463.28 988.39 460.68 933.69 571.61 822.06 661.45 972.84 659.67
00008588 00000115 651.38 241.85 406.68 593.34 813.42 458.17 986.78 457.16 939.91 575.90 821.15 674.00 967.05 673.40
00008589 00000116 647.41 252.96 414.40 597.38 806.96 460.65 984.63 456.10 940.89 585.41 812.63 683.64 961.09 680.53
CROP_BBOX: 312 0 1315 993
