Video ID: 	Tj3zjDyQgs8
H: 	1080
W: 	1920
FPS: 	29.97002997002997

FRAME INDEX X0 Y0 W H [Landmarks (5 Points)]

00011024 00000000 840.29 207.52 426.69 589.01 1040.08 431.25 1217.65 468.60 1182.78 508.35 1051.68 625.17 1202.49 654.15
00011025 00000001 841.62 209.63 428.45 598.28 1040.90 437.39 1219.60 471.73 1182.30 519.66 1049.86 633.93 1202.70 660.66
00011026 00000002 845.58 214.23 427.82 612.88 1047.63 446.19 1220.36 479.22 1184.87 537.99 1048.65 651.54 1196.70 678.30
00011027 00000003 851.37 219.55 425.50 618.57 1049.03 452.47 1223.92 490.73 1182.12 548.35 1040.48 658.92 1194.39 690.38
00011028 DELETE   856.42 219.51 424.69 621.88 1051.20 453.07 1229.24 490.94 1184.74 552.95 1039.35 661.92 1197.82 693.65
00011029 DELETE   865.47 214.82 419.62 616.42 1052.57 449.04 1236.73 485.82 1190.33 545.61 1046.01 660.66 1205.90 691.65
00011030 00000006 868.52 211.42 419.65 602.39 1053.96 441.95 1242.66 478.52 1197.40 528.25 1056.65 648.88 1216.61 678.14
00011031 00000007 869.73 208.17 419.58 588.11 1052.95 433.85 1244.43 473.05 1196.85 514.79 1054.63 631.90 1219.64 662.91
00011032 DELETE   867.40 204.99 427.92 588.07 1061.31 426.47 1252.32 467.55 1197.92 517.32 1061.45 622.33 1223.42 656.36
00011033 00000009 868.12 204.22 427.77 587.86 1064.04 426.96 1254.60 466.70 1203.80 516.25 1066.32 622.17 1228.12 655.00
00011034 00000010 869.88 205.47 426.20 589.75 1067.36 429.04 1257.49 471.50 1207.13 519.36 1068.12 626.64 1228.17 661.89
00011035 00000011 872.99 202.83 423.29 603.18 1067.68 434.58 1252.60 474.24 1202.60 527.63 1068.55 637.15 1221.55 670.38
00011036 00000012 873.99 202.07 424.44 608.72 1066.95 439.77 1250.36 477.04 1199.66 536.02 1071.58 647.72 1218.38 679.51
00011037 00000013 872.82 204.80 425.24 605.59 1065.14 443.70 1247.59 477.04 1196.41 540.40 1072.69 650.78 1216.91 679.58
00011038 00000014 873.66 206.29 425.83 604.53 1064.45 446.70 1245.83 478.54 1193.92 544.45 1070.74 650.85 1215.45 678.47
00011039 00000015 873.74 209.04 426.80 609.30 1064.73 448.27 1246.31 479.66 1193.91 549.19 1069.80 653.58 1215.80 680.98
00011040 00000016 875.03 210.06 426.60 612.48 1066.68 452.07 1247.48 485.55 1194.21 556.64 1067.89 656.68 1214.82 685.95
00011041 00000017 873.74 209.62 428.78 619.76 1065.57 455.55 1248.23 490.63 1192.65 562.40 1062.75 660.86 1212.87 691.44
00011042 00000018 873.10 213.14 430.24 622.82 1064.31 460.64 1247.03 496.79 1191.42 574.52 1060.36 670.25 1207.66 701.81
00011043 00000019 870.02 223.50 428.61 619.60 1058.50 464.07 1241.97 502.23 1182.56 587.54 1051.94 678.03 1203.99 709.17
00011044 00000020 871.00 226.54 430.93 627.09 1059.04 469.77 1239.70 502.94 1181.28 594.85 1052.96 687.92 1201.79 715.40
00011045 DELETE   868.92 233.98 433.15 628.10 1055.81 481.79 1239.87 513.98 1180.32 596.01 1051.63 694.68 1201.39 721.43
00011046 DELETE   871.14 234.19 432.44 637.58 1055.62 487.75 1237.11 514.92 1180.16 596.73 1050.71 700.76 1200.04 723.84
00011047 DELETE   871.36 232.08 429.13 647.67 1048.41 485.08 1232.82 512.19 1177.23 599.32 1043.57 705.62 1198.31 729.53
00011048 00000024 868.18 238.22 430.42 648.67 1044.05 489.09 1233.56 518.78 1172.63 608.06 1033.76 709.95 1193.97 736.59
00011049 00000025 864.60 244.57 431.15 646.24 1037.15 491.93 1228.83 519.35 1165.92 611.05 1031.17 715.40 1192.20 740.04
00011050 00000026 862.94 247.42 431.70 644.42 1034.13 492.81 1227.13 518.86 1162.19 613.97 1028.34 717.05 1190.76 740.57
00011051 00000027 862.64 248.71 431.33 645.23 1033.85 494.04 1226.15 519.16 1161.64 615.36 1027.84 717.88 1189.84 740.67
00011052 00000028 863.12 249.26 432.94 644.35 1034.85 493.91 1227.49 519.85 1161.94 615.79 1028.19 718.21 1189.47 741.74
00011053 00000029 864.55 248.06 432.40 645.26 1035.01 492.28 1227.77 518.39 1162.29 615.22 1028.24 717.44 1189.94 741.00
00011054 00000030 864.24 248.23 434.62 639.38 1034.97 492.83 1229.46 517.83 1161.40 616.24 1028.05 715.29 1191.56 737.85
00011055 00000031 866.92 246.49 433.44 633.66 1034.19 495.57 1232.44 518.26 1160.21 619.07 1030.11 715.68 1195.51 736.03
00011056 00000032 866.77 246.89 434.93 630.08 1037.82 497.54 1233.05 520.35 1161.33 621.73 1034.64 716.68 1193.17 737.25
00011057 00000033 868.49 248.16 435.37 626.80 1039.46 498.92 1234.35 521.64 1162.40 621.88 1037.94 717.24 1194.14 737.72
00011058 00000034 871.07 248.05 436.53 625.81 1042.15 499.91 1237.27 522.55 1164.34 623.09 1040.98 717.60 1196.08 738.01
00011059 00000035 874.40 246.02 435.76 627.48 1045.61 499.44 1241.75 523.79 1166.92 623.81 1042.85 718.03 1197.28 739.73
00011060 00000036 876.50 245.93 435.88 629.89 1047.84 499.97 1243.02 524.93 1169.14 625.01 1045.29 720.07 1197.59 742.27
00011061 00000037 878.62 245.82 435.64 631.58 1049.46 500.93 1244.00 526.49 1170.79 626.08 1045.98 721.64 1197.16 744.32
00011062 00000038 878.70 245.97 435.26 634.10 1049.33 502.09 1243.48 526.66 1171.23 627.77 1046.80 723.90 1197.69 745.81
00011063 00000039 878.96 246.10 435.24 634.44 1050.19 502.30 1243.49 527.31 1171.36 628.34 1047.45 724.86 1196.27 747.27
00011064 00000040 879.64 245.11 435.20 635.69 1051.95 500.98 1243.41 527.45 1172.60 627.11 1047.67 724.04 1195.34 747.73
00011065 00000041 878.98 244.39 435.62 638.35 1052.67 500.18 1243.04 527.09 1173.34 626.24 1047.20 723.58 1196.03 747.56
00011066 00000042 877.76 244.71 436.61 643.30 1052.19 498.88 1243.21 526.25 1173.64 625.64 1046.47 723.51 1198.23 747.85
00011067 00000043 876.73 243.36 436.29 647.64 1051.13 497.33 1243.25 525.57 1173.19 624.20 1043.68 721.41 1199.27 746.30
00011068 00000044 875.47 243.65 436.39 648.39 1049.80 495.63 1242.50 523.58 1172.66 621.88 1042.12 720.53 1199.75 745.21
00011069 00000045 873.88 245.75 436.23 643.09 1047.12 493.96 1241.10 521.24 1170.69 619.98 1040.84 718.50 1199.76 742.75
00011070 00000046 871.86 246.54 437.14 643.31 1045.56 492.69 1240.80 520.79 1169.57 617.66 1037.80 716.82 1199.84 741.76
00011071 00000047 870.46 246.20 437.16 642.64 1044.32 491.28 1240.29 520.87 1168.15 614.63 1035.16 714.02 1198.49 740.05
00011072 00000048 873.42 243.59 433.61 644.78 1044.83 493.51 1239.26 522.21 1168.48 614.60 1033.36 713.19 1197.27 738.71
00011073 00000049 869.55 246.78 436.83 637.52 1042.42 495.90 1240.10 527.02 1166.18 610.21 1031.87 709.43 1198.01 736.71
00011074 00000050 870.13 245.56 436.12 635.78 1040.73 494.39 1239.52 524.14 1164.49 607.54 1031.22 707.30 1198.96 733.35
00011075 00000051 871.51 239.32 432.83 638.86 1040.86 490.09 1234.86 518.48 1164.89 603.14 1031.64 704.65 1196.71 729.58
00011076 00000052 872.92 234.71 428.75 642.06 1041.71 487.03 1232.22 514.39 1165.63 602.02 1032.22 702.38 1195.88 726.45
00011077 00000053 870.72 233.09 429.72 642.79 1040.20 482.87 1229.11 508.99 1164.87 598.71 1032.60 700.64 1194.15 723.73
00011078 00000054 869.86 230.88 429.62 642.72 1040.06 479.55 1228.09 507.62 1163.33 596.06 1032.42 697.31 1193.14 721.77
00011079 00000055 866.76 230.03 431.09 640.62 1039.43 476.92 1227.92 504.80 1163.25 594.02 1031.66 694.86 1192.91 719.01
00011080 00000056 865.16 226.58 433.24 643.09 1039.57 475.37 1229.14 503.53 1163.62 592.45 1031.80 693.53 1193.88 717.62
00011081 00000057 863.11 226.15 433.85 644.84 1037.49 475.60 1228.22 502.80 1162.14 592.13 1031.22 695.05 1193.03 718.25
00011082 00000058 862.61 226.33 432.80 641.75 1035.80 476.49 1226.83 503.30 1159.90 592.61 1031.87 695.76 1191.15 718.63
00011083 00000059 861.91 226.86 433.35 638.01 1035.03 476.28 1226.89 502.85 1159.04 592.92 1033.57 695.89 1191.50 718.50
00011084 00000060 862.32 229.34 432.55 629.27 1035.16 476.90 1226.59 503.52 1158.31 592.50 1034.77 695.39 1189.12 718.31
00011085 00000061 862.49 231.66 431.97 620.12 1035.62 476.35 1227.93 502.50 1159.31 592.17 1036.74 693.77 1190.96 716.35
00011086 00000062 863.01 229.49 431.13 621.75 1035.05 476.52 1227.67 501.75 1159.29 592.47 1036.19 693.18 1191.50 714.84
00011087 00000063 861.82 229.54 432.12 626.15 1033.36 476.46 1225.09 500.23 1157.60 594.22 1034.52 694.60 1191.05 715.18
00011088 00000064 861.64 227.86 433.44 632.26 1032.67 476.59 1222.90 499.59 1156.14 594.18 1033.46 694.68 1190.90 714.55
00011089 00000065 860.82 226.75 434.11 635.33 1032.64 475.84 1222.41 497.82 1156.58 593.68 1032.93 693.17 1192.73 711.96
00011090 00000066 861.20 224.73 432.78 637.59 1034.02 473.81 1219.83 495.14 1157.19 591.60 1034.35 691.11 1191.70 709.24
00011091 00000067 861.10 223.23 432.04 638.50 1035.07 471.92 1219.87 494.66 1157.87 591.13 1034.93 691.51 1190.02 710.98
00011092 00000068 861.20 224.38 433.20 637.93 1034.08 473.29 1221.66 494.93 1158.92 593.18 1034.07 692.72 1193.58 711.29
00011093 00000069 861.96 224.48 432.76 637.82 1032.72 475.88 1223.38 497.34 1158.93 595.22 1032.15 693.48 1195.48 711.88
00011094 00000070 861.94 228.97 434.26 631.74 1033.29 477.78 1225.71 497.86 1160.84 597.89 1033.12 694.01 1198.83 711.47
00011095 00000071 863.73 231.45 432.76 629.31 1034.84 479.64 1226.30 497.96 1163.02 599.13 1034.44 693.60 1201.60 709.65
00011096 00000072 866.29 231.94 431.00 628.48 1037.16 480.46 1228.36 498.06 1165.45 599.54 1035.75 691.07 1206.02 706.24
00011097 00000073 868.68 231.53 430.73 627.35 1041.06 480.45 1231.82 499.87 1167.99 601.08 1037.48 688.77 1208.59 705.26
00011098 00000074 872.65 235.29 428.65 624.79 1044.63 482.83 1234.89 502.80 1170.26 604.82 1037.31 688.15 1210.48 705.60
00011099 00000075 873.34 236.34 429.74 624.21 1046.08 484.62 1238.47 505.75 1171.37 608.00 1037.92 689.91 1211.71 708.41
00011100 00000076 874.00 238.47 429.13 622.79 1047.34 486.48 1240.56 508.04 1173.17 610.13 1037.80 690.17 1213.29 709.23
00011101 00000077 874.04 238.37 429.37 624.43 1047.14 485.39 1240.56 507.15 1173.21 609.89 1037.65 691.84 1212.26 711.06
00011102 00000078 873.15 236.92 429.97 628.03 1046.83 483.50 1238.58 505.40 1172.76 608.16 1037.09 691.52 1210.78 710.83
00011103 00000079 874.31 237.03 429.21 628.87 1046.48 484.02 1237.87 505.09 1172.34 608.47 1036.68 692.72 1210.55 711.45
00011104 00000080 874.55 239.53 430.07 627.41 1046.12 485.60 1241.37 508.58 1171.88 611.45 1033.25 693.62 1211.13 714.17
00011105 00000081 875.49 241.21 429.86 628.87 1046.90 488.38 1242.82 512.50 1172.94 614.28 1032.85 696.09 1211.67 717.53
00011106 00000082 876.73 241.41 430.02 630.09 1048.76 489.36 1243.94 513.70 1175.21 614.83 1034.01 697.35 1211.63 719.07
00011107 00000083 877.78 239.60 429.02 632.89 1049.65 488.61 1243.27 512.78 1176.45 613.92 1035.31 697.07 1212.25 718.59
00011108 00000084 877.76 237.68 428.28 634.43 1049.62 486.58 1241.59 510.55 1176.37 611.77 1036.35 696.60 1210.83 717.86
00011109 00000085 877.39 236.85 428.43 635.04 1049.61 486.08 1240.91 509.49 1176.25 611.02 1036.88 696.87 1210.43 717.61
00011110 00000086 877.21 236.92 429.02 637.06 1049.91 487.00 1242.50 510.47 1178.32 611.90 1037.53 698.04 1212.69 718.81
00011111 00000087 879.35 237.33 428.82 638.83 1052.59 488.94 1244.80 512.59 1182.20 613.94 1039.66 700.21 1214.67 721.16
00011112 00000088 881.23 240.97 427.96 636.75 1054.28 491.07 1247.08 514.38 1184.71 614.93 1042.26 702.87 1216.30 723.57
00011113 00000089 881.13 243.38 428.72 636.01 1054.19 492.67 1247.22 514.82 1185.48 616.84 1044.13 705.81 1217.22 725.56
00011114 00000090 880.70 242.95 429.49 637.16 1053.91 493.60 1247.18 516.42 1184.48 617.87 1043.93 706.64 1216.47 726.82
00011115 00000091 880.46 243.21 429.11 636.35 1053.86 493.57 1246.66 515.98 1184.54 617.39 1044.60 706.25 1216.66 726.07
00011116 00000092 881.56 240.84 428.14 637.88 1054.52 492.09 1247.07 514.87 1185.14 615.83 1044.21 703.74 1217.60 723.84
00011117 00000093 880.97 240.24 428.68 637.24 1054.21 491.15 1246.73 513.59 1184.49 615.07 1044.02 702.91 1217.26 722.77
00011118 00000094 880.93 238.43 428.70 639.48 1054.37 489.77 1245.97 512.96 1183.84 613.92 1043.16 701.99 1216.30 722.41
00011119 00000095 880.69 239.21 428.29 639.67 1054.66 488.57 1244.02 512.40 1183.03 613.42 1043.07 701.65 1213.93 722.67
00011120 00000096 879.93 239.49 429.12 640.06 1054.66 488.01 1243.21 512.69 1182.22 612.55 1043.15 702.28 1211.83 723.91
00011121 00000097 878.88 239.44 429.66 642.10 1054.28 487.56 1243.25 512.96 1181.76 613.01 1041.71 702.94 1211.03 725.24
00011122 00000098 878.99 239.05 429.47 643.97 1053.17 487.53 1243.40 513.46 1181.33 613.11 1039.12 703.09 1210.06 725.98
00011123 00000099 879.21 239.88 429.06 644.31 1053.00 487.67 1243.14 513.87 1180.94 613.62 1038.12 703.26 1209.64 726.43
00011124 00000100 878.55 241.85 428.89 642.17 1051.91 487.65 1243.16 514.36 1179.62 613.47 1037.05 703.09 1209.23 726.69
00011125 00000101 876.71 240.90 429.06 639.73 1050.67 486.35 1241.88 512.85 1177.96 611.87 1036.53 701.57 1207.88 724.99
00011126 00000102 874.14 241.47 428.80 635.69 1048.30 485.86 1239.42 511.23 1174.75 610.30 1036.91 700.78 1206.07 723.13
00011127 00000103 872.36 238.26 428.83 631.63 1045.46 483.83 1238.49 509.17 1171.59 607.71 1037.88 698.04 1206.16 719.89
00011128 00000104 870.21 236.61 428.13 631.62 1044.07 482.26 1234.57 506.46 1170.40 604.52 1038.18 696.05 1203.98 716.89
00011129 00000105 868.65 235.08 428.85 634.78 1042.25 480.95 1230.80 504.12 1168.40 602.55 1036.09 696.14 1200.75 716.28
00011130 00000106 865.28 235.19 431.15 637.82 1039.28 479.69 1229.04 503.59 1166.73 602.39 1031.51 697.70 1198.61 718.75
00011131 00000107 864.06 235.61 430.00 640.45 1037.33 480.19 1225.28 504.46 1164.38 601.48 1029.34 698.54 1194.83 720.05
00011132 00000108 859.22 236.20 431.69 639.20 1035.80 480.97 1223.15 506.01 1162.42 601.55 1030.49 699.02 1192.31 721.08
00011133 00000109 857.73 237.41 430.66 633.83 1035.73 481.22 1221.49 505.22 1160.97 600.82 1032.21 697.51 1190.70 718.63
00011134 00000110 855.17 237.76 431.11 632.50 1034.06 481.41 1218.61 505.20 1158.88 599.43 1033.07 696.72 1190.13 717.57
00011135 00000111 855.79 235.88 429.57 634.70 1034.41 480.11 1216.62 504.65 1158.02 598.49 1032.68 697.32 1186.50 719.02
00011136 00000112 854.76 234.62 430.13 634.55 1035.06 478.78 1216.57 503.96 1158.30 598.17 1032.94 696.55 1184.54 718.80
00011137 00000113 854.25 231.77 429.79 635.11 1033.11 477.72 1217.40 503.88 1157.71 597.61 1029.71 694.19 1185.37 717.02
00011138 00000114 854.02 232.50 430.78 636.43 1032.98 477.74 1217.74 503.04 1158.58 597.14 1027.95 692.66 1187.51 714.72
00011139 00000115 854.80 231.86 429.11 640.99 1034.06 477.76 1217.52 501.93 1160.54 599.09 1027.38 693.33 1189.93 714.42
00011140 00000116 855.50 234.85 428.21 640.39 1035.45 477.83 1218.19 502.19 1164.05 601.06 1025.63 693.80 1189.93 715.42
00011141 00000117 854.59 236.50 430.20 639.15 1036.09 478.27 1221.16 503.46 1165.91 602.87 1026.59 695.17 1191.99 717.25
00011142 00000118 856.95 236.63 430.44 638.54 1039.66 479.76 1224.17 505.04 1169.53 603.43 1030.49 694.72 1195.16 716.80
00011143 00000119 857.57 239.00 431.05 634.82 1041.60 482.07 1226.58 506.47 1172.68 604.43 1034.68 695.58 1198.90 716.85
00011144 00000120 857.44 243.56 431.72 628.54 1044.05 483.38 1229.58 508.11 1176.07 606.08 1037.39 696.26 1201.27 717.85
00011145 00000121 858.71 244.54 430.96 626.76 1047.98 483.07 1231.19 508.09 1180.31 606.12 1040.96 695.66 1203.34 717.47
00011146 00000122 858.36 243.80 431.59 628.12 1050.75 483.01 1233.39 509.25 1184.57 605.91 1043.35 696.37 1205.00 719.04
00011147 00000123 858.36 242.63 429.70 627.98 1053.67 483.31 1234.85 510.59 1187.77 607.76 1045.10 696.37 1205.42 719.75
00011148 00000124 856.66 243.23 431.10 627.02 1058.79 483.91 1235.66 512.06 1191.82 608.14 1047.53 695.05 1204.18 719.24
CROP_BBOX: 401 0 1568 1080
