Video ID: 	bWkevSQn7Xg
H: 	1080
W: 	1920
FPS: 	25.0

FRAME INDEX X0 Y0 W H [Landmarks (5 Points)]

00034170 00000000 769.85 192.94 345.91 499.78 891.56 408.33 1049.81 373.13 1009.48 486.66 938.81 590.42 1061.88 562.43
00034171 00000001 770.83 203.39 342.89 478.01 895.23 404.94 1042.91 381.30 1005.03 495.90 944.43 586.22 1056.27 566.63
00034172 00000002 777.47 205.69 339.08 477.66 901.51 405.53 1048.25 384.71 1009.22 498.71 947.83 589.47 1057.92 571.91
00034173 00000003 785.41 208.09 336.34 479.73 909.51 403.97 1058.16 385.08 1016.61 501.53 949.31 588.95 1063.20 572.96
00034174 00000004 788.38 201.87 339.61 479.42 917.34 398.42 1068.05 382.60 1024.89 496.98 949.82 583.09 1067.96 570.85
00034175 DELETE   791.70 198.13 343.92 481.70 923.43 393.17 1073.71 379.27 1030.77 491.22 953.84 577.27 1072.12 566.43
00034176 00000006 795.48 189.11 343.04 485.29 930.61 389.12 1078.51 378.22 1037.18 485.12 968.32 575.43 1073.28 566.94
00034177 00000007 801.29 189.28 339.42 480.16 937.33 389.08 1082.56 377.46 1044.75 483.62 980.40 574.91 1080.34 565.77
00034178 00000008 810.15 196.59 332.23 475.34 942.83 393.53 1084.43 381.34 1049.90 489.82 989.68 585.52 1084.64 574.17
00034179 00000009 811.09 197.07 331.62 483.27 943.39 399.42 1084.31 384.75 1050.78 498.16 990.03 593.36 1086.20 580.36
00034180 00000010 808.72 202.99 334.12 486.05 939.27 406.43 1082.47 388.16 1047.61 505.81 988.85 602.08 1086.56 586.38
00034181 00000011 802.23 212.27 340.01 494.48 931.84 414.04 1081.93 395.78 1040.26 511.85 977.36 609.14 1077.87 594.30
00034182 00000012 796.10 222.65 342.27 496.01 927.24 419.70 1078.06 404.04 1035.30 520.16 968.53 617.27 1072.41 604.69
00034183 00000013 794.73 225.01 342.09 500.88 925.74 428.97 1075.46 410.45 1034.14 531.66 963.98 624.21 1071.27 610.07
00034184 00000014 798.25 223.74 341.02 516.65 928.83 433.22 1081.60 412.78 1046.78 540.42 972.11 636.36 1074.68 620.42
00034185 00000015 800.10 229.17 342.20 515.67 930.73 438.14 1082.32 415.69 1049.18 540.03 975.46 637.71 1080.06 620.20
00034186 00000016 801.06 228.28 341.97 516.64 931.16 438.31 1082.54 414.83 1051.06 538.34 975.95 637.84 1080.81 619.62
00034187 00000017 800.30 225.17 343.29 516.51 931.42 435.60 1082.96 412.30 1052.19 536.15 975.14 635.45 1080.08 617.44
00034188 00000018 801.06 226.15 343.61 513.61 932.67 433.94 1084.62 412.97 1052.87 536.14 973.40 632.67 1080.34 616.63
00034189 00000019 803.00 227.94 343.50 511.84 934.50 433.82 1086.81 414.40 1054.96 537.49 974.11 631.79 1082.99 617.07
00034190 00000020 804.87 227.95 343.10 510.46 936.03 433.19 1089.76 413.80 1057.22 538.09 975.96 632.28 1084.57 617.45
00034191 00000021 809.45 225.45 337.35 500.24 940.61 437.01 1083.79 420.56 1051.08 537.80 972.42 626.14 1089.33 610.33
00034192 00000022 803.25 222.91 342.65 510.29 933.72 430.03 1087.74 410.75 1056.13 533.78 972.59 627.42 1083.90 612.91
00034193 00000023 800.02 225.60 346.24 499.84 932.72 433.15 1082.06 411.40 1040.69 534.87 967.48 619.11 1083.31 602.75
00034194 00000024 797.88 226.46 345.40 498.12 928.86 432.50 1077.83 410.90 1036.38 533.83 965.83 619.41 1080.37 603.12
00034195 00000025 796.21 227.02 343.69 495.92 925.78 432.74 1073.94 409.52 1033.56 533.97 964.86 619.97 1078.49 602.59
00034196 00000026 795.22 229.32 343.37 491.54 923.62 432.54 1071.35 408.61 1031.36 534.42 963.87 620.03 1076.82 602.14
00034197 00000027 794.56 230.89 342.83 489.68 922.25 433.04 1069.89 408.22 1030.28 534.45 963.44 620.38 1076.06 601.89
00034198 00000028 794.85 230.47 342.40 490.65 922.24 432.95 1069.97 408.27 1030.41 534.77 964.32 621.57 1076.10 603.15
00034199 00000029 795.54 229.24 343.36 491.83 923.37 432.73 1071.77 408.82 1031.60 533.61 966.27 622.06 1077.26 604.13
00034200 00000030 797.28 229.59 342.60 491.07 924.89 431.44 1073.61 408.67 1032.63 532.76 967.62 622.13 1077.75 604.94
00034201 00000031 799.07 226.08 343.54 493.85 927.04 430.87 1076.53 409.07 1034.68 532.03 970.09 622.36 1079.25 605.80
00034202 00000032 801.22 224.82 344.32 494.95 929.85 429.72 1079.48 409.14 1037.44 531.92 972.75 621.98 1080.40 606.16
00034203 00000033 808.63 224.29 337.75 490.72 931.99 428.56 1081.14 410.30 1038.24 532.71 976.11 622.71 1081.97 607.81
00034204 00000034 809.19 225.48 336.50 480.92 932.63 425.10 1078.40 410.85 1038.10 526.88 977.55 619.68 1079.40 606.21
00034205 00000035 810.03 213.08 337.66 483.86 931.64 414.69 1083.78 397.13 1037.92 514.34 978.76 609.44 1081.89 594.52
00034206 00000036 800.65 192.58 344.23 499.28 926.62 395.16 1076.74 381.67 1033.29 496.37 975.38 591.51 1072.18 580.68
00034207 00000037 800.17 181.07 341.63 498.12 924.30 377.96 1071.46 365.54 1030.48 473.88 971.38 574.99 1066.21 564.89
00034208 00000038 801.88 168.86 342.69 504.69 919.56 367.01 1073.38 352.28 1032.12 453.64 966.06 560.91 1072.16 549.47
00034209 00000039 802.13 169.73 346.01 501.85 919.45 358.16 1077.67 344.74 1034.56 443.73 961.75 551.10 1077.90 540.95
00034210 00000040 801.26 170.77 346.25 501.17 920.71 356.31 1076.93 344.02 1035.55 444.72 959.44 547.33 1076.85 538.48
00034211 00000041 802.24 166.96 345.53 510.27 923.45 364.08 1077.55 351.51 1038.20 455.86 956.00 552.91 1077.59 543.98
00034212 00000042 802.20 178.79 346.42 504.06 924.89 377.04 1079.08 364.18 1034.09 473.01 956.76 562.64 1077.06 553.04
00034213 00000043 803.23 188.68 343.66 497.87 927.08 383.80 1083.12 373.99 1034.43 482.41 958.84 570.96 1075.49 563.98
00034214 00000044 803.06 189.69 343.17 499.08 929.47 385.37 1083.41 374.98 1036.65 486.63 962.72 575.03 1074.70 567.45
00034215 00000045 802.65 188.27 343.31 498.04 930.17 384.28 1080.22 372.68 1035.99 485.28 971.78 578.25 1073.19 569.06
00034216 00000046 808.18 190.33 340.39 481.23 931.70 388.61 1081.82 379.36 1035.22 485.00 973.94 581.42 1075.85 571.89
00034217 00000047 809.34 190.61 339.50 479.70 933.94 388.60 1082.51 379.46 1036.86 485.02 976.92 581.15 1076.59 571.83
00034218 00000048 811.59 194.74 338.13 475.86 935.07 391.90 1083.92 381.86 1038.06 488.73 978.21 583.44 1078.20 573.57
00034219 00000049 815.20 196.71 336.44 482.60 938.49 398.55 1086.25 386.39 1042.23 496.97 981.25 589.99 1082.53 578.67
00034220 00000050 811.65 200.85 343.41 498.11 938.23 406.87 1089.81 393.83 1045.31 507.63 980.58 598.23 1079.08 588.51
00034221 00000051 819.80 220.28 336.33 491.15 942.26 418.32 1092.95 404.06 1047.73 521.39 981.40 614.28 1086.46 602.22
00034222 00000052 820.69 228.83 337.41 496.25 943.94 429.90 1093.30 417.41 1046.24 533.84 978.85 624.17 1085.44 614.11
00034223 00000053 814.85 235.27 344.60 508.21 938.87 431.94 1095.67 422.06 1049.93 539.30 977.79 636.29 1083.62 628.87
00034224 00000054 815.05 237.53 346.39 511.33 939.09 437.23 1095.11 425.77 1050.01 542.25 976.43 638.07 1085.83 629.37
00034225 00000055 815.56 236.49 347.08 513.18 940.08 435.99 1096.64 425.38 1051.42 541.92 976.66 637.14 1087.27 629.14
00034226 00000056 818.45 233.96 346.40 515.23 942.70 436.68 1098.87 426.88 1053.83 539.64 976.58 634.96 1089.81 628.05
00034227 00000057 820.27 231.78 345.85 516.60 945.04 434.05 1101.16 424.60 1056.69 537.76 978.42 633.82 1091.24 627.44
00034228 00000058 819.76 229.93 346.20 514.95 944.79 430.46 1102.64 421.20 1057.68 535.88 977.83 631.20 1091.47 624.68
00034229 00000059 818.82 224.83 346.86 516.21 942.62 425.95 1102.75 417.19 1058.62 534.84 974.72 628.33 1091.16 622.29
00034230 00000060 819.77 223.14 344.03 512.93 939.60 424.82 1100.13 415.24 1055.95 530.17 968.97 623.32 1088.90 617.02
00034231 DELETE   818.28 221.73 344.51 513.42 943.66 429.43 1099.79 417.09 1054.38 529.64 973.61 617.91 1091.34 607.84
00034232 DELETE   815.30 211.80 346.70 511.11 938.40 419.91 1097.78 408.55 1046.81 520.79 970.55 610.64 1086.01 601.68
00034233 00000063 812.09 199.54 348.26 513.89 935.90 407.41 1094.18 399.79 1042.58 507.21 966.55 600.15 1080.55 595.13
00034234 00000064 814.55 194.27 343.64 510.26 935.37 395.55 1091.27 389.62 1041.03 497.74 964.27 589.10 1077.30 585.75
00034235 00000065 812.48 190.20 344.67 511.14 936.83 387.05 1092.26 382.57 1044.52 488.58 965.22 582.12 1079.04 579.32
00034236 00000066 811.73 188.96 344.42 506.00 936.60 384.06 1092.61 379.00 1045.97 483.23 968.27 577.65 1080.94 574.19
00034237 00000067 811.25 185.29 344.25 505.29 935.25 382.46 1091.42 375.41 1045.80 479.48 970.65 575.07 1083.16 569.82
00034238 00000068 810.66 182.44 343.14 505.74 933.54 380.46 1089.55 372.10 1045.05 476.90 972.19 573.77 1083.50 567.25
00034239 00000069 811.04 183.17 341.01 504.37 935.64 389.62 1088.05 382.72 1043.92 476.86 969.72 573.49 1080.56 568.90
00034240 00000070 810.59 181.28 341.69 506.64 935.22 389.83 1088.02 382.56 1044.04 475.10 969.26 572.86 1080.33 567.99
00034241 00000071 810.46 179.10 341.11 507.17 934.87 384.66 1086.40 376.19 1044.02 473.72 970.61 572.42 1080.14 566.42
00034242 00000072 810.01 178.45 342.20 507.32 933.49 381.16 1086.74 372.85 1043.62 473.56 971.91 572.65 1080.58 566.35
00034243 00000073 809.52 178.85 343.21 508.54 933.50 379.72 1086.25 371.16 1043.42 475.10 972.74 574.00 1079.44 567.33
00034244 00000074 810.22 181.95 342.67 504.91 934.47 379.39 1087.71 371.89 1043.97 476.87 973.11 574.84 1078.69 569.11
00034245 00000075 811.95 182.12 341.69 503.69 935.19 380.36 1088.42 372.85 1044.25 477.65 973.81 575.29 1078.93 569.73
00034246 00000076 813.75 183.38 341.32 502.62 935.71 380.53 1089.79 372.86 1045.57 478.05 975.27 575.19 1081.55 569.56
00034247 00000077 814.38 184.71 341.55 501.13 935.63 380.99 1090.67 373.06 1046.15 478.31 975.78 575.72 1082.81 569.87
00034248 00000078 815.61 186.80 340.72 499.27 936.94 381.02 1092.00 374.08 1046.81 479.26 975.57 575.66 1082.52 570.75
00034249 00000079 816.51 187.12 340.47 498.03 937.48 381.77 1093.00 375.03 1047.41 479.96 975.92 575.82 1083.41 571.23
00034250 00000080 817.48 187.48 340.21 498.06 937.73 382.80 1094.48 376.02 1048.20 480.51 975.89 576.79 1084.70 572.26
00034251 00000081 817.86 189.63 339.67 495.14 938.36 382.92 1095.04 376.60 1049.01 481.07 975.89 576.74 1084.40 572.63
00034252 00000082 817.42 188.89 340.86 496.97 938.92 383.27 1095.93 377.35 1049.57 481.51 975.84 576.46 1085.37 572.54
00034253 00000083 816.91 189.48 342.28 496.45 938.42 384.35 1096.63 378.81 1049.05 482.03 973.73 575.71 1085.80 572.10
00034254 00000084 817.36 189.38 341.60 493.51 937.85 384.90 1097.66 379.98 1049.02 482.42 971.72 574.48 1086.48 571.49
00034255 00000085 815.29 191.76 342.84 482.46 943.31 390.01 1093.69 380.75 1047.86 484.97 973.96 574.95 1087.10 567.84
00034256 00000086 815.15 191.23 342.51 481.69 943.22 389.66 1093.69 380.59 1047.99 484.80 975.26 575.50 1087.07 568.58
00034257 00000087 814.95 190.96 342.00 481.74 943.38 389.57 1093.69 380.41 1048.70 483.86 976.43 575.90 1087.42 568.93
00034258 00000088 815.20 190.42 341.20 483.19 943.61 387.73 1093.61 379.46 1048.83 482.78 978.43 577.41 1086.66 570.92
00034259 00000089 815.49 187.95 340.54 497.65 939.09 381.05 1092.95 376.93 1047.07 479.35 978.00 576.39 1082.20 573.51
00034260 00000090 815.52 187.64 340.60 497.13 938.15 382.48 1093.69 378.18 1047.24 480.15 975.94 575.75 1083.90 572.94
00034261 00000091 814.07 187.76 342.38 496.67 935.80 383.35 1093.15 376.83 1046.56 479.80 972.56 573.21 1085.68 568.55
00034262 00000092 810.05 187.26 345.50 503.65 935.09 381.95 1090.57 375.19 1045.47 479.98 968.49 573.08 1081.66 568.28
00034263 00000093 808.69 187.78 344.46 507.27 935.06 380.15 1088.13 373.93 1043.80 480.50 968.18 575.30 1077.55 570.99
00034264 00000094 806.05 187.28 345.78 511.24 933.26 380.07 1085.53 374.46 1040.99 479.71 966.54 576.15 1075.57 572.32
00034265 00000095 804.85 190.92 344.30 506.38 931.98 379.76 1082.64 373.03 1039.44 480.17 965.83 576.08 1073.46 571.51
00034266 00000096 802.11 189.73 343.88 505.92 929.60 380.55 1077.99 370.78 1036.74 480.21 966.30 576.48 1072.24 569.35
00034267 00000097 799.33 191.26 343.17 505.21 926.61 381.46 1074.46 369.71 1033.99 480.82 965.57 577.94 1071.69 569.21
00034268 00000098 797.76 189.27 342.32 508.15 923.42 380.86 1072.02 369.55 1030.79 482.00 962.10 578.08 1070.42 569.57
00034269 00000099 796.72 189.53 341.42 505.28 919.00 382.16 1071.65 370.59 1027.69 481.95 959.79 578.96 1071.00 570.20
00034270 00000100 793.58 193.94 343.74 481.60 918.48 387.93 1070.73 377.04 1026.40 482.41 953.69 577.25 1070.29 568.73
00034271 00000101 796.33 193.50 344.69 480.69 922.69 387.22 1075.00 377.86 1029.40 483.58 958.95 577.53 1070.66 570.06
00034272 DELETE   804.61 190.68 343.28 495.70 935.11 380.26 1086.97 376.28 1040.30 483.49 973.46 578.48 1073.29 574.77
00034273 00000103 821.81 199.67 334.00 481.25 951.71 386.94 1099.24 383.70 1055.17 485.41 987.71 583.50 1083.96 579.26
00034274 00000104 828.23 192.19 338.75 509.41 956.53 385.20 1108.64 383.12 1066.20 484.99 993.24 588.25 1094.49 588.50
00034275 00000105 837.08 191.48 336.21 510.28 967.87 389.10 1120.37 383.08 1079.78 480.81 1003.54 588.09 1110.37 584.78
00034276 00000106 836.78 194.07 337.83 512.06 970.09 393.00 1120.86 380.59 1084.10 481.41 1006.15 588.80 1116.95 580.14
00034277 00000107 832.29 194.63 341.74 515.97 964.72 397.39 1115.48 379.91 1081.60 485.81 1003.80 591.89 1117.89 578.81
00034278 00000108 827.27 195.55 343.51 518.45 957.84 397.71 1109.35 381.98 1074.87 491.27 997.95 594.02 1110.48 582.03
00034279 00000109 824.50 198.85 342.10 518.81 951.38 401.90 1104.63 386.08 1067.42 498.58 990.36 598.99 1102.24 586.79
00034280 00000110 819.14 203.22 344.36 519.98 946.79 406.40 1101.78 394.62 1060.58 505.25 981.64 603.32 1095.15 594.38
00034281 00000111 815.46 212.31 344.71 520.93 946.25 410.23 1101.81 400.99 1058.71 515.43 974.98 607.26 1093.08 599.97
00034282 00000112 813.19 222.54 347.43 516.77 938.05 411.40 1101.28 405.38 1054.41 522.66 962.37 617.70 1080.66 614.38
00034283 00000113 816.04 224.95 347.73 521.29 940.15 412.88 1102.94 412.57 1054.27 527.70 958.50 618.57 1079.26 619.86
00034284 00000114 818.62 228.36 349.11 522.46 944.78 415.29 1105.06 417.45 1055.16 532.98 959.70 621.76 1078.15 624.92
00034285 00000115 823.04 230.13 345.61 514.80 953.24 417.30 1111.26 421.20 1059.86 536.60 970.51 624.06 1080.89 628.17
00034286 00000116 828.73 229.85 343.09 505.82 956.08 421.07 1117.57 420.67 1066.06 536.60 979.80 625.38 1090.59 625.93
00034287 00000117 834.33 236.33 335.91 484.26 969.19 425.10 1115.90 419.40 1069.36 536.43 995.39 620.44 1097.62 615.45
00034288 00000118 835.25 234.32 336.95 479.54 969.50 425.62 1117.24 415.03 1071.46 534.76 998.50 615.89 1104.98 606.98
00034289 00000119 832.88 231.67 339.56 480.00 966.97 422.82 1114.95 410.67 1070.06 528.57 997.54 611.58 1106.96 601.58
CROP_BBOX: 529 0 1477 979
