Video ID: 	81mC61298cM
H: 	1080
W: 	1920
FPS: 	25.0

FRAME INDEX X0 Y0 W H [Landmarks (5 Points)]

00001065 00000000 810.99 402.61 395.07 529.66 880.73 631.48 1069.55 581.70 979.72 733.14 928.47 788.89 1132.95 746.92
00001066 00000001 807.87 401.89 391.95 532.61 876.57 634.79 1065.68 584.83 975.46 737.56 926.48 794.53 1128.71 752.17
00001067 00000002 806.72 402.13 388.21 533.60 874.43 636.37 1062.86 588.58 972.46 740.66 924.30 796.03 1125.53 755.11
00001068 00000003 806.87 405.10 384.04 531.72 871.93 636.45 1060.61 590.25 968.60 741.77 920.72 796.51 1122.30 756.91
00001069 00000004 806.86 404.51 381.87 531.66 870.78 635.22 1059.22 590.71 965.65 741.07 918.69 795.11 1120.17 756.97
00001070 00000005 806.26 405.01 383.51 531.33 870.47 633.28 1059.12 589.67 964.98 739.21 917.17 793.23 1119.67 755.74
00001071 00000006 807.14 403.28 380.46 532.02 870.21 628.87 1059.13 586.69 964.06 736.77 915.05 789.67 1118.59 753.30
00001072 00000007 809.08 400.55 376.17 533.08 870.80 625.58 1058.81 585.57 963.28 734.81 912.81 785.76 1117.15 751.18
00001073 00000008 811.02 399.56 374.57 531.87 871.69 623.57 1059.23 582.58 962.93 729.99 913.56 782.71 1118.22 747.28
00001074 00000009 813.84 396.86 372.41 530.27 872.92 620.02 1059.35 577.89 962.49 722.34 915.03 779.33 1117.01 743.36
00001075 00000010 815.23 389.17 367.88 532.78 872.33 615.92 1059.96 574.60 960.51 713.10 911.57 774.63 1113.41 739.14
00001076 DELETE   816.78 384.48 364.54 531.76 873.69 611.99 1059.87 572.08 958.83 704.61 910.58 769.99 1109.58 735.65
00001077 00000012 817.76 381.51 363.53 532.36 874.35 609.93 1058.99 571.26 958.35 701.17 908.97 767.38 1106.56 734.26
00001078 00000013 818.98 378.90 360.90 533.66 874.71 605.74 1057.09 570.99 954.50 696.19 904.77 763.89 1100.10 734.01
00001079 00000014 819.09 376.66 362.01 534.21 874.49 601.25 1056.63 570.91 951.67 691.44 900.81 759.97 1095.88 733.63
00001080 00000015 817.17 374.42 363.77 533.71 874.98 596.99 1056.61 572.75 950.05 689.60 897.01 755.50 1090.92 734.36
00001081 00000016 817.20 373.96 363.04 532.15 876.17 593.56 1057.00 574.41 948.98 688.24 894.76 752.24 1087.11 735.43
00001082 00000017 815.39 374.03 363.40 530.08 875.07 591.55 1056.24 573.98 947.63 687.55 892.70 750.81 1085.07 735.35
00001083 00000018 809.00 369.76 359.70 531.46 869.24 579.41 1055.33 569.55 943.15 685.99 889.29 743.88 1085.37 735.31
00001084 00000019 801.20 368.88 363.06 531.05 862.41 583.89 1046.64 571.72 935.00 688.77 884.12 746.92 1077.59 736.28
00001085 00000020 794.42 371.91 365.89 529.02 857.68 587.14 1042.11 573.93 931.04 691.66 876.59 749.62 1071.13 738.34
00001086 00000021 791.08 372.00 365.42 530.46 855.00 588.36 1039.86 575.42 927.66 691.86 872.46 750.81 1068.03 739.72
00001087 00000022 788.76 370.20 363.02 532.42 852.38 589.34 1038.58 576.67 925.46 693.12 868.95 751.66 1065.54 740.61
00001088 00000023 787.49 374.49 363.43 528.91 851.34 593.46 1038.89 581.16 924.80 696.33 866.19 752.67 1065.95 742.08
00001089 00000024 785.67 379.57 361.87 525.19 848.89 601.20 1036.86 586.71 925.21 702.20 863.46 755.64 1066.03 743.42
00001090 00000025 786.41 384.93 359.99 525.36 847.75 605.26 1034.71 595.36 921.92 712.21 860.20 758.71 1063.08 750.78
00001091 00000026 786.83 391.56 358.68 523.20 845.70 608.21 1034.19 601.59 917.39 717.28 857.85 762.50 1061.87 757.19
00001092 00000027 786.66 396.57 361.45 523.71 844.10 610.07 1035.19 605.43 914.41 721.22 855.21 766.49 1061.99 762.76
00001093 00000028 787.01 399.48 362.02 522.24 844.24 612.67 1036.95 607.85 915.35 722.71 855.47 770.09 1062.30 766.35
00001094 00000029 787.12 397.25 364.90 524.58 844.68 612.33 1038.55 607.94 917.11 724.77 856.37 771.14 1063.14 767.80
00001095 00000030 789.88 394.44 363.39 527.47 846.25 611.69 1041.53 606.92 918.13 724.32 857.71 772.13 1065.22 768.58
00001096 00000031 791.17 394.58 366.23 527.18 846.59 611.55 1042.70 606.98 918.20 724.39 858.54 772.26 1066.03 768.91
00001097 00000032 790.09 394.70 368.62 528.80 846.84 612.54 1044.26 608.26 918.96 725.35 857.43 773.50 1066.72 770.47
00001098 00000033 791.81 401.38 369.25 530.17 851.00 611.59 1041.15 614.09 916.46 729.97 865.27 775.27 1062.30 776.61
00001099 00000034 792.47 401.59 369.14 532.30 851.04 613.98 1040.46 614.71 917.08 732.09 868.49 778.17 1064.89 777.96
00001100 00000035 792.36 395.85 372.74 538.61 851.91 612.73 1041.95 612.97 918.73 731.09 868.64 776.57 1066.58 775.85
00001101 00000036 793.52 392.73 375.82 543.53 852.70 611.82 1044.70 610.58 921.66 731.76 869.63 776.51 1070.20 774.53
00001102 00000037 796.23 390.35 375.39 549.08 855.89 614.27 1045.92 611.66 924.43 734.61 874.17 777.29 1075.60 774.17
00001103 00000038 796.66 386.63 376.55 554.76 857.58 618.44 1049.84 614.06 928.88 737.70 877.39 778.80 1082.07 773.98
00001104 00000039 796.29 385.33 379.84 558.08 857.36 618.49 1052.86 612.39 932.54 743.07 881.36 783.05 1087.50 776.79
00001105 00000040 801.11 391.29 380.21 554.51 861.55 620.51 1054.67 614.30 935.03 748.94 886.18 787.20 1090.80 781.10
00001106 00000041 801.93 392.12 385.07 558.20 863.09 622.35 1055.80 616.54 936.30 757.10 890.69 792.85 1094.89 786.95
00001107 00000042 804.38 394.69 384.76 557.22 865.91 624.90 1058.20 618.26 939.77 758.41 894.15 796.53 1096.04 790.27
00001108 00000043 808.94 397.65 380.68 555.96 871.08 626.83 1060.75 621.75 943.49 758.92 898.18 798.18 1096.57 793.30
00001109 00000044 811.22 395.63 384.67 558.66 875.78 628.33 1065.57 623.98 947.60 758.85 901.92 798.30 1099.86 794.12
00001110 00000045 814.75 398.39 387.07 556.59 879.44 627.43 1068.58 623.73 951.80 759.77 904.71 796.90 1102.73 793.52
00001111 DELETE   818.34 400.44 388.00 554.93 882.77 626.94 1073.53 624.24 955.59 761.16 909.37 798.31 1106.92 795.90
00001112 00000047 821.89 400.93 389.74 555.54 888.10 629.29 1078.12 625.36 961.76 762.00 916.29 800.55 1111.24 797.17
00001113 00000048 834.50 406.22 382.65 558.95 899.06 626.33 1094.07 630.68 965.86 770.92 921.46 805.57 1128.90 803.70
00001114 00000049 838.68 410.34 378.95 555.18 904.19 627.58 1098.22 631.35 972.12 774.26 924.52 806.11 1133.30 803.79
00001115 DELETE   840.87 412.89 382.36 553.91 907.99 628.34 1101.46 632.04 974.63 774.90 928.01 807.39 1135.44 805.39
00001116 00000051 841.56 413.33 386.66 543.97 901.30 626.92 1097.69 634.80 965.77 772.45 929.60 802.76 1129.58 808.17
00001117 DELETE   843.45 411.63 386.12 545.85 903.24 628.14 1098.75 635.66 967.61 771.67 931.55 803.87 1130.22 808.96
00001118 00000053 845.03 413.53 386.44 544.76 904.86 628.78 1100.70 637.23 969.50 772.94 931.71 805.05 1130.84 811.10
00001119 00000054 846.03 419.23 385.81 537.40 905.03 629.80 1101.84 638.93 969.58 773.75 930.42 805.66 1129.45 812.33
00001120 00000055 843.46 423.97 392.26 534.67 905.40 631.22 1101.77 639.57 971.81 774.81 931.30 806.76 1129.71 812.66
00001121 00000056 844.13 426.20 391.78 533.12 906.45 632.15 1102.86 641.17 972.80 776.77 931.11 806.57 1130.58 813.10
00001122 00000057 845.10 427.39 389.99 532.37 907.41 633.27 1102.49 640.66 973.69 776.71 933.08 807.53 1131.43 812.84
00001123 00000058 845.44 425.53 389.75 532.82 907.77 633.21 1102.90 640.92 974.36 776.28 933.29 806.99 1131.16 812.60
00001124 00000059 846.61 427.35 386.02 529.56 908.49 633.51 1102.38 640.61 973.89 774.17 933.51 806.16 1130.30 811.31
00001125 00000060 847.12 425.04 385.03 531.61 907.97 633.56 1100.80 639.73 972.46 773.31 934.27 806.37 1129.87 810.71
00001126 00000061 848.06 423.00 380.58 532.08 907.94 632.85 1099.95 638.52 971.68 773.04 934.54 804.58 1130.42 808.53
00001127 00000062 849.98 420.24 377.60 533.84 908.84 631.82 1099.17 637.46 971.10 772.34 934.82 802.68 1130.59 806.63
00001128 00000063 851.84 419.41 372.98 532.81 910.23 631.30 1098.02 636.52 971.23 770.42 936.81 800.72 1129.93 804.26
00001129 00000064 851.87 417.67 371.90 531.56 909.60 630.05 1097.11 634.93 970.93 768.54 936.65 799.39 1129.08 802.58
00001130 00000065 851.09 417.63 370.41 538.64 914.21 628.45 1099.95 630.02 977.02 769.71 936.54 807.49 1131.72 803.87
00001131 00000066 850.17 416.71 371.11 537.41 912.76 628.07 1099.61 630.81 975.21 768.74 934.14 806.84 1129.01 804.28
00001132 00000067 847.79 414.78 375.00 539.68 912.50 627.47 1099.57 630.99 974.74 767.58 932.85 805.44 1128.34 803.56
00001133 00000068 845.81 414.52 376.25 537.40 911.37 627.21 1099.21 631.92 972.78 766.23 930.92 804.63 1126.72 803.95
00001134 00000069 844.21 414.79 377.82 534.14 909.61 625.89 1096.25 631.85 970.08 764.57 930.03 803.67 1124.70 804.10
00001135 00000070 842.37 416.00 375.74 530.37 907.06 626.37 1094.47 631.88 969.50 764.43 928.58 802.90 1123.23 803.20
00001136 00000071 839.99 415.65 375.60 529.91 903.43 627.49 1090.68 632.07 966.08 764.58 926.63 803.49 1120.98 803.04
00001137 00000072 836.93 414.90 372.27 532.15 899.64 627.36 1086.77 632.64 962.82 764.23 922.85 801.99 1116.83 802.14
00001138 00000073 834.57 412.86 371.55 535.60 896.73 627.08 1081.11 634.17 958.08 762.86 919.39 800.02 1112.37 801.55
00001139 00000074 832.92 414.35 366.79 534.33 895.00 627.96 1076.45 635.01 956.04 763.25 918.58 800.62 1109.46 802.18
00001140 00000075 831.25 417.07 361.82 533.33 892.84 628.72 1073.71 635.79 955.42 763.70 915.89 800.43 1107.04 802.08
00001141 00000076 825.64 422.47 369.05 520.36 888.73 636.42 1070.87 633.61 959.25 761.59 915.59 799.55 1099.31 797.52
00001142 00000077 825.09 422.50 367.59 520.61 887.39 636.35 1070.25 634.90 957.35 761.67 913.34 799.33 1098.05 798.36
00001143 00000078 823.89 423.80 364.36 519.57 886.18 638.44 1067.57 636.48 954.77 761.51 911.06 799.57 1095.87 798.07
00001144 00000079 822.10 424.54 362.32 519.32 884.15 639.43 1066.86 637.46 953.56 762.08 908.40 800.05 1095.07 798.44
00001145 00000080 820.11 426.28 362.16 517.59 881.75 642.13 1064.01 639.02 950.57 761.93 906.34 801.54 1091.99 798.90
00001146 00000081 818.14 427.09 363.31 516.60 879.29 642.49 1062.10 639.53 947.80 762.00 903.65 801.74 1090.19 799.16
00001147 00000082 817.26 427.46 362.65 517.75 877.62 643.24 1060.95 640.09 946.68 764.23 903.49 803.50 1090.14 800.69
00001148 00000083 815.90 426.98 364.38 517.99 876.59 644.51 1060.01 640.66 945.88 764.09 903.81 804.62 1089.43 801.19
00001149 00000084 815.47 428.47 363.79 518.30 876.33 645.51 1059.44 642.62 944.83 765.42 903.19 805.63 1088.90 802.92
00001150 00000085 816.09 428.98 363.08 518.81 876.30 645.67 1060.15 643.51 944.62 766.30 903.64 806.75 1089.32 804.66
00001151 00000086 816.61 433.04 362.75 515.70 877.07 646.94 1060.96 644.92 945.12 766.46 905.38 808.58 1089.45 806.62
00001152 00000087 817.54 436.61 363.23 513.98 878.22 647.34 1061.86 644.84 946.57 766.84 907.26 809.96 1090.56 807.65
00001153 00000088 818.76 438.07 365.96 514.22 879.62 647.72 1063.79 645.86 947.89 768.01 909.03 810.48 1093.15 808.56
00001154 00000089 820.27 438.19 365.48 515.62 880.01 648.72 1064.83 646.37 948.36 768.91 909.61 812.04 1094.26 809.74
00001155 00000090 821.02 440.03 366.30 514.40 880.47 648.36 1066.24 646.31 949.25 769.56 910.59 813.25 1094.86 811.30
00001156 00000091 821.15 439.15 366.44 516.02 880.72 648.60 1066.82 646.81 949.48 770.25 910.48 813.22 1095.35 811.54
00001157 00000092 821.21 438.53 366.44 516.30 880.74 649.15 1065.88 646.68 948.93 769.56 911.16 813.50 1095.05 811.20
00001158 00000093 820.82 440.09 365.52 514.74 880.33 648.92 1065.75 646.77 948.93 769.44 910.37 813.14 1095.07 811.05
00001159 00000094 820.73 438.49 364.54 516.23 880.39 649.72 1065.40 647.09 949.14 769.46 910.65 813.59 1094.91 811.01
00001160 00000095 820.84 440.19 364.38 514.85 880.92 649.15 1066.17 648.09 949.13 769.98 910.87 813.16 1095.55 811.86
00001161 00000096 821.17 439.71 365.06 514.88 881.01 649.99 1066.09 649.05 948.88 770.64 910.39 813.30 1094.79 812.16
00001162 00000097 821.51 441.53 365.55 514.14 880.59 650.63 1066.55 648.79 949.53 771.95 911.45 814.98 1096.01 813.10
00001163 00000098 821.45 442.04 366.55 514.94 880.84 651.43 1067.31 649.51 950.04 772.48 911.26 816.02 1096.24 814.04
00001164 00000099 821.89 444.13 365.76 513.35 881.45 651.46 1067.58 650.13 950.77 773.13 911.29 815.83 1096.37 814.41
00001165 00000100 823.62 442.90 364.44 514.94 882.47 651.29 1068.38 649.95 951.83 774.06 912.16 815.96 1097.16 814.66
00001166 00000101 823.56 442.35 365.61 515.68 882.96 651.54 1069.02 651.02 952.20 774.97 912.08 815.88 1097.37 815.31
00001167 00000102 823.89 443.31 365.48 516.09 883.12 652.46 1069.03 651.65 952.45 775.68 912.12 816.58 1097.81 815.77
00001168 00000103 824.71 443.92 364.82 516.31 883.65 653.12 1069.04 652.39 952.92 777.28 912.84 817.02 1098.69 816.30
00001169 00000104 825.87 445.76 364.04 515.65 884.72 653.55 1069.90 652.74 954.40 778.13 913.49 817.24 1099.62 816.48
00001170 00000105 825.71 445.57 367.75 517.20 885.01 653.85 1070.38 653.05 954.63 779.55 914.46 817.88 1100.34 817.20
00001171 00000106 827.64 443.93 365.37 518.90 886.32 654.97 1070.90 653.45 956.05 780.06 916.46 818.34 1101.92 817.04
00001172 00000107 827.28 444.54 367.31 519.68 886.34 655.35 1071.28 653.23 956.86 780.79 917.03 819.16 1102.69 817.45
00001173 00000108 828.96 445.22 367.31 521.65 888.22 656.20 1072.86 654.32 959.32 783.29 919.57 820.63 1105.37 819.08
00001174 00000109 829.85 444.15 370.55 524.31 889.43 657.03 1073.94 655.05 961.29 785.64 921.34 821.31 1106.92 819.61
00001175 00000110 836.38 443.26 370.73 515.94 890.91 653.91 1086.23 661.34 956.54 790.19 926.62 821.84 1115.45 826.33
00001176 00000111 837.65 443.82 370.27 517.37 893.75 656.88 1087.33 661.86 960.72 791.23 930.50 823.91 1118.14 826.39
00001177 00000112 841.30 448.25 371.54 518.99 900.84 659.62 1089.33 665.14 968.73 797.00 926.28 824.12 1115.42 823.11
00001178 00000113 842.05 448.71 371.06 517.72 902.19 660.05 1090.57 664.26 970.99 797.22 927.65 824.76 1116.48 822.80
00001179 00000114 843.06 450.30 370.10 515.32 902.99 660.14 1091.56 664.53 971.33 797.25 928.76 825.23 1117.00 823.45
00001180 00000115 844.70 449.57 368.20 516.10 905.12 660.35 1092.88 662.94 974.01 796.54 929.39 825.60 1118.63 822.39
00001181 00000116 847.01 450.52 367.30 514.92 906.93 659.91 1096.23 662.46 975.85 796.04 930.43 826.33 1119.70 823.12
00001182 00000117 848.11 451.53 369.35 514.83 909.18 659.40 1099.12 662.11 977.57 795.85 932.65 826.34 1121.96 823.14
00001183 00000118 849.95 455.14 369.09 511.00 911.51 659.07 1101.48 662.06 979.89 795.26 934.78 826.83 1123.37 823.84
00001184 00000119 850.18 450.51 367.20 510.71 910.22 658.04 1104.07 661.90 979.21 790.90 940.62 823.55 1129.24 825.46
00001185 00000120 851.93 449.00 366.98 513.06 912.97 657.39 1106.92 660.83 982.06 789.69 942.21 823.28 1132.44 824.94
00001186 00000121 853.13 446.81 365.81 513.22 914.66 655.97 1106.41 659.46 981.99 787.17 941.78 819.47 1132.94 821.16
00001187 00000122 853.79 440.71 363.10 517.47 917.24 649.83 1107.11 653.10 982.24 778.09 942.19 815.25 1131.31 816.89
00001188 00000123 856.49 428.49 366.64 525.56 918.39 641.82 1103.48 643.32 981.06 766.65 941.63 809.14 1127.83 809.44
00001189 00000124 862.94 417.91 363.68 528.95 920.07 636.19 1100.04 635.37 979.89 759.60 944.65 802.08 1128.21 800.43
00001190 00000125 865.08 413.07 360.49 525.52 920.66 629.91 1100.53 628.45 980.17 748.55 944.45 793.67 1127.91 791.64
00001191 00000126 866.08 409.78 360.09 525.98 922.58 623.07 1104.13 621.16 982.90 739.35 945.24 787.76 1130.89 785.48
00001192 00000127 867.35 408.22 362.86 525.45 924.63 620.49 1106.59 618.94 986.41 736.70 949.01 786.41 1133.00 784.48
00001193 00000128 868.26 409.79 366.87 524.24 925.76 624.30 1107.59 619.95 990.97 741.16 952.58 787.54 1137.99 783.08
00001194 00000129 868.79 417.75 371.68 520.59 927.34 635.62 1106.96 628.00 994.22 752.91 959.03 796.80 1142.67 789.36
00001195 00000130 870.56 424.58 370.74 519.21 930.99 642.41 1109.28 635.84 996.09 761.83 964.12 803.23 1145.38 796.64
00001196 DELETE   868.44 437.06 373.33 508.69 931.15 650.99 1110.83 644.20 998.49 766.54 964.06 809.50 1143.26 802.82
00001197 DELETE   870.48 440.39 368.10 507.44 931.18 654.46 1112.80 648.73 1000.57 774.08 966.38 813.84 1146.15 808.09
00001198 00000133 871.49 444.66 367.26 503.66 932.20 655.48 1115.36 650.48 1001.74 776.26 967.70 815.21 1148.25 810.15
00001199 00000134 872.42 442.87 368.09 502.52 934.10 651.21 1115.64 646.41 1002.56 770.75 965.98 809.97 1147.54 805.24
00001200 00000135 875.81 434.31 369.46 505.29 936.98 644.79 1117.00 641.58 1003.54 762.72 967.16 802.97 1147.74 799.59
00001201 00000136 878.60 426.83 367.57 510.18 938.03 639.80 1119.08 636.82 1004.49 758.84 968.23 800.16 1150.51 797.01
00001202 00000137 880.83 421.29 365.21 515.87 940.26 638.73 1121.74 635.64 1006.98 757.30 969.66 799.63 1152.55 796.31
00001203 00000138 880.78 425.50 366.76 512.89 940.32 639.93 1122.69 636.65 1008.37 760.55 969.89 801.48 1152.87 798.15
00001204 00000139 881.07 434.69 366.38 506.11 942.27 645.48 1123.95 642.29 1010.30 764.39 972.28 805.08 1152.65 801.87
00001205 00000140 880.53 444.92 367.17 499.71 942.89 648.27 1125.99 647.33 1011.31 768.81 972.13 807.97 1153.74 806.79
00001206 00000141 882.90 446.97 366.69 497.85 944.80 647.64 1127.40 646.02 1012.93 766.79 975.09 809.11 1154.73 807.35
00001207 00000142 887.74 442.14 360.47 501.64 948.64 645.14 1130.74 643.40 1016.19 763.79 976.50 805.99 1157.30 804.24
00001208 00000143 890.39 439.64 359.47 503.24 952.56 641.37 1134.57 640.18 1019.96 760.69 978.47 803.61 1159.23 802.47
00001209 00000144 893.27 437.25 357.05 504.73 954.88 640.46 1135.70 638.83 1022.27 759.94 981.35 802.80 1160.53 801.35
00001210 00000145 893.15 436.88 358.26 505.44 954.94 640.54 1135.97 639.03 1022.72 761.12 982.15 803.21 1161.64 801.96
00001211 00000146 893.35 438.72 357.76 504.15 955.17 640.37 1136.55 639.34 1023.32 761.73 981.49 803.46 1161.52 802.64
00001212 00000147 893.59 436.91 356.32 506.49 954.97 640.66 1136.36 639.69 1022.57 761.36 981.16 803.70 1161.38 802.87
00001213 00000148 892.98 438.00 357.01 504.50 954.34 640.12 1135.00 639.51 1020.81 759.89 980.51 803.09 1159.87 802.52
00001214 00000149 893.38 430.44 357.16 509.83 954.56 637.92 1134.23 637.42 1020.52 757.51 981.07 800.56 1160.01 800.06
00001215 00000150 892.50 422.21 358.26 517.94 952.92 634.61 1133.76 633.32 1019.60 755.49 980.28 799.63 1159.87 798.51
00001216 00000151 889.86 418.91 360.69 519.78 950.34 633.04 1130.86 631.50 1016.26 753.66 978.59 798.38 1158.13 796.97
00001217 00000152 887.42 419.45 363.83 519.07 947.89 634.17 1128.52 632.47 1013.88 753.96 976.28 799.03 1155.60 797.37
00001218 00000153 887.09 425.71 361.60 514.60 947.82 635.68 1128.06 636.85 1013.18 758.29 974.91 800.64 1153.50 801.41
00001219 00000154 887.10 430.77 360.93 511.37 947.08 638.97 1127.03 640.21 1011.91 760.52 975.02 803.17 1152.17 803.81
00001220 00000155 885.15 433.35 362.50 509.96 944.18 641.64 1124.59 642.16 1009.05 762.23 972.77 805.11 1149.78 805.07
00001221 00000156 882.70 432.19 367.07 510.32 942.04 642.61 1121.40 642.59 1006.14 762.49 971.57 805.30 1147.20 804.77
00001222 00000157 879.60 431.47 369.39 509.79 938.61 643.08 1117.59 642.24 1002.26 762.44 968.65 805.56 1143.89 804.23
00001223 00000158 876.46 433.24 368.26 509.20 936.03 642.41 1115.27 642.58 998.98 762.88 965.55 805.95 1141.89 805.24
00001224 00000159 870.59 435.15 367.11 508.41 931.38 643.21 1110.89 642.56 994.56 763.65 960.82 806.78 1137.75 805.19
00001225 00000160 864.68 435.41 369.99 509.56 926.64 643.02 1108.06 642.82 989.84 764.45 956.10 808.40 1132.87 807.20
00001226 00000161 862.60 431.69 364.13 514.01 923.51 643.25 1106.01 642.36 987.22 765.73 953.20 809.02 1131.04 807.17
00001227 00000162 859.89 434.44 365.08 512.41 921.45 643.58 1104.46 643.47 984.68 767.48 950.78 809.64 1129.00 808.44
00001228 00000163 856.31 438.04 361.90 508.72 918.04 642.41 1102.91 644.25 981.13 768.66 946.46 809.49 1125.42 809.88
00001229 00000164 853.33 437.01 363.90 510.45 914.23 642.79 1100.11 643.23 977.95 768.96 944.69 811.35 1123.14 810.48
00001230 00000165 854.39 438.41 365.13 516.64 915.93 640.82 1096.22 642.05 977.69 774.08 939.98 819.52 1122.65 816.15
00001231 00000166 853.46 438.59 365.51 516.47 914.92 640.83 1095.47 643.42 977.80 774.69 938.88 819.38 1120.84 817.15
00001232 00000167 852.53 440.56 366.44 515.02 913.64 640.84 1094.95 642.91 977.17 775.48 938.14 821.03 1120.38 818.45
