Video ID: 	3OLk54j3LrY
H: 	1080
W: 	1920
FPS: 	25.0

FRAME INDEX X0 Y0 W H [Landmarks (5 Points)]

00009639 00000000 438.04 327.82 417.28 569.26 660.43 568.03 815.05 520.71 837.17 678.35 662.97 763.65 787.76 731.55
00009640 DELETE   433.86 335.81 418.54 562.85 653.99 563.65 813.13 517.39 832.16 676.59 660.20 764.57 783.95 733.77
00009641 00000002 429.29 336.52 419.50 562.53 650.96 564.34 811.41 520.64 826.03 676.99 655.68 761.82 781.43 732.83
00009642 00000003 430.65 360.24 417.07 538.71 645.45 557.98 805.95 519.37 809.39 678.40 649.98 765.33 785.76 737.86
00009643 00000004 425.31 359.47 417.06 537.30 641.71 551.02 800.25 517.65 803.17 669.16 645.28 759.75 780.88 736.41
00009644 DELETE   406.01 336.94 429.38 555.63 643.44 543.16 800.52 512.62 812.70 666.04 648.46 746.80 772.23 728.47
00009645 DELETE   410.05 333.95 422.27 549.39 638.39 533.36 801.82 500.37 811.84 653.61 636.24 740.21 772.52 718.92
00009646 DELETE   405.56 333.11 425.08 547.60 640.09 524.83 794.34 489.48 810.66 644.10 632.71 732.32 767.11 709.53
00009647 00000008 399.13 321.62 430.84 553.72 637.99 517.77 792.47 476.45 808.75 641.27 633.24 731.66 763.89 703.77
00009648 00000009 390.46 312.25 437.14 555.32 630.41 499.52 791.58 466.17 802.28 628.01 630.72 723.08 763.54 701.18
00009649 00000010 390.29 289.06 435.35 581.28 629.82 488.80 789.44 457.75 798.86 618.06 628.98 715.22 764.67 694.08
00009650 00000011 393.21 294.53 429.99 562.49 620.88 480.80 782.14 449.72 785.75 605.14 622.95 701.40 763.04 679.64
00009651 00000012 385.57 290.23 430.74 556.25 617.38 470.24 778.26 443.55 784.53 595.45 624.42 692.78 760.24 674.23
00009652 00000013 378.19 280.10 438.45 563.46 616.73 460.74 778.88 435.90 783.77 590.85 621.90 687.88 756.66 670.56
00009653 00000014 381.47 282.21 436.54 563.16 614.61 460.31 780.98 433.58 783.98 591.53 620.96 691.28 759.28 672.18
00009654 00000015 383.09 270.90 436.02 575.85 615.11 459.83 784.52 434.70 784.68 591.41 617.39 691.68 757.64 674.52
00009655 00000016 386.48 271.00 436.94 582.05 616.66 458.86 785.46 433.83 786.52 591.82 616.96 694.70 757.03 677.52
00009656 00000017 388.34 276.47 438.29 579.99 617.40 458.71 786.38 431.24 788.92 592.26 617.15 695.88 761.02 676.78
00009657 00000018 389.82 276.23 435.71 577.98 617.54 452.56 785.53 427.89 790.40 584.96 618.50 688.87 763.15 671.88
00009658 00000019 390.06 284.08 439.65 571.79 616.98 442.44 784.14 424.71 788.75 576.42 617.82 684.08 759.93 672.22
00009659 00000020 390.50 284.38 439.47 571.73 614.94 442.45 783.60 424.85 786.19 576.14 616.64 682.89 762.30 670.89
00009660 00000021 389.82 286.64 448.67 565.83 614.98 447.50 789.09 425.45 787.03 578.99 620.60 682.88 770.57 667.00
00009661 00000022 399.87 272.95 442.79 572.78 623.75 448.20 797.18 429.51 790.62 579.35 626.59 681.88 775.40 668.69
00009662 00000023 406.02 276.15 439.51 565.93 630.86 452.15 805.26 434.09 799.88 580.00 635.67 682.10 786.17 669.72
00009663 00000024 401.19 263.56 452.63 574.27 650.55 459.47 808.40 436.36 820.53 594.11 652.85 683.83 779.22 670.69
00009664 00000025 404.50 263.01 454.62 575.47 656.69 460.59 812.16 435.64 830.01 593.78 657.88 684.55 783.96 670.64
00009665 00000026 413.14 266.11 451.12 571.83 659.34 462.23 816.59 436.42 829.21 596.38 663.57 685.64 788.89 670.99
00009666 00000027 417.56 275.80 456.25 559.10 661.14 466.85 821.60 436.40 833.65 600.35 667.26 685.33 795.99 667.81
00009667 00000028 423.35 282.08 451.20 550.71 669.81 466.56 825.14 438.44 839.56 599.45 675.33 680.75 803.37 665.04
00009668 00000029 433.64 286.25 452.35 558.87 680.21 455.92 845.90 434.45 845.21 596.24 679.11 686.67 815.83 671.70
00009669 00000030 439.89 285.68 448.74 559.10 687.19 447.56 851.30 433.09 850.93 589.31 686.31 684.45 819.21 674.90
00009670 00000031 443.54 271.99 442.10 562.20 691.02 441.45 848.23 421.19 865.39 579.75 690.15 671.99 820.79 661.74
00009671 00000032 439.95 263.30 455.68 570.83 689.11 431.63 858.25 416.11 866.25 576.01 689.31 669.67 828.15 661.99
00009672 00000033 448.05 274.31 445.28 559.15 692.42 434.55 857.14 423.59 865.85 572.62 691.27 664.72 830.58 661.02
00009673 DELETE   452.76 265.17 449.23 568.29 696.84 429.54 867.67 416.35 869.71 574.75 692.01 665.02 838.08 659.22
00009674 00000035 469.59 243.51 447.61 586.45 709.34 428.68 884.50 415.47 878.27 575.13 703.19 665.30 851.87 658.02
00009675 00000036 468.48 223.25 466.50 597.72 729.05 428.14 897.05 416.35 892.86 570.56 715.25 655.87 857.74 650.01
00009676 00000037 468.55 238.03 478.26 578.23 731.69 426.69 899.28 409.20 898.05 572.82 718.30 650.63 861.84 640.78
00009677 00000038 482.12 200.07 461.13 616.91 736.11 416.47 909.64 405.22 908.78 569.95 718.86 649.14 869.23 648.08
00009678 00000039 480.93 222.26 468.69 609.62 739.10 423.95 913.43 407.97 911.32 571.22 728.01 661.54 877.86 651.04
00009679 00000040 495.11 203.77 465.71 639.25 751.11 412.99 926.20 414.09 924.57 576.44 723.79 664.56 874.89 672.83
00009680 00000041 500.06 203.52 467.05 634.75 757.39 413.91 931.55 417.37 926.53 571.38 730.03 663.01 876.11 672.89
00009681 00000042 504.02 208.67 473.51 624.11 760.92 416.66 938.46 413.99 936.11 573.44 738.65 665.51 885.11 670.59
00009682 00000043 507.99 203.17 472.06 633.70 762.26 421.36 942.74 419.02 939.05 572.39 744.42 668.46 892.80 673.24
00009683 00000044 510.25 229.16 469.53 624.86 760.43 432.01 944.82 424.43 936.32 574.61 746.04 672.38 907.29 669.60
00009684 00000045 511.72 235.94 479.08 628.37 766.39 429.41 945.79 422.35 932.36 578.45 744.81 672.03 902.87 669.34
00009685 00000046 516.89 232.17 469.32 611.36 762.01 440.22 952.19 424.82 937.66 580.64 752.33 671.80 920.43 662.79
00009686 00000047 526.56 222.31 464.90 624.29 770.98 438.40 954.14 418.41 944.94 577.15 757.38 667.65 925.55 654.82
00009687 00000048 526.90 205.99 480.40 630.86 777.92 432.26 962.68 409.28 960.67 580.22 771.74 666.12 928.53 653.52
00009688 00000049 520.91 215.33 487.80 632.18 788.37 429.38 966.30 422.45 957.10 580.49 773.19 675.95 923.53 673.38
00009689 00000050 518.13 220.89 492.39 635.94 785.91 431.27 960.74 423.28 954.47 582.21 763.10 674.25 918.14 671.34
00009690 00000051 523.68 229.57 490.17 621.44 787.80 428.43 964.77 421.77 957.66 580.42 765.34 671.88 921.07 670.01
00009691 00000052 526.12 225.30 489.79 622.45 791.43 423.63 969.22 423.70 959.31 576.20 768.05 669.45 922.83 672.97
00009692 00000053 529.77 218.20 485.22 627.55 788.94 420.55 969.84 421.55 960.11 568.35 768.51 664.51 927.55 667.74
00009693 00000054 530.04 218.55 490.21 626.52 791.75 414.67 974.86 412.11 965.20 567.77 770.31 663.07 933.38 663.02
00009694 00000055 529.96 203.65 488.13 640.70 792.89 407.94 979.68 409.06 966.51 564.29 773.29 660.65 936.71 662.39
00009695 00000056 529.82 198.67 493.17 644.63 793.86 404.75 984.30 408.19 967.73 561.05 774.38 657.18 940.06 660.65
00009696 00000057 535.37 199.24 490.27 641.98 797.02 403.31 988.62 408.72 969.70 560.75 777.64 654.40 944.29 659.30
00009697 00000058 536.69 207.74 492.72 633.33 797.63 398.72 989.27 403.12 972.77 555.49 776.39 648.88 949.51 652.98
00009698 00000059 537.61 200.29 497.96 645.35 799.24 399.23 993.20 399.80 975.09 551.21 778.16 646.36 960.07 646.86
00009699 00000060 541.64 203.04 501.73 639.91 802.72 395.95 998.34 395.94 976.43 551.23 781.75 643.94 963.55 644.03
00009700 00000061 541.84 202.71 504.67 640.73 810.87 388.35 1004.63 389.56 985.92 550.31 784.16 637.39 965.79 639.40
00009701 00000062 541.73 199.79 509.23 640.44 814.31 384.85 1006.32 388.17 987.46 545.93 787.80 632.17 966.26 635.90
00009702 00000063 546.69 199.70 509.63 644.55 815.91 380.73 1009.68 383.67 989.80 542.49 792.42 632.75 971.26 635.90
00009703 00000064 552.59 174.75 508.75 662.20 824.87 376.01 1016.69 372.61 1001.16 534.52 801.07 626.41 977.49 625.59
00009704 00000065 556.44 166.94 513.13 669.10 830.93 373.94 1020.95 366.46 1009.08 533.50 807.08 622.17 983.67 618.33
00009705 00000066 562.37 174.38 521.12 663.40 833.52 372.44 1026.82 372.57 1006.08 534.57 807.21 620.41 988.00 622.71
00009706 00000067 569.98 164.27 519.66 657.01 849.76 368.48 1036.39 364.75 1033.39 534.41 820.25 622.84 994.43 625.34
00009707 00000068 575.19 160.33 517.71 660.13 855.90 366.92 1043.56 369.07 1039.52 527.70 831.61 621.48 1004.06 627.91
00009708 00000069 583.92 166.13 517.60 656.06 871.41 367.10 1065.17 373.19 1043.64 538.10 842.17 626.33 1009.03 633.31
00009709 00000070 589.99 172.12 520.00 652.09 874.92 367.72 1070.01 372.82 1048.36 538.21 846.66 625.63 1018.08 631.63
00009710 00000071 600.03 177.14 514.98 647.65 879.46 370.08 1073.89 376.02 1052.31 540.88 853.16 626.13 1029.32 632.63
00009711 00000072 602.84 203.61 517.95 630.61 880.96 379.08 1082.39 386.43 1059.06 558.42 854.81 631.79 1039.96 639.04
00009712 DELETE   606.23 200.10 522.19 640.50 889.24 386.29 1085.76 387.85 1062.74 561.16 866.54 637.43 1045.37 639.12
00009713 DELETE   612.29 199.31 516.03 640.66 891.50 386.10 1084.91 386.97 1061.86 558.41 876.85 640.07 1047.20 641.18
00009714 00000075 613.67 188.17 518.12 657.70 891.69 386.35 1088.87 389.52 1061.81 550.01 879.60 643.31 1049.87 645.77
00009715 00000076 617.64 175.99 517.55 673.54 891.17 384.05 1090.48 386.12 1060.81 545.92 880.44 644.92 1053.38 646.49
00009716 00000077 617.80 181.23 521.03 670.27 891.53 387.84 1092.45 386.32 1062.84 550.14 881.60 650.27 1055.19 648.76
00009717 00000078 614.76 184.21 527.72 674.34 892.77 391.16 1096.36 388.44 1069.23 556.25 879.23 655.72 1056.68 653.71
00009718 00000079 617.48 201.91 527.08 653.11 890.96 389.79 1096.43 395.74 1065.42 555.93 879.01 653.47 1055.49 658.36
00009719 DELETE   617.77 176.26 523.63 681.76 894.92 383.67 1097.11 390.08 1065.08 549.20 879.25 652.44 1053.81 657.56
00009720 DELETE   615.01 174.04 527.65 679.89 889.95 380.22 1098.57 384.93 1064.17 549.26 876.07 652.83 1054.90 656.50
00009721 00000082 610.04 186.03 531.75 677.13 882.21 371.54 1092.46 378.11 1057.22 547.55 869.76 649.69 1053.62 654.21
00009722 00000083 602.00 175.93 539.65 689.72 875.41 363.21 1093.74 381.67 1048.65 541.63 858.60 646.92 1045.71 660.90
00009723 00000084 598.54 170.08 541.78 695.49 865.65 358.67 1090.29 375.84 1039.02 546.35 847.47 644.35 1041.08 657.04
00009724 00000085 588.34 179.43 551.37 684.43 853.44 358.70 1085.40 379.05 1026.23 551.55 836.99 644.07 1036.50 659.01
00009725 00000086 586.66 181.06 550.12 677.51 849.57 359.05 1080.75 383.83 1018.97 552.16 827.20 636.86 1032.47 655.99
00009726 00000087 586.54 183.25 546.95 670.87 845.47 357.85 1076.95 386.42 1011.25 551.27 820.12 632.53 1025.59 655.05
00009727 00000088 584.41 166.07 546.81 692.32 842.71 349.74 1073.18 382.56 1005.07 547.99 812.43 628.65 1018.51 655.02
00009728 00000089 585.33 184.31 544.49 679.11 832.90 342.04 1064.88 375.24 992.92 547.50 805.49 626.49 1014.52 653.11
00009729 00000090 582.92 190.27 546.81 676.74 826.03 340.22 1063.08 373.76 985.49 549.98 803.26 634.20 1007.22 660.66
00009730 00000091 582.63 183.60 546.00 693.42 822.01 343.68 1060.51 374.01 985.66 549.84 804.46 642.77 1010.58 665.74
00009731 00000092 583.61 188.67 545.00 690.98 822.53 343.82 1060.42 371.62 985.62 552.57 803.30 647.95 1005.85 669.13
00009732 00000093 584.82 192.17 542.04 687.28 821.02 344.96 1058.93 374.16 982.85 551.66 802.27 648.77 1003.86 671.01
00009733 00000094 586.03 191.28 539.66 687.38 821.94 347.39 1059.04 376.01 984.45 550.59 804.52 649.65 1005.97 671.41
00009734 00000095 585.81 191.50 541.93 692.12 823.11 349.48 1061.77 379.20 987.04 552.97 805.83 652.22 1007.85 674.79
00009735 00000096 585.35 198.46 547.46 698.25 823.68 355.40 1061.62 385.35 987.15 559.20 807.41 659.22 1010.71 682.01
00009736 00000097 587.32 228.90 551.22 679.91 831.98 375.18 1073.75 402.68 995.98 578.89 819.10 677.63 1011.81 700.90
00009737 00000098 594.77 230.80 545.35 679.44 832.73 385.09 1076.08 410.91 994.99 587.05 819.04 682.88 1016.76 703.76
00009738 00000099 600.15 224.59 538.70 686.03 836.84 390.43 1077.07 413.58 1001.76 585.31 818.44 681.62 1024.79 700.58
00009739 00000100 601.93 229.28 538.38 668.38 842.41 389.70 1083.60 406.79 1013.24 579.79 827.08 674.96 1035.34 689.04
00009740 00000101 599.66 223.46 543.89 665.67 847.88 382.13 1086.69 395.31 1024.99 568.77 834.09 664.68 1040.23 676.44
00009741 00000102 599.19 200.41 542.96 677.29 834.63 367.07 1077.23 382.71 1017.32 550.53 827.62 647.71 1050.79 659.15
00009742 00000103 601.28 192.69 537.56 678.73 833.93 363.80 1076.91 378.50 1014.85 544.80 832.15 646.33 1052.02 656.39
00009743 00000104 602.81 193.35 537.17 675.85 833.27 363.92 1078.07 378.87 1012.69 544.43 831.63 645.81 1052.46 656.09
00009744 00000105 601.21 220.16 543.39 663.91 844.51 376.09 1085.01 384.46 1026.83 555.56 836.66 659.00 1048.02 667.11
00009745 00000106 610.92 232.21 539.25 670.11 844.63 391.56 1089.45 399.72 1020.70 582.88 839.13 678.54 1049.15 684.42
00009746 00000107 614.66 236.69 548.50 690.92 846.70 406.81 1096.67 425.50 1017.19 610.95 837.09 696.09 1055.14 710.11
00009747 00000108 622.87 252.90 545.36 683.90 851.32 428.80 1098.27 442.15 1022.08 624.61 842.26 708.22 1059.27 718.09
00009748 00000109 626.18 255.43 543.74 685.86 853.80 427.71 1098.31 445.07 1021.15 623.48 839.32 706.28 1059.68 719.82
00009749 00000110 626.69 249.25 543.01 687.30 852.18 413.44 1099.71 436.01 1016.91 612.52 838.31 698.31 1058.65 715.84
00009750 00000111 617.27 233.13 548.91 697.57 849.97 399.72 1093.57 421.23 1014.65 591.69 837.31 685.62 1053.11 701.95
00009751 00000112 613.43 230.84 550.01 696.51 849.67 395.40 1088.37 411.52 1015.15 587.51 837.54 679.67 1048.10 691.98
00009752 00000113 614.73 239.53 544.72 695.40 848.62 401.83 1083.03 416.88 1010.89 588.03 832.91 685.95 1044.08 697.58
00009753 00000114 615.18 248.41 541.98 694.34 847.96 411.33 1080.48 431.68 1008.99 598.51 828.87 692.98 1043.42 708.42
00009754 00000115 618.46 257.08 540.76 683.32 852.92 420.85 1083.21 444.46 1009.89 605.89 832.09 693.90 1044.26 712.23
00009755 00000116 623.03 255.03 538.50 682.93 854.45 429.41 1090.59 448.98 1016.33 616.70 837.13 699.36 1054.11 714.58
00009756 00000117 625.92 255.63 534.99 678.50 855.89 430.96 1094.60 446.68 1022.24 616.03 843.01 701.22 1063.47 712.88
00009757 00000118 630.16 243.63 532.68 686.38 863.46 432.33 1100.31 439.91 1034.13 611.78 858.40 703.20 1073.19 707.75
00009758 00000119 636.61 239.10 531.02 682.46 874.65 438.27 1108.41 430.81 1056.93 610.25 879.58 706.27 1093.38 699.19
00009759 00000120 646.57 241.39 530.41 683.31 891.21 444.21 1119.04 435.65 1076.44 610.87 897.00 714.40 1102.38 707.29
00009760 00000121 655.81 244.61 517.99 680.74 920.94 449.61 1140.66 447.21 1109.07 612.70 923.62 725.51 1115.17 721.10
00009761 00000122 661.10 248.68 519.51 678.45 929.10 459.61 1146.36 450.95 1117.60 625.16 933.74 730.41 1123.84 720.96
00009762 00000123 662.36 258.94 525.14 667.48 933.11 464.75 1149.85 452.43 1122.36 632.36 936.48 732.91 1125.68 721.26
00009763 00000124 663.01 253.22 529.89 677.83 936.30 468.65 1152.54 449.86 1128.94 634.34 935.42 733.99 1129.14 717.90
00009764 00000125 665.46 265.99 531.67 666.51 938.00 474.66 1150.93 453.74 1130.77 639.84 936.90 740.55 1126.50 723.02
00009765 00000126 665.20 267.90 532.41 668.08 935.92 476.33 1149.76 457.53 1128.37 642.52 937.78 747.41 1124.71 731.66
00009766 00000127 656.83 267.41 539.90 670.98 931.59 472.91 1151.84 458.89 1127.09 643.13 935.09 747.53 1125.40 735.38
00009767 00000128 652.03 269.05 542.88 665.95 930.02 469.62 1146.61 453.26 1126.67 638.88 931.44 743.13 1119.87 729.48
00009768 00000129 650.23 242.93 534.50 681.18 918.21 469.94 1132.33 442.25 1129.67 629.86 927.57 740.47 1115.22 721.64
00009769 00000130 649.28 251.81 529.47 673.91 913.29 469.48 1127.90 442.08 1125.90 629.21 923.37 739.91 1113.94 721.59
00009770 00000131 646.81 242.69 526.95 688.48 909.07 471.02 1123.12 442.32 1120.84 628.12 919.06 741.19 1111.21 721.64
00009771 00000132 644.03 232.65 523.08 706.41 903.72 469.44 1116.83 446.92 1113.65 624.24 910.55 742.52 1104.55 727.67
00009772 00000133 640.25 234.31 523.91 704.64 898.38 470.35 1111.58 445.98 1107.51 624.32 909.23 743.57 1102.32 726.64
00009773 00000134 633.24 244.42 530.65 693.80 894.33 466.28 1110.86 441.15 1105.45 623.78 908.37 742.20 1101.32 724.62
00009774 00000135 630.93 241.88 531.93 696.13 895.04 463.91 1109.98 437.78 1105.43 622.00 911.60 740.96 1101.57 722.35
CROP_BBOX: 214 0 1361 1080
