Video ID: 	u2QjdRaLfa8
H: 	1080
W: 	1920
FPS: 	29.97002997002997

FRAME INDEX X0 Y0 W H [Landmarks (5 Points)]

00003078 00000000 1094.71 177.04 456.05 574.20 1173.48 371.98 1372.90 346.18 1247.54 452.42 1215.98 601.08 1371.36 579.06
00003079 00000001 1093.17 173.79 453.46 586.11 1173.78 370.22 1370.86 344.55 1249.03 451.52 1217.39 604.55 1370.34 582.85
00003080 00000002 1092.60 172.69 451.20 586.73 1173.44 370.22 1370.65 344.62 1249.53 451.70 1217.23 604.24 1369.90 582.70
00003081 00000003 1091.69 171.86 454.79 589.44 1172.33 370.67 1371.11 345.54 1249.15 455.77 1215.36 604.06 1372.11 582.71
00003082 00000004 1089.30 165.67 456.75 596.86 1169.77 382.43 1367.89 355.29 1246.03 461.62 1211.50 610.87 1369.72 587.98
00003083 00000005 1086.61 168.51 455.52 590.66 1163.77 391.31 1366.50 363.97 1241.77 477.53 1205.25 616.54 1371.09 593.19
00003084 00000006 1082.55 169.79 456.53 591.57 1163.10 406.51 1365.73 372.54 1241.63 490.42 1205.64 625.32 1375.44 595.23
00003085 00000007 1082.38 171.27 457.58 590.10 1162.95 406.69 1365.15 372.45 1241.26 490.28 1205.44 625.60 1375.32 595.36
00003086 00000008 1083.67 177.15 455.40 591.68 1163.15 410.88 1368.18 380.56 1245.12 500.10 1204.74 629.82 1376.64 603.12
00003087 00000009 1084.65 191.30 457.28 577.96 1162.86 411.79 1368.63 383.02 1246.54 506.21 1207.18 630.87 1377.59 605.39
00003088 00000010 1087.85 182.83 458.95 583.68 1164.93 412.88 1369.94 383.84 1244.42 505.52 1207.47 630.86 1376.60 605.32
00003089 00000011 1093.25 176.07 460.49 581.86 1171.37 410.05 1375.79 385.12 1251.27 502.02 1211.48 625.30 1376.42 603.51
00003090 00000012 1092.51 177.78 465.75 581.26 1171.10 410.21 1375.99 385.16 1249.86 501.57 1211.19 625.83 1376.45 603.87
00003091 00000013 1095.07 183.66 460.62 575.05 1176.18 406.12 1382.39 381.15 1255.95 494.82 1216.72 624.18 1382.78 602.17
00003092 DELETE   1099.23 169.82 452.11 592.48 1178.34 401.54 1381.45 373.60 1256.54 491.72 1221.34 621.17 1386.19 596.14
00003093 00000015 1096.84 171.85 452.15 601.27 1171.65 391.67 1379.77 364.76 1251.99 487.89 1218.18 623.72 1387.05 601.39
00003094 00000016 1093.58 173.54 459.14 601.64 1168.82 391.36 1375.82 363.89 1248.86 487.69 1213.83 624.89 1381.26 602.04
00003095 00000017 1093.99 171.90 459.65 602.78 1168.91 391.31 1375.96 363.56 1248.92 487.64 1214.18 625.02 1381.12 601.96
00003096 00000018 1091.17 183.19 462.48 586.82 1165.52 394.42 1377.25 365.91 1246.65 490.43 1213.46 624.40 1382.97 600.22
00003097 00000019 1088.13 190.37 458.00 577.22 1163.21 403.10 1377.86 374.30 1247.92 497.06 1211.80 629.25 1382.22 604.82
00003098 00000020 1087.93 192.51 451.94 583.91 1166.69 410.15 1371.91 379.12 1248.63 502.67 1215.26 638.47 1381.27 610.99
00003099 00000021 1091.38 182.85 450.72 590.96 1165.95 408.61 1379.30 385.86 1249.76 510.47 1211.38 635.56 1382.86 616.49
00003100 00000022 1091.42 182.33 451.72 591.82 1165.87 408.75 1379.36 385.74 1249.68 510.45 1211.41 635.48 1383.13 616.11
00003101 00000023 1091.29 198.40 451.47 579.71 1169.38 413.63 1378.16 395.17 1252.14 519.54 1210.83 636.36 1380.01 620.57
00003102 00000024 1093.39 200.60 456.78 585.45 1172.38 417.10 1380.45 399.89 1254.60 524.50 1212.07 640.44 1382.36 625.98
00003103 00000025 1094.67 209.73 453.45 576.99 1174.77 417.97 1379.98 401.73 1255.56 526.01 1212.93 641.28 1379.01 627.69
00003104 00000026 1095.53 204.78 454.62 585.07 1175.48 419.26 1379.15 405.43 1254.78 528.84 1211.53 642.67 1376.41 631.28
00003105 00000027 1095.19 204.09 453.53 585.73 1175.40 419.31 1379.21 405.39 1255.00 528.64 1211.71 642.59 1376.42 631.09
00003106 00000028 1095.27 203.48 454.51 587.49 1175.50 419.04 1379.15 404.95 1254.76 528.34 1211.39 642.76 1376.33 631.17
00003107 00000029 1093.61 209.12 457.01 584.17 1176.16 415.48 1380.62 402.95 1255.62 527.29 1211.65 641.94 1375.17 631.83
00003108 00000030 1093.63 208.12 457.77 578.45 1176.19 412.80 1382.35 400.13 1256.18 523.10 1211.86 637.65 1376.39 627.32
00003109 00000031 1094.54 203.92 458.30 570.80 1175.08 411.40 1384.59 397.52 1255.13 518.28 1211.06 631.37 1380.74 619.53
00003110 00000032 1094.84 202.71 457.70 571.17 1175.30 411.32 1384.79 397.45 1255.45 518.39 1211.33 631.30 1380.50 619.50
00003111 00000033 1091.99 194.82 448.41 581.84 1174.24 413.88 1377.83 394.74 1256.52 517.73 1215.46 637.39 1382.54 620.57
00003112 00000034 1089.43 200.01 450.61 579.67 1172.98 410.95 1370.78 389.83 1253.71 511.38 1217.74 636.85 1374.40 618.43
00003113 00000035 1088.73 199.79 452.77 592.13 1170.44 407.59 1368.70 385.80 1244.84 507.81 1212.90 636.21 1369.27 618.38
00003114 00000036 1088.19 199.49 455.60 589.64 1168.63 408.45 1368.69 387.80 1243.02 510.00 1209.67 635.48 1367.59 618.35
00003115 00000037 1087.91 200.27 456.64 588.80 1168.54 408.51 1367.85 387.95 1242.72 510.85 1209.38 635.68 1366.71 618.70
00003116 00000038 1086.67 204.76 455.83 582.80 1168.06 408.46 1369.29 389.88 1244.45 513.45 1210.78 636.63 1369.52 621.30
00003117 00000039 1089.00 200.97 455.86 589.18 1167.67 410.23 1372.95 391.29 1245.03 516.45 1210.03 639.67 1374.09 623.87
00003118 00000040 1090.98 202.25 456.30 584.34 1171.30 409.30 1374.89 391.33 1247.58 515.30 1211.17 635.38 1374.94 620.13
00003119 00000041 1092.89 182.22 461.00 607.40 1171.83 407.88 1376.86 387.38 1249.76 512.06 1214.29 636.06 1380.21 618.93
00003120 00000042 1092.56 185.88 460.08 603.65 1171.44 407.73 1376.66 386.25 1250.03 511.90 1214.08 636.07 1379.61 618.20
00003121 00000043 1092.90 185.03 459.17 603.13 1172.43 406.42 1377.00 386.08 1248.57 508.15 1213.10 634.86 1376.36 618.06
00003122 00000044 1094.47 177.52 452.46 609.29 1171.50 406.33 1377.08 384.37 1248.87 507.01 1212.65 634.88 1377.61 616.88
00003123 00000045 1093.41 182.14 453.76 605.14 1171.15 407.50 1375.91 386.74 1249.00 509.66 1212.21 634.93 1376.49 617.87
00003124 00000046 1092.11 183.90 450.18 601.65 1170.20 408.01 1375.62 387.45 1248.87 510.28 1211.58 635.01 1375.49 618.11
00003125 00000047 1091.88 186.48 452.67 598.17 1170.70 408.06 1375.63 388.14 1248.97 511.12 1211.74 634.02 1375.23 617.57
00003126 00000048 1091.29 199.66 455.44 583.92 1170.46 407.28 1376.20 388.54 1246.72 511.96 1210.94 633.46 1374.93 617.76
00003127 00000049 1090.79 202.36 458.10 582.64 1169.51 407.34 1375.61 387.87 1244.99 511.33 1209.67 634.76 1373.57 618.54
00003128 00000050 1090.80 202.21 457.59 578.22 1168.74 406.74 1376.02 386.53 1244.86 508.84 1209.40 632.16 1374.77 615.29
00003129 00000051 1090.41 192.31 448.17 571.70 1168.54 412.67 1371.35 389.33 1244.71 512.65 1209.20 636.38 1381.14 614.66
00003130 00000052 1090.95 192.90 447.57 571.45 1168.63 412.53 1371.44 388.56 1244.73 512.11 1209.58 636.99 1381.37 614.74
00003131 00000053 1091.83 180.30 448.44 586.51 1168.28 410.72 1371.95 388.37 1242.93 512.23 1205.94 635.50 1381.24 614.84
00003132 00000054 1092.09 177.84 446.15 591.04 1168.05 411.31 1371.68 389.48 1243.63 513.56 1206.34 635.52 1379.88 615.30
00003133 00000055 1091.97 192.50 446.36 582.36 1171.12 411.58 1373.98 393.52 1247.38 513.85 1207.03 633.67 1381.92 616.94
00003134 00000056 1091.62 194.41 446.07 582.58 1170.86 411.84 1375.12 393.85 1248.60 515.24 1207.39 635.67 1382.34 619.09
00003135 00000057 1091.75 193.74 446.15 582.48 1170.64 411.95 1374.25 393.69 1248.10 515.62 1207.94 635.87 1381.75 619.03
00003136 00000058 1091.90 197.92 445.09 576.88 1170.51 411.12 1373.85 391.77 1248.60 515.58 1209.12 635.77 1381.16 617.96
00003137 00000059 1092.17 189.86 445.15 584.88 1170.28 410.32 1373.73 390.68 1248.09 515.42 1209.13 636.25 1382.04 618.23
00003138 00000060 1093.04 184.93 440.59 592.12 1171.32 410.54 1374.17 389.93 1248.32 514.40 1210.97 638.65 1382.01 619.76
00003139 00000061 1096.37 184.64 447.36 587.88 1167.45 405.66 1380.31 387.41 1247.35 511.83 1209.64 635.55 1385.24 619.36
00003140 00000062 1096.30 182.71 446.80 590.29 1167.63 405.74 1380.57 387.46 1247.63 511.38 1209.68 636.14 1385.38 619.93
00003141 00000063 1095.51 191.08 445.96 582.05 1168.25 407.26 1381.44 388.08 1249.18 513.03 1211.72 637.13 1387.31 619.97
00003142 00000064 1096.53 192.54 443.52 590.44 1171.05 406.72 1380.30 388.00 1249.75 512.19 1212.39 637.39 1382.24 621.45
00003143 00000065 1094.52 195.47 445.74 592.45 1171.79 407.18 1379.71 387.97 1251.01 512.94 1215.94 640.15 1381.91 624.14
00003144 00000066 1092.70 196.66 444.48 593.57 1171.90 407.50 1378.15 389.12 1251.41 514.50 1215.04 641.47 1379.34 626.35
00003145 00000067 1092.90 195.39 445.40 594.15 1172.32 407.67 1378.43 389.46 1251.69 514.59 1215.18 641.06 1379.11 626.10
00003146 00000068 1091.58 197.42 447.49 595.70 1172.49 407.73 1377.65 388.52 1251.96 514.63 1216.54 641.69 1378.58 625.99
00003147 00000069 1092.61 191.50 446.83 601.38 1173.00 407.24 1377.09 388.55 1250.97 513.58 1216.00 641.33 1377.81 626.15
00003148 00000070 1092.06 186.51 446.41 608.05 1172.91 407.28 1377.10 387.63 1252.21 511.96 1215.93 641.92 1377.36 626.10
00003149 00000071 1092.10 188.48 447.24 608.06 1173.23 407.63 1377.20 387.77 1252.82 511.88 1215.28 641.96 1377.16 626.10
00003150 00000072 1091.12 190.62 449.13 606.97 1172.98 407.75 1376.55 387.79 1251.99 511.97 1214.87 642.35 1376.07 626.37
00003151 00000073 1090.07 191.30 450.25 609.12 1173.17 407.86 1374.92 387.61 1251.50 511.91 1214.83 642.61 1375.07 626.47
00003152 00000074 1091.48 186.08 446.36 613.76 1174.00 407.76 1374.39 388.00 1252.81 511.77 1214.90 641.27 1376.43 625.50
00003153 00000075 1091.66 190.76 444.42 607.58 1174.36 406.46 1375.09 387.91 1252.79 511.21 1215.48 640.40 1375.93 625.58
00003154 00000076 1092.12 188.14 451.56 610.51 1175.96 412.86 1375.31 393.07 1252.81 511.08 1214.36 641.46 1377.02 625.61
00003155 00000077 1091.56 189.05 453.35 609.53 1175.87 412.78 1375.18 393.39 1252.40 511.26 1214.17 641.71 1375.98 626.23
00003156 00000078 1091.50 190.26 460.31 607.87 1174.94 410.02 1378.33 388.58 1252.19 510.01 1214.93 641.06 1378.77 623.67
00003157 00000079 1094.75 184.81 460.80 612.30 1177.05 412.14 1376.81 392.23 1250.07 510.67 1215.05 641.01 1376.90 625.03
00003158 00000080 1096.02 183.19 457.75 610.21 1177.18 409.21 1378.30 390.57 1251.30 510.52 1216.15 639.24 1376.93 624.22
00003159 00000081 1095.16 184.92 455.63 607.69 1175.32 407.20 1378.67 388.23 1250.90 509.96 1215.49 639.23 1376.67 623.92
00003160 00000082 1095.24 185.92 454.77 607.25 1175.13 406.79 1378.37 387.84 1250.45 509.62 1215.37 639.35 1376.46 624.16
00003161 00000083 1095.61 188.77 456.69 602.28 1173.53 406.04 1378.87 386.69 1248.70 508.91 1213.94 637.94 1377.18 622.06
00003162 00000084 1096.12 187.46 460.87 598.68 1172.98 404.06 1379.74 385.39 1247.28 508.68 1213.53 637.41 1376.37 622.02
00003163 00000085 1095.46 190.52 459.81 589.87 1172.42 403.12 1375.00 381.99 1245.53 504.87 1218.03 638.98 1376.72 620.05
00003164 00000086 1094.64 188.79 462.54 588.91 1173.48 401.31 1377.21 380.53 1248.61 501.33 1216.63 635.26 1377.97 616.59
00003165 00000087 1094.61 184.54 462.92 593.84 1173.07 401.67 1376.99 380.77 1248.55 502.16 1216.21 635.65 1377.54 616.91
00003166 00000088 1095.22 187.13 461.96 586.04 1173.53 403.66 1376.75 382.70 1249.14 503.70 1216.51 635.39 1376.74 616.71
00003167 00000089 1098.62 184.76 459.56 586.90 1173.55 403.31 1383.66 385.16 1250.80 507.10 1214.71 633.20 1378.82 617.94
00003168 00000090 1095.51 185.46 459.18 587.14 1174.29 407.70 1376.53 387.59 1249.58 508.00 1216.83 635.53 1377.82 617.69
00003169 00000091 1096.15 183.99 460.33 586.31 1174.22 408.71 1376.12 387.30 1249.08 508.76 1217.95 634.70 1380.70 615.62
00003170 00000092 1096.54 181.36 458.14 588.34 1174.66 409.14 1376.08 387.34 1250.02 508.96 1218.42 634.49 1380.94 615.10
00003171 00000093 1096.04 178.35 463.52 588.62 1174.29 407.21 1378.62 385.11 1250.29 506.67 1218.27 634.00 1381.88 614.30
00003172 00000094 1095.00 187.01 465.54 584.86 1175.34 404.18 1378.91 380.47 1250.15 500.02 1219.85 636.27 1379.35 615.32
00003173 00000095 1095.37 188.58 463.04 598.37 1177.76 399.52 1377.11 377.94 1251.98 496.31 1219.82 634.36 1376.33 615.38
00003174 00000096 1096.05 188.39 461.35 599.77 1173.67 398.21 1377.49 379.59 1245.87 497.42 1210.48 632.01 1369.62 617.18
00003175 00000097 1095.86 188.20 460.80 600.16 1173.85 398.14 1377.10 379.75 1246.06 497.42 1210.43 631.94 1368.57 617.34
00003176 00000098 1093.67 185.62 455.52 600.17 1171.25 401.89 1372.86 382.37 1243.02 501.61 1209.22 633.08 1367.52 617.55
00003177 00000099 1089.37 187.43 451.59 583.22 1167.76 407.44 1370.11 384.59 1245.19 505.69 1207.09 628.94 1379.19 608.03
00003178 00000100 1090.00 195.58 456.45 577.34 1167.94 409.86 1373.72 392.10 1245.06 514.18 1203.83 629.67 1385.01 612.67
00003179 00000101 1094.35 192.42 454.64 578.44 1169.86 411.46 1380.10 396.70 1250.76 522.04 1206.51 630.96 1383.20 617.89
00003180 00000102 1094.31 194.48 454.25 576.38 1169.81 411.48 1380.00 396.69 1250.41 522.09 1206.40 631.19 1383.05 618.08
00003181 00000103 1094.07 195.57 457.97 585.67 1172.73 411.81 1380.55 400.14 1250.65 524.63 1206.88 636.52 1375.16 626.62
00003182 00000104 1095.15 197.85 458.72 580.21 1173.26 411.50 1381.98 398.65 1251.37 523.04 1208.46 635.33 1379.12 624.01
00003183 00000105 1095.72 203.49 451.34 567.56 1173.88 415.37 1378.03 399.68 1251.86 523.05 1209.28 640.32 1383.01 625.66
00003184 00000106 1094.79 200.24 455.62 577.29 1173.77 413.47 1380.14 397.45 1251.69 522.02 1212.01 644.43 1383.03 629.68
00003185 00000107 1094.55 200.05 456.80 577.82 1173.70 413.06 1380.40 397.48 1251.62 522.33 1211.93 644.68 1382.44 630.28
00003186 00000108 1093.09 201.92 458.46 589.45 1176.02 409.28 1379.66 395.52 1251.88 521.28 1212.29 639.32 1371.92 628.28
00003187 00000109 1092.18 198.74 450.86 595.15 1175.11 410.48 1377.73 397.09 1254.81 523.25 1211.17 640.33 1372.43 629.82
00003188 00000110 1092.50 198.65 450.05 597.27 1173.20 411.19 1377.30 397.33 1252.84 525.30 1211.19 643.11 1373.67 632.25
00003189 00000111 1091.05 204.17 455.86 595.71 1173.87 413.31 1376.05 398.62 1252.40 526.44 1212.48 645.59 1373.49 633.89
00003190 00000112 1092.12 203.47 454.41 595.24 1173.90 412.99 1376.93 399.52 1252.19 527.13 1211.51 645.11 1373.12 634.46
00003191 00000113 1091.31 207.89 457.22 591.58 1174.49 413.98 1377.57 400.73 1252.89 527.89 1212.54 645.65 1373.59 635.03
00003192 00000114 1092.45 205.94 454.72 586.16 1173.67 413.65 1378.61 401.11 1252.69 526.33 1210.73 643.15 1372.90 632.79
00003193 00000115 1094.01 200.49 453.66 587.92 1173.50 412.92 1379.40 400.13 1251.22 524.97 1207.77 639.27 1374.96 628.65
00003194 00000116 1094.14 201.75 456.50 585.57 1172.54 412.98 1379.32 399.37 1249.49 524.64 1206.84 638.42 1376.27 627.01
00003195 00000117 1094.25 203.19 454.99 583.38 1172.75 413.49 1379.44 399.77 1250.59 524.49 1207.47 638.27 1376.71 626.70
00003196 00000118 1093.72 208.83 456.53 574.76 1171.55 413.47 1380.04 399.56 1250.05 525.03 1207.18 638.14 1377.33 626.17
00003197 00000119 1093.41 204.14 458.52 578.46 1170.13 414.12 1381.74 399.34 1249.71 525.06 1205.76 639.19 1381.21 626.15
00003198 00000120 1093.56 204.45 459.21 574.84 1169.33 413.28 1381.32 398.67 1248.64 525.54 1205.56 637.82 1382.60 624.70
00003199 00000121 1091.53 195.64 457.34 584.97 1169.27 417.61 1376.33 401.85 1247.47 526.57 1206.22 642.87 1382.81 628.16
00003200 00000122 1092.07 196.62 456.86 587.01 1169.89 417.14 1376.41 401.39 1247.81 525.75 1207.20 643.06 1383.42 628.43
00003201 00000123 1091.97 200.10 457.71 586.35 1170.23 416.76 1376.57 400.85 1248.51 525.14 1206.70 642.87 1383.25 628.12
00003202 00000124 1093.21 203.45 461.28 577.65 1168.82 414.19 1381.01 399.47 1246.80 523.81 1205.03 639.80 1379.95 626.73
00003203 00000125 1089.62 202.68 462.92 581.49 1176.26 417.40 1386.22 409.28 1263.10 527.89 1212.16 636.76 1382.07 628.46
00003204 00000126 1092.46 206.53 459.29 575.51 1167.88 412.49 1380.84 398.21 1247.17 525.14 1206.54 641.40 1378.13 628.68
00003205 00000127 1092.70 204.64 459.60 577.07 1167.80 412.86 1380.63 398.42 1246.62 524.26 1206.08 641.67 1377.50 628.81
00003206 00000128 1093.38 201.83 460.32 581.82 1169.73 411.85 1379.28 398.44 1246.94 524.08 1207.96 638.68 1375.38 626.86
00003207 00000129 1095.19 196.22 462.39 589.83 1171.55 411.17 1380.25 398.18 1247.27 522.57 1208.89 638.10 1375.27 626.94
00003208 00000130 1095.39 193.66 464.59 593.99 1173.53 411.75 1381.29 398.25 1249.11 522.43 1211.60 639.05 1377.47 627.44
00003209 00000131 1094.09 202.09 465.54 588.70 1174.71 411.56 1381.45 399.93 1250.35 524.14 1210.79 638.43 1376.70 628.28
00003210 00000132 1094.30 199.65 462.63 597.53 1175.23 412.96 1378.51 397.85 1251.41 522.71 1214.69 644.14 1379.96 630.13
00003211 00000133 1088.53 200.86 469.11 593.51 1180.93 415.29 1386.88 405.27 1263.50 521.53 1217.41 637.36 1381.76 627.76
00003212 00000134 1093.82 201.83 459.43 594.47 1175.69 412.15 1377.72 397.19 1252.35 521.60 1215.49 643.01 1377.99 629.29
00003213 00000135 1094.19 202.43 465.06 592.11 1176.05 414.61 1382.45 398.60 1252.89 522.38 1214.73 645.46 1379.88 631.03
00003214 00000136 1094.84 208.16 468.84 582.21 1175.06 411.84 1384.95 397.71 1250.43 520.23 1210.46 638.70 1378.95 626.82
00003215 00000137 1092.87 202.04 469.35 592.62 1174.99 411.63 1383.51 396.25 1252.28 522.71 1213.36 644.49 1380.23 630.45
00003216 00000138 1094.51 204.02 462.29 591.77 1175.81 413.75 1379.84 397.24 1252.52 521.62 1214.02 644.60 1380.42 629.56
00003217 00000139 1095.31 204.37 460.91 586.67 1176.54 410.98 1380.94 399.57 1250.42 522.24 1210.63 638.66 1375.06 629.17
00003218 00000140 1095.18 208.59 454.64 584.36 1175.27 414.46 1379.35 402.10 1253.35 525.46 1211.24 643.14 1377.01 631.94
00003219 00000141 1091.90 212.76 463.31 575.43 1182.56 416.56 1390.72 411.41 1268.90 525.16 1213.69 636.02 1378.94 630.36
00003220 00000142 1091.04 215.99 462.94 571.63 1182.00 416.05 1390.13 410.84 1268.78 525.08 1213.81 635.36 1379.07 629.35
00003221 00000143 1090.98 211.19 464.80 577.18 1181.53 416.28 1386.80 412.59 1266.48 530.60 1213.92 634.69 1380.55 629.59
00003222 00000144 1090.14 209.21 460.69 577.92 1181.01 415.40 1386.60 412.29 1264.88 528.43 1212.09 633.25 1379.50 628.65
00003223 00000145 1094.74 206.58 455.09 581.42 1176.29 408.85 1380.76 400.10 1251.72 523.90 1207.74 635.64 1371.75 628.26
00003224 00000146 1096.32 205.05 458.00 584.21 1176.43 403.36 1383.46 393.06 1252.02 518.45 1211.58 636.05 1373.54 627.70
00003225 00000147 1096.18 204.87 457.67 584.62 1176.71 403.44 1383.41 393.20 1252.27 518.54 1211.75 635.98 1373.79 627.67
00003226 00000148 1098.59 199.95 455.76 590.47 1179.22 404.65 1379.69 390.20 1253.62 513.56 1215.33 633.94 1379.68 620.75
00003227 00000149 1099.43 196.06 460.57 589.64 1178.73 402.95 1386.14 391.82 1252.17 515.22 1213.68 632.73 1378.94 623.36
00003228 00000150 1099.37 198.30 460.63 587.30 1177.65 403.39 1386.89 393.09 1251.50 517.05 1211.94 633.72 1379.10 624.85
00003229 00000151 1098.86 202.44 460.06 580.48 1177.90 403.43 1387.06 394.22 1252.30 516.35 1211.04 632.55 1376.42 624.72
00003230 00000152 1099.15 199.59 457.57 588.12 1178.60 407.15 1381.60 393.60 1252.85 516.16 1213.82 636.14 1379.06 623.76
00003231 00000153 1097.05 195.76 459.42 584.15 1176.00 408.47 1381.78 395.53 1250.50 518.54 1212.43 636.62 1382.01 624.30
00003232 00000154 1094.14 201.73 473.08 574.84 1182.02 409.80 1392.11 404.15 1268.15 519.39 1215.24 629.25 1387.39 623.40
00003233 00000155 1094.89 201.41 471.32 573.35 1181.62 411.30 1392.17 405.04 1267.86 519.78 1215.13 629.70 1388.82 623.36
00003234 00000156 1095.73 205.09 472.31 569.33 1181.95 410.80 1394.02 405.08 1268.13 520.10 1214.91 629.73 1391.32 623.62
00003235 00000157 1097.55 206.75 457.58 566.53 1175.99 413.32 1380.73 401.53 1247.95 521.35 1210.35 639.18 1385.08 627.36
00003236 00000158 1097.74 201.20 456.57 571.11 1175.79 414.48 1381.30 402.58 1248.55 521.72 1210.44 638.80 1387.29 626.84
00003237 00000159 1095.19 203.23 472.70 572.28 1181.83 413.20 1394.69 407.21 1269.27 520.89 1213.90 631.34 1391.82 624.96
00003238 00000160 1090.83 212.03 474.82 567.03 1179.91 417.86 1389.73 415.18 1264.75 524.09 1210.41 630.88 1387.31 626.59
00003239 00000161 1088.31 198.56 477.70 583.01 1176.43 418.17 1389.73 415.54 1262.59 527.91 1208.28 634.62 1382.21 631.24
00003240 00000162 1088.85 196.70 471.88 584.54 1178.11 417.62 1390.53 416.00 1264.04 527.15 1208.38 634.84 1380.84 632.20
