Video ID: 	fnBaRo70odM
H: 	1080
W: 	1920
FPS: 	29.748

FRAME INDEX X0 Y0 W H [Landmarks (5 Points)]

00009379 00000000 602.52 264.01 448.44 649.39 656.94 534.60 845.01 518.14 712.15 651.14 693.92 764.90 846.16 751.97
00009380 00000001 600.83 261.45 455.91 647.90 653.99 536.04 844.65 515.94 709.92 657.24 697.44 766.19 845.37 750.66
00009381 00000002 604.38 257.41 449.93 659.38 656.05 526.75 847.49 510.82 707.75 647.38 692.05 764.46 850.60 751.68
00009382 00000003 600.05 247.99 457.61 665.57 652.19 530.79 842.49 507.20 704.40 648.37 701.04 768.93 845.80 750.06
00009383 00000004 597.08 237.38 461.74 671.51 651.14 521.22 842.09 498.01 702.26 643.11 699.80 759.66 849.24 740.82
00009384 00000005 596.67 225.42 467.20 665.92 652.81 514.00 841.52 492.39 704.73 636.57 700.65 748.91 850.19 731.70
00009385 DELETE   603.79 224.75 457.61 666.47 654.48 507.56 850.75 489.84 706.32 628.15 693.72 747.87 852.06 733.16
00009386 00000007 599.16 222.26 466.25 668.42 651.85 514.39 841.83 492.95 704.34 633.96 693.79 750.57 842.69 733.94
00009387 00000008 598.11 220.04 466.43 676.85 653.29 513.37 844.24 493.18 705.88 632.88 692.49 749.10 844.09 733.47
00009388 00000009 597.47 216.90 468.68 675.23 652.96 507.68 846.83 487.18 709.05 628.61 692.36 743.83 846.95 728.14
00009389 00000010 598.30 211.71 469.52 670.43 654.47 499.23 850.11 477.76 714.92 620.34 696.03 735.81 852.44 719.15
00009390 00000011 603.91 208.17 467.48 670.46 660.77 496.29 860.02 471.45 724.97 613.18 706.98 736.89 860.79 717.25
00009391 00000012 608.13 213.36 468.66 664.14 669.38 488.06 874.04 468.03 733.87 612.16 713.08 735.35 867.82 718.84
00009392 00000013 608.59 213.81 467.34 663.66 668.94 487.85 874.76 468.18 734.62 612.54 713.13 736.75 866.57 720.71
00009393 00000014 605.00 212.55 468.56 659.92 666.39 484.57 872.85 466.25 733.05 612.03 710.51 734.16 861.34 719.46
00009394 00000015 602.48 212.17 469.62 659.64 666.03 484.35 873.46 465.34 733.71 610.49 708.90 729.50 865.60 714.08
00009395 00000016 599.95 207.23 473.54 660.32 665.71 483.10 873.65 464.04 734.50 609.62 707.83 724.98 867.81 709.48
00009396 00000017 597.39 205.15 478.00 662.66 662.40 482.40 873.70 462.27 733.16 610.13 705.12 724.35 870.52 707.81
00009397 00000018 597.60 205.85 480.70 666.01 664.00 483.98 874.48 464.17 734.30 611.64 707.07 726.84 871.92 710.44
00009398 00000019 599.77 206.45 477.39 670.58 662.20 493.38 866.00 470.94 732.75 618.33 710.99 727.05 876.00 708.62
00009399 00000020 598.32 208.34 479.15 678.16 660.03 494.25 864.05 471.72 727.57 622.41 707.94 729.95 880.20 711.24
00009400 00000021 597.22 205.57 482.76 681.92 660.72 491.83 866.59 467.32 728.53 619.87 709.29 727.80 886.60 707.09
00009401 00000022 597.78 201.92 482.00 676.81 663.48 489.16 873.90 463.04 737.25 613.38 712.65 721.48 891.55 699.47
00009402 00000023 596.36 197.13 482.34 678.79 665.48 480.10 878.08 455.03 740.57 607.19 712.95 715.60 891.62 694.19
00009403 00000024 595.48 193.60 479.63 675.83 664.54 479.22 876.21 455.17 741.12 605.94 711.14 713.79 886.02 693.62
00009404 00000025 597.51 189.73 476.32 670.43 662.72 477.21 874.21 451.80 737.99 600.61 710.70 714.34 877.54 693.69
00009405 00000026 597.67 183.66 472.24 675.42 659.93 473.51 870.19 450.65 733.24 598.82 706.77 713.88 869.18 695.59
00009406 00000027 592.18 178.95 473.99 676.89 653.13 471.89 865.20 448.44 727.96 595.76 701.46 713.24 863.88 694.42
00009407 00000028 592.18 175.06 469.54 688.41 653.47 465.73 867.39 444.22 729.98 589.35 693.60 711.93 867.48 694.66
00009408 00000029 588.77 173.00 468.39 687.76 650.92 464.17 865.48 443.59 727.65 587.38 689.54 708.98 864.51 692.47
00009409 00000030 582.30 171.68 470.73 687.08 646.54 461.65 861.39 443.72 722.96 585.65 683.93 705.79 856.91 691.40
00009410 00000031 575.18 172.78 470.41 685.84 639.79 460.13 853.77 444.29 716.35 586.54 677.30 704.43 848.75 691.54
00009411 DELETE   567.28 169.97 471.14 688.59 629.68 460.22 842.45 442.29 705.05 586.37 669.23 704.12 839.51 689.54
00009412 00000033 561.57 170.41 471.35 687.11 622.07 459.64 833.63 443.43 695.98 585.59 662.49 703.55 828.35 690.80
00009413 00000034 558.11 170.67 471.47 687.09 616.94 461.21 828.96 445.34 691.64 586.95 657.15 705.27 822.27 692.94
00009414 00000035 554.26 172.89 472.51 687.17 612.66 462.01 827.15 445.00 686.35 587.27 651.98 705.84 820.57 692.48
00009415 00000036 552.73 173.29 474.30 692.67 612.92 462.60 826.42 444.90 685.87 588.17 653.34 709.15 820.33 695.29
00009416 00000037 551.88 174.66 475.86 700.20 613.82 464.66 827.29 445.44 685.72 590.81 654.55 713.78 823.12 698.44
00009417 00000038 549.50 176.86 476.23 690.56 612.65 466.81 826.60 447.67 685.95 591.93 654.88 710.06 823.27 694.71
00009418 00000039 551.09 180.21 472.56 681.62 612.52 468.78 827.64 450.60 685.59 589.47 652.29 709.63 820.27 695.29
00009419 00000040 551.61 178.46 470.52 679.17 610.32 467.28 826.03 449.13 683.68 588.04 649.39 709.13 817.31 694.99
00009420 00000041 553.09 179.23 469.55 684.32 613.08 463.96 827.60 446.27 686.44 585.11 651.67 708.98 818.49 695.24
00009421 DELETE   557.02 178.68 468.09 683.38 616.85 463.06 829.55 443.78 691.14 583.61 654.56 706.63 823.57 691.51
00009422 00000043 560.16 175.60 467.11 682.18 620.43 461.46 830.54 443.11 693.12 583.35 658.03 701.30 829.05 686.52
00009423 00000044 563.16 171.63 468.36 681.62 623.31 459.06 832.90 439.68 695.25 581.10 662.55 698.30 834.22 682.41
00009424 00000045 568.92 167.36 467.38 678.23 628.92 454.40 837.15 435.85 698.48 575.42 669.27 695.58 836.67 680.39
00009425 DELETE   573.49 160.59 471.69 673.93 637.85 448.07 846.83 430.39 707.86 565.18 674.62 685.91 839.86 671.57
00009426 00000047 577.94 156.76 475.28 664.84 642.69 445.36 848.20 430.05 711.16 565.73 678.64 682.35 836.01 670.90
00009427 00000048 592.72 155.39 458.89 668.13 648.51 436.84 859.01 423.85 716.76 560.86 682.65 677.86 850.36 667.41
00009428 00000049 599.40 156.96 458.23 663.82 653.45 433.91 861.23 420.30 721.26 559.18 690.74 677.36 854.28 666.52
00009429 00000050 602.91 160.73 461.22 666.45 658.26 440.15 867.00 424.96 727.47 566.70 698.41 682.28 866.12 669.75
00009430 00000051 603.69 164.91 468.34 679.20 662.05 450.68 869.36 429.89 730.96 576.67 706.15 692.00 881.70 674.57
00009431 00000052 603.66 165.32 469.41 685.63 663.28 454.13 867.92 431.66 730.28 581.38 711.18 697.60 885.16 678.82
00009432 00000053 606.07 165.04 469.30 682.44 664.73 452.56 870.39 430.51 730.77 578.82 711.44 693.69 888.17 674.86
00009433 00000054 607.77 159.92 473.82 675.34 668.86 454.08 874.26 430.86 733.06 574.81 713.21 688.46 883.19 668.85
00009434 00000055 607.34 154.88 475.03 681.26 666.51 450.35 875.98 428.16 733.44 568.44 707.49 689.53 875.68 671.43
00009435 00000056 605.46 151.26 474.42 681.38 663.81 441.48 872.66 425.32 728.86 562.03 700.70 687.81 858.75 675.43
00009436 00000057 601.20 150.60 475.45 686.81 659.26 440.35 867.41 425.42 723.02 562.31 696.06 693.29 849.24 682.18
00009437 00000058 593.97 151.79 481.73 689.62 654.61 439.13 863.91 423.40 718.88 564.67 694.43 697.35 846.02 685.53
00009438 00000059 597.38 153.59 478.81 692.52 655.23 441.76 864.26 425.56 718.58 568.35 694.62 700.49 848.65 688.15
00009439 00000060 596.48 154.22 479.99 689.67 654.95 443.04 864.67 426.37 718.43 568.26 694.88 700.36 849.66 687.55
00009440 00000061 600.77 158.37 475.13 682.85 657.91 438.49 873.06 423.77 726.03 566.15 697.09 694.90 864.45 683.11
00009441 00000062 603.78 158.94 472.95 672.27 659.77 437.47 874.31 422.60 726.64 562.16 698.28 685.96 870.63 673.49
00009442 00000063 606.00 156.53 471.35 668.46 661.70 434.53 875.11 418.16 727.97 557.67 701.41 679.40 875.77 665.34
00009443 00000064 608.54 149.13 477.60 678.04 665.75 439.17 877.36 420.76 732.76 561.55 703.63 678.19 879.84 663.19
00009444 00000065 611.06 152.64 476.03 682.01 670.08 440.40 878.98 422.30 734.56 564.92 706.18 676.30 887.21 661.02
00009445 00000066 612.98 157.73 476.06 682.31 672.78 443.24 882.09 426.92 736.76 570.66 708.50 676.24 895.71 661.74
00009446 00000067 613.63 162.06 477.79 677.55 674.93 444.53 884.88 430.91 739.36 574.21 710.30 675.50 897.77 663.19
00009447 00000068 615.39 162.31 476.57 679.71 677.70 447.49 886.88 434.42 741.47 574.41 710.68 674.88 900.04 662.95
00009448 00000069 617.26 167.23 474.48 677.78 679.01 449.08 887.85 436.32 742.98 574.88 710.97 674.68 902.45 663.04
00009449 00000070 620.75 164.97 469.34 681.62 683.27 451.85 888.49 442.26 743.23 572.03 710.56 673.23 902.58 663.91
00009450 00000071 620.10 163.39 469.58 682.21 682.58 456.79 890.00 444.46 743.92 566.89 708.64 678.38 897.85 667.21
00009451 00000072 620.87 162.01 467.80 683.19 679.77 451.27 886.39 440.89 739.90 565.09 706.14 677.19 891.59 667.84
00009452 00000073 622.47 162.05 467.21 683.18 679.01 446.88 883.93 435.46 736.81 562.08 706.08 677.51 886.67 667.63
00009453 00000074 626.02 160.78 463.45 684.94 680.29 443.72 882.82 432.26 735.04 556.56 704.47 675.95 882.26 666.25
00009454 00000075 627.71 159.66 463.14 686.17 682.07 440.18 885.08 429.59 735.75 553.07 705.26 676.91 878.95 668.10
00009455 00000076 629.63 159.98 464.23 685.64 686.25 439.57 889.24 430.35 739.37 551.39 708.45 677.40 879.04 669.74
00009456 00000077 627.61 164.92 469.41 677.75 691.86 442.02 902.61 434.53 749.21 554.86 715.04 688.46 876.88 682.94
00009457 00000078 631.22 166.40 470.49 676.25 695.38 443.58 903.15 434.94 750.53 554.28 720.06 692.20 873.95 686.00
00009458 00000079 633.36 165.31 475.98 677.26 700.64 445.77 906.24 437.29 754.84 557.61 726.46 694.02 876.04 688.07
00009459 00000080 642.77 166.23 472.00 674.51 708.76 445.73 911.61 437.16 762.17 557.43 734.26 692.37 882.39 686.59
00009460 00000081 653.02 164.45 468.26 676.90 712.97 446.85 915.42 435.28 766.59 557.90 739.02 689.51 893.39 681.42
00009461 00000082 661.44 168.64 464.38 671.62 716.79 448.83 922.76 437.05 774.33 559.81 742.79 684.55 909.16 676.12
00009462 00000083 668.18 167.30 462.87 665.83 722.03 446.58 927.90 435.22 779.78 558.78 746.30 677.64 918.51 669.29
00009463 00000084 674.53 165.26 460.18 662.95 726.51 444.40 930.55 432.05 784.31 556.35 750.13 674.73 921.63 665.70
00009464 00000085 678.10 162.44 460.71 666.22 730.08 441.18 934.14 428.74 788.55 553.95 753.70 672.98 925.39 663.84
00009465 00000086 678.36 159.45 464.27 675.16 732.63 439.42 936.75 426.40 791.13 553.64 756.87 674.13 930.68 664.38
00009466 00000087 681.21 157.10 463.52 684.97 734.94 443.46 939.56 426.55 793.05 554.16 760.23 677.87 936.25 664.65
00009467 00000088 682.15 159.05 464.40 684.03 736.47 444.93 942.22 428.76 795.93 556.63 761.74 680.22 936.17 667.63
00009468 00000089 683.55 160.00 465.43 687.27 738.06 448.54 944.85 431.16 798.77 559.95 764.40 683.29 941.02 669.48
00009469 00000090 685.96 162.91 463.58 689.45 741.23 449.38 948.69 433.45 802.04 561.87 767.05 685.80 943.79 673.21
00009470 00000091 685.58 166.01 463.25 691.24 741.56 452.27 949.44 435.66 802.38 565.16 768.57 689.62 944.95 676.46
00009471 00000092 684.99 176.06 462.30 688.68 745.87 453.20 950.51 439.61 804.47 563.89 775.95 689.67 947.53 678.84
00009472 00000093 685.55 177.04 469.51 693.84 746.27 452.04 958.34 436.41 805.48 568.70 776.94 698.68 956.55 684.06
00009473 00000094 691.87 181.33 464.43 692.26 753.55 458.15 959.42 444.96 813.28 571.30 782.63 696.96 953.56 686.67
00009474 00000095 690.12 190.19 469.40 692.17 753.58 463.42 960.68 450.30 814.61 580.43 782.40 702.87 955.36 692.49
00009475 00000096 688.36 196.18 472.68 691.89 750.64 470.32 958.30 458.42 812.70 592.13 778.84 709.56 954.75 700.51
00009476 00000097 687.01 200.65 474.79 692.73 748.70 476.80 955.97 464.33 810.72 599.20 777.94 716.57 952.85 706.91
00009477 00000098 686.05 204.60 476.47 691.57 746.49 482.00 955.76 469.21 810.74 604.78 776.90 723.87 949.75 713.97
00009478 00000099 686.06 210.11 475.31 685.82 746.17 484.64 957.73 472.93 812.74 608.53 775.43 725.63 950.06 716.69
00009479 00000100 686.17 210.26 474.97 686.48 746.60 486.25 957.78 474.88 812.51 608.27 773.96 725.48 950.21 716.72
00009480 00000101 685.98 208.48 476.19 686.63 746.27 485.05 959.71 474.78 813.49 606.52 771.20 723.15 950.97 715.31
00009481 00000102 685.95 206.05 478.31 690.21 748.22 482.50 961.86 474.77 814.26 604.32 771.08 720.30 951.71 714.54
00009482 00000103 686.41 207.07 477.73 688.26 749.13 481.36 963.27 474.90 816.04 603.21 770.20 718.81 951.64 714.21
00009483 00000104 687.18 205.70 471.75 691.27 749.07 494.20 964.03 485.65 816.77 603.62 765.57 725.44 948.08 719.15
00009484 00000105 685.76 202.87 472.97 692.27 749.03 493.49 962.37 484.42 815.50 601.05 764.31 723.32 946.55 716.72
00009485 00000106 683.69 200.34 475.14 692.92 748.67 486.69 962.01 480.27 815.15 599.97 763.86 718.99 946.18 714.61
00009486 00000107 683.37 200.01 476.28 693.27 748.84 482.27 959.50 477.88 813.63 598.82 764.59 716.10 944.94 713.57
00009487 00000108 683.38 197.44 476.48 692.25 746.96 478.19 959.37 473.06 811.90 597.27 763.83 713.75 945.81 710.73
00009488 00000109 683.47 194.45 475.85 692.98 747.69 474.15 957.94 470.04 810.86 595.89 764.09 710.43 944.42 708.35
00009489 00000110 683.03 194.31 476.93 692.85 746.56 472.66 957.73 467.69 809.99 594.34 763.61 710.14 943.96 707.26
00009490 00000111 684.71 193.62 475.91 695.76 747.73 472.79 958.14 467.45 809.83 593.60 764.92 710.91 945.29 707.82
00009491 00000112 685.38 194.02 475.37 696.24 747.59 473.65 957.13 466.59 809.66 593.71 766.39 713.68 944.40 709.29
00009492 00000113 685.19 193.93 476.89 702.06 747.57 472.59 957.93 463.71 808.91 592.59 768.67 717.41 944.91 711.51
00009493 00000114 688.41 193.88 475.21 700.58 749.21 473.71 959.85 463.51 810.87 592.84 772.10 717.51 947.45 710.58
00009494 00000115 689.11 193.74 475.02 700.75 750.36 472.26 961.19 462.61 811.62 592.04 773.72 716.64 949.10 710.16
00009495 00000116 687.63 192.94 475.11 701.18 748.98 471.70 959.96 461.65 810.81 591.08 771.90 716.46 946.99 709.66
00009496 00000117 687.80 192.30 474.69 699.10 748.94 468.96 960.26 460.00 810.32 588.29 770.78 714.00 945.84 708.12
00009497 00000118 688.16 191.08 473.84 699.67 749.44 467.14 961.34 458.21 811.17 587.00 771.40 711.66 946.85 705.84
00009498 00000119 688.01 190.37 473.40 698.69 749.67 467.02 961.34 458.68 810.80 586.00 770.06 709.89 946.98 704.54
00009499 00000120 686.77 190.25 472.34 699.30 749.10 467.75 959.22 459.50 809.74 586.52 769.57 709.54 945.83 704.19
00009500 00000121 684.27 190.96 473.37 696.02 746.89 467.70 956.67 460.00 807.22 586.94 767.28 708.93 943.54 703.99
00009501 00000122 681.48 189.41 474.63 694.79 744.93 467.20 955.19 461.37 805.56 587.98 764.29 707.07 941.57 703.64
00009502 00000123 679.35 191.39 475.70 690.80 743.77 468.97 952.65 462.81 805.16 590.46 764.01 706.13 941.69 702.11
00009503 00000124 675.21 192.73 475.67 691.87 740.98 472.68 951.08 467.21 803.27 594.13 758.88 709.17 938.23 705.90
00009504 00000125 669.28 195.12 477.47 688.60 736.18 473.70 945.78 471.53 797.90 596.61 752.42 710.40 930.79 710.05
00009505 00000126 666.25 195.21 480.36 690.74 733.88 474.34 944.53 472.01 796.16 597.21 749.17 710.47 931.45 710.01
00009506 00000127 664.76 195.18 480.47 689.84 732.70 474.06 944.76 472.86 796.11 599.18 748.11 709.10 933.03 709.65
00009507 00000128 660.66 194.52 483.40 695.50 729.96 475.03 943.07 472.42 794.92 600.58 745.13 708.64 935.82 708.25
00009508 00000129 657.30 195.17 483.66 701.33 731.38 478.72 940.52 480.57 791.10 603.08 742.51 710.13 935.17 713.30
00009509 00000130 656.14 195.20 483.68 711.47 730.06 483.73 938.27 484.56 786.97 607.96 743.77 718.36 935.23 720.13
00009510 00000131 654.96 197.16 483.45 717.81 726.78 486.78 934.63 487.40 779.90 614.79 741.50 723.90 936.36 724.76
00009511 00000132 650.93 208.44 485.48 712.57 721.26 493.32 929.36 496.93 775.40 625.67 737.96 728.95 933.32 731.30
00009512 00000133 650.03 216.27 485.37 705.88 720.44 501.24 929.10 507.40 775.10 631.61 737.62 734.10 929.31 738.61
00009513 00000134 649.93 216.13 483.50 698.51 718.73 505.59 928.35 510.29 775.74 631.98 735.32 734.79 925.04 738.35
00009514 00000135 650.72 215.39 482.65 686.33 720.85 496.80 930.59 505.97 779.43 626.21 734.27 727.62 917.91 735.79
00009515 00000136 659.48 201.61 478.55 695.87 724.24 489.17 931.90 490.79 782.38 616.82 737.72 730.69 911.53 733.86
00009516 00000137 668.92 197.16 473.16 703.08 730.88 489.12 935.55 483.33 789.69 608.60 747.87 736.24 910.91 733.85
00009517 00000138 674.02 192.74 471.14 709.61 734.49 493.37 938.11 479.61 798.18 610.09 761.29 742.20 919.41 732.84
00009518 00000139 676.17 191.76 474.39 713.77 737.78 498.92 941.09 477.47 806.17 614.65 776.73 747.16 932.21 730.74
00009519 00000140 677.02 195.72 475.49 711.18 735.92 508.96 938.16 477.16 805.43 622.50 784.88 756.98 939.63 731.57
00009520 00000141 661.22 203.57 486.84 706.27 729.18 517.88 923.90 477.61 797.73 629.82 790.51 767.18 934.99 734.60
00009521 DELETE   641.22 209.04 500.51 708.55 711.38 530.42 901.67 480.40 782.18 643.02 781.58 776.65 926.67 735.38
00009522 00000143 624.22 220.60 508.48 703.19 694.22 538.75 885.97 484.52 767.20 651.18 769.07 788.08 912.89 743.05
00009523 00000144 617.02 227.89 504.36 702.17 678.85 542.92 875.86 490.74 753.40 656.88 755.56 795.00 905.20 750.86
00009524 00000145 611.55 223.70 502.17 704.48 666.52 535.12 866.85 486.69 736.11 654.11 741.48 794.13 891.62 753.56
00009525 00000146 618.55 210.53 494.47 708.36 670.78 516.92 855.80 481.99 715.10 641.38 728.96 764.99 872.72 735.79
00009526 00000147 617.49 195.20 491.65 714.42 670.59 502.73 857.41 470.27 713.58 624.42 722.30 749.68 873.14 722.20
CROP_BBOX: 201 0 1406 1080
