Video ID: 	RRgJylc7588
H: 	1080
W: 	1920
FPS: 	30.0

FRAME INDEX X0 Y0 W H [Landmarks (5 Points)]

00054666 00000000 913.49 181.78 362.28 538.14 1028.77 386.52 1184.91 407.67 1109.00 499.26 1027.63 562.62 1170.90 580.71
00054667 00000001 913.57 182.11 361.94 537.62 1028.87 386.46 1184.74 407.65 1108.93 499.32 1027.55 562.65 1170.61 580.81
00054668 DELETE   913.58 182.01 361.63 537.63 1029.02 386.49 1184.74 407.88 1109.04 499.53 1027.27 562.44 1170.57 580.77
00054669 DELETE   913.86 182.10 361.38 537.67 1028.99 386.78 1184.56 408.04 1109.00 499.60 1027.27 562.54 1170.72 580.77
00054670 00000004 913.59 181.99 361.63 537.66 1029.00 386.47 1184.76 407.86 1109.02 499.53 1027.27 562.45 1170.57 580.78
00054671 00000005 914.25 180.28 358.27 543.70 1024.43 383.68 1173.40 399.83 1101.24 489.39 1020.39 561.16 1161.91 575.11
00054672 DELETE   900.17 180.99 359.27 538.03 1008.61 390.23 1158.08 402.72 1087.04 499.97 1007.81 563.33 1146.99 575.48
00054673 DELETE   900.40 180.90 358.97 538.09 1008.57 390.14 1158.20 402.60 1086.98 499.84 1007.79 563.38 1147.08 575.49
00054674 00000008 900.21 180.99 359.20 537.96 1008.60 390.18 1158.08 402.64 1086.99 499.92 1007.75 563.33 1147.00 575.45
00054675 00000009 884.88 193.11 356.58 528.14 988.98 404.77 1141.33 411.99 1069.37 513.02 994.55 572.24 1136.40 579.86
00054676 00000010 882.01 194.64 354.85 524.58 984.19 405.43 1136.74 411.11 1064.93 514.08 990.52 573.17 1132.48 579.65
00054677 00000011 879.34 195.60 351.44 521.44 979.78 406.39 1132.94 411.61 1060.29 513.98 986.85 573.23 1129.08 579.11
00054678 00000012 877.94 195.04 348.55 522.25 978.22 406.69 1130.26 412.62 1057.08 513.86 985.12 573.09 1125.66 579.48
00054679 00000013 877.99 195.10 348.53 522.21 978.28 406.66 1130.25 412.61 1057.09 513.91 985.07 573.00 1125.61 579.42
00054680 00000014 877.91 195.08 348.60 522.31 978.29 406.58 1130.30 412.61 1057.18 513.78 985.02 572.96 1125.67 579.43
00054681 00000015 877.92 195.09 348.60 522.35 978.31 406.60 1130.26 412.61 1057.19 513.80 985.02 572.96 1125.66 579.42
00054682 00000016 872.66 196.17 347.09 518.65 973.35 402.03 1124.68 408.02 1050.80 512.00 978.03 565.08 1121.72 571.85
00054683 00000017 872.53 196.20 347.02 518.48 973.32 402.21 1124.60 408.05 1051.13 512.20 978.12 565.40 1121.53 572.07
00054684 00000018 872.54 196.05 347.23 518.57 973.29 401.98 1124.68 407.86 1050.97 511.90 978.19 565.25 1121.69 571.91
00054685 00000019 870.57 193.80 348.71 528.01 971.16 403.26 1122.21 409.96 1049.32 513.53 978.72 571.83 1119.45 578.70
00054686 00000020 870.62 194.40 347.64 525.62 971.00 402.96 1120.89 409.59 1048.39 513.03 978.84 570.72 1118.13 577.53
00054687 00000021 870.57 194.36 347.78 525.72 970.80 402.92 1120.78 409.56 1048.31 513.48 978.69 570.80 1118.05 577.62
00054688 00000022 868.81 191.91 349.58 531.27 969.76 404.59 1118.69 409.07 1048.15 515.40 984.53 578.68 1117.21 583.23
00054689 00000023 869.11 191.97 349.16 531.36 969.81 404.60 1118.69 408.96 1048.21 515.68 984.62 578.68 1117.49 583.12
00054690 00000024 867.87 190.44 349.75 535.92 968.79 406.09 1116.64 410.59 1046.82 516.61 985.48 583.52 1114.10 588.23
00054691 00000025 868.21 190.23 349.31 536.06 968.98 406.13 1116.73 410.65 1047.01 516.53 985.59 583.47 1114.18 588.18
00054692 00000026 869.06 189.17 349.38 531.45 967.17 410.31 1119.73 417.03 1045.86 516.39 982.10 581.12 1115.40 587.61
00054693 00000027 869.58 188.78 349.65 533.23 964.52 410.85 1117.72 415.87 1042.64 521.85 979.88 582.91 1114.89 588.17
00054694 00000028 868.94 189.72 351.20 534.29 962.81 412.86 1116.56 417.44 1040.46 527.00 979.58 586.23 1113.23 591.15
00054695 00000029 868.75 189.84 351.42 534.41 962.87 412.90 1116.55 417.40 1040.52 527.03 979.54 586.21 1113.31 591.08
00054696 00000030 869.51 190.82 351.02 535.73 963.16 416.94 1116.35 420.71 1041.02 534.37 980.40 592.18 1111.33 596.78
00054697 00000031 869.32 192.49 351.45 534.40 961.83 419.16 1116.60 422.29 1040.24 537.34 980.36 594.95 1112.80 598.92
00054698 00000032 868.56 194.69 351.37 530.95 962.62 420.31 1116.83 424.27 1040.46 538.43 980.98 596.27 1111.11 600.97
00054699 00000033 866.95 194.16 351.95 530.47 961.57 419.04 1116.08 423.47 1039.38 537.38 979.85 595.37 1109.45 600.48
00054700 00000034 865.67 193.74 353.01 531.47 960.85 418.42 1114.87 422.39 1038.84 536.55 979.69 594.55 1109.73 599.17
00054701 00000035 865.56 193.90 353.11 532.14 961.13 418.00 1114.50 422.10 1039.08 535.58 979.96 594.19 1109.35 598.95
00054702 00000036 865.69 193.75 352.88 532.25 961.10 417.96 1114.58 422.06 1039.10 535.64 979.99 594.20 1109.42 598.98
00054703 00000037 865.09 193.53 353.35 532.61 961.58 417.58 1114.71 420.89 1040.24 535.01 980.28 593.32 1110.61 597.38
00054704 00000038 865.23 193.18 353.32 533.02 961.36 417.70 1114.55 420.88 1040.14 535.09 980.22 593.36 1110.51 597.27
00054705 00000039 867.52 195.91 351.75 532.72 963.84 420.95 1116.90 424.78 1042.08 537.21 981.01 593.06 1113.32 597.43
00054706 00000040 870.05 198.46 349.04 528.43 966.66 422.40 1119.30 425.27 1044.83 539.35 983.05 593.54 1114.73 597.40
00054707 00000041 869.85 198.56 349.52 528.98 966.66 422.50 1119.31 425.32 1044.99 539.61 983.13 593.77 1114.83 597.55
00054708 00000042 870.12 199.60 348.99 528.57 967.39 422.78 1118.90 425.76 1045.27 540.69 984.31 594.03 1114.59 597.94
00054709 00000043 870.34 199.62 348.85 528.40 967.45 422.82 1118.84 425.74 1045.29 540.64 984.32 593.94 1114.56 597.83
00054710 00000044 870.16 199.60 348.98 528.51 967.34 422.81 1118.84 425.68 1045.24 540.52 984.32 594.03 1114.66 597.86
00054711 00000045 870.42 199.53 348.66 528.66 967.36 422.76 1118.91 425.62 1045.26 540.67 984.17 594.02 1114.63 597.86
00054712 00000046 868.83 200.07 349.89 527.78 966.72 423.20 1118.45 425.24 1045.16 540.53 984.43 594.81 1114.57 597.98
00054713 00000047 866.37 199.93 350.24 527.67 965.07 426.07 1118.89 432.08 1042.52 534.61 976.76 587.18 1115.53 593.16
00054714 00000048 866.38 200.23 350.31 527.39 965.05 426.04 1118.74 432.14 1042.39 534.49 976.76 587.07 1115.44 593.13
00054715 00000049 866.23 199.41 351.38 530.16 965.45 424.89 1119.31 430.69 1043.68 534.25 978.77 589.45 1115.38 595.29
00054716 00000050 866.06 199.21 351.48 530.25 965.73 424.99 1119.17 430.82 1043.85 534.20 978.91 589.41 1115.17 595.30
00054717 00000051 865.92 199.17 351.63 530.41 965.62 424.89 1119.14 430.76 1043.84 534.30 978.90 589.48 1115.16 595.40
00054718 00000052 864.41 196.64 354.17 529.82 964.19 418.62 1118.36 422.31 1043.44 531.33 980.12 589.08 1114.56 593.41
00054719 00000053 861.90 195.95 354.41 528.09 962.59 416.26 1115.18 417.62 1042.58 528.78 982.41 589.50 1112.21 591.99
00054720 00000054 861.91 194.57 354.56 529.57 962.29 415.99 1114.66 418.25 1041.72 528.45 982.38 589.34 1111.86 592.50
00054721 00000055 861.50 193.07 352.65 529.06 961.38 413.40 1113.28 415.03 1041.83 524.89 982.59 588.50 1111.37 591.23
00054722 00000056 861.49 193.10 352.69 529.11 961.36 413.43 1113.30 414.99 1041.87 524.87 982.66 588.62 1111.45 591.26
00054723 00000057 861.28 193.10 352.94 528.97 961.28 413.31 1113.32 414.84 1041.83 525.07 982.64 588.63 1111.41 591.25
00054724 00000058 854.00 191.82 357.64 533.23 957.47 403.70 1108.38 409.51 1036.10 512.19 975.13 584.43 1104.13 590.27
00054725 00000059 854.17 191.43 357.37 533.44 957.57 403.73 1108.40 409.54 1036.02 512.26 975.36 584.42 1103.96 590.32
00054726 00000060 850.44 190.31 359.30 534.18 954.06 400.63 1105.34 407.44 1032.78 507.41 968.93 576.94 1106.01 583.26
00054727 00000061 850.19 190.22 359.49 534.30 954.05 400.65 1105.39 407.32 1032.90 507.44 968.98 577.06 1105.95 583.28
00054728 00000062 849.42 189.73 360.54 535.32 953.86 400.18 1105.75 407.14 1032.62 506.89 968.32 576.82 1105.78 583.17
00054729 00000063 850.64 192.48 357.69 532.94 952.92 403.14 1103.99 410.36 1030.04 510.46 966.07 577.29 1103.84 583.93
00054730 00000064 852.60 197.14 357.03 526.94 953.61 408.04 1105.26 413.73 1031.29 514.81 968.11 578.46 1106.28 583.87
00054731 00000065 852.94 198.80 357.44 525.84 954.35 409.88 1106.31 415.18 1032.19 517.17 969.58 579.40 1107.28 584.50
00054732 00000066 853.70 198.83 356.69 525.29 954.30 409.98 1106.25 415.38 1031.74 517.02 969.64 579.26 1107.36 584.44
00054733 00000067 854.13 200.99 357.55 525.12 954.63 412.24 1106.48 416.60 1032.90 520.71 971.06 580.07 1109.97 584.29
00054734 00000068 854.33 201.53 357.86 525.03 954.86 412.79 1106.77 416.77 1033.30 521.45 971.39 579.97 1110.96 583.83
00054735 00000069 854.62 201.19 357.42 524.96 955.08 413.01 1106.59 416.65 1033.43 521.39 970.97 578.76 1111.46 582.30
00054736 00000070 855.07 200.95 358.61 524.75 955.11 412.16 1108.07 416.72 1032.76 518.55 968.10 575.09 1112.27 579.27
00054737 00000071 854.81 200.64 358.82 524.81 954.87 412.25 1108.13 416.36 1032.87 519.06 967.89 575.40 1112.33 579.24
00054738 00000072 855.76 200.50 357.51 521.80 956.35 412.97 1109.80 419.95 1033.36 515.85 965.83 569.05 1114.26 575.19
00054739 00000073 855.77 200.32 357.44 521.80 956.24 413.07 1109.80 419.95 1033.39 515.95 965.89 569.19 1114.27 575.25
00054740 00000074 854.69 201.34 360.33 523.29 952.80 409.11 1109.29 412.51 1031.68 521.51 959.35 564.87 1119.12 568.16
00054741 00000075 852.53 204.47 360.77 522.54 950.81 414.05 1107.20 417.59 1029.83 527.84 957.81 568.73 1117.40 572.23
00054742 00000076 853.63 206.07 354.12 530.35 947.65 420.52 1100.16 409.68 1028.32 524.57 956.19 574.49 1114.85 563.44
00054743 00000077 853.82 206.33 353.81 530.04 947.74 420.50 1100.20 409.69 1028.39 524.49 956.14 574.28 1114.82 563.24
00054744 00000078 851.98 208.03 355.01 529.14 946.70 423.54 1098.08 413.47 1027.05 529.14 955.72 574.90 1114.53 564.25
00054745 00000079 852.08 207.40 354.94 529.63 946.64 423.30 1098.10 413.23 1026.77 529.04 955.88 575.00 1114.56 564.35
00054746 00000080 846.37 210.42 351.35 529.86 943.03 425.23 1093.26 418.17 1023.71 533.98 949.43 573.71 1109.53 565.22
00054747 00000081 844.77 210.87 351.54 531.87 941.76 424.10 1091.92 418.64 1021.80 533.31 947.28 573.32 1108.00 565.98
00054748 00000082 843.16 209.61 351.69 532.06 941.16 421.57 1091.22 417.32 1020.59 531.60 946.95 571.96 1106.88 565.50
00054749 00000083 842.35 207.72 352.30 532.56 940.59 420.17 1090.80 415.62 1019.20 529.47 946.79 570.76 1106.08 563.95
00054750 00000084 841.57 207.98 353.03 533.41 940.51 420.22 1090.37 415.52 1019.06 529.68 947.16 571.39 1106.00 564.29
00054751 00000085 841.48 203.91 348.97 533.39 936.87 417.65 1087.02 412.62 1014.36 527.21 942.78 567.78 1104.19 560.51
00054752 00000086 842.27 209.09 357.27 526.27 938.85 420.41 1090.54 417.92 1019.16 530.89 939.71 564.92 1107.97 565.53
00054753 00000087 843.09 208.79 356.39 525.49 939.24 419.36 1091.47 417.53 1019.35 530.80 939.27 563.44 1108.25 564.63
00054754 00000088 842.50 203.70 349.30 530.76 938.36 416.63 1088.36 410.68 1015.78 527.61 942.93 565.35 1106.06 557.62
00054755 00000089 845.85 205.17 349.59 528.29 940.60 419.13 1090.73 410.92 1018.52 527.81 946.73 568.76 1108.74 559.33
00054756 00000090 847.33 206.96 351.17 526.57 942.20 421.31 1092.69 411.90 1021.80 529.03 949.30 571.61 1110.58 561.19
00054757 00000091 849.73 208.87 350.49 524.14 944.69 422.66 1094.09 413.89 1024.15 530.47 951.08 572.78 1110.97 563.12
00054758 00000092 849.47 208.61 350.85 523.85 944.49 422.89 1094.30 413.80 1024.23 530.58 951.35 572.87 1111.24 562.98
00054759 00000093 851.87 212.92 351.60 524.07 947.77 426.19 1097.64 417.92 1026.58 533.10 952.22 573.56 1113.79 564.27
00054760 00000094 852.62 214.53 352.32 527.50 948.12 435.37 1102.12 425.30 1029.88 538.80 953.21 581.06 1116.04 570.67
00054761 00000095 852.75 214.26 352.13 527.81 948.17 435.37 1102.72 425.38 1029.96 538.63 952.66 580.65 1116.41 570.30
00054762 00000096 853.69 214.75 351.37 526.99 947.62 438.53 1101.82 426.15 1030.19 539.11 954.53 583.40 1116.82 571.18
00054763 00000097 853.72 214.74 351.34 526.93 947.61 438.53 1101.81 426.14 1030.17 539.12 954.53 583.42 1116.82 571.19
00054764 00000098 851.88 208.14 355.13 526.58 948.02 424.43 1096.60 415.10 1026.70 527.42 961.74 580.10 1109.88 570.49
00054765 00000099 852.20 205.24 354.63 529.60 947.91 422.60 1096.59 413.10 1026.64 525.38 962.05 580.69 1109.38 570.98
00054766 00000100 852.01 205.85 355.78 530.14 948.26 423.24 1096.81 414.61 1027.04 526.10 962.86 582.07 1108.76 573.12
00054767 00000101 853.29 208.89 355.61 529.43 950.84 425.23 1098.14 418.64 1028.26 528.87 965.13 584.03 1109.01 576.88
00054768 00000102 853.01 211.28 354.84 528.27 950.59 428.24 1099.60 421.97 1030.26 530.56 965.86 587.63 1108.71 581.11
00054769 00000103 852.64 212.67 353.38 527.54 949.63 430.65 1098.47 424.60 1029.99 532.97 966.30 590.18 1106.89 583.86
00054770 00000104 847.35 207.97 360.65 527.65 948.61 429.63 1103.24 430.27 1028.60 538.17 966.74 591.59 1108.26 592.39
00054771 00000105 847.37 212.26 353.91 530.45 945.90 431.72 1096.15 426.59 1028.71 535.23 965.52 594.75 1103.89 589.00
00054772 00000106 845.24 207.23 360.90 530.00 948.51 428.48 1101.53 430.47 1028.83 536.62 967.39 592.80 1106.09 594.59
00054773 00000107 846.42 206.72 360.26 528.64 948.96 427.29 1102.12 429.69 1028.58 536.18 966.91 591.90 1105.23 594.16
00054774 00000108 846.52 206.77 360.29 528.70 948.91 427.39 1102.20 429.73 1028.48 536.14 966.93 592.01 1105.28 594.24
00054775 00000109 851.43 205.47 356.94 527.03 951.73 424.90 1104.93 428.95 1029.64 535.37 968.81 591.11 1104.68 595.02
00054776 00000110 848.89 210.92 352.84 528.76 948.49 427.10 1097.75 423.86 1029.93 532.95 968.91 594.25 1101.81 590.34
00054777 00000111 845.55 209.77 353.41 528.85 945.60 426.34 1094.91 423.04 1027.59 532.23 967.57 593.86 1100.44 589.70
00054778 00000112 845.15 209.75 353.92 528.49 945.48 426.31 1094.95 422.88 1027.67 532.22 967.52 593.75 1100.33 589.49
00054779 00000113 842.33 207.07 348.28 533.76 940.28 426.27 1088.32 425.33 1020.90 535.58 960.09 594.36 1094.52 591.88
00054780 00000114 842.02 209.28 345.42 535.44 938.36 428.51 1086.52 428.03 1018.81 540.12 956.74 597.22 1093.27 595.27
00054781 00000115 841.91 211.53 345.60 536.14 938.13 431.32 1086.62 431.50 1018.75 542.59 955.75 601.06 1092.55 599.92
00054782 00000116 842.86 212.52 344.98 535.09 937.29 434.92 1086.94 433.77 1018.99 543.30 954.04 601.51 1093.85 599.35
00054783 00000117 842.69 212.07 345.22 535.64 937.30 434.85 1086.91 433.76 1019.02 543.21 954.12 601.49 1093.86 599.35
00054784 00000118 843.71 209.31 343.68 533.40 938.74 435.80 1086.70 432.27 1019.06 539.75 955.65 597.53 1095.59 593.35
00054785 00000119 843.76 207.99 342.69 532.99 938.16 432.66 1086.89 430.25 1018.94 537.70 955.09 595.80 1094.60 592.44
00054786 00000120 843.61 207.73 342.98 533.34 938.17 432.50 1086.93 430.29 1018.93 537.67 955.15 595.74 1094.53 592.53
00054787 00000121 843.43 207.71 345.81 534.77 939.28 430.48 1088.79 428.43 1021.25 537.39 957.43 596.27 1095.22 593.06
00054788 00000122 843.56 208.04 345.95 534.26 938.77 431.63 1088.56 428.68 1020.49 537.24 957.08 596.83 1095.28 592.96
00054789 00000123 845.33 207.58 356.18 530.91 946.49 429.91 1098.63 432.58 1027.13 539.64 963.36 595.90 1099.86 598.71
00054790 00000124 845.31 207.41 356.13 531.06 946.48 429.95 1098.65 432.63 1027.11 539.53 963.35 595.93 1099.86 598.74
00054791 00000125 844.90 206.25 356.36 532.47 946.03 429.16 1097.76 431.81 1026.88 539.53 962.74 595.96 1099.22 598.73
00054792 00000126 844.83 206.34 356.47 532.54 946.01 429.33 1097.67 431.81 1027.01 539.80 962.69 595.96 1099.33 598.59
00054793 00000127 844.90 206.46 356.37 532.87 945.73 428.82 1097.51 430.56 1027.64 538.73 962.84 596.49 1099.42 598.50
00054794 00000128 844.89 206.60 356.30 532.86 945.74 428.76 1097.58 430.63 1027.62 538.73 962.96 596.52 1099.46 598.64
00054795 00000129 844.75 200.21 361.07 554.49 948.72 422.46 1098.94 426.08 1031.40 533.18 966.33 601.57 1101.63 605.21
00054796 00000130 845.83 198.39 360.43 546.69 949.55 419.56 1099.79 423.10 1031.64 531.53 967.70 596.84 1102.69 600.33
00054797 00000131 845.68 198.55 360.54 546.16 949.52 419.81 1099.56 423.21 1031.46 531.52 968.29 597.02 1102.75 600.36
00054798 00000132 852.45 197.14 356.04 529.72 953.52 412.59 1103.73 417.57 1031.79 524.97 969.80 584.49 1104.92 589.34
00054799 00000133 853.59 196.54 356.28 529.60 953.96 414.23 1104.68 418.31 1032.51 526.85 970.43 584.54 1106.67 588.65
00054800 00000134 851.94 196.56 357.51 533.81 956.17 416.96 1108.16 424.76 1034.87 530.15 970.75 587.75 1105.01 595.10
00054801 00000135 852.20 196.50 357.46 533.57 956.17 416.81 1108.50 424.38 1035.00 530.24 970.68 587.72 1105.42 594.90
00054802 00000136 853.14 202.99 355.44 541.31 956.53 437.51 1108.99 442.06 1037.37 543.28 974.32 600.68 1109.39 605.15
00054803 00000137 857.47 233.75 353.28 550.32 955.86 461.72 1110.31 459.70 1039.76 580.90 969.17 631.84 1114.53 629.86
00054804 00000138 856.75 233.83 353.34 549.41 956.05 462.08 1110.07 460.21 1040.22 581.16 969.05 631.93 1113.61 630.13
00054805 00000139 856.36 244.52 352.04 546.84 956.30 476.86 1109.35 471.25 1041.40 600.82 971.26 643.37 1118.61 639.36
00054806 00000140 856.48 244.61 351.94 546.76 956.33 476.85 1109.40 471.24 1041.39 600.84 971.25 643.37 1118.64 639.36
00054807 00000141 852.17 245.30 353.89 543.11 953.92 478.99 1106.11 476.45 1039.02 602.71 976.04 654.60 1109.71 653.21
00054808 00000142 854.49 241.12 351.39 540.03 954.20 472.89 1106.28 469.04 1039.46 596.03 975.57 652.56 1107.78 649.94
00054809 00000143 857.22 239.01 350.27 537.42 956.87 465.35 1108.79 463.13 1041.46 588.74 975.86 648.36 1106.26 647.20
00054810 00000144 854.47 234.48 354.98 538.40 954.28 464.63 1113.59 465.36 1043.57 583.48 981.29 635.67 1114.82 637.16
00054811 00000145 854.55 234.65 354.57 538.17 954.23 464.75 1113.47 465.38 1043.62 583.37 981.24 635.51 1114.93 636.92
00054812 00000146 862.88 239.88 347.46 535.76 961.49 466.60 1114.01 463.51 1045.24 591.81 980.35 648.67 1110.58 646.86
00054813 00000147 862.65 240.67 346.63 538.48 960.71 470.05 1113.06 467.11 1043.82 594.54 978.87 650.22 1111.30 648.53
00054814 00000148 862.76 240.71 346.59 538.40 960.66 469.96 1113.05 467.04 1043.69 594.59 978.94 650.22 1111.32 648.53
00054815 00000149 860.04 240.81 347.69 538.82 958.52 470.98 1110.59 467.26 1042.61 595.84 978.57 651.20 1111.15 648.76
00054816 00000150 860.48 241.11 347.66 538.67 958.68 471.43 1110.59 467.63 1042.76 595.95 978.23 651.12 1111.56 648.65
00054817 00000151 855.92 239.57 350.18 539.33 954.48 470.79 1107.39 466.98 1039.77 594.51 974.78 651.37 1107.75 648.84
00054818 00000152 850.30 234.16 354.91 548.50 945.26 460.90 1097.84 456.53 1030.07 584.36 969.85 643.53 1104.73 640.26
00054819 00000153 850.50 234.30 354.86 548.32 945.40 460.79 1098.17 456.52 1030.19 584.22 969.86 643.46 1104.96 640.29
00054820 00000154 848.77 231.01 355.33 558.32 943.82 459.28 1095.17 455.80 1026.57 582.32 969.68 648.27 1100.11 645.04
00054821 00000155 848.86 231.01 355.18 558.21 943.74 459.37 1095.08 455.89 1026.42 582.34 969.69 648.39 1100.05 645.17
00054822 00000156 848.93 230.92 355.10 558.15 943.90 459.30 1095.03 455.84 1026.39 582.29 969.84 648.30 1100.05 645.08
00054823 00000157 845.36 235.02 357.85 565.77 942.15 470.69 1093.67 464.29 1024.71 596.82 972.43 664.12 1099.00 658.56
00054824 00000158 849.61 248.41 355.62 554.85 952.43 483.35 1104.59 483.81 1039.68 607.24 976.45 668.73 1105.28 669.86
00054825 00000159 850.00 247.98 355.08 554.94 952.36 483.31 1104.20 483.72 1039.57 607.06 976.79 668.56 1105.26 669.62
00054826 00000160 852.01 245.74 354.47 549.91 953.66 479.16 1107.85 479.83 1040.34 605.37 975.63 661.34 1109.17 662.52
00054827 00000161 852.15 245.99 354.50 549.58 953.80 479.08 1107.86 479.96 1040.36 605.36 975.84 661.20 1109.06 662.56
00054828 00000162 852.13 246.17 354.46 549.33 953.61 479.11 1107.86 479.86 1040.19 605.29 975.67 661.03 1109.01 662.31
00054829 00000163 853.51 232.79 355.68 537.12 955.13 465.28 1113.88 470.04 1041.39 574.95 973.28 626.15 1114.30 630.42
00054830 00000164 853.55 232.83 355.62 537.14 955.15 465.27 1113.89 470.04 1041.42 575.07 973.26 626.15 1114.31 630.43
00054831 00000165 853.49 232.78 355.86 536.96 955.16 465.35 1113.94 470.08 1041.41 574.99 973.27 626.13 1114.31 630.40
00054832 00000166 849.53 217.28 359.73 541.16 948.82 449.18 1104.47 453.21 1033.57 559.53 973.33 616.33 1107.33 620.12
