Video ID: 	UVZVHx9w-e8
H: 	1080
W: 	1920
FPS: 	29.97002997002997

FRAME INDEX X0 Y0 W H [Landmarks (5 Points)]

00067799 00000000 473.06 180.60 392.10 545.53 601.62 382.07 796.67 410.41 710.68 448.79 604.44 564.58 772.70 588.15
00067800 00000001 475.03 182.04 389.43 538.94 602.48 384.00 796.66 409.19 709.73 450.33 605.65 564.06 772.57 585.16
00067801 00000002 474.20 182.54 388.79 535.94 600.71 385.46 793.26 409.13 707.24 449.36 604.54 562.72 770.31 582.63
00067802 00000003 474.97 184.83 388.10 532.77 600.15 385.95 792.77 409.40 705.76 449.35 604.76 562.65 770.13 582.35
00067803 00000004 472.83 185.07 388.48 534.70 598.36 385.46 789.78 409.72 704.23 449.37 604.02 561.77 769.01 581.88
00067804 00000005 470.46 185.36 390.17 537.55 597.97 384.94 789.19 410.30 703.64 450.93 602.74 562.00 768.12 582.94
00067805 00000006 473.70 185.57 384.69 536.01 598.34 391.04 782.46 408.30 703.84 453.25 596.45 564.59 764.50 580.60
00067806 00000007 472.36 184.17 385.10 535.71 596.62 390.73 782.86 407.72 702.94 454.20 595.18 566.19 764.97 581.88
00067807 00000008 470.94 183.78 385.52 535.74 595.59 390.90 782.22 409.13 701.42 457.25 593.99 566.79 763.85 583.35
00067808 00000009 469.91 182.14 385.46 539.41 594.51 391.96 781.77 410.22 700.54 458.04 593.38 569.02 763.89 585.59
00067809 00000010 469.43 180.17 384.71 545.43 593.48 392.44 781.72 411.35 699.93 459.47 592.08 572.29 762.30 589.54
00067810 00000011 469.59 183.24 385.60 552.53 595.24 392.73 779.90 413.07 700.09 461.18 592.85 574.45 760.95 593.12
00067811 00000012 470.00 182.51 384.52 554.04 593.09 393.13 779.17 413.10 697.66 461.51 592.83 578.96 758.16 597.21
00067812 00000013 469.88 180.78 383.47 550.53 590.06 395.47 780.42 414.95 695.46 465.59 591.17 581.24 759.03 598.90
00067813 00000014 469.73 180.77 381.86 545.29 587.64 397.08 781.60 415.57 692.74 470.58 590.52 583.63 759.14 600.34
00067814 00000015 467.84 179.68 383.99 546.81 586.16 400.95 780.45 418.84 691.92 476.36 589.14 587.11 757.95 603.16
00067815 DELETE   465.95 181.36 387.90 554.62 585.94 403.94 778.39 423.46 689.31 480.18 587.57 590.47 756.26 607.72
00067816 DELETE   468.37 184.88 386.22 558.64 588.96 407.75 782.71 430.66 692.42 488.05 587.69 594.61 758.75 614.93
00067817 00000018 468.15 191.94 385.87 562.21 589.97 412.37 781.23 433.24 691.70 501.23 586.65 601.37 756.19 620.34
00067818 DELETE   462.65 194.86 390.42 557.65 584.68 419.04 780.03 438.79 685.51 516.49 581.95 605.34 756.06 623.54
00067819 00000020 458.76 188.42 395.36 560.31 582.67 422.42 777.17 444.12 680.74 522.78 578.70 606.55 750.06 626.19
00067820 00000021 456.96 188.78 397.02 560.03 584.82 421.88 778.79 445.49 683.88 522.97 577.99 603.24 751.40 624.68
00067821 00000022 456.80 188.10 396.99 557.27 584.05 421.61 781.44 444.63 686.04 520.82 578.42 600.63 755.86 621.79
00067822 00000023 458.87 187.66 396.71 557.59 585.12 421.55 783.24 443.63 687.66 520.07 580.31 600.59 759.09 620.85
00067823 DELETE   461.12 190.38 395.95 557.98 586.97 424.19 784.13 445.54 689.92 521.18 583.41 605.41 758.96 624.94
00067824 00000025 462.13 195.46 394.56 556.59 589.24 428.55 783.22 447.42 692.62 525.32 586.46 609.83 757.97 627.18
00067825 00000026 466.63 200.44 391.05 556.76 593.19 435.14 783.65 451.81 695.75 532.54 591.53 616.70 758.38 632.08
00067826 DELETE   469.06 202.28 396.04 565.74 598.97 436.72 795.70 457.60 705.53 532.76 594.96 625.21 761.03 643.03
00067827 00000028 466.11 203.26 401.73 567.74 601.45 441.37 794.41 457.92 707.68 541.69 600.00 631.22 757.73 646.26
00067828 00000029 469.09 205.61 401.20 566.20 605.74 442.74 796.28 459.92 711.80 545.45 605.58 635.22 757.64 651.16
00067829 00000030 472.03 208.05 399.94 564.60 608.43 443.82 797.49 461.45 714.27 545.90 607.60 636.07 757.58 652.60
00067830 00000031 471.15 207.12 401.35 566.72 608.14 444.19 798.15 461.89 714.90 547.12 607.39 636.55 758.49 653.19
00067831 00000032 471.83 207.80 400.63 568.63 608.59 442.83 798.30 462.01 714.99 546.51 606.02 636.72 757.67 654.71
00067832 DELETE   471.18 205.05 401.91 573.46 610.49 441.69 799.78 463.96 715.91 545.19 604.79 637.01 755.97 657.47
00067833 00000034 472.80 205.74 400.97 574.24 610.41 440.63 801.56 464.69 716.13 545.34 601.59 636.47 755.62 658.46
00067834 00000035 473.74 212.01 395.53 571.25 609.17 440.50 795.83 465.95 716.87 544.31 601.65 642.04 758.99 663.18
00067835 00000036 472.81 212.49 396.48 577.09 609.06 440.54 794.66 466.54 715.83 544.25 600.47 642.02 757.54 663.75
00067836 00000037 473.93 215.41 396.02 580.37 609.88 439.47 795.36 467.50 715.26 544.18 599.28 642.46 757.54 665.91
00067837 00000038 474.52 215.47 395.66 583.08 609.64 438.62 795.64 467.15 714.84 543.74 598.18 643.26 757.19 667.07
00067838 00000039 473.11 214.64 397.26 588.22 609.78 437.40 795.15 466.90 715.49 543.45 596.22 643.16 756.93 667.66
00067839 00000040 472.88 215.37 397.60 589.54 609.42 437.07 796.28 467.12 715.68 543.75 595.16 643.98 757.54 669.02
00067840 00000041 474.08 215.42 396.75 588.87 609.49 438.95 797.14 468.66 715.42 542.77 595.06 644.69 758.38 669.54
00067841 00000042 473.86 214.47 396.77 589.58 608.82 439.20 796.51 468.54 714.63 543.01 594.82 644.36 758.42 668.83
00067842 00000043 473.38 217.43 396.03 581.93 608.43 439.26 795.74 468.13 713.59 542.66 595.14 642.11 758.11 666.39
00067843 00000044 474.29 218.31 395.53 578.52 608.72 438.93 795.49 467.81 712.38 542.40 595.27 639.47 758.15 663.68
00067844 00000045 474.63 218.70 395.76 574.03 609.00 439.80 794.69 467.34 712.32 542.25 596.82 637.56 758.66 660.61
00067845 00000046 474.46 213.66 396.59 571.96 607.02 441.57 793.46 467.06 710.82 542.61 598.95 636.50 759.79 657.69
00067846 00000047 471.13 203.43 403.47 577.32 605.07 440.54 799.37 463.59 710.03 544.73 597.47 631.57 760.15 652.00
00067847 00000048 471.49 204.26 402.59 573.62 605.24 441.23 799.36 463.41 710.29 544.93 598.44 631.82 760.19 651.54
00067848 00000049 472.17 205.13 401.71 572.34 606.09 441.42 800.28 464.02 710.49 544.76 597.78 631.77 759.91 651.94
00067849 00000050 471.20 204.78 402.71 570.36 606.26 441.50 800.23 463.69 710.18 545.43 597.97 632.45 758.01 652.37
00067850 00000051 471.43 204.09 402.71 571.23 606.34 441.10 799.75 463.21 709.83 544.73 599.15 632.78 756.99 652.71
00067851 00000052 471.07 204.95 402.61 571.03 606.58 440.81 799.43 462.84 710.09 544.75 601.16 634.42 756.51 654.49
00067852 00000053 472.46 205.23 401.35 573.23 608.36 439.68 799.43 463.83 710.51 543.27 601.50 633.12 754.77 655.10
00067853 00000054 475.06 204.90 399.68 573.89 611.62 438.07 801.59 462.45 713.94 542.48 604.37 632.30 756.85 654.46
00067854 00000055 481.53 214.02 391.08 564.21 619.71 435.03 803.47 462.79 724.68 536.50 611.13 633.60 759.91 656.65
00067855 00000056 484.27 209.84 390.52 560.48 622.47 432.24 811.40 460.47 732.94 533.06 616.55 632.05 770.26 655.41
00067856 00000057 479.29 202.11 399.68 568.35 623.79 430.76 819.86 456.60 736.10 532.65 618.44 627.91 777.45 650.81
00067857 00000058 482.78 198.19 399.13 569.28 625.80 430.57 821.82 456.17 739.71 532.38 622.64 625.91 783.57 648.10
00067858 00000059 484.18 197.09 398.34 569.87 627.60 430.37 822.72 455.44 741.57 533.13 623.81 625.57 784.81 647.30
00067859 00000060 483.70 198.52 398.44 567.47 629.57 430.40 823.68 456.01 743.96 532.07 623.69 624.63 783.54 647.18
00067860 00000061 487.26 199.60 396.69 566.86 631.23 430.15 825.87 455.97 744.89 531.25 624.86 623.96 787.13 646.74
00067861 00000062 488.85 200.02 396.59 569.25 632.48 430.66 825.82 456.73 745.21 532.27 626.05 625.32 786.54 648.30
00067862 00000063 490.07 203.26 396.41 566.85 634.48 431.93 824.07 457.59 745.35 535.31 629.88 626.59 784.33 649.36
00067863 00000064 492.50 205.29 395.34 568.13 635.00 434.58 822.34 460.62 743.73 536.39 630.74 629.01 781.90 652.13
00067864 00000065 492.06 206.58 396.26 567.97 634.74 435.85 821.29 460.84 742.91 538.02 630.07 629.88 780.72 652.02
00067865 00000066 488.26 209.88 401.14 567.16 635.55 436.15 820.07 461.09 743.88 540.55 628.53 629.92 777.63 652.12
00067866 00000067 488.93 209.97 402.38 568.26 635.52 436.98 820.70 464.25 741.56 544.42 624.54 630.91 775.25 655.09
00067867 00000068 490.71 211.07 400.32 565.96 636.55 439.57 820.93 468.80 741.26 546.59 623.17 630.32 775.23 656.14
00067868 DELETE   489.24 211.13 401.76 566.51 634.95 442.00 821.34 471.83 739.28 546.96 620.34 631.07 775.19 657.43
00067869 00000070 485.95 209.89 406.45 567.97 633.56 444.22 820.63 474.18 737.33 548.79 618.78 633.49 772.09 659.96
00067870 00000071 483.15 207.61 407.72 573.03 631.36 444.68 818.08 475.17 734.87 548.23 615.35 634.07 768.53 661.09
00067871 00000072 479.77 209.64 409.16 569.82 630.06 446.60 815.92 478.72 731.45 549.90 612.34 632.47 765.46 660.92
00067872 DELETE   478.03 211.24 410.04 567.70 626.49 448.41 813.97 480.05 725.94 551.78 607.56 632.12 761.43 660.31
00067873 00000074 472.97 209.69 414.25 567.78 622.02 447.48 813.25 478.42 722.32 552.35 603.41 632.61 760.60 660.24
00067874 00000075 472.85 210.45 412.46 567.09 618.84 447.10 810.88 478.58 718.21 553.27 600.11 631.70 759.57 659.70
00067875 00000076 472.28 211.20 410.32 565.62 616.10 447.87 809.66 477.54 716.72 554.00 598.63 633.20 759.09 659.66
00067876 DELETE   471.25 211.50 410.36 565.35 615.18 449.40 808.67 477.52 715.80 554.43 597.69 634.54 758.12 659.72
00067877 DELETE   470.51 211.41 409.90 565.91 613.00 449.74 806.91 477.82 713.63 554.55 595.46 635.17 756.16 660.28
00067878 00000079 468.52 214.09 409.08 564.60 611.21 448.91 805.39 476.46 712.93 555.29 593.64 635.17 755.16 659.86
00067879 00000080 468.43 211.91 407.29 568.00 608.40 448.40 803.47 474.99 711.05 556.15 592.19 636.18 755.12 660.05
00067880 00000081 467.85 212.13 405.24 567.46 606.89 449.88 800.05 475.35 708.22 556.36 592.23 635.65 754.06 658.50
00067881 00000082 465.70 211.48 405.37 568.74 604.84 448.65 798.59 474.06 707.54 556.19 590.96 635.02 754.16 657.64
00067882 00000083 465.04 210.84 403.13 570.76 602.97 448.82 796.60 472.83 706.46 556.02 589.74 635.65 753.81 657.04
00067883 00000084 463.70 209.35 403.10 571.28 602.72 448.11 795.57 471.91 705.95 554.33 590.25 635.10 753.03 656.27
00067884 00000085 463.77 210.35 402.19 570.08 601.54 447.66 794.52 471.35 705.08 553.30 589.97 632.82 754.62 653.81
00067885 00000086 465.58 209.64 400.73 570.58 602.31 446.33 795.21 470.28 706.08 551.81 590.27 631.89 755.14 653.11
00067886 00000087 464.72 209.33 401.40 571.20 602.43 445.58 795.45 470.06 706.24 550.65 589.67 631.35 754.76 653.05
00067887 00000088 464.04 206.64 401.67 573.26 602.39 444.80 794.90 469.17 705.68 550.44 589.59 630.55 753.63 652.00
00067888 00000089 464.98 207.75 400.14 572.45 602.65 443.76 795.36 468.42 706.47 548.96 589.43 630.17 754.48 651.88
00067889 00000090 463.66 208.66 401.13 571.74 601.62 442.44 795.42 466.35 706.87 548.31 589.36 630.64 754.93 651.75
00067890 00000091 467.22 215.61 390.98 554.65 595.94 444.45 787.21 463.17 705.12 550.25 588.42 632.82 756.15 650.05
00067891 00000092 467.45 219.45 390.35 550.41 595.20 444.13 786.59 463.32 703.61 548.54 587.73 632.06 755.17 649.84
00067892 00000093 468.07 217.16 389.57 552.74 595.24 442.87 785.71 462.66 703.11 547.49 586.92 630.86 753.90 649.15
00067893 00000094 467.46 217.93 390.15 552.12 594.78 442.54 784.14 462.37 701.83 545.02 587.21 630.13 753.11 648.26
00067894 00000095 467.68 217.91 389.59 551.91 595.24 442.13 783.57 461.60 702.43 543.91 587.59 629.23 752.72 647.22
00067895 00000096 467.22 216.71 389.76 553.67 594.86 441.81 783.27 460.95 702.48 543.52 587.19 629.29 752.82 646.95
00067896 00000097 465.62 217.44 390.83 553.49 594.36 441.28 783.01 460.39 702.37 544.14 586.52 629.45 752.40 646.99
00067897 00000098 465.87 217.74 389.96 553.45 593.46 441.82 782.06 461.11 701.43 543.53 586.30 630.28 751.41 647.76
00067898 00000099 464.45 215.31 391.25 555.73 592.09 441.91 781.10 461.09 700.39 543.28 584.95 630.52 751.04 647.92
00067899 00000100 462.65 213.88 392.74 557.32 590.76 442.81 780.53 461.96 698.71 543.85 583.91 631.86 750.05 649.30
00067900 00000101 462.58 217.51 391.74 554.35 591.10 442.87 781.18 463.27 699.41 543.13 583.64 631.95 749.95 650.37
00067901 00000102 462.03 216.32 392.89 556.12 590.77 442.62 780.03 462.51 698.80 544.24 583.94 633.07 748.46 650.89
00067902 00000103 463.33 219.07 391.96 554.40 591.43 443.74 781.34 465.08 698.62 545.06 583.23 633.98 749.23 653.20
00067903 00000104 463.33 220.05 392.25 554.58 592.09 444.53 781.86 467.20 698.93 546.52 582.96 635.13 747.94 655.39
00067904 00000105 463.34 220.31 393.42 557.49 592.93 446.55 782.95 471.05 698.92 549.48 582.73 636.52 748.76 658.18
00067905 00000106 463.51 224.08 394.88 557.92 595.15 449.68 782.45 475.53 698.90 553.84 583.62 638.19 748.02 660.92
00067906 DELETE   461.56 221.72 397.68 562.24 594.32 453.20 780.82 478.58 698.25 555.43 584.15 641.53 747.35 663.61
00067907 00000108 458.56 220.54 400.96 566.51 594.98 457.82 780.33 482.93 698.97 560.10 584.80 643.27 748.14 664.94
00067908 00000109 460.99 224.02 397.20 562.28 595.29 460.66 779.56 486.63 698.04 562.06 588.91 647.20 746.53 669.35
00067909 00000110 462.54 221.87 396.72 565.55 596.21 462.69 780.23 487.89 699.52 562.44 590.73 648.68 748.35 670.07
00067910 00000111 460.30 222.07 399.73 565.15 594.93 464.16 780.64 488.05 699.58 562.76 590.45 649.64 749.54 669.87
00067911 00000112 456.97 216.60 410.89 578.49 600.03 460.79 784.73 487.18 697.25 559.95 590.43 642.81 743.79 665.80
00067912 00000113 458.17 213.87 411.71 578.70 599.69 459.09 787.17 484.46 698.40 557.53 590.89 640.82 747.54 662.77
00067913 00000114 457.76 212.13 414.25 578.53 600.59 454.57 791.13 480.65 701.05 553.99 590.26 639.04 749.46 661.47
00067914 DELETE   458.51 208.71 416.29 580.04 601.17 448.83 791.56 476.42 699.13 550.42 589.09 634.64 747.95 658.48
00067915 00000116 464.27 207.99 414.05 576.81 603.67 445.05 795.36 474.60 700.15 546.58 591.83 632.83 747.96 658.73
00067916 00000117 471.53 219.52 405.40 564.96 606.54 443.15 790.87 474.74 702.67 539.66 596.93 634.75 746.04 660.60
00067917 00000118 476.09 220.28 402.41 560.39 608.95 440.85 793.20 472.81 703.84 537.58 599.75 633.03 747.79 659.22
00067918 00000119 477.04 217.27 401.11 563.13 610.45 439.15 795.61 473.89 706.52 534.87 599.12 634.17 749.38 662.72
00067919 00000120 476.42 214.65 402.10 567.61 613.06 436.35 798.32 473.11 710.69 534.65 600.03 635.69 748.88 665.86
00067920 00000121 473.72 205.53 408.35 573.35 615.78 436.60 805.70 470.05 713.42 539.76 601.83 633.15 750.05 662.82
00067921 DELETE   476.90 205.44 403.59 572.70 618.11 437.94 807.22 468.85 718.44 538.90 607.87 633.59 756.68 661.09
00067922 00000123 477.66 205.82 402.50 571.73 621.09 438.18 809.94 468.31 724.49 536.54 611.96 632.79 762.25 659.62
00067923 00000124 483.03 206.64 399.37 569.98 623.69 439.65 813.74 468.12 728.77 536.16 617.81 633.55 770.16 658.83
00067924 00000125 484.35 207.96 398.68 568.83 626.06 440.35 815.59 467.81 731.48 538.96 621.17 634.41 772.88 658.88
00067925 00000126 483.71 208.52 400.25 571.00 627.63 441.39 816.57 466.89 734.56 539.34 623.08 635.70 774.74 658.48
00067926 00000127 485.71 208.93 399.23 568.14 629.30 437.65 816.98 466.23 735.65 536.50 623.82 633.07 772.94 658.57
00067927 00000128 484.62 205.65 399.50 576.52 629.38 435.26 817.62 467.39 733.71 533.83 617.41 631.41 768.07 660.01
00067928 00000129 487.50 213.31 395.14 573.72 632.92 428.03 815.25 469.98 732.80 525.87 615.18 628.01 759.79 663.03
00067929 00000130 477.81 208.65 402.41 575.83 624.26 426.49 809.25 469.74 723.98 523.97 604.61 625.83 752.83 661.70
00067930 00000131 468.16 197.33 409.24 582.62 615.58 421.77 807.26 462.94 713.22 521.51 591.28 620.52 746.84 656.30
00067931 00000132 465.77 199.55 410.09 577.06 607.77 420.86 799.73 463.27 700.39 522.54 582.42 618.40 738.26 654.83
00067932 DELETE   460.79 196.07 413.47 577.56 597.27 420.64 790.95 463.92 685.61 525.93 569.08 615.96 729.71 652.36
00067933 DELETE   458.24 200.37 410.69 573.13 590.51 419.71 782.88 462.72 677.72 523.16 563.08 615.67 723.29 651.73
00067934 00000135 454.38 202.23 409.39 570.27 585.54 418.50 775.03 461.99 668.18 523.87 555.99 613.90 713.35 650.52
00067935 00000136 453.57 200.85 402.72 563.29 575.87 419.86 763.46 455.87 653.93 520.74 559.87 615.34 713.18 646.84
00067936 00000137 451.57 201.70 403.61 558.48 571.56 418.67 762.22 454.65 649.10 516.97 556.86 612.12 713.26 643.40
00067937 00000138 453.38 202.80 402.69 555.60 569.25 415.57 760.98 454.47 651.42 514.70 550.72 606.57 712.62 638.88
00067938 DELETE   451.63 198.11 403.28 556.89 572.67 414.66 764.72 449.41 653.58 513.49 559.26 607.20 718.82 637.47
00067939 00000140 453.68 194.49 403.21 559.65 573.95 416.13 766.61 449.17 656.83 514.52 561.69 606.92 723.52 635.82
00067940 00000141 455.92 194.77 401.73 559.65 578.03 417.49 769.45 448.21 664.33 516.03 568.80 609.37 728.04 636.08
CROP_BBOX: 153 0 1271 1040
