Video ID: 	DTPMvAG-ZYo
H: 	1080
W: 	1920
FPS: 	25.0

FRAME INDEX X0 Y0 W H [Landmarks (5 Points)]

00009791 00000000 960.83 198.80 427.16 584.40 1055.72 447.23 1258.53 444.65 1153.48 561.86 1076.27 636.84 1256.08 632.99
00009792 00000001 962.04 198.62 427.89 584.95 1056.94 448.64 1259.38 445.28 1156.06 561.37 1077.93 636.85 1257.28 632.41
00009793 00000002 959.62 203.07 424.81 575.86 1058.70 446.90 1267.50 447.64 1154.96 557.77 1078.09 634.34 1263.41 634.37
00009794 DELETE   961.59 203.07 424.35 575.90 1061.12 446.90 1270.16 448.26 1157.74 557.75 1079.03 634.31 1265.09 634.91
00009795 00000004 961.96 201.29 426.56 578.17 1061.86 446.62 1271.53 448.10 1158.57 557.69 1079.59 634.81 1265.80 635.48
00009796 00000005 962.35 196.35 425.76 582.61 1062.56 444.41 1272.16 446.73 1159.62 556.31 1079.98 633.71 1266.36 634.97
00009797 00000006 962.73 195.89 423.46 583.12 1063.34 442.83 1272.69 445.69 1161.15 556.03 1080.46 632.72 1266.92 634.49
00009798 00000007 963.17 193.13 424.74 585.74 1063.73 441.48 1273.65 444.56 1161.46 555.12 1081.16 632.55 1267.61 634.49
00009799 00000008 964.61 192.16 425.39 585.35 1064.62 439.93 1274.71 443.12 1161.84 554.69 1081.13 631.89 1268.04 633.92
00009800 00000009 964.44 193.88 425.65 583.08 1065.19 438.29 1275.17 442.25 1162.04 554.12 1081.39 630.40 1268.39 633.04
00009801 00000010 963.83 192.79 424.59 583.77 1064.67 436.29 1274.65 441.42 1161.13 553.12 1080.42 629.01 1267.26 632.61
00009802 00000011 964.22 190.11 425.68 584.94 1064.92 435.03 1274.35 440.61 1160.75 551.37 1080.17 627.93 1266.63 631.75
00009803 00000012 963.84 189.10 425.54 585.45 1064.54 434.32 1273.80 439.45 1160.65 550.39 1080.25 627.36 1266.67 630.82
00009804 00000013 963.23 188.11 424.26 584.99 1064.06 433.15 1272.88 438.55 1159.89 549.40 1080.17 626.01 1266.04 629.67
00009805 00000014 963.44 184.31 423.40 587.79 1063.79 431.52 1272.92 437.44 1159.59 548.66 1079.72 625.56 1265.10 629.64
00009806 00000015 963.01 181.97 422.74 589.03 1063.18 430.44 1272.61 436.35 1159.45 547.71 1079.24 624.90 1264.89 628.90
00009807 00000016 962.90 181.56 421.72 587.95 1063.17 429.47 1272.20 435.78 1158.73 546.53 1078.84 623.60 1264.09 627.91
00009808 00000017 963.22 180.21 422.10 587.42 1063.86 428.36 1271.93 434.84 1159.11 545.25 1079.62 622.49 1263.72 626.90
00009809 00000018 963.10 177.75 420.58 587.86 1063.30 426.94 1271.98 433.52 1158.74 543.22 1078.74 620.99 1263.57 625.38
00009810 00000019 963.47 176.85 420.11 587.16 1062.71 425.59 1272.17 432.52 1157.77 541.53 1078.00 620.05 1263.25 624.60
00009811 00000020 962.97 175.64 420.25 586.47 1062.82 423.55 1273.27 431.70 1157.68 539.76 1077.28 618.24 1263.78 623.71
00009812 00000021 963.35 164.83 423.66 596.19 1066.09 425.88 1270.27 428.44 1158.64 539.34 1078.94 616.73 1255.57 618.92
00009813 00000022 965.36 166.46 422.23 592.29 1065.83 423.59 1271.28 426.19 1158.05 537.10 1078.26 614.82 1255.98 617.12
00009814 00000023 967.16 160.30 421.10 596.67 1067.10 422.81 1271.68 425.52 1158.44 535.05 1078.65 613.43 1254.91 616.02
00009815 00000024 966.62 160.08 422.47 594.21 1067.80 421.84 1273.07 424.80 1159.34 534.27 1078.88 611.57 1255.50 614.29
00009816 00000025 968.27 159.39 420.93 594.49 1068.44 421.07 1273.66 424.72 1159.68 533.47 1078.91 610.70 1255.92 613.99
00009817 00000026 968.48 157.99 421.56 594.64 1069.15 420.29 1274.07 424.56 1160.77 531.36 1078.39 608.62 1255.52 612.48
00009818 00000027 970.01 156.52 419.63 595.15 1070.33 416.63 1274.48 422.58 1161.53 529.62 1077.38 605.54 1255.08 610.94
00009819 00000028 969.47 154.55 422.10 595.27 1070.61 413.07 1274.02 420.34 1161.88 527.24 1077.04 602.02 1254.35 608.53
00009820 00000029 969.64 155.34 423.84 591.88 1070.56 410.97 1274.29 418.70 1160.92 526.08 1077.11 599.30 1255.05 606.16
00009821 00000030 969.67 158.47 427.64 585.59 1074.00 407.78 1277.32 416.20 1164.04 524.13 1079.31 595.87 1256.73 603.11
00009822 00000031 969.19 149.97 431.88 591.94 1078.88 401.34 1283.53 414.57 1171.00 517.73 1078.15 589.32 1260.45 600.58
00009823 00000032 971.93 146.96 432.96 592.09 1081.89 393.13 1288.83 409.88 1172.95 506.85 1076.79 581.97 1262.70 596.06
00009824 00000033 973.98 143.65 434.34 592.73 1084.42 387.32 1295.06 404.84 1175.89 500.13 1078.19 577.69 1267.68 592.29
00009825 00000034 978.06 139.97 429.01 592.35 1087.49 378.94 1298.81 399.73 1178.50 494.29 1080.31 573.75 1268.96 591.15
00009826 00000035 980.72 136.03 426.13 593.74 1090.78 375.73 1302.16 398.21 1184.63 490.74 1084.20 570.72 1273.24 589.34
00009827 00000036 982.51 135.92 424.07 591.83 1093.56 370.05 1304.85 392.79 1188.41 487.87 1088.51 567.68 1277.27 586.58
00009828 00000037 984.19 129.51 426.21 596.22 1097.39 366.48 1310.31 390.17 1193.36 485.14 1092.20 567.38 1280.51 586.95
00009829 00000038 986.94 127.28 428.13 596.84 1101.48 362.02 1314.12 388.69 1193.43 482.10 1094.29 565.71 1282.13 587.68
00009830 00000039 989.93 125.85 429.59 597.72 1107.15 359.65 1318.17 388.35 1196.35 478.60 1098.03 563.84 1284.77 587.47
00009831 00000040 993.04 124.57 430.78 598.88 1112.64 358.48 1323.25 387.11 1201.54 476.32 1103.32 562.99 1289.89 586.59
00009832 00000041 996.21 122.80 429.72 598.25 1117.63 357.94 1325.53 387.74 1205.26 472.82 1106.99 560.85 1290.24 585.58
00009833 00000042 999.86 120.94 428.16 599.22 1121.75 355.92 1329.26 386.53 1209.34 471.58 1110.08 559.89 1292.16 585.57
00009834 DELETE   1001.66 120.30 430.27 600.32 1123.78 356.92 1333.04 387.81 1212.81 472.12 1110.91 560.08 1295.55 585.77
00009835 00000044 1007.01 120.31 427.31 595.57 1131.75 364.11 1332.74 396.73 1216.59 469.35 1117.91 558.76 1293.98 585.86
00009836 00000045 1009.43 118.57 425.93 597.85 1132.57 354.84 1335.99 387.08 1218.99 466.59 1117.89 554.98 1296.51 582.20
00009837 00000046 1008.02 114.23 426.95 600.55 1130.03 353.41 1336.15 384.56 1219.35 466.65 1117.21 555.98 1297.74 582.12
00009838 00000047 1007.82 113.36 428.15 599.46 1128.88 353.00 1336.95 385.95 1216.60 464.61 1115.75 554.00 1298.44 581.44
00009839 00000048 1005.90 111.78 430.31 597.48 1126.68 350.32 1335.13 383.82 1212.78 461.45 1113.50 549.68 1298.03 577.55
00009840 00000049 1002.74 111.23 430.77 596.47 1123.71 345.98 1332.09 382.36 1208.53 459.02 1108.10 545.65 1293.78 576.22
00009841 00000050 1000.26 108.46 430.70 596.31 1122.28 343.81 1328.77 382.34 1205.67 458.10 1105.86 543.75 1289.65 576.26
00009842 00000051 1000.36 107.20 431.62 596.22 1122.09 341.61 1327.92 382.21 1203.75 455.90 1104.12 541.34 1287.65 575.51
00009843 00000052 1000.39 105.24 430.29 595.57 1121.74 339.72 1326.37 380.77 1202.69 454.19 1103.96 539.43 1286.62 573.98
00009844 00000053 998.86 104.88 432.09 595.91 1119.80 337.84 1325.66 379.05 1201.06 453.12 1101.55 538.79 1285.94 573.38
00009845 00000054 997.19 105.55 431.90 595.70 1117.19 336.88 1324.31 377.62 1199.23 452.73 1099.30 539.18 1285.10 573.25
00009846 00000055 994.30 106.53 434.06 595.57 1113.44 335.94 1322.93 376.08 1196.04 453.87 1095.67 539.96 1283.75 573.39
00009847 00000056 991.20 107.88 433.37 595.81 1110.06 335.46 1320.86 374.99 1193.20 453.98 1092.41 540.65 1281.83 573.70
00009848 00000057 989.28 106.63 433.73 597.50 1108.09 334.75 1318.21 374.90 1191.49 454.96 1089.34 539.94 1279.38 573.44
00009849 00000058 988.57 105.81 431.25 599.01 1105.49 335.14 1315.12 375.25 1189.26 455.06 1086.73 539.31 1277.76 572.66
00009850 00000059 986.64 106.77 431.03 598.50 1102.61 334.66 1312.42 375.32 1185.77 455.87 1083.42 538.77 1274.72 572.43
00009851 00000060 986.38 106.19 429.99 598.90 1101.71 333.81 1311.54 374.84 1184.73 454.99 1081.93 538.38 1273.05 572.37
00009852 00000061 984.75 105.05 430.22 599.69 1100.39 333.46 1310.61 374.81 1183.60 454.41 1080.62 538.02 1271.81 572.22
00009853 00000062 983.87 104.83 428.69 599.17 1098.78 333.06 1309.44 374.22 1182.42 454.05 1079.58 537.76 1270.82 571.68
00009854 00000063 983.65 104.56 428.09 599.22 1097.64 332.91 1308.55 373.66 1180.94 454.27 1078.55 537.77 1270.16 571.33
00009855 00000064 983.29 103.80 427.63 599.34 1096.92 332.80 1308.35 372.87 1180.81 454.57 1078.70 537.71 1270.82 570.69
00009856 00000065 982.90 103.10 427.74 600.30 1096.07 332.92 1307.93 372.48 1180.80 453.68 1078.57 537.94 1270.98 570.40
00009857 00000066 982.64 103.82 428.24 599.53 1095.44 333.21 1307.56 372.18 1180.72 453.09 1078.87 538.31 1271.25 570.29
00009858 00000067 982.68 103.15 427.27 600.32 1094.89 332.73 1307.28 371.58 1180.41 453.13 1078.32 537.94 1271.64 569.77
00009859 00000068 982.25 103.55 427.31 599.77 1093.85 332.87 1306.04 371.38 1178.69 452.88 1078.11 537.92 1270.66 569.39
00009860 00000069 981.74 102.76 427.23 600.14 1092.60 335.34 1308.32 374.20 1177.98 453.25 1076.59 538.16 1271.80 569.94
00009861 00000070 983.62 105.34 424.53 596.88 1094.99 342.12 1304.04 381.63 1177.11 455.05 1079.48 537.55 1268.79 569.77
00009862 00000071 982.92 109.57 424.24 595.14 1094.71 343.90 1302.24 381.28 1177.17 457.62 1079.73 538.50 1269.19 569.08
00009863 00000072 982.00 110.99 425.84 596.40 1093.29 340.89 1303.58 377.74 1177.55 458.43 1079.42 540.21 1270.78 570.51
00009864 00000073 982.44 113.07 426.49 596.66 1090.45 344.35 1304.53 377.18 1177.33 460.12 1081.19 545.28 1273.98 572.23
00009865 00000074 985.37 114.13 426.82 596.19 1088.92 345.18 1306.10 373.76 1177.08 460.45 1082.46 548.05 1277.76 571.36
00009866 00000075 987.72 110.60 428.70 598.80 1092.04 344.19 1308.17 372.12 1178.90 458.88 1086.08 546.36 1281.82 569.14
00009867 00000076 987.49 104.29 432.81 601.04 1095.33 341.20 1309.68 369.24 1181.40 456.77 1088.65 542.99 1283.72 565.90
00009868 00000077 991.07 101.57 433.65 598.78 1098.68 339.06 1311.74 365.68 1184.30 451.82 1092.89 540.82 1286.42 562.34
00009869 00000078 992.92 101.54 433.85 597.96 1101.53 338.23 1314.72 364.55 1188.17 448.63 1095.81 540.91 1288.56 562.19
00009870 00000079 994.65 101.53 433.06 597.89 1104.71 338.32 1317.37 364.92 1191.42 449.32 1099.12 541.16 1291.26 562.82
00009871 00000080 995.36 103.78 435.04 600.13 1106.16 340.25 1320.79 367.25 1192.97 452.29 1099.82 544.16 1293.64 566.10
00009872 00000081 998.03 107.32 432.17 600.50 1107.17 343.79 1322.01 369.01 1193.00 455.32 1101.44 548.85 1293.76 569.50
00009873 00000082 1000.13 109.96 430.20 600.37 1108.51 346.88 1323.56 371.86 1193.54 457.67 1103.24 552.43 1294.46 572.73
00009874 00000083 1002.54 114.94 428.73 599.61 1110.75 350.51 1324.81 374.68 1195.13 461.24 1106.41 556.34 1295.75 576.00
00009875 00000084 1004.89 116.31 428.90 602.32 1112.07 354.34 1325.56 377.85 1194.93 466.97 1108.70 560.82 1296.30 579.71
00009876 00000085 1007.31 121.12 429.70 596.96 1113.86 362.92 1323.41 386.69 1201.53 475.18 1110.39 566.47 1298.04 584.48
00009877 00000086 1008.77 120.55 431.10 599.17 1114.92 365.76 1323.63 388.04 1201.96 477.58 1112.27 568.60 1299.42 585.34
00009878 00000087 1008.60 122.56 433.18 599.39 1114.86 367.42 1323.90 389.20 1201.49 479.07 1113.57 571.27 1299.34 587.35
00009879 00000088 1010.35 122.63 432.06 601.21 1115.71 369.82 1325.00 389.70 1202.62 480.53 1114.91 573.37 1301.09 588.24
00009880 00000089 1013.54 121.40 428.41 607.76 1118.52 367.43 1330.91 388.72 1200.13 482.70 1117.42 575.27 1300.06 591.86
00009881 00000090 1015.96 122.84 429.20 600.67 1120.03 374.03 1327.31 393.03 1204.81 483.32 1117.30 575.53 1302.95 590.13
00009882 00000091 1017.62 121.71 430.78 601.70 1121.11 375.24 1328.70 394.20 1205.30 486.04 1118.57 576.50 1304.28 590.98
00009883 00000092 1018.97 122.29 429.93 602.12 1122.53 377.11 1329.77 395.93 1206.83 487.83 1119.76 577.58 1305.49 591.93
00009884 00000093 1020.60 125.01 430.54 601.88 1123.66 377.90 1331.13 396.35 1207.45 490.12 1120.85 579.25 1306.32 593.49
00009885 00000094 1021.14 127.00 431.89 601.82 1124.66 380.98 1330.62 399.17 1208.06 493.18 1123.16 581.26 1307.05 595.28
00009886 00000095 1021.46 128.11 432.50 603.11 1123.50 383.47 1330.37 400.04 1207.01 495.20 1123.39 583.46 1308.20 596.11
00009887 00000096 1026.59 132.14 436.86 604.71 1126.12 382.06 1338.52 399.44 1209.85 493.56 1125.97 581.56 1310.85 595.46
00009888 00000097 1028.68 132.30 438.31 608.64 1127.39 385.30 1339.76 401.90 1210.08 496.82 1128.28 585.79 1312.97 598.89
00009889 00000098 1029.78 138.92 441.20 604.68 1130.05 391.35 1341.31 409.45 1212.67 503.11 1131.97 590.34 1313.80 604.81
00009890 00000099 1036.28 147.10 436.68 604.24 1136.10 400.36 1343.33 417.66 1216.46 511.30 1135.65 595.85 1316.61 610.04
00009891 00000100 1043.53 145.91 428.53 607.82 1139.20 417.55 1343.85 428.99 1219.67 517.82 1139.00 601.84 1321.87 611.37
00009892 00000101 1045.99 148.55 427.53 607.56 1140.68 420.29 1344.39 430.64 1221.42 521.81 1141.99 605.89 1324.21 614.30
00009893 00000102 1045.65 152.04 429.65 609.36 1141.90 416.42 1349.78 428.44 1224.28 524.34 1143.10 609.53 1327.93 619.12
00009894 00000103 1047.11 152.47 430.25 612.50 1142.88 416.82 1353.47 427.42 1227.01 527.88 1145.18 613.92 1331.22 622.20
00009895 00000104 1049.37 155.49 431.53 612.11 1144.16 416.29 1355.37 427.11 1228.18 532.09 1149.27 616.54 1335.54 624.69
00009896 00000105 1045.82 163.05 432.99 610.51 1144.10 415.24 1357.27 430.03 1232.30 533.51 1148.78 616.29 1343.75 627.12
00009897 00000106 1045.09 164.50 435.34 611.04 1144.53 416.11 1358.11 428.79 1234.43 535.18 1151.43 618.80 1345.92 628.03
00009898 00000107 1045.62 166.59 435.29 610.85 1144.36 417.91 1357.96 428.99 1235.51 537.34 1152.22 620.53 1346.54 628.58
00009899 00000108 1045.56 168.91 435.42 609.54 1143.24 419.95 1357.22 428.76 1235.65 538.51 1153.08 623.27 1346.46 629.55
00009900 00000109 1045.32 168.98 434.65 609.73 1142.12 421.37 1355.32 430.17 1234.11 539.24 1152.62 624.26 1344.31 630.55
00009901 00000110 1044.25 169.08 434.30 610.66 1140.03 422.44 1354.09 430.96 1232.73 540.09 1151.59 625.41 1343.56 631.41
00009902 00000111 1042.75 170.28 435.67 610.06 1139.26 423.19 1352.82 431.55 1231.51 541.79 1151.77 626.10 1342.12 632.05
00009903 00000112 1042.47 171.82 437.70 609.62 1138.90 424.71 1353.28 433.59 1230.49 543.52 1151.14 627.79 1341.55 634.19
00009904 00000113 1041.11 172.00 439.06 611.32 1137.18 426.12 1351.36 434.22 1228.73 545.71 1151.22 629.32 1341.53 635.04
00009905 00000114 1040.47 170.88 439.93 612.69 1135.40 428.42 1349.28 435.21 1226.74 547.92 1150.98 631.22 1340.84 635.90
00009906 00000115 1039.99 177.68 441.27 607.87 1135.46 430.04 1348.31 436.58 1226.32 548.81 1151.29 632.40 1340.50 636.98
00009907 00000116 1040.99 180.51 440.52 610.10 1136.98 433.19 1349.62 438.57 1229.00 552.56 1151.59 635.06 1341.20 638.87
00009908 00000117 1044.39 184.64 441.44 608.94 1141.39 436.54 1354.01 442.23 1232.20 556.99 1154.80 637.47 1344.63 641.78
00009909 00000118 1046.42 186.15 443.60 610.65 1145.04 439.57 1360.34 445.80 1236.62 559.81 1158.30 640.73 1349.74 645.31
00009910 00000119 1047.91 189.84 444.94 610.13 1148.02 441.72 1364.51 448.05 1241.18 563.53 1161.50 644.27 1353.00 648.97
00009911 00000120 1051.67 190.07 446.08 611.74 1151.34 444.87 1369.55 449.40 1246.45 566.30 1165.78 647.62 1358.13 650.91
00009912 00000121 1053.40 186.95 446.42 615.27 1154.48 447.81 1373.63 450.12 1252.86 569.43 1170.58 650.18 1364.06 651.67
00009913 00000122 1055.86 190.49 447.58 615.28 1158.28 450.33 1376.66 451.01 1257.98 571.54 1177.14 652.89 1369.51 653.01
00009914 00000123 1059.39 191.49 448.89 616.21 1159.82 452.17 1378.01 452.21 1258.50 571.26 1180.95 655.79 1370.48 655.24
00009915 00000124 1064.95 191.85 447.21 614.77 1163.55 451.05 1379.91 452.14 1260.17 569.80 1184.81 654.55 1372.73 654.70
00009916 00000125 1075.19 190.40 442.88 615.94 1170.27 448.54 1382.57 452.14 1261.82 565.90 1190.69 652.05 1376.42 653.47
00009917 00000126 1083.87 191.13 437.79 605.53 1177.29 450.82 1386.48 451.35 1268.57 559.44 1196.53 652.44 1382.02 650.36
00009918 00000127 1092.76 192.28 441.36 608.81 1181.48 443.25 1398.88 446.98 1272.38 557.29 1198.73 648.60 1390.25 650.57
00009919 00000128 1095.76 188.67 444.86 611.82 1186.06 440.81 1403.81 445.55 1276.75 556.36 1202.19 646.54 1394.67 649.43
00009920 00000129 1097.35 186.82 445.24 612.40 1190.07 439.61 1408.25 444.68 1281.62 556.17 1205.71 645.26 1398.56 648.59
00009921 00000130 1099.40 184.80 446.62 613.66 1191.99 440.42 1410.61 444.90 1284.55 555.29 1207.58 645.46 1400.83 648.34
00009922 00000131 1100.62 183.76 446.30 614.23 1193.72 441.13 1411.85 445.47 1286.93 555.93 1209.80 645.54 1402.55 648.31
00009923 00000132 1102.78 183.85 445.01 614.45 1195.81 441.06 1412.28 445.33 1288.56 555.01 1211.84 645.61 1403.22 648.39
00009924 00000133 1105.80 185.85 444.11 613.72 1198.52 441.70 1415.01 446.11 1291.68 555.74 1213.99 646.01 1405.46 649.05
00009925 00000134 1107.30 189.09 448.92 612.50 1201.85 441.51 1418.84 446.43 1293.75 556.54 1215.81 646.16 1407.52 649.75
00009926 00000135 1109.84 190.63 447.46 611.00 1205.08 440.69 1422.21 445.93 1298.20 555.09 1217.39 645.04 1409.82 648.91
00009927 00000136 1110.36 188.84 448.12 612.24 1207.73 440.12 1424.93 445.90 1301.52 554.84 1219.63 644.53 1412.02 648.83
00009928 00000137 1110.91 187.93 448.56 613.06 1209.16 440.68 1426.41 445.47 1303.94 554.16 1221.32 645.14 1413.16 648.73
00009929 00000138 1110.79 187.54 449.81 613.25 1209.25 440.51 1426.87 445.00 1304.46 554.48 1221.57 645.05 1414.08 648.32
00009930 00000139 1110.72 187.22 449.91 613.31 1209.45 440.18 1426.66 445.29 1304.43 554.63 1221.83 644.75 1413.75 648.51
00009931 00000140 1111.22 187.92 450.34 612.52 1210.28 440.25 1427.37 446.01 1304.25 554.67 1222.55 644.57 1414.38 648.84
00009932 00000141 1111.47 188.33 450.00 612.18 1210.64 440.03 1427.70 446.27 1304.83 554.56 1222.43 644.69 1414.16 649.39
00009933 00000142 1111.13 188.49 450.73 612.52 1210.72 439.72 1428.96 446.61 1304.82 555.11 1222.10 644.56 1414.89 649.78
00009934 00000143 1110.74 189.50 451.90 610.71 1212.00 439.09 1430.67 446.76 1306.26 554.55 1222.59 644.14 1415.34 649.98
00009935 00000144 1110.95 188.35 451.59 612.26 1212.66 439.03 1430.87 446.42 1307.24 554.63 1223.61 643.97 1416.20 649.64
00009936 DELETE   1113.01 186.33 448.80 614.74 1216.90 441.84 1432.84 450.99 1310.13 556.02 1225.07 642.58 1418.56 649.36
00009937 00000146 1115.91 185.27 445.09 612.33 1217.97 446.61 1431.22 455.11 1307.38 556.05 1226.25 642.17 1417.15 648.31
00009938 00000147 1115.20 184.11 447.45 615.92 1215.64 444.10 1432.93 451.72 1306.63 554.91 1224.45 643.76 1418.05 649.34
00009939 00000148 1113.08 183.86 448.52 616.87 1211.29 442.84 1430.04 448.95 1304.58 555.25 1222.56 644.59 1417.20 648.99
00009940 00000149 1112.35 183.33 448.32 616.72 1210.14 441.25 1427.73 447.39 1303.67 555.27 1222.82 644.24 1415.93 648.57
00009941 00000150 1109.92 183.83 450.39 615.66 1209.22 439.24 1427.05 446.01 1302.21 555.52 1220.94 643.30 1413.37 648.44
00009942 00000151 1107.88 184.22 451.53 615.17 1206.45 438.14 1425.28 444.78 1299.22 556.29 1218.57 643.60 1411.14 648.71
00009943 00000152 1106.25 183.93 452.31 616.62 1204.65 437.89 1422.77 444.77 1297.08 557.22 1216.77 643.91 1409.28 649.18
00009944 00000153 1103.40 185.70 451.24 614.38 1201.31 438.51 1421.49 446.01 1294.66 559.08 1213.80 644.00 1408.65 649.75
00009945 00000154 1101.58 183.45 451.89 617.21 1198.46 440.36 1419.03 447.54 1291.22 560.52 1210.75 644.54 1407.41 649.98
00009946 00000155 1100.59 185.66 450.28 614.68 1197.05 439.98 1417.21 448.19 1288.72 560.15 1209.11 644.77 1404.43 651.00
00009947 00000156 1099.15 187.32 450.74 613.55 1195.34 440.02 1414.70 447.96 1286.90 559.57 1207.95 645.13 1402.59 651.15
00009948 00000157 1098.08 185.95 450.66 614.51 1194.12 440.17 1414.31 448.01 1286.15 559.53 1206.77 645.28 1401.87 651.13
00009949 00000158 1097.63 184.19 448.76 616.49 1193.80 439.37 1414.33 447.23 1287.07 559.40 1206.37 645.13 1401.81 651.03
00009950 00000159 1097.24 183.76 449.98 616.38 1193.04 438.90 1413.63 446.57 1286.36 559.20 1206.39 644.48 1402.33 650.13
00009951 00000160 1096.81 184.21 449.53 616.91 1192.72 438.40 1413.15 446.21 1285.76 559.05 1206.09 644.44 1402.32 650.17
00009952 00000161 1095.71 183.81 448.94 617.84 1192.72 438.08 1412.39 445.84 1285.81 558.79 1206.21 644.48 1401.52 650.23
00009953 00000162 1095.21 183.96 449.65 617.67 1192.45 437.62 1411.96 445.59 1285.20 558.79 1205.79 644.56 1400.64 650.46
