Video ID: 	QYWgCbKgJrw
H: 	1080
W: 	1920
FPS: 	25.0

FRAME INDEX X0 Y0 W H [Landmarks (5 Points)]

00081630 00000000 821.32 101.85 388.96 520.54 1015.93 307.78 1165.89 308.48 1141.88 398.62 1051.90 488.10 1169.08 488.99
00081631 DELETE   822.67 119.41 394.18 498.89 1020.78 307.38 1170.25 312.73 1151.10 386.73 1050.66 473.39 1173.94 478.46
00081632 00000002 827.22 127.61 397.32 498.30 1026.02 310.99 1183.38 326.78 1152.66 399.30 1048.65 478.91 1174.63 491.92
00081633 00000003 833.57 132.87 409.21 492.03 1027.61 307.41 1194.05 338.43 1141.39 416.07 1031.03 480.20 1162.74 505.04
00081634 00000004 834.36 143.88 416.44 484.39 1025.53 309.03 1194.36 340.88 1138.45 411.07 1028.47 480.89 1162.79 505.94
00081635 00000005 836.93 142.96 422.60 495.71 1029.24 307.28 1202.02 339.98 1140.96 407.96 1031.15 493.41 1161.69 518.43
00081636 00000006 836.60 141.04 425.25 503.59 1030.53 309.76 1207.39 341.53 1148.62 407.00 1035.59 498.37 1170.05 522.86
00081637 00000007 835.92 139.33 427.29 515.81 1033.38 309.22 1212.92 343.95 1151.94 409.53 1034.38 504.10 1171.44 530.82
00081638 00000008 839.51 140.71 428.21 522.44 1039.09 310.61 1216.05 343.05 1158.91 416.45 1039.71 510.83 1173.61 536.00
00081639 00000009 838.29 141.36 425.20 523.67 1042.84 312.35 1219.28 346.50 1165.12 422.88 1043.16 514.54 1174.46 540.87
00081640 00000010 838.10 148.84 427.80 508.87 1043.73 312.86 1222.35 345.18 1171.37 421.06 1048.98 509.40 1180.37 534.27
00081641 00000011 834.28 157.04 431.25 505.48 1048.87 311.69 1222.58 351.19 1173.32 427.62 1055.83 514.44 1175.64 542.58
00081642 00000012 834.88 160.13 424.42 507.98 1049.77 316.59 1214.43 351.27 1175.95 427.79 1060.62 518.37 1173.67 542.86
00081643 00000013 835.73 160.10 420.31 503.70 1052.62 313.08 1212.78 354.81 1170.75 432.22 1056.61 521.04 1159.46 550.94
00081644 00000014 843.04 169.99 418.67 502.77 1051.39 320.25 1221.22 359.73 1171.00 433.27 1057.49 524.58 1168.02 552.77
00081645 DELETE   848.04 177.31 415.02 497.45 1053.79 327.18 1225.66 361.63 1174.24 437.58 1060.02 528.14 1174.05 552.49
00081646 DELETE   854.01 192.55 414.85 485.42 1059.97 338.05 1233.14 375.60 1180.76 449.19 1061.07 534.57 1175.88 562.29
00081647 DELETE   863.68 156.16 410.03 528.50 1071.23 326.56 1247.40 369.57 1201.15 448.16 1065.30 535.02 1191.41 569.61
00081648 00000018 852.08 175.96 426.83 524.43 1075.22 337.46 1236.94 391.35 1185.57 450.26 1067.50 527.94 1182.51 569.29
00081649 00000019 859.43 181.00 426.42 516.09 1081.12 342.92 1236.74 389.18 1191.70 445.85 1079.19 525.98 1195.41 561.39
00081650 00000020 858.89 180.60 425.83 516.65 1084.32 344.31 1237.64 393.43 1198.37 443.84 1085.07 524.52 1200.85 562.11
00081651 00000021 863.70 178.35 416.53 518.43 1084.85 345.16 1239.58 399.56 1201.23 442.83 1085.52 526.55 1201.91 568.58
00081652 00000022 871.16 177.46 411.67 519.16 1090.03 339.30 1244.76 397.46 1208.75 442.59 1086.84 527.69 1202.58 573.22
00081653 00000023 873.78 161.55 404.83 540.12 1094.94 334.19 1255.26 388.41 1223.78 439.00 1091.07 532.17 1213.48 576.93
00081654 00000024 870.11 175.64 418.64 535.91 1095.18 339.98 1253.95 401.26 1217.56 445.61 1093.10 533.23 1212.40 579.87
00081655 DELETE   877.64 175.07 413.23 543.80 1101.36 338.43 1254.50 401.55 1224.22 444.52 1094.04 533.25 1211.29 582.30
00081656 00000026 878.22 178.76 407.35 535.97 1103.07 337.55 1254.58 403.95 1230.50 448.30 1092.06 531.36 1209.08 583.81
00081657 00000027 878.70 177.53 404.80 536.62 1102.91 337.03 1253.56 400.17 1234.31 450.77 1093.20 534.08 1209.95 584.18
00081658 00000028 874.86 179.41 410.20 541.42 1100.15 337.64 1251.24 398.49 1235.50 450.03 1094.40 537.17 1213.79 585.31
00081659 00000029 872.48 177.43 416.18 548.84 1101.56 334.95 1252.15 397.32 1238.14 448.89 1094.60 537.69 1213.01 586.98
00081660 00000030 875.01 178.99 416.01 543.29 1103.19 339.10 1258.99 398.87 1240.14 453.71 1096.63 540.19 1217.22 587.17
00081661 00000031 885.36 170.91 404.33 544.22 1122.49 333.00 1263.95 395.35 1243.75 462.55 1091.26 548.56 1202.69 602.34
00081662 00000032 881.74 180.37 410.27 530.80 1109.54 344.48 1263.73 405.92 1236.31 455.14 1095.51 537.71 1211.31 586.02
00081663 00000033 880.71 182.40 412.95 534.77 1108.46 346.28 1259.60 406.88 1234.22 457.41 1093.89 540.42 1207.87 588.25
00081664 00000034 880.57 182.08 417.42 537.77 1111.63 348.98 1261.02 406.29 1233.65 459.16 1096.67 542.39 1210.41 587.18
00081665 00000035 874.73 187.33 419.09 531.05 1111.49 351.45 1259.72 409.55 1234.86 459.38 1097.96 540.52 1213.44 585.82
00081666 00000036 871.43 186.89 421.62 527.99 1114.55 355.73 1263.17 419.30 1237.68 463.33 1098.00 541.58 1210.98 591.00
00081667 00000037 870.46 186.54 419.81 524.67 1117.03 356.65 1264.93 424.63 1238.09 466.31 1096.36 542.16 1206.09 595.16
00081668 00000038 869.80 184.72 420.03 527.85 1117.41 358.26 1264.23 426.23 1236.75 467.81 1095.95 543.39 1204.90 596.51
00081669 00000039 869.55 184.11 421.39 537.16 1115.18 359.08 1261.69 424.64 1235.15 470.90 1093.32 545.52 1204.50 597.09
00081670 00000040 870.55 183.56 419.68 544.40 1113.79 358.32 1257.16 419.41 1231.49 472.41 1094.27 552.00 1201.46 599.76
00081671 00000041 869.68 183.54 422.68 541.45 1118.80 361.00 1263.44 422.94 1237.18 474.97 1098.46 551.58 1206.32 599.81
00081672 00000042 869.64 183.54 420.63 536.98 1119.94 364.91 1263.40 424.25 1238.22 476.28 1102.79 550.85 1210.49 596.99
00081673 00000043 869.59 180.87 422.25 540.21 1118.69 365.97 1264.08 425.32 1237.40 475.35 1100.27 549.73 1210.49 596.06
00081674 00000044 869.64 181.22 421.86 538.84 1119.40 364.40 1262.86 424.22 1235.50 476.12 1099.42 550.92 1205.98 597.55
00081675 00000045 871.15 183.11 420.49 538.75 1117.46 364.12 1264.00 422.88 1234.12 476.75 1099.45 553.40 1207.67 599.05
00081676 00000046 872.07 182.41 418.56 537.61 1117.62 365.22 1264.96 425.91 1232.64 477.63 1097.73 552.27 1206.71 599.56
00081677 00000047 874.09 183.97 410.24 534.16 1116.30 364.05 1260.80 424.32 1229.54 478.70 1095.94 554.24 1201.00 601.25
00081678 00000048 874.34 185.41 408.51 533.63 1115.64 363.98 1258.74 422.81 1227.87 480.64 1093.18 554.40 1197.25 600.46
00081679 00000049 873.10 184.72 408.27 535.70 1114.64 365.72 1258.46 425.40 1226.38 481.15 1092.38 555.65 1195.97 602.35
00081680 00000050 873.70 184.27 404.46 529.81 1113.76 365.63 1255.22 423.18 1223.63 481.54 1092.78 556.81 1193.31 601.65
00081681 00000051 873.88 182.24 401.64 528.53 1114.31 364.64 1254.19 423.31 1223.48 482.09 1091.95 557.76 1190.18 603.60
00081682 00000052 872.45 180.69 403.76 532.78 1116.15 364.44 1255.54 424.20 1225.04 482.36 1092.34 557.55 1190.66 604.30
00081683 00000053 871.67 180.48 407.48 540.34 1115.02 364.71 1256.45 426.51 1225.95 481.51 1091.35 557.25 1192.69 605.85
00081684 00000054 869.56 181.11 410.82 542.45 1115.80 365.15 1257.80 426.69 1227.17 481.53 1091.64 556.78 1194.33 604.99
00081685 00000055 869.73 178.32 410.35 546.18 1112.61 363.90 1255.11 426.52 1224.35 479.71 1089.71 556.94 1192.79 606.24
00081686 00000056 869.37 174.08 412.61 554.69 1110.24 360.51 1254.84 423.60 1222.74 475.97 1089.29 557.06 1193.88 606.61
00081687 00000057 871.91 173.87 407.95 552.11 1107.24 356.44 1253.00 419.68 1219.10 470.52 1089.31 556.42 1190.94 605.72
00081688 00000058 870.78 180.35 405.75 536.21 1103.99 353.55 1249.94 419.54 1219.45 465.54 1088.89 553.34 1190.88 604.70
00081689 00000059 870.37 181.82 404.41 525.92 1102.69 353.70 1250.10 421.45 1220.56 464.88 1088.57 552.07 1193.25 604.94
00081690 00000060 885.71 180.94 380.29 529.22 1086.02 344.22 1249.68 408.08 1213.34 453.41 1076.97 550.43 1203.28 602.47
00081691 00000061 889.67 184.36 375.83 517.38 1092.84 343.62 1256.33 408.04 1209.07 455.46 1077.85 556.90 1196.28 608.51
00081692 00000062 889.17 186.01 374.56 514.10 1092.16 343.45 1255.62 409.31 1207.95 452.00 1076.88 554.11 1196.36 606.57
00081693 00000063 891.28 186.81 371.60 506.84 1093.29 343.92 1254.57 407.58 1205.12 452.74 1076.53 551.24 1194.54 602.09
00081694 00000064 879.43 169.59 378.76 512.59 1102.52 337.70 1250.93 407.36 1221.49 444.47 1093.98 531.81 1207.51 588.49
00081695 00000065 882.16 176.22 379.48 509.16 1111.35 337.00 1256.47 404.71 1228.58 446.46 1102.55 529.55 1212.79 584.78
00081696 00000066 887.92 192.79 377.71 493.58 1111.53 340.71 1259.07 404.38 1231.38 446.78 1105.49 529.91 1218.31 581.96
00081697 00000067 891.26 188.64 378.94 496.83 1115.14 340.58 1265.72 406.03 1236.57 445.69 1107.78 528.80 1223.54 582.06
00081698 00000068 892.96 184.30 381.20 495.83 1117.46 342.84 1269.96 407.75 1241.26 446.10 1111.63 526.93 1228.58 579.62
00081699 00000069 890.94 177.91 383.15 494.99 1115.95 342.23 1270.18 406.65 1242.70 444.58 1112.14 522.91 1230.75 575.40
00081700 00000070 888.21 171.76 390.35 506.16 1121.98 333.69 1261.52 403.10 1238.66 453.94 1098.71 538.29 1202.16 595.73
00081701 00000071 885.39 177.54 405.00 516.04 1121.32 336.25 1263.12 405.16 1237.25 444.20 1108.00 534.22 1222.76 588.99
00081702 00000072 881.47 190.27 408.60 497.95 1112.87 349.11 1274.74 415.91 1233.20 445.08 1094.49 520.34 1226.12 572.79
00081703 00000073 872.93 196.26 402.03 482.92 1106.87 343.42 1254.76 408.53 1217.52 446.17 1086.42 513.74 1204.08 564.43
00081704 00000074 871.14 199.03 402.55 476.03 1107.79 338.91 1249.54 414.40 1212.00 446.64 1080.32 508.04 1192.65 567.57
00081705 00000075 878.32 189.60 403.89 492.20 1101.33 334.84 1244.47 396.90 1212.68 436.41 1086.60 520.13 1202.77 571.31
00081706 00000076 882.19 187.18 393.23 498.20 1111.73 335.91 1246.31 400.78 1220.25 440.73 1098.20 521.88 1206.34 575.32
00081707 00000077 884.20 180.70 377.89 495.27 1114.47 337.73 1251.23 398.73 1231.57 439.85 1102.38 516.81 1210.21 566.87
00081708 DELETE   876.99 185.53 392.79 504.80 1114.63 348.58 1254.68 416.64 1227.84 450.18 1100.78 522.33 1210.47 576.41
00081709 00000079 879.84 185.42 390.85 506.85 1114.67 354.35 1256.38 417.91 1226.54 452.75 1103.14 528.95 1211.26 579.20
00081710 00000080 875.95 186.68 395.88 516.34 1111.17 358.09 1254.68 420.31 1223.27 457.38 1100.25 535.99 1210.77 584.92
00081711 00000081 874.73 191.46 400.69 518.54 1110.92 359.53 1254.98 418.15 1222.43 463.43 1096.81 542.60 1209.50 588.88
00081712 00000082 874.92 190.78 400.61 524.16 1112.52 363.75 1255.72 425.20 1223.68 471.92 1095.27 549.04 1205.81 597.90
00081713 00000083 876.75 190.37 403.05 526.23 1112.25 372.42 1260.06 432.27 1225.92 480.91 1092.33 553.15 1206.85 601.10
00081714 00000084 874.93 193.26 404.63 530.34 1110.91 372.29 1260.39 430.97 1227.21 481.40 1092.69 556.50 1210.45 603.79
00081715 00000085 872.08 190.44 406.91 541.72 1111.48 372.82 1251.70 432.67 1216.57 483.46 1087.22 560.30 1196.39 608.29
00081716 00000086 871.34 193.54 406.87 543.80 1109.88 375.61 1252.81 436.55 1216.83 487.29 1083.13 563.35 1193.47 612.35
00081717 00000087 871.89 196.86 407.05 534.82 1112.01 377.98 1255.99 435.30 1222.90 487.67 1093.10 563.84 1202.20 609.52
00081718 00000088 877.96 188.90 407.36 542.28 1116.29 379.34 1262.19 433.58 1229.47 485.96 1100.50 564.87 1210.97 607.90
00081719 00000089 883.06 192.03 403.57 540.95 1119.58 380.63 1267.38 434.32 1237.38 488.92 1104.45 566.36 1218.15 609.51
00081720 00000090 884.35 190.98 406.28 541.72 1123.46 383.99 1274.28 443.23 1244.59 492.16 1105.81 567.55 1222.45 615.19
00081721 00000091 885.61 192.32 405.86 541.92 1124.32 382.60 1274.64 445.24 1246.12 492.05 1104.23 567.25 1221.29 617.98
00081722 00000092 886.36 193.03 406.65 542.77 1127.99 379.42 1269.76 442.10 1242.12 488.75 1102.74 562.80 1213.23 613.68
00081723 00000093 883.87 194.08 407.13 537.94 1125.14 381.39 1271.87 441.39 1243.15 490.31 1104.88 564.47 1218.18 612.92
00081724 00000094 884.15 190.65 404.12 540.71 1123.42 378.56 1267.53 437.07 1238.54 488.58 1102.61 562.98 1213.50 610.27
00081725 00000095 881.07 192.28 404.36 541.26 1119.23 375.30 1263.27 434.26 1230.13 488.31 1096.48 563.40 1206.56 610.93
00081726 00000096 880.03 189.69 405.45 544.99 1117.68 373.98 1261.55 434.44 1226.52 489.95 1091.14 563.41 1201.27 612.44
00081727 00000097 876.86 192.03 406.85 543.89 1114.45 371.30 1258.49 432.60 1223.35 489.33 1086.96 562.98 1198.53 612.74
00081728 00000098 878.19 194.88 407.43 540.97 1115.97 371.87 1259.95 434.22 1223.82 489.26 1087.24 561.50 1199.18 612.20
00081729 00000099 878.67 194.70 405.75 541.08 1116.17 371.47 1259.17 434.14 1223.89 488.47 1087.51 560.57 1199.43 611.57
00081730 00000100 878.15 194.54 405.73 541.48 1116.13 372.69 1259.06 435.14 1224.50 489.41 1087.43 561.24 1199.18 612.06
00081731 00000101 878.69 192.36 404.94 543.34 1118.01 372.64 1259.40 434.60 1226.41 489.74 1089.13 561.39 1199.55 611.91
00081732 00000102 877.00 192.86 406.02 540.87 1117.10 373.92 1259.65 434.27 1227.02 490.12 1090.34 561.18 1201.74 610.31
00081733 00000103 876.94 193.82 405.46 539.99 1116.82 373.60 1259.41 434.73 1227.24 489.45 1089.99 560.98 1201.79 610.74
00081734 00000104 877.27 195.56 406.28 542.86 1116.19 372.29 1257.84 434.66 1225.95 488.64 1088.21 561.47 1200.36 612.35
00081735 00000105 878.05 196.59 406.93 544.73 1115.06 371.21 1257.31 433.13 1223.68 487.79 1086.37 562.63 1199.15 613.13
00081736 00000106 873.82 192.00 406.37 539.91 1114.26 373.86 1257.17 432.03 1224.66 487.10 1091.44 561.59 1201.85 608.48
00081737 00000107 874.40 191.28 402.35 534.95 1115.20 375.42 1258.12 431.63 1227.08 485.05 1097.13 559.64 1206.30 604.50
00081738 00000108 874.50 188.99 398.39 536.39 1115.52 373.37 1255.55 428.74 1224.67 483.56 1097.76 557.14 1205.15 601.17
00081739 00000109 874.34 188.00 398.78 538.33 1114.99 373.71 1254.16 428.05 1222.98 484.39 1096.93 557.91 1203.33 601.01
00081740 00000110 873.02 190.58 400.99 537.22 1114.64 373.81 1253.19 428.20 1222.58 483.77 1096.16 557.83 1202.64 601.12
00081741 00000111 871.47 190.04 401.54 539.02 1113.60 373.49 1251.08 428.26 1221.59 483.24 1095.43 557.62 1201.80 601.30
00081742 00000112 870.58 190.46 401.97 538.38 1111.51 373.47 1249.82 428.37 1219.87 483.04 1093.76 557.84 1201.00 601.62
00081743 00000113 869.88 190.81 402.59 539.73 1110.76 373.12 1249.04 428.26 1218.38 483.46 1093.09 559.16 1200.09 603.11
00081744 00000114 867.94 191.72 402.36 539.11 1109.53 371.73 1247.49 428.22 1217.16 483.74 1091.72 559.65 1198.78 604.80
00081745 00000115 867.21 192.10 400.84 539.41 1108.09 371.94 1246.18 429.95 1216.02 483.60 1090.78 559.60 1198.50 605.94
00081746 00000116 866.86 194.17 401.39 538.46 1106.76 373.12 1246.43 429.90 1215.85 485.16 1089.61 561.95 1198.79 607.44
00081747 00000117 865.84 194.49 402.91 537.81 1105.37 373.21 1245.10 428.20 1214.68 486.27 1088.99 563.73 1196.98 607.83
00081748 00000118 864.62 195.74 405.37 540.05 1103.56 373.43 1244.81 428.27 1212.94 488.23 1087.13 566.32 1196.25 610.47
00081749 00000119 865.46 190.51 402.53 545.68 1102.41 372.16 1243.55 430.40 1210.18 489.10 1082.39 567.34 1191.35 614.41
00081750 00000120 865.17 189.73 401.35 547.86 1101.51 372.19 1242.12 431.19 1208.00 490.11 1079.53 567.93 1188.36 615.75
00081751 00000121 862.46 190.92 402.96 546.24 1098.88 372.13 1242.03 432.16 1208.76 489.67 1078.60 568.40 1190.77 617.11
00081752 00000122 873.73 197.23 389.53 535.17 1097.75 373.13 1248.85 420.62 1214.71 491.76 1074.88 578.55 1193.70 618.82
00081753 00000123 873.64 197.59 389.47 530.38 1094.31 375.34 1249.03 419.51 1212.87 491.66 1073.32 578.37 1193.04 615.96
00081754 00000124 854.98 200.52 405.37 529.14 1089.41 377.45 1235.21 427.50 1202.81 488.26 1071.94 565.50 1187.79 606.62
CROP_BBOX: 488 0 1514 967
