Video ID: 	PQYPud4bBN8
H: 	1080
W: 	1920
FPS: 	25.0

FRAME INDEX X0 Y0 W H [Landmarks (5 Points)]

00001170 00000000 890.75 292.63 380.12 529.78 942.50 515.58 1111.21 492.05 992.94 580.75 964.07 693.81 1115.93 675.24
00001171 00000001 970.40 90.87 519.42 625.78 1100.26 361.61 1349.15 315.33 1245.77 426.05 1161.72 574.42 1370.32 534.62
00001172 00000002 958.15 97.82 523.03 625.86 1090.84 367.82 1337.24 321.49 1235.64 432.85 1145.69 577.06 1360.94 536.41
00001173 00000003 949.88 104.69 514.38 624.44 1077.38 370.95 1326.10 331.85 1225.22 435.06 1131.27 580.48 1349.26 547.28
00001174 00000004 937.55 106.35 513.61 635.77 1062.21 372.50 1310.51 335.22 1206.77 432.54 1117.96 585.33 1337.51 553.70
00001175 00000005 925.82 111.83 519.10 666.73 1052.65 375.25 1297.76 332.39 1199.13 422.96 1119.16 612.35 1334.90 573.42
00001176 00000006 914.43 104.27 521.60 693.85 1049.52 383.52 1286.24 343.89 1192.27 431.41 1110.62 624.00 1316.97 588.41
00001177 00000007 910.02 135.01 514.21 658.52 1038.34 400.80 1272.62 359.30 1172.92 445.91 1098.32 628.06 1299.58 591.52
00001178 DELETE   894.98 145.55 518.40 647.45 1025.09 415.36 1266.57 370.20 1167.32 469.82 1085.21 636.56 1293.39 597.47
00001179 DELETE   886.75 162.72 509.04 638.63 1020.03 430.13 1250.36 387.15 1156.30 478.95 1077.75 644.87 1279.44 608.75
00001180 DELETE   866.91 172.03 513.55 641.70 999.54 439.99 1237.71 402.59 1142.15 490.70 1065.90 658.91 1265.67 627.92
00001181 00000011 852.88 181.53 514.44 653.42 986.36 456.03 1217.96 413.34 1129.30 501.77 1057.41 678.93 1251.84 644.83
00001182 DELETE   841.42 201.96 516.30 640.62 975.28 475.01 1208.39 430.11 1117.57 521.46 1043.38 688.56 1239.19 651.08
00001183 DELETE   803.62 153.97 624.68 742.28 968.38 479.27 1238.32 418.56 1146.92 518.13 1057.96 721.38 1287.25 669.51
00001184 00000014 788.28 172.93 634.65 730.21 953.50 506.80 1221.30 441.05 1132.50 533.08 1052.51 736.82 1277.64 679.44
00001185 00000015 775.69 183.65 634.05 730.77 943.07 516.26 1203.43 445.31 1119.56 542.59 1047.97 743.26 1270.21 681.32
00001186 00000016 756.82 185.92 646.99 737.94 922.38 531.79 1189.32 448.74 1100.31 536.56 1046.98 770.35 1259.85 698.63
00001187 00000017 752.20 192.64 653.29 728.30 917.00 530.15 1181.06 443.26 1099.68 534.33 1046.67 755.00 1266.70 679.01
00001188 00000018 748.36 196.66 657.03 712.56 913.34 535.53 1174.07 439.03 1094.37 534.83 1046.10 748.98 1264.03 665.89
00001189 00000019 744.72 200.98 658.28 709.75 910.86 535.60 1169.81 435.18 1093.68 530.86 1049.84 750.67 1264.27 664.25
00001190 00000020 747.96 189.83 661.80 732.06 919.74 542.37 1173.33 436.43 1104.28 514.59 1081.76 770.25 1277.35 678.88
00001191 00000021 752.17 197.52 659.57 739.62 924.28 539.43 1175.06 434.51 1108.86 513.87 1087.88 776.00 1279.80 685.68
00001192 00000022 748.74 190.78 658.29 724.76 922.83 541.67 1170.26 425.64 1105.36 525.76 1079.25 763.51 1279.13 663.63
00001193 00000023 752.12 187.65 663.40 721.94 928.43 549.63 1172.64 420.10 1110.93 536.13 1084.95 761.47 1288.45 650.34
00001194 00000024 940.01 281.97 395.39 526.34 997.62 522.92 1164.27 473.84 1059.60 567.96 1041.55 685.72 1194.68 644.40
00001195 00000025 937.45 285.42 395.51 520.39 995.10 526.34 1158.76 474.52 1056.29 568.63 1038.77 684.73 1188.54 641.20
00001196 00000026 930.98 284.53 397.40 520.64 989.25 527.93 1150.69 478.50 1046.97 571.94 1030.48 683.96 1176.90 642.36
00001197 00000027 927.08 284.65 398.17 531.26 983.92 530.48 1144.29 481.01 1035.94 571.40 1021.41 693.68 1161.63 652.31
00001198 00000028 924.44 289.79 396.51 543.02 982.31 529.39 1141.92 480.66 1028.63 571.76 1016.18 706.51 1154.25 665.79
00001199 00000029 922.21 285.66 397.53 539.33 972.59 537.59 1135.57 486.43 1016.43 564.52 1010.23 700.42 1152.23 658.18
00001200 00000030 917.34 285.55 393.50 532.34 966.23 540.37 1126.53 489.36 1009.87 567.17 1007.00 697.97 1147.38 655.47
00001201 00000031 915.08 290.31 383.71 527.09 960.25 542.61 1123.53 488.76 1009.46 576.81 1006.47 708.95 1151.50 663.22
00001202 00000032 909.14 289.69 387.38 529.20 947.93 548.92 1116.77 490.39 995.24 576.89 996.86 711.86 1146.24 662.81
00001203 00000033 895.93 300.64 384.48 525.81 945.34 542.39 1108.79 488.83 997.58 581.96 986.33 711.31 1138.99 667.15
00001204 00000034 902.09 291.91 390.51 540.74 939.30 541.59 1114.96 485.82 991.48 583.98 995.19 719.03 1147.47 672.99
00001205 00000035 897.56 297.04 382.44 541.15 946.63 544.96 1111.72 493.70 997.82 585.37 986.20 715.86 1141.31 673.66
00001206 00000036 895.35 298.36 383.03 546.05 945.91 544.87 1112.66 496.18 998.17 587.90 983.83 718.81 1141.30 678.64
00001207 00000037 895.80 300.57 381.24 555.71 947.74 543.64 1113.91 497.73 1001.69 591.96 985.17 720.27 1145.27 682.75
00001208 00000038 896.82 304.83 383.67 567.31 951.07 545.05 1115.86 498.13 1005.44 592.82 993.22 732.14 1145.79 694.23
00001209 00000039 899.17 305.27 387.64 575.50 959.00 544.19 1125.68 503.56 1016.06 595.31 999.65 733.30 1152.32 700.41
00001210 00000040 902.44 303.43 389.33 556.73 962.55 540.91 1134.66 509.08 1023.43 597.82 997.36 719.37 1156.32 693.52
00001211 00000041 907.24 299.33 395.84 548.38 964.41 531.63 1143.69 510.15 1018.57 600.52 990.57 709.76 1153.92 690.50
00001212 00000042 911.34 296.57 389.05 541.83 965.44 530.48 1145.12 510.02 1020.26 599.94 992.96 706.60 1154.26 688.23
00001213 00000043 914.47 294.48 389.28 548.30 969.57 527.75 1147.27 509.30 1021.11 598.29 992.88 704.96 1154.69 688.43
00001214 00000044 917.41 296.44 388.32 555.09 976.10 525.14 1150.07 507.67 1025.22 597.17 997.09 706.40 1157.79 691.15
00001215 00000045 920.98 296.11 386.91 552.18 979.69 523.83 1152.27 509.88 1026.45 597.92 996.96 702.75 1157.21 690.50
00001216 00000046 952.90 187.10 516.01 625.12 1076.29 468.35 1308.32 414.42 1210.24 498.91 1156.12 680.42 1342.40 635.70
00001217 00000047 952.94 195.42 518.55 633.84 1075.35 475.59 1310.15 420.28 1209.08 515.20 1149.66 689.34 1344.46 642.28
00001218 00000048 958.36 211.54 519.82 624.15 1077.42 483.77 1317.53 428.70 1214.15 527.81 1150.02 698.13 1348.81 650.69
00001219 00000049 964.62 217.84 520.69 629.05 1086.36 492.30 1322.12 435.51 1222.25 544.70 1161.41 711.14 1352.38 662.49
00001220 00000050 965.75 219.38 521.83 628.70 1089.20 491.71 1323.73 435.61 1225.66 545.95 1165.02 709.99 1354.60 662.12
00001221 00000051 969.18 206.53 519.53 627.70 1094.48 500.93 1329.86 447.00 1230.51 539.63 1167.63 700.45 1358.17 654.78
00001222 00000052 971.00 201.88 519.80 621.88 1099.25 493.05 1334.39 440.35 1235.25 534.92 1173.69 694.91 1361.27 650.34
00001223 00000053 972.64 195.74 516.26 612.18 1101.43 477.25 1333.94 428.70 1236.67 531.33 1178.40 685.58 1358.50 644.98
00001224 00000054 971.86 191.89 518.71 606.69 1104.67 475.94 1335.16 428.09 1239.93 529.13 1184.07 684.30 1356.67 644.28
00001225 00000055 970.05 195.08 521.04 612.53 1108.69 478.30 1335.76 429.98 1244.48 534.29 1192.10 692.73 1357.44 652.52
00001226 00000056 975.16 195.82 518.85 618.79 1114.38 482.54 1343.48 434.60 1254.50 544.26 1197.95 702.15 1362.31 663.02
00001227 00000057 971.49 206.91 519.29 608.59 1113.10 490.65 1343.55 440.59 1255.62 553.63 1197.31 703.99 1362.07 662.92
00001228 00000058 966.86 206.51 517.61 616.84 1106.16 493.21 1338.52 442.12 1250.27 556.28 1188.64 705.97 1360.16 663.60
00001229 00000059 958.38 197.75 519.63 622.85 1095.33 487.09 1332.37 431.58 1243.80 547.55 1179.27 699.62 1364.58 652.59
00001230 00000060 944.59 196.92 525.39 609.48 1084.93 475.00 1316.20 428.61 1233.00 541.45 1164.57 682.50 1343.98 643.50
00001231 00000061 937.08 186.28 519.64 613.39 1070.00 466.45 1295.76 409.18 1218.13 519.12 1157.50 672.05 1337.23 624.14
00001232 DELETE   926.66 180.29 528.08 635.36 1056.76 462.42 1279.08 399.72 1201.72 505.52 1164.13 687.65 1327.49 637.04
00001233 00000063 912.96 174.98 531.15 636.12 1046.41 463.25 1258.18 387.42 1187.08 483.58 1162.36 681.93 1319.27 621.13
00001234 00000064 898.98 172.82 536.50 644.72 1039.50 468.47 1244.49 385.11 1179.22 472.47 1162.68 684.89 1311.70 615.90
00001235 00000065 895.41 172.45 535.30 638.61 1036.31 468.29 1239.22 386.87 1173.86 466.61 1161.07 683.08 1305.30 614.55
00001236 00000066 894.55 175.84 540.23 630.31 1032.17 473.21 1234.65 390.12 1168.60 467.00 1161.01 683.20 1304.10 612.99
00001237 00000067 951.31 292.38 388.47 555.51 1019.21 521.60 1179.46 466.12 1080.18 547.55 1062.94 714.75 1195.68 672.08
00001238 00000068 950.72 296.18 392.33 537.95 1018.50 526.82 1179.03 476.02 1077.71 555.36 1057.38 706.83 1193.41 667.07
00001239 00000069 950.07 289.86 391.14 531.25 1014.87 525.18 1179.33 479.05 1073.21 557.05 1051.54 698.45 1187.52 661.28
00001240 00000070 952.91 287.42 391.04 529.87 1015.26 523.46 1179.16 477.79 1071.27 555.12 1049.74 695.02 1185.48 658.35
00001241 00000071 954.27 280.00 388.33 540.98 1014.12 518.27 1178.95 471.95 1067.60 552.44 1047.75 694.70 1185.40 657.53
00001242 00000072 953.15 273.65 387.35 551.51 1013.16 514.89 1174.76 466.64 1064.03 548.62 1046.68 695.12 1181.36 656.93
00001243 00000073 949.81 277.35 385.97 539.33 1010.19 511.52 1168.90 465.23 1060.95 547.26 1042.99 686.74 1179.00 649.85
00001244 00000074 947.40 276.89 383.18 536.89 1005.50 509.76 1163.01 466.69 1054.06 548.40 1035.09 683.16 1170.65 648.94
00001245 00000075 942.34 276.96 381.76 541.42 1001.30 507.15 1159.11 466.49 1050.59 548.44 1030.53 688.01 1162.10 656.17
00001246 00000076 931.02 281.06 383.15 528.45 991.90 502.48 1155.96 467.60 1044.36 545.74 1017.38 684.64 1151.54 657.09
00001247 00000077 926.97 275.59 383.28 529.38 990.78 505.61 1149.62 470.99 1030.57 540.12 1016.29 684.21 1137.29 656.13
00001248 00000078 918.14 274.18 380.33 539.01 983.10 504.38 1143.75 472.23 1022.23 541.33 1004.97 692.39 1125.63 666.77
00001249 00000079 906.47 275.81 377.70 552.19 971.34 502.14 1134.75 471.40 1015.93 544.21 994.59 699.83 1115.99 675.59
00001250 00000080 900.31 281.59 377.10 541.63 964.74 504.19 1128.55 477.77 1009.15 549.63 984.29 695.78 1108.13 675.13
00001251 00000081 889.80 289.76 379.02 527.20 947.62 506.87 1114.02 478.47 994.06 561.97 968.06 690.34 1102.60 668.90
00001252 00000082 884.96 292.46 379.35 529.64 939.77 511.91 1110.83 488.21 984.32 568.84 955.12 691.07 1105.16 673.52
00001253 00000083 877.57 301.42 382.96 526.60 935.10 513.83 1106.42 495.69 983.26 573.79 950.38 691.78 1103.14 678.48
00001254 00000084 871.97 301.56 383.16 533.03 933.26 514.27 1102.16 500.35 984.92 575.55 948.84 692.81 1098.86 682.86
00001255 00000085 862.63 295.22 385.64 536.48 928.58 509.36 1096.36 500.41 981.47 572.46 944.34 688.13 1088.66 682.14
00001256 00000086 853.70 297.60 383.70 537.18 922.57 503.11 1089.25 496.94 978.05 567.71 938.67 685.20 1077.76 681.60
00001257 00000087 844.75 299.68 379.54 543.94 916.21 499.90 1082.75 489.49 957.19 557.88 927.57 696.14 1061.16 686.09
00001258 00000088 827.70 293.22 384.29 551.76 895.95 500.69 1067.06 479.64 949.40 555.32 914.62 701.93 1053.30 687.29
00001259 00000089 824.54 282.09 387.34 563.34 903.19 489.69 1071.82 477.25 950.68 548.10 916.68 696.63 1046.51 686.24
00001260 00000090 816.58 267.60 389.53 542.88 893.04 486.18 1061.32 480.71 946.54 552.17 903.54 670.81 1039.36 668.25
00001261 00000091 802.03 266.61 392.59 521.37 881.12 479.38 1050.51 477.80 938.43 546.40 892.44 654.44 1033.61 654.30
00001262 00000092 793.32 270.70 395.91 502.44 873.13 475.68 1043.93 480.49 930.99 541.95 879.16 643.03 1025.08 647.84
00001263 00000093 782.54 274.49 395.80 501.76 869.24 474.90 1037.22 483.79 929.27 541.02 872.59 641.26 1016.07 649.41
00001264 00000094 936.02 208.18 520.87 630.07 1078.14 486.74 1303.94 419.87 1236.72 544.03 1171.96 704.42 1353.46 647.81
00001265 00000095 946.97 213.48 520.66 623.47 1089.70 484.64 1315.92 418.55 1246.17 547.94 1183.49 707.80 1360.34 651.71
00001266 00000096 952.16 196.84 533.74 629.61 1097.12 482.49 1321.42 415.22 1252.34 547.96 1196.93 695.70 1377.01 638.82
00001267 00000097 963.86 192.28 528.55 634.81 1103.79 478.14 1325.11 410.39 1256.05 539.25 1205.67 690.76 1384.55 633.95
00001268 00000098 970.13 200.11 524.90 628.97 1110.13 477.70 1331.31 410.44 1264.26 542.41 1214.19 691.86 1389.05 635.70
00001269 00000099 976.62 202.56 520.67 628.85 1121.46 480.88 1336.56 412.70 1277.20 545.66 1228.74 696.42 1394.44 639.65
00001270 00000100 977.52 209.60 520.57 619.91 1124.77 489.54 1332.00 410.90 1279.29 546.66 1229.12 702.65 1397.28 636.66
00001271 00000101 979.83 216.80 520.45 620.66 1124.42 493.00 1327.09 411.20 1275.09 546.65 1230.02 705.71 1396.35 637.65
00001272 00000102 973.47 213.70 533.42 630.41 1116.88 494.90 1317.50 408.22 1264.46 544.00 1226.68 705.51 1396.15 632.95
00001273 DELETE   968.82 197.08 535.02 614.43 1103.64 482.29 1318.33 388.64 1259.63 524.58 1220.35 673.40 1405.13 594.88
00001274 DELETE   959.98 166.17 536.12 620.26 1095.05 470.43 1304.55 363.19 1253.69 505.05 1205.18 652.96 1398.60 562.12
00001275 00000105 954.52 161.78 549.81 600.81 1093.60 468.22 1297.49 354.29 1244.72 490.13 1211.89 637.80 1396.34 540.05
00001276 00000106 944.95 166.30 562.10 604.32 1089.01 473.25 1284.60 346.22 1240.54 478.56 1221.76 642.31 1397.30 533.18
00001277 00000107 936.18 169.56 572.22 602.92 1083.76 484.85 1270.28 343.06 1236.82 477.14 1224.82 644.80 1393.34 523.48
00001278 00000108 927.52 162.98 585.42 601.51 1079.96 492.32 1260.67 340.12 1231.27 479.87 1229.92 643.24 1392.40 512.92
00001279 00000109 920.39 157.84 589.15 596.43 1074.33 491.36 1252.67 328.42 1226.76 480.09 1229.28 640.43 1389.82 501.16
CROP_BBOX: 536 0 1721 1080
