Video ID: 	9ubGDIH1kFQ
H: 	1080
W: 	1920
FPS: 	25.0

FRAME INDEX X0 Y0 W H [Landmarks (5 Points)]

00010473 00000000 755.82 156.37 406.44 589.27 898.80 379.31 1077.31 403.93 1001.72 487.72 890.62 581.63 1046.58 601.87
00010474 DELETE   757.95 155.91 406.95 583.70 902.71 377.90 1082.23 404.56 1004.24 484.45 890.65 577.27 1047.57 599.22
00010475 00000002 761.41 156.66 405.79 577.18 906.89 372.23 1085.97 401.64 1006.35 479.14 890.90 568.64 1049.66 593.14
00010476 00000003 764.89 155.01 404.45 570.30 910.87 365.71 1089.54 398.83 1008.30 474.07 891.87 563.17 1048.52 590.69
00010477 00000004 769.48 151.44 405.71 574.32 912.73 361.46 1090.79 397.45 1007.63 468.02 891.99 558.97 1048.33 588.57
00010478 00000005 772.43 147.85 403.91 574.77 913.93 357.70 1093.14 396.37 1007.50 462.32 892.44 557.23 1047.63 589.17
00010479 00000006 770.31 145.35 405.56 573.46 911.37 355.66 1093.50 395.18 1005.10 461.07 887.91 551.74 1050.32 584.79
00010480 00000007 768.26 146.58 405.14 568.67 908.44 355.54 1091.54 394.72 1001.61 460.29 884.64 550.16 1048.84 583.09
00010481 00000008 764.07 147.99 404.20 565.30 904.41 357.51 1086.66 392.30 999.55 458.83 883.84 550.04 1048.25 579.36
00010482 00000009 761.88 148.71 404.06 566.45 898.91 357.76 1083.88 390.53 995.51 457.00 878.85 551.81 1046.75 579.40
00010483 00000010 761.86 150.64 404.25 568.77 896.80 358.12 1082.00 389.28 993.57 457.87 878.35 552.55 1048.21 578.59
00010484 00000011 759.73 152.30 405.88 571.26 893.59 359.10 1080.87 388.47 991.23 459.74 874.67 552.59 1049.92 577.17
00010485 00000012 758.82 151.01 406.96 576.10 891.65 360.54 1079.74 388.29 990.83 461.90 873.25 554.74 1051.07 577.99
00010486 00000013 758.09 154.29 406.27 573.57 889.77 361.78 1077.81 388.48 989.02 462.77 871.75 555.45 1051.12 577.84
00010487 00000014 757.47 154.16 405.92 574.01 889.90 363.02 1074.79 388.81 988.10 464.89 872.05 555.52 1048.90 577.15
00010488 00000015 755.13 155.77 404.81 572.96 887.70 365.91 1069.82 391.06 985.03 468.92 871.71 558.26 1044.77 579.26
00010489 00000016 748.54 158.55 404.79 567.74 882.31 372.74 1061.65 397.20 977.90 471.84 869.06 560.01 1035.75 580.45
00010490 00000017 741.38 154.82 404.33 568.02 870.36 371.16 1047.73 392.66 962.92 474.51 860.17 562.18 1022.51 580.00
00010491 00000018 728.86 150.07 410.21 576.23 848.79 375.28 1026.54 395.15 935.51 475.52 844.40 566.63 1004.91 582.08
00010492 00000019 717.42 150.16 410.81 580.36 831.40 375.70 1009.32 396.59 914.72 478.49 829.55 571.22 985.11 587.17
00010493 00000020 707.00 153.54 406.59 582.06 810.18 379.47 986.77 395.83 889.09 478.74 809.59 572.49 968.99 585.35
00010494 00000021 699.55 163.14 401.75 577.57 799.14 387.62 974.55 407.23 870.95 488.48 792.40 575.81 955.48 591.30
00010495 DELETE   687.49 160.71 405.64 585.65 779.50 393.01 957.47 411.26 845.28 495.96 776.83 583.37 935.47 598.09
00010496 DELETE   676.16 158.38 400.90 582.76 755.27 400.00 932.35 408.04 812.59 504.08 760.97 590.56 918.14 596.71
00010497 00000024 671.78 158.76 401.21 584.19 739.61 403.87 911.90 409.28 786.19 510.01 748.45 595.45 901.75 599.29
00010498 00000025 668.14 164.43 399.76 586.46 728.76 405.43 894.29 408.59 767.23 511.28 739.54 598.89 889.75 600.66
00010499 00000026 660.94 167.36 399.18 586.92 721.93 405.76 887.11 409.23 761.12 509.36 732.50 602.08 882.11 604.30
00010500 00000027 654.84 168.53 400.30 590.13 716.61 411.01 879.23 416.65 753.62 514.87 728.41 606.63 875.43 610.36
00010501 00000028 652.20 172.08 398.49 585.76 712.33 411.66 873.84 420.72 746.25 516.61 722.16 607.08 868.43 613.57
00010502 00000029 648.72 174.63 399.98 589.37 706.74 413.34 868.20 423.53 737.63 521.07 717.62 610.11 865.63 617.14
00010503 00000030 642.86 172.38 397.39 594.88 695.30 410.39 863.60 421.24 726.18 525.36 707.77 613.34 855.19 622.30
00010504 00000031 639.62 174.01 396.30 595.78 690.21 411.09 855.83 421.83 718.34 529.82 706.32 616.39 850.59 625.17
00010505 00000032 636.90 176.97 395.52 602.44 687.30 411.86 854.59 423.57 715.63 532.25 703.22 618.70 845.40 628.51
00010506 00000033 633.63 175.64 398.42 604.84 681.89 413.87 850.12 425.27 710.75 535.62 697.93 622.10 838.18 631.83
00010507 00000034 630.78 179.90 399.87 602.67 678.10 415.84 848.08 427.66 706.80 537.79 692.95 623.93 837.34 633.99
00010508 00000035 626.04 181.81 402.68 599.47 675.71 414.93 842.83 427.63 701.10 533.74 688.93 622.32 829.17 633.03
00010509 00000036 624.07 184.63 404.12 599.08 673.56 416.14 835.38 428.62 692.46 531.36 685.76 622.38 821.47 632.76
00010510 00000037 621.10 185.24 403.10 598.00 670.45 415.38 830.78 429.30 687.76 531.72 683.27 620.93 815.27 632.34
00010511 00000038 617.90 187.19 402.39 594.97 667.66 416.50 828.07 432.38 685.92 534.00 680.25 620.59 811.96 633.32
00010512 00000039 616.09 188.56 405.45 600.10 666.77 418.78 824.15 434.61 682.54 535.38 679.32 623.35 808.86 636.05
00010513 00000040 615.45 190.29 405.93 599.51 666.29 418.21 822.85 434.00 681.65 536.99 680.15 624.19 809.32 636.84
00010514 00000041 615.31 189.38 407.28 597.88 666.33 420.60 822.22 435.77 682.02 538.67 682.26 624.19 812.17 636.17
00010515 00000042 615.58 190.47 406.87 598.01 667.78 420.00 825.12 435.65 683.99 538.30 682.46 623.82 813.79 636.32
00010516 00000043 617.84 188.90 405.66 597.88 668.75 417.79 828.44 433.80 686.04 536.76 682.80 622.41 815.47 635.24
00010517 00000044 619.26 186.52 405.57 599.51 669.83 417.07 830.21 431.75 687.40 535.19 683.61 623.28 817.30 635.19
00010518 00000045 619.65 185.74 405.31 594.63 670.57 415.56 831.57 429.59 689.53 532.55 682.96 620.79 815.20 632.36
00010519 00000046 619.30 184.28 407.02 591.65 670.51 415.86 831.01 427.75 688.83 529.54 681.68 619.80 813.26 629.64
00010520 00000047 618.88 182.82 405.52 594.97 669.18 415.66 829.27 428.29 686.02 528.88 680.27 620.40 810.59 630.84
00010521 00000048 618.08 180.05 404.62 593.80 667.85 414.60 824.92 426.71 682.33 525.70 678.84 620.78 803.54 630.49
00010522 00000049 615.73 178.96 404.54 599.31 664.95 423.13 823.67 434.32 678.31 523.46 675.56 622.11 800.76 630.99
00010523 00000050 608.86 173.53 404.53 597.78 660.04 420.31 816.36 431.55 670.09 519.71 670.03 617.14 793.42 625.70
00010524 00000051 604.28 171.51 409.06 601.20 656.36 417.85 801.52 429.53 656.18 517.00 667.08 615.16 781.97 624.03
00010525 00000052 602.35 170.41 408.14 601.69 651.22 417.13 790.13 428.16 643.97 516.44 664.59 614.11 775.37 622.34
00010526 00000053 601.30 169.40 404.02 602.77 648.76 413.42 785.08 425.00 639.87 513.02 661.26 613.38 768.04 622.00
00010527 00000054 603.36 167.34 401.21 608.78 649.82 411.12 786.22 421.42 641.44 512.13 664.31 615.96 772.05 623.36
00010528 00000055 605.04 161.64 400.34 612.52 651.52 410.08 787.37 416.47 650.98 513.25 671.00 618.38 780.61 621.87
00010529 00000056 606.72 161.00 400.30 619.54 654.33 409.76 795.45 415.26 656.12 515.56 674.03 619.75 792.36 622.34
00010530 00000057 608.26 170.71 402.88 604.68 659.80 413.25 803.00 422.48 659.23 515.57 676.85 614.57 794.81 620.89
00010531 00000058 610.19 173.53 402.35 597.44 661.40 412.07 808.80 421.73 666.24 517.65 678.34 615.30 797.26 622.03
00010532 00000059 613.72 173.33 401.64 602.36 664.23 413.81 813.95 421.83 669.75 515.84 680.40 618.89 800.00 624.51
00010533 00000060 615.86 173.39 405.41 616.08 665.67 413.07 819.66 421.09 672.39 519.53 681.42 623.97 807.19 629.98
00010534 00000061 618.90 178.73 403.53 614.29 668.34 415.59 824.87 422.95 677.88 522.51 684.98 625.52 814.25 631.17
00010535 00000062 619.69 181.88 403.17 610.68 670.40 415.15 831.84 423.53 684.80 525.24 686.53 625.97 819.89 632.64
00010536 00000063 621.71 180.56 404.67 607.30 671.67 414.15 834.99 421.86 688.72 524.88 687.75 626.17 822.24 632.41
00010537 00000064 622.41 177.60 402.91 602.28 673.04 412.38 837.15 421.29 691.70 524.66 688.45 622.17 824.06 629.30
00010538 00000065 620.96 176.00 403.33 600.72 672.90 412.23 837.22 420.85 693.28 525.37 687.76 621.40 826.25 628.25
00010539 00000066 620.75 179.78 397.56 583.02 670.74 413.40 832.83 422.13 691.83 524.37 685.44 620.45 818.07 626.99
00010540 00000067 617.85 177.77 388.26 583.74 668.54 415.62 826.56 424.23 687.16 523.91 684.18 622.72 806.67 628.82
00010541 00000068 613.89 175.10 384.10 587.34 663.48 413.89 820.45 423.69 679.68 525.49 679.36 623.41 799.67 630.00
00010542 00000069 609.53 172.36 394.97 594.34 657.71 413.40 814.77 425.20 669.55 525.73 675.92 625.39 794.91 633.52
00010543 00000070 606.47 175.06 403.09 593.62 654.66 415.80 807.95 427.25 660.26 523.56 672.16 622.37 787.65 630.10
00010544 00000071 602.79 175.98 408.43 597.31 651.36 416.04 806.62 428.50 656.45 525.59 668.23 623.58 786.09 632.26
00010545 00000072 600.74 176.08 409.64 603.98 652.01 415.10 805.46 428.82 656.98 524.79 666.66 623.18 785.88 633.41
00010546 00000073 600.51 175.69 409.92 609.20 652.84 415.41 804.96 429.44 657.35 523.74 665.59 621.69 787.89 632.50
00010547 00000074 599.64 178.33 415.61 611.01 653.28 416.83 806.09 430.18 658.91 523.28 665.24 621.21 791.04 631.84
00010548 00000075 601.31 177.29 412.49 611.81 656.09 416.10 808.19 430.36 661.33 522.79 665.74 617.89 793.23 629.26
00010549 00000076 603.63 177.58 415.30 611.17 658.42 415.51 812.93 429.07 665.63 523.43 667.39 618.13 797.00 628.96
00010550 00000077 606.19 177.53 414.56 606.60 660.95 414.84 818.72 427.08 671.98 524.28 670.42 617.29 803.15 627.07
00010551 00000078 608.01 177.84 414.28 602.49 663.53 414.61 824.08 425.16 680.45 525.78 673.76 617.97 807.46 626.48
00010552 00000079 608.45 178.14 411.98 597.88 665.90 415.44 828.58 424.65 688.74 528.08 678.63 615.72 815.58 623.13
00010553 00000080 611.13 176.02 407.21 590.70 668.76 412.26 835.20 422.55 696.19 527.67 680.37 611.24 822.13 619.65
00010554 00000081 613.81 174.61 405.32 589.02 670.84 411.11 838.67 420.54 700.51 527.31 683.23 610.97 827.55 618.69
00010555 00000082 615.21 176.32 406.97 593.79 673.21 412.11 839.51 418.15 700.69 522.63 688.15 616.51 826.33 621.70
00010556 00000083 618.24 178.48 398.62 594.26 676.12 410.28 838.58 416.84 699.40 519.50 692.61 621.82 815.04 627.45
00010557 00000084 618.99 175.64 400.55 605.30 674.83 409.73 838.31 416.46 694.09 518.29 689.10 622.08 818.78 627.62
00010558 00000085 617.97 172.18 399.76 605.25 673.72 409.95 836.66 416.53 694.33 518.38 688.05 620.28 817.38 625.64
00010559 00000086 616.76 171.49 402.00 602.41 672.56 410.32 834.97 417.30 692.70 517.50 684.01 616.97 816.47 622.68
00010560 00000087 615.20 168.42 400.99 599.94 672.23 409.16 835.46 416.99 693.59 516.28 682.43 613.89 816.19 620.35
00010561 00000088 616.78 167.51 399.53 602.68 673.21 408.45 835.33 416.00 693.24 515.23 684.00 615.05 815.30 621.21
00010562 00000089 618.86 168.03 398.40 599.63 675.19 407.26 837.15 414.60 695.53 514.66 686.76 614.77 818.13 620.79
00010563 00000090 621.56 168.63 395.48 590.46 678.14 406.12 840.40 412.56 700.91 513.95 691.18 614.32 824.93 619.58
00010564 00000091 624.05 167.91 397.07 595.72 681.94 403.61 846.53 408.04 708.34 513.54 699.53 613.05 838.40 616.55
00010565 00000092 632.75 164.84 393.21 608.94 690.07 400.45 854.61 404.66 717.75 509.14 709.52 609.41 854.63 612.40
00010566 00000093 632.41 169.25 401.56 599.14 697.34 398.59 860.93 403.63 734.64 504.98 713.62 606.26 864.44 608.34
00010567 00000094 638.80 168.88 397.93 593.65 705.40 397.17 870.75 404.85 744.39 502.50 715.22 603.55 865.61 608.60
00010568 00000095 640.71 169.57 400.33 586.55 711.60 396.58 880.89 406.63 757.06 500.82 718.97 602.64 866.75 610.61
00010569 00000096 641.49 167.20 400.52 586.17 716.64 396.45 887.33 406.27 766.21 498.63 722.54 599.54 870.53 607.70
00010570 00000097 643.55 168.59 399.84 580.10 719.51 397.99 890.88 405.17 772.55 498.29 726.81 598.91 875.95 604.89
00010571 00000098 645.86 169.77 399.24 579.72 721.03 400.45 892.15 403.06 777.35 500.09 733.23 601.80 882.83 603.89
00010572 00000099 648.45 170.20 401.06 579.43 723.99 402.31 894.87 402.15 781.21 501.22 738.04 602.86 886.29 602.79
00010573 00000100 649.98 167.82 405.09 578.31 728.37 402.49 900.81 399.34 790.26 500.63 746.48 602.82 892.11 600.32
00010574 00000101 654.21 164.97 408.56 579.83 735.73 402.16 912.35 398.40 803.92 500.42 755.24 600.69 905.82 597.23
00010575 00000102 659.09 160.72 406.72 583.63 744.83 398.97 924.97 399.20 816.64 498.89 760.99 595.53 919.70 594.94
00010576 00000103 665.40 158.50 406.59 593.02 756.45 395.48 940.37 396.92 832.36 495.42 769.62 593.48 935.26 593.67
00010577 00000104 671.64 155.57 406.61 601.95 765.51 394.93 954.85 398.72 845.94 495.45 775.63 595.61 946.30 598.04
00010578 00000105 677.41 156.20 407.85 605.96 774.44 394.09 962.09 402.97 855.63 494.49 781.97 600.67 948.65 607.10
00010579 00000106 679.00 159.30 407.22 602.93 776.16 396.75 963.12 407.06 854.73 497.61 783.99 604.09 945.90 611.94
00010580 00000107 678.37 164.82 408.33 593.45 775.71 398.52 964.04 411.10 852.78 500.70 782.50 604.14 942.85 614.07
00010581 00000108 678.25 168.59 409.27 588.88 774.85 400.66 963.79 413.68 851.82 503.38 781.99 605.35 941.19 615.64
00010582 00000109 680.30 168.13 407.49 591.10 776.82 404.00 964.65 417.68 853.53 509.09 783.68 607.33 941.81 618.14
00010583 00000110 682.15 168.34 407.54 592.55 779.13 405.56 966.32 419.38 856.04 512.94 786.05 609.47 941.27 620.58
00010584 00000111 683.33 171.71 406.87 589.71 780.40 407.17 968.48 420.65 858.29 516.12 788.15 611.03 945.07 621.77
00010585 00000112 683.31 172.21 407.16 588.29 780.30 407.58 969.58 421.56 858.46 516.78 787.59 611.70 945.33 622.84
00010586 00000113 683.99 172.27 406.16 587.09 779.85 407.64 969.87 422.51 857.18 517.22 785.94 612.68 944.00 624.54
00010587 00000114 683.68 173.29 406.06 585.45 778.98 407.05 969.26 421.56 856.72 516.74 785.74 612.94 943.33 624.49
00010588 00000115 683.63 172.99 406.77 585.21 779.04 406.47 969.56 420.96 856.64 515.88 785.80 612.07 943.83 623.48
00010589 00000116 683.79 171.11 406.83 584.80 780.07 405.92 970.47 420.76 858.59 515.02 786.55 610.06 945.53 621.63
00010590 00000117 683.15 170.69 406.90 584.38 780.58 405.74 971.04 420.27 860.80 513.99 787.54 609.24 946.70 620.53
00010591 00000118 683.00 170.61 407.00 583.92 781.15 403.91 971.48 418.20 862.15 512.19 788.49 608.58 947.88 619.69
00010592 00000119 682.17 168.50 407.52 584.00 781.81 403.18 971.21 416.42 863.36 510.05 790.19 607.39 948.78 617.55
00010593 00000120 681.39 168.15 408.30 585.43 780.07 403.77 967.38 413.66 861.91 509.16 792.62 609.13 945.46 616.76
00010594 00000121 680.56 167.25 408.23 588.89 777.83 403.46 965.51 411.18 858.88 508.28 792.86 610.64 945.70 616.54
00010595 00000122 679.78 165.32 407.46 592.75 774.22 403.11 962.80 410.78 853.35 509.44 788.66 610.52 944.76 616.24
00010596 00000123 673.57 164.86 405.84 587.81 766.30 407.88 955.02 411.72 844.64 513.39 784.50 610.46 942.18 613.13
00010597 00000124 670.85 166.14 406.06 587.68 761.27 408.69 947.80 415.14 835.50 516.30 776.10 607.76 934.78 612.67
00010598 00000125 668.04 167.46 408.10 577.94 754.92 407.97 937.75 413.79 823.85 515.88 770.14 604.60 922.89 608.86
00010599 00000126 666.81 168.73 406.27 572.84 748.45 406.71 926.92 407.79 811.77 508.62 763.78 604.78 908.73 605.77
00010600 00000127 665.34 165.89 404.07 576.68 740.88 402.17 914.81 405.14 794.56 506.48 750.45 603.09 892.86 605.97
00010601 00000128 664.37 164.99 400.15 582.75 732.65 399.41 901.15 401.65 776.01 500.55 739.83 604.88 876.75 607.63
00010602 00000129 659.85 164.69 399.16 591.84 727.92 398.21 893.77 400.15 767.97 494.52 734.50 609.96 867.53 612.76
00010603 00000130 654.20 164.71 400.03 590.35 723.17 396.04 890.12 400.90 764.11 494.24 729.87 608.22 865.16 613.08
00010604 00000131 650.93 163.13 400.29 588.30 717.88 393.98 887.70 403.43 757.77 492.19 718.81 604.95 859.95 613.34
00010605 00000132 648.54 164.08 397.06 580.86 713.54 393.38 884.55 404.13 752.85 489.89 712.74 602.20 853.86 611.79
00010606 00000133 646.70 164.77 397.64 579.20 712.51 392.11 883.71 403.07 753.00 488.72 712.20 600.42 853.92 610.10
00010607 00000134 645.60 165.57 397.00 580.48 714.12 394.01 884.29 404.28 757.56 490.24 716.81 602.28 854.40 611.83
00010608 00000135 644.87 164.21 400.34 587.59 715.39 396.97 885.98 404.96 761.66 492.74 720.13 606.75 859.81 614.06
00010609 00000136 643.21 167.69 402.21 583.50 715.11 397.45 888.99 406.13 764.91 496.73 719.43 603.47 868.93 610.70
00010610 00000137 640.78 170.45 403.66 584.04 713.52 400.72 888.72 407.18 765.72 499.68 721.88 607.41 871.63 612.75
00010611 00000138 638.53 173.23 402.55 592.41 711.82 402.81 884.55 407.52 761.92 502.58 722.45 613.99 866.65 618.23
00010612 00000139 635.60 178.64 402.37 592.80 705.89 408.23 877.07 411.31 752.66 508.93 720.53 617.68 867.05 620.14
00010613 00000140 635.03 174.01 397.34 598.69 696.68 408.44 871.47 411.25 735.48 516.61 709.50 618.36 857.54 621.29
00010614 00000141 629.61 178.29 395.32 592.47 686.73 413.19 856.51 417.39 721.60 524.02 702.28 618.87 846.39 622.60
00010615 00000142 621.06 182.80 398.30 584.87 674.35 417.04 844.35 425.11 706.97 529.51 687.80 617.79 835.51 624.44
00010616 00000143 613.97 186.17 405.85 587.14 667.06 423.15 828.19 437.81 688.66 536.12 676.91 615.80 817.05 627.42
00010617 00000144 603.98 193.74 407.87 589.57 656.42 429.37 807.88 441.85 668.67 539.68 672.32 619.68 809.72 629.10
00010618 00000145 599.46 190.02 405.84 595.43 648.58 424.24 794.19 438.17 657.79 543.19 671.14 624.23 804.55 632.97
00010619 00000146 595.44 195.37 406.66 592.03 643.97 427.13 784.76 443.33 647.65 546.59 669.26 624.08 800.11 634.10
00010620 00000147 593.21 195.87 405.11 593.81 639.00 428.72 777.73 444.51 641.15 549.82 668.21 624.49 797.48 634.03
00010621 00000148 590.70 195.99 405.53 598.12 636.02 430.71 774.00 444.95 637.00 551.87 669.57 625.55 799.12 633.62
00010622 00000149 589.63 194.01 405.61 598.83 634.31 429.39 772.34 443.68 634.56 552.17 668.53 624.79 797.72 632.95
00010623 00000150 590.65 192.04 401.00 595.31 633.95 427.65 773.53 443.03 635.63 549.63 664.04 625.10 790.49 634.98
00010624 00000151 591.94 193.07 398.51 592.07 634.79 426.69 775.92 444.48 637.96 550.05 660.53 623.34 787.66 635.59
00010625 00000152 593.43 189.84 402.49 594.28 635.77 425.53 777.87 443.44 639.96 548.33 658.79 623.74 784.40 636.30
00010626 00000153 594.35 190.67 402.30 595.44 636.76 425.74 779.35 441.55 641.23 546.98 660.54 626.58 784.47 637.45
00010627 00000154 593.90 188.66 405.84 601.68 637.89 426.54 779.76 440.65 643.01 546.89 663.36 630.62 784.85 640.22
00010628 00000155 594.76 186.19 403.37 601.74 639.32 425.15 782.01 439.04 645.84 547.13 666.99 630.68 788.14 639.92
00010629 00000156 594.14 195.20 408.19 596.32 644.22 424.67 787.50 438.52 651.81 546.43 671.24 631.96 795.42 640.79
00010630 00000157 595.63 197.48 412.80 606.08 651.04 428.62 797.79 436.64 663.85 546.71 679.18 635.98 813.10 639.78
00010631 00000158 599.75 205.77 413.60 598.34 657.23 432.87 813.93 441.71 677.04 547.58 681.86 632.73 823.23 638.56
00010632 00000159 610.32 207.29 407.47 589.80 667.45 432.09 832.41 440.38 697.86 547.69 689.42 631.62 838.58 637.72
00010633 00000160 618.30 204.95 404.91 586.06 678.31 429.50 850.03 436.68 720.95 551.86 698.58 630.52 853.15 636.23
00010634 00000161 629.15 205.12 400.31 584.43 693.30 429.27 866.65 438.12 738.96 556.65 711.30 631.09 864.36 638.54
00010635 00000162 633.23 201.89 403.78 587.28 702.73 430.72 879.80 437.83 759.59 552.10 722.15 628.36 877.46 634.26
00010636 00000163 634.73 200.65 407.39 585.69 706.08 429.88 886.06 434.92 768.03 550.45 727.00 630.44 881.27 634.68
00010637 00000164 637.78 196.30 403.17 586.17 704.72 429.31 883.15 435.63 763.22 550.99 722.39 632.63 876.03 638.15
00010638 00000165 637.43 196.85 396.72 587.19 700.23 429.97 873.36 440.08 748.93 554.44 713.97 632.79 866.73 641.30
00010639 00000166 635.56 200.10 397.41 588.68 695.88 437.27 865.50 450.84 735.84 553.94 705.81 635.76 852.05 647.13
00010640 DELETE   632.95 204.89 399.23 593.19 692.74 431.73 861.73 445.18 728.11 549.82 707.13 635.27 849.43 646.40
00010641 00000168 632.31 203.92 400.27 593.68 692.21 429.32 860.72 442.60 728.99 551.77 708.06 632.52 853.93 643.43
00010642 00000169 637.08 200.28 396.19 584.35 698.72 424.30 870.54 436.95 740.64 551.88 713.92 627.68 865.30 638.17
00010643 00000170 639.79 195.19 397.77 584.05 705.57 421.94 881.27 434.13 756.35 548.14 722.38 622.36 877.28 632.20
