Video ID: 	KdoFbo9v8PY
H: 	1080
W: 	1920
FPS: 	23.976023976023978

FRAME INDEX X0 Y0 W H [Landmarks (5 Points)]

00001361 00000000 652.61 177.51 433.09 637.44 753.80 422.50 946.79 401.07 861.37 538.39 812.96 664.73 946.16 648.25
00001362 00000001 654.80 175.87 432.47 638.79 754.84 419.55 947.67 397.71 862.30 538.34 814.75 664.82 947.13 648.06
00001363 00000002 657.06 175.08 431.63 637.92 756.81 417.62 949.33 396.26 863.72 538.53 817.68 664.04 948.45 647.59
00001364 00000003 660.75 175.26 431.73 641.61 758.05 418.18 952.51 395.87 864.78 541.08 819.79 668.49 956.21 650.96
00001365 00000004 663.63 179.69 437.56 647.26 762.11 422.98 955.85 393.82 869.51 542.70 826.03 670.07 977.17 646.20
00001366 00000005 666.67 178.86 440.30 649.39 763.33 426.77 958.68 396.89 870.78 548.51 824.08 668.03 988.00 642.86
00001367 00000006 669.11 185.91 438.81 638.09 764.98 430.68 961.73 404.46 871.69 556.89 821.88 668.93 986.73 646.89
00001368 00000007 671.22 186.26 436.58 632.55 767.17 432.22 964.08 407.50 874.08 559.77 822.57 667.21 987.32 646.31
00001369 00000008 671.85 186.67 437.26 630.92 769.39 433.08 966.87 408.54 877.56 560.43 823.49 666.41 988.87 645.69
00001370 00000009 673.43 187.46 436.06 627.55 771.18 432.85 968.85 409.86 878.46 560.70 825.71 667.87 985.52 648.81
00001371 00000010 675.57 189.46 432.92 624.63 775.13 431.41 969.78 410.47 880.33 559.53 831.67 671.51 980.41 654.45
00001372 00000011 676.61 188.30 436.10 628.63 775.60 435.10 973.20 412.17 883.33 560.53 830.16 669.38 989.98 650.09
00001373 DELETE   677.20 187.69 435.93 624.95 776.08 446.84 974.88 420.10 882.79 558.50 828.50 666.43 994.65 643.60
00001374 DELETE   678.91 186.96 433.71 619.22 779.50 444.61 976.41 419.40 885.66 557.06 830.81 665.35 991.99 644.27
00001375 00000014 678.94 186.39 431.86 626.12 777.32 433.33 973.11 408.17 883.88 553.65 831.67 666.21 989.95 644.86
00001376 00000015 678.34 187.04 430.06 641.29 777.10 429.04 968.68 403.64 883.51 552.49 836.94 675.37 986.27 654.03
00001377 00000016 677.56 188.76 429.92 645.42 778.09 427.00 966.85 403.50 883.39 551.35 842.33 682.42 979.80 662.99
00001378 00000017 674.71 187.10 429.32 646.32 775.98 426.78 964.37 404.19 881.07 549.36 840.96 682.79 974.83 664.31
00001379 00000018 672.71 184.05 432.71 646.21 773.37 427.50 963.04 404.61 879.09 550.31 835.66 677.55 975.85 658.93
00001380 00000019 673.26 182.94 434.77 648.40 772.91 426.92 964.19 399.25 881.02 549.48 834.16 672.88 987.28 649.68
00001381 00000020 672.81 182.49 434.79 650.98 772.30 427.31 963.96 398.38 879.75 548.35 832.53 672.30 990.15 647.82
00001382 00000021 671.83 183.65 434.60 653.54 771.86 426.01 962.35 397.74 878.24 546.73 834.16 676.23 985.90 652.57
00001383 00000022 672.64 185.33 432.29 667.00 770.79 429.48 963.71 402.45 874.50 545.09 835.32 687.14 979.65 662.66
00001384 00000023 672.20 183.22 432.11 676.69 773.81 437.32 961.60 409.39 874.42 541.76 836.51 691.66 976.15 666.75
00001385 00000024 669.58 182.57 435.74 677.13 771.27 433.20 963.39 405.76 874.18 542.27 835.71 691.07 975.29 666.82
00001386 00000025 669.73 185.50 436.13 663.46 771.27 429.70 962.81 403.89 878.32 546.96 835.80 685.35 978.65 664.20
00001387 00000026 669.66 181.80 437.29 647.14 769.56 429.13 962.87 403.40 877.29 548.48 831.44 673.81 979.36 652.67
00001388 00000027 669.36 181.34 439.05 642.82 768.13 428.48 962.89 401.75 876.60 550.42 828.93 670.90 981.54 649.01
00001389 00000028 667.69 180.78 442.21 640.20 764.98 429.57 963.94 401.47 875.03 552.75 823.55 666.01 988.24 642.65
00001390 00000029 668.04 182.36 442.08 637.01 765.14 430.19 963.64 401.91 874.96 553.68 822.16 663.05 991.42 639.34
00001391 00000030 668.62 182.75 442.11 638.42 765.02 430.23 963.04 401.23 874.11 553.33 822.29 664.07 993.25 639.47
00001392 00000031 667.39 185.09 442.97 638.29 764.48 431.42 961.11 401.46 873.35 554.64 822.82 663.50 995.07 638.01
00001393 00000032 666.62 184.88 442.98 643.67 764.26 431.39 959.16 401.83 871.66 553.71 820.34 663.32 995.57 638.14
00001394 00000033 666.07 185.34 442.89 650.89 764.33 429.36 958.98 398.68 871.55 549.98 819.12 662.57 999.19 636.28
00001395 00000034 669.83 187.25 437.96 664.87 767.07 431.71 961.10 400.14 872.17 546.62 819.60 665.70 1000.91 636.66
00001396 00000035 666.53 185.28 441.50 680.48 767.02 429.64 959.88 396.73 867.87 544.93 818.79 670.98 1002.16 640.62
00001397 00000036 664.17 184.86 443.28 691.35 765.59 428.51 957.22 394.97 863.27 544.49 818.81 676.77 1001.42 645.64
00001398 00000037 661.97 184.71 445.88 695.04 764.95 427.66 957.80 393.68 863.95 544.91 819.11 678.07 1002.79 646.45
00001399 00000038 665.21 186.25 443.59 680.57 764.82 430.85 958.95 397.21 865.89 546.40 819.06 673.56 1003.48 642.53
00001400 00000039 666.44 181.24 443.68 650.17 765.46 429.96 959.92 399.23 873.06 551.16 819.53 659.96 1000.71 633.50
00001401 00000040 668.62 183.26 442.63 632.93 765.21 431.49 960.42 402.50 872.41 553.64 819.39 655.76 996.65 631.00
00001402 00000041 671.85 183.47 438.88 630.79 766.79 431.27 963.13 403.87 873.50 556.73 821.65 660.96 991.57 637.63
00001403 00000042 672.16 182.95 438.54 632.44 768.60 429.86 964.65 403.28 875.52 556.83 825.51 663.92 989.51 641.40
00001404 00000043 671.79 183.24 437.65 634.29 768.75 429.31 964.18 404.02 875.04 556.48 825.59 666.64 984.54 645.57
00001405 00000044 671.68 182.29 438.04 636.82 769.00 428.90 963.99 403.52 875.36 556.23 826.74 667.42 984.47 646.27
00001406 00000045 672.19 181.91 438.37 638.71 770.13 427.58 964.03 401.76 876.04 554.03 828.03 667.07 985.73 645.36
00001407 00000046 673.27 181.32 437.48 639.79 770.90 426.84 965.45 398.59 878.23 553.87 832.03 668.69 989.47 644.64
00001408 00000047 673.93 180.91 440.03 639.07 769.73 427.81 965.77 397.27 876.93 551.88 829.24 663.90 998.73 637.28
00001409 00000048 672.53 180.15 440.27 638.62 768.90 427.22 965.08 395.92 876.08 546.75 823.63 655.11 1002.88 627.70
00001410 00000049 670.22 178.39 443.50 651.76 769.30 425.24 965.32 392.03 877.53 542.69 822.18 653.42 1009.44 624.16
00001411 00000050 674.27 186.40 438.47 659.02 773.22 439.48 968.25 402.96 880.54 540.75 822.48 656.08 1013.54 622.58
00001412 00000051 672.07 180.74 441.43 672.07 773.81 438.26 968.16 401.79 879.82 538.26 822.34 657.54 1013.08 623.90
00001413 00000052 671.27 178.56 441.45 676.57 772.89 431.64 968.66 395.22 878.77 534.92 821.14 656.07 1012.78 622.36
00001414 00000053 670.70 177.30 442.75 671.03 770.39 425.59 966.90 388.70 878.79 533.30 822.55 651.94 1012.48 617.77
00001415 00000054 672.06 177.98 442.53 655.90 768.65 423.34 966.49 384.44 880.15 530.48 822.72 646.22 1014.18 610.31
00001416 00000055 668.56 165.03 448.30 653.87 769.13 412.15 965.87 378.81 877.80 528.89 818.95 639.34 1012.08 609.86
00001417 00000056 669.97 162.39 445.85 647.02 769.82 410.63 966.91 378.22 877.74 526.64 817.14 634.38 1009.26 606.23
00001418 00000057 670.64 158.02 444.38 646.13 770.86 409.15 968.06 376.86 879.45 524.84 816.88 631.19 1007.76 603.30
00001419 00000058 671.51 156.65 443.35 643.43 771.85 407.73 969.62 376.50 880.95 524.14 817.20 628.17 1007.63 601.31
00001420 00000059 671.97 155.69 442.65 642.86 771.58 407.09 969.30 375.80 880.71 524.07 818.71 629.85 1005.98 602.95
00001421 00000060 672.02 156.28 442.48 639.98 771.53 407.76 969.50 377.12 881.44 524.50 819.33 631.11 1004.19 604.96
00001422 00000061 671.63 157.16 442.75 637.13 771.24 409.71 969.14 378.60 881.42 525.70 819.15 630.56 1005.04 604.19
00001423 00000062 670.09 156.95 444.41 638.40 770.32 410.22 968.54 379.63 880.58 526.30 818.12 631.05 1004.01 605.15
00001424 00000063 668.22 155.70 445.70 641.37 769.43 409.81 967.64 379.98 880.18 527.18 817.23 631.57 1003.13 606.30
00001425 00000064 667.57 156.84 446.95 641.50 768.94 410.71 968.32 380.45 880.36 528.11 816.89 632.72 1003.67 607.12
00001426 00000065 666.34 160.31 448.58 640.03 768.03 412.29 969.14 382.43 879.90 530.21 816.01 635.13 1003.44 609.57
00001427 00000066 664.79 163.19 450.93 641.41 766.10 415.41 967.79 384.41 878.17 534.48 815.95 639.08 1004.33 612.39
00001428 00000067 664.23 168.21 449.45 640.27 764.94 420.22 964.97 390.37 876.45 541.00 815.03 643.41 1002.36 617.62
00001429 00000068 662.47 171.16 451.48 643.31 763.71 424.07 965.05 394.23 876.45 547.27 814.45 648.50 1002.35 622.89
00001430 00000069 660.41 175.92 452.59 655.68 762.17 427.42 962.69 395.86 875.67 551.83 815.91 658.22 1004.20 631.19
00001431 00000070 661.80 184.44 449.76 670.52 765.02 433.53 966.77 401.08 879.84 553.05 817.53 667.46 1007.68 637.52
00001432 00000071 658.17 183.61 454.97 680.71 764.08 435.43 964.12 403.79 877.54 556.83 817.62 672.53 1007.15 643.35
00001433 00000072 658.54 187.34 455.25 679.12 764.08 437.84 963.54 408.01 877.00 561.46 817.19 676.67 1005.32 649.17
00001434 00000073 658.67 188.85 456.26 676.73 763.46 441.05 965.05 412.66 876.94 566.70 816.53 680.30 1004.21 654.31
00001435 00000074 659.00 191.45 458.17 670.44 763.72 445.45 967.10 418.48 879.58 574.34 816.72 681.77 1004.42 657.20
00001436 00000075 658.45 192.16 459.85 670.00 764.13 447.68 969.38 421.73 880.85 581.02 817.94 685.72 1003.59 662.01
00001437 00000076 659.33 194.81 460.40 669.62 765.00 450.31 972.08 425.49 882.41 587.72 818.37 691.42 1002.11 668.90
00001438 00000077 659.64 199.81 460.84 668.27 766.22 454.35 972.77 428.96 883.16 593.04 819.39 695.36 1001.52 672.72
00001439 00000078 660.79 201.35 460.88 668.74 767.34 456.46 973.77 431.02 883.02 595.58 821.34 699.56 999.95 676.99
00001440 00000079 662.58 201.22 459.29 666.56 766.21 455.95 976.43 430.68 882.84 596.66 823.51 705.52 995.74 683.30
00001441 00000080 663.16 199.37 458.16 665.88 763.75 456.71 977.87 428.67 883.79 596.57 826.67 709.30 997.28 685.18
00001442 00000081 663.86 197.37 456.34 667.66 764.85 455.27 978.74 427.12 885.79 595.05 828.41 709.50 996.85 685.40
00001443 00000082 664.37 194.92 454.34 669.78 764.29 452.68 977.05 424.32 884.57 592.38 828.73 708.60 995.92 684.15
00001444 00000083 664.68 195.28 454.12 666.94 763.61 450.94 975.99 422.11 883.63 589.13 829.58 706.24 996.69 681.24
00001445 00000084 665.66 193.91 453.24 666.75 764.21 449.63 975.42 421.66 882.73 586.63 829.28 704.43 996.09 680.03
00001446 00000085 665.31 193.46 453.28 665.24 764.57 448.78 974.14 421.63 882.50 586.20 829.84 702.45 994.33 678.83
00001447 00000086 664.30 192.37 454.88 665.32 763.97 448.62 972.94 422.37 881.58 586.32 828.46 700.45 993.85 677.43
00001448 00000087 662.45 194.85 456.57 660.32 761.65 449.02 972.02 422.85 880.80 587.69 827.17 699.60 992.85 676.65
00001449 00000088 660.57 197.37 459.01 656.99 759.44 451.03 970.83 424.63 878.92 589.08 824.77 699.46 992.28 676.24
00001450 00000089 658.96 198.87 461.18 654.23 757.31 452.34 969.45 425.46 877.36 589.81 823.03 698.71 992.19 675.05
00001451 00000090 658.27 201.54 463.23 650.64 756.01 453.43 968.75 426.45 875.75 590.52 821.21 698.19 991.98 674.36
00001452 00000091 655.63 205.24 467.10 649.71 759.44 455.85 968.42 427.64 874.96 592.15 824.54 697.38 993.83 673.52
00001453 00000092 655.48 205.20 466.64 648.85 759.64 456.59 968.77 427.89 875.61 592.47 824.91 696.97 994.70 672.71
00001454 00000093 656.74 208.11 465.29 646.32 760.68 456.95 970.44 427.76 877.15 593.05 825.76 697.44 996.34 672.75
00001455 00000094 657.35 207.05 463.71 647.53 761.43 456.72 970.46 427.44 877.46 592.92 826.35 697.01 996.96 672.15
00001456 00000095 658.11 207.06 462.16 646.50 762.30 457.14 971.27 427.56 878.71 593.25 826.06 695.71 998.06 670.52
00001457 00000096 658.15 206.69 461.85 644.18 762.13 457.08 971.28 428.03 878.43 593.72 824.88 694.31 997.16 669.67
00001458 00000097 658.21 206.41 462.06 645.02 762.49 457.57 971.66 428.19 878.76 593.94 825.19 694.09 998.42 669.07
00001459 00000098 658.51 206.66 461.96 644.20 762.36 457.93 971.58 428.38 878.37 594.00 824.76 693.65 998.55 668.46
00001460 00000099 658.67 206.38 461.47 643.89 762.49 458.34 971.84 429.13 878.71 594.65 824.54 693.32 998.90 668.35
00001461 00000100 658.56 205.53 461.93 644.11 762.65 458.21 971.69 429.10 878.54 594.30 824.29 692.28 998.87 667.40
00001462 00000101 659.18 204.68 460.99 645.33 763.30 458.80 971.86 429.67 878.87 594.51 824.72 692.41 999.38 667.44
00001463 00000102 659.65 203.88 460.31 646.14 763.43 458.93 971.56 429.85 878.81 595.25 824.96 692.80 999.40 667.89
00001464 00000103 659.76 204.72 460.39 645.46 763.58 458.95 972.22 429.78 879.32 595.18 824.84 692.82 999.78 667.80
00001465 00000104 659.46 204.55 460.70 645.50 763.31 458.67 972.28 429.54 878.99 594.96 824.82 692.83 999.71 667.87
00001466 00000105 659.27 205.40 461.10 643.94 762.99 458.42 971.50 429.58 878.12 594.90 825.02 692.76 998.66 668.05
00001467 00000106 658.51 204.65 461.52 644.01 762.42 457.98 970.89 429.47 877.78 594.72 824.74 692.63 997.73 668.27
00001468 00000107 658.66 204.08 460.66 643.90 762.49 457.88 970.74 429.03 877.99 593.69 825.05 692.22 997.69 667.57
00001469 00000108 658.75 204.59 460.94 643.38 762.76 457.63 970.85 428.71 878.27 593.38 825.82 692.12 997.94 667.38
00001470 00000109 658.30 205.26 461.35 641.38 762.64 457.54 970.43 428.49 878.37 593.23 826.46 691.94 997.67 667.11
00001471 00000110 658.02 205.42 461.75 641.23 762.34 457.26 969.81 428.64 877.84 593.14 826.07 691.69 996.81 667.28
00001472 00000111 658.21 203.73 461.05 642.78 761.92 458.40 969.16 429.62 877.22 593.16 826.02 691.20 996.98 666.74
00001473 00000112 659.02 205.04 459.46 643.26 763.87 468.89 970.95 440.95 876.71 593.91 823.35 693.32 996.12 669.43
00001474 00000113 658.16 203.42 460.04 648.95 762.40 466.86 969.62 439.26 875.73 594.12 824.70 697.38 994.44 674.02
00001475 00000114 659.10 202.13 459.22 656.56 762.10 460.42 966.86 432.27 875.28 591.86 827.28 700.49 993.82 676.69
00001476 00000115 658.47 197.53 457.60 662.33 760.86 457.13 964.42 429.08 874.10 588.84 826.70 701.49 990.80 677.86
00001477 00000116 657.16 198.46 458.74 663.79 759.05 454.40 964.35 426.06 873.16 586.87 826.11 702.37 990.44 678.48
00001478 00000117 657.30 198.09 457.17 660.30 758.52 452.51 963.52 425.03 871.86 585.83 824.77 700.03 988.73 676.89
00001479 00000118 657.47 194.80 456.23 657.72 758.24 450.53 962.91 423.01 871.26 584.20 823.30 695.75 988.28 672.72
00001480 00000119 657.20 191.82 456.25 658.30 758.06 448.32 962.52 420.95 870.61 581.72 821.84 692.44 988.21 669.55
00001481 00000120 657.04 190.22 455.66 658.57 757.02 446.78 962.24 419.19 869.35 580.07 819.72 690.04 989.17 666.85
00001482 00000121 657.52 190.04 455.35 657.96 756.62 447.25 962.81 419.40 869.54 580.21 818.65 689.25 991.20 665.76
00001483 00000122 657.54 190.75 456.37 658.29 756.87 446.92 963.72 418.88 870.40 580.19 818.65 688.57 993.50 664.86
00001484 00000123 657.84 191.59 455.57 657.58 757.10 447.65 963.46 419.25 870.53 580.51 819.24 689.05 993.31 665.09
00001485 00000124 658.98 191.88 453.78 660.47 758.96 449.84 963.57 423.09 872.34 583.83 824.47 696.99 986.16 674.76
00001486 00000125 659.44 194.99 453.40 669.82 759.68 456.48 964.88 430.98 873.59 591.00 824.93 707.86 983.73 686.72
00001487 00000126 658.12 201.50 456.17 666.29 760.68 461.74 968.82 436.71 876.33 598.70 823.17 708.34 987.38 687.47
00001488 00000127 657.54 204.09 454.87 657.89 754.18 470.14 965.68 441.03 872.89 599.32 815.21 710.04 984.85 685.55
00001489 00000128 656.98 198.31 454.44 668.78 755.83 464.37 965.87 437.24 873.13 594.79 816.70 710.11 980.70 687.46
00001490 00000129 658.54 189.01 447.47 678.85 759.80 456.17 963.02 430.14 873.23 584.84 822.65 708.20 976.41 686.34
00001491 00000130 660.39 187.80 450.28 677.87 763.76 449.62 965.75 426.62 875.26 580.74 825.71 703.36 981.59 684.90
00001492 00000131 660.75 182.56 450.78 671.62 761.23 445.60 964.17 419.93 873.76 578.07 825.06 696.48 986.09 675.33
00001493 00000132 661.46 183.22 449.33 662.12 761.37 443.77 964.48 417.70 874.18 576.62 824.46 692.65 986.48 671.13
00001494 00000133 662.25 184.12 449.48 660.59 761.88 443.92 964.20 417.91 874.24 577.61 826.33 692.64 986.11 671.23
00001495 00000134 661.31 187.62 452.47 664.80 762.42 444.98 963.87 417.79 874.31 577.58 828.69 694.54 989.38 671.86
00001496 00000135 661.21 188.95 454.18 668.40 763.12 446.01 963.49 418.22 874.09 577.14 828.83 694.29 992.99 670.83
00001497 00000136 661.23 188.67 454.44 671.06 763.30 446.08 963.45 417.99 874.58 576.94 828.93 694.50 994.02 670.72
00001498 00000137 660.74 187.79 454.78 669.94 763.11 445.52 963.45 417.55 874.66 576.86 828.66 692.79 994.56 669.07
00001499 00000138 660.55 186.32 454.55 661.24 762.19 445.02 963.05 417.36 873.95 577.23 827.51 688.71 992.78 665.35
00001500 00000139 660.45 185.83 453.79 656.81 761.93 444.85 963.59 417.85 873.87 576.94 824.33 685.43 992.18 662.71
00001501 00000140 660.50 184.53 453.63 656.98 761.82 445.56 964.64 417.94 874.51 577.12 822.28 683.73 994.56 660.41
00001502 00000141 661.19 184.34 453.48 655.94 762.22 446.16 965.09 418.09 874.57 577.11 822.62 682.86 995.89 659.02
00001503 00000142 660.82 186.06 453.42 653.50 761.49 446.13 965.24 418.62 874.22 577.81 821.16 682.68 995.01 659.37
00001504 00000143 660.08 186.63 454.03 652.03 759.40 445.07 963.87 417.95 870.89 577.63 818.64 681.94 993.81 658.95
00001505 00000144 658.37 186.99 452.78 646.24 754.45 443.72 960.54 419.91 863.47 577.00 808.96 677.63 985.42 657.64
00001506 00000145 655.51 185.99 451.62 645.96 746.57 441.65 955.84 423.71 850.39 577.02 791.36 673.72 972.14 658.83
00001507 00000146 646.41 184.27 460.65 642.95 729.45 442.69 941.25 428.93 823.94 578.01 773.65 667.15 954.44 654.61
00001508 00000147 645.12 183.72 456.81 640.17 723.74 442.03 934.32 430.76 811.85 579.54 762.77 663.40 945.65 653.41
00001509 00000148 645.26 185.71 454.40 638.00 719.69 441.22 930.18 431.19 804.08 576.58 754.42 660.07 940.01 651.33
00001510 DELETE   645.64 187.25 454.76 637.30 723.98 447.74 932.81 439.22 809.85 577.37 756.01 657.62 946.41 649.60
00001511 DELETE   649.29 184.63 455.59 640.01 730.23 443.17 942.15 432.30 822.53 575.69 764.42 658.04 957.65 648.15
00001512 00000151 662.23 183.12 442.43 637.65 750.79 437.06 956.41 426.00 848.25 569.89 784.69 659.73 969.13 650.19
00001513 00000152 667.64 180.87 442.49 639.12 759.12 435.43 963.24 418.30 860.98 566.35 802.59 664.18 980.67 649.43
00001514 00000153 669.20 179.30 443.14 646.78 764.16 432.45 965.10 412.53 866.24 561.56 809.03 665.21 985.21 648.19
00001515 00000154 667.70 178.01 443.95 658.74 763.50 428.18 963.04 408.11 864.16 558.23 809.04 668.18 983.30 650.96
00001516 00000155 666.11 185.98 443.70 663.23 758.37 427.56 965.12 408.09 865.50 556.60 809.11 673.78 984.82 655.54
00001517 00000156 662.48 178.03 446.57 656.02 755.17 425.64 957.70 408.70 855.82 558.47 798.06 664.62 973.55 650.61
00001518 00000157 661.34 176.48 447.20 650.65 752.58 424.77 957.18 409.71 853.18 560.08 793.26 660.33 969.59 647.89
00001519 00000158 660.71 174.56 446.58 647.52 751.40 423.21 958.90 408.33 854.36 559.35 791.69 657.84 969.28 645.60
00001520 00000159 661.61 172.80 447.08 648.61 752.35 420.96 959.92 404.54 856.61 556.17 794.86 658.67 970.87 645.26
00001521 00000160 662.65 172.44 445.80 651.41 755.53 421.07 961.44 401.32 861.35 554.56 805.66 663.74 974.81 647.60
00001522 00000161 664.57 172.41 445.38 652.32 759.27 421.02 964.17 399.70 865.53 553.92 810.56 664.56 979.59 646.91
00001523 00000162 665.49 168.96 445.07 656.62 762.47 422.01 965.77 400.75 868.83 553.37 811.30 663.09 982.78 645.31
00001524 00000163 665.73 169.46 444.81 654.26 762.97 423.21 966.36 402.46 870.26 555.19 811.31 662.59 983.27 645.28
00001525 00000164 665.66 171.60 443.33 650.91 761.26 423.91 964.94 402.84 868.85 557.46 811.66 664.63 980.96 647.15
00001526 00000165 663.31 170.66 444.26 649.85 758.35 427.64 963.01 407.20 866.66 560.13 808.82 665.51 978.06 648.74
00001527 DELETE   665.84 171.94 441.38 646.48 756.79 437.83 961.33 416.64 862.67 560.18 801.93 664.82 976.60 647.05
00001528 DELETE   662.57 170.04 442.33 659.20 755.32 433.80 960.88 414.04 862.07 559.17 800.68 669.73 971.77 653.62
00001529 00000168 660.09 168.82 446.17 671.42 757.63 427.22 962.08 408.19 865.05 557.19 807.13 674.39 971.78 659.35
00001530 00000169 661.00 168.53 445.89 670.28 760.37 425.66 960.65 404.24 867.89 554.87 814.08 673.92 974.17 656.77
00001531 00000170 663.37 169.61 445.92 667.57 761.90 425.15 961.60 402.37 868.82 554.44 816.24 672.32 979.23 653.72
