Video ID: 	jhtSKCCTNF8
H: 	1080
W: 	1920
FPS: 	23.976023976023978

FRAME INDEX X0 Y0 W H [Landmarks (5 Points)]

00003957 00000000 607.56 109.86 485.25 760.54 671.62 381.92 871.34 370.33 730.82 548.71 708.51 650.14 909.07 639.05
00003958 00000001 615.45 111.44 483.93 750.76 690.11 386.64 900.66 376.72 758.11 553.70 718.86 651.92 927.62 641.53
00003959 DELETE   638.54 117.56 480.02 736.85 718.83 391.04 927.26 384.12 792.25 556.25 746.07 650.53 943.89 644.45
00003960 DELETE   662.82 104.97 478.18 745.29 749.52 390.35 962.60 383.26 835.10 550.60 780.53 651.13 975.50 644.40
00003961 DELETE   690.53 111.16 466.41 728.55 793.04 389.01 999.38 380.20 888.93 536.09 828.48 650.00 1007.56 640.44
00003962 00000005 705.88 89.56 476.51 750.69 814.62 373.46 1027.13 365.53 911.49 531.44 847.71 638.88 1034.78 631.79
00003963 00000006 725.32 86.14 469.50 749.96 836.80 365.53 1046.40 358.28 936.78 521.21 871.15 635.34 1053.58 628.16
00003964 00000007 738.98 90.51 465.82 758.15 846.97 359.42 1054.53 356.91 941.21 516.57 874.80 636.38 1059.54 632.73
00003965 00000008 749.64 91.69 466.27 769.94 848.40 365.23 1054.93 363.04 937.24 528.50 873.51 643.19 1066.53 640.34
00003966 00000009 762.48 106.31 462.15 761.49 853.54 378.33 1062.90 379.83 939.80 546.84 874.82 656.45 1066.99 657.20
00003967 00000010 774.60 121.02 456.62 750.62 863.03 387.84 1078.52 393.42 959.21 569.36 888.53 670.86 1076.95 675.48
00003968 00000011 790.43 136.93 464.16 742.13 880.41 405.31 1103.26 409.23 974.89 582.00 901.84 674.38 1094.99 678.48
00003969 00000012 812.09 148.38 453.12 733.01 927.67 406.09 1140.04 405.99 1033.99 576.48 946.93 680.27 1129.85 677.98
00003970 00000013 835.15 132.31 456.91 744.90 964.27 400.56 1180.27 402.91 1082.67 571.18 979.54 673.22 1162.77 672.81
00003971 00000014 856.70 133.70 452.59 739.85 993.40 391.21 1201.93 395.35 1112.20 561.74 1000.50 657.60 1189.36 659.43
00003972 00000015 864.99 144.04 457.40 725.21 1012.40 384.58 1217.91 385.09 1139.01 554.90 1012.03 650.78 1205.50 649.12
00003973 00000016 868.92 131.00 455.81 733.84 1013.36 379.57 1220.34 382.47 1138.55 551.68 1010.40 644.14 1206.98 644.60
00003974 00000017 872.18 132.43 454.03 731.07 1010.09 379.06 1219.86 385.44 1132.56 553.40 1004.00 639.34 1206.04 642.81
00003975 00000018 876.78 132.54 452.93 725.54 1009.62 379.46 1220.26 387.03 1129.99 551.96 1004.56 636.07 1206.67 640.43
00003976 00000019 881.36 131.09 453.10 721.08 1014.12 376.26 1225.82 386.27 1133.31 547.50 1010.18 632.32 1208.81 638.49
00003977 00000020 884.44 133.32 452.68 721.15 1018.59 373.62 1229.73 385.63 1136.69 542.00 1014.78 635.70 1206.52 643.57
00003978 00000021 886.16 138.40 447.08 722.80 1015.57 371.92 1229.41 385.48 1129.09 546.98 1013.10 648.16 1192.42 657.88
00003979 00000022 883.00 126.85 449.05 727.84 1000.64 372.87 1219.94 386.43 1112.46 549.14 1001.64 654.97 1184.70 665.96
00003980 00000023 880.52 128.70 449.07 724.65 996.21 374.28 1215.59 388.12 1105.54 549.16 999.82 656.90 1177.49 668.52
00003981 00000024 878.35 124.22 448.82 725.74 997.82 373.91 1212.17 387.98 1103.16 543.95 998.44 651.54 1173.52 663.27
00003982 00000025 876.87 118.63 449.75 723.47 996.31 369.27 1209.60 379.39 1102.70 536.53 999.97 643.61 1177.24 651.79
00003983 00000026 874.29 108.61 449.85 731.19 994.80 365.65 1209.22 375.80 1102.08 534.52 999.75 639.67 1177.89 647.85
00003984 00000027 870.61 106.13 448.62 738.93 990.76 365.61 1200.24 377.93 1092.85 534.18 994.23 642.62 1165.85 652.89
00003985 00000028 863.87 116.43 451.08 735.34 983.27 371.27 1194.05 383.15 1086.28 538.61 985.41 646.23 1159.67 656.62
00003986 00000029 855.04 109.21 456.47 747.01 972.55 368.25 1185.79 380.27 1077.16 540.43 979.67 646.84 1158.97 657.04
00003987 00000030 850.96 108.91 455.87 748.55 966.59 365.65 1177.20 378.53 1071.46 540.93 976.75 645.61 1157.36 656.35
00003988 00000031 843.92 109.06 458.10 747.46 960.43 366.32 1170.70 378.53 1066.35 541.18 972.05 643.59 1157.43 653.49
00003989 00000032 835.57 110.98 457.39 752.40 961.82 374.91 1174.38 380.84 1067.24 535.75 971.65 649.57 1154.46 651.06
00003990 00000033 832.29 118.04 452.01 745.85 953.43 374.07 1165.22 379.66 1057.54 535.64 962.90 649.04 1146.60 650.30
00003991 00000034 827.49 118.90 449.88 743.54 946.05 372.76 1157.34 375.34 1050.62 532.04 957.53 647.16 1141.64 646.05
00003992 00000035 824.11 118.55 447.76 743.78 941.88 370.63 1152.77 372.73 1044.94 528.53 952.39 644.13 1137.01 642.68
00003993 00000036 820.75 115.10 448.83 745.07 936.81 369.25 1149.31 371.77 1039.92 528.72 949.38 643.37 1134.14 642.37
00003994 00000037 817.95 114.44 448.68 748.03 932.51 368.23 1144.78 370.57 1034.44 527.79 945.17 642.41 1130.13 641.45
00003995 00000038 813.32 107.79 452.27 753.87 927.83 369.79 1142.06 372.41 1031.31 529.52 941.71 642.46 1127.53 641.79
00003996 00000039 811.36 108.97 452.13 754.90 925.35 371.55 1139.35 372.97 1027.94 529.50 939.19 642.79 1126.32 641.16
00003997 00000040 808.59 112.99 453.20 752.18 924.17 373.40 1137.81 374.95 1027.29 530.40 937.35 643.63 1124.71 642.18
00003998 00000041 808.94 117.70 452.12 748.88 922.86 375.03 1136.37 375.44 1026.02 530.75 936.54 645.35 1123.44 643.11
00003999 00000042 806.57 120.46 452.70 749.01 921.50 376.89 1135.86 376.96 1026.59 533.64 935.07 648.02 1123.00 645.50
00004000 00000043 805.54 125.37 452.21 745.47 919.81 379.00 1135.03 378.37 1025.88 536.38 933.60 649.48 1122.98 646.49
00004001 00000044 805.12 125.48 452.10 741.82 918.68 381.61 1133.01 380.96 1024.60 539.40 933.76 649.62 1121.56 646.68
00004002 00000045 803.12 123.94 451.33 742.47 918.53 386.40 1131.57 386.72 1024.53 542.87 932.32 650.80 1120.26 648.62
00004003 00000046 799.80 122.85 451.75 743.65 916.77 397.03 1126.42 400.24 1020.39 552.26 928.90 653.85 1114.18 654.27
00004004 00000047 797.99 126.58 453.25 737.40 911.54 412.46 1122.05 415.58 1018.39 569.22 924.93 664.65 1114.98 667.37
00004005 00000048 800.99 147.29 458.94 725.86 908.49 426.61 1122.53 431.97 1005.24 589.52 927.42 681.42 1109.09 686.34
00004006 00000049 800.94 149.88 454.11 742.52 912.35 433.09 1124.34 436.71 1015.49 604.76 938.68 704.26 1107.76 706.50
00004007 00000050 808.70 173.10 454.49 734.99 924.09 440.65 1134.92 442.75 1025.77 609.89 946.36 719.38 1114.81 720.24
00004008 00000051 820.05 185.83 453.94 727.81 939.29 442.94 1151.12 447.83 1043.93 614.72 957.52 726.17 1128.45 729.01
00004009 00000052 828.82 184.37 455.09 732.14 958.20 447.41 1167.36 454.76 1068.01 619.18 974.66 729.40 1142.08 733.79
00004010 00000053 835.11 199.21 462.64 712.53 970.76 447.19 1188.57 454.27 1084.12 624.87 989.17 731.82 1155.51 735.20
00004011 00000054 837.65 194.28 463.62 715.28 985.06 452.49 1196.62 456.85 1101.71 623.79 1005.36 732.53 1165.14 733.38
00004012 00000055 837.75 191.56 468.67 707.56 990.63 448.32 1202.92 457.65 1111.09 629.72 1001.64 716.82 1169.57 725.33
00004013 00000056 842.00 182.66 459.44 714.76 999.46 441.55 1209.45 442.94 1122.74 609.38 1015.27 715.63 1181.39 714.26
00004014 00000057 847.56 166.48 457.98 728.88 995.46 431.39 1211.89 437.89 1121.10 607.04 1008.16 703.49 1180.07 710.10
00004015 00000058 849.27 152.75 457.63 732.83 1000.49 429.47 1213.90 436.16 1126.09 601.60 1008.70 694.51 1180.72 701.24
00004016 00000059 852.23 151.61 460.35 737.25 1007.59 426.39 1218.14 434.63 1131.94 594.50 1013.45 692.23 1183.82 699.97
00004017 00000060 847.69 155.08 464.76 734.53 1013.83 421.26 1216.99 431.72 1133.45 595.96 1013.53 688.44 1184.10 695.89
00004018 00000061 853.50 158.85 462.36 726.31 1013.56 425.83 1223.54 436.18 1139.96 590.99 1012.69 684.00 1191.62 693.54
00004019 00000062 852.72 150.17 465.45 726.19 1008.25 428.44 1222.23 435.37 1136.69 588.82 1013.76 682.07 1193.88 688.62
00004020 00000063 854.15 150.01 465.04 724.80 1005.77 431.33 1219.73 435.12 1134.06 590.09 1015.58 683.13 1195.79 687.19
00004021 00000064 858.30 154.68 463.19 734.16 1004.62 431.56 1221.06 436.55 1131.53 595.11 1014.82 692.45 1195.57 697.61
00004022 00000065 859.46 156.85 463.75 743.38 1013.03 428.11 1223.34 438.61 1129.97 606.23 1017.61 706.86 1184.18 714.46
00004023 00000066 868.64 170.80 463.67 730.72 1020.42 430.31 1230.78 445.77 1133.11 611.37 1022.09 709.96 1184.40 721.77
00004024 00000067 873.41 168.83 469.38 728.18 1027.54 427.86 1240.56 453.66 1134.64 613.02 1020.70 706.04 1184.09 726.60
00004025 00000068 875.89 172.48 470.02 719.00 1036.10 422.05 1244.84 450.83 1140.18 610.20 1023.82 700.63 1184.70 723.52
00004026 00000069 874.34 164.62 472.64 719.90 1038.53 420.33 1246.34 446.43 1145.06 607.37 1028.90 694.80 1191.82 715.37
00004027 00000070 870.16 168.66 468.07 711.43 1033.97 418.46 1242.06 438.74 1146.58 600.95 1027.43 689.02 1195.94 704.67
00004028 00000071 866.00 163.20 465.29 715.81 1029.24 415.03 1235.66 433.77 1144.11 593.35 1023.94 684.62 1193.17 698.79
00004029 00000072 859.63 161.18 465.47 719.11 1020.82 413.57 1228.95 428.47 1138.17 588.40 1012.94 679.06 1189.82 690.25
00004030 00000073 861.39 161.82 465.71 720.58 1011.66 414.45 1226.08 425.91 1134.86 586.95 1016.52 676.87 1190.49 686.40
00004031 00000074 854.74 155.44 464.10 723.96 1008.42 413.44 1216.13 424.35 1125.39 583.44 1003.90 675.53 1185.42 683.49
00004032 00000075 853.38 158.90 464.74 731.09 1007.61 413.36 1214.04 426.39 1120.45 586.36 998.97 678.88 1183.05 688.54
00004033 00000076 857.59 173.94 460.86 733.01 1004.58 415.06 1215.70 429.42 1117.53 591.38 1004.81 684.74 1184.48 696.62
00004034 00000077 858.04 173.64 459.88 733.80 1003.96 415.25 1215.10 430.66 1115.98 592.72 1002.96 684.69 1183.67 697.45
00004035 00000078 859.78 174.77 461.17 727.08 1004.39 415.43 1215.60 430.55 1117.39 591.19 1002.90 682.02 1185.20 694.54
00004036 00000079 857.98 166.83 463.33 721.53 1008.66 412.72 1216.04 428.55 1119.56 588.09 994.60 674.23 1184.94 686.35
00004037 00000080 865.04 170.11 462.86 718.27 1010.28 409.99 1225.80 427.61 1128.16 588.21 1006.52 673.72 1191.34 688.40
00004038 00000081 863.28 159.59 462.31 718.10 1011.76 408.20 1221.30 426.02 1121.66 581.56 998.23 668.14 1186.78 681.82
00004039 00000082 863.47 152.21 462.77 720.52 1007.12 406.47 1219.36 427.06 1114.07 583.63 994.05 664.80 1183.06 680.88
00004040 00000083 860.37 153.49 457.48 712.61 991.20 408.19 1204.99 435.41 1089.61 584.68 972.52 657.15 1169.81 680.28
00004041 DELETE   852.11 150.22 454.85 715.05 974.95 401.46 1185.60 432.78 1065.76 574.83 959.29 651.22 1158.18 677.38
00004042 00000085 837.21 136.22 459.15 725.61 952.85 394.20 1167.40 433.01 1032.75 569.99 936.32 643.55 1140.57 675.29
00004043 00000086 829.43 134.17 462.36 720.06 934.84 388.25 1147.16 420.20 1011.12 564.82 927.14 646.53 1116.10 673.84
00004044 00000087 830.99 133.16 455.53 721.79 932.20 388.23 1140.10 415.26 1006.64 561.09 931.07 654.42 1105.34 678.69
00004045 00000088 832.76 131.10 455.50 727.54 936.27 388.47 1145.39 414.85 1016.83 563.30 939.51 660.19 1107.29 684.06
00004046 00000089 833.93 132.16 453.66 733.58 946.04 388.17 1155.08 415.67 1028.20 565.87 943.88 666.01 1115.28 687.39
00004047 00000090 839.71 129.76 453.87 733.23 949.48 387.23 1164.78 407.32 1050.70 569.87 959.26 666.10 1133.71 683.79
00004048 00000091 837.46 139.53 459.76 728.48 962.17 389.83 1180.75 404.12 1064.07 565.83 968.78 669.03 1139.75 678.54
00004049 00000092 844.80 137.28 456.98 720.94 960.55 385.67 1179.00 400.73 1071.64 569.05 973.46 661.82 1150.89 675.66
00004050 00000093 845.36 130.79 458.28 727.83 962.36 381.49 1182.81 396.30 1075.77 565.60 975.66 661.94 1152.80 675.51
00004051 00000094 847.00 126.35 456.33 729.50 960.35 381.65 1183.00 395.78 1075.75 565.69 976.21 664.28 1153.36 677.17
00004052 00000095 846.82 128.93 455.15 725.52 958.76 380.84 1180.82 395.43 1072.79 565.90 972.54 664.26 1147.39 677.57
00004053 00000096 847.57 129.17 451.56 730.10 957.21 379.04 1176.57 394.75 1068.98 564.78 973.22 665.86 1145.07 680.07
00004054 00000097 835.90 135.78 459.55 738.83 963.32 381.50 1181.66 396.02 1067.86 558.31 967.69 666.90 1142.42 676.28
00004055 00000098 832.19 131.56 460.10 740.38 957.78 381.68 1177.32 395.44 1062.88 555.15 959.55 660.69 1144.48 669.54
00004056 00000099 829.39 130.26 460.15 738.90 954.98 380.18 1172.55 393.57 1060.34 552.21 956.59 655.28 1140.03 663.67
00004057 00000100 829.63 126.59 462.07 728.23 943.75 375.14 1163.05 389.88 1053.42 555.06 956.27 652.16 1142.97 665.12
00004058 00000101 825.71 134.57 458.31 719.58 941.28 376.66 1159.77 388.66 1047.95 548.36 948.05 654.81 1131.90 663.47
00004059 00000102 823.13 134.09 453.60 728.18 942.67 377.62 1160.22 390.22 1045.93 552.62 949.09 656.91 1122.84 665.20
00004060 00000103 821.09 135.07 452.23 727.01 938.90 378.09 1159.33 391.19 1042.95 554.20 944.20 658.78 1119.74 667.65
00004061 00000104 820.07 137.27 453.02 724.10 936.51 378.96 1157.54 390.93 1040.91 554.28 942.05 658.03 1121.31 665.84
00004062 00000105 819.94 137.10 455.44 723.65 937.99 377.36 1157.94 390.46 1041.35 552.90 943.58 656.01 1120.08 664.84
00004063 00000106 821.76 134.57 456.53 727.82 940.90 376.99 1159.26 390.31 1043.34 550.10 944.60 655.08 1121.51 664.09
00004064 00000107 826.67 126.37 459.34 735.58 935.90 369.87 1154.87 383.15 1040.32 546.62 947.61 655.42 1133.44 667.49
00004065 00000108 826.08 128.66 459.67 729.08 936.16 368.70 1154.92 382.55 1039.80 543.70 947.86 651.63 1134.47 663.93
00004066 00000109 822.70 132.14 456.28 713.28 939.87 370.48 1155.61 382.74 1041.57 537.48 942.91 645.31 1126.52 654.25
00004067 00000110 815.85 122.64 464.42 725.03 929.65 367.50 1147.38 380.17 1031.36 540.66 939.12 642.31 1130.31 653.59
00004068 00000111 810.81 120.88 463.50 730.01 925.50 365.91 1140.99 379.27 1024.19 539.88 933.52 641.70 1125.55 653.58
00004069 00000112 805.06 121.29 454.90 738.31 921.03 368.77 1137.18 377.48 1023.21 536.80 931.01 641.76 1114.31 646.79
00004070 00000113 798.65 122.16 453.84 746.82 912.71 369.46 1128.05 374.81 1013.60 537.62 923.30 645.36 1108.45 647.77
00004071 00000114 790.38 114.94 454.98 759.83 904.07 369.40 1120.36 374.01 1005.65 542.38 917.40 650.13 1105.08 652.05
00004072 00000115 786.87 126.06 457.16 748.82 897.53 370.44 1118.93 379.08 1002.56 550.05 912.97 656.12 1102.68 661.46
00004073 00000116 777.93 112.76 460.21 751.39 888.96 368.07 1100.88 379.42 991.02 551.42 899.68 648.49 1092.11 657.41
00004074 00000117 767.89 125.15 466.37 737.70 885.42 374.45 1101.62 379.98 990.54 547.62 903.24 650.81 1090.44 652.96
00004075 00000118 767.08 112.67 463.93 742.08 877.77 366.66 1090.07 373.13 982.76 542.31 895.64 643.50 1088.19 648.40
00004076 00000119 766.22 104.07 462.89 746.62 876.37 365.32 1088.16 370.58 979.87 540.03 895.27 641.61 1087.86 645.52
00004077 00000120 765.97 103.44 463.53 746.19 876.24 365.39 1088.57 370.52 980.99 541.07 894.99 641.22 1087.51 645.14
00004078 00000121 765.59 107.77 464.54 741.64 876.84 367.33 1089.81 372.85 982.18 542.66 896.97 642.85 1085.90 647.07
00004079 00000122 765.23 110.73 467.41 737.81 878.52 369.40 1093.46 377.15 985.12 546.01 897.18 643.71 1084.70 650.00
00004080 00000123 767.36 115.77 467.03 731.52 878.70 371.03 1096.34 378.83 986.44 548.18 898.24 645.54 1085.37 652.00
00004081 00000124 770.23 110.55 465.18 733.42 881.63 370.43 1097.59 378.12 988.95 548.40 902.07 645.09 1086.65 651.54
00004082 00000125 771.49 107.26 465.14 734.23 882.66 368.84 1097.34 375.34 988.94 544.99 903.58 643.51 1086.83 648.95
00004083 00000126 770.28 101.20 464.81 735.71 882.21 364.01 1097.28 369.38 987.18 539.68 904.01 639.33 1087.51 643.80
00004084 00000127 769.13 96.36 465.51 737.14 881.05 358.55 1097.69 362.70 985.80 533.62 905.22 636.37 1086.80 639.85
00004085 00000128 770.84 89.13 463.16 746.14 881.30 356.90 1096.41 359.86 985.78 531.47 907.05 637.74 1083.61 640.43
00004086 00000129 774.70 92.15 460.71 746.49 881.64 357.36 1097.55 360.90 986.00 535.50 908.78 642.44 1083.10 645.54
00004087 00000130 778.81 97.48 458.28 745.94 884.61 361.64 1099.25 365.40 990.02 541.28 910.92 646.91 1085.38 650.05
00004088 00000131 782.55 106.17 458.40 746.07 886.33 366.60 1104.05 371.15 993.29 545.11 910.73 655.27 1086.80 659.19
00004089 00000132 785.31 106.81 459.23 748.58 889.14 370.96 1111.04 376.84 999.12 550.65 910.99 660.81 1088.14 665.97
00004090 00000133 788.66 106.87 458.00 747.29 891.74 370.81 1113.10 376.33 999.39 547.88 912.10 659.21 1088.06 664.23
00004091 00000134 790.40 106.72 457.19 742.81 894.02 370.23 1113.92 373.60 1000.76 544.41 914.63 656.13 1089.51 659.28
00004092 00000135 794.48 102.34 464.70 747.21 899.15 367.36 1116.02 371.55 995.47 537.46 927.03 652.88 1099.51 657.43
00004093 00000136 795.84 94.21 463.65 752.26 900.43 362.70 1116.29 366.64 996.18 532.76 928.95 650.03 1100.31 654.27
00004094 00000137 792.86 89.49 456.01 747.33 898.29 357.86 1112.88 358.98 1002.16 527.40 921.23 642.30 1090.09 643.29
00004095 00000138 793.47 88.78 455.60 746.86 898.40 356.89 1112.95 357.80 1002.43 526.56 921.77 641.36 1090.22 642.22
00004096 00000139 794.26 87.38 455.27 747.62 898.52 357.18 1112.32 358.28 1001.47 526.65 922.16 641.21 1089.62 642.24
00004097 00000140 794.72 87.83 454.95 746.72 898.67 358.73 1112.75 359.62 1001.38 527.61 921.91 641.02 1090.53 641.86
00004098 00000141 795.79 90.43 454.43 743.23 900.24 360.71 1114.55 362.34 1002.50 529.30 921.93 640.86 1091.25 642.33
00004099 00000142 797.01 92.62 454.66 741.41 901.85 362.07 1116.24 364.23 1003.99 531.11 922.26 641.16 1092.13 643.10
00004100 00000143 797.55 92.38 454.27 742.44 902.31 362.46 1116.81 364.36 1004.25 531.47 922.24 641.25 1093.10 642.86
00004101 00000144 796.69 92.41 455.24 743.80 902.97 364.19 1117.05 366.76 1004.75 532.56 921.16 641.29 1093.17 643.46
00004102 00000145 797.24 93.56 454.92 742.25 902.52 364.69 1117.00 367.83 1003.99 533.07 919.24 640.54 1093.72 643.19
00004103 00000146 796.35 95.08 455.58 740.11 902.11 365.74 1116.43 369.19 1004.16 533.77 918.57 640.27 1092.97 643.26
00004104 00000147 795.13 93.66 456.03 740.97 900.63 364.97 1115.40 368.77 1002.43 533.37 917.88 639.90 1092.12 643.23
00004105 00000148 794.21 95.22 463.97 744.54 898.48 365.07 1114.03 371.01 993.30 532.53 922.02 642.46 1098.73 648.60
00004106 00000149 789.72 98.92 467.22 741.11 895.10 364.85 1112.25 370.11 990.72 532.87 919.63 642.85 1097.42 648.29
00004107 00000150 787.51 100.35 468.43 739.51 893.36 364.90 1110.44 369.71 988.36 531.98 917.32 641.83 1095.78 646.85
00004108 00000151 786.95 97.23 467.87 743.69 893.81 365.28 1110.60 370.29 989.17 531.96 916.34 641.00 1097.36 646.11
00004109 00000152 786.41 97.69 467.46 744.07 893.25 364.96 1109.51 370.04 987.89 531.72 914.81 639.80 1096.85 644.92
00004110 00000153 785.53 98.47 467.70 744.53 891.14 365.42 1107.46 370.13 984.85 532.53 911.82 640.05 1095.42 644.87
00004111 00000154 783.86 101.88 469.43 741.59 889.93 365.82 1106.09 370.06 982.71 533.22 911.37 640.62 1093.26 645.02
00004112 00000155 782.43 102.51 469.72 740.95 888.48 366.11 1104.62 369.50 981.35 533.63 909.91 640.23 1092.50 643.84
00004113 00000156 781.27 99.98 470.26 743.75 887.26 365.75 1104.03 369.05 980.14 533.74 908.96 640.05 1090.98 643.61
00004114 00000157 780.71 102.43 470.18 740.76 886.73 365.62 1103.91 368.90 979.51 533.32 908.20 639.41 1090.38 642.99
00004115 00000158 780.39 100.90 470.14 742.28 886.46 365.53 1103.71 368.82 979.17 533.43 907.49 639.35 1090.51 642.91
00004116 00000159 781.36 101.89 470.04 741.03 886.68 365.37 1104.13 368.74 979.13 533.03 908.23 639.40 1090.77 643.04
00004117 00000160 780.93 102.27 470.03 740.57 886.67 365.22 1104.20 368.93 978.89 533.48 907.28 638.92 1090.53 642.84
00004118 00000161 781.67 102.67 469.45 739.84 886.56 365.22 1104.41 368.84 979.17 533.63 907.45 639.29 1091.00 643.15
00004119 00000162 782.33 100.71 469.83 740.57 886.90 364.99 1104.91 368.19 980.19 533.04 908.55 639.37 1092.20 642.86
00004120 00000163 784.62 102.68 468.72 736.91 889.17 363.96 1105.87 367.23 982.43 531.79 912.81 638.78 1093.96 642.29
00004121 00000164 787.36 98.81 467.19 739.96 891.79 362.97 1108.80 367.68 986.40 530.51 913.44 636.57 1097.44 641.44
00004122 00000165 788.91 93.42 458.25 738.07 894.50 360.33 1111.10 364.34 997.66 530.05 911.99 634.06 1092.87 637.52
00004123 00000166 790.40 96.34 466.06 740.62 894.91 362.33 1112.33 367.89 990.71 530.65 916.53 636.17 1099.87 641.83
