Video ID: 	vktOvz0EiPs
H: 	1080
W: 	1920
FPS: 	25.0

FRAME INDEX X0 Y0 W H [Landmarks (5 Points)]

00002569 00000000 903.03 133.83 436.57 625.62 1039.06 349.74 1235.99 377.24 1140.75 487.45 1034.87 585.35 1185.34 606.80
00002570 00000001 905.39 134.12 438.96 629.51 1042.60 355.66 1238.39 381.88 1144.09 494.04 1039.28 589.89 1190.60 609.92
00002571 00000002 907.28 133.71 441.33 636.90 1041.44 364.48 1238.03 387.04 1142.27 499.95 1038.92 597.43 1196.16 614.48
00002572 00000003 907.66 139.81 445.72 640.10 1041.08 368.53 1239.48 390.28 1140.66 505.03 1038.40 603.04 1198.79 619.40
00002573 00000004 908.71 141.66 448.48 645.39 1046.34 372.55 1243.99 394.51 1145.39 509.73 1041.96 606.27 1205.95 622.91
00002574 00000005 907.77 142.69 451.31 645.51 1050.51 375.19 1246.97 395.52 1151.95 511.97 1048.94 609.59 1210.00 624.74
00002575 00000006 905.99 140.69 450.51 647.26 1049.92 375.05 1247.64 393.49 1154.42 512.76 1049.94 610.23 1212.04 623.92
00002576 00000007 904.36 136.86 448.41 650.45 1040.85 372.41 1241.58 389.58 1147.97 509.63 1043.21 608.67 1208.30 621.41
00002577 00000008 897.32 137.56 442.52 642.00 1026.53 366.54 1231.83 382.85 1137.60 505.80 1034.08 605.45 1196.05 617.61
00002578 00000009 892.42 140.36 433.72 630.07 1013.70 362.31 1222.15 378.38 1121.71 502.79 1019.81 601.96 1179.85 614.46
00002579 00000010 884.65 146.38 438.26 619.70 1003.95 365.50 1207.18 377.83 1104.29 504.10 1017.79 595.57 1170.72 604.77
00002580 00000011 863.79 140.00 438.71 624.87 988.35 367.92 1185.82 375.60 1088.53 495.81 1000.18 596.69 1158.71 601.01
00002581 00000012 848.92 141.58 439.17 620.96 965.85 367.57 1164.11 370.50 1067.62 491.85 987.93 598.44 1142.85 598.43
00002582 00000013 834.10 145.60 440.38 617.26 941.24 361.97 1143.91 362.12 1042.79 486.22 969.43 598.19 1124.51 596.48
00002583 DELETE   820.87 143.25 435.21 618.12 921.02 364.21 1125.38 359.48 1023.21 486.91 953.20 597.70 1108.48 592.88
00002584 00000015 810.34 143.90 436.75 613.32 902.86 367.36 1105.88 355.68 1003.09 484.48 945.06 597.84 1098.41 587.58
00002585 00000016 795.64 144.50 441.29 612.47 885.86 368.52 1085.02 351.92 979.03 482.75 931.24 597.16 1080.39 583.38
00002586 00000017 783.76 145.21 449.34 610.03 877.33 371.76 1074.42 353.17 967.94 485.10 923.89 599.54 1073.28 581.52
00002587 00000018 779.77 144.68 447.68 609.50 868.23 370.99 1064.13 347.40 956.82 482.16 917.13 599.84 1067.32 577.80
00002588 00000019 776.80 144.34 445.67 609.68 861.28 371.44 1054.34 343.73 947.83 480.41 914.34 601.62 1062.49 576.23
00002589 00000020 775.27 143.95 443.55 607.74 856.78 372.51 1047.43 342.70 942.19 479.37 913.30 602.28 1059.40 575.69
00002590 00000021 775.62 141.61 442.59 603.02 854.55 372.33 1042.89 342.42 939.63 479.89 913.58 601.41 1054.05 575.15
00002591 00000022 775.52 140.47 440.34 599.73 852.72 369.85 1038.41 342.74 936.78 477.96 911.01 600.12 1043.18 577.03
00002592 00000023 772.84 135.94 443.33 608.15 851.32 367.36 1037.51 341.52 937.02 478.83 912.96 602.04 1040.99 579.92
00002593 00000024 771.51 132.20 446.32 617.14 850.09 366.05 1038.24 338.43 936.64 479.77 913.85 606.20 1043.17 582.56
00002594 00000025 772.72 131.16 447.11 624.91 851.28 368.82 1039.41 337.84 936.80 482.42 915.84 610.66 1048.39 583.96
00002595 00000026 773.23 131.00 448.76 630.92 852.37 369.77 1042.02 335.23 937.28 484.14 918.22 613.15 1056.00 583.03
00002596 00000027 774.01 131.51 452.22 635.34 854.14 373.52 1045.49 337.14 939.40 485.96 920.10 616.03 1061.48 584.31
00002597 00000028 776.70 135.15 453.76 634.89 858.77 376.21 1051.65 340.49 943.62 487.24 921.77 616.49 1066.57 584.79
00002598 00000029 782.10 140.05 453.65 631.83 866.55 377.85 1056.75 344.20 948.27 487.37 926.68 616.57 1070.69 586.03
00002599 00000030 788.18 133.92 460.75 629.61 867.82 378.54 1061.92 346.08 949.46 485.74 931.44 612.03 1069.01 585.50
00002600 00000031 787.31 138.54 457.54 627.82 869.92 379.98 1067.76 351.79 960.13 494.38 927.97 614.26 1072.48 589.96
00002601 00000032 790.61 139.17 457.30 627.24 872.99 380.90 1070.96 354.25 962.30 496.39 929.51 615.00 1074.93 592.11
00002602 00000033 789.89 139.12 461.29 629.65 872.92 381.15 1071.07 356.56 960.30 500.50 929.58 617.31 1072.73 596.19
00002603 00000034 789.39 139.19 461.14 631.51 870.10 381.26 1069.63 357.25 956.52 503.15 926.21 620.30 1070.04 599.76
00002604 00000035 788.61 139.16 462.00 631.69 871.43 381.33 1068.89 358.41 956.40 503.04 927.26 621.06 1066.65 601.67
00002605 00000036 788.04 138.35 463.44 633.95 871.64 382.91 1070.82 359.27 958.92 504.08 928.68 622.47 1068.47 602.45
00002606 00000037 785.09 136.96 466.49 637.64 871.97 384.33 1071.36 362.41 959.77 507.81 928.37 624.84 1065.32 606.55
00002607 00000038 784.41 142.19 464.40 632.52 867.73 386.50 1066.69 364.22 954.95 511.35 923.99 627.17 1058.51 608.60
00002608 00000039 779.85 143.43 466.65 634.41 865.14 389.93 1059.91 369.00 948.22 511.23 919.74 628.67 1045.83 611.33
00002609 00000040 775.62 145.73 469.90 633.58 861.13 389.99 1057.22 370.62 943.59 513.40 916.78 629.59 1041.04 613.52
00002610 00000041 769.86 145.16 475.79 636.21 860.75 389.14 1060.92 368.62 948.21 513.82 919.73 631.08 1047.66 613.82
00002611 00000042 771.71 143.47 473.47 636.68 865.36 388.35 1066.46 366.51 958.16 512.60 925.99 629.52 1055.24 611.34
00002612 00000043 772.62 138.48 472.66 641.32 871.90 385.19 1076.92 361.75 971.95 510.78 935.47 630.44 1068.60 611.32
00002613 00000044 776.80 136.00 472.01 644.41 879.59 386.14 1088.25 360.76 986.85 509.30 946.66 634.05 1083.28 613.43
00002614 00000045 781.13 139.63 473.54 639.57 886.89 384.97 1099.63 357.29 1001.28 511.33 957.68 631.35 1103.45 608.62
00002615 00000046 781.33 140.13 475.21 642.98 886.10 386.71 1100.91 357.82 1001.36 513.04 954.97 633.20 1109.67 609.19
00002616 00000047 776.14 138.00 477.34 653.31 879.05 388.43 1092.20 359.70 989.72 513.30 945.53 635.20 1100.57 611.02
00002617 00000048 772.26 144.81 477.03 651.00 867.82 389.79 1079.94 364.69 969.79 520.19 928.91 638.18 1082.34 617.06
00002618 00000049 770.15 151.08 476.89 649.06 857.29 396.68 1068.12 370.31 951.58 521.38 916.06 641.83 1069.51 619.47
00002619 00000050 761.02 156.09 482.31 644.99 846.80 402.13 1055.30 378.42 932.20 532.45 904.34 645.23 1055.20 624.76
00002620 00000051 756.03 165.19 484.71 641.38 834.93 412.01 1038.62 384.90 913.57 541.18 895.77 653.67 1043.75 630.70
00002621 00000052 750.36 172.28 475.87 639.57 818.82 414.73 1017.64 392.65 889.23 548.04 882.15 659.94 1034.06 641.07
00002622 00000053 746.90 172.29 477.33 640.02 814.93 415.10 1015.59 392.91 886.95 549.73 879.37 661.00 1032.14 642.05
00002623 00000054 746.14 171.01 479.94 640.61 818.81 415.78 1022.24 391.70 896.42 550.23 884.57 660.74 1039.22 640.43
00002624 00000055 745.77 170.17 482.90 638.82 825.33 415.36 1032.14 390.47 911.27 551.70 892.16 659.09 1049.00 638.14
00002625 00000056 746.46 170.41 482.72 637.85 828.92 416.38 1037.98 391.25 919.98 552.11 894.41 658.65 1052.78 637.60
00002626 00000057 744.33 170.19 482.94 636.74 827.25 415.83 1038.49 391.43 919.93 552.99 891.84 658.46 1051.03 638.20
00002627 00000058 742.81 173.23 481.18 633.69 822.36 415.10 1033.20 392.93 910.76 552.30 884.44 657.86 1044.61 639.25
00002628 00000059 739.86 166.39 476.53 641.93 815.61 414.00 1024.03 395.26 898.18 554.18 874.96 658.45 1034.10 642.61
00002629 00000060 738.26 168.38 476.47 640.91 813.24 414.16 1022.61 396.06 896.04 554.91 871.41 657.90 1031.41 642.61
00002630 00000061 738.48 168.88 478.92 640.19 818.33 412.83 1029.63 396.09 903.03 555.66 874.56 656.85 1036.98 642.72
00002631 00000062 739.33 169.19 485.27 636.59 826.83 414.91 1043.28 394.37 922.68 556.66 888.02 656.45 1052.84 639.28
00002632 00000063 743.48 162.78 485.75 645.76 835.99 418.50 1057.31 392.96 942.10 559.71 901.50 662.50 1070.09 640.72
00002633 00000064 747.57 159.53 488.97 651.28 852.14 412.67 1072.83 385.97 967.00 552.93 917.53 660.74 1084.11 637.47
00002634 00000065 751.26 155.74 486.91 654.62 862.95 410.99 1083.40 384.20 982.18 544.38 923.96 657.13 1094.35 633.60
00002635 00000066 751.51 154.94 488.12 653.46 863.01 407.56 1084.39 382.58 981.35 541.14 922.96 654.32 1092.55 632.08
00002636 00000067 751.23 156.17 487.74 652.35 855.05 405.19 1076.84 382.46 967.26 541.24 915.45 654.31 1082.47 634.07
00002637 00000068 750.92 155.13 485.16 654.33 844.01 405.84 1065.17 383.67 947.69 544.67 904.09 656.37 1070.01 636.93
00002638 00000069 747.04 160.33 483.69 647.29 835.70 407.98 1052.61 387.57 932.51 548.45 895.59 655.11 1058.35 637.63
00002639 00000070 747.25 161.30 482.14 648.16 833.12 410.58 1047.84 389.86 927.33 549.61 892.10 656.77 1054.77 639.29
00002640 00000071 746.62 161.52 484.01 650.95 833.22 411.70 1049.09 389.67 928.81 550.16 893.76 659.04 1057.63 640.50
00002641 00000072 750.27 164.04 484.09 654.21 840.29 417.54 1057.96 390.98 946.44 548.34 906.53 667.59 1068.73 643.48
00002642 00000073 752.13 165.36 485.71 657.39 847.54 416.61 1068.01 389.96 958.48 546.02 912.45 667.65 1075.95 643.60
00002643 00000074 753.64 165.79 486.10 657.93 847.17 417.23 1067.63 390.42 955.64 546.83 911.91 669.08 1075.34 644.85
00002644 00000075 756.58 167.50 482.88 655.53 844.52 417.07 1060.13 392.29 944.57 546.72 907.85 669.15 1067.22 646.58
00002645 00000076 759.04 164.77 482.13 658.38 847.14 414.65 1064.38 391.03 947.08 543.46 908.36 666.94 1068.81 645.16
00002646 00000077 760.60 162.46 482.31 661.91 855.08 412.57 1075.72 388.95 961.85 540.22 914.49 665.97 1077.51 643.96
00002647 00000078 760.48 163.93 483.00 660.59 856.13 414.51 1077.77 390.59 964.55 541.08 915.92 667.63 1080.01 645.17
00002648 00000079 759.30 166.05 480.54 659.65 849.02 416.25 1068.40 393.32 952.01 543.49 908.71 669.73 1072.17 648.29
00002649 00000080 758.27 166.43 479.51 659.89 843.72 418.75 1058.71 395.91 940.80 544.44 903.54 671.14 1061.51 650.49
00002650 00000081 758.56 167.02 478.55 659.81 845.38 418.81 1060.72 395.50 943.66 542.84 903.94 671.42 1063.37 650.25
00002651 00000082 758.17 166.89 480.93 659.96 851.41 419.08 1070.42 395.80 956.87 540.91 908.75 671.32 1071.98 649.75
00002652 00000083 758.75 169.60 480.78 656.60 853.48 417.99 1073.29 395.46 960.82 541.82 911.40 670.35 1074.95 649.23
00002653 00000084 757.15 169.90 479.31 657.01 849.49 421.87 1068.11 400.97 953.71 544.72 905.05 672.81 1068.19 653.32
00002654 00000085 755.02 176.56 477.08 649.46 842.27 425.45 1055.88 404.56 941.13 551.27 899.01 676.25 1056.15 657.17
00002655 00000086 752.23 179.22 476.41 648.28 838.72 426.89 1054.06 405.26 938.94 553.09 896.10 678.14 1053.63 658.67
00002656 00000087 751.17 184.84 476.94 646.40 839.94 430.02 1057.49 407.17 943.84 555.76 898.17 680.70 1058.28 660.39
00002657 00000088 748.83 186.83 478.59 648.35 841.74 430.59 1062.50 407.11 950.72 557.10 900.82 683.59 1064.04 662.58
00002658 00000089 747.40 189.50 478.54 647.95 839.38 432.79 1061.18 407.64 948.70 558.90 899.15 685.28 1064.80 662.91
00002659 00000090 745.76 187.38 477.83 650.14 836.01 433.02 1056.48 409.25 942.11 559.31 893.48 684.08 1057.49 663.25
00002660 00000091 744.67 189.07 476.45 648.00 834.32 434.91 1056.17 411.78 941.21 560.32 889.85 683.81 1055.45 663.71
00002661 00000092 744.59 189.12 479.13 649.66 835.92 435.06 1057.46 411.34 943.60 561.41 892.84 684.22 1060.36 663.16
00002662 00000093 743.82 190.82 480.49 649.20 836.89 435.28 1058.93 411.24 945.76 561.49 894.53 683.91 1063.39 662.44
00002663 00000094 742.48 191.96 479.90 649.47 835.72 434.65 1058.02 410.88 944.22 560.80 892.61 683.57 1061.64 662.36
00002664 00000095 741.29 190.60 480.12 651.23 833.45 435.62 1056.57 411.72 941.58 560.37 889.85 684.47 1059.99 663.42
00002665 00000096 740.32 189.73 480.55 653.22 833.39 436.03 1056.42 412.39 941.17 560.59 889.52 685.14 1059.24 664.25
00002666 00000097 739.93 188.44 481.41 655.56 833.06 436.13 1056.65 412.76 941.27 561.98 889.71 686.47 1058.77 665.85
00002667 00000098 740.60 189.75 481.33 654.44 833.42 436.19 1057.02 413.59 941.37 562.55 889.36 686.85 1056.98 667.02
00002668 00000099 740.36 189.82 481.32 654.31 832.73 435.65 1057.07 413.71 940.57 562.82 888.50 687.88 1055.25 668.59
00002669 00000100 740.39 189.63 482.61 655.31 833.73 434.86 1059.11 411.88 942.67 562.77 890.97 689.27 1058.33 669.11
00002670 00000101 743.42 188.27 482.72 657.05 838.21 433.14 1062.96 409.45 948.69 561.28 897.05 689.00 1063.27 668.10
00002671 00000102 744.91 180.96 485.10 663.42 845.60 430.10 1070.80 407.50 960.11 558.47 903.97 687.83 1069.36 667.49
00002672 00000103 746.32 178.41 488.65 663.88 850.63 427.41 1076.55 405.63 967.51 554.44 908.77 685.45 1073.61 665.33
00002673 00000104 748.65 176.61 487.44 664.94 851.46 425.69 1077.97 404.26 968.18 551.84 909.47 683.95 1074.36 663.91
00002674 00000105 749.80 174.64 486.44 667.23 849.64 424.95 1076.47 403.77 963.29 550.83 906.39 684.43 1073.71 664.35
00002675 00000106 751.00 176.26 483.31 665.94 848.53 425.05 1072.96 405.50 957.84 550.71 903.09 684.10 1068.29 665.60
00002676 00000107 751.66 177.12 483.10 665.38 847.94 425.41 1072.47 406.42 955.77 551.56 901.48 684.86 1066.20 666.80
00002677 00000108 751.88 174.56 482.72 667.91 846.95 425.25 1071.30 405.88 954.09 550.63 900.78 684.96 1065.88 666.71
00002678 00000109 750.93 169.20 482.70 671.71 845.42 421.53 1070.25 400.32 951.09 544.08 900.25 681.99 1067.20 662.05
00002679 00000110 749.80 165.43 484.77 668.93 845.19 416.29 1070.72 394.90 951.28 536.51 900.43 675.15 1070.07 654.86
00002680 00000111 750.72 163.42 485.64 666.50 845.06 410.32 1069.63 386.75 950.45 529.10 902.50 670.45 1066.43 648.58
00002681 00000112 749.92 159.30 487.27 672.81 843.93 407.58 1066.51 381.93 947.55 524.68 902.36 670.36 1063.83 646.90
00002682 00000113 748.73 157.51 487.94 666.06 842.27 405.36 1064.37 379.28 946.16 520.24 897.67 658.97 1062.24 635.53
00002683 00000114 746.92 156.89 486.55 664.65 839.44 402.48 1060.85 376.70 941.00 515.43 893.22 656.66 1056.56 633.74
00002684 00000115 742.18 157.33 485.89 665.29 835.71 401.21 1055.89 375.16 935.79 511.92 890.88 658.05 1052.07 634.82
00002685 00000116 739.41 159.73 484.78 660.73 830.15 401.57 1050.72 375.98 928.57 515.83 883.55 655.69 1049.60 632.77
00002686 00000117 735.80 149.51 482.79 665.39 820.01 396.65 1040.85 376.42 912.94 521.39 869.42 651.96 1034.58 635.94
00002687 00000118 732.31 150.58 483.72 666.42 817.36 399.05 1036.98 381.53 908.57 524.45 866.00 654.99 1025.08 641.74
00002688 00000119 730.37 150.66 483.57 667.89 816.24 399.97 1035.34 382.74 907.97 526.36 865.76 656.36 1024.44 643.38
00002689 00000120 727.94 150.74 484.00 666.05 813.18 402.05 1033.89 383.84 906.55 528.18 863.57 656.16 1025.89 642.01
00002690 00000121 724.83 150.73 483.11 666.52 808.75 402.94 1028.39 383.46 902.05 529.89 858.99 655.80 1023.01 640.26
00002691 00000122 719.92 150.72 485.43 672.58 805.34 403.75 1024.46 383.07 899.38 531.04 856.79 657.34 1022.49 640.73
00002692 00000123 717.63 148.58 488.31 680.70 805.42 404.70 1025.71 382.14 902.34 531.43 858.33 659.08 1028.05 640.96
00002693 00000124 718.98 146.48 489.81 682.79 808.29 404.32 1031.01 379.83 909.10 528.58 863.25 659.63 1036.25 639.82
00002694 00000125 721.47 145.31 490.55 681.42 810.80 399.03 1036.41 374.93 913.81 525.87 864.94 657.29 1040.15 637.83
00002695 00000126 726.52 141.81 488.49 681.01 814.06 396.85 1038.41 373.50 914.49 523.27 866.16 653.47 1040.06 634.61
00002696 00000127 729.54 141.08 487.78 674.40 816.54 394.30 1040.57 371.35 915.87 521.28 868.79 649.48 1040.41 630.86
00002697 00000128 729.93 144.28 488.79 670.01 818.85 394.29 1041.98 370.28 918.91 520.49 872.83 648.55 1042.95 629.05
00002698 00000129 730.01 143.20 490.15 674.51 820.20 393.40 1043.84 368.69 919.97 520.26 875.02 649.82 1045.29 629.66
00002699 00000130 731.07 152.25 491.39 674.60 823.98 398.75 1045.31 370.12 927.16 519.30 884.08 657.11 1049.45 631.81
00002700 00000131 730.82 150.33 491.30 676.04 822.14 396.46 1044.12 368.08 924.04 517.86 882.70 656.05 1047.88 630.94
00002701 00000132 730.20 139.74 489.01 677.66 819.39 390.02 1042.45 363.49 917.48 517.08 874.90 649.50 1044.26 627.56
00002702 00000133 733.41 139.34 487.17 668.58 824.56 389.09 1045.89 363.24 921.66 514.74 877.97 643.28 1047.06 621.55
00002703 00000134 740.65 138.01 484.36 667.13 830.56 388.26 1051.54 364.50 926.68 515.52 881.08 640.95 1052.31 620.51
00002704 00000135 742.47 139.30 486.52 668.35 834.25 387.48 1055.93 365.40 930.43 517.24 885.49 643.45 1054.35 624.42
00002705 00000136 744.63 139.64 486.26 671.53 835.83 386.88 1056.92 364.77 932.11 518.03 889.47 646.62 1055.15 627.67
00002706 00000137 744.78 137.80 487.00 671.49 835.79 386.96 1057.40 364.53 932.13 517.55 889.05 645.33 1055.45 626.10
00002707 00000138 746.97 135.77 485.35 670.57 837.27 386.73 1058.87 365.30 934.05 517.82 889.80 644.47 1055.46 626.03
00002708 00000139 747.95 136.64 487.22 669.93 839.09 386.58 1061.96 366.77 936.93 520.49 892.40 645.82 1056.25 628.78
00002709 00000140 749.43 141.00 487.28 669.95 838.98 389.79 1061.77 369.07 936.64 525.31 894.56 651.19 1058.14 633.30
00002710 00000141 747.44 140.19 492.58 679.94 836.78 391.56 1061.07 369.51 933.82 528.27 895.56 658.57 1059.08 639.38
00002711 00000142 744.72 143.57 498.06 686.27 836.84 403.52 1061.05 375.17 940.93 530.45 902.91 668.44 1066.88 642.59
00002712 00000143 742.83 150.28 498.19 682.76 833.59 412.80 1056.41 382.12 937.08 537.65 902.20 674.32 1065.90 646.81
00002713 00000144 743.18 157.40 491.73 672.79 830.63 427.00 1044.10 393.80 928.62 544.75 899.94 678.55 1057.51 649.67
00002714 00000145 736.29 160.17 493.75 663.34 823.78 427.51 1034.75 404.05 912.60 555.40 882.88 669.93 1045.83 650.28
00002715 DELETE   729.06 164.37 490.95 657.88 810.04 433.87 1016.46 412.31 890.68 563.29 865.33 671.84 1027.93 653.69
00002716 00000147 715.84 171.15 494.50 659.14 796.74 439.68 996.69 416.11 871.72 563.31 849.99 670.35 1010.52 651.21
00002717 DELETE   704.65 176.88 499.94 649.52 783.18 447.08 970.38 428.53 846.17 574.09 843.01 673.27 984.69 658.00
00002718 DELETE   696.40 182.54 500.67 648.65 765.65 456.81 960.18 429.80 832.39 578.96 831.85 682.18 981.87 659.56
00002719 DELETE   687.99 181.63 502.17 654.11 753.30 457.20 943.61 433.64 811.70 581.72 820.20 685.08 968.02 664.97
00002720 00000151 681.92 188.36 496.68 650.69 742.71 453.67 929.53 431.87 793.10 587.39 812.92 687.85 956.93 668.82
00002721 00000152 679.10 191.65 497.83 647.67 737.07 447.18 907.96 429.94 777.16 593.09 811.04 678.04 945.18 662.40
00002722 00000153 671.81 189.65 497.72 643.60 729.72 448.48 893.18 429.54 766.85 592.66 807.60 675.75 938.50 658.47
00002723 00000154 669.08 188.52 495.60 640.67 728.17 447.71 888.23 428.40 764.62 590.04 805.70 673.76 934.36 656.28
00002724 00000155 668.97 186.00 494.74 642.97 727.68 447.75 887.43 426.91 763.90 588.50 803.54 673.04 933.82 654.30
00002725 00000156 669.96 187.32 494.39 640.46 728.87 446.71 887.07 427.07 763.37 588.47 805.61 672.46 933.59 654.74
00002726 00000157 671.01 185.97 493.10 641.40 729.87 446.84 886.63 427.20 763.38 588.25 806.47 671.47 934.33 653.66
00002727 00000158 670.81 185.53 493.62 640.82 729.86 446.85 886.46 426.83 763.68 588.24 807.24 669.85 935.82 651.70
00002728 00000159 674.29 182.00 492.25 642.70 732.37 445.08 889.01 424.82 765.14 586.63 808.69 667.38 939.34 648.85
00002729 00000160 679.56 181.22 488.52 642.54 736.50 446.35 891.90 422.76 769.49 582.82 812.53 665.52 942.93 644.04
00002730 00000161 684.72 177.92 488.63 644.12 740.17 443.74 899.20 416.48 775.58 577.31 816.85 665.00 949.50 640.10
00002731 00000162 679.98 177.38 489.43 639.86 742.56 443.83 916.49 410.96 791.47 571.32 817.18 669.60 959.70 640.85
00002732 00000163 680.34 174.74 496.52 641.31 743.58 438.17 924.23 406.42 796.35 568.66 818.58 667.00 964.25 639.73
00002733 00000164 683.30 170.76 494.93 643.39 745.38 433.68 926.35 405.35 796.96 566.66 817.56 663.57 963.68 639.32
00002734 00000165 686.11 169.38 494.50 644.06 747.32 430.69 926.88 403.86 795.59 564.98 818.10 660.89 963.63 638.02
00002735 00000166 686.45 165.51 496.20 645.56 746.86 428.06 927.59 401.41 797.14 563.35 817.95 659.63 963.19 637.05
00002736 00000167 686.87 162.91 497.35 648.01 746.80 425.20 928.36 399.02 796.90 561.64 817.39 658.05 963.82 635.83
