Video ID: 	OEXr6eDSRc4
H: 	1080
W: 	1920
FPS: 	25.0

FRAME INDEX X0 Y0 W H [Landmarks (5 Points)]

00002239 00000000 731.78 163.83 367.88 528.29 915.39 368.55 1068.59 396.93 1036.98 454.76 912.46 547.04 1038.56 572.37
00002240 DELETE   733.89 163.60 367.71 526.83 916.47 367.35 1071.78 396.14 1038.83 454.36 914.80 547.29 1042.32 572.85
00002241 00000002 735.42 165.59 367.48 532.69 917.77 368.99 1072.40 396.57 1040.07 455.97 917.93 552.63 1045.12 577.09
00002242 DELETE   738.20 166.12 367.39 535.58 922.76 371.16 1074.71 397.48 1045.20 458.60 920.82 554.85 1048.38 578.67
00002243 00000004 741.31 169.19 366.42 535.70 928.42 372.35 1082.62 401.92 1052.42 463.02 923.41 556.47 1053.58 582.92
00002244 00000005 744.62 170.55 365.45 533.91 931.75 373.19 1086.44 400.09 1055.28 466.83 926.04 558.17 1056.64 582.70
00002245 00000006 747.74 169.98 365.64 534.12 934.81 372.13 1089.85 399.39 1057.84 469.30 927.59 559.06 1058.33 583.80
00002246 00000007 753.81 172.19 368.42 532.85 941.12 373.12 1096.59 399.14 1064.21 472.37 931.32 560.29 1064.23 584.16
00002247 00000008 755.73 170.98 368.88 535.65 945.46 372.98 1098.43 399.08 1067.86 475.71 934.52 561.45 1065.24 585.30
00002248 00000009 744.32 166.06 377.18 539.09 944.78 378.35 1090.77 403.83 1065.38 470.71 942.38 556.46 1064.16 577.61
00002249 00000010 744.41 165.23 379.02 543.34 944.25 377.06 1089.00 401.89 1063.97 468.54 942.88 556.33 1063.68 576.73
00002250 00000011 745.97 166.97 379.67 544.35 947.77 374.81 1090.65 402.25 1064.81 468.26 943.74 556.23 1063.05 578.78
00002251 00000012 749.80 167.97 384.24 544.07 951.62 376.79 1097.85 402.15 1074.62 465.23 952.04 557.73 1073.41 578.52
00002252 00000013 752.19 168.47 383.44 543.81 952.36 379.46 1098.25 403.65 1074.00 464.37 955.02 557.25 1075.28 577.02
00002253 00000014 755.61 166.57 385.79 545.26 957.16 378.29 1104.86 405.23 1080.23 461.48 959.28 555.04 1080.24 577.38
00002254 00000015 758.37 168.56 390.02 545.98 961.22 376.98 1108.78 402.92 1083.67 462.28 962.29 557.24 1083.15 578.70
00002255 00000016 763.27 167.85 389.41 546.84 967.85 375.02 1114.14 403.53 1089.19 463.14 965.23 557.98 1084.17 581.79
00002256 00000017 769.08 170.99 388.35 542.67 973.12 377.38 1122.51 402.72 1097.46 465.06 969.80 560.92 1092.21 582.50
00002257 DELETE   769.56 172.18 389.85 541.60 977.98 378.21 1125.75 405.54 1102.24 465.70 973.25 559.99 1095.90 582.90
00002258 00000019 772.84 168.70 393.49 544.06 982.72 375.28 1132.87 403.32 1108.15 466.78 975.85 559.18 1102.07 583.02
00002259 00000020 773.71 167.07 396.47 544.99 982.16 372.61 1135.47 401.83 1108.51 464.86 976.92 559.02 1104.46 583.48
00002260 00000021 774.58 164.77 396.66 547.61 981.04 369.90 1136.27 399.50 1108.40 462.25 977.59 558.87 1105.62 583.50
00002261 00000022 773.35 163.45 397.18 546.72 975.89 367.93 1134.38 395.70 1105.13 458.58 982.05 561.88 1107.05 584.10
00002262 00000023 772.49 161.56 396.80 547.89 974.42 366.53 1133.99 393.45 1104.30 456.26 982.93 561.14 1108.27 582.47
00002263 00000024 771.63 161.45 397.25 547.49 972.17 365.77 1135.40 391.51 1104.64 456.59 980.90 559.94 1110.55 580.64
00002264 00000025 770.28 161.10 399.66 552.45 971.35 366.64 1133.87 390.91 1103.22 460.46 978.71 563.56 1108.41 583.21
00002265 00000026 771.21 163.83 398.93 551.58 974.68 371.81 1131.42 393.94 1102.87 465.38 980.49 567.41 1104.30 585.59
00002266 00000027 772.75 168.55 402.11 555.24 981.98 378.07 1139.91 400.61 1111.65 475.35 982.78 575.00 1109.51 594.66
00002267 00000028 776.13 167.81 404.18 570.72 987.39 384.79 1146.47 411.02 1114.87 485.87 985.06 585.86 1111.26 608.84
00002268 00000029 779.42 175.66 407.76 576.94 990.38 398.10 1153.57 425.67 1118.78 505.78 987.23 602.21 1115.24 625.67
00002269 00000030 780.99 180.15 408.38 582.03 988.40 401.99 1155.28 426.31 1118.57 516.11 986.96 613.57 1116.26 634.28
00002270 00000031 781.44 179.90 409.39 582.14 988.98 403.01 1156.50 426.41 1119.54 517.21 987.53 614.33 1117.35 634.37
00002271 00000032 781.22 173.28 410.07 584.31 993.21 399.61 1158.82 426.50 1123.53 508.94 989.75 607.50 1119.36 630.40
00002272 00000033 782.11 169.79 406.85 581.81 995.09 395.23 1157.94 423.23 1124.73 502.61 991.87 601.27 1118.32 625.15
00002273 00000034 781.68 168.54 406.86 578.84 993.43 389.22 1157.78 419.07 1122.64 496.51 988.78 594.42 1118.73 620.15
00002274 00000035 781.09 165.32 406.41 580.11 992.34 385.94 1157.04 414.98 1122.21 492.00 990.46 593.25 1119.19 618.16
00002275 00000036 779.74 162.80 405.48 580.95 992.57 384.16 1155.54 415.02 1121.83 487.02 988.27 588.01 1118.29 614.70
00002276 00000037 777.53 161.39 407.22 576.24 990.76 380.52 1155.02 409.18 1123.47 481.29 987.82 582.39 1119.03 607.48
00002277 00000038 776.97 160.06 406.79 573.95 990.15 379.20 1152.70 406.65 1121.99 478.36 987.11 578.04 1118.52 602.07
00002278 00000039 776.06 161.72 406.16 567.47 986.89 374.71 1147.87 401.02 1117.61 474.03 987.57 575.21 1117.07 597.83
00002279 00000040 776.18 160.88 403.44 563.37 986.69 371.54 1147.41 399.07 1117.75 469.83 985.44 571.04 1114.76 594.33
00002280 00000041 775.00 157.99 402.32 562.83 984.85 370.40 1146.18 397.47 1116.32 468.85 985.81 570.16 1113.92 592.77
00002281 00000042 771.91 157.71 401.41 560.25 980.73 370.02 1142.44 397.79 1112.38 467.97 984.09 569.28 1110.81 592.03
00002282 00000043 767.89 159.80 400.33 557.42 976.31 371.49 1136.35 399.73 1107.75 467.13 981.02 567.45 1106.42 590.32
00002283 00000044 765.65 159.29 398.00 557.04 971.46 371.38 1130.79 396.83 1101.92 465.40 981.43 567.92 1103.34 588.15
00002284 00000045 765.81 160.15 397.18 555.34 970.40 371.59 1130.67 396.69 1101.28 465.16 981.08 567.79 1103.66 587.71
00002285 00000046 766.16 159.70 397.21 555.61 972.35 370.28 1131.64 396.86 1103.06 465.33 982.15 567.45 1103.80 588.67
00002286 00000047 769.57 159.89 397.82 553.53 977.85 370.91 1137.23 399.03 1108.21 466.88 985.02 567.94 1107.11 590.45
00002287 00000048 772.74 160.73 398.67 552.61 984.25 372.16 1141.96 401.83 1114.92 467.97 989.79 568.20 1110.77 592.17
00002288 00000049 777.34 161.27 398.78 559.19 991.71 376.38 1149.61 411.48 1122.08 470.70 990.02 569.63 1114.80 598.23
00002289 00000050 782.22 163.72 395.50 560.34 994.32 377.25 1153.29 413.37 1124.23 472.83 989.79 571.79 1116.45 601.71
00002290 00000051 787.58 166.66 392.02 557.39 1000.31 378.36 1158.33 415.46 1130.69 474.17 993.49 571.99 1119.48 603.18
00002291 00000052 793.20 167.94 388.96 554.78 1003.48 377.51 1163.19 415.57 1133.65 475.30 995.14 572.60 1121.64 604.77
00002292 00000053 794.52 169.25 387.56 555.84 1005.93 379.75 1165.77 419.10 1137.38 475.67 996.08 573.93 1123.68 607.18
00002293 00000054 798.77 170.62 384.62 553.04 1008.19 379.57 1169.50 419.92 1139.56 476.94 995.95 572.07 1126.98 606.57
00002294 00000055 799.88 168.86 385.26 552.27 1008.72 379.67 1171.30 420.21 1140.45 476.60 998.37 573.13 1128.75 607.52
00002295 00000056 801.93 169.25 384.10 552.66 1010.67 378.60 1172.12 417.17 1141.29 478.56 999.58 574.57 1128.65 607.62
00002296 00000057 804.61 170.80 381.77 556.01 1013.37 381.97 1168.69 415.98 1141.64 481.40 1004.75 579.74 1128.96 609.28
00002297 00000058 805.98 170.93 380.62 554.57 1014.25 382.21 1168.68 413.92 1142.18 482.56 1007.26 580.77 1129.87 608.40
00002298 00000059 808.51 169.75 377.02 546.78 1014.58 377.65 1170.99 410.68 1143.24 477.94 1008.22 575.41 1131.15 603.96
00002299 00000060 808.87 170.53 375.44 540.59 1012.60 374.44 1169.26 409.95 1140.80 471.83 1005.03 568.99 1129.74 599.46
00002300 00000061 807.42 171.18 375.75 538.70 1011.91 373.94 1165.99 409.06 1137.69 470.74 1003.30 565.64 1127.21 595.82
00002301 00000062 802.71 172.25 376.83 541.14 1005.61 377.40 1161.66 411.51 1132.12 472.88 997.86 569.57 1123.27 599.11
00002302 00000063 798.93 173.18 379.31 544.61 1003.42 380.91 1159.03 413.65 1129.89 476.54 994.79 572.19 1120.15 600.70
00002303 DELETE   791.40 175.24 380.51 543.10 997.96 383.66 1151.46 417.12 1127.23 476.56 991.77 571.54 1114.00 600.26
00002304 00000065 787.57 173.66 380.96 543.29 995.03 383.89 1143.88 416.04 1121.54 475.88 988.25 569.64 1108.27 597.26
00002305 00000066 780.91 174.66 378.42 539.73 988.68 384.94 1133.43 416.29 1114.04 474.54 984.83 567.23 1102.46 593.57
00002306 00000067 771.11 174.94 378.38 541.14 981.73 387.09 1123.21 415.93 1107.33 473.00 980.54 566.01 1096.30 589.90
00002307 00000068 767.70 177.27 375.48 538.22 976.02 388.11 1115.75 414.43 1101.10 472.59 977.36 565.66 1092.16 587.66
00002308 00000069 764.31 176.23 375.69 536.84 970.21 387.85 1111.35 411.96 1094.38 469.37 972.65 562.88 1089.30 583.05
00002309 00000070 761.35 173.63 378.32 539.15 967.74 386.43 1107.65 410.07 1091.22 466.42 971.44 560.81 1087.73 580.48
00002310 00000071 762.63 173.66 374.33 538.14 966.00 387.51 1108.04 411.47 1090.61 466.70 973.17 562.54 1089.52 582.12
00002311 00000072 761.22 175.04 373.80 539.50 961.98 390.74 1106.86 416.13 1086.99 471.11 972.70 569.99 1088.96 590.09
00002312 00000073 761.12 174.11 374.92 543.08 963.16 391.88 1109.29 416.74 1089.67 472.73 973.25 571.84 1090.28 591.63
00002313 00000074 761.24 174.50 370.08 538.75 964.02 388.66 1104.47 416.22 1086.78 468.81 969.03 564.50 1082.99 586.93
00002314 00000075 760.08 174.26 372.76 535.58 962.33 385.21 1103.56 413.78 1084.75 464.01 965.55 556.99 1082.89 580.28
00002315 00000076 759.13 174.06 373.94 534.31 960.79 382.94 1104.68 412.36 1084.74 461.83 963.70 553.87 1084.19 577.94
00002316 00000077 756.36 174.51 374.57 537.76 959.77 384.18 1103.80 415.71 1082.68 465.76 959.73 558.32 1079.12 584.15
00002317 00000078 754.41 175.35 378.30 540.69 959.35 386.10 1103.91 418.79 1081.34 469.15 957.79 562.02 1077.14 588.55
00002318 00000079 754.63 173.47 375.86 541.02 957.98 386.34 1099.85 416.03 1078.33 467.64 959.08 561.40 1075.36 585.48
00002319 00000080 752.06 170.77 374.82 543.24 955.21 384.16 1097.23 414.18 1077.26 467.17 957.44 559.97 1073.37 584.29
00002320 00000081 750.55 167.19 372.70 544.63 952.65 380.15 1094.37 410.07 1076.43 463.78 957.68 557.72 1073.65 581.93
00002321 DELETE   749.39 166.56 373.31 544.47 947.88 380.34 1088.50 406.96 1070.14 461.12 958.98 558.96 1072.78 580.20
00002322 00000083 749.25 163.64 371.80 545.18 945.89 380.93 1087.11 406.16 1068.74 459.11 960.66 558.75 1073.45 578.76
00002323 00000084 758.09 164.92 365.50 545.29 947.43 374.02 1099.37 395.65 1077.40 462.90 952.35 569.56 1074.91 588.95
00002324 00000085 756.96 165.93 367.14 543.55 947.84 373.38 1100.13 395.55 1077.15 463.79 951.38 569.43 1074.15 589.10
00002325 00000086 747.78 165.58 373.23 544.51 948.90 380.72 1089.93 410.31 1070.69 461.04 959.61 558.89 1071.98 582.37
00002326 00000087 750.21 167.84 373.79 537.37 956.95 382.36 1098.62 415.86 1081.73 460.18 963.78 552.61 1076.44 579.76
00002327 00000088 752.76 169.96 374.51 534.38 959.38 382.70 1102.79 418.56 1083.10 459.94 962.95 551.35 1077.51 580.55
00002328 00000089 752.48 169.02 376.27 533.53 960.15 381.46 1102.94 419.68 1081.30 459.04 963.14 549.81 1076.78 580.78
00002329 00000090 755.31 170.68 374.69 533.16 959.31 378.87 1101.40 415.83 1076.81 454.89 963.27 549.77 1076.90 579.33
00002330 00000091 757.25 168.21 373.92 536.86 956.40 376.21 1095.55 408.05 1070.75 452.29 961.91 550.23 1073.80 575.50
00002331 00000092 757.56 169.21 374.46 536.11 951.62 372.23 1095.72 402.25 1068.06 449.98 962.13 551.72 1076.43 575.34
00002332 00000093 757.23 168.27 374.21 537.56 949.09 369.25 1094.35 398.85 1065.83 448.27 960.69 550.90 1075.92 574.25
00002333 DELETE   759.22 168.51 374.52 536.08 949.81 367.54 1096.16 395.91 1067.95 447.39 962.60 550.35 1078.29 572.72
00002334 00000095 764.45 166.95 376.72 532.47 954.35 367.35 1103.49 397.74 1074.32 446.16 964.93 547.73 1082.96 572.41
00002335 00000096 766.51 168.02 378.30 533.23 954.95 367.56 1106.12 397.39 1076.11 447.31 966.19 549.80 1084.95 573.89
00002336 00000097 763.75 168.29 382.60 540.43 952.46 368.37 1104.42 394.76 1072.78 450.54 964.00 554.83 1083.55 575.83
00002337 00000098 762.68 170.40 385.39 541.62 951.16 367.81 1104.50 394.05 1071.24 452.75 961.39 557.40 1082.21 578.27
00002338 00000099 763.64 170.66 386.16 539.00 950.21 367.99 1105.28 391.50 1070.03 453.30 960.16 558.63 1082.96 577.60
00002339 00000100 763.30 170.83 386.24 535.87 949.50 368.89 1108.31 391.65 1071.26 458.08 955.91 559.30 1083.34 578.00
00002340 00000101 762.37 172.53 387.01 536.35 949.82 370.35 1108.68 393.61 1071.20 460.53 952.68 560.23 1082.14 579.37
00002341 00000102 762.02 173.58 387.59 537.89 950.25 370.99 1108.51 393.64 1070.25 461.95 952.39 562.03 1081.28 580.58
00002342 00000103 760.15 170.97 386.51 540.51 947.97 371.09 1106.22 393.13 1068.28 463.45 949.24 562.48 1079.11 580.60
00002343 00000104 759.49 171.31 386.21 540.25 946.65 370.85 1106.19 393.03 1067.28 463.71 947.44 561.97 1079.00 580.27
00002344 00000105 757.02 169.12 383.96 542.51 942.54 370.71 1102.08 391.98 1064.55 464.20 944.11 561.54 1076.59 579.27
00002345 00000106 755.56 169.37 384.54 542.79 941.53 371.16 1099.96 392.48 1062.68 464.15 943.83 561.33 1075.29 579.07
00002346 DELETE   755.89 168.99 384.39 544.56 940.82 379.08 1097.95 398.04 1060.89 467.56 941.16 563.76 1074.09 580.28
00002347 00000108 754.89 168.23 386.09 546.31 938.14 375.55 1094.79 393.04 1057.97 466.79 939.99 564.16 1071.25 579.32
00002348 00000109 754.11 166.89 386.50 546.35 936.96 372.47 1093.45 389.96 1056.57 465.00 939.41 562.40 1070.43 577.39
00002349 00000110 755.16 165.95 382.88 539.98 934.79 370.17 1095.84 386.27 1055.96 463.16 940.40 560.04 1074.68 573.56
00002350 00000111 755.50 165.51 383.60 539.34 934.57 368.13 1096.11 384.87 1055.73 461.04 940.44 558.25 1075.11 572.37
00002351 00000112 754.33 164.61 384.72 543.36 934.30 365.94 1091.98 383.74 1053.01 458.86 941.67 558.61 1070.61 573.22
00002352 00000113 754.55 164.52 384.17 544.53 933.59 364.85 1091.61 383.00 1052.63 458.51 940.69 558.90 1069.69 573.83
00002353 00000114 754.11 165.18 385.29 543.13 931.17 362.78 1090.14 381.48 1050.10 455.46 939.76 556.80 1068.74 571.87
00002354 00000115 754.45 163.96 384.50 544.15 931.23 362.57 1089.97 380.36 1051.38 455.06 942.17 556.56 1070.65 570.86
00002355 00000116 753.75 163.15 384.35 541.73 929.77 361.93 1089.83 379.81 1050.01 455.79 938.47 554.86 1069.23 569.37
00002356 00000117 752.56 162.62 385.97 540.92 927.84 360.88 1088.05 379.58 1047.88 453.63 937.04 554.03 1067.38 569.08
00002357 00000118 751.74 163.19 384.81 539.24 926.65 360.64 1086.79 379.64 1046.98 452.91 936.27 552.84 1066.30 568.10
00002358 00000119 751.95 162.66 383.51 538.65 927.42 358.86 1086.14 378.09 1047.27 451.71 937.89 551.48 1065.71 566.81
00002359 00000120 751.80 162.54 384.07 536.33 930.84 359.99 1087.11 377.68 1051.26 451.09 942.33 550.36 1068.33 564.52
00002360 00000121 754.17 163.74 384.95 531.92 935.59 361.69 1091.99 378.12 1057.89 451.26 946.46 549.43 1073.56 562.91
00002361 00000122 757.24 163.02 385.03 533.91 943.20 362.62 1097.43 379.05 1066.22 450.60 955.32 548.77 1080.35 562.31
00002362 00000123 760.88 163.51 380.61 531.34 949.21 362.88 1101.59 382.75 1073.67 449.08 961.33 546.33 1084.61 562.93
00002363 00000124 762.74 160.84 378.45 532.72 953.67 363.25 1103.15 384.39 1079.10 446.55 967.80 544.61 1087.98 562.12
00002364 00000125 764.45 160.92 376.51 530.51 957.19 362.88 1105.75 386.03 1083.16 445.67 969.83 542.75 1090.53 561.81
00002365 00000126 764.61 161.56 376.77 530.52 958.53 362.77 1106.21 386.60 1085.09 445.32 970.48 542.63 1091.02 562.30
00002366 00000127 763.41 164.28 377.73 530.97 958.52 363.88 1106.13 389.53 1083.69 447.20 967.33 544.42 1088.04 565.69
00002367 00000128 762.06 163.92 379.25 532.29 958.95 364.66 1106.30 390.17 1084.49 446.99 965.78 543.51 1088.31 564.88
00002368 00000129 762.02 162.92 379.24 534.35 958.61 364.87 1106.77 390.73 1084.73 446.54 966.16 543.68 1088.87 565.24
00002369 00000130 761.21 161.67 379.35 536.83 957.42 364.23 1105.63 389.27 1084.89 446.58 966.94 543.85 1089.74 564.65
00002370 00000131 761.58 159.99 377.77 535.03 957.31 362.81 1103.48 386.62 1085.53 444.12 970.76 543.00 1090.21 562.78
00002371 00000132 761.28 158.58 376.11 533.75 954.66 360.27 1101.22 384.20 1084.12 441.20 971.89 541.32 1090.81 561.08
00002372 00000133 761.16 157.94 376.11 534.65 954.32 359.82 1100.59 383.59 1083.52 441.13 971.60 541.57 1089.80 561.20
00002373 00000134 764.82 156.25 371.57 536.95 960.08 361.67 1109.75 383.94 1092.05 459.75 969.86 553.52 1092.90 573.48
00002374 00000135 758.27 159.46 378.86 537.67 952.87 362.37 1097.06 384.44 1078.20 442.67 969.65 544.02 1085.34 562.01
00002375 00000136 758.20 160.42 377.42 537.24 952.64 362.81 1095.79 385.15 1076.72 443.41 968.15 544.21 1083.54 562.39
00002376 00000137 757.44 162.34 377.14 537.75 952.97 364.36 1094.14 387.65 1075.56 445.29 965.82 544.86 1080.61 563.89
00002377 00000138 756.04 162.76 378.28 538.02 952.84 366.04 1093.57 389.10 1076.08 445.79 964.42 544.96 1079.73 563.97
00002378 00000139 757.98 164.84 375.59 533.83 954.10 367.14 1095.38 392.42 1076.52 447.92 963.20 544.71 1079.64 565.63
00002379 00000140 754.63 168.40 377.45 532.65 947.66 366.41 1091.97 389.50 1068.86 449.66 958.12 547.16 1075.84 565.93
00002380 00000141 751.27 166.44 377.07 531.17 939.45 360.50 1086.06 381.87 1060.69 447.93 951.91 545.45 1070.67 562.65
00002381 00000142 749.79 164.81 376.59 526.68 935.12 355.32 1083.34 378.83 1056.51 443.64 947.93 541.09 1067.87 559.85
00002382 00000143 752.71 163.36 375.13 524.13 937.48 354.99 1085.52 376.10 1061.03 442.12 953.14 540.46 1071.87 557.37
00002383 00000144 753.69 166.42 374.42 521.64 941.49 358.16 1089.12 379.17 1065.52 444.73 956.09 541.30 1075.04 558.26
00002384 00000145 753.00 166.96 375.34 522.01 939.97 361.12 1088.61 381.11 1062.29 449.19 953.02 544.53 1072.56 560.74
00002385 00000146 751.73 167.20 373.18 524.37 938.66 363.97 1086.48 385.51 1059.46 451.93 948.89 546.64 1068.92 564.20
00002386 00000147 752.72 169.49 373.99 528.37 939.25 371.34 1089.21 390.06 1059.30 458.96 947.77 553.60 1071.06 569.09
00002387 00000148 755.73 172.30 373.40 527.12 941.58 375.36 1092.94 393.43 1061.05 462.59 949.38 558.00 1073.33 572.88
00002388 00000149 756.58 173.98 374.49 528.14 941.96 378.25 1094.47 396.28 1061.14 463.98 950.48 559.93 1074.06 574.59
00002389 DELETE   760.57 174.73 374.60 526.93 948.65 385.12 1096.98 402.21 1066.27 464.64 956.64 560.37 1077.19 574.77
00002390 00000151 763.03 177.17 373.93 527.50 951.37 389.38 1101.19 412.19 1069.57 464.59 957.37 560.08 1079.22 578.90
00002391 DELETE   763.81 176.86 375.87 529.87 951.95 389.00 1103.32 411.13 1070.84 465.45 958.58 562.05 1081.09 580.26
00002392 DELETE   763.55 178.25 375.15 529.14 950.00 388.94 1103.11 411.16 1069.20 466.56 956.32 562.33 1080.31 580.76
00002393 DELETE   764.71 179.56 378.55 529.29 952.94 387.24 1107.11 410.47 1072.86 466.44 959.06 562.34 1083.96 581.33
00002394 00000155 767.60 181.92 376.11 528.45 954.92 388.92 1108.12 411.09 1075.48 467.72 962.15 564.19 1086.35 582.26
00002395 00000156 768.36 183.53 376.26 525.73 953.09 388.69 1108.88 411.01 1073.66 468.04 959.46 564.29 1085.99 582.57
00002396 00000157 769.05 181.23 376.84 526.41 951.57 386.65 1108.25 407.91 1072.09 466.22 958.72 563.59 1085.69 581.07
00002397 00000158 771.11 182.60 377.49 528.27 953.68 386.27 1108.36 408.80 1072.44 466.17 959.50 564.09 1086.11 582.64
00002398 00000159 770.95 179.84 381.57 536.74 956.11 383.19 1108.76 407.20 1073.07 467.27 960.14 566.29 1083.94 586.00
00002399 00000160 773.57 178.46 380.85 542.08 959.00 381.48 1110.37 406.81 1075.03 469.00 961.78 569.20 1083.05 590.34
CROP_BBOX: 520 0 1388 886
