Video ID: 	lqrv-AUnnKQ
H: 	2160
W: 	3840
FPS: 	25.0

FRAME INDEX X0 Y0 W H [Landmarks (5 Points)]

00005629 00000000 1505.26 221.69 474.37 594.26 1679.42 408.31 1876.91 488.60 1759.59 528.97 1628.24 624.27 1773.48 687.35
00005630 00000001 1508.48 227.45 477.23 589.06 1682.63 406.51 1880.73 490.23 1759.09 526.88 1629.68 623.08 1774.34 689.20
00005631 00000002 1509.48 234.99 475.49 586.12 1686.74 408.53 1885.75 493.24 1761.67 533.08 1627.24 625.08 1776.75 693.89
00005632 00000003 1509.75 236.89 476.73 588.59 1685.79 411.75 1884.62 497.59 1758.40 540.08 1626.67 630.43 1774.81 699.75
00005633 00000004 1509.04 239.99 478.79 591.29 1685.65 416.00 1884.33 501.67 1756.29 546.94 1625.65 637.86 1773.48 706.76
00005634 00000005 1510.97 240.33 476.05 595.40 1685.32 419.05 1884.77 504.96 1756.85 552.93 1625.69 643.16 1775.09 712.16
00005635 00000006 1513.16 237.99 475.04 599.56 1686.04 421.21 1886.41 505.56 1759.63 556.15 1628.03 646.15 1777.86 713.87
00005636 00000007 1514.81 236.57 475.75 598.69 1686.39 418.85 1889.68 504.09 1761.92 552.64 1630.52 642.15 1782.70 710.95
00005637 00000008 1522.10 232.62 468.78 596.44 1688.61 415.07 1893.02 498.98 1767.33 543.38 1637.01 636.83 1789.42 705.03
00005638 00000009 1530.65 223.64 461.84 597.86 1687.01 410.47 1889.79 487.59 1773.12 529.80 1646.12 632.95 1795.99 694.67
00005639 00000010 1530.37 216.99 462.80 599.28 1690.01 403.23 1889.86 481.48 1774.98 525.65 1646.33 625.59 1797.57 687.67
00005640 00000011 1529.03 215.88 462.39 597.17 1687.81 402.54 1886.86 477.98 1770.40 523.90 1643.39 623.96 1793.60 683.58
00005641 00000012 1525.37 216.37 463.06 597.80 1684.21 404.48 1884.46 479.18 1765.47 526.09 1638.85 626.22 1789.49 685.31
00005642 00000013 1517.78 215.75 466.64 603.28 1677.10 411.11 1877.50 484.25 1756.29 529.07 1633.71 629.96 1780.84 687.46
00005643 DELETE   1504.12 226.36 473.11 601.35 1675.07 413.39 1878.31 485.84 1754.49 540.00 1625.90 637.03 1775.97 695.11
00005644 00000015 1497.80 231.03 474.96 600.44 1669.51 416.65 1871.77 490.62 1749.29 543.64 1618.66 642.15 1768.97 701.22
00005645 00000016 1494.55 232.03 472.32 599.69 1663.40 420.14 1866.22 494.11 1745.06 546.47 1614.74 646.89 1766.85 705.64
00005646 00000017 1495.48 231.18 466.45 599.66 1659.40 421.07 1862.18 491.51 1743.83 546.29 1614.51 647.89 1765.95 703.82
00005647 00000018 1494.38 228.84 463.95 598.68 1656.31 418.62 1860.89 487.36 1743.83 541.82 1614.53 644.34 1765.05 698.99
00005648 00000019 1496.13 221.83 459.99 600.68 1649.16 413.46 1857.53 483.67 1742.36 538.17 1620.29 634.54 1770.54 692.28
00005649 00000020 1499.72 220.03 452.49 599.80 1656.14 415.10 1856.49 476.12 1745.39 530.25 1622.86 636.01 1764.63 683.48
00005650 00000021 1504.50 210.42 446.67 606.85 1654.40 412.04 1852.00 473.13 1742.08 528.06 1622.15 632.88 1762.11 680.30
00005651 00000022 1503.25 200.71 449.85 614.39 1650.95 410.00 1845.33 476.37 1736.25 530.72 1623.04 628.70 1760.61 680.95
00005652 00000023 1502.08 200.96 445.68 617.26 1649.00 411.52 1839.70 474.94 1732.98 531.34 1621.60 632.12 1756.44 681.92
00005653 00000024 1500.92 196.76 446.45 621.49 1646.33 413.90 1837.35 475.95 1730.55 533.20 1619.95 633.65 1756.30 682.45
00005654 00000025 1503.66 202.08 439.95 615.39 1644.03 416.53 1837.36 475.60 1725.88 536.80 1618.14 637.09 1757.77 683.45
00005655 00000026 1500.45 201.15 442.28 622.40 1640.63 419.48 1835.71 482.24 1726.49 536.70 1614.55 637.55 1758.13 687.83
00005656 00000027 1500.62 200.72 443.72 623.32 1639.24 418.41 1835.53 481.07 1725.37 535.70 1612.42 638.71 1756.52 688.99
00005657 00000028 1498.96 200.58 445.65 624.28 1640.27 414.64 1836.33 477.82 1727.04 531.99 1611.16 636.52 1757.74 687.31
00005658 00000029 1496.50 197.17 447.88 626.57 1639.49 413.06 1837.63 476.60 1729.96 530.52 1611.33 635.33 1760.33 686.36
00005659 00000030 1496.54 198.19 448.13 624.79 1640.31 412.27 1839.58 475.57 1731.14 531.72 1611.11 635.80 1761.14 686.47
00005660 00000031 1497.31 199.66 447.93 624.56 1640.80 413.37 1840.27 476.45 1731.48 533.05 1611.10 637.35 1761.75 687.91
00005661 00000032 1498.97 201.14 447.27 625.93 1642.29 414.50 1840.28 477.99 1731.69 534.25 1611.83 638.41 1760.75 689.45
00005662 00000033 1498.71 199.14 448.54 629.03 1642.46 415.41 1840.10 479.85 1732.34 533.81 1612.61 638.93 1761.05 690.82
00005663 00000034 1499.19 201.00 447.56 626.69 1643.11 415.90 1841.56 480.08 1732.97 534.36 1613.68 638.77 1763.89 690.41
00005664 00000035 1505.60 200.92 442.30 622.31 1645.48 417.40 1842.04 478.56 1730.28 538.90 1617.15 637.32 1764.12 686.21
00005665 00000036 1506.09 201.42 441.33 624.47 1646.24 418.12 1842.27 477.68 1731.80 539.68 1619.19 638.48 1765.80 685.97
00005666 00000037 1506.86 201.85 439.57 625.08 1647.27 418.98 1841.28 476.54 1731.16 540.18 1620.19 639.05 1764.77 684.95
00005667 00000038 1507.47 203.93 438.41 623.36 1647.52 419.33 1840.30 476.33 1730.37 540.98 1620.73 639.22 1763.01 684.57
00005668 00000039 1507.91 202.59 437.18 623.52 1647.09 419.97 1839.55 476.38 1729.55 542.42 1620.65 638.91 1763.07 683.80
00005669 00000040 1507.75 200.86 434.88 623.28 1646.23 420.72 1838.26 476.38 1729.38 542.51 1620.11 637.21 1764.06 681.72
00005670 00000041 1506.36 201.24 433.97 621.81 1646.06 420.36 1838.37 475.85 1730.22 543.68 1619.05 636.39 1765.28 680.70
00005671 00000042 1504.30 201.46 433.39 621.27 1643.82 421.12 1837.32 476.67 1729.57 543.42 1617.51 635.85 1766.24 680.27
00005672 00000043 1502.53 202.24 432.78 620.18 1643.01 421.89 1836.36 475.97 1730.01 544.42 1617.12 636.50 1766.26 679.74
00005673 00000044 1503.11 201.06 430.38 620.97 1641.98 422.25 1834.74 474.80 1728.97 544.07 1616.81 636.69 1765.82 678.84
00005674 00000045 1501.45 201.27 430.60 621.65 1641.22 422.20 1834.09 474.49 1728.80 543.97 1615.74 636.21 1765.51 678.29
00005675 00000046 1500.99 203.02 430.32 619.86 1640.93 422.48 1834.19 475.13 1729.40 544.34 1615.14 636.35 1765.35 678.74
00005676 00000047 1501.99 202.69 428.06 620.58 1640.75 422.74 1834.67 476.75 1729.42 545.35 1614.05 636.66 1764.81 680.24
00005677 00000048 1501.00 202.44 428.74 620.02 1640.59 422.46 1835.55 478.77 1731.41 542.85 1614.14 637.73 1763.82 683.04
00005678 00000049 1494.23 210.68 431.35 613.24 1637.30 419.15 1837.50 483.97 1733.49 541.95 1613.52 636.92 1763.21 690.19
00005679 DELETE   803.61 83.59 327.16 423.29
00005680 00000051 804.11 92.38 330.08 428.18
00005681 00000052 1471.09 244.43 522.50 821.41 1702.59 576.41 1922.40 611.19 1873.32 722.53 1698.62 853.76 1875.98 880.68
00005682 00000053 1460.58 251.85 535.98 808.96 1701.46 583.19 1923.70 605.38 1881.78 724.14 1710.19 859.06 1883.27 876.46
00005683 00000054 1469.51 246.46 523.73 805.95 1701.72 579.28 1922.86 606.94 1870.48 723.91 1713.13 852.27 1880.15 872.78
00005684 00000055 1475.27 247.48 518.82 800.43 1700.25 579.77 1923.06 605.99 1867.12 724.42 1714.37 852.31 1880.49 871.58
00005685 00000056 1475.28 249.49 517.97 798.52 1700.23 579.13 1922.32 605.99 1866.63 724.25 1712.84 853.44 1879.26 873.06
00005686 00000057 1466.95 254.62 531.17 797.11 1696.83 584.00 1924.74 602.62 1879.01 726.60 1709.20 857.52 1887.25 871.82
00005687 00000058 1466.29 250.19 532.24 803.22 1697.04 583.63 1924.33 604.14 1877.76 726.53 1705.03 854.09 1886.11 870.15
00005688 00000059 1467.42 252.57 531.27 805.50 1698.77 582.60 1924.81 607.38 1879.21 724.10 1703.53 856.76 1883.19 876.50
00005689 00000060 1467.91 251.45 529.88 815.52 1700.01 583.02 1922.45 610.28 1878.49 724.74 1696.07 857.83 1878.55 880.43
00005690 00000061 1466.45 253.42 530.46 816.15 1698.63 582.11 1921.05 609.79 1876.30 725.13 1691.79 857.61 1877.35 880.80
00005691 00000062 1474.46 245.63 518.89 821.37 1700.86 574.56 1920.85 610.87 1869.08 721.97 1691.41 854.09 1871.23 882.52
00005692 00000063 1472.60 244.17 521.86 820.13 1702.47 575.26 1922.05 611.45 1870.90 722.39 1695.13 854.31 1871.78 882.46
00005693 00000064 1471.52 243.41 523.52 813.72 1703.58 576.85 1922.83 610.64 1872.04 722.92 1698.54 851.88 1874.23 878.27
00005694 00000065 1475.32 242.81 520.39 811.20 1703.94 576.01 1925.21 610.83 1873.36 723.02 1700.81 850.76 1877.33 877.93
00005695 00000066 1476.63 242.31 521.04 810.50 1704.79 576.30 1925.78 611.38 1873.44 722.84 1701.60 850.17 1877.58 877.58
00005696 00000067 1471.30 240.16 526.97 812.67 1705.24 576.55 1926.60 610.99 1874.30 723.19 1702.20 850.88 1877.17 877.76
00005697 00000068 1474.29 238.38 523.49 811.88 1704.95 576.68 1927.12 610.33 1874.33 724.18 1702.61 850.92 1878.04 877.38
00005698 00000069 1471.07 239.11 526.41 812.95 1705.15 577.68 1927.05 609.27 1874.72 724.72 1707.93 852.41 1879.62 876.73
00005699 00000070 1471.47 243.10 524.31 807.96 1705.43 577.74 1925.99 609.76 1874.11 725.15 1712.30 854.54 1879.17 878.39
00005700 00000071 1469.72 242.86 525.91 809.82 1704.80 578.13 1926.17 609.28 1874.39 725.78 1710.65 855.56 1878.91 878.94
00005701 00000072 1473.25 241.07 520.76 807.76 1703.35 579.71 1924.86 608.66 1873.06 726.31 1708.48 855.67 1879.07 877.82
00005702 00000073 1462.73 249.56 536.41 802.58 1697.31 585.62 1927.31 608.02 1882.74 728.35 1705.21 862.24 1884.59 879.91
00005703 00000074 1474.26 249.10 526.81 805.35 1697.62 588.92 1927.82 611.57 1871.07 726.04 1698.96 857.81 1881.03 876.84
00005704 00000075 1478.68 257.70 522.24 801.78 1697.72 586.33 1925.34 611.22 1867.65 723.66 1696.62 854.47 1874.75 875.20
00005705 00000076 1476.98 254.93 524.80 804.16 1696.69 583.06 1924.48 607.16 1865.95 722.03 1694.93 854.04 1873.26 873.97
00005706 00000077 1473.73 252.58 526.06 804.31 1694.52 579.71 1923.33 608.22 1862.49 720.39 1691.61 851.09 1870.81 874.18
00005707 00000078 1472.93 248.40 524.96 806.96 1694.35 577.51 1922.49 607.95 1862.58 720.09 1692.93 850.99 1871.10 875.07
00005708 00000079 1464.30 255.30 536.18 797.17 1692.47 583.13 1923.02 606.62 1872.86 722.32 1698.92 856.79 1881.30 875.48
00005709 00000080 1464.98 249.36 534.83 798.35 1690.95 583.35 1922.27 601.88 1872.61 720.79 1705.82 857.27 1883.52 871.66
00005710 00000081 1465.50 251.93 530.14 794.31 1689.94 582.81 1919.98 598.45 1872.54 719.78 1710.16 858.20 1883.07 870.03
00005711 00000082 1465.20 252.84 529.43 793.80 1689.67 581.66 1918.49 596.94 1870.97 717.79 1713.38 860.43 1879.79 871.74
00005712 00000083 1461.23 248.24 535.49 798.22 1688.82 581.16 1918.85 597.61 1868.24 717.96 1712.98 861.00 1878.31 873.11
00005713 00000084 1469.60 241.97 521.34 802.57 1689.18 578.15 1917.84 599.77 1856.21 716.88 1712.29 856.13 1872.91 871.56
00005714 00000085 1462.47 254.08 533.48 788.17 1683.49 579.22 1919.79 594.06 1862.50 719.30 1711.61 863.29 1879.02 873.36
00005715 00000086 1462.66 252.21 531.78 789.65 1683.61 578.69 1918.50 593.58 1862.54 720.60 1708.24 861.51 1877.66 872.07
00005716 00000087 1459.46 250.37 533.30 790.58 1680.88 578.48 1916.60 594.78 1859.41 720.26 1705.25 861.89 1874.51 873.39
00005717 00000088 1456.95 250.76 533.68 796.20 1679.87 578.51 1913.15 595.36 1856.77 720.41 1703.50 863.93 1870.52 875.82
00005718 00000089 1454.01 257.04 535.22 790.33 1677.03 577.85 1910.48 595.66 1852.22 719.40 1700.03 863.36 1866.12 875.62
00005719 00000090 1450.31 254.35 537.10 792.47 1675.30 578.74 1907.31 595.44 1848.97 720.29 1696.84 861.99 1864.28 873.86
00005720 00000091 1448.18 255.84 538.06 789.24 1672.58 578.67 1905.97 595.45 1844.39 720.95 1693.51 861.68 1862.01 873.49
00005721 00000092 1444.10 250.36 539.03 792.96 1668.24 578.54 1902.02 595.09 1837.74 721.32 1688.01 859.81 1857.33 871.62
00005722 00000093 1440.43 246.74 537.38 796.04 1662.56 576.48 1898.71 595.41 1832.63 722.47 1678.47 857.93 1853.10 872.00
00005723 00000094 1446.58 245.92 528.68 790.88 1658.01 575.42 1895.47 593.92 1824.26 723.50 1672.82 856.36 1848.38 870.42
00005724 00000095 1446.49 243.44 525.62 790.62 1653.60 575.72 1892.00 594.21 1816.03 724.95 1668.44 854.56 1844.53 868.86
00005725 00000096 1445.55 246.74 525.32 785.89 1650.05 575.02 1891.72 595.09 1812.10 723.36 1661.90 852.31 1843.95 868.20
00005726 00000097 1443.83 242.78 526.00 791.39 1648.74 574.97 1890.80 595.41 1811.79 721.44 1660.09 851.58 1843.75 868.05
00005727 00000098 1443.99 244.39 525.41 790.60 1649.12 574.36 1890.08 596.60 1811.70 720.66 1659.57 852.01 1841.27 869.73
00005728 00000099 1441.75 241.96 528.73 801.86 1650.30 574.13 1889.82 597.67 1813.58 720.68 1655.62 852.85 1841.15 872.26
00005729 00000100 1440.74 240.94 532.10 806.52 1652.06 572.23 1890.06 597.87 1814.64 719.38 1654.71 851.79 1840.18 872.93
00005730 00000101 1441.24 238.92 530.54 807.86 1653.02 571.23 1890.82 597.14 1817.98 720.21 1654.36 850.66 1841.09 872.27
00005731 00000102 1439.09 238.75 534.89 804.80 1653.93 570.63 1892.03 596.22 1818.28 719.37 1655.95 848.81 1842.84 869.97
00005732 00000103 1437.88 238.68 535.26 805.94 1654.33 568.91 1892.22 595.20 1819.74 717.39 1655.46 847.13 1844.00 868.86
00005733 00000104 1439.06 236.88 534.34 816.84 1653.67 568.69 1891.69 594.97 1819.98 715.59 1653.83 850.01 1844.24 872.10
00005734 00000105 1440.63 235.79 534.19 821.82 1653.78 568.85 1891.68 595.42 1820.20 714.93 1653.54 851.98 1844.31 874.37
00005735 00000106 1441.41 237.39 533.56 820.75 1654.33 569.04 1891.81 595.58 1820.53 715.48 1654.16 852.77 1843.66 875.05
00005736 00000107 1441.32 239.57 534.26 812.54 1655.64 570.35 1893.24 595.96 1822.26 717.41 1655.85 851.62 1845.11 873.14
00005737 00000108 1451.56 247.34 527.02 798.17 1654.34 576.31 1894.76 598.85 1817.72 716.78 1655.05 851.52 1848.73 870.73
00005738 00000109 1452.27 247.84 526.44 798.56 1654.85 576.90 1893.68 598.08 1817.45 713.85 1656.72 850.44 1850.25 868.60
00005739 00000110 1449.70 248.84 527.01 800.20 1653.42 573.01 1893.62 594.12 1817.31 712.65 1656.95 850.61 1851.48 868.54
00005740 00000111 1449.72 244.34 526.04 801.26 1652.06 571.61 1894.14 592.20 1818.75 713.12 1657.83 850.71 1852.92 868.13
00005741 00000112 1448.89 243.15 527.11 803.48 1652.47 571.09 1895.19 592.75 1818.66 711.75 1657.84 850.55 1852.38 868.89
00005742 00000113 1445.45 239.23 530.84 811.16 1651.13 570.32 1893.92 593.06 1817.11 711.60 1656.94 850.00 1850.94 869.22
00005743 00000114 1446.52 239.47 529.94 810.29 1652.03 570.08 1894.44 592.99 1817.48 711.78 1657.14 849.50 1851.03 868.86
00005744 00000115 1445.87 239.83 532.06 801.45 1654.99 570.49 1896.42 590.34 1821.55 712.31 1666.09 848.32 1854.84 864.41
00005745 00000116 1444.72 236.16 534.58 801.33 1657.29 571.11 1896.22 588.37 1824.25 711.90 1673.47 848.20 1855.52 861.71
00005746 00000117 1442.17 236.50 538.59 798.37 1658.98 570.83 1897.35 587.54 1826.27 712.23 1677.40 848.77 1855.18 861.38
00005747 00000118 1441.17 235.53 539.82 799.66 1659.29 569.99 1897.67 588.03 1827.02 712.91 1676.09 848.24 1854.04 861.99
00005748 00000119 1441.59 239.08 539.27 796.96 1659.91 570.13 1897.85 588.59 1827.44 713.20 1675.33 848.19 1854.05 862.32
00005749 00000120 1441.23 239.10 538.47 798.53 1660.22 570.75 1897.57 590.14 1827.44 714.11 1676.20 849.50 1853.62 864.13
00005750 00000121 1439.71 237.16 539.55 800.71 1659.88 570.48 1897.09 590.59 1826.97 713.92 1676.22 849.69 1852.45 864.72
00005751 00000122 1443.63 236.21 534.83 800.81 1658.89 571.23 1897.26 591.24 1827.52 714.40 1672.70 849.40 1853.90 865.13
00005752 00000123 1443.43 236.73 534.11 804.24 1657.62 571.81 1898.80 592.68 1829.17 715.43 1665.35 847.48 1859.02 864.70
00005753 00000124 1441.98 237.22 537.42 806.95 1658.91 570.10 1900.34 593.32 1830.18 714.97 1664.05 847.96 1858.16 866.99
00005754 00000125 1436.33 235.47 544.72 818.99 1662.44 568.73 1897.55 593.76 1830.84 713.99 1666.35 849.61 1849.79 870.04
00005755 00000126 1439.38 236.87 542.46 825.03 1661.87 568.55 1897.42 596.36 1828.98 714.72 1659.25 849.14 1849.48 872.55
00005756 00000127 1442.33 241.52 538.85 811.89 1662.42 568.95 1898.52 596.40 1828.55 715.76 1659.20 847.20 1851.25 870.23
00005757 00000128 1443.41 242.86 538.34 804.15 1662.83 568.59 1899.57 595.66 1828.55 715.57 1660.33 845.48 1852.10 868.08
00005758 00000129 1443.99 242.80 537.93 800.10 1663.09 569.46 1899.82 595.58 1828.62 715.54 1662.25 845.10 1852.58 866.78
00005759 00000130 1443.98 241.26 538.07 800.83 1662.35 570.25 1899.63 596.14 1828.58 715.37 1662.15 845.48 1852.25 867.07
00005760 00000131 1445.47 243.45 536.62 797.96 1662.03 571.14 1899.18 596.56 1828.11 715.82 1662.46 846.02 1851.52 867.10
00005761 00000132 1446.26 242.64 536.54 798.52 1662.17 570.75 1899.89 596.42 1828.34 716.54 1662.55 846.35 1851.51 867.59
00005762 00000133 1446.86 244.22 536.11 797.12 1662.42 571.04 1900.39 596.57 1828.74 716.82 1663.37 846.90 1851.96 867.93
00005763 00000134 1446.72 243.46 536.73 798.33 1663.00 573.10 1900.96 597.99 1830.10 716.91 1663.76 847.21 1852.18 867.95
00005764 00000135 1446.20 242.98 538.11 798.45 1663.19 573.11 1901.15 598.33 1830.13 716.49 1664.02 846.98 1851.89 868.00
00005765 00000136 1444.72 242.83 539.34 798.16 1662.53 572.19 1901.59 598.13 1829.82 716.20 1663.87 847.28 1851.73 868.77
00005766 00000137 1443.80 244.58 538.14 796.14 1662.24 571.63 1899.65 597.27 1828.82 716.19 1663.31 846.49 1851.14 867.71
00005767 00000138 1443.14 243.46 538.57 801.57 1661.69 571.23 1898.95 597.12 1828.68 716.37 1661.79 846.37 1851.65 867.98
00005768 00000139 1441.81 243.34 539.30 811.87 1661.12 570.94 1898.09 597.93 1828.35 716.18 1657.80 847.26 1851.33 870.08
00005769 00000140 1441.38 242.22 538.62 816.33 1659.82 570.43 1897.64 597.83 1827.68 716.43 1655.89 849.41 1850.52 872.65
00005770 00000141 1444.46 241.58 534.07 815.02 1660.09 570.37 1896.63 597.23 1826.87 716.76 1656.05 848.16 1850.85 870.95
00005771 00000142 1445.14 240.50 533.02 812.72 1658.93 570.43 1896.53 596.62 1825.51 716.37 1656.07 847.33 1851.38 869.53
00005772 00000143 1445.72 236.69 531.57 815.91 1658.51 570.04 1896.08 596.88 1824.77 716.00 1655.39 847.32 1850.25 870.15
00005773 00000144 1446.24 235.76 529.70 816.72 1657.92 569.76 1895.26 597.17 1823.81 715.81 1654.29 847.20 1848.85 870.56
00005774 00000145 1447.56 234.03 528.90 819.46 1657.37 569.09 1895.55 597.02 1823.38 715.81 1653.01 846.94 1848.46 870.81
00005775 00000146 1448.48 238.10 527.79 813.78 1657.53 569.14 1895.68 597.15 1823.04 715.94 1652.75 846.76 1848.07 870.60
00005776 00000147 1449.31 237.47 525.87 813.13 1657.49 569.99 1895.04 597.63 1822.96 715.98 1652.74 846.22 1848.11 869.85
00005777 00000148 1447.76 239.56 526.82 806.60 1657.15 570.97 1895.29 596.79 1824.10 717.62 1654.03 846.02 1849.74 868.03
00005778 00000149 1445.08 241.63 530.77 798.40 1657.66 571.43 1896.17 595.53 1824.43 716.96 1658.85 845.09 1850.72 865.25
00005779 00000150 1445.45 239.82 531.49 796.49 1658.77 572.18 1896.25 594.15 1825.05 716.87 1664.02 842.35 1854.26 860.47
00005780 00000151 1446.39 240.18 530.97 793.61 1659.20 572.28 1896.21 593.43 1825.36 717.66 1667.21 842.20 1854.68 859.33
00005781 00000152 1445.91 241.34 530.85 794.16 1659.29 572.73 1895.68 592.40 1826.40 717.36 1670.13 844.30 1855.03 859.95
00005782 00000153 1444.65 238.53 532.26 799.06 1658.78 572.59 1895.69 592.40 1827.16 718.01 1670.14 846.33 1854.88 862.13
00005783 00000154 1444.09 240.35 533.06 797.58 1659.02 572.39 1896.03 592.53 1827.39 718.34 1669.47 845.96 1854.62 862.04
00005784 00000155 1444.33 237.66 532.35 800.10 1659.21 571.19 1895.71 591.99 1826.50 717.65 1669.40 845.05 1853.88 861.62
00005785 00000156 1444.06 241.02 533.24 798.28 1659.39 571.05 1897.14 591.31 1828.24 717.96 1667.64 844.21 1857.16 860.49
00005786 00000157 1440.92 239.68 537.96 799.07 1658.89 570.92 1897.73 591.99 1828.67 715.93 1666.55 843.51 1857.60 860.64
00005787 00000158 1439.91 238.59 538.86 798.00 1659.35 570.45 1897.19 592.18 1828.05 715.24 1665.57 841.14 1856.79 858.95
00005788 00000159 1440.25 240.45 538.71 792.55 1659.93 570.81 1897.13 592.39 1826.88 714.57 1666.89 839.96 1855.82 857.49
00005789 00000160 1438.84 238.72 540.04 796.33 1659.19 569.69 1897.21 592.62 1826.85 714.18 1663.38 840.32 1853.98 859.22
00005790 00000161 1434.48 235.59 542.70 811.44 1657.04 568.16 1896.54 594.66 1826.88 714.61 1656.29 843.95 1850.49 866.17
00005791 00000162 1433.61 234.68 544.78 823.32 1659.29 568.55 1893.19 595.49 1825.22 712.36 1659.51 846.24 1844.58 868.69
00005792 00000163 1436.33 236.50 540.34 824.14 1658.09 568.71 1893.13 596.55 1824.86 713.05 1654.64 847.19 1845.66 870.92
