Video ID: 	tfCcLXYI_Bo
H: 	1080
W: 	1920
FPS: 	25.0

FRAME INDEX X0 Y0 W H [Landmarks (5 Points)]

00035760 00000000 952.80 180.47 458.70 616.67 1048.13 377.81 1218.78 472.10 1042.63 549.84 1011.98 588.91 1175.18 663.65
00035761 00000001 952.25 176.11 452.95 613.91 1045.15 371.34 1214.30 468.77 1036.60 544.99 1009.05 581.52 1173.25 658.73
00035762 DELETE   950.19 168.84 454.69 613.59 1041.88 363.32 1210.51 459.92 1030.96 535.42 1007.68 574.13 1169.14 650.50
00035763 00000003 951.83 148.37 455.46 629.22 1035.59 360.23 1198.57 459.68 1021.72 527.61 1008.43 563.51 1165.60 642.90
00035764 DELETE   953.95 138.89 446.00 619.96 1032.11 350.60 1193.50 444.51 1020.52 518.18 1011.56 553.98 1165.69 628.70
00035765 00000005 945.06 130.52 447.48 624.25 1025.92 338.77 1190.76 430.47 1015.36 505.22 1004.10 547.36 1162.23 620.45
00035766 00000006 941.81 128.23 439.95 629.01 1023.97 340.71 1195.51 429.24 1016.76 489.89 993.39 541.76 1158.95 612.41
00035767 00000007 937.17 123.56 445.43 630.10 1017.48 333.59 1182.57 428.72 1006.12 504.37 997.31 542.71 1158.03 618.34
00035768 00000008 935.29 123.46 443.27 633.65 1016.09 334.47 1179.54 430.13 1004.13 506.55 995.28 543.97 1155.99 620.06
00035769 00000009 934.82 126.20 442.97 636.41 1017.34 334.88 1179.26 430.13 1004.71 504.95 994.01 545.02 1154.46 620.87
00035770 00000010 935.87 128.66 442.30 634.71 1019.35 334.49 1180.25 429.56 1006.09 504.15 995.38 545.22 1155.19 620.90
00035771 00000011 937.00 129.29 443.80 634.31 1021.17 334.12 1183.64 427.07 1009.74 502.74 996.94 546.69 1155.87 620.82
00035772 00000012 938.97 132.44 443.60 632.62 1022.69 334.68 1185.96 426.81 1011.42 502.13 998.42 548.35 1157.14 621.83
00035773 00000013 940.55 134.82 444.99 631.26 1025.09 338.13 1188.16 431.21 1014.82 505.56 1000.34 550.23 1157.58 624.60
00035774 00000014 941.89 133.16 444.24 634.68 1026.21 341.36 1189.58 436.47 1015.24 510.39 1000.71 551.07 1159.35 626.91
00035775 00000015 942.52 129.37 444.83 639.33 1026.48 344.83 1189.72 440.57 1017.37 513.91 1000.88 551.91 1160.06 628.24
00035776 00000016 944.11 128.73 444.37 640.25 1028.24 347.74 1190.50 444.09 1019.00 515.64 1001.40 553.72 1158.23 630.67
00035777 00000017 943.83 134.83 448.12 638.47 1029.54 349.08 1191.97 446.59 1019.56 517.53 1001.52 556.58 1157.99 634.58
00035778 00000018 947.64 136.80 447.04 639.02 1031.82 350.44 1192.99 448.97 1020.53 518.68 1003.31 558.85 1157.57 637.74
00035779 00000019 947.01 145.86 448.36 633.96 1034.29 351.86 1194.97 451.20 1021.82 520.97 1003.40 561.36 1156.79 641.01
00035780 00000020 946.57 143.52 451.04 634.65 1032.96 352.81 1195.65 454.48 1022.19 524.26 1003.03 561.25 1157.63 642.64
00035781 00000021 947.19 140.95 451.66 640.18 1033.41 354.30 1195.72 457.08 1020.94 525.99 1002.16 563.32 1155.80 645.79
00035782 DELETE   942.92 153.24 457.57 624.97 1030.41 360.19 1190.47 460.36 1018.66 529.18 1003.55 565.05 1154.58 644.77
00035783 00000023 943.02 153.28 460.81 623.61 1032.04 365.27 1194.67 468.52 1021.11 530.37 1001.83 564.49 1155.25 647.03
00035784 DELETE   944.84 157.02 460.70 623.71 1034.82 363.76 1196.45 469.14 1021.28 532.35 1004.02 565.89 1156.85 649.95
00035785 00000025 946.05 154.44 459.91 629.20 1035.88 363.33 1195.98 469.21 1020.24 534.07 1005.14 570.11 1154.93 654.70
00035786 00000026 949.33 162.92 449.28 617.33 1042.73 360.67 1202.66 469.48 1022.37 533.45 1005.62 566.01 1160.18 652.05
00035787 DELETE   949.20 165.90 447.41 616.50 1042.12 362.93 1205.69 470.55 1025.87 537.43 1004.89 569.51 1161.46 654.81
00035788 00000028 949.75 163.59 447.09 620.96 1043.12 363.73 1208.10 470.32 1028.66 539.79 1005.12 573.12 1161.68 657.77
00035789 00000029 951.34 165.76 446.69 619.41 1043.77 364.38 1209.62 472.24 1028.98 542.42 1005.45 573.87 1163.30 659.60
00035790 00000030 951.74 167.97 445.70 618.57 1044.60 365.51 1210.31 473.43 1030.33 543.31 1005.75 574.71 1164.28 660.43
00035791 00000031 950.12 154.86 455.62 636.69 1040.62 369.77 1204.39 475.99 1026.30 545.19 1005.25 580.21 1154.94 665.72
00035792 00000032 947.52 155.99 454.56 631.05 1037.83 369.07 1204.11 476.76 1026.33 545.65 999.80 580.18 1148.34 667.34
00035793 00000033 948.50 166.07 445.43 614.41 1040.36 368.57 1207.82 476.58 1030.48 547.23 1000.08 578.25 1148.77 664.69
00035794 00000034 950.03 164.80 444.01 617.28 1042.14 371.10 1207.48 477.13 1031.56 546.25 1000.39 582.09 1143.03 667.06
00035795 00000035 951.20 164.38 444.88 621.52 1042.25 373.05 1206.86 477.47 1030.68 548.59 1001.61 588.01 1140.94 671.74
00035796 00000036 951.03 164.04 445.55 619.71 1041.84 374.35 1208.55 478.68 1031.89 549.95 1001.00 588.46 1141.16 672.11
00035797 00000037 951.09 164.68 446.21 617.95 1041.32 375.22 1209.15 478.15 1032.53 550.19 1001.19 589.08 1142.19 671.58
00035798 00000038 951.30 165.43 447.02 620.91 1043.95 375.24 1209.26 477.35 1032.59 547.04 1001.56 590.50 1140.31 672.44
00035799 00000039 954.20 164.06 446.17 631.58 1048.12 375.78 1210.64 476.90 1034.98 546.67 1005.05 596.56 1140.19 677.85
00035800 00000040 953.19 168.58 448.03 629.40 1049.15 376.61 1211.52 478.81 1035.37 548.69 1005.68 597.11 1142.25 679.18
00035801 00000041 953.18 167.90 448.93 626.69 1048.37 377.01 1211.35 479.36 1035.13 549.29 1005.74 596.55 1140.54 678.78
00035802 00000042 953.14 170.63 448.58 621.60 1048.46 377.44 1212.22 480.58 1035.91 550.34 1005.06 595.12 1140.49 678.04
00035803 00000043 953.02 171.59 448.61 620.55 1048.43 377.82 1211.72 482.23 1035.34 551.34 1004.66 594.76 1139.55 678.74
00035804 00000044 952.98 173.48 447.86 618.82 1047.98 378.17 1211.98 483.14 1034.92 552.52 1004.33 594.96 1139.40 679.47
00035805 00000045 953.37 171.55 447.93 620.36 1048.22 378.88 1212.73 484.19 1035.23 552.68 1004.15 594.86 1140.48 679.54
00035806 00000046 954.43 172.50 446.46 618.83 1047.21 379.54 1212.22 484.74 1034.10 554.76 1005.12 596.02 1141.69 680.61
00035807 00000047 953.42 171.52 446.45 618.37 1045.17 379.39 1211.97 485.41 1032.88 555.90 1003.47 595.41 1142.28 680.72
00035808 00000048 954.71 171.30 443.63 618.09 1043.48 380.96 1210.10 485.95 1031.87 557.52 1004.04 596.26 1142.44 680.69
00035809 00000049 954.02 168.62 443.51 621.00 1042.49 382.20 1208.78 486.26 1031.01 557.54 1003.42 597.33 1141.54 680.94
00035810 00000050 953.27 171.25 443.15 619.97 1041.45 382.47 1207.28 486.92 1028.95 556.97 1002.07 597.78 1139.81 681.86
00035811 00000051 953.60 170.33 442.72 624.56 1041.08 384.28 1205.77 487.08 1028.05 557.73 1002.40 601.60 1136.45 684.46
00035812 00000052 953.24 166.65 440.64 629.55 1038.51 384.75 1202.94 485.68 1025.67 557.48 999.98 604.77 1130.09 686.30
00035813 00000053 953.82 167.99 439.73 628.07 1038.27 385.19 1202.19 486.16 1024.20 557.80 999.28 605.60 1127.74 687.26
00035814 00000054 956.08 169.68 437.75 631.91 1040.64 386.56 1202.86 485.70 1025.91 557.21 1000.97 608.76 1129.19 688.95
00035815 00000055 958.42 171.62 436.72 633.59 1042.54 388.18 1203.83 486.35 1026.52 558.08 1003.23 611.74 1131.58 691.18
00035816 00000056 959.46 173.52 437.27 631.91 1041.66 390.76 1204.19 486.57 1027.50 559.49 1002.28 615.91 1130.13 693.59
00035817 00000057 959.19 172.74 437.82 630.02 1040.04 390.23 1203.39 487.65 1026.49 561.21 1000.45 615.54 1128.55 694.48
00035818 00000058 956.92 172.75 437.51 629.78 1036.82 390.91 1200.52 487.05 1023.08 559.93 997.56 615.89 1124.08 693.87
00035819 00000059 954.38 175.37 435.16 626.07 1032.80 389.50 1196.22 486.73 1017.62 557.21 993.60 613.16 1119.36 692.15
00035820 00000060 950.09 166.00 434.92 635.06 1026.72 387.94 1189.07 486.18 1009.53 554.86 988.90 610.98 1114.69 690.90
00035821 00000061 945.36 159.76 433.17 643.74 1019.73 384.44 1181.70 483.04 1002.18 553.97 983.32 610.42 1109.91 690.83
00035822 00000062 938.96 167.89 432.60 638.64 1014.65 381.89 1174.70 484.01 995.56 555.42 977.08 608.49 1103.12 692.32
00035823 00000063 928.97 175.55 436.37 635.10 1013.51 390.71 1177.72 475.71 991.54 551.21 963.86 617.49 1096.66 685.11
00035824 00000064 924.16 170.42 436.87 638.82 1008.88 391.54 1172.98 474.72 989.39 549.42 961.68 617.52 1092.28 683.74
00035825 00000065 920.30 162.18 436.59 641.78 1002.97 392.59 1169.28 474.53 986.43 548.40 958.21 616.06 1091.18 681.23
00035826 00000066 919.66 162.59 435.50 639.88 1002.29 392.15 1168.62 474.91 985.82 548.38 957.19 615.25 1089.79 681.10
00035827 00000067 919.56 163.82 436.83 637.90 1003.20 391.89 1169.70 476.00 985.94 548.49 956.39 614.86 1089.21 681.84
00035828 00000068 922.52 170.13 437.66 632.32 1008.54 392.36 1172.03 480.68 986.53 552.12 958.11 612.31 1090.08 682.54
00035829 00000069 924.76 183.78 438.12 624.56 1012.50 394.62 1175.04 484.47 989.88 556.21 960.58 614.73 1093.88 686.44
00035830 00000070 926.98 194.73 441.34 623.10 1016.94 397.09 1178.53 492.55 993.62 564.25 966.83 617.22 1101.11 693.24
00035831 00000071 930.40 196.18 442.72 629.23 1018.78 406.17 1183.30 499.96 994.77 572.01 971.10 626.48 1107.55 701.03
00035832 00000072 934.54 188.69 441.92 642.89 1019.59 412.22 1183.41 504.51 994.89 576.17 975.73 635.12 1110.89 708.38
00035833 00000073 933.20 189.11 440.42 642.93 1017.16 410.51 1182.64 503.54 996.60 576.62 971.69 636.12 1107.77 709.84
00035834 00000074 929.52 187.57 436.01 636.99 1011.82 404.05 1175.00 494.10 991.45 570.48 964.88 629.86 1099.72 701.05
00035835 00000075 924.93 178.99 431.99 639.08 1009.27 397.64 1166.24 480.26 984.88 553.82 958.89 624.41 1084.87 690.30
00035836 DELETE   917.80 147.06 431.87 653.88 997.66 387.98 1154.70 464.27 980.49 539.20 948.50 613.71 1074.41 674.95
00035837 DELETE   914.62 148.57 424.07 644.05 987.99 376.42 1141.80 452.70 975.07 531.26 941.74 606.35 1063.11 668.47
00035838 00000078 905.85 135.25 424.70 648.38 976.35 368.85 1131.98 445.89 961.52 520.96 934.29 600.94 1050.18 664.69
00035839 00000079 899.65 138.10 424.60 646.71 971.41 371.62 1125.00 448.97 954.13 522.43 930.11 604.94 1040.86 668.64
00035840 00000080 897.52 138.40 421.88 659.28 964.93 381.95 1117.19 464.24 946.12 533.42 926.80 615.41 1035.68 682.78
00035841 DELETE   897.91 164.60 426.66 646.10 964.65 400.74 1119.67 486.61 945.50 556.16 929.20 629.46 1046.32 698.76
00035842 00000082 896.08 178.30 428.45 640.45 966.45 410.95 1118.70 502.85 943.15 571.87 925.79 636.02 1044.77 710.02
00035843 00000083 892.21 179.98 432.49 644.12 962.88 412.29 1112.67 511.38 935.02 578.59 923.11 636.82 1040.15 716.60
00035844 00000084 885.83 186.95 431.64 637.43 950.79 410.73 1107.39 516.74 930.60 573.41 913.65 631.19 1032.28 716.16
00035845 00000085 879.83 191.32 427.65 631.12 940.61 411.06 1095.29 518.81 919.18 575.28 906.18 629.95 1023.13 716.75
00035846 00000086 878.42 196.89 420.83 627.60 937.26 414.27 1089.50 523.41 915.00 577.20 903.03 630.29 1019.35 718.73
00035847 00000087 867.07 204.56 429.65 632.62 942.69 419.16 1091.46 532.82 910.75 582.84 903.17 637.94 1013.89 727.88
00035848 00000088 869.20 212.66 426.92 627.32 941.92 425.03 1094.63 536.68 916.86 590.85 903.73 644.37 1018.52 732.97
00035849 DELETE   870.26 215.24 429.69 630.48 940.82 430.18 1100.49 537.71 922.36 599.21 904.73 653.11 1023.93 738.84
00035850 00000090 878.32 217.94 427.19 636.67 944.10 434.95 1108.75 536.74 929.24 603.79 909.63 662.78 1033.46 744.00
00035851 00000091 885.76 213.19 423.46 639.72 948.43 439.90 1106.12 533.59 933.90 616.95 922.25 666.92 1042.92 742.42
00035852 00000092 884.19 210.43 429.44 644.26 951.81 449.48 1119.19 537.24 948.90 621.78 928.31 677.61 1053.14 748.35
00035853 00000093 887.32 214.84 428.25 640.52 955.75 452.41 1128.50 543.15 955.02 629.13 929.38 678.55 1060.70 751.49
00035854 00000094 890.22 215.95 432.89 648.50 960.33 458.83 1137.31 545.93 960.82 634.70 934.44 689.07 1068.95 759.03
00035855 00000095 890.22 220.06 433.46 645.54 961.87 458.96 1137.98 547.58 961.11 636.25 935.47 688.09 1070.74 759.23
00035856 00000096 887.35 216.86 435.02 642.21 959.95 453.07 1133.73 549.06 955.70 633.11 931.75 678.10 1064.94 755.14
00035857 00000097 886.67 213.58 428.72 638.85 956.71 448.47 1124.68 546.23 950.19 626.45 928.28 671.08 1056.94 749.60
00035858 00000098 884.64 211.10 430.50 637.59 959.09 445.39 1120.39 543.21 947.01 618.15 927.99 664.71 1051.74 743.39
00035859 00000099 885.45 210.74 427.47 635.96 959.44 440.32 1115.52 542.91 941.56 616.19 926.78 658.73 1048.07 741.13
00035860 00000100 886.54 206.50 426.75 640.39 960.45 436.83 1113.87 540.42 940.46 614.55 928.74 656.76 1049.85 739.65
00035861 00000101 887.23 210.28 427.17 635.59 960.98 436.39 1115.84 540.25 941.36 616.45 930.85 656.02 1053.88 739.02
00035862 00000102 894.78 207.05 428.76 646.24 961.36 431.86 1113.41 538.40 936.10 615.59 926.66 658.78 1050.22 745.57
00035863 00000103 895.78 207.20 432.13 641.41 963.17 429.42 1115.76 534.60 938.08 612.95 929.30 656.48 1053.02 741.85
00035864 00000104 897.04 206.87 435.10 639.06 966.15 427.93 1118.71 532.45 940.40 611.20 931.48 654.03 1055.39 738.70
00035865 00000105 896.13 206.74 437.54 639.33 967.70 427.80 1119.75 532.33 940.76 608.54 929.53 654.29 1052.31 739.10
00035866 00000106 895.25 210.98 438.74 635.67 968.85 428.44 1122.01 532.25 944.06 608.09 929.40 655.87 1051.22 740.25
00035867 00000107 896.78 206.76 439.30 640.88 972.69 428.18 1123.95 531.76 946.09 605.86 931.46 655.42 1050.95 739.63
00035868 00000108 900.52 208.77 437.48 641.60 975.30 428.08 1127.30 530.81 949.50 606.00 934.87 657.17 1053.90 740.84
00035869 00000109 902.51 210.63 435.21 639.88 975.87 427.52 1127.33 532.07 949.37 609.73 938.09 655.12 1059.75 740.02
00035870 00000110 903.17 210.98 435.28 633.26 974.64 427.82 1127.30 531.48 949.09 610.20 938.33 653.86 1060.01 737.81
00035871 00000111 901.63 209.26 437.27 632.89 973.33 427.68 1127.11 531.84 948.68 609.75 937.16 652.42 1059.76 736.81
00035872 00000112 902.26 207.15 436.14 637.95 974.06 427.63 1126.81 532.14 948.48 609.86 936.74 654.83 1056.93 739.65
00035873 00000113 901.96 211.03 434.25 638.44 976.21 428.37 1126.19 533.08 949.54 609.37 936.22 657.52 1052.74 742.70
00035874 00000114 898.92 225.82 429.97 615.71 974.11 444.13 1130.29 535.39 961.48 616.08 942.86 663.59 1062.93 736.78
00035875 00000115 899.02 225.29 437.86 620.82 976.62 450.40 1131.59 542.14 964.76 619.94 946.93 666.14 1067.90 739.24
00035876 00000116 898.69 228.45 442.28 620.06 978.39 452.07 1137.37 541.11 970.71 621.98 949.03 668.96 1074.62 739.71
00035877 00000117 903.85 224.68 439.82 626.56 983.71 452.62 1144.97 539.90 976.45 622.10 952.49 670.72 1080.58 739.96
00035878 00000118 909.53 217.53 443.26 636.11 988.40 449.34 1141.78 545.98 968.60 625.67 955.50 669.82 1079.43 747.72
00035879 DELETE   910.82 218.18 438.09 634.62 988.42 451.58 1160.13 538.48 984.94 624.07 955.84 670.55 1095.00 739.35
CROP_BBOX: 437 0 1667 1080
