Video ID: 	soOC-hstu0Y
H: 	1080
W: 	1920
FPS: 	25.0

FRAME INDEX X0 Y0 W H [Landmarks (5 Points)]

00016715 00000000 499.35 153.62 477.07 666.36 640.06 402.02 868.58 390.95 771.91 557.19 672.51 656.00 852.67 648.07
00016716 00000001 507.27 148.81 478.48 673.16 644.80 406.53 871.32 392.49 777.13 553.96 684.45 661.71 861.03 650.62
00016717 00000002 511.18 149.60 477.68 665.16 647.47 407.48 869.95 392.25 775.94 543.74 689.03 660.46 857.66 648.12
00016718 00000003 510.59 138.84 476.17 674.91 641.26 398.65 867.08 383.46 770.53 534.40 682.71 657.68 852.10 645.56
00016719 00000004 511.14 136.91 473.43 672.61 634.13 388.62 864.39 376.47 758.09 524.70 668.82 651.26 838.57 641.86
00016720 DELETE   513.51 132.58 471.13 671.26 634.01 382.84 863.85 372.21 754.79 513.93 667.55 642.70 840.17 633.77
00016721 00000006 514.49 129.14 472.23 671.32 637.31 376.77 866.56 368.11 757.64 506.39 670.20 639.03 840.82 631.12
00016722 DELETE   524.11 130.41 464.35 659.97 644.27 372.42 869.97 362.51 765.07 499.61 681.54 635.02 846.72 625.60
00016723 00000008 530.27 121.22 463.82 652.69 647.93 366.39 877.59 359.19 771.96 494.93 685.08 632.71 850.38 624.99
00016724 00000009 537.23 118.19 466.69 644.86 654.16 362.97 884.07 357.93 776.58 492.48 691.41 629.33 855.77 623.38
00016725 00000010 538.34 117.88 470.72 640.64 659.97 361.76 891.94 358.78 786.02 492.36 696.52 628.32 862.55 623.77
00016726 00000011 541.71 116.13 472.31 645.16 662.29 359.28 894.54 356.60 786.44 491.70 699.17 625.62 865.10 621.23
00016727 00000012 546.82 106.16 467.92 652.25 665.68 359.46 897.69 360.45 784.07 497.38 697.15 621.17 863.96 622.01
00016728 00000013 547.76 105.63 467.99 646.40 666.33 357.22 898.73 357.95 784.80 495.03 697.95 617.86 863.94 618.48
00016729 00000014 546.10 104.42 473.65 647.17 672.61 353.73 907.76 351.60 795.87 486.85 702.85 611.93 864.36 612.07
00016730 00000015 545.78 100.40 476.58 647.23 676.07 351.13 912.03 350.54 800.60 485.09 705.69 610.09 866.75 611.34
00016731 00000016 548.37 99.66 474.76 643.39 677.34 351.22 914.26 349.10 803.82 481.49 708.09 608.92 871.56 608.86
00016732 00000017 547.60 98.60 474.73 644.30 677.13 350.96 911.94 348.04 803.72 480.12 709.78 608.83 871.21 608.05
00016733 00000018 545.64 99.36 476.71 645.01 676.90 350.66 910.73 347.81 802.93 480.34 710.20 609.32 870.56 608.66
00016734 00000019 543.87 98.03 476.65 646.69 677.03 351.06 912.54 348.94 804.13 480.21 707.57 610.66 870.74 610.52
00016735 00000020 543.82 100.73 476.43 646.33 677.02 351.96 912.49 350.23 804.48 482.42 706.66 612.55 867.95 612.86
00016736 00000021 543.95 102.13 476.71 642.97 677.04 352.91 912.89 351.44 803.93 482.67 705.88 613.27 867.44 613.72
00016737 00000022 546.61 103.09 473.16 648.30 673.66 355.67 904.68 355.54 796.70 492.54 708.98 619.45 867.86 619.28
00016738 00000023 545.42 103.52 475.15 656.01 671.58 355.81 903.11 355.72 794.51 491.70 707.47 620.41 867.73 620.17
00016739 00000024 545.00 101.99 475.10 659.77 671.97 356.02 902.82 356.04 794.15 491.16 707.37 620.71 867.72 620.53
00016740 00000025 544.74 101.18 476.67 659.15 672.22 357.02 903.56 356.76 794.88 492.16 707.60 620.76 867.91 620.40
00016741 00000026 544.87 100.67 477.67 667.36 672.77 357.80 903.51 357.80 795.01 491.71 708.37 622.97 869.15 622.75
00016742 00000027 545.63 100.86 478.58 668.28 673.52 358.06 905.14 358.92 795.32 493.06 708.39 623.77 870.34 624.18
00016743 00000028 542.01 110.09 478.80 662.54 672.38 361.03 905.67 358.85 800.35 489.39 708.42 628.52 872.37 624.40
00016744 00000029 539.45 118.33 479.36 656.92 669.51 365.24 902.23 362.45 798.34 493.11 707.61 632.69 871.06 628.26
00016745 00000030 538.04 122.60 479.21 659.35 666.86 366.89 899.66 362.70 796.13 495.94 706.52 636.12 870.66 630.64
00016746 00000031 538.03 125.83 479.26 655.36 666.39 367.31 899.99 362.58 796.47 494.99 707.16 637.64 871.57 631.75
00016747 00000032 538.36 127.44 477.94 657.90 666.20 368.21 898.72 362.97 796.56 494.68 706.82 639.31 871.65 633.10
00016748 00000033 538.31 129.52 477.09 655.82 666.47 369.06 898.41 363.53 797.44 495.96 707.82 641.22 871.20 634.81
00016749 00000034 539.49 131.32 476.76 659.07 666.45 369.73 898.69 364.35 796.70 497.46 707.39 641.91 871.49 635.90
00016750 00000035 540.11 130.87 476.66 661.91 666.32 369.99 898.68 365.16 795.45 497.96 705.43 641.86 870.26 636.51
00016751 00000036 540.65 129.03 477.17 663.00 668.62 370.27 901.57 366.28 797.54 497.26 706.21 639.88 873.11 635.04
00016752 00000037 541.93 127.21 478.64 666.44 670.42 370.60 902.76 367.68 799.23 498.01 706.89 638.69 873.73 634.73
00016753 00000038 542.28 127.04 479.94 666.52 671.99 371.12 904.19 368.80 800.65 499.29 707.49 637.30 876.00 633.75
00016754 00000039 541.98 128.33 479.82 663.23 671.72 371.72 904.46 369.89 800.44 499.90 706.42 636.90 876.52 633.73
00016755 00000040 541.73 129.37 478.51 660.59 671.86 372.87 903.44 370.81 800.24 501.06 706.51 637.17 875.71 633.85
00016756 00000041 541.04 132.42 477.21 661.94 670.94 373.31 902.10 370.62 800.36 503.09 705.76 641.52 872.73 638.05
00016757 00000042 540.35 134.13 475.21 661.91 669.51 374.44 900.96 370.59 800.31 504.61 705.82 643.68 872.92 639.21
00016758 00000043 539.26 135.25 473.15 658.40 668.19 376.71 898.77 372.14 799.01 507.24 705.98 643.76 872.94 638.56
00016759 00000044 539.14 134.83 472.45 655.49 667.05 375.11 898.32 370.55 798.07 506.36 705.13 642.40 871.32 637.25
00016760 00000045 540.14 136.04 470.00 649.07 665.31 375.14 896.55 370.56 794.56 504.59 703.84 640.81 869.83 635.74
00016761 00000046 540.86 135.25 470.41 659.66 665.88 375.65 897.02 369.45 794.36 505.63 704.77 640.80 876.37 634.33
00016762 00000047 543.15 132.42 470.50 665.14 667.98 373.70 899.74 367.33 796.39 503.90 707.03 639.84 882.69 633.06
00016763 00000048 544.79 131.80 473.11 666.18 669.49 373.07 902.48 366.44 798.08 502.80 710.06 640.05 886.83 632.83
00016764 00000049 545.75 131.93 474.52 665.46 671.19 373.85 902.99 366.78 799.32 503.03 713.07 638.70 890.03 630.82
00016765 00000050 547.92 132.20 472.01 665.99 672.12 373.23 903.30 366.86 799.98 503.20 713.49 640.08 889.51 632.66
00016766 00000051 548.85 132.43 471.68 662.60 672.24 373.42 904.63 367.27 800.26 503.70 714.00 641.77 889.39 634.50
00016767 00000052 547.84 130.28 471.80 658.23 671.86 373.32 904.75 367.98 800.25 505.13 711.37 639.77 884.91 633.18
00016768 00000053 547.57 131.90 470.89 626.67 673.04 375.54 904.19 370.57 800.47 504.64 714.09 634.64 884.36 627.51
00016769 00000054 550.84 122.07 468.21 636.19 678.35 376.15 909.45 369.61 805.49 504.56 715.13 629.97 875.54 626.56
00016770 00000055 548.31 126.27 472.66 639.08 675.61 371.60 904.69 366.38 803.14 501.18 720.51 633.46 885.48 626.34
00016771 00000056 547.62 126.64 473.91 639.21 676.25 369.71 906.43 364.96 803.49 500.94 720.30 633.32 886.26 626.50
00016772 00000057 550.08 120.92 472.43 640.97 681.03 367.16 915.61 364.47 807.96 501.02 717.08 626.65 879.51 626.43
00016773 00000058 552.90 122.59 469.79 633.89 682.13 366.76 915.97 364.07 809.51 500.62 718.12 625.75 878.12 625.62
00016774 00000059 547.64 131.42 472.57 631.14 676.05 369.76 904.17 364.85 804.01 500.66 720.03 636.08 882.78 629.31
00016775 00000060 544.31 132.07 472.97 655.70 673.74 368.88 903.91 364.82 801.82 501.67 713.91 639.59 883.17 634.15
00016776 00000061 541.64 128.09 471.44 670.14 670.05 369.41 899.77 363.96 798.68 500.41 709.06 638.17 882.52 631.73
00016777 00000062 538.46 127.41 468.11 670.74 665.67 367.84 895.12 361.82 794.46 499.00 705.51 636.09 879.53 629.23
00016778 00000063 532.69 126.72 469.03 668.23 658.39 366.64 892.63 360.72 790.76 498.78 697.07 637.85 871.91 631.28
00016779 00000064 526.58 128.95 468.55 648.40 656.71 364.12 889.12 361.22 789.31 498.06 694.88 633.94 862.50 629.46
00016780 00000065 522.46 129.80 466.36 635.05 655.32 361.94 887.52 363.22 787.96 499.01 690.33 633.98 850.58 633.16
00016781 00000066 519.59 131.38 466.66 633.39 654.81 362.49 886.34 362.64 788.88 499.09 692.16 636.42 850.52 634.69
00016782 00000067 518.49 122.97 470.62 631.11 652.19 363.86 887.04 364.70 780.79 505.97 688.43 632.46 847.66 634.51
00016783 00000068 515.96 127.66 466.28 610.74 651.04 366.50 883.48 366.85 779.15 507.23 687.79 630.57 841.58 632.52
00016784 00000069 508.49 122.99 472.98 638.96 646.10 366.66 880.36 367.69 774.73 506.84 681.66 634.64 838.45 637.15
00016785 00000070 508.97 129.76 467.09 648.96 648.11 364.65 880.03 364.76 779.93 502.32 682.18 638.50 841.37 637.30
00016786 00000071 508.42 131.11 468.39 652.74 647.88 364.76 879.19 364.84 780.40 504.49 680.05 640.78 838.16 639.93
00016787 00000072 507.13 131.44 470.84 660.97 646.43 364.28 880.30 364.54 778.93 504.29 678.57 640.59 841.26 640.05
00016788 00000073 509.19 135.27 460.66 637.98 648.91 365.23 880.35 365.99 781.44 503.43 679.54 641.01 837.48 640.52
00016789 00000074 508.08 123.24 472.24 654.77 646.08 366.80 878.64 367.23 773.73 504.40 681.07 639.40 836.50 641.49
00016790 00000075 508.50 124.69 472.09 639.31 645.74 366.11 877.88 365.02 774.48 503.46 682.51 633.33 838.62 634.15
00016791 00000076 508.87 124.85 472.05 629.29 647.44 365.45 878.92 365.02 775.38 503.66 682.20 625.64 840.71 627.02
00016792 00000077 509.35 123.29 470.70 632.92 647.15 365.69 878.89 365.08 774.89 504.81 682.46 626.09 842.47 627.34
00016793 00000078 510.59 132.62 465.98 641.96 650.85 365.43 880.97 365.25 782.77 502.22 683.67 636.29 844.11 634.87
00016794 00000079 511.39 133.34 468.45 652.24 650.46 365.34 881.98 365.43 783.45 503.43 682.10 639.65 843.24 639.07
00016795 00000080 510.87 130.55 477.16 672.13 651.04 363.82 884.09 363.40 785.02 503.44 682.55 638.93 850.35 637.53
00016796 00000081 513.02 130.42 474.93 671.15 651.64 364.57 885.24 364.76 785.21 503.67 681.90 636.89 853.30 636.03
00016797 00000082 514.20 132.72 473.65 667.33 652.21 366.85 885.54 367.13 785.92 505.20 680.89 638.73 852.43 638.03
00016798 00000083 514.29 132.03 475.84 672.26 653.04 367.32 885.86 367.17 787.24 506.62 681.84 638.67 853.36 637.68
00016799 00000084 515.96 129.31 478.66 676.77 656.54 368.59 888.97 369.34 791.03 507.16 685.20 638.47 856.95 638.30
00016800 00000085 516.93 134.36 477.76 665.27 657.11 371.38 888.50 372.91 791.11 508.59 686.88 638.63 857.30 638.93
00016801 00000086 518.12 136.12 475.97 665.70 657.03 373.30 887.77 374.88 790.70 510.24 686.70 639.25 856.64 639.79
00016802 00000087 520.04 137.11 475.94 662.72 657.97 373.69 888.41 374.48 791.72 511.01 688.54 639.81 857.39 639.67
00016803 00000088 524.42 137.63 471.87 659.22 660.63 374.75 889.63 375.40 793.66 511.33 689.82 640.05 858.00 639.70
00016804 00000089 528.07 138.63 470.20 656.61 662.27 375.50 892.40 374.16 796.29 512.12 692.92 641.44 863.72 639.14
00016805 00000090 530.67 137.98 471.80 656.75 662.98 377.06 893.36 373.65 797.03 511.67 697.30 641.81 868.72 637.72
00016806 00000091 532.15 136.39 471.13 655.62 664.50 375.83 894.17 372.39 797.88 509.96 699.05 639.98 868.99 635.77
00016807 00000092 531.29 137.56 471.37 653.86 664.37 375.52 894.18 371.56 799.30 510.70 699.51 641.69 868.35 637.09
00016808 00000093 528.56 138.72 467.69 642.52 663.93 376.91 891.83 373.77 798.98 510.56 700.21 640.33 864.77 636.23
00016809 00000094 530.05 133.98 466.52 645.02 663.73 375.43 892.96 371.79 799.11 509.42 701.13 638.85 867.38 634.28
00016810 00000095 531.22 132.60 468.14 646.43 664.65 373.20 894.61 368.41 803.39 508.88 704.04 642.96 868.21 637.34
00016811 00000096 531.39 132.65 465.55 636.51 664.64 371.59 892.77 367.42 802.57 506.35 703.87 639.06 865.15 633.89
00016812 00000097 531.01 134.74 466.16 647.27 663.86 371.07 891.92 366.14 803.13 507.51 701.93 644.55 863.89 639.07
00016813 00000098 534.37 135.11 465.15 649.41 667.72 371.75 893.53 365.04 807.72 505.92 709.71 646.44 868.61 639.71
00016814 00000099 536.00 122.51 472.50 661.09 675.11 375.49 905.46 369.47 811.62 508.17 713.14 641.69 869.03 637.96
00016815 00000100 535.68 122.49 473.71 658.16 675.54 376.05 905.78 369.39 812.24 507.32 714.39 640.04 870.03 635.79
00016816 00000101 536.64 133.42 469.76 651.52 671.61 378.00 897.62 369.82 812.22 509.04 714.10 649.77 875.67 641.43
00016817 00000102 537.46 134.51 470.17 658.12 677.70 380.06 902.59 375.75 812.34 508.86 714.04 650.38 876.45 645.44
00016818 00000103 537.88 134.29 470.79 661.70 684.40 383.16 905.72 378.60 818.75 508.58 719.54 653.76 877.46 648.55
00016819 00000104 541.07 128.29 473.25 661.72 688.20 381.07 906.77 380.37 818.48 504.96 720.46 645.95 877.68 643.71
00016820 00000105 538.90 128.85 475.91 666.98 689.50 379.43 905.65 379.66 819.35 504.05 719.98 644.20 875.36 642.83
00016821 00000106 535.49 134.06 478.98 668.20 684.65 380.74 905.30 381.14 814.69 503.10 714.88 646.76 872.96 645.67
00016822 00000107 533.70 137.40 478.20 662.19 679.24 377.60 905.87 380.87 809.87 503.13 706.83 643.33 871.30 644.71
00016823 00000108 534.44 136.72 477.19 659.54 680.76 377.40 906.05 379.55 813.41 503.12 710.15 642.07 873.83 642.54
00016824 00000109 535.36 132.48 478.50 661.70 684.36 377.79 909.38 378.36 820.77 504.78 716.45 644.45 879.45 643.30
00016825 00000110 536.86 132.62 478.72 658.69 682.82 377.98 909.48 376.58 819.65 503.71 717.50 643.08 882.46 640.33
00016826 00000111 535.75 134.44 477.11 659.45 679.42 377.25 905.52 376.26 814.86 504.33 712.83 642.09 878.15 639.90
00016827 00000112 535.53 133.82 475.49 656.86 675.30 377.31 904.54 377.75 807.97 506.03 705.86 641.01 874.84 639.86
00016828 00000113 536.20 133.37 477.02 657.83 676.51 376.93 907.07 377.59 808.89 507.83 706.53 639.44 880.11 638.46
00016829 00000114 538.73 130.18 479.50 657.19 680.85 378.75 910.39 378.57 815.13 508.78 711.63 637.82 887.25 635.89
00016830 00000115 543.67 118.88 478.56 677.64 694.67 382.54 918.35 377.59 822.78 506.87 719.65 634.13 886.80 631.54
00016831 00000116 543.89 120.37 480.65 678.71 694.08 382.97 919.05 378.36 821.72 509.63 717.82 635.25 887.16 632.89
00016832 00000117 543.71 136.67 481.55 657.38 683.90 381.95 915.41 380.87 817.62 512.97 714.72 640.11 896.78 637.22
00016833 00000118 543.46 135.32 481.51 659.76 683.08 381.11 914.27 381.05 815.53 512.82 713.25 640.72 893.85 638.74
00016834 00000119 543.02 123.04 483.07 679.70 692.18 381.95 916.69 379.44 818.65 513.17 716.84 638.75 881.79 638.20
00016835 00000120 544.77 121.76 481.27 676.63 695.00 384.08 919.07 378.77 824.37 513.27 722.83 639.35 887.06 636.48
00016836 00000121 545.26 123.29 482.59 684.41 696.13 384.21 919.18 378.17 825.57 513.27 725.81 641.75 891.37 637.91
00016837 00000122 544.79 125.42 480.57 673.06 692.81 384.07 916.95 379.42 820.28 514.26 721.50 642.70 879.77 640.56
00016838 00000123 542.98 124.13 480.35 676.91 690.71 382.78 915.10 380.24 818.34 514.38 717.19 643.05 875.76 642.77
00016839 00000124 546.43 124.69 479.55 666.09 694.63 384.15 918.90 379.62 823.35 516.47 723.06 641.41 880.48 639.50
00016840 00000125 547.76 125.40 478.57 666.09 700.10 383.73 921.90 377.61 830.50 515.54 729.83 638.67 888.57 635.29
00016841 00000126 548.10 125.43 479.52 672.76 701.11 383.03 922.12 377.03 831.74 515.97 732.41 641.24 889.93 637.89
00016842 00000127 547.14 126.03 480.95 673.41 698.85 383.83 921.01 378.82 828.10 515.93 727.99 642.51 885.21 640.12
00016843 00000128 547.89 125.92 481.29 680.73 699.49 382.32 921.64 378.64 827.37 515.21 726.78 643.23 885.27 641.90
00016844 00000129 549.89 123.26 484.09 693.46 704.68 380.79 925.03 377.33 832.78 514.21 730.51 642.14 893.14 640.75
00016845 00000130 553.47 125.96 485.31 683.21 709.31 381.42 931.73 377.83 838.88 515.43 737.65 644.25 896.82 643.26
00016846 00000131 555.47 125.87 486.62 685.38 713.42 379.84 935.18 377.48 843.01 514.12 741.92 643.76 900.96 643.87
00016847 00000132 561.51 127.97 483.07 680.84 715.84 379.57 940.56 378.63 845.94 516.07 744.34 644.88 904.42 646.15
00016848 00000133 565.87 126.86 482.16 678.51 717.63 379.98 943.49 378.81 848.70 519.40 746.75 644.41 908.52 645.40
00016849 00000134 567.55 127.38 480.57 671.84 719.61 379.32 943.50 378.12 851.18 519.75 750.49 643.51 908.31 644.53
00016850 00000135 569.08 128.02 475.96 656.24 720.59 379.59 944.98 376.28 855.34 519.79 755.32 639.73 910.67 638.97
00016851 00000136 567.95 127.95 475.72 654.92 720.13 379.04 945.91 375.58 856.28 519.87 756.40 641.20 910.31 640.27
00016852 00000137 566.94 128.07 477.00 657.53 718.14 378.92 945.40 374.52 855.37 520.26 756.11 644.16 909.79 642.42
00016853 00000138 564.76 128.06 479.37 661.98 718.47 376.96 946.75 373.52 855.51 517.44 755.01 642.82 910.84 641.72
00016854 00000139 566.24 126.34 478.58 662.66 721.01 374.46 950.66 370.71 861.08 514.05 759.34 642.16 915.90 640.65
00016855 00000140 567.46 126.28 478.01 658.28 722.10 374.69 953.79 372.54 861.80 516.98 758.43 640.69 916.05 640.66
00016856 00000141 568.57 125.36 477.40 655.75 724.12 375.26 953.56 372.77 863.83 520.05 760.41 638.92 916.96 638.68
00016857 00000142 570.71 122.26 479.59 656.20 727.29 375.01 957.70 372.59 869.03 518.67 765.59 636.70 924.35 636.12
00016858 00000143 572.83 121.19 477.79 651.87 729.16 376.09 959.39 372.57 872.81 519.29 769.85 635.59 928.58 633.91
00016859 00000144 573.65 121.23 480.14 651.89 729.60 376.68 960.02 372.47 873.13 518.86 770.49 634.53 931.55 632.08
00016860 00000145 574.51 121.89 480.61 655.12 730.33 376.49 960.34 372.41 873.92 518.92 770.61 635.65 931.55 633.25
00016861 00000146 574.17 119.45 483.61 663.09 732.29 375.91 961.10 372.40 875.83 517.85 772.17 635.22 934.48 633.15
00016862 00000147 574.61 119.73 483.44 667.43 734.16 377.38 961.83 375.46 877.04 518.80 772.90 638.58 933.07 637.83
00016863 00000148 574.50 117.78 483.79 665.15 738.18 386.07 964.44 382.06 879.26 524.46 773.21 638.17 933.49 635.97
00016864 00000149 575.34 119.06 484.95 665.85 737.75 387.61 963.77 383.36 879.15 525.19 773.71 640.78 933.09 638.22
00016865 00000150 574.99 120.08 486.59 668.31 737.80 386.86 964.06 382.56 879.26 525.06 775.08 642.88 933.35 640.26
00016866 00000151 576.48 122.70 483.81 657.70 736.38 386.17 962.72 381.04 877.94 525.89 774.54 640.84 931.25 637.76
00016867 00000152 576.49 121.79 481.78 658.34 735.85 383.55 963.01 380.06 877.55 524.87 773.48 640.52 929.81 638.98
00016868 00000153 576.24 122.28 482.54 660.85 736.35 383.52 961.10 380.01 877.68 523.48 774.40 642.17 927.86 640.75
00016869 00000154 576.81 122.44 484.06 661.04 737.36 383.79 962.35 379.54 880.52 522.44 777.99 644.76 929.53 642.80
CROP_BBOX: 273 0 1287 966
