Video ID: 	2Bw4XUWgx6U
H: 	1080
W: 	1920
FPS: 	24.0

FRAME INDEX X0 Y0 W H [Landmarks (5 Points)]

00205707 00000000 699.98 144.15 565.61 709.81 763.13 442.28 934.78 412.16 792.28 599.51 875.80 709.23 997.07 681.86
00205708 DELETE   703.70 139.81 568.82 708.38 763.78 441.97 934.30 418.39 788.82 591.87 873.90 701.05 991.00 679.23
00205709 00000002 704.70 143.49 565.57 704.98 763.71 440.89 932.86 418.77 786.12 591.93 872.87 700.88 989.47 680.22
00205710 00000003 704.25 146.15 564.03 702.16 763.17 441.69 932.42 420.51 785.58 594.22 870.57 701.59 988.25 681.96
00205711 00000004 702.24 148.45 564.44 700.08 761.35 441.02 934.17 421.85 786.71 594.74 867.17 701.59 986.68 683.64
00205712 00000005 701.25 147.33 565.29 702.60 759.97 441.15 934.35 419.94 785.90 593.54 866.39 702.38 987.74 682.68
00205713 00000006 701.05 143.54 569.35 705.10 759.95 438.47 936.18 416.10 787.59 588.72 866.83 701.32 987.94 680.96
00205714 00000007 692.63 139.73 577.06 711.97 761.75 435.22 939.19 403.93 792.97 591.08 869.45 706.23 994.16 677.83
00205715 00000008 692.51 140.54 572.61 710.66 760.38 437.34 936.94 403.76 792.56 590.58 868.87 707.75 992.69 677.46
00205716 00000009 702.78 144.03 562.07 705.87 758.13 443.58 933.15 416.71 784.49 591.00 863.48 704.56 986.23 680.20
00205717 00000010 702.96 144.45 561.68 705.40 758.06 443.57 933.23 416.60 784.53 590.99 863.35 704.64 986.38 680.16
00205718 00000011 698.21 139.57 562.63 714.74 752.82 448.41 929.54 421.70 780.75 597.58 857.40 710.96 979.00 687.19
00205719 00000012 694.25 146.85 566.00 713.69 751.42 454.31 927.11 428.06 778.27 604.54 856.53 717.80 973.45 694.41
00205720 00000013 692.10 148.19 564.25 718.50 747.19 461.46 922.07 435.84 771.36 614.29 852.93 723.06 971.63 699.20
00205721 DELETE   690.79 146.49 559.96 723.17 746.92 466.79 918.32 441.05 768.38 617.67 853.31 726.26 971.64 701.44
00205722 00000015 681.80 148.47 566.69 730.46 742.51 471.32 919.06 446.32 767.86 625.40 851.17 731.88 974.15 707.53
00205723 DELETE   677.64 156.88 565.18 726.60 739.92 471.88 913.82 451.93 764.06 634.51 848.74 735.20 968.71 715.38
00205724 00000017 675.60 163.25 566.58 723.33 737.68 474.82 913.14 456.43 761.87 637.95 846.77 738.01 966.92 719.63
00205725 00000018 673.67 158.14 568.51 728.93 737.05 475.58 915.40 454.21 764.58 636.70 847.32 739.95 968.97 718.92
00205726 DELETE   671.27 154.80 569.43 721.07 738.08 471.00 927.78 446.52 780.96 630.87 851.31 738.57 975.93 715.59
00205727 DELETE   671.61 149.23 580.53 719.14 739.25 459.88 937.98 428.95 791.68 619.08 854.02 730.42 986.60 702.60
00205728 00000021 685.75 126.54 576.31 729.51 750.83 444.39 953.06 399.79 800.85 588.04 852.84 716.79 999.39 678.34
00205729 DELETE   687.02 123.60 581.02 725.85 751.01 432.39 956.27 388.31 802.19 579.31 856.49 710.63 1003.56 673.07
00205730 00000023 689.97 130.47 578.21 712.56 752.22 425.82 961.54 382.66 805.41 572.95 853.23 705.53 1001.54 669.19
00205731 00000024 693.26 122.71 583.99 716.42 755.69 422.54 966.46 376.33 808.46 562.91 853.00 702.17 1001.62 663.78
00205732 00000025 698.22 127.57 576.17 713.22 767.87 419.48 961.21 367.06 812.15 557.51 860.77 697.45 1007.47 654.83
00205733 00000026 701.61 131.50 571.86 700.52 770.11 412.67 966.28 360.64 816.72 552.13 861.39 692.19 1009.99 650.56
00205734 00000027 703.89 124.14 574.70 704.04 771.40 407.29 971.99 356.35 819.97 546.69 861.86 687.60 1013.20 647.56
00205735 00000028 701.13 119.99 586.43 710.14 769.54 396.65 975.05 351.88 816.08 541.54 860.29 687.31 1008.28 650.05
00205736 00000029 703.88 120.89 583.87 707.20 770.16 391.73 977.42 346.66 818.54 535.11 859.98 683.34 1010.06 645.81
00205737 00000030 705.01 118.47 583.51 714.98 763.03 382.58 971.37 346.50 809.44 535.63 867.31 682.90 1001.30 652.50
00205738 00000031 707.72 116.19 582.89 716.61 765.07 383.81 974.19 344.14 809.74 530.97 866.40 682.17 1002.13 648.59
00205739 00000032 710.30 111.41 581.68 721.47 768.21 384.43 976.06 344.00 810.72 528.50 867.03 681.48 1002.08 647.10
00205740 00000033 713.18 113.75 579.98 718.62 770.89 384.73 977.56 344.33 810.51 526.75 867.79 681.11 1001.95 646.62
00205741 00000034 713.30 113.28 579.42 719.23 770.89 385.02 978.56 344.02 811.58 525.66 867.28 681.68 1001.31 646.81
00205742 00000035 713.38 114.07 579.82 718.00 770.90 384.96 978.62 344.11 811.49 525.74 867.07 681.54 1001.10 646.79
00205743 00000036 711.76 118.95 580.02 713.92 769.14 384.42 978.06 343.72 812.12 526.41 866.47 682.77 1001.47 648.23
00205744 00000037 709.93 116.71 579.46 716.02 767.19 385.88 976.82 344.54 811.55 527.86 865.53 684.86 1000.22 649.84
00205745 00000038 705.70 114.90 580.14 724.29 765.11 385.29 974.13 345.29 810.39 531.20 865.09 686.26 999.75 652.53
00205746 00000039 709.75 118.72 569.51 708.20 777.88 398.76 979.43 344.49 825.64 528.56 858.66 683.26 1009.73 641.35
00205747 00000040 709.69 124.50 569.31 699.99 775.70 400.52 978.00 347.80 822.57 531.29 855.80 683.44 1006.97 642.75
00205748 00000041 707.12 131.56 569.97 688.73 773.56 402.60 975.24 351.88 820.22 535.11 854.86 683.03 1003.75 643.86
00205749 00000042 705.86 138.20 568.09 682.62 771.04 405.94 972.70 354.45 817.87 535.78 851.31 684.76 1002.33 644.73
00205750 00000043 705.20 133.12 567.20 691.40 769.30 408.23 971.63 357.28 814.88 537.44 847.47 688.35 999.67 648.62
00205751 00000044 701.85 130.21 570.54 696.25 768.63 409.81 971.86 359.07 815.35 540.72 847.62 690.61 1000.10 651.07
00205752 00000045 700.93 134.33 570.65 694.65 768.98 413.17 971.47 361.70 815.91 542.30 847.32 693.17 999.83 652.92
00205753 00000046 700.71 130.65 574.13 700.75 768.73 414.94 972.10 363.77 815.00 543.32 845.93 694.08 1000.86 653.96
00205754 00000047 701.76 130.68 574.32 702.53 769.44 416.15 972.86 365.92 814.37 544.54 845.20 695.23 1000.48 655.76
00205755 00000048 701.68 131.34 572.08 702.54 769.68 417.29 973.98 367.95 815.97 546.34 845.20 696.13 1001.05 657.44
00205756 00000049 701.29 129.84 573.73 705.02 769.12 419.68 974.92 370.01 816.70 548.10 845.07 697.83 1001.61 658.85
00205757 00000050 701.96 131.52 573.42 704.10 768.96 420.36 975.50 371.18 816.69 549.26 844.98 698.71 1002.65 660.08
00205758 00000051 702.50 135.00 572.29 703.89 769.92 420.75 976.70 372.69 817.92 550.91 845.29 699.69 1003.25 661.91
00205759 00000052 702.89 135.36 573.80 706.87 770.92 421.76 976.96 373.97 817.94 551.40 846.02 700.16 1004.51 662.51
00205760 00000053 704.67 133.39 573.46 710.58 771.28 422.67 978.55 375.15 818.54 552.24 845.88 701.19 1005.41 663.66
00205761 00000054 706.76 136.17 571.49 708.60 772.73 424.15 981.06 375.80 820.86 552.27 846.96 702.91 1006.61 664.76
00205762 00000055 705.88 133.52 573.98 712.20 772.05 424.47 982.59 376.78 821.78 552.57 846.36 703.02 1007.41 665.36
00205763 00000056 706.16 133.70 574.56 713.68 772.62 425.38 982.74 377.26 821.67 552.66 846.28 703.64 1007.84 665.54
00205764 00000057 706.33 135.70 575.27 711.90 773.17 425.19 984.48 378.05 822.74 553.77 845.85 704.13 1007.80 666.91
00205765 00000058 707.25 133.89 574.94 713.88 773.46 425.24 984.76 378.62 823.12 554.53 846.11 704.41 1007.93 667.64
00205766 00000059 706.31 133.88 575.11 715.11 772.97 425.12 985.07 379.05 823.27 555.77 845.86 705.06 1008.48 668.69
00205767 00000060 706.40 135.48 574.44 713.54 772.89 425.26 985.15 379.33 823.40 556.17 845.88 705.28 1008.84 668.98
00205768 00000061 706.16 136.46 573.09 713.42 772.94 425.81 985.67 379.76 824.22 556.93 846.01 706.39 1008.92 669.95
00205769 00000062 704.01 136.62 576.99 714.67 772.13 425.81 985.12 380.61 823.29 558.00 845.51 706.79 1008.63 670.91
00205770 00000063 703.36 135.37 577.47 716.62 771.57 426.58 983.28 381.45 822.52 558.84 845.38 707.50 1008.06 671.54
00205771 00000064 704.80 136.61 572.73 714.48 770.10 431.95 982.03 384.86 822.77 561.25 844.45 709.60 1008.41 672.12
00205772 00000065 702.33 139.22 576.78 713.85 769.75 429.14 982.09 384.58 821.09 561.83 842.73 709.22 1006.94 673.64
00205773 00000066 698.44 136.98 579.08 716.79 768.03 428.07 980.69 383.76 819.63 563.08 841.63 709.51 1005.91 674.15
00205774 00000067 696.81 135.94 582.57 719.11 767.35 428.08 979.21 384.12 817.10 564.53 840.56 710.51 1004.43 675.32
00205775 00000068 698.69 131.33 583.97 723.07 763.30 426.77 982.94 386.44 814.60 562.55 838.03 711.15 995.43 678.47
00205776 00000069 694.62 138.02 582.68 717.69 764.23 430.36 976.75 386.04 813.07 567.46 836.96 713.38 1000.16 677.98
00205777 00000070 696.74 137.57 582.19 718.94 759.38 429.68 978.87 389.94 809.28 565.27 833.50 713.14 990.48 681.06
00205778 00000071 694.77 144.20 579.28 713.76 757.34 431.49 975.71 390.76 807.67 565.60 832.11 713.78 988.86 680.78
00205779 00000072 693.14 143.40 579.23 716.24 755.67 432.56 974.16 392.09 805.97 567.29 830.49 713.62 988.15 680.88
00205780 00000073 692.54 144.28 581.10 715.66 755.02 433.47 973.49 392.85 804.82 567.15 829.66 714.13 987.12 681.26
00205781 00000074 691.88 143.95 580.46 716.06 754.44 433.77 973.10 393.54 804.40 567.78 829.04 714.02 987.49 681.42
00205782 00000075 692.00 143.01 579.64 717.46 754.49 433.81 972.19 394.06 803.78 568.52 828.80 714.29 986.79 682.08
00205783 00000076 692.72 142.68 581.56 719.35 754.69 433.11 973.39 393.85 804.67 570.40 829.93 715.66 987.62 683.81
00205784 00000077 693.57 142.90 581.12 718.72 755.66 433.82 973.90 394.24 804.92 570.67 831.26 716.21 988.45 684.03
00205785 00000078 694.23 143.53 581.37 718.62 755.90 434.23 973.79 394.29 804.96 571.70 832.02 717.17 988.88 684.65
00205786 00000079 694.24 143.67 581.21 718.50 755.59 434.67 973.75 393.94 805.06 571.79 832.55 718.11 989.23 684.87
00205787 00000080 695.73 146.26 578.73 715.93 756.48 434.52 974.10 394.06 805.30 571.90 833.10 718.37 989.18 685.37
00205788 00000081 695.54 147.07 579.35 715.49 756.29 434.55 974.24 393.90 805.54 571.93 833.11 718.59 989.29 685.41
00205789 00000082 695.15 146.84 579.47 715.75 756.33 435.33 973.65 394.06 805.78 572.22 833.80 719.12 989.26 685.39
00205790 00000083 694.60 145.81 580.29 717.22 756.34 435.47 973.44 394.50 805.73 572.67 833.80 719.29 989.17 685.82
00205791 00000084 694.05 145.42 581.16 717.43 756.11 436.61 973.43 394.66 805.64 572.43 833.68 719.88 989.12 685.56
00205792 00000085 694.10 145.61 580.25 717.59 756.04 436.58 973.37 394.80 805.37 572.92 833.38 720.00 989.21 685.83
00205793 00000086 693.09 146.77 580.24 716.92 755.63 436.26 972.94 395.08 805.08 572.80 832.64 719.85 988.39 686.24
00205794 00000087 692.83 144.16 581.43 718.89 755.34 437.01 972.86 395.46 804.99 572.82 832.37 719.90 988.29 685.97
00205795 00000088 692.74 146.04 580.56 718.87 755.17 437.06 972.57 395.42 804.96 573.13 831.93 720.35 988.58 686.35
00205796 00000089 691.69 145.71 579.94 719.68 754.67 438.09 971.61 396.63 804.73 573.72 831.41 720.28 987.70 686.43
00205797 00000090 690.43 147.09 580.38 718.92 753.29 438.56 969.87 397.17 803.81 574.11 830.58 720.65 986.65 686.78
00205798 00000091 690.88 147.48 578.91 719.01 752.89 438.77 968.45 397.81 802.78 574.40 829.87 720.81 985.56 687.34
00205799 00000092 691.56 147.80 578.02 719.15 753.26 438.87 968.03 397.99 802.07 574.58 830.13 721.10 985.73 687.64
00205800 00000093 691.43 147.68 579.24 718.55 753.02 439.04 968.34 398.06 801.95 574.89 829.94 721.31 985.78 687.73
00205801 00000094 691.61 147.95 579.68 718.18 753.02 439.03 968.48 397.69 801.99 574.66 830.28 721.56 985.85 687.69
00205802 00000095 691.40 148.21 579.96 718.36 753.14 438.93 968.63 397.40 802.01 574.04 830.16 721.60 985.70 687.61
00205803 00000096 691.54 149.01 578.71 717.98 753.25 438.82 968.72 397.07 802.75 573.69 830.30 721.42 985.85 687.32
00205804 00000097 690.90 145.79 579.48 720.63 753.79 437.31 969.49 396.65 802.62 573.42 830.03 720.56 985.68 687.40
00205805 00000098 691.24 147.87 577.95 718.85 754.01 436.51 969.87 396.10 803.36 573.27 830.23 720.25 986.07 687.32
00205806 00000099 691.12 147.37 578.49 719.01 753.57 436.29 970.09 396.06 803.08 573.32 829.72 720.03 986.41 687.19
00205807 00000100 690.89 145.44 580.60 721.52 753.72 435.27 971.09 395.11 803.19 572.76 830.04 719.77 987.51 686.95
00205808 00000101 692.61 145.87 580.72 719.70 754.47 434.83 971.97 394.07 803.10 571.45 830.53 719.21 988.31 685.78
00205809 00000102 693.45 143.57 580.21 722.54 754.96 434.50 973.58 393.85 804.14 569.20 828.71 718.26 987.41 685.18
00205810 00000103 695.02 143.65 577.72 721.16 756.35 435.02 974.00 393.66 804.76 568.04 829.50 718.13 987.25 684.63
00205811 00000104 695.21 144.95 578.45 719.24 756.92 435.21 974.11 392.97 805.13 566.35 829.95 717.71 986.50 683.49
00205812 00000105 695.29 145.40 578.01 716.19 757.53 433.71 973.57 392.76 805.37 566.05 830.30 715.68 985.62 682.62
00205813 00000106 695.90 146.51 576.74 714.56 758.10 434.24 974.61 392.49 807.50 565.31 831.31 715.23 987.05 681.40
00205814 00000107 699.20 147.71 575.71 713.21 760.10 432.53 976.57 391.78 808.14 565.26 832.39 714.12 988.84 681.04
00205815 00000108 699.23 148.00 575.26 712.31 760.73 432.44 977.23 391.62 809.55 564.78 833.06 713.89 988.95 680.82
00205816 00000109 699.30 145.86 576.24 713.77 761.63 431.36 978.82 390.73 811.00 563.53 833.71 714.00 989.59 681.14
00205817 00000110 695.97 146.00 577.82 714.22 764.48 433.08 976.19 389.79 812.18 567.68 833.63 715.69 996.70 681.14
00205818 00000111 699.37 144.99 578.20 714.55 762.70 429.27 980.37 389.74 812.01 562.59 834.18 712.94 989.82 681.11
00205819 00000112 699.91 142.30 577.71 717.07 763.57 428.31 981.44 389.84 812.47 562.78 834.56 712.41 990.49 681.47
00205820 00000113 699.90 141.87 578.42 717.67 763.84 427.95 981.87 389.75 812.61 562.87 834.65 712.47 990.77 681.77
00205821 00000114 699.87 141.28 578.86 719.05 763.75 428.34 981.53 389.61 812.37 562.73 834.72 712.72 990.89 681.52
00205822 00000115 694.71 142.40 579.32 717.98 765.67 433.24 976.71 389.96 813.35 566.73 835.75 715.18 997.61 680.59
00205823 00000116 694.97 143.55 580.07 717.44 766.13 435.83 977.38 392.04 814.24 566.97 836.42 715.71 998.41 680.69
00205824 00000117 694.90 144.44 579.83 718.13 766.35 434.53 976.99 391.82 813.00 568.01 836.66 716.09 998.51 681.88
00205825 00000118 694.97 146.17 580.97 719.39 766.20 435.20 976.49 392.28 811.72 569.44 836.75 718.28 998.87 683.78
00205826 00000119 693.73 150.15 583.66 717.65 765.49 437.48 975.72 393.90 811.97 572.50 838.65 720.30 999.11 685.20
00205827 00000120 692.94 150.88 582.04 719.75 764.18 439.16 974.55 396.40 811.98 575.45 837.70 722.30 999.84 687.79
00205828 00000121 692.09 150.47 582.73 720.13 763.18 441.68 972.99 398.41 811.74 576.54 837.39 722.58 999.33 687.60
00205829 00000122 690.27 150.57 586.49 723.49 756.98 442.51 971.44 404.37 803.69 580.83 843.99 728.95 992.01 696.77
00205830 00000123 688.24 149.89 588.85 723.41 756.23 443.72 971.82 405.55 804.86 581.85 844.51 729.98 992.67 697.71
00205831 00000124 687.19 149.59 587.27 723.35 755.40 445.46 972.00 407.92 805.91 583.39 844.04 730.21 993.35 698.40
00205832 00000125 687.59 149.56 585.82 724.09 755.88 446.21 973.13 410.39 807.39 584.86 843.98 729.81 994.20 699.40
00205833 00000126 688.06 148.92 586.64 725.20 755.67 447.72 973.70 412.13 807.60 585.87 844.46 730.55 994.61 700.40
00205834 00000127 687.56 149.53 586.71 724.87 755.31 447.57 973.02 412.16 806.75 586.37 844.31 730.83 994.44 700.70
00205835 00000128 687.78 155.19 586.05 717.99 755.02 446.57 973.80 411.19 807.42 586.55 845.23 730.84 995.11 700.88
00205836 00000129 688.80 152.41 585.47 720.86 756.66 446.28 975.38 410.73 809.98 586.02 847.29 731.27 996.25 701.06
00205837 00000130 689.99 152.14 586.37 721.61 757.18 446.26 976.46 409.49 810.45 585.85 848.05 732.50 997.26 701.28
00205838 00000131 691.31 152.61 585.18 719.36 764.50 443.98 976.91 401.64 816.24 581.20 841.10 725.95 1004.04 691.74
00205839 00000132 691.01 152.08 584.04 720.29 764.68 444.17 976.75 401.46 816.30 581.40 841.19 726.77 1003.41 692.28
00205840 00000133 701.40 150.07 576.88 720.02 764.59 441.52 978.75 401.98 812.74 576.51 842.15 723.14 995.98 690.47
00205841 00000134 700.50 152.50 576.26 718.39 763.38 441.69 977.71 401.89 811.85 576.64 840.78 723.15 995.45 690.26
00205842 00000135 700.92 151.37 575.61 719.40 763.60 441.88 977.81 402.19 811.83 576.78 840.73 723.26 995.35 690.47
00205843 00000136 699.75 152.68 577.44 717.05 762.14 441.44 977.17 401.86 810.32 576.55 839.17 723.24 993.18 690.65
00205844 00000137 698.98 149.31 576.83 720.98 761.27 441.63 975.10 403.01 808.51 576.84 837.29 723.43 990.97 691.72
00205845 00000138 699.52 147.78 570.93 724.08 761.21 450.58 973.89 408.87 809.69 577.85 834.61 726.91 989.86 692.69
00205846 00000139 696.35 148.47 570.08 724.77 761.95 455.37 973.40 412.70 812.72 579.18 834.07 729.20 988.98 694.15
00205847 00000140 691.66 158.38 580.35 721.54 754.90 451.78 965.84 419.06 803.05 587.24 840.37 733.47 981.91 705.51
00205848 00000141 689.87 160.91 581.96 722.19 750.67 446.86 963.03 415.18 796.83 587.07 837.14 733.55 979.42 706.54
00205849 00000142 689.85 160.95 581.20 722.96 749.88 446.24 962.29 414.10 795.93 587.31 837.29 734.22 979.14 706.88
00205850 00000143 689.91 161.04 581.67 723.54 749.33 446.42 962.46 413.56 795.56 586.76 836.50 734.99 979.02 707.06
00205851 00000144 689.58 159.98 582.36 726.03 749.10 447.34 962.10 414.21 794.97 587.75 836.21 736.11 978.89 707.95
00205852 00000145 690.47 160.92 580.12 725.71 748.87 449.67 961.45 415.78 794.53 588.93 835.78 738.03 978.23 709.23
00205853 00000146 688.62 162.56 581.10 722.05 747.38 450.19 961.84 416.71 794.52 589.98 834.61 739.32 976.04 711.10
00205854 00000147 687.69 164.44 580.44 721.30 746.56 451.42 962.38 417.24 795.13 591.59 833.93 741.34 976.53 712.49
00205855 00000148 685.90 164.89 579.35 718.72 746.02 452.57 962.37 418.28 796.47 592.87 833.70 742.13 975.62 713.25
00205856 00000149 686.66 167.67 581.01 714.96 746.28 451.34 964.12 418.56 796.02 592.75 832.57 741.99 974.29 714.50
00205857 00000150 687.20 165.59 580.72 717.98 746.38 451.38 963.78 418.65 796.56 593.22 833.07 742.38 974.39 714.90
00205858 00000151 687.53 169.00 579.67 714.68 746.96 451.92 964.42 419.37 797.57 594.33 833.20 742.62 974.48 715.29
00205859 00000152 687.28 169.20 580.41 714.40 747.15 451.35 965.04 420.05 797.02 594.06 832.25 742.66 972.62 716.48
00205860 00000153 687.18 169.45 580.04 714.35 747.05 451.11 965.10 420.18 797.22 593.96 831.91 742.37 972.38 716.52
00205861 00000154 686.75 169.96 580.16 713.94 746.73 451.24 965.48 420.34 797.24 593.91 831.10 742.85 971.91 716.98
00205862 00000155 686.62 170.70 578.49 713.17 746.32 450.81 965.44 420.59 797.74 594.98 831.22 742.63 972.93 717.18
00205863 00000156 686.42 171.40 580.05 713.99 746.46 451.45 965.73 421.79 797.80 596.14 831.57 743.30 972.54 718.34
00205864 00000157 686.32 170.08 579.79 715.48 746.98 451.25 965.89 422.71 798.18 597.19 831.71 743.27 972.39 719.24
00205865 00000158 686.71 168.59 579.86 715.98 748.34 451.30 966.06 423.81 799.07 598.34 833.10 742.52 972.52 719.33
00205866 00000159 687.32 170.14 578.76 716.30 749.61 451.63 966.67 424.93 800.10 599.41 833.65 742.88 972.89 720.37
00205867 00000160 687.26 170.92 578.30 716.29 749.70 451.34 967.24 425.30 800.55 599.29 833.18 742.74 972.94 720.81
00205868 00000161 687.47 173.19 580.35 715.34 750.82 451.52 968.76 426.51 802.48 600.22 834.89 743.90 972.81 722.92
00205869 00000162 687.23 172.29 579.20 715.96 751.34 452.72 969.24 428.25 803.33 601.76 835.22 745.22 972.47 724.74
00205870 00000163 687.10 177.00 579.10 712.62 751.47 453.56 969.95 429.73 803.90 604.02 835.59 746.67 972.42 726.73
00205871 00000164 684.60 178.96 580.52 711.10 751.44 455.05 970.22 433.22 804.42 606.78 835.85 748.00 971.68 729.64
00205872 00000165 684.96 182.81 580.27 707.60 751.60 458.05 969.49 436.52 803.32 609.05 835.49 749.46 971.15 731.18
00205873 00000166 685.75 184.37 577.84 707.83 751.49 460.93 969.10 438.32 802.75 610.05 834.99 751.05 971.85 731.75
00205874 00000167 684.89 173.20 575.45 725.52 753.83 474.05 973.17 433.52 808.98 603.03 825.11 755.60 981.27 724.54
00205875 00000168 683.67 174.09 577.86 726.28 752.03 475.63 973.10 434.69 808.65 605.43 824.76 758.14 981.47 726.64
00205876 00000169 682.22 169.30 579.09 733.02 750.74 475.54 973.12 435.34 807.56 606.96 823.11 759.60 981.33 728.69
00205877 00000170 682.78 173.66 576.95 730.23 749.85 476.15 972.11 436.14 806.41 608.60 821.29 760.66 980.44 729.84
