Video ID: 	g6NsBQBjpDw
H: 	1080
W: 	1920
FPS: 	23.976023976023978

FRAME INDEX X0 Y0 W H [Landmarks (5 Points)]

00005292 00000000 919.87 148.28 496.82 728.30 1162.99 438.06 1346.91 473.51 1287.46 584.25 1138.72 682.58 1283.11 713.05
00005293 00000001 923.44 147.91 499.22 725.98 1166.35 436.12 1352.12 474.85 1289.03 585.61 1138.88 681.27 1284.18 714.68
00005294 00000002 922.37 143.41 502.21 731.25 1160.08 431.27 1349.74 474.94 1280.96 583.33 1128.32 678.51 1280.17 715.76
00005295 DELETE   915.88 139.70 503.50 733.75 1151.44 427.19 1343.17 474.40 1269.42 578.80 1113.02 673.07 1268.76 713.20
00005296 DELETE   906.40 139.89 505.50 732.18 1137.85 423.10 1334.52 473.59 1255.61 576.61 1097.28 666.77 1260.47 709.30
00005297 DELETE   893.63 142.55 503.30 727.52 1119.00 423.17 1320.59 474.13 1235.37 570.49 1078.61 661.49 1248.04 704.10
00005298 00000006 888.25 140.02 497.07 727.76 1107.65 423.27 1306.97 472.40 1222.38 567.31 1066.34 658.49 1237.90 699.64
00005299 00000007 888.04 142.70 491.12 724.20 1110.81 427.21 1307.96 473.11 1228.86 570.42 1074.53 662.75 1241.98 701.14
00005300 00000008 890.05 144.17 487.38 725.83 1118.94 434.76 1313.60 474.49 1244.91 575.77 1090.88 671.26 1252.01 704.39
00005301 00000009 889.71 142.98 486.50 730.92 1128.91 441.97 1320.95 470.35 1264.57 583.28 1105.18 680.86 1262.95 705.04
00005302 00000010 887.60 143.08 484.46 738.90 1129.13 450.13 1324.44 466.50 1278.76 586.39 1119.97 696.04 1278.01 709.79
00005303 00000011 890.66 140.81 477.57 748.06 1134.57 451.81 1324.34 463.61 1285.67 585.03 1129.57 699.09 1282.03 709.06
00005304 00000012 889.72 146.63 475.93 738.73 1128.52 453.66 1321.26 463.35 1282.01 586.44 1130.29 704.16 1282.08 712.24
00005305 00000013 889.30 145.90 473.49 738.84 1121.07 453.36 1314.52 464.08 1265.79 584.75 1121.74 702.16 1270.30 711.49
00005306 00000014 883.78 143.43 475.97 737.99 1109.02 453.48 1308.85 468.65 1254.13 586.65 1107.08 701.85 1264.46 714.37
00005307 00000015 880.36 147.46 475.65 729.86 1098.86 450.64 1296.70 467.58 1237.32 587.84 1097.58 702.37 1248.90 716.20
00005308 00000016 876.49 149.26 478.80 733.95 1094.26 449.25 1289.14 467.82 1223.24 589.77 1091.03 700.09 1239.70 715.24
00005309 00000017 874.58 149.35 480.36 737.06 1093.91 451.14 1287.94 469.71 1220.45 590.83 1089.07 702.19 1234.92 717.60
00005310 00000018 881.00 148.74 475.78 733.53 1095.87 455.02 1289.69 469.68 1224.08 591.03 1095.73 702.20 1241.05 714.55
00005311 00000019 884.55 148.26 473.35 730.35 1099.65 455.30 1295.34 467.37 1234.68 586.54 1107.79 702.57 1255.28 712.24
00005312 00000020 885.46 151.37 474.06 731.38 1101.14 456.62 1298.95 466.90 1240.97 584.49 1113.23 704.37 1262.38 712.42
00005313 00000021 883.61 152.67 476.79 740.89 1101.38 457.31 1298.17 468.39 1241.32 585.66 1110.73 706.88 1262.58 715.50
00005314 00000022 870.15 160.67 483.83 735.30 1102.18 457.23 1284.64 467.99 1238.34 598.84 1109.67 713.90 1255.21 721.78
00005315 00000023 861.25 167.89 487.36 727.13 1091.61 456.61 1274.43 468.44 1223.61 601.77 1088.99 705.91 1243.44 714.50
00005316 00000024 860.61 158.42 484.10 733.04 1073.31 457.64 1271.78 467.87 1213.14 596.65 1065.47 694.08 1242.33 702.76
00005317 00000025 857.36 154.22 486.68 736.41 1064.58 456.28 1266.87 470.74 1201.90 593.00 1055.28 693.19 1234.92 705.47
00005318 00000026 856.25 157.23 488.19 734.09 1057.71 458.81 1259.86 473.62 1187.24 597.71 1051.61 700.65 1221.12 713.22
00005319 00000027 858.75 162.45 485.50 726.33 1058.96 465.88 1262.58 477.68 1189.39 604.52 1055.36 705.98 1223.83 716.24
00005320 00000028 862.44 167.63 481.94 721.23 1069.35 470.78 1269.28 480.01 1203.54 607.25 1072.70 710.91 1235.48 718.43
00005321 00000029 865.21 178.76 480.67 713.66 1088.04 474.01 1271.08 478.01 1220.88 616.57 1093.23 717.97 1242.75 720.29
00005322 00000030 876.39 177.83 476.97 720.10 1097.90 481.27 1281.97 481.56 1235.29 619.48 1110.00 726.57 1258.42 725.66
00005323 00000031 879.29 180.55 478.80 723.41 1103.01 486.13 1287.49 484.69 1242.97 624.03 1117.10 733.10 1264.29 730.92
00005324 00000032 882.01 184.70 476.32 723.53 1103.43 490.49 1288.33 486.87 1243.39 630.64 1116.43 739.18 1263.29 735.49
00005325 DELETE   877.55 186.80 478.17 724.71 1094.10 491.03 1281.91 489.14 1231.11 631.40 1104.40 737.18 1256.23 734.94
00005326 00000034 867.11 183.99 481.07 725.26 1075.17 483.21 1265.38 484.35 1207.27 625.75 1085.49 731.77 1242.08 731.91
00005327 DELETE   860.96 167.52 486.29 732.62 1043.50 480.52 1249.45 490.88 1170.25 612.78 1044.54 711.66 1220.55 720.37
00005328 DELETE   853.46 170.98 487.95 725.66 1008.09 471.44 1224.80 482.32 1122.46 611.20 1008.12 711.66 1189.67 721.31
00005329 00000037 834.35 162.85 489.95 729.25 970.26 463.77 1194.85 480.53 1075.21 617.10 965.27 710.08 1156.27 724.07
00005330 DELETE   823.98 161.42 484.01 733.32 948.76 458.32 1170.73 482.86 1047.90 621.45 945.83 711.50 1135.92 731.51
00005331 00000039 814.38 166.12 488.26 733.13 934.27 456.88 1157.79 479.22 1028.26 623.98 937.68 722.15 1123.87 741.05
00005332 00000040 802.52 178.42 491.23 728.27 935.23 465.11 1160.25 479.82 1041.43 623.22 943.63 722.76 1126.51 735.01
00005333 00000041 804.65 184.15 488.41 718.98 944.34 475.80 1164.36 481.90 1061.37 624.79 965.20 728.23 1141.45 733.02
00005334 00000042 804.91 193.40 485.98 706.99 951.99 482.64 1168.07 478.89 1077.15 630.91 983.83 735.24 1151.55 731.85
00005335 00000043 808.92 198.62 476.89 703.36 955.82 484.45 1170.31 471.37 1088.89 631.10 997.10 739.47 1164.20 728.28
00005336 00000044 805.55 198.71 475.83 702.37 952.30 482.41 1165.46 464.50 1089.32 628.06 999.24 739.64 1165.47 724.51
00005337 DELETE   793.88 193.02 485.82 707.31 937.94 482.54 1153.78 466.89 1069.05 628.57 982.54 737.17 1150.98 724.07
00005338 DELETE   778.49 190.26 489.62 705.77 911.99 479.80 1134.15 466.96 1036.18 629.87 954.66 731.75 1132.14 721.14
00005339 DELETE   772.32 182.10 488.20 721.41 889.52 475.61 1115.10 470.28 1001.06 634.50 924.36 737.86 1103.03 733.65
00005340 00000048 761.12 184.73 490.79 723.14 876.98 470.54 1099.10 472.26 984.33 631.41 907.84 729.68 1087.03 731.40
00005341 00000049 761.35 184.39 491.44 723.75 878.52 471.38 1101.30 473.54 986.51 633.10 908.35 728.52 1090.98 730.45
00005342 00000050 766.50 181.86 492.44 725.13 888.61 471.26 1111.81 472.29 1000.64 632.14 918.14 727.24 1102.79 728.27
00005343 00000051 771.25 180.14 491.85 728.53 898.39 471.49 1123.42 469.84 1014.76 629.07 927.81 725.25 1115.03 723.93
00005344 00000052 774.72 178.99 489.14 732.08 907.69 468.78 1132.64 468.10 1024.15 628.86 934.44 725.38 1121.41 724.88
00005345 00000053 783.70 176.69 487.43 728.86 908.73 466.10 1136.77 464.07 1023.07 624.87 936.04 727.54 1122.93 725.96
00005346 00000054 783.95 175.37 486.91 728.08 909.05 464.12 1136.34 463.08 1022.22 622.36 935.25 725.83 1120.06 725.24
00005347 00000055 783.42 175.72 488.39 728.23 910.56 461.59 1137.05 461.25 1023.40 619.27 936.52 725.20 1119.06 725.29
00005348 00000056 787.45 170.37 488.90 734.33 915.97 457.54 1138.87 458.25 1026.17 612.67 941.10 721.23 1121.57 722.26
00005349 00000057 791.64 168.35 487.17 730.79 918.94 453.29 1143.94 452.49 1033.43 609.12 944.46 718.41 1127.34 718.28
00005350 00000058 794.65 167.68 487.12 730.84 924.22 450.40 1148.18 450.57 1039.90 604.21 950.35 715.94 1131.61 716.56
00005351 00000059 796.03 167.80 488.32 734.36 926.17 449.20 1152.25 451.66 1041.91 604.69 947.80 714.79 1135.93 717.13
00005352 00000060 787.89 169.75 494.82 730.48 931.72 441.58 1153.14 448.98 1046.14 602.29 945.59 704.99 1136.77 711.05
00005353 00000061 784.75 163.90 496.01 732.59 931.55 431.78 1154.64 441.97 1046.18 592.25 944.32 697.60 1136.96 705.79
00005354 00000062 784.05 161.85 493.65 727.77 932.25 427.48 1152.94 432.78 1048.42 581.39 943.50 690.54 1135.98 693.32
00005355 00000063 783.30 151.37 491.38 735.20 929.89 421.56 1151.00 425.10 1048.88 573.13 944.30 688.68 1136.66 689.77
00005356 00000064 782.16 147.68 490.36 737.66 926.29 420.16 1146.94 421.49 1045.88 568.62 946.07 688.26 1134.78 687.50
00005357 00000065 776.29 136.72 490.20 746.82 916.47 423.09 1137.80 418.69 1037.66 567.17 943.95 690.60 1129.56 685.18
00005358 00000066 780.40 139.80 486.32 731.25 909.19 427.91 1130.96 419.23 1030.48 564.60 941.75 689.12 1128.70 682.75
00005359 00000067 776.65 138.26 486.77 724.78 903.53 424.26 1125.65 417.54 1023.58 561.82 935.27 684.98 1119.98 680.18
00005360 00000068 774.72 136.92 485.52 725.61 900.32 421.30 1120.82 414.81 1019.23 557.82 934.55 685.09 1115.20 680.62
00005361 00000069 773.75 134.40 485.65 726.40 898.66 418.53 1119.05 411.97 1018.13 556.89 934.27 683.70 1113.06 679.29
00005362 00000070 774.89 131.04 486.76 732.79 902.77 420.06 1122.67 413.02 1022.85 556.67 938.56 684.63 1114.13 679.95
00005363 00000071 785.57 137.43 480.68 735.81 919.18 424.58 1137.37 419.18 1041.21 557.32 951.83 689.41 1126.08 685.79
00005364 DELETE   787.57 140.69 480.58 732.45 937.03 423.89 1154.77 421.32 1065.78 558.83 972.34 690.95 1140.11 686.81
00005365 DELETE   799.90 143.51 478.74 725.46 956.10 423.57 1172.49 424.13 1084.42 555.27 988.48 689.59 1155.38 688.02
00005366 DELETE   812.53 140.17 473.47 724.43 969.71 426.13 1182.56 424.81 1101.41 552.70 997.12 685.65 1171.55 684.54
00005367 00000075 814.01 138.56 473.94 728.63 980.12 419.06 1189.76 413.43 1112.32 544.73 1009.12 685.60 1176.46 679.42
00005368 00000076 818.41 139.84 472.67 727.30 985.91 417.35 1196.12 410.79 1119.43 542.13 1016.05 686.40 1180.45 679.60
00005369 00000077 820.28 140.16 476.51 725.26 990.62 414.55 1200.53 410.49 1122.90 542.97 1016.79 682.24 1180.71 677.55
00005370 00000078 828.31 137.87 471.74 723.10 998.82 410.67 1204.08 414.36 1127.39 542.20 1018.11 672.22 1184.44 676.05
00005371 00000079 829.71 135.51 473.91 726.67 1001.21 408.36 1206.07 412.75 1131.38 539.27 1020.38 671.20 1187.80 675.43
00005372 00000080 831.97 133.33 474.38 731.11 1005.94 408.66 1211.13 413.74 1137.09 540.51 1023.45 670.67 1193.15 675.20
00005373 00000081 835.32 131.55 474.63 733.06 1011.54 408.53 1216.98 414.27 1142.87 540.65 1029.69 671.22 1196.72 676.25
00005374 00000082 837.81 125.48 475.35 736.84 1015.63 407.68 1220.62 415.37 1147.00 541.02 1033.36 670.60 1200.41 676.72
00005375 00000083 840.62 125.63 473.91 737.62 1019.19 408.22 1224.82 417.37 1150.46 541.70 1035.60 672.25 1202.17 679.37
00005376 00000084 838.79 125.76 476.53 735.05 1021.80 409.20 1227.87 421.15 1150.83 544.66 1035.33 671.43 1197.94 681.03
00005377 00000085 839.29 128.29 475.93 735.41 1016.63 409.35 1223.70 423.00 1143.30 548.75 1025.68 672.92 1190.68 684.34
00005378 00000086 838.49 128.25 479.22 741.61 1012.88 407.51 1223.09 425.90 1135.25 552.64 1015.29 672.84 1183.49 688.53
00005379 00000087 837.10 128.58 486.15 741.90 1011.21 403.53 1221.41 427.89 1124.70 551.21 1003.32 669.75 1171.07 690.70
00005380 00000088 838.15 125.86 490.82 747.24 1013.77 396.72 1221.06 427.15 1117.92 545.48 996.64 667.37 1164.19 693.19
00005381 00000089 839.68 120.49 498.78 736.29 1013.06 387.03 1223.18 427.03 1109.74 542.34 989.02 654.83 1155.51 688.82
00005382 00000090 842.26 112.37 503.39 742.34 1015.94 380.24 1230.55 425.94 1110.67 540.49 985.97 648.58 1156.49 687.21
00005383 00000091 847.28 108.40 514.68 743.52 1018.49 380.74 1236.18 425.14 1113.20 536.14 996.23 649.31 1167.81 686.93
00005384 00000092 854.86 119.86 504.06 733.55 1032.53 383.61 1249.83 431.98 1130.61 541.32 999.59 649.96 1172.80 691.00
00005385 00000093 860.68 129.40 503.80 740.23 1043.76 390.69 1260.33 434.37 1147.59 547.55 1018.01 660.25 1184.21 695.99
00005386 00000094 862.90 124.30 503.15 739.28 1055.69 392.70 1262.91 435.37 1161.77 550.44 1031.23 658.40 1198.13 694.66
00005387 00000095 864.15 120.36 499.12 732.40 1063.90 396.42 1270.00 431.22 1180.43 551.88 1045.27 655.53 1215.83 684.62
00005388 00000096 868.21 120.89 491.81 729.42 1071.07 397.66 1273.15 427.94 1190.89 550.52 1057.42 656.34 1226.00 681.49
00005389 00000097 871.23 119.39 489.40 725.50 1074.25 394.81 1273.19 420.86 1197.03 541.03 1069.51 652.76 1232.27 673.88
00005390 00000098 872.48 118.71 486.58 730.07 1076.92 391.93 1273.00 416.52 1201.73 536.17 1077.03 656.30 1234.83 676.36
00005391 00000099 871.56 117.77 485.44 729.93 1073.73 392.60 1272.71 416.18 1201.48 536.20 1070.43 654.75 1236.75 674.12
00005392 00000100 866.75 120.30 485.26 718.79 1067.80 391.14 1265.95 414.13 1193.86 534.83 1064.00 648.91 1229.33 667.65
00005393 00000101 863.82 120.18 487.37 713.01 1064.10 388.50 1262.21 412.79 1187.15 531.78 1060.03 644.69 1223.58 664.46
00005394 00000102 859.44 116.34 489.85 719.23 1059.64 386.24 1258.80 411.44 1181.50 532.03 1055.81 644.95 1217.64 665.24
00005395 00000103 853.51 113.33 497.97 731.02 1056.48 384.35 1256.94 413.73 1175.60 531.75 1048.18 646.13 1210.19 670.07
00005396 00000104 852.72 110.09 497.67 740.48 1054.07 384.19 1255.93 415.43 1173.46 531.64 1041.94 647.24 1207.74 672.82
00005397 00000105 851.00 109.79 496.59 743.73 1054.78 384.11 1256.09 414.70 1177.18 529.50 1041.22 646.84 1212.61 671.71
00005398 00000106 852.21 110.85 492.76 741.38 1055.53 386.89 1256.65 412.27 1181.79 529.44 1047.58 649.02 1218.83 669.48
00005399 00000107 854.81 117.64 488.55 719.88 1058.34 391.04 1258.35 412.84 1186.11 532.06 1057.15 647.09 1224.46 664.35
00005400 00000108 855.72 115.40 485.45 721.35 1065.19 401.28 1257.35 420.58 1191.79 535.00 1066.39 648.37 1225.67 663.47
00005401 00000109 853.74 117.38 485.35 720.72 1059.93 409.57 1254.76 425.75 1186.68 540.25 1060.91 649.05 1224.83 661.50
00005402 00000110 846.92 120.32 490.51 728.95 1048.15 407.12 1250.43 430.19 1173.77 544.28 1046.19 655.13 1214.96 673.45
00005403 00000111 846.84 122.24 488.57 739.78 1042.15 404.57 1245.76 433.42 1163.03 542.22 1031.59 658.26 1202.36 682.37
00005404 00000112 846.85 124.39 488.77 743.83 1035.71 396.81 1242.71 430.39 1156.27 537.21 1019.78 658.54 1194.91 686.84
00005405 00000113 846.01 120.87 491.47 740.48 1030.32 392.55 1240.79 426.07 1148.86 533.24 1012.32 656.44 1190.24 684.72
00005406 00000114 844.57 115.59 493.14 740.26 1028.22 387.28 1238.43 420.06 1143.63 530.88 1009.75 651.71 1186.41 679.17
00005407 00000115 844.41 114.19 492.52 737.77 1025.97 384.58 1236.48 419.52 1137.51 531.31 1007.42 648.76 1178.84 678.05
00005408 00000116 843.28 114.07 491.97 735.22 1023.67 385.56 1234.90 421.74 1133.55 535.75 1005.68 648.75 1175.53 679.14
00005409 00000117 842.23 116.52 492.78 727.13 1022.18 388.18 1235.20 425.55 1132.53 539.26 1003.04 645.37 1176.80 676.70
00005410 00000118 843.14 119.78 493.76 722.55 1024.73 390.39 1236.35 427.09 1134.82 540.79 1009.19 647.53 1177.76 678.33
00005411 00000119 843.91 122.63 493.85 725.52 1027.09 392.10 1237.08 429.94 1137.65 542.08 1009.22 649.61 1178.45 681.42
00005412 00000120 843.34 123.27 495.43 723.77 1027.78 394.70 1239.04 433.66 1138.60 545.52 1006.75 649.42 1178.98 682.06
00005413 00000121 844.06 125.32 495.09 725.26 1027.07 396.76 1239.53 434.83 1139.90 547.03 1007.01 651.45 1182.16 683.34
00005414 00000122 845.72 125.98 496.53 727.60 1028.70 400.19 1241.61 437.41 1141.97 549.85 1010.96 657.66 1183.02 688.77
00005415 00000123 844.13 133.89 495.94 721.38 1025.97 404.29 1243.33 438.17 1141.36 553.32 1013.68 665.27 1184.10 693.85
00005416 00000124 845.47 136.10 495.62 722.83 1025.36 405.60 1239.85 438.92 1139.53 554.51 1013.21 666.79 1181.31 694.99
00005417 00000125 844.36 136.59 495.21 721.53 1023.17 405.98 1237.94 440.69 1133.61 554.49 1009.51 669.68 1171.80 699.18
00005418 00000126 844.75 138.81 493.53 717.59 1021.99 406.67 1235.49 440.91 1130.68 554.33 1010.04 673.17 1165.19 702.44
00005419 00000127 844.42 139.06 490.02 716.18 1019.32 408.94 1231.37 440.12 1128.30 553.52 1010.92 676.10 1161.17 703.05
00005420 00000128 840.11 140.42 491.67 726.37 1016.02 408.14 1226.57 438.34 1124.42 554.15 1005.96 678.98 1157.15 705.26
00005421 00000129 835.58 134.69 488.01 727.73 1012.69 406.85 1222.27 434.46 1123.10 550.88 1003.53 674.50 1155.67 698.71
00005422 00000130 830.97 132.44 485.93 726.98 1010.40 402.67 1217.99 427.96 1121.98 544.78 1002.46 668.66 1154.75 691.16
00005423 00000131 827.05 129.30 483.28 725.76 1008.19 397.66 1211.36 420.67 1121.04 537.03 1005.16 664.57 1155.27 685.22
00005424 00000132 824.48 121.77 480.93 726.10 1002.55 392.72 1205.24 413.38 1117.10 529.93 1005.63 657.13 1157.82 675.37
00005425 00000133 818.40 115.77 482.40 730.21 993.34 387.68 1199.58 399.55 1119.08 522.53 1011.89 658.85 1170.10 668.45
00005426 00000134 813.86 112.80 482.89 727.03 991.13 382.70 1196.64 393.04 1120.51 515.02 1015.06 651.83 1171.06 659.88
00005427 00000135 808.99 103.39 485.07 730.37 986.69 379.07 1192.06 385.62 1120.77 506.05 1016.56 644.49 1172.87 649.34
00005428 00000136 809.17 97.01 483.37 728.41 985.01 373.90 1190.43 377.81 1120.03 497.54 1019.91 637.66 1173.72 639.91
00005429 00000137 809.89 91.59 483.79 728.11 982.28 370.62 1190.86 371.09 1120.04 488.72 1021.48 631.53 1177.34 630.82
00005430 00000138 811.05 87.03 484.09 723.53 982.09 367.51 1193.61 366.86 1120.18 481.94 1022.76 624.60 1181.95 622.84
00005431 00000139 813.89 86.40 480.23 713.31 984.27 362.33 1196.49 361.82 1122.10 473.80 1025.48 618.13 1181.95 616.20
00005432 00000140 814.77 86.58 478.07 708.28 985.43 359.48 1198.17 357.81 1124.30 469.42 1024.97 615.44 1183.47 612.52
00005433 00000141 814.31 85.66 477.07 705.20 987.74 356.79 1198.59 355.77 1126.39 467.42 1026.78 610.99 1183.04 608.29
00005434 00000142 814.41 85.94 477.44 703.62 987.62 356.21 1198.73 355.76 1125.72 466.88 1024.93 610.43 1182.42 608.30
00005435 00000143 814.65 85.44 476.59 701.53 987.26 356.42 1198.42 356.90 1124.74 467.37 1022.89 608.29 1182.56 606.94
00005436 00000144 815.36 86.27 476.56 701.44 983.69 357.14 1198.37 358.20 1120.79 469.79 1016.42 607.67 1182.95 606.70
00005437 00000145 813.71 79.19 477.72 704.52 980.20 361.09 1197.25 362.58 1117.82 479.54 1011.75 611.50 1184.73 612.78
00005438 00000146 814.14 79.59 477.05 706.30 977.96 360.11 1197.91 360.81 1118.21 479.10 1009.94 614.75 1185.61 615.50
00005439 00000147 812.77 78.63 479.18 711.70 982.06 355.61 1194.71 356.80 1118.37 470.25 1014.84 613.93 1181.84 615.38
00005440 00000148 811.89 85.25 479.73 711.49 984.54 348.69 1195.62 352.43 1118.66 461.88 1011.09 607.55 1177.32 609.16
00005441 00000149 812.51 84.66 479.87 710.26 987.78 348.85 1197.86 355.05 1121.68 463.39 1010.11 604.95 1178.42 608.62
00005442 00000150 817.45 84.55 476.09 709.51 990.43 352.60 1203.73 359.51 1124.60 468.31 1009.53 607.53 1183.46 612.19
00005443 00000151 817.98 78.04 475.54 708.02 989.72 360.84 1203.80 367.72 1123.87 480.36 1011.41 608.96 1187.07 614.77
00005444 00000152 819.39 86.48 475.83 711.77 995.05 363.38 1204.85 369.61 1128.80 479.75 1016.72 612.81 1187.71 616.63
00005445 00000153 819.74 87.61 476.43 715.53 998.70 366.23 1205.69 370.94 1134.03 487.70 1025.56 619.15 1189.08 621.38
00005446 00000154 819.74 93.83 481.09 713.57 1001.14 371.13 1209.66 375.28 1139.86 494.52 1030.89 625.04 1194.00 626.95
00005447 00000155 822.82 91.74 480.97 723.46 1002.78 377.56 1213.64 380.01 1144.23 502.61 1032.56 635.45 1199.30 636.21
00005448 00000156 831.14 95.28 474.26 734.94 1004.99 385.11 1214.88 386.37 1139.92 509.68 1027.83 640.88 1193.44 641.73
00005449 00000157 832.93 102.92 473.43 736.07 1004.82 388.93 1215.95 390.86 1138.95 518.08 1026.23 649.51 1193.10 650.89
00005450 00000158 834.21 105.18 473.24 743.63 1004.61 395.12 1216.83 398.93 1138.55 524.98 1023.62 657.79 1193.37 660.62
00005451 00000159 827.35 119.34 477.46 734.16 1012.01 395.09 1212.60 409.27 1138.05 533.33 1016.84 655.04 1189.61 666.39
00005452 00000160 827.51 119.75 477.89 735.71 1009.48 396.47 1211.80 409.58 1135.55 536.33 1011.83 654.92 1190.73 665.49
00005453 00000161 827.87 121.15 477.61 731.49 1006.54 398.44 1211.80 410.57 1133.00 539.40 1009.97 655.79 1190.01 665.71
00005454 00000162 828.66 127.13 477.31 725.03 1005.09 404.80 1211.90 416.20 1131.45 543.94 1009.60 660.27 1187.94 670.00
00005455 00000163 830.01 126.21 475.39 726.18 1001.73 412.15 1213.11 423.05 1129.61 551.79 1008.56 665.96 1187.17 675.27
00005456 00000164 831.34 134.61 474.40 717.67 999.87 419.09 1212.90 430.00 1126.54 560.48 1005.92 669.59 1183.16 679.17
