Video ID: 	6MYdH91DZgg
H: 	1080
W: 	1920
FPS: 	29.97002997002997

FRAME INDEX X0 Y0 W H [Landmarks (5 Points)]

00019060 00000000 822.37 174.81 441.23 607.92 926.85 394.40 1145.78 392.57 1033.26 491.87 947.84 621.73 1128.07 620.17
00019061 00000001 825.59 172.61 445.82 612.03 937.74 393.23 1159.71 392.71 1053.19 488.18 964.93 628.67 1139.06 627.86
00019062 00000002 827.60 179.30 449.40 619.91 946.69 394.90 1161.31 388.82 1068.88 478.34 981.61 639.54 1137.49 632.69
00019063 00000003 827.42 177.31 451.13 629.72 946.72 396.90 1164.04 391.03 1071.03 480.53 982.41 643.47 1143.21 636.54
00019064 00000004 826.49 177.36 453.08 631.55 945.25 397.21 1162.97 391.48 1068.60 481.24 981.44 645.32 1141.23 638.59
00019065 00000005 827.07 175.98 454.27 632.85 944.72 396.97 1163.75 392.21 1067.57 481.15 979.75 645.59 1140.82 639.55
00019066 00000006 826.95 173.57 457.67 634.22 945.52 397.02 1165.33 392.13 1068.67 480.99 979.22 644.95 1141.20 638.84
00019067 00000007 828.51 167.86 453.95 629.36 942.73 392.75 1164.65 392.09 1060.36 487.32 972.85 636.29 1142.66 635.69
00019068 00000008 828.19 165.80 455.43 629.96 942.30 393.45 1165.35 391.26 1060.07 488.14 973.58 634.96 1147.17 632.89
00019069 00000009 829.37 163.57 455.25 632.84 943.38 396.59 1164.11 392.31 1060.05 489.70 975.31 634.66 1151.30 630.88
00019070 00000010 829.72 166.79 460.42 634.02 944.82 403.46 1165.73 397.85 1059.95 501.12 979.43 638.23 1157.63 632.96
00019071 00000011 834.09 179.67 463.49 629.96 953.39 414.88 1175.49 403.93 1074.82 516.07 994.18 652.67 1162.77 640.58
00019072 DELETE   838.16 182.90 464.66 634.69 955.89 427.41 1175.24 412.60 1079.16 526.76 1001.61 667.00 1168.99 651.06
00019073 00000013 845.44 181.22 458.40 642.39 958.95 431.28 1184.88 417.45 1081.15 538.67 1000.42 673.48 1169.82 663.02
00019074 00000014 848.21 179.81 459.74 656.36 964.60 432.08 1190.42 423.29 1085.62 544.18 1000.41 679.94 1168.18 673.73
00019075 00000015 851.01 181.04 463.02 668.13 969.38 428.36 1195.95 425.14 1089.35 545.15 998.53 683.36 1169.40 681.94
00019076 00000016 851.62 182.07 473.20 690.22 972.58 419.11 1205.51 421.27 1093.01 537.24 1004.04 691.72 1171.31 693.55
00019077 00000017 852.83 181.70 468.87 681.04 977.35 419.73 1202.17 424.22 1094.38 539.14 998.57 685.41 1166.94 690.74
00019078 00000018 850.99 180.86 470.23 663.38 975.47 417.70 1204.19 424.46 1092.74 534.04 995.17 675.44 1166.39 682.39
00019079 00000019 849.34 180.43 470.56 651.25 972.95 417.72 1203.87 423.24 1091.18 531.14 993.55 668.86 1169.62 674.36
00019080 00000020 846.26 182.02 471.05 649.28 970.97 420.43 1202.03 424.35 1089.35 532.16 991.24 669.07 1167.71 673.29
00019081 00000021 842.06 182.67 470.91 655.94 968.33 423.19 1200.50 427.57 1087.81 535.14 987.59 674.31 1164.05 678.89
00019082 00000022 839.09 183.64 469.29 660.92 964.54 427.11 1196.54 431.20 1085.32 539.00 983.86 679.55 1158.89 683.94
00019083 00000023 833.59 182.91 472.18 663.63 951.06 427.45 1190.40 431.94 1075.14 537.66 978.32 688.07 1158.53 688.98
00019084 00000024 829.30 184.67 470.13 666.27 945.70 429.33 1183.59 433.30 1068.90 544.02 972.85 688.54 1152.71 689.24
00019085 00000025 826.13 185.62 468.25 666.44 940.95 429.77 1179.00 433.67 1064.88 547.02 966.51 689.81 1146.19 690.97
00019086 00000026 823.07 186.50 467.74 668.28 937.59 430.76 1175.84 432.87 1063.94 554.74 965.99 693.91 1144.61 693.63
00019087 00000027 821.09 189.06 466.33 672.87 935.11 432.39 1173.89 434.07 1062.54 557.17 964.36 699.69 1141.79 699.67
00019088 00000028 820.77 197.75 464.57 676.72 933.32 435.94 1168.78 435.24 1059.29 564.79 964.14 711.35 1133.30 710.02
00019089 00000029 821.05 207.99 466.76 672.12 930.71 442.01 1165.96 441.96 1051.20 577.23 960.89 719.70 1126.62 719.38
00019090 00000030 819.78 214.57 467.85 668.60 926.69 452.54 1164.35 456.27 1043.34 592.43 952.23 728.21 1119.96 731.38
00019091 00000031 817.05 219.60 470.97 673.02 923.35 459.74 1164.47 472.13 1034.63 605.88 937.82 734.48 1111.07 745.06
00019092 00000032 809.96 224.60 474.85 673.91 918.08 467.07 1161.41 485.81 1025.83 616.60 923.17 736.44 1103.15 752.35
00019093 00000033 802.92 228.63 478.14 674.16 911.04 474.24 1155.11 491.17 1017.95 623.44 917.43 741.65 1096.84 756.55
00019094 00000034 794.00 231.67 481.81 682.70 900.28 479.07 1142.90 493.75 1006.49 630.39 909.89 748.21 1088.46 761.54
00019095 00000035 792.39 232.07 478.02 694.14 891.67 483.02 1133.97 492.83 1000.38 635.35 911.53 758.15 1089.40 767.53
00019096 00000036 791.82 231.98 480.54 699.00 892.23 488.70 1135.91 490.25 1008.48 640.09 921.13 765.00 1101.68 767.48
00019097 00000037 792.91 229.88 484.54 694.60 897.69 495.02 1141.86 484.79 1023.16 641.30 941.38 768.95 1120.46 761.36
00019098 00000038 795.33 232.79 485.26 693.09 908.03 494.80 1150.17 480.62 1040.57 638.72 958.27 768.62 1136.98 757.26
00019099 00000039 794.78 231.80 484.37 688.09 909.65 494.08 1151.41 478.56 1044.55 636.68 962.03 765.31 1141.26 752.86
00019100 00000040 793.92 232.06 481.82 680.04 907.67 491.27 1149.97 478.47 1041.28 635.85 957.05 761.42 1136.24 751.27
00019101 00000041 795.14 230.31 477.49 677.22 904.79 487.46 1146.64 478.38 1034.04 630.24 949.29 757.15 1126.58 750.28
00019102 00000042 793.23 229.06 480.08 678.99 904.89 481.76 1143.51 475.50 1030.63 622.42 946.19 753.50 1118.10 749.30
00019103 00000043 793.23 223.28 480.65 682.05 905.11 475.19 1144.81 471.50 1029.32 613.67 940.58 746.22 1117.31 744.11
00019104 00000044 793.68 219.34 478.81 679.67 908.81 473.95 1146.33 472.89 1032.83 607.62 938.92 738.74 1116.78 738.64
00019105 00000045 793.94 219.03 477.70 676.44 912.76 481.50 1149.35 482.94 1035.37 607.84 936.54 733.60 1122.90 735.21
00019106 00000046 795.60 220.14 476.23 672.77 913.29 483.76 1150.56 483.29 1038.15 608.08 936.71 733.85 1126.47 733.93
00019107 00000047 796.83 219.13 475.60 671.33 914.10 481.38 1153.08 477.89 1043.73 607.04 942.77 734.69 1133.01 732.30
00019108 00000048 795.95 223.54 477.36 664.01 913.76 480.55 1154.23 470.37 1048.44 607.52 954.10 735.51 1142.94 727.46
00019109 00000049 795.54 226.53 478.32 656.60 915.35 483.94 1153.94 466.40 1052.51 608.11 964.75 734.81 1151.74 720.46
00019110 00000050 797.27 228.24 477.35 652.41 917.22 487.09 1152.92 464.61 1055.43 610.46 971.56 735.33 1156.74 717.04
00019111 00000051 797.64 231.55 477.43 650.14 915.62 490.03 1152.06 467.42 1053.06 614.13 970.51 737.23 1155.35 718.72
00019112 00000052 799.23 235.83 475.53 649.09 915.37 492.04 1152.44 475.18 1048.66 619.37 963.27 739.83 1146.87 726.15
00019113 00000053 803.03 240.51 472.33 655.08 918.94 491.92 1154.96 483.04 1048.89 625.87 956.43 744.31 1139.04 737.49
00019114 00000054 809.40 242.59 464.88 659.00 924.69 490.77 1159.79 490.58 1050.75 630.92 952.73 747.12 1135.26 747.62
00019115 00000055 813.40 238.27 462.25 666.77 929.27 487.05 1165.71 492.31 1055.93 632.10 953.61 746.92 1136.59 751.74
00019116 00000056 816.33 234.94 460.40 662.62 932.06 482.27 1167.64 487.45 1059.58 627.94 960.09 745.70 1135.49 750.36
00019117 00000057 813.73 233.96 460.76 657.25 931.04 480.29 1165.90 481.14 1058.89 620.80 963.96 742.01 1137.23 742.66
00019118 00000058 810.45 236.36 462.32 654.08 926.25 480.04 1162.09 478.63 1053.41 618.72 961.30 739.27 1135.53 738.16
00019119 00000059 807.09 237.86 460.58 653.52 922.00 482.87 1157.40 479.95 1047.97 622.28 956.98 740.55 1131.35 738.56
00019120 00000060 803.99 239.43 462.60 654.37 918.58 485.37 1153.81 480.02 1045.21 624.43 955.83 742.58 1131.07 738.72
00019121 00000061 804.15 239.47 461.79 656.08 918.25 484.96 1153.02 479.70 1044.09 622.12 954.62 742.39 1129.95 738.58
00019122 00000062 805.89 237.89 461.13 659.09 919.11 482.17 1153.90 477.82 1044.31 618.48 954.47 742.35 1129.71 739.07
00019123 00000063 806.79 237.17 461.15 671.83 920.11 478.91 1151.74 476.07 1044.44 613.48 952.20 744.56 1127.81 742.73
00019124 00000064 808.93 243.57 458.15 676.60 923.14 477.62 1155.99 476.28 1047.27 611.93 952.84 748.70 1128.31 745.53
00019125 00000065 809.34 243.89 457.92 674.27 923.54 477.91 1156.57 476.91 1048.10 612.29 953.45 748.29 1128.35 745.50
00019126 00000066 809.58 239.05 460.74 658.59 921.72 479.13 1153.20 475.83 1045.50 612.32 957.09 740.20 1128.44 738.03
00019127 00000067 811.16 239.51 460.45 653.89 923.05 478.62 1155.26 474.63 1046.14 613.91 960.77 739.66 1129.60 736.89
00019128 00000068 813.38 239.18 460.39 651.91 925.64 475.36 1158.82 473.19 1049.25 612.93 962.44 737.70 1132.30 736.19
00019129 00000069 814.53 236.72 459.73 652.88 926.00 472.50 1159.94 469.72 1050.11 609.46 963.53 736.97 1132.86 734.71
00019130 00000070 817.21 234.14 457.93 654.12 927.65 470.79 1161.47 468.99 1051.50 606.00 963.83 735.39 1133.42 733.73
00019131 00000071 819.41 232.69 457.91 653.88 929.77 467.96 1162.03 465.32 1054.28 603.12 966.59 732.76 1134.83 730.52
00019132 00000072 820.94 228.06 457.68 658.30 932.73 464.35 1162.04 460.04 1058.40 598.38 969.70 730.35 1136.49 726.70
00019133 00000073 821.93 225.04 458.65 659.27 935.19 459.73 1163.85 455.20 1062.21 594.13 971.73 727.99 1138.17 724.11
00019134 00000074 837.65 190.30 457.31 639.60 963.44 412.30 1186.21 401.83 1092.64 513.28 1003.52 668.80 1167.60 656.75
00019135 00000075 837.72 190.71 456.81 648.20 963.33 411.68 1186.68 402.89 1093.21 513.51 1001.13 671.48 1167.60 660.72
00019136 00000076 837.74 191.44 454.70 656.91 962.58 410.32 1187.64 402.79 1092.41 515.72 999.81 675.59 1168.42 665.64
00019137 00000077 837.45 191.27 453.69 661.99 962.39 408.77 1187.91 402.25 1092.40 516.61 998.90 676.75 1168.95 667.66
00019138 00000078 836.46 189.81 456.25 658.17 961.92 407.81 1189.39 403.08 1092.60 513.35 995.88 673.22 1169.21 665.74
00019139 00000079 834.25 186.49 461.28 649.51 962.30 408.44 1188.75 403.08 1090.94 508.21 993.35 664.08 1169.46 656.35
00019140 00000080 833.07 183.92 460.62 639.28 964.52 399.69 1188.30 398.20 1095.19 491.27 994.85 652.59 1167.74 648.30
00019141 DELETE   831.97 178.04 460.92 631.76 968.99 390.46 1186.79 387.33 1097.70 475.73 1000.13 641.53 1161.71 636.16
00019142 00000082 829.50 168.45 464.90 618.95 966.20 383.09 1178.29 373.75 1092.12 459.62 1010.43 625.59 1160.32 615.22
00019143 00000083 835.06 159.64 459.61 608.47 959.37 372.52 1173.43 351.12 1086.55 439.56 1013.90 609.38 1178.34 588.16
00019144 00000084 842.52 155.50 454.00 597.98 962.05 369.29 1174.43 341.54 1089.45 425.75 1017.92 597.73 1187.69 571.76
00019145 00000085 843.71 153.75 455.93 589.88 965.24 369.33 1177.16 339.81 1092.68 416.10 1021.86 592.27 1192.49 564.47
00019146 00000086 844.21 153.30 458.23 589.23 966.10 369.92 1180.34 340.79 1093.50 419.76 1021.90 592.43 1195.23 564.89
00019147 00000087 845.88 153.44 456.75 590.41 967.13 370.47 1181.51 342.83 1094.37 428.92 1021.31 593.75 1194.46 567.62
00019148 00000088 847.56 155.08 454.87 595.11 968.56 373.17 1184.03 346.77 1094.79 434.56 1022.16 598.85 1195.12 573.74
00019149 00000089 847.16 156.77 456.66 604.70 972.40 374.98 1187.53 356.06 1097.27 444.80 1021.73 604.40 1192.60 585.46
00019150 DELETE   847.63 167.69 454.77 612.40 981.90 391.39 1183.56 376.71 1104.49 451.13 1025.85 616.71 1178.28 602.56
00019151 DELETE   848.07 176.00 452.14 633.19 983.69 402.63 1187.06 383.79 1111.12 467.94 1027.18 642.52 1177.87 625.35
00019152 DELETE   848.28 182.54 452.27 631.69 979.71 404.38 1189.59 386.05 1107.91 483.83 1021.17 651.75 1174.67 634.60
00019153 00000093 846.20 176.77 459.29 632.96 975.85 408.30 1189.21 391.00 1103.74 490.67 1018.39 652.57 1175.30 635.40
00019154 00000094 842.03 177.55 463.10 626.13 968.10 412.65 1186.51 396.50 1095.16 502.63 1013.51 655.02 1174.21 637.79
00019155 00000095 840.70 180.83 463.44 625.78 964.86 416.86 1184.07 401.42 1089.85 510.93 1009.76 658.65 1171.55 641.74
00019156 00000096 839.94 185.11 460.03 626.90 961.20 422.01 1181.03 409.59 1085.36 517.24 1005.16 666.09 1166.67 652.02
00019157 00000097 837.59 188.15 460.36 631.94 958.26 424.43 1180.86 416.96 1081.62 522.34 998.57 671.02 1163.38 661.41
00019158 00000098 835.73 189.71 459.53 632.69 956.43 424.23 1178.14 418.58 1079.76 523.25 996.37 672.52 1158.15 664.76
00019159 00000099 833.91 189.18 459.68 635.52 954.38 423.13 1176.25 417.75 1077.56 520.22 992.49 670.73 1155.31 663.41
00019160 00000100 831.47 189.82 458.83 635.06 951.17 421.54 1174.80 418.01 1073.05 523.18 985.95 667.70 1151.97 662.27
00019161 00000101 828.97 193.99 455.76 631.78 942.84 419.47 1169.37 419.29 1061.24 528.66 975.58 667.82 1142.97 665.45
00019162 00000102 826.28 194.61 453.41 634.59 934.67 418.76 1162.45 420.68 1049.45 533.60 963.80 671.21 1130.92 671.04
00019163 00000103 823.27 194.77 454.87 638.95 925.26 425.54 1153.35 428.04 1034.88 543.92 951.12 678.74 1116.71 679.64
00019164 00000104 819.07 199.55 456.57 641.70 920.50 435.47 1145.74 437.67 1024.79 560.65 941.23 689.49 1105.68 690.83
00019165 00000105 820.18 206.98 461.18 652.92 920.20 440.96 1144.17 448.20 1014.77 570.10 934.04 699.43 1090.36 706.16
00019166 DELETE   822.82 212.99 464.19 659.45 922.09 447.74 1144.86 452.90 1015.39 577.23 940.37 712.28 1091.31 717.39
00019167 00000107 824.27 215.72 468.72 667.95 920.22 453.87 1151.79 460.54 1016.71 586.18 936.74 719.39 1102.60 725.59
00019168 00000108 823.81 218.57 470.65 679.73 916.56 463.19 1153.28 470.90 1013.75 597.94 930.00 732.62 1106.05 739.35
00019169 00000109 820.41 225.03 470.99 680.37 912.61 470.12 1150.22 480.27 1007.10 607.05 922.17 739.35 1099.97 748.25
00019170 00000110 815.58 231.09 474.78 681.02 909.88 473.24 1143.13 486.51 998.10 613.91 918.68 742.04 1089.54 754.04
00019171 00000111 814.57 233.14 481.29 685.90 906.17 480.73 1139.80 489.51 997.80 619.48 922.43 748.82 1084.13 758.39
00019172 00000112 816.46 243.05 482.02 687.26 910.09 489.69 1146.92 501.34 1001.80 634.63 928.35 761.07 1090.41 773.17
00019173 00000113 820.03 261.17 480.46 683.12 918.93 501.42 1159.02 514.89 1016.42 656.36 935.40 779.86 1101.45 791.60
00019174 00000114 821.39 271.16 486.14 683.31 921.48 518.78 1164.41 522.73 1030.30 679.71 951.52 798.53 1123.34 801.70
00019175 00000115 823.04 277.18 482.13 686.47 924.37 527.83 1166.21 528.83 1039.33 689.21 959.81 808.55 1133.87 808.59
00019176 00000116 818.61 271.09 483.05 694.20 917.27 526.77 1160.52 528.26 1028.15 690.27 951.09 807.93 1126.00 808.66
00019177 00000117 813.10 266.58 484.01 697.69 913.99 517.22 1156.02 528.39 1016.79 677.12 930.29 792.00 1110.10 801.47
00019178 00000118 814.03 265.44 486.95 701.18 917.16 511.23 1153.00 523.52 1014.15 667.74 931.09 788.88 1106.69 801.28
00019179 00000119 822.37 270.30 482.93 700.72 924.38 512.59 1163.14 532.64 1019.28 670.92 929.09 786.74 1111.67 803.70
00019180 00000120 826.97 268.56 492.42 706.78 931.61 519.81 1174.60 529.11 1041.97 677.73 954.21 799.43 1132.90 808.30
00019181 00000121 835.78 271.52 489.41 709.82 938.61 524.38 1185.71 529.24 1055.14 683.57 967.67 810.58 1147.33 815.55
00019182 00000122 833.95 268.47 493.87 714.34 939.18 524.14 1184.82 527.82 1054.29 680.68 972.10 812.91 1143.39 816.93
00019183 00000123 833.69 266.22 493.21 713.92 940.82 521.43 1182.80 525.84 1053.87 675.04 970.97 808.85 1138.38 813.49
00019184 00000124 836.63 262.12 493.57 713.47 945.19 518.22 1184.24 521.22 1056.94 669.44 974.47 805.80 1138.36 809.47
00019185 00000125 839.47 260.62 493.60 708.10 948.02 517.18 1190.06 519.18 1061.22 668.95 978.13 801.40 1146.31 803.96
00019186 00000126 845.38 263.83 493.51 699.16 954.63 514.00 1198.49 521.95 1069.95 668.86 981.60 799.19 1153.20 807.43
00019187 00000127 849.62 260.76 492.14 694.56 956.66 516.11 1199.63 522.15 1070.43 669.87 982.61 794.23 1158.92 800.60
00019188 00000128 853.30 257.51 486.13 694.34 960.93 525.09 1197.52 529.08 1071.67 665.88 981.40 786.64 1160.74 791.09
00019189 DELETE   851.42 252.77 486.11 698.75 964.08 522.63 1201.60 527.82 1074.16 655.99 979.65 778.67 1164.72 783.89
00019190 DELETE   855.66 244.55 479.36 698.27 966.38 511.25 1204.24 514.30 1080.96 647.69 985.22 771.12 1170.06 774.69
00019191 00000131 855.64 245.81 480.62 691.67 968.96 498.96 1207.37 501.88 1085.95 638.33 991.52 765.17 1171.62 769.00
00019192 00000132 857.91 245.28 479.87 693.42 974.58 491.91 1210.95 495.03 1093.31 630.56 998.25 762.12 1178.32 765.91
00019193 00000133 858.63 243.17 478.91 690.52 977.39 485.08 1215.41 490.34 1096.24 624.91 998.10 756.50 1179.47 761.78
00019194 00000134 860.48 240.69 477.04 685.36 979.49 482.20 1216.46 486.34 1098.67 619.30 1001.62 751.81 1182.79 756.04
00019195 00000135 861.85 240.78 476.85 680.28 980.98 479.90 1217.26 483.34 1100.48 614.87 1004.49 748.45 1184.83 752.04
00019196 00000136 865.09 238.51 473.55 676.76 983.40 476.65 1218.72 479.95 1103.63 608.04 1006.81 744.46 1184.92 748.09
00019197 00000137 867.77 234.74 471.29 674.54 985.14 473.33 1220.11 476.31 1105.50 602.65 1009.42 741.12 1185.89 744.45
00019198 00000138 869.21 232.00 470.56 674.32 984.99 468.84 1223.11 472.44 1107.48 598.60 1009.59 737.53 1187.99 741.23
00019199 00000139 869.68 232.08 470.88 671.50 986.31 466.72 1224.07 470.07 1109.87 596.70 1011.83 735.46 1189.46 738.96
00019200 00000140 870.72 231.14 469.09 669.94 986.66 466.15 1223.66 467.95 1110.75 594.18 1012.99 734.45 1190.01 736.64
00019201 00000141 870.72 231.02 468.06 668.34 987.02 465.27 1223.59 466.50 1111.78 592.52 1013.80 732.73 1190.89 734.42
00019202 00000142 870.30 230.40 467.89 667.51 988.06 463.94 1223.28 464.53 1113.38 589.98 1015.44 730.92 1191.03 732.12
00019203 00000143 869.97 230.80 467.56 663.13 989.53 462.88 1222.30 462.72 1114.35 587.43 1018.18 727.45 1191.01 728.07
00019204 00000144 870.31 231.17 466.51 660.17 990.60 460.71 1222.29 460.99 1115.38 584.12 1019.75 725.08 1190.34 726.05
00019205 00000145 870.52 230.94 465.32 657.32 992.16 459.02 1221.78 458.73 1116.48 582.06 1021.43 721.93 1190.40 722.46
00019206 00000146 871.41 228.62 463.43 655.72 992.97 456.31 1222.04 456.84 1116.99 579.19 1020.20 718.09 1190.29 719.24
00019207 00000147 870.33 228.14 463.41 655.18 992.92 455.15 1220.74 454.56 1117.79 577.60 1021.05 716.27 1190.89 716.44
00019208 00000148 869.99 227.66 463.08 655.46 992.58 454.65 1221.02 453.75 1118.10 577.34 1020.86 715.82 1192.07 715.68
00019209 00000149 869.28 226.58 462.48 655.89 992.38 454.63 1220.98 453.78 1117.87 576.86 1019.60 714.12 1192.98 714.00
00019210 00000150 867.98 227.23 463.41 655.37 991.66 456.30 1221.38 454.65 1117.34 577.40 1019.48 713.60 1195.84 712.73
00019211 00000151 865.81 226.92 465.96 657.08 991.66 457.03 1221.77 455.21 1118.57 578.24 1020.12 713.84 1197.39 712.73
00019212 00000152 865.07 226.57 466.81 659.58 992.94 458.27 1221.38 456.87 1119.45 579.20 1020.53 713.46 1197.43 712.73
00019213 00000153 864.06 227.00 468.18 659.59 992.65 458.58 1221.65 457.09 1119.71 580.58 1020.53 713.73 1198.18 712.92
00019214 00000154 863.16 227.43 469.61 661.30 991.22 459.52 1221.37 458.50 1117.52 581.90 1018.04 715.02 1197.83 714.51
00019215 00000155 861.82 228.30 469.75 664.85 989.62 459.38 1220.37 457.86 1117.30 581.88 1017.27 719.50 1197.28 718.72
00019216 00000156 861.32 227.28 468.71 677.30 988.71 458.52 1218.29 456.97 1117.29 582.47 1015.74 725.90 1194.32 725.30
00019217 00000157 862.02 234.21 466.37 683.90 993.43 457.50 1221.11 457.94 1121.24 578.43 1020.92 727.57 1192.61 726.14
00019218 00000158 859.06 225.55 468.31 683.38 989.87 455.71 1216.26 455.91 1118.06 580.15 1014.38 725.44 1192.47 726.34
00019219 00000159 860.17 226.07 467.92 671.47 989.06 455.42 1218.27 454.40 1117.55 578.10 1015.59 720.15 1194.02 719.79
00019220 00000160 862.46 224.20 465.60 656.17 989.93 454.05 1219.89 455.17 1115.80 576.03 1014.48 711.70 1191.22 713.05
00019221 00000161 863.63 224.14 464.20 645.11 989.67 452.03 1220.37 454.19 1114.76 574.34 1016.22 706.92 1190.00 708.74
00019222 00000162 865.80 224.27 461.24 638.53 990.16 450.02 1222.01 452.55 1114.69 571.36 1017.83 704.10 1190.29 706.09
00019223 00000163 865.57 223.66 461.28 638.40 990.83 449.38 1221.98 452.41 1115.16 569.57 1018.46 703.26 1189.73 705.53
00019224 00000164 865.65 224.04 461.11 637.98 991.30 448.74 1222.48 452.06 1116.00 569.48 1019.44 702.89 1189.79 705.35
00019225 00000165 865.72 223.65 460.73 638.71 991.86 448.42 1222.91 451.68 1117.06 569.00 1020.26 702.72 1190.48 705.19
