Video ID: 	qyH50ybAPBU
H: 	1080
W: 	1920
FPS: 	29.97002997002997

FRAME INDEX X0 Y0 W H [Landmarks (5 Points)]

00000551 00000000 725.19 218.34 400.27 543.86 849.12 382.76 1044.13 407.23 947.18 511.52 849.58 608.95 996.98 628.99
00000552 00000001 735.93 212.94 395.21 556.45 859.84 392.14 1053.79 413.50 962.09 516.30 861.12 617.12 1010.53 634.37
00000553 00000002 744.20 224.20 397.15 550.89 865.55 400.37 1062.47 419.63 971.71 524.23 869.69 623.87 1023.97 639.13
00000554 00000003 753.29 224.47 397.03 557.00 876.76 407.87 1069.63 424.11 985.13 529.97 879.99 630.48 1035.94 643.72
00000555 00000004 758.28 224.61 398.49 556.56 893.50 399.36 1088.60 428.46 1004.46 528.42 890.81 629.10 1042.12 652.43
00000556 00000005 765.81 222.09 401.29 557.10 905.63 403.10 1099.41 434.06 1016.56 532.21 905.46 631.49 1051.52 656.04
00000557 00000006 774.68 230.95 398.65 542.92 919.19 411.49 1108.98 440.90 1031.79 534.04 921.22 633.24 1066.92 656.64
00000558 00000007 781.91 229.59 400.78 545.75 933.44 414.63 1122.58 438.58 1053.72 533.80 940.01 635.24 1085.19 654.19
00000559 DELETE   785.94 238.15 406.04 538.78 950.20 414.59 1127.07 433.84 1070.71 531.13 958.33 630.54 1094.10 645.40
00000560 DELETE   798.88 242.59 395.52 537.92 969.07 415.21 1141.36 431.04 1097.73 530.27 975.24 632.17 1111.16 644.96
00000561 DELETE   816.87 231.83 384.02 547.51 991.03 412.82 1157.22 430.96 1119.55 532.58 993.48 632.57 1126.19 648.67
00000562 00000011 824.09 258.49 376.78 515.42 1002.44 402.31 1166.79 422.68 1133.58 532.58 1010.89 628.36 1132.95 644.13
00000563 00000012 827.72 252.66 379.32 520.66 1015.02 406.23 1173.59 426.63 1146.26 532.07 1022.44 627.42 1139.55 643.50
00000564 00000013 832.03 252.66 375.13 511.84 1020.24 403.39 1176.18 423.06 1152.62 530.83 1028.15 625.70 1141.71 640.99
00000565 00000014 834.45 251.17 371.99 511.58 1021.69 398.90 1176.28 424.24 1154.36 526.76 1028.49 618.79 1140.88 638.60
00000566 DELETE   835.66 252.60 370.10 504.18 1020.12 393.47 1175.77 422.68 1152.27 522.91 1025.57 611.43 1139.67 634.28
00000567 DELETE   833.55 250.02 367.71 498.47 1021.81 388.88 1174.37 422.61 1149.03 521.33 1023.35 604.45 1134.20 630.62
00000568 00000017 829.77 256.68 368.71 491.05 1020.89 384.54 1171.74 421.05 1145.54 520.28 1019.98 601.90 1130.60 630.11
00000569 00000018 821.94 239.31 374.81 512.97 1020.15 391.18 1173.81 427.13 1151.41 515.70 1016.34 599.32 1135.98 629.16
00000570 00000019 819.68 229.39 371.84 523.52 1019.28 385.81 1171.47 424.34 1150.69 512.50 1014.99 597.72 1133.28 629.58
00000571 00000020 820.11 233.34 365.71 518.03 1016.92 380.93 1168.85 421.06 1147.64 509.45 1011.01 594.99 1129.48 628.38
00000572 00000021 828.51 233.73 361.09 514.74 1011.32 375.85 1167.49 417.20 1138.38 496.32 1008.09 597.70 1124.20 632.40
00000573 00000022 821.53 223.20 361.27 523.14 1014.73 365.60 1170.49 410.51 1149.64 487.01 1008.87 588.63 1124.36 626.11
00000574 00000023 819.68 216.66 358.20 529.17 1009.60 358.30 1164.82 400.73 1144.68 476.12 1007.42 582.40 1125.42 617.84
00000575 00000024 813.91 212.79 360.96 529.85 1007.57 355.39 1162.16 397.49 1140.92 472.24 1007.74 578.47 1124.68 613.17
00000576 DELETE   806.50 206.51 360.82 540.66 997.32 359.46 1151.75 398.58 1132.93 470.71 999.85 577.49 1120.34 609.56
00000577 DELETE   802.41 212.76 357.36 530.11 984.42 367.72 1126.95 387.07 1115.43 481.64 1001.28 592.41 1104.19 609.11
00000578 00000027 789.03 211.73 364.62 532.69 971.20 376.47 1118.85 389.91 1109.10 489.37 993.29 598.22 1099.07 609.95
00000579 DELETE   781.94 208.43 368.65 539.78 963.56 384.52 1118.87 404.79 1102.76 495.04 982.59 601.16 1096.96 618.08
00000580 DELETE   774.04 221.31 379.51 528.61 950.16 396.34 1111.57 410.14 1084.18 506.01 976.49 610.64 1092.33 620.94
00000581 00000030 763.20 235.59 389.24 524.61 937.37 398.35 1103.22 410.51 1068.39 514.53 958.57 615.06 1080.74 624.02
00000582 00000031 751.99 226.29 398.58 535.91 922.70 395.24 1096.59 409.80 1051.80 514.09 940.48 616.61 1068.24 627.29
00000583 00000032 746.49 219.63 396.61 544.33 904.42 389.89 1085.06 401.76 1028.90 515.77 924.89 615.67 1053.44 623.93
00000584 00000033 746.24 220.95 385.69 538.90 886.64 400.78 1069.70 406.78 1008.88 516.18 908.07 619.32 1049.08 623.05
00000585 00000034 741.85 217.44 386.80 538.58 874.20 393.98 1060.99 402.47 992.00 514.64 894.43 610.01 1039.38 615.28
00000586 00000035 730.67 220.93 393.66 532.68 863.75 387.41 1054.28 395.16 980.70 508.61 884.63 603.82 1031.81 608.01
00000587 00000036 726.20 212.01 391.13 538.64 857.96 380.47 1050.68 388.66 975.07 502.29 877.47 597.82 1025.50 602.90
00000588 00000037 723.14 171.22 398.22 575.54 855.16 368.43 1051.11 380.11 977.63 484.14 874.69 589.59 1032.07 598.39
00000589 00000038 721.82 181.84 397.49 565.99 852.48 362.40 1048.39 374.60 974.87 480.69 871.88 587.72 1027.85 596.84
00000590 00000039 718.47 196.61 395.20 554.03 854.09 368.95 1043.58 374.14 970.37 488.51 870.67 589.85 1016.22 592.96
00000591 00000040 720.05 200.26 394.61 548.76 855.71 364.76 1043.76 370.23 969.50 486.47 871.33 587.40 1014.67 590.78
00000592 00000041 723.66 179.38 396.97 565.87 856.81 353.81 1049.60 367.09 975.19 476.72 870.84 580.08 1026.84 590.04
00000593 00000042 725.44 184.83 397.55 557.09 856.99 350.31 1051.49 363.63 976.34 474.37 873.24 576.84 1030.25 586.80
00000594 00000043 728.45 183.12 400.08 554.51 862.09 349.37 1053.81 362.16 981.98 473.08 876.32 573.53 1034.60 583.30
00000595 00000044 735.70 183.62 395.34 550.89 870.03 348.07 1058.81 363.67 989.27 470.10 879.59 568.73 1038.47 580.87
00000596 00000045 739.35 178.63 396.31 554.86 874.00 347.27 1063.45 364.36 994.80 469.50 881.74 567.59 1042.58 581.01
00000597 00000046 744.70 171.32 393.44 564.76 880.80 347.18 1068.16 365.41 1002.12 469.52 886.47 569.19 1045.51 584.09
00000598 00000047 748.40 167.76 395.36 569.33 888.35 346.83 1075.87 367.29 1008.90 467.27 891.24 567.85 1051.50 584.76
00000599 00000048 748.31 164.01 399.42 567.96 889.95 339.42 1083.04 363.03 1010.95 466.57 892.08 567.26 1048.65 586.42
00000600 00000049 751.06 156.48 401.64 576.53 894.34 338.52 1090.26 365.43 1014.07 466.56 894.65 566.70 1052.10 588.29
00000601 00000050 752.52 157.87 403.01 574.64 897.49 337.16 1093.32 365.67 1016.62 466.20 896.90 565.97 1053.22 588.71
00000602 00000051 753.00 153.80 404.16 577.41 900.18 335.85 1095.51 365.61 1018.67 465.67 898.29 564.69 1053.92 588.35
00000603 00000052 753.70 162.79 403.60 563.41 899.61 332.37 1095.73 362.16 1017.62 463.42 899.18 561.21 1054.23 584.35
00000604 00000053 755.67 150.18 401.06 572.22 901.83 326.24 1096.96 359.43 1019.68 459.20 899.45 557.79 1053.89 583.82
00000605 00000054 757.66 151.89 402.18 566.71 903.81 321.72 1099.14 355.07 1021.84 455.62 900.37 555.09 1054.63 581.13
00000606 00000055 758.82 157.07 402.10 557.14 903.28 317.55 1098.02 349.93 1018.57 455.66 901.07 550.28 1053.04 575.06
00000607 00000056 757.96 160.04 404.07 550.62 901.55 314.19 1098.27 346.44 1016.79 452.71 899.62 546.59 1052.82 571.35
00000608 00000057 755.79 154.12 404.16 553.71 898.94 310.44 1097.02 344.54 1013.51 448.02 897.19 542.97 1051.03 569.24
00000609 00000058 753.76 145.11 404.05 562.00 897.53 308.67 1094.63 341.88 1013.12 442.77 895.24 541.31 1049.09 567.35
00000610 00000059 752.79 143.79 404.40 564.28 895.21 304.61 1093.96 337.99 1009.23 442.39 891.42 539.81 1044.28 566.08
00000611 00000060 752.45 142.88 403.74 563.67 892.70 302.87 1093.08 335.93 1005.07 440.47 887.34 539.18 1042.24 565.08
00000612 00000061 751.67 134.55 404.06 572.19 890.53 301.70 1090.30 334.76 1000.66 437.78 883.51 537.40 1040.01 563.62
00000613 00000062 750.95 126.82 405.46 579.08 890.79 300.49 1091.09 334.31 1000.64 436.71 882.57 536.70 1039.37 563.76
00000614 00000063 751.42 128.13 406.79 582.65 890.58 301.24 1090.20 335.35 999.63 437.36 881.85 536.38 1039.01 563.72
00000615 00000064 753.09 143.07 408.49 570.18 893.96 302.85 1092.17 339.18 1000.88 438.61 882.85 536.02 1040.80 565.00
00000616 00000065 756.81 152.18 409.36 560.68 897.38 303.80 1095.39 341.35 1004.32 442.14 887.45 535.58 1046.67 565.08
00000617 00000066 759.08 157.89 413.48 557.36 905.96 309.51 1102.67 348.03 1014.36 447.30 896.68 539.15 1054.02 569.62
00000618 00000067 763.22 166.09 410.58 551.92 916.80 320.94 1105.71 353.44 1031.05 454.31 913.63 548.59 1066.26 574.26
00000619 00000068 769.65 171.16 402.64 547.96 933.90 337.07 1118.22 364.81 1054.73 456.85 932.51 555.77 1081.36 578.18
00000620 00000069 779.58 182.91 403.74 547.09 951.02 345.38 1129.58 371.06 1078.64 470.65 951.53 569.84 1091.65 591.34
00000621 DELETE   793.25 198.82 388.65 531.85 973.64 357.05 1149.31 395.57 1108.31 470.07 973.47 572.63 1108.69 604.23
00000622 DELETE   808.64 194.52 385.57 542.48 996.09 358.96 1167.96 392.43 1125.85 480.20 992.01 577.61 1128.41 605.30
00000623 00000072 810.30 180.11 388.73 554.94 1008.60 364.60 1169.09 397.45 1146.95 481.44 1008.69 575.84 1136.95 603.53
00000624 DELETE   813.71 192.10 387.57 545.33 1017.38 369.56 1172.47 400.64 1157.76 486.23 1018.50 576.93 1140.94 602.88
00000625 DELETE   816.95 210.67 387.49 525.99 1022.49 371.30 1174.73 404.20 1159.36 484.23 1023.83 571.95 1143.61 599.15
00000626 00000075 815.94 205.62 386.39 527.42 1020.49 371.11 1172.83 405.08 1158.28 480.48 1021.11 566.16 1144.31 594.30
00000627 DELETE   812.80 207.44 385.88 532.32 1012.14 367.42 1167.14 400.99 1150.00 480.79 1009.82 567.39 1137.16 595.77
00000628 00000077 815.96 225.13 383.44 529.69 1001.59 373.33 1155.75 392.59 1134.10 479.59 997.50 583.42 1132.90 599.61
00000629 DELETE   803.21 222.74 383.74 540.32 989.88 376.74 1142.83 400.60 1119.72 485.68 983.64 586.58 1117.41 606.75
00000630 00000079 800.65 232.13 376.72 531.91 982.11 384.58 1134.94 403.44 1112.94 494.98 976.01 593.38 1108.91 610.04
00000631 00000080 797.78 225.82 376.65 534.15 977.23 385.69 1134.67 402.06 1111.72 497.94 976.99 598.44 1107.58 612.61
00000632 00000081 799.57 213.61 376.56 541.20 976.96 386.40 1138.98 399.70 1115.04 498.46 982.79 601.72 1114.33 613.36
00000633 00000082 798.77 217.75 373.38 529.54 979.84 381.83 1139.05 397.20 1116.63 495.21 992.11 601.26 1113.55 614.10
00000634 00000083 799.31 217.12 373.99 527.26 982.52 374.17 1141.21 389.76 1117.34 490.77 997.89 599.08 1116.37 611.38
00000635 00000084 795.71 215.37 375.51 525.18 980.92 370.67 1139.95 385.41 1117.53 488.26 998.55 596.11 1116.04 607.62
00000636 00000085 789.80 221.10 379.23 521.00 974.94 367.94 1135.46 381.20 1112.25 486.13 996.50 594.21 1115.03 603.92
00000637 00000086 784.10 206.40 380.90 539.60 974.33 366.49 1142.24 388.18 1121.45 475.20 991.60 586.09 1117.22 603.06
00000638 00000087 775.47 208.51 384.61 532.32 966.62 368.27 1126.69 382.19 1107.99 486.31 990.67 594.61 1103.90 605.51
00000639 00000088 771.56 213.31 388.29 526.66 961.62 366.91 1123.97 380.33 1104.28 489.47 986.86 596.26 1100.18 606.46
00000640 00000089 768.81 213.38 389.73 525.62 960.30 365.47 1121.30 381.29 1099.77 490.35 987.13 596.00 1097.48 607.50
00000641 00000090 767.06 210.82 389.68 527.76 960.52 364.21 1120.47 382.02 1097.50 492.03 985.53 596.06 1094.28 608.98
00000642 00000091 765.78 213.16 391.70 526.26 959.86 365.58 1120.85 382.55 1100.16 494.01 985.19 597.99 1095.71 610.32
00000643 00000092 765.40 216.94 393.52 523.21 958.81 366.22 1121.30 383.85 1098.57 495.06 984.12 599.05 1095.83 611.59
00000644 00000093 769.05 224.87 390.34 517.90 958.10 367.95 1121.29 385.25 1099.16 496.24 981.68 601.21 1095.44 613.93
00000645 00000094 769.55 230.44 393.07 519.19 959.83 369.02 1122.06 389.92 1098.76 496.44 982.40 602.35 1095.22 617.49
00000646 00000095 773.10 230.88 388.34 522.25 963.84 371.44 1122.12 393.30 1102.03 497.58 978.98 602.89 1091.98 619.84
00000647 00000096 774.54 228.59 386.72 528.85 965.85 372.76 1123.79 398.10 1103.06 498.51 976.39 602.59 1091.40 622.70
00000648 00000097 775.56 232.62 384.68 527.33 966.33 374.68 1124.23 400.40 1104.64 500.21 975.00 603.92 1091.75 624.69
00000649 00000098 777.71 230.52 382.19 531.28 967.55 375.54 1125.25 401.47 1105.00 500.25 974.98 604.77 1092.84 625.81
00000650 DELETE   776.02 233.64 383.22 529.72 965.16 376.39 1124.17 400.85 1103.97 503.09 974.88 606.45 1092.74 626.03
00000651 00000100 780.66 233.10 378.59 530.60 965.98 378.30 1125.70 402.43 1102.71 503.20 973.43 608.24 1092.51 627.82
00000652 00000101 779.35 228.56 380.46 536.71 966.24 379.09 1126.15 403.05 1104.64 503.86 972.90 608.91 1092.81 628.57
00000653 00000102 782.01 231.53 379.42 535.58 968.23 379.70 1127.49 403.10 1106.14 504.52 973.11 609.84 1093.41 629.35
00000654 00000103 783.05 233.43 381.03 535.43 971.16 378.92 1130.07 404.39 1108.67 504.19 974.14 609.28 1095.41 630.53
00000655 00000104 787.14 234.25 381.65 530.50 975.53 378.85 1136.26 406.33 1111.57 504.86 978.58 607.32 1100.27 630.09
00000656 00000105 794.58 230.18 378.60 531.44 982.82 380.36 1143.11 410.14 1116.24 505.13 983.78 603.90 1107.30 629.03
00000657 00000106 801.94 224.72 374.95 533.20 991.26 378.01 1151.13 407.85 1121.87 504.47 989.69 602.74 1113.01 628.48
00000658 00000107 807.54 229.31 374.19 527.25 996.01 377.44 1156.29 410.59 1124.28 505.03 991.98 601.73 1114.87 630.32
00000659 00000108 807.87 228.69 376.20 522.00 997.36 377.06 1159.40 413.68 1123.02 507.28 994.21 602.02 1113.97 632.85
00000660 00000109 809.56 226.38 379.07 523.34 997.31 377.16 1163.21 414.09 1121.53 510.31 993.41 603.17 1115.34 634.17
00000661 00000110 808.51 229.17 382.45 525.85 998.88 382.59 1161.83 422.23 1121.03 510.72 993.55 604.28 1113.76 637.44
00000662 00000111 792.54 215.27 399.46 548.73 1005.30 384.85 1160.82 432.45 1127.54 516.46 989.79 602.34 1108.94 642.40
00000663 00000112 791.66 219.67 400.09 545.81 1004.91 388.02 1158.70 432.63 1125.06 520.42 989.24 604.05 1107.50 641.71
00000664 00000113 792.12 227.07 400.26 538.78 1004.87 387.45 1156.18 428.77 1123.32 523.34 988.60 605.49 1104.64 640.59
00000665 00000114 807.30 230.93 388.38 532.43 997.87 389.17 1160.47 428.15 1118.83 517.32 988.64 609.71 1110.92 642.75
00000666 00000115 806.55 227.04 390.46 537.75 995.46 389.46 1161.63 428.64 1116.81 520.28 985.31 611.41 1110.85 644.77
00000667 00000116 794.92 229.65 400.65 542.78 1001.38 385.52 1158.02 426.92 1123.10 525.66 986.47 610.83 1105.77 645.99
00000668 00000117 795.52 226.39 400.50 543.53 999.67 385.45 1157.85 428.79 1121.92 524.47 985.01 608.75 1105.44 645.53
00000669 00000118 798.20 224.60 398.43 547.20 999.94 385.67 1158.99 430.15 1122.83 523.41 985.17 609.50 1106.70 647.28
00000670 00000119 798.79 230.84 399.11 544.66 1000.92 385.94 1159.40 430.27 1123.59 524.30 986.22 612.77 1106.44 650.28
00000671 00000120 810.80 232.67 389.66 537.42 995.60 388.48 1163.52 432.65 1118.03 517.25 985.59 613.47 1111.72 650.44
00000672 00000121 808.24 243.95 392.07 524.48 996.24 391.45 1160.19 429.58 1117.67 521.80 990.30 617.93 1110.49 649.50
00000673 00000122 806.27 252.57 390.77 521.76 992.28 395.00 1155.88 432.34 1113.24 527.00 982.08 620.20 1105.32 651.60
00000674 00000123 801.71 251.73 391.21 523.16 985.52 396.89 1151.91 430.80 1107.10 529.88 975.11 621.97 1102.48 650.35
00000675 00000124 796.21 256.78 391.87 520.40 974.84 400.43 1144.11 434.13 1098.47 527.34 965.32 620.00 1098.48 648.30
00000676 00000125 788.76 257.29 394.18 522.97 966.55 399.98 1135.11 433.33 1090.11 526.67 956.58 618.61 1090.44 646.37
00000677 00000126 784.41 251.39 394.45 523.64 956.86 396.63 1127.80 429.25 1075.46 525.68 947.86 613.79 1085.06 640.93
00000678 00000127 777.18 245.23 396.01 527.12 948.79 391.62 1123.96 424.26 1070.48 522.87 939.96 611.81 1077.64 639.51
00000679 00000128 769.05 237.89 401.82 534.69 942.45 387.55 1119.35 421.64 1062.01 518.48 930.81 609.27 1071.51 637.91
00000680 00000129 764.09 241.97 406.98 533.56 935.56 387.54 1114.94 419.96 1055.24 520.41 923.78 611.30 1068.92 638.21
00000681 00000130 761.47 236.67 406.14 539.05 933.19 384.84 1112.54 419.84 1051.68 519.36 917.77 610.74 1063.88 639.78
00000682 00000131 761.06 239.60 404.81 535.48 930.37 385.24 1109.40 419.60 1048.51 519.03 916.72 611.28 1061.07 639.39
00000683 00000132 761.51 239.54 403.30 531.80 931.63 389.58 1108.85 421.75 1050.18 518.88 921.04 612.78 1062.71 638.90
00000684 00000133 764.28 238.57 401.47 530.09 938.41 396.50 1112.10 428.02 1056.88 518.35 928.92 611.41 1068.09 637.43
00000685 00000134 766.87 247.23 400.58 513.70 943.97 400.10 1117.16 429.60 1063.51 516.74 938.87 606.76 1077.81 630.76
00000686 00000135 772.86 242.28 396.48 513.35 950.49 397.15 1121.50 425.90 1070.28 512.70 945.30 601.50 1083.29 625.16
00000687 00000136 777.73 234.40 390.22 520.25 955.67 389.51 1123.96 420.41 1080.20 508.14 951.42 597.24 1087.06 623.04
00000688 00000137 782.58 228.94 383.27 521.76 959.39 383.72 1127.32 413.34 1088.96 504.24 960.65 596.77 1093.12 621.25
00000689 00000138 785.56 238.16 380.19 512.17 960.89 383.46 1127.89 412.30 1090.14 504.41 966.08 597.44 1095.05 620.71
00000690 00000139 786.92 241.26 378.63 507.02 961.28 384.63 1128.25 410.67 1090.40 507.09 968.55 598.73 1096.93 619.89
00000691 00000140 786.47 245.46 378.70 502.83 960.54 385.92 1127.12 409.24 1089.38 509.58 969.27 601.32 1096.31 620.01
00000692 00000141 783.33 244.27 381.32 504.13 958.63 387.40 1125.53 407.92 1089.14 511.09 969.78 603.02 1096.47 619.35
00000693 00000142 780.09 243.72 383.64 506.40 956.20 388.10 1123.78 406.24 1088.52 512.23 969.67 605.37 1095.71 619.56
00000694 00000143 775.24 239.82 387.43 509.26 954.32 387.48 1122.80 404.78 1088.71 511.53 970.56 605.52 1095.69 618.79
00000695 00000144 771.21 243.88 391.43 505.31 952.35 387.87 1119.93 405.25 1086.13 512.58 969.33 605.16 1093.58 618.17
00000696 00000145 769.06 244.66 392.35 504.59 950.40 387.16 1117.86 403.54 1083.97 512.95 968.16 605.60 1092.23 617.72
00000697 00000146 766.26 247.70 390.80 502.07 947.66 387.37 1112.59 404.10 1080.96 514.00 966.44 605.96 1088.24 618.24
00000698 00000147 760.98 243.38 392.89 506.15 942.92 387.89 1109.21 401.91 1077.51 514.32 964.06 606.03 1087.48 616.18
00000699 00000148 757.94 240.89 391.85 509.48 939.22 386.33 1105.10 400.86 1073.45 513.91 959.42 604.58 1082.85 615.19
00000700 00000149 753.73 230.99 390.48 517.92 936.29 383.65 1104.36 402.66 1071.09 511.07 956.23 602.39 1080.06 616.31
00000701 00000150 750.85 231.62 386.75 518.45 933.76 380.25 1100.31 401.75 1067.24 508.30 953.07 601.75 1073.97 617.42
00000702 00000151 744.27 236.51 383.66 516.42 930.13 390.37 1095.72 408.05 1070.73 507.05 946.31 598.97 1073.30 613.90
00000703 00000152 739.49 228.84 386.32 521.31 923.96 388.26 1089.86 404.99 1063.17 505.85 939.03 596.54 1066.54 610.84
00000704 00000153 737.46 230.66 388.17 517.57 919.18 385.34 1086.01 401.43 1056.32 506.82 934.65 596.16 1061.96 610.05
00000705 00000154 732.92 231.93 388.52 516.05 913.04 381.63 1081.53 397.52 1052.48 503.87 930.73 594.92 1060.90 608.90
00000706 00000155 731.17 229.09 388.10 518.36 910.63 376.61 1078.54 395.00 1050.09 499.49 926.17 591.56 1057.73 607.83
00000707 00000156 738.08 231.84 378.16 510.73 904.31 379.34 1074.85 392.83 1034.24 495.76 917.39 596.68 1052.52 606.86
00000708 00000157 735.22 214.13 378.85 528.01 909.23 368.67 1085.13 395.35 1048.98 484.09 920.36 587.36 1054.98 608.48
00000709 00000158 733.16 205.84 379.06 534.63 907.45 365.41 1082.54 392.26 1048.13 480.98 918.39 584.62 1053.37 606.17
00000710 00000159 730.76 200.12 379.20 540.00 904.75 363.65 1080.02 392.07 1045.45 477.72 913.94 581.67 1050.09 604.81
00000711 00000160 730.96 199.11 377.17 536.20 904.39 361.99 1080.60 394.07 1044.97 474.88 912.16 578.75 1047.86 604.95
00000712 00000161 731.79 195.44 378.28 539.98 907.03 360.63 1081.85 393.28 1045.10 473.70 913.78 577.14 1049.54 603.65
00000713 00000162 731.92 188.52 378.13 545.85 908.95 360.69 1083.78 394.19 1046.60 474.32 914.25 576.87 1049.79 604.33
00000714 00000163 734.10 182.10 379.64 554.52 911.83 362.51 1086.48 395.20 1048.10 476.60 916.03 579.01 1053.02 605.89
00000715 00000164 736.54 183.65 379.75 553.45 913.07 362.82 1088.70 396.24 1050.31 477.71 917.89 579.88 1054.82 607.40
00000716 00000165 737.79 184.06 381.14 555.64 916.58 364.07 1090.39 399.10 1052.28 479.47 919.55 580.10 1055.74 608.82
