Video ID: 	goRWTj3NO4E
H: 	1080
W: 	1920
FPS: 	25.0

FRAME INDEX X0 Y0 W H [Landmarks (5 Points)]

00001484 00000000 876.34 270.68 401.91 607.11 951.24 514.25 1133.94 507.83 1024.37 633.74 976.56 729.76 1130.50 723.28
00001485 DELETE   877.88 275.27 399.16 605.23 953.31 520.48 1132.04 514.44 1023.59 639.06 977.19 734.61 1128.98 728.12
00001486 DELETE   878.38 276.54 398.95 607.47 958.95 524.63 1137.01 519.91 1031.41 646.89 982.22 738.62 1132.36 733.24
00001487 DELETE   879.41 282.43 399.16 599.62 966.51 527.92 1144.15 522.11 1043.84 651.60 990.39 740.19 1139.43 734.09
00001488 00000004 882.68 289.28 397.22 588.82 968.82 522.50 1148.70 517.93 1045.94 647.80 991.77 736.02 1140.26 731.01
00001489 00000005 886.62 288.35 395.59 585.60 970.27 518.32 1152.76 517.17 1044.09 640.75 988.54 730.70 1140.00 728.46
00001490 00000006 888.58 286.97 395.92 582.42 969.30 510.68 1156.60 513.11 1040.43 634.12 984.37 726.04 1137.90 726.85
00001491 00000007 890.69 290.90 396.67 578.04 973.35 508.76 1161.22 513.84 1044.18 637.55 988.21 723.97 1141.21 726.71
00001492 00000008 892.98 293.16 397.24 579.29 979.12 511.45 1166.14 516.66 1052.26 641.13 994.05 727.02 1146.54 729.55
00001493 00000009 893.92 290.89 398.01 587.73 983.47 513.47 1168.66 518.00 1058.33 641.14 1000.98 731.55 1151.65 733.29
00001494 00000010 892.88 291.00 399.53 584.80 981.01 514.05 1167.56 518.72 1054.74 641.60 996.69 730.49 1148.73 732.45
00001495 00000011 892.55 293.16 400.00 583.44 978.74 511.52 1165.86 517.73 1049.27 640.65 991.21 728.04 1144.61 731.41
00001496 00000012 892.28 290.30 400.50 587.55 978.85 511.96 1164.71 518.33 1049.35 643.12 991.50 729.07 1143.38 732.58
00001497 DELETE   893.09 289.89 403.65 588.51 983.39 513.76 1169.45 521.82 1056.49 645.82 995.05 729.74 1148.30 734.62
00001498 00000014 898.79 285.02 399.48 602.17 988.07 515.36 1171.77 523.90 1068.85 645.73 998.55 734.38 1148.63 742.27
00001499 00000015 901.64 284.10 399.14 606.50 990.44 513.74 1176.38 520.61 1074.08 645.27 1002.03 737.21 1154.11 743.57
00001500 00000016 902.58 278.60 399.92 611.47 990.46 511.76 1177.88 518.74 1073.69 643.42 1002.55 734.85 1156.21 741.16
00001501 00000017 902.32 276.44 399.82 609.02 989.33 506.59 1176.92 514.82 1070.66 639.65 1003.90 731.18 1152.66 738.66
00001502 00000018 896.68 269.55 407.75 614.61 988.69 501.20 1178.04 516.48 1065.26 635.65 997.75 721.85 1151.60 735.75
00001503 00000019 904.12 267.39 399.54 619.87 990.49 502.83 1174.00 511.65 1073.98 638.56 1011.48 734.10 1146.74 742.17
00001504 00000020 902.14 266.44 401.08 620.70 989.26 502.50 1173.68 508.60 1076.09 640.83 1015.18 739.45 1146.37 745.31
00001505 00000021 900.46 261.58 402.38 630.87 988.05 503.35 1173.41 508.13 1075.76 640.90 1014.74 742.78 1147.01 747.55
00001506 00000022 901.03 259.16 403.84 625.28 989.60 498.47 1176.56 512.02 1067.50 633.50 1004.18 727.71 1150.41 740.13
00001507 00000023 898.86 259.50 406.72 631.89 987.20 496.66 1176.54 510.53 1063.48 632.62 997.63 725.72 1151.39 738.20
00001508 00000024 896.27 257.44 410.12 635.59 986.18 495.78 1178.27 509.07 1064.04 632.03 995.42 725.23 1154.26 736.94
00001509 00000025 896.66 256.43 409.46 643.58 984.32 496.81 1179.02 503.91 1070.16 635.08 1000.35 734.04 1154.16 740.50
00001510 00000026 894.22 253.55 411.99 643.32 983.99 495.06 1178.48 506.37 1064.60 632.90 994.75 726.96 1157.53 736.92
00001511 00000027 891.46 252.52 412.82 649.13 982.15 495.19 1176.81 506.12 1062.69 633.54 992.22 727.20 1157.45 736.85
00001512 00000028 888.74 252.68 414.33 651.33 980.34 495.05 1175.56 506.49 1060.80 635.10 990.34 726.71 1156.73 736.81
00001513 00000029 883.74 256.02 419.22 640.64 979.61 498.36 1178.98 504.93 1064.15 639.21 994.45 730.52 1160.24 733.74
00001514 00000030 882.05 256.79 419.88 638.73 977.26 499.59 1177.89 505.13 1062.76 641.21 994.35 733.74 1157.24 736.11
00001515 00000031 879.36 257.09 422.02 636.28 973.47 500.44 1177.17 505.40 1060.83 644.68 992.42 737.12 1155.84 738.99
00001516 00000032 876.88 256.50 423.29 638.89 971.06 502.12 1176.55 506.74 1060.19 647.97 992.99 739.51 1157.26 740.81
00001517 00000033 874.59 258.09 425.26 638.60 970.11 504.33 1175.22 507.01 1062.11 650.70 994.67 742.02 1158.29 741.61
00001518 00000034 872.81 268.08 424.68 629.29 970.98 503.95 1173.54 507.21 1059.91 652.59 995.31 741.92 1157.69 741.33
00001519 00000035 870.63 266.84 425.95 636.61 969.63 507.82 1169.61 509.63 1056.85 652.67 993.12 743.83 1156.45 741.89
00001520 00000036 865.75 262.36 428.95 644.42 967.72 508.64 1165.84 509.88 1055.75 653.62 991.97 744.59 1153.65 742.10
00001521 00000037 863.29 257.14 430.31 652.07 965.20 512.91 1162.66 512.97 1055.50 654.82 991.01 746.95 1153.52 743.48
00001522 00000038 861.11 260.38 432.50 651.25 963.57 513.65 1160.98 514.23 1053.59 654.57 990.32 747.61 1153.02 744.47
00001523 00000039 858.93 261.83 432.80 650.35 961.06 514.03 1158.98 512.39 1051.49 654.66 990.16 749.72 1151.54 744.67
00001524 00000040 855.62 259.44 435.18 653.46 958.43 512.71 1157.42 511.05 1049.47 655.68 988.97 749.85 1150.90 744.72
00001525 00000041 852.61 260.67 438.08 653.29 953.84 513.54 1154.30 511.00 1045.46 656.31 986.84 751.82 1147.90 746.15
00001526 00000042 851.62 259.75 438.33 655.04 951.22 515.94 1153.12 511.60 1043.92 657.78 985.40 755.02 1148.41 748.03
00001527 00000043 849.26 256.94 439.41 660.07 948.55 517.43 1151.32 511.18 1043.56 658.67 984.11 755.88 1150.02 747.33
00001528 00000044 845.41 254.66 443.22 665.67 945.64 519.77 1150.54 512.81 1043.28 660.35 981.69 757.66 1151.04 748.68
00001529 00000045 842.91 255.58 444.90 667.41 943.38 521.26 1148.19 512.54 1041.61 664.04 981.04 759.85 1151.99 749.46
00001530 00000046 838.12 260.70 447.58 663.87 939.73 523.59 1143.85 513.95 1038.32 665.84 976.38 759.40 1149.66 748.63
00001531 00000047 834.82 261.53 448.97 668.91 939.14 525.28 1140.75 515.86 1036.22 666.99 971.99 758.22 1146.59 747.94
00001532 00000048 832.80 256.85 448.70 676.99 937.86 527.00 1136.91 517.26 1034.53 669.08 969.70 758.14 1145.74 747.82
00001533 00000049 832.49 257.36 447.57 677.18 935.08 529.65 1132.13 519.20 1030.04 671.10 968.33 762.40 1141.31 751.75
00001534 00000050 830.86 263.44 449.10 674.11 936.70 529.42 1133.60 519.62 1031.96 673.92 969.04 763.49 1142.92 753.48
00001535 00000051 832.03 267.80 448.69 670.58 938.98 529.64 1137.87 519.62 1037.51 676.87 974.34 766.46 1148.13 755.96
00001536 00000052 834.03 267.95 447.58 672.63 941.49 532.23 1142.05 518.24 1045.40 678.61 981.63 772.14 1154.37 758.11
00001537 00000053 835.35 270.76 447.46 669.34 942.97 532.68 1145.60 517.46 1049.75 678.30 985.31 774.27 1157.52 758.97
00001538 00000054 836.67 272.12 446.35 669.18 943.32 530.43 1147.29 517.28 1048.62 676.79 984.02 776.83 1152.38 763.18
00001539 00000055 835.87 273.15 446.79 675.95 943.57 527.23 1146.87 518.44 1044.32 677.24 978.84 778.42 1147.76 768.73
00001540 00000056 837.00 271.68 443.07 670.71 941.52 526.78 1147.20 516.80 1044.25 675.36 979.34 779.79 1146.18 769.24
00001541 00000057 838.39 270.62 443.98 669.04 942.98 526.78 1150.25 515.01 1049.23 675.86 984.26 781.34 1149.43 768.97
00001542 00000058 840.17 273.74 442.06 667.30 942.41 527.37 1150.87 516.09 1049.48 679.07 982.61 784.38 1147.53 772.59
00001543 DELETE   838.85 275.94 442.16 667.28 938.55 527.11 1146.49 519.78 1041.50 676.89 972.77 781.01 1140.98 772.92
00001544 DELETE   838.61 273.20 437.63 660.65 935.51 528.89 1139.99 527.08 1029.40 677.75 960.66 773.07 1130.45 770.24
00001545 00000061 839.06 273.58 435.04 658.47 931.43 526.29 1134.76 527.00 1020.11 677.00 953.82 772.82 1120.83 772.42
00001546 00000062 836.79 273.49 438.51 662.14 933.87 525.28 1136.82 527.09 1023.30 674.93 950.83 769.85 1120.13 770.50
00001547 00000063 836.30 268.21 438.80 667.19 935.31 524.84 1138.93 526.60 1027.16 672.20 952.51 768.88 1122.92 769.28
00001548 00000064 836.20 267.37 439.10 668.31 934.59 523.67 1137.42 526.68 1023.41 671.12 951.38 768.72 1118.99 770.29
00001549 00000065 834.72 267.87 438.81 664.08 929.44 522.70 1130.45 525.52 1014.62 670.86 947.79 767.68 1111.77 769.59
00001550 00000066 832.19 262.92 438.67 666.71 926.29 521.37 1128.39 525.88 1011.91 671.54 945.39 767.13 1105.98 770.75
00001551 00000067 832.41 261.77 438.45 667.37 925.20 520.56 1128.17 523.93 1012.09 670.16 945.76 767.53 1107.63 769.95
00001552 00000068 833.17 260.15 436.88 673.23 926.59 520.75 1128.94 523.37 1014.02 670.07 946.66 767.84 1110.78 769.59
00001553 00000069 832.50 260.59 437.10 673.42 927.00 521.01 1129.18 524.25 1014.90 670.65 946.26 767.77 1110.72 770.12
00001554 00000070 832.29 262.21 435.39 673.95 926.40 520.23 1126.98 523.43 1011.96 669.86 945.91 769.16 1108.22 771.46
00001555 00000071 830.49 259.22 435.86 671.90 922.28 518.37 1125.50 521.46 1008.27 668.23 943.22 768.94 1104.05 771.32
00001556 00000072 828.19 259.14 435.41 670.31 918.54 515.05 1124.72 519.78 1004.42 664.92 938.07 766.08 1101.10 769.92
00001557 00000073 828.70 258.43 438.86 672.07 914.58 517.50 1121.41 521.87 995.79 670.77 938.40 763.72 1096.64 769.63
00001558 00000074 831.51 256.47 437.47 670.25 917.76 521.41 1123.35 522.69 1003.00 676.77 944.36 765.55 1100.67 769.00
00001559 00000075 831.17 263.06 429.91 669.23 923.94 522.39 1129.38 519.89 1019.42 667.99 947.70 769.36 1114.21 766.92
00001560 00000076 832.23 261.73 429.89 669.55 925.66 522.93 1129.79 519.81 1021.84 668.16 950.30 766.96 1118.96 763.60
00001561 00000077 830.21 262.84 428.16 667.29 922.09 522.68 1125.87 520.00 1016.52 665.95 945.49 766.59 1113.34 763.80
00001562 DELETE   823.58 260.76 435.92 660.79 908.00 521.82 1115.47 522.50 991.86 672.71 933.46 759.88 1097.40 762.47
00001563 00000079 817.26 263.43 437.74 662.63 903.13 521.33 1111.86 522.45 985.39 673.67 929.07 761.67 1092.80 764.53
00001564 00000080 816.62 264.00 437.82 661.70 904.29 521.83 1111.58 522.40 987.12 674.04 931.61 761.63 1092.99 763.99
00001565 00000081 818.17 263.58 437.82 656.72 904.15 523.13 1109.86 521.95 988.16 676.12 938.23 765.18 1089.44 766.02
00001566 00000082 817.02 264.86 437.38 657.37 903.04 522.59 1109.33 522.55 987.04 678.36 938.41 767.64 1086.56 769.40
00001567 00000083 816.60 267.60 437.00 655.11 900.06 522.59 1107.59 523.41 984.15 678.49 935.25 769.68 1083.15 772.15
00001568 00000084 817.60 267.35 436.92 656.51 900.80 521.98 1108.85 523.27 984.00 678.07 934.40 769.35 1085.15 772.34
00001569 00000085 819.50 267.14 437.67 658.94 904.65 521.72 1111.04 523.31 987.40 677.88 937.16 767.71 1087.04 771.10
00001570 00000086 819.04 263.57 433.68 664.49 910.46 523.55 1115.85 521.91 1005.61 670.36 940.37 772.37 1097.02 771.11
00001571 00000087 821.91 269.59 433.21 659.33 904.20 524.42 1112.28 525.46 989.18 678.26 934.86 771.09 1087.99 774.10
00001572 00000088 816.08 270.21 430.79 660.31 905.60 526.31 1113.13 529.00 996.58 674.23 929.86 773.82 1091.55 775.78
00001573 00000089 812.72 269.61 438.35 666.63 898.45 525.41 1103.37 531.17 979.99 676.48 923.68 774.65 1080.06 780.53
00001574 00000090 814.77 280.52 430.91 650.63 900.18 523.65 1104.81 530.95 983.03 674.58 918.95 772.39 1077.36 778.33
00001575 00000091 814.93 277.95 429.34 654.27 900.55 523.91 1105.73 532.57 984.63 677.22 918.54 773.21 1077.42 780.29
00001576 00000092 814.16 277.14 431.68 655.71 903.06 523.75 1110.48 532.97 991.14 678.65 922.18 772.33 1083.10 779.84
00001577 00000093 814.52 277.74 431.46 656.17 906.71 523.38 1116.09 533.12 998.52 680.00 924.71 770.31 1090.98 778.13
00001578 00000094 815.66 273.55 430.12 660.46 908.41 525.08 1117.61 533.57 1002.35 683.14 927.45 771.86 1094.35 778.69
00001579 00000095 817.45 275.16 429.01 658.46 911.01 526.66 1118.75 533.71 1005.26 683.24 930.67 771.30 1097.41 776.91
00001580 DELETE   821.97 279.48 426.79 650.89 917.76 529.71 1120.55 535.95 1011.46 686.19 936.06 770.74 1098.07 775.88
00001581 DELETE   827.80 284.13 426.65 648.52 929.15 531.70 1129.43 532.99 1027.84 684.74 950.78 773.25 1111.40 773.99
00001582 DELETE   833.10 282.33 425.87 656.00 938.42 531.74 1139.98 529.99 1043.62 682.69 963.94 774.45 1129.71 771.74
00001583 00000099 834.62 277.12 425.06 660.44 940.04 529.73 1140.66 527.99 1043.99 681.81 967.74 776.45 1128.96 773.81
00001584 00000100 834.24 281.04 424.57 654.80 938.16 528.58 1138.98 527.31 1040.97 681.30 965.02 774.12 1126.42 771.93
00001585 00000101 833.94 285.52 426.15 650.77 936.69 529.49 1137.90 527.10 1038.14 681.23 962.62 773.08 1127.24 769.95
00001586 00000102 836.68 280.92 425.16 654.30 940.51 530.95 1138.97 526.02 1042.34 681.58 970.85 776.58 1131.90 770.88
00001587 00000103 838.52 281.83 426.76 653.58 941.42 531.79 1141.03 524.49 1045.11 682.89 975.69 778.97 1136.73 770.99
00001588 00000104 838.87 284.64 429.53 651.14 941.83 531.47 1142.75 523.35 1046.54 682.01 976.48 778.79 1138.10 770.16
00001589 00000105 840.33 285.94 430.09 647.92 943.14 529.93 1142.52 522.82 1045.79 679.58 976.55 775.71 1138.05 767.84
00001590 00000106 844.95 282.84 429.49 648.14 947.78 529.81 1146.10 521.33 1049.99 679.92 984.09 777.18 1141.33 767.70
00001591 00000107 850.52 279.52 428.22 649.72 956.27 531.52 1154.46 523.34 1058.93 681.25 993.48 777.65 1150.35 767.70
00001592 DELETE   853.37 281.77 430.20 651.40 963.78 532.34 1161.63 523.88 1067.82 682.24 1002.53 779.06 1159.41 768.25
00001593 00000109 857.32 282.23 429.39 650.18 966.72 537.01 1166.20 526.75 1071.61 685.54 1007.22 782.74 1164.57 770.57
00001594 00000110 860.26 285.95 428.94 648.39 968.56 535.76 1168.19 525.55 1073.24 687.26 1008.53 782.73 1166.67 770.88
00001595 00000111 865.20 279.49 428.77 655.60 972.35 538.30 1171.41 528.58 1076.56 687.49 1011.53 784.17 1169.52 772.71
00001596 DELETE   871.69 273.82 434.00 662.69 976.39 531.97 1183.57 530.28 1086.27 691.46 1005.34 776.14 1173.84 775.20
00001597 DELETE   880.43 271.22 430.37 664.94 986.79 535.27 1193.09 530.90 1099.25 690.19 1016.57 776.83 1182.39 773.44
00001598 00000114 883.21 276.72 430.72 660.06 988.81 535.50 1195.13 529.13 1101.50 687.92 1021.63 777.41 1188.33 772.00
00001599 00000115 882.63 277.28 431.59 658.18 987.03 534.99 1195.58 531.35 1098.13 689.80 1016.40 777.07 1183.46 774.10
00001600 DELETE   880.05 277.12 434.22 660.79 981.60 532.25 1191.07 532.26 1088.84 692.32 1008.61 776.70 1176.96 776.90
00001601 00000117 878.83 272.71 435.09 669.42 981.69 529.74 1190.02 531.40 1087.06 689.11 1003.65 774.52 1175.18 776.16
00001602 DELETE   881.50 277.17 434.71 667.37 982.71 531.48 1192.76 531.32 1088.07 687.54 1006.63 777.15 1178.09 777.22
00001603 DELETE   885.12 280.81 434.37 667.56 989.88 533.64 1198.41 527.40 1101.27 687.14 1020.80 781.69 1190.41 776.39
00001604 DELETE   886.26 285.55 438.38 671.22 996.87 532.17 1204.66 521.40 1113.46 684.12 1034.12 787.26 1201.25 777.78
00001605 00000121 888.19 290.63 439.40 666.96 998.16 533.84 1206.46 521.30 1115.11 685.69 1036.44 790.45 1201.94 779.70
00001606 DELETE   888.90 292.99 439.56 660.20 992.17 539.21 1201.38 529.75 1104.87 691.98 1027.57 791.65 1190.41 783.90
00001607 00000123 888.01 291.17 440.12 664.65 986.90 539.02 1198.05 532.83 1095.06 696.19 1022.15 795.55 1181.22 790.92
00001608 00000124 889.06 293.12 440.92 659.87 988.04 539.28 1198.65 534.41 1094.19 696.93 1022.45 793.13 1182.72 789.29
00001609 DELETE   893.58 290.94 440.88 663.61 997.82 540.09 1205.81 534.00 1105.01 692.50 1028.37 789.12 1194.91 783.40
00001610 00000126 895.47 288.75 442.62 671.49 1006.20 536.90 1213.18 529.55 1115.59 688.65 1036.96 787.09 1206.18 779.80
00001611 00000127 900.58 288.96 436.71 666.80 1006.52 535.57 1213.65 528.57 1115.25 686.32 1037.17 785.05 1207.41 777.86
00001612 DELETE   904.02 290.11 434.60 656.91 1002.33 532.81 1208.45 530.60 1101.30 683.20 1024.86 778.01 1196.36 775.04
00001613 00000129 905.64 293.76 432.07 647.28 998.54 528.90 1204.00 528.93 1091.97 680.79 1019.68 776.42 1187.09 775.74
00001614 00000130 905.85 293.49 433.42 642.83 1002.01 528.00 1205.69 529.23 1093.77 676.69 1021.41 771.34 1188.65 771.64
CROP_BBOX: 426 0 1564 1080
