Video ID: 	OQtXXYUQEBU
H: 	1080
W: 	1920
FPS: 	25.0

FRAME INDEX X0 Y0 W H [Landmarks (5 Points)]

00005462 00000000 568.11 98.78 364.62 551.44 762.97 329.64 902.28 329.02 895.93 407.05 760.68 491.62 898.33 493.97
00005463 00000001 561.56 97.94 367.80 552.01 752.94 324.05 894.35 331.68 879.68 404.16 753.53 490.77 888.18 498.67
00005464 00000002 561.99 95.75 367.35 548.86 752.29 322.32 892.92 332.37 879.13 399.59 761.99 493.68 887.53 502.66
00005465 00000003 569.49 89.42 365.93 554.46 764.93 318.45 903.86 329.57 898.04 394.52 786.38 498.02 902.64 506.68
00005466 00000004 574.27 85.00 365.05 557.25 781.87 317.94 908.95 331.88 914.80 388.08 804.64 496.61 912.43 507.79
00005467 00000005 574.13 86.59 365.34 556.00 791.75 316.93 910.82 334.83 922.42 392.18 808.26 496.45 911.13 511.54
00005468 00000006 560.29 87.52 371.50 553.66 790.40 317.59 902.38 339.20 916.04 395.31 802.75 495.20 898.35 513.16
00005469 00000007 541.58 95.73 363.77 545.90 764.78 319.74 886.33 339.12 896.63 397.98 779.18 492.79 880.27 509.74
00005470 DELETE   530.51 92.21 363.04 561.07 742.89 321.08 886.33 334.44 883.71 409.83 748.34 512.13 871.04 523.22
00005471 00000009 509.14 91.85 368.63 564.37 715.78 326.75 860.98 337.90 857.06 407.49 727.82 511.34 852.47 520.73
00005472 DELETE   488.51 88.38 372.39 572.18 694.29 331.79 833.35 333.01 835.84 403.82 715.97 510.33 836.78 510.85
00005473 00000011 471.45 87.50 377.57 579.51 678.14 334.55 816.07 333.06 820.76 403.65 706.61 512.71 826.38 510.04
00005474 00000012 463.42 96.33 373.09 580.29 666.37 340.91 802.13 342.07 806.22 415.83 690.74 520.35 808.00 520.27
00005475 00000013 465.22 102.23 368.65 587.77 657.12 334.08 805.21 337.23 796.78 421.01 663.28 527.20 801.21 530.54
00005476 00000014 454.94 103.14 368.79 597.23 645.15 344.52 791.63 337.55 786.65 430.18 645.76 535.78 788.43 531.90
00005477 00000015 444.43 107.14 373.83 588.61 639.97 347.35 784.37 338.62 779.86 431.44 637.61 533.70 778.58 528.73
00005478 00000016 439.89 106.09 373.59 586.40 631.79 348.32 777.12 338.78 773.89 435.10 642.16 539.30 776.38 533.35
00005479 00000017 439.33 106.45 368.75 583.34 630.59 352.34 772.77 339.87 771.09 433.93 658.81 550.87 778.00 541.66
00005480 00000018 437.31 111.28 367.01 580.33 627.97 359.54 766.79 344.31 768.55 438.07 664.94 559.64 774.71 548.13
00005481 00000019 432.04 116.29 370.75 581.68 623.06 363.04 762.54 348.83 763.82 441.88 667.18 567.43 771.64 556.70
00005482 00000020 430.17 116.55 371.61 581.68 619.82 365.47 762.31 351.03 761.07 446.35 664.47 569.92 770.80 558.61
00005483 00000021 427.40 114.56 375.07 576.88 616.43 365.19 766.71 348.06 763.56 447.64 659.57 566.22 774.99 551.97
00005484 00000022 427.76 112.00 374.79 577.22 620.79 359.07 769.75 345.55 770.20 440.85 662.97 561.34 778.25 550.12
00005485 DELETE   433.34 110.73 369.56 573.92 629.76 352.70 772.46 342.30 773.33 437.32 668.00 556.18 777.75 548.20
00005486 00000024 439.11 104.57 370.65 572.23 647.74 347.80 790.22 342.45 792.96 431.53 676.01 543.80 789.66 538.83
00005487 00000025 451.56 97.84 365.85 575.21 659.93 341.34 804.07 342.94 805.16 426.03 686.01 539.93 801.79 540.33
00005488 00000026 463.18 97.77 360.83 571.31 672.93 338.52 808.87 340.55 811.70 423.87 698.45 539.11 806.43 539.99
00005489 00000027 461.06 94.51 364.56 562.27 671.81 345.49 798.89 347.80 810.57 414.20 715.62 526.16 813.85 526.59
00005490 00000028 463.59 94.68 363.24 562.44 679.27 343.35 802.35 348.14 814.22 413.40 715.96 522.22 811.31 525.15
00005491 00000029 464.96 93.33 363.13 569.72 681.73 338.27 802.82 343.45 814.55 413.01 713.62 520.42 809.94 523.74
00005492 00000030 469.97 88.82 367.94 577.18 686.61 333.74 809.32 338.42 821.25 409.93 713.88 517.30 815.40 520.08
00005493 00000031 481.83 89.69 368.06 578.44 701.76 329.67 822.51 337.55 836.42 408.34 719.81 514.41 825.55 520.39
00005494 DELETE   495.37 89.38 366.02 572.57 716.70 328.13 838.69 340.19 851.27 410.02 727.07 512.47 834.87 522.78
00005495 DELETE   511.15 91.49 361.22 565.54 730.04 328.90 850.69 339.67 863.79 412.00 737.21 511.77 845.36 521.28
00005496 00000034 525.08 94.53 359.35 563.90 747.54 324.93 865.79 336.35 878.44 415.13 749.39 513.51 855.43 523.76
00005497 00000035 526.40 101.27 361.95 547.40 749.47 326.06 854.76 337.93 878.30 409.91 770.70 502.40 857.50 512.12
00005498 00000036 533.81 96.62 363.62 552.34 758.22 326.29 865.16 336.78 888.58 406.94 778.33 501.66 867.49 510.45
00005499 00000037 538.08 96.04 365.60 557.16 763.86 325.42 871.30 335.40 895.62 408.09 780.10 503.35 871.85 512.01
00005500 00000038 550.81 92.92 354.72 558.82 756.12 322.83 871.55 319.16 903.72 408.60 779.27 515.16 879.13 513.70
00005501 00000039 550.93 94.61 352.61 558.41 756.13 325.96 871.71 322.53 901.96 413.28 775.80 516.99 876.26 516.02
00005502 00000040 551.91 95.09 350.27 557.67 754.48 324.31 871.73 322.31 899.87 413.36 771.32 515.00 874.76 515.41
00005503 00000041 551.76 93.94 350.24 558.08 754.94 323.57 872.82 321.39 900.60 411.36 772.54 513.45 876.37 513.75
00005504 00000042 549.97 93.59 349.70 558.78 755.24 322.36 873.28 322.99 901.42 413.37 771.76 514.37 876.18 516.91
00005505 00000043 549.49 91.67 348.63 558.88 754.09 321.90 872.55 321.76 900.64 413.07 770.47 513.36 875.44 515.37
00005506 00000044 546.62 95.58 347.13 553.68 751.90 319.43 870.50 323.13 897.27 412.50 765.72 511.35 871.38 516.38
00005507 00000045 543.50 94.41 345.53 554.95 746.32 319.85 867.91 322.64 893.82 415.03 759.59 512.89 868.99 517.18
00005508 00000046 538.23 92.88 348.39 556.85 739.94 329.85 864.83 322.47 886.26 419.17 754.39 516.41 867.68 513.08
00005509 00000047 533.57 93.14 362.47 569.83 743.88 336.03 883.18 342.43 880.31 433.16 746.01 525.18 864.95 531.11
00005510 00000048 528.52 106.23 366.11 566.05 738.14 344.45 880.57 351.53 873.08 443.10 737.85 536.30 857.08 542.79
00005511 DELETE   515.10 106.41 368.16 568.70 729.51 347.34 869.37 354.71 865.00 443.69 730.03 536.96 846.77 543.47
00005512 00000050 501.23 103.82 370.67 566.57 708.15 345.42 854.27 339.83 851.79 434.02 721.73 533.45 841.83 529.10
00005513 00000051 480.48 100.58 374.15 575.78 675.93 352.50 828.15 342.46 822.91 429.61 695.78 533.56 825.77 524.87
00005514 00000052 468.99 108.02 377.03 576.16 656.81 355.92 808.50 345.43 796.62 443.73 684.81 543.97 809.41 534.50
00005515 00000053 463.53 111.01 371.44 583.31 648.50 361.84 800.55 351.59 784.90 457.58 677.22 557.46 798.42 548.69
00005516 00000054 467.88 124.23 367.43 587.88 652.33 378.31 811.19 371.13 789.03 483.86 662.84 582.92 796.94 578.85
00005517 00000055 454.83 139.44 380.59 600.31 647.84 406.68 809.40 392.59 792.33 516.98 656.99 611.88 790.53 601.99
00005518 00000056 441.69 164.56 388.93 593.33 642.18 418.31 793.68 403.44 779.80 536.88 659.03 624.88 779.10 613.81
00005519 00000057 438.91 168.96 383.92 586.91 640.27 427.73 796.17 405.32 783.83 536.38 650.85 631.04 772.47 614.52
00005520 00000058 430.01 161.07 382.96 589.17 627.25 424.03 785.62 396.47 774.85 524.58 642.10 622.51 769.48 601.14
00005521 00000059 421.78 150.36 385.26 596.29 620.20 413.74 775.40 392.18 768.43 510.27 637.18 613.31 762.92 596.39
00005522 00000060 419.85 140.76 383.74 597.29 616.88 404.07 765.89 383.23 765.06 497.67 637.47 604.53 756.11 588.45
00005523 00000061 421.07 133.46 385.54 598.22 619.87 397.26 767.92 377.20 766.49 492.54 639.39 597.78 758.28 582.57
00005524 00000062 427.56 131.44 383.42 593.87 624.71 393.50 774.97 375.85 769.01 489.67 649.11 596.95 767.09 582.94
00005525 00000063 435.12 126.28 380.85 595.65 630.53 386.01 782.90 371.50 775.86 481.37 658.19 593.81 778.60 582.46
00005526 00000064 442.20 112.70 375.62 604.86 639.73 373.55 788.48 367.04 781.45 468.31 667.34 584.95 784.23 580.31
00005527 00000065 444.70 106.99 375.27 600.19 641.66 364.27 793.87 358.49 784.88 462.26 671.10 579.01 789.58 574.58
00005528 00000066 445.47 101.47 375.23 600.69 642.77 361.85 791.53 350.18 785.32 454.47 676.84 575.06 791.93 565.82
00005529 00000067 446.24 99.45 377.39 605.43 644.30 360.18 793.67 347.02 787.48 453.08 677.69 575.17 793.76 564.69
00005530 00000068 440.54 95.32 387.73 612.37 636.80 357.35 788.81 343.09 777.15 453.21 676.31 566.48 794.93 554.59
00005531 00000069 445.71 96.30 388.55 608.18 638.78 352.77 793.71 337.18 784.62 450.06 670.22 557.87 799.02 545.10
00005532 00000070 450.51 92.60 387.18 612.21 641.44 353.15 796.63 338.04 789.17 447.12 672.14 553.44 804.09 540.52
00005533 00000071 452.40 94.90 388.94 606.59 644.27 352.81 798.76 338.46 790.42 450.40 670.55 552.19 801.93 540.39
00005534 00000072 450.48 96.26 388.02 610.13 648.45 353.27 799.57 341.89 789.82 458.69 667.03 557.90 790.47 549.26
00005535 00000073 457.09 91.62 377.13 618.56 649.90 347.27 801.96 339.92 798.51 449.27 661.03 548.38 797.64 545.65
00005536 00000074 455.26 91.79 379.52 598.19 647.84 343.93 801.79 334.33 793.63 445.97 660.65 539.66 796.52 532.21
00005537 00000075 458.86 88.43 378.10 592.52 656.69 337.32 808.95 332.21 800.34 434.73 657.38 528.27 797.37 526.09
00005538 00000076 459.46 86.82 372.82 586.50 651.40 334.96 806.81 331.10 795.96 426.75 655.34 522.36 798.14 520.98
00005539 00000077 459.96 83.96 371.81 582.79 649.47 331.24 805.96 329.51 792.66 421.62 656.78 519.23 798.60 519.30
00005540 00000078 461.15 81.59 373.02 584.53 651.07 329.73 806.95 327.48 793.70 420.89 658.50 518.53 799.69 518.22
00005541 00000079 464.44 84.52 374.46 584.50 653.44 330.74 808.90 327.43 796.17 422.11 661.84 519.55 802.09 518.27
00005542 00000080 464.97 85.47 376.28 588.80 649.28 338.25 800.05 330.35 791.82 423.44 675.85 523.92 809.15 516.57
00005543 00000081 469.18 92.01 378.53 588.97 656.13 343.70 808.12 335.87 799.75 430.88 683.09 531.01 817.29 523.07
00005544 00000082 474.00 92.99 381.47 591.88 662.69 350.64 815.14 337.07 805.65 436.70 689.60 541.03 819.82 528.75
00005545 00000083 481.72 93.68 381.35 591.34 671.72 352.04 828.41 340.11 814.65 437.37 704.72 548.94 829.19 537.92
00005546 00000084 488.38 91.56 381.99 598.16 682.67 351.87 840.77 341.07 827.86 439.18 715.28 553.17 839.75 543.11
00005547 00000085 495.00 87.33 379.30 604.23 692.27 350.11 846.98 341.87 836.24 441.60 729.23 558.11 846.38 549.92
00005548 00000086 502.30 86.53 379.22 607.58 697.78 344.25 853.65 338.77 843.45 439.67 734.44 557.94 853.05 552.26
00005549 00000087 508.72 81.96 379.66 612.35 703.29 340.54 860.07 336.83 851.43 436.21 739.84 556.33 861.05 552.33
00005550 00000088 513.33 77.39 378.82 617.38 709.34 338.82 860.21 337.31 855.58 430.26 749.81 556.08 865.55 553.69
00005551 00000089 514.54 76.51 380.15 622.12 709.45 336.39 861.41 335.08 854.00 429.49 752.40 559.78 866.47 557.57
00005552 00000090 513.00 80.10 381.21 616.54 705.09 337.34 860.05 336.94 848.50 428.30 749.02 558.80 864.49 557.30
00005553 00000091 511.55 83.55 381.56 607.35 699.03 338.39 857.70 334.71 841.50 430.59 738.33 554.90 858.36 550.94
00005554 00000092 510.97 83.44 383.35 610.44 691.23 338.51 856.39 333.08 834.47 431.76 723.93 552.08 854.43 547.04
00005555 00000093 509.73 82.22 384.60 615.13 683.27 340.42 851.17 332.42 827.72 434.12 712.51 552.12 849.90 545.23
00005556 00000094 508.83 83.21 385.15 605.04 677.87 342.34 849.85 333.46 822.24 436.25 709.35 550.78 848.82 543.08
00005557 00000095 507.90 82.46 385.18 603.44 673.08 342.45 847.56 335.15 817.69 432.69 707.48 548.88 849.22 542.36
00005558 00000096 506.24 81.36 384.37 602.17 671.00 343.12 840.48 334.64 812.10 431.45 710.25 549.80 843.75 542.07
00005559 00000097 505.36 80.07 381.14 602.37 666.63 345.76 831.74 334.42 802.38 435.09 710.60 554.54 835.70 544.27
00005560 00000098 505.37 80.23 379.27 599.79 661.73 346.05 828.35 333.62 795.79 435.90 708.35 554.34 833.77 543.04
00005561 00000099 503.98 82.39 377.84 597.29 658.62 347.01 825.68 334.19 793.06 435.44 705.72 554.20 831.66 542.60
00005562 00000100 504.02 83.53 377.17 596.84 661.04 348.52 828.28 334.03 796.14 437.58 705.59 554.26 833.39 541.18
00005563 00000101 504.50 86.82 378.49 594.40 663.69 348.37 834.03 334.92 802.17 437.69 705.39 551.83 840.24 539.49
00005564 DELETE   503.92 87.62 380.66 593.25 670.74 345.89 842.79 333.08 815.14 434.93 709.55 550.02 846.73 538.56
00005565 DELETE   506.46 84.48 378.85 598.68 677.22 346.54 846.23 332.31 823.06 434.57 712.29 549.66 848.31 537.38
00005566 00000104 509.84 89.74 377.28 598.81 686.67 345.25 850.86 328.77 831.96 433.85 715.27 548.66 851.07 534.85
00005567 00000105 512.46 84.74 375.09 599.60 694.36 342.22 856.17 329.39 840.81 431.84 720.63 544.03 856.23 533.38
00005568 00000106 517.92 81.44 374.43 596.52 703.64 339.86 863.04 328.49 848.92 428.22 733.66 542.26 864.27 532.51
00005569 00000107 522.04 85.00 371.25 588.28 709.85 336.01 865.76 326.17 854.55 422.63 741.10 539.29 866.81 530.81
00005570 00000108 527.12 82.91 366.48 586.86 716.00 333.10 866.67 323.54 859.99 416.13 747.86 535.62 870.42 527.45
00005571 00000109 529.62 80.22 364.78 588.36 721.73 330.85 869.71 326.63 865.23 412.27 753.47 533.60 873.08 529.70
00005572 00000110 532.90 79.51 363.25 587.71 724.75 325.23 874.10 325.18 869.37 405.81 757.13 530.43 877.88 529.54
00005573 00000111 535.29 77.32 362.35 586.57 729.60 318.51 878.82 321.99 873.51 400.84 756.49 523.66 878.22 526.11
00005574 00000112 534.63 74.41 366.60 590.85 732.91 312.46 881.73 319.41 878.18 395.58 755.51 518.53 878.72 524.12
00005575 00000113 532.27 72.06 370.90 590.52 731.76 310.11 885.83 317.65 879.87 398.60 748.29 514.62 877.58 521.13
00005576 00000114 532.78 70.74 373.22 587.40 731.04 312.17 886.65 316.19 878.77 402.12 746.52 513.07 878.13 516.80
00005577 00000115 534.19 70.13 372.75 586.21 731.09 315.45 885.64 316.36 877.95 403.62 748.18 513.64 879.08 514.69
00005578 00000116 532.95 71.22 373.62 592.51 731.56 316.96 885.17 316.73 879.61 406.18 748.60 517.78 879.33 517.86
00005579 00000117 533.15 72.40 372.14 599.88 730.99 318.33 882.63 317.20 878.05 407.33 748.26 522.43 878.44 521.79
00005580 00000118 533.96 74.96 370.62 600.13 726.02 318.74 879.52 317.91 872.62 405.75 744.74 523.64 877.28 523.32
00005581 00000119 533.36 74.13 370.90 605.33 721.69 316.80 878.28 318.02 868.96 404.56 741.14 524.96 876.56 526.27
00005582 00000120 532.52 73.86 373.28 608.83 720.00 311.27 876.61 313.37 867.45 399.90 738.72 522.40 876.36 524.45
00005583 00000121 530.13 68.47 375.19 617.16 715.72 306.19 876.56 311.56 867.15 392.75 737.43 521.47 878.27 525.80
00005584 00000122 529.15 64.94 375.93 619.45 715.46 304.16 876.10 307.63 869.50 390.19 736.20 519.00 877.62 522.11
00005585 00000123 528.19 65.33 376.49 617.26 715.89 303.12 876.68 305.92 871.21 390.14 736.29 518.28 877.69 520.92
00005586 00000124 528.41 65.44 376.22 611.53 716.58 304.86 874.81 306.38 869.33 389.11 738.47 516.65 876.21 518.43
00005587 00000125 529.19 63.89 376.55 609.09 719.42 304.51 872.63 303.84 871.65 384.34 745.44 513.62 878.71 513.79
00005588 00000126 529.29 67.13 376.89 604.65 719.64 305.23 873.29 304.42 873.00 383.27 746.32 513.14 880.94 513.06
00005589 00000127 530.20 67.89 375.56 603.21 718.94 307.14 871.72 304.43 872.01 383.56 746.53 513.54 880.82 511.92
00005590 00000128 531.46 70.07 374.64 603.32 721.21 310.44 872.93 308.75 872.00 387.50 748.42 516.92 881.41 515.92
00005591 00000129 534.88 71.72 369.03 597.98 724.36 313.27 871.12 310.80 871.70 389.01 762.08 524.16 883.43 521.89
00005592 00000130 538.11 73.49 365.80 593.39 726.23 316.29 875.50 310.64 873.12 393.67 770.81 532.33 887.92 526.89
00005593 00000131 539.19 72.36 366.63 592.01 725.03 321.18 877.20 314.46 873.15 397.27 765.30 528.74 888.16 522.67
00005594 00000132 541.13 80.07 367.34 584.58 731.19 319.45 879.57 317.74 874.55 400.27 764.09 526.00 884.15 524.53
00005595 00000133 531.60 80.87 377.89 590.19 733.40 322.69 867.78 323.90 869.42 407.79 766.35 518.40 874.27 518.64
00005596 00000134 529.65 86.27 380.58 580.94 735.01 324.87 873.48 328.46 872.86 409.60 760.33 512.05 876.28 514.55
00005597 00000135 538.71 89.04 367.13 576.34 734.85 322.00 886.72 322.97 879.13 412.80 750.07 520.32 879.72 521.46
CROP_BBOX: 192 0 1194 909
