Video ID: 	Tf2eYaldLLg
H: 	1080
W: 	1920
FPS: 	25.0

FRAME INDEX X0 Y0 W H [Landmarks (5 Points)]

00001171 00000000 1046.94 134.82 355.32 548.38 1080.09 376.98 1214.07 381.18 1082.64 464.00 1097.22 536.21 1227.89 538.48
00001172 DELETE   1046.22 145.88 350.00 533.89 1080.64 375.15 1215.37 380.28 1089.63 467.34 1099.47 537.73 1224.10 541.40
00001173 DELETE   1049.22 129.84 356.16 553.98 1081.72 373.67 1213.99 376.88 1081.18 462.52 1101.10 535.17 1229.75 536.25
00001174 00000003 1026.30 159.65 375.94 552.84 1114.59 393.63 1284.32 418.07 1175.27 491.93 1106.80 573.36 1255.49 593.67
00001175 00000004 1026.60 158.92 376.33 552.61 1114.52 392.97 1284.94 416.97 1175.86 490.30 1106.23 572.15 1256.88 592.13
00001176 00000005 1027.62 159.53 376.76 551.73 1117.43 391.99 1288.46 415.18 1180.49 489.11 1109.78 572.20 1260.30 591.54
00001177 00000006 1028.96 158.55 375.95 554.66 1119.95 390.91 1290.54 410.98 1186.08 489.25 1114.80 573.20 1264.24 590.05
00001178 00000007 1028.51 155.98 376.76 555.63 1120.58 387.61 1290.97 408.38 1186.92 488.52 1115.81 572.22 1263.07 589.58
00001179 00000008 1028.61 157.39 375.02 548.92 1117.44 386.14 1290.64 408.22 1182.12 485.53 1110.68 569.28 1263.13 587.85
00001180 00000009 1027.12 156.95 375.23 552.73 1116.74 385.71 1288.41 407.45 1180.88 485.52 1109.07 568.27 1261.20 586.63
00001181 00000010 1026.79 158.51 376.41 553.48 1119.32 386.16 1288.45 407.34 1183.79 486.26 1112.29 568.74 1261.25 586.61
00001182 00000011 1027.72 156.07 376.72 556.85 1122.71 383.91 1291.34 405.81 1188.68 486.07 1115.97 567.60 1264.16 585.91
00001183 00000012 1028.74 153.73 377.13 557.93 1125.24 381.46 1294.10 403.51 1193.22 484.77 1118.48 565.80 1267.56 584.10
00001184 00000013 1029.57 153.32 377.94 557.56 1128.28 380.35 1296.97 401.86 1198.72 483.27 1122.03 564.58 1270.69 582.43
00001185 00000014 1029.56 153.31 379.06 557.30 1130.62 380.01 1298.70 400.12 1205.00 481.60 1126.22 564.63 1273.39 581.42
00001186 00000015 1030.91 152.00 378.76 556.58 1134.03 379.30 1302.75 399.37 1211.86 480.17 1130.55 563.55 1278.67 580.24
00001187 00000016 1032.71 153.42 379.00 554.12 1138.92 378.97 1309.21 397.63 1220.72 478.37 1135.70 563.22 1286.07 578.88
00001188 00000017 1034.14 151.27 379.25 554.56 1143.79 377.28 1313.92 393.13 1229.94 476.64 1143.12 563.43 1292.33 576.74
00001189 00000018 1035.37 150.23 380.26 555.04 1146.86 374.98 1316.51 389.57 1234.56 473.51 1146.83 561.30 1295.70 573.60
00001190 00000019 1036.14 149.46 379.87 554.83 1147.76 373.48 1318.78 388.01 1236.19 469.26 1146.99 558.62 1298.59 570.88
00001191 00000020 1034.70 150.09 381.07 553.30 1145.13 371.33 1315.71 387.37 1231.80 464.75 1143.37 554.92 1295.21 568.38
00001192 00000021 1033.57 146.11 380.69 554.49 1141.57 368.48 1311.42 386.74 1225.37 463.01 1137.55 551.21 1289.72 566.30
00001193 00000022 1029.20 146.21 377.88 551.85 1140.61 366.40 1309.71 385.15 1217.68 464.14 1132.44 547.20 1282.82 563.70
00001194 00000023 1026.05 144.51 380.44 548.36 1137.20 365.62 1306.49 386.78 1210.90 463.25 1129.77 545.80 1276.97 564.31
00001195 00000024 1024.42 145.32 380.81 544.11 1134.90 365.89 1305.67 386.91 1208.75 462.82 1129.53 544.74 1276.83 563.18
00001196 00000025 1023.95 146.71 381.49 546.26 1135.28 367.38 1303.64 387.67 1208.80 464.30 1128.84 546.33 1274.33 564.04
00001197 00000026 1023.03 148.44 382.04 549.43 1134.33 370.38 1302.71 390.10 1207.65 468.45 1128.66 551.47 1272.58 568.75
00001198 00000027 1023.33 150.63 381.52 548.15 1134.42 374.36 1303.47 392.38 1209.34 474.53 1130.74 556.80 1273.65 572.74
00001199 00000028 1022.89 152.07 381.26 545.82 1132.48 377.46 1301.91 394.71 1208.09 478.80 1131.45 559.62 1273.01 575.08
00001200 00000029 1031.06 151.11 375.13 550.58 1128.63 379.05 1301.25 396.11 1205.85 476.96 1127.92 567.62 1273.90 581.96
00001201 00000030 1030.31 155.54 376.58 553.16 1128.59 383.56 1298.40 400.80 1203.45 483.55 1128.68 571.61 1271.93 586.06
00001202 00000031 1029.94 157.91 379.19 557.01 1129.89 387.87 1297.94 406.62 1203.81 487.13 1129.94 574.31 1271.37 589.81
00001203 00000032 1029.25 159.02 379.34 558.66 1129.56 389.58 1296.94 408.10 1202.58 490.10 1128.17 575.64 1270.55 591.00
00001204 00000033 1028.33 159.19 379.97 558.09 1128.43 390.34 1297.05 409.12 1201.70 491.23 1127.11 575.66 1270.95 591.21
00001205 00000034 1029.10 159.79 380.54 555.59 1127.63 390.71 1298.69 409.16 1201.23 492.10 1126.50 575.68 1272.87 590.78
00001206 00000035 1028.87 159.22 380.93 555.01 1124.99 390.76 1298.24 409.76 1197.40 491.03 1121.60 574.56 1272.30 590.11
00001207 00000036 1028.49 157.97 382.14 555.50 1123.93 390.76 1297.54 409.99 1195.72 491.67 1120.31 574.27 1271.80 589.84
00001208 00000037 1028.20 157.82 381.53 556.25 1123.05 390.13 1296.78 409.53 1194.85 491.23 1120.19 574.26 1271.56 589.92
00001209 00000038 1028.58 159.07 378.69 556.11 1122.97 395.12 1295.43 414.08 1195.38 492.32 1120.34 575.60 1271.60 590.98
00001210 00000039 1029.39 159.52 376.66 555.84 1123.53 394.78 1293.55 413.38 1193.65 492.75 1120.31 575.14 1269.82 590.38
00001211 00000040 1029.03 159.89 376.28 554.01 1123.74 393.69 1292.86 413.29 1193.65 491.34 1119.88 573.94 1267.89 590.13
00001212 00000041 1029.56 160.80 376.01 549.45 1122.52 393.39 1293.13 414.38 1190.96 490.64 1117.61 573.75 1264.72 591.17
00001213 00000042 1030.12 157.68 375.44 552.51 1121.27 389.81 1291.91 411.30 1187.21 489.37 1115.92 574.24 1260.55 592.09
00001214 00000043 1029.78 156.16 375.22 553.72 1120.89 388.02 1291.37 408.46 1186.85 488.25 1117.30 575.92 1258.39 592.86
00001215 00000044 1031.00 154.61 375.18 555.99 1122.37 386.55 1293.78 406.34 1189.67 487.73 1120.31 576.15 1260.40 592.55
00001216 00000045 1030.77 155.70 377.43 559.23 1127.89 387.05 1296.38 405.34 1199.42 487.68 1127.08 575.49 1265.98 590.77
00001217 00000046 1031.16 156.61 377.74 562.20 1130.52 385.18 1298.17 403.33 1202.83 486.74 1129.56 574.33 1269.91 589.58
00001218 00000047 1031.58 155.16 374.56 564.94 1128.55 382.38 1297.35 403.31 1197.32 483.93 1121.74 571.27 1267.73 588.91
00001219 00000048 1029.55 153.87 372.66 564.18 1120.55 379.38 1291.73 401.67 1183.34 478.79 1110.04 567.44 1260.97 586.27
00001220 00000049 1024.95 154.07 372.57 551.96 1115.13 370.57 1286.56 397.38 1172.28 469.91 1099.73 554.45 1254.32 577.59
00001221 00000050 1022.30 150.94 376.74 544.27 1107.82 363.44 1279.87 390.71 1161.53 461.57 1093.44 546.17 1243.31 569.89
00001222 00000051 1021.41 147.87 377.72 542.87 1104.53 361.92 1276.70 389.71 1155.41 458.28 1088.87 541.98 1238.41 565.96
00001223 00000052 1022.21 148.28 376.57 542.53 1106.90 360.85 1278.60 388.71 1159.85 458.91 1092.40 543.30 1240.09 567.43
00001224 00000053 1024.17 149.22 375.49 543.64 1111.64 362.83 1283.70 389.89 1167.46 461.51 1097.44 544.09 1248.72 567.60
00001225 00000054 1025.09 149.20 376.98 545.33 1114.48 366.02 1287.69 390.97 1173.74 463.83 1101.15 546.53 1254.94 568.09
00001226 00000055 1024.91 156.47 375.33 539.84 1114.89 375.03 1282.78 396.52 1172.96 465.59 1102.46 548.68 1255.85 567.48
00001227 00000056 1019.32 155.83 376.84 540.22 1116.36 378.61 1281.31 402.65 1171.45 471.71 1099.62 544.63 1249.46 565.89
00001228 00000057 1019.33 159.35 377.30 539.55 1113.34 379.07 1279.01 404.47 1166.09 475.82 1094.89 546.78 1245.29 569.38
00001229 00000058 1019.03 159.19 378.08 541.05 1112.06 378.22 1280.37 407.84 1164.68 478.88 1091.00 547.56 1241.94 573.92
00001230 00000059 1021.01 157.13 376.13 545.50 1112.73 380.02 1279.13 410.98 1166.21 482.10 1093.19 548.90 1242.16 576.04
00001231 00000060 1024.61 161.09 376.06 544.75 1114.91 383.59 1283.44 410.59 1172.62 482.17 1100.22 559.68 1253.44 582.58
00001232 00000061 1025.33 161.61 375.21 543.11 1116.54 383.79 1285.24 411.67 1174.93 483.27 1102.29 560.99 1255.01 584.56
00001233 00000062 1020.54 162.75 376.76 539.56 1116.79 382.43 1284.00 412.41 1174.64 489.05 1099.61 554.62 1246.21 581.30
00001234 00000063 1024.60 160.77 373.73 543.94 1114.73 383.51 1279.82 413.33 1169.95 484.62 1098.87 561.58 1246.19 586.98
00001235 00000064 1019.94 162.79 374.76 536.11 1109.91 380.58 1275.13 412.92 1159.18 486.72 1088.35 553.20 1229.08 582.65
00001236 00000065 1018.15 160.68 376.43 537.73 1106.85 377.73 1272.73 412.18 1153.49 484.48 1084.02 550.71 1224.90 581.82
00001237 00000066 1018.68 159.69 376.93 541.60 1106.85 377.09 1272.45 411.94 1152.61 483.40 1083.28 549.66 1225.78 581.00
00001238 00000067 1023.97 157.14 374.12 552.96 1112.62 380.58 1279.06 409.90 1166.53 479.67 1095.57 560.48 1244.23 585.64
00001239 00000068 1029.27 158.11 374.49 555.19 1122.16 382.60 1290.42 409.06 1182.91 483.19 1109.95 563.19 1262.62 585.33
00001240 00000069 1030.43 156.16 377.50 553.80 1127.44 380.56 1297.39 406.22 1193.72 481.20 1117.47 561.70 1270.87 582.77
00001241 00000070 1030.15 152.01 376.89 553.25 1124.28 377.17 1297.47 403.38 1190.41 476.96 1113.07 559.02 1269.03 580.50
00001242 00000071 1022.33 154.50 379.74 542.33 1121.25 372.72 1292.88 403.18 1180.59 477.16 1104.69 547.43 1257.06 574.20
00001243 00000072 1021.54 151.40 378.07 541.76 1115.47 369.83 1285.23 402.22 1168.15 474.42 1097.51 546.29 1243.86 575.24
00001244 00000073 1020.48 152.57 378.58 541.50 1113.22 371.51 1283.92 404.14 1165.87 477.52 1094.57 546.66 1241.91 575.73
00001245 00000074 1023.19 159.36 375.19 533.81 1113.76 382.63 1283.54 411.29 1168.40 482.01 1097.45 548.65 1248.09 573.76
00001246 00000075 1025.08 162.42 374.93 534.46 1119.16 388.23 1286.60 413.32 1177.15 485.30 1104.45 554.37 1252.87 576.51
00001247 00000076 1023.85 164.44 377.77 534.01 1120.27 387.29 1288.57 414.09 1178.69 486.95 1104.94 556.71 1251.42 580.53
00001248 00000077 1023.86 163.03 378.23 533.90 1120.75 384.87 1289.30 415.77 1177.04 488.09 1103.16 557.09 1247.35 584.58
00001249 00000078 1025.06 162.55 376.76 535.49 1119.08 384.38 1286.79 416.01 1174.41 490.57 1102.79 558.48 1245.12 586.67
00001250 00000079 1023.79 163.96 377.49 535.44 1118.74 384.31 1286.94 415.65 1175.36 491.79 1102.70 559.18 1245.24 587.14
00001251 00000080 1029.23 160.11 376.68 543.05 1118.88 388.07 1290.64 416.75 1177.49 488.75 1104.89 569.05 1255.10 592.91
00001252 00000081 1029.43 158.88 377.58 544.75 1119.75 388.55 1291.74 416.69 1179.68 489.66 1106.25 569.45 1257.19 592.75
00001253 00000082 1023.76 164.22 379.40 536.66 1120.35 385.05 1290.28 416.51 1179.26 493.25 1104.05 559.43 1249.58 587.30
00001254 00000083 1023.94 162.53 377.75 538.47 1118.96 384.70 1287.89 416.96 1176.33 493.22 1102.15 558.87 1247.29 587.39
00001255 00000084 1023.33 162.35 377.93 538.34 1117.82 384.71 1286.63 417.15 1174.31 493.33 1100.52 558.19 1245.71 586.86
00001256 00000085 1023.00 161.68 377.57 538.63 1117.23 384.70 1286.48 416.94 1173.86 493.57 1100.11 558.29 1245.32 586.80
00001257 00000086 1022.07 161.99 378.83 539.59 1117.22 384.70 1286.07 416.90 1173.81 493.50 1100.12 558.69 1245.11 587.22
00001258 00000087 1021.97 161.45 378.06 539.83 1116.02 384.31 1283.06 416.25 1171.31 492.78 1098.31 557.79 1241.45 586.32
00001259 00000088 1021.81 161.47 375.78 540.27 1115.11 382.46 1278.94 414.30 1167.56 490.25 1097.26 556.31 1236.58 585.01
00001260 00000089 1025.67 159.19 372.06 548.20 1114.60 383.73 1277.08 413.43 1167.30 482.04 1098.30 563.67 1239.56 589.15
00001261 00000090 1025.67 161.47 368.62 547.50 1113.57 385.65 1273.83 414.17 1165.36 479.52 1098.13 562.51 1237.66 587.32
00001262 00000091 1019.39 156.93 374.69 544.67 1110.33 380.89 1271.38 409.15 1157.63 476.38 1090.45 551.69 1228.88 577.90
00001263 00000092 1013.35 150.03 379.45 542.55 1103.80 371.64 1270.88 405.85 1147.63 469.67 1079.22 543.96 1220.85 574.35
00001264 00000093 1010.93 143.58 380.52 541.30 1099.97 367.72 1265.75 405.15 1140.31 465.57 1072.63 536.03 1213.77 568.38
00001265 00000094 1011.64 144.50 377.01 535.60 1096.21 366.90 1261.13 403.20 1132.53 461.68 1067.63 531.00 1207.76 562.22
00001266 00000095 1013.33 143.95 375.87 536.97 1096.63 367.53 1261.49 403.23 1134.24 463.27 1070.03 531.43 1210.31 562.21
00001267 00000096 1014.04 145.17 380.45 539.81 1102.27 365.88 1269.68 402.48 1143.92 465.23 1076.85 534.51 1219.42 566.27
00001268 00000097 1024.54 149.97 377.19 542.40 1106.16 365.58 1279.85 393.23 1157.69 460.40 1090.70 543.86 1241.83 567.70
00001269 00000098 1022.33 150.72 378.89 544.51 1115.94 366.44 1285.30 398.91 1168.74 470.33 1097.50 541.15 1247.40 569.77
00001270 00000099 1023.26 150.58 380.62 545.97 1121.99 369.59 1291.24 400.33 1180.37 474.57 1107.10 546.24 1254.98 573.22
00001271 00000100 1025.07 152.09 379.99 547.39 1126.75 370.94 1295.64 400.23 1189.68 477.22 1114.19 549.39 1261.69 575.06
00001272 00000101 1025.89 152.60 382.10 547.47 1132.59 373.51 1301.80 400.55 1200.32 478.71 1120.53 551.61 1268.13 575.21
00001273 00000102 1034.23 147.98 381.45 555.74 1135.42 375.67 1306.91 401.58 1208.74 477.16 1124.71 557.30 1277.16 578.79
00001274 00000103 1037.08 156.03 382.16 551.21 1142.82 380.29 1311.33 404.30 1217.11 479.21 1133.57 559.63 1283.60 579.74
00001275 00000104 1040.40 161.45 383.65 551.53 1150.21 383.65 1318.18 406.12 1227.83 485.55 1142.88 565.52 1290.74 584.85
00001276 00000105 1041.40 163.98 385.86 552.10 1151.98 385.14 1320.64 406.45 1230.28 489.11 1146.21 569.28 1292.89 587.81
00001277 00000106 1042.51 164.35 386.19 550.89 1152.74 386.42 1322.46 407.48 1231.42 490.45 1147.63 569.94 1294.96 588.27
00001278 00000107 1043.54 166.17 386.67 548.43 1151.95 386.80 1323.90 408.15 1230.21 491.40 1147.16 570.34 1296.78 588.78
00001279 00000108 1044.05 165.69 385.97 547.13 1152.10 387.29 1324.25 408.58 1230.88 492.57 1147.56 570.07 1297.59 588.43
00001280 00000109 1042.96 163.55 386.82 547.91 1152.32 386.62 1324.29 410.55 1230.16 494.03 1144.43 568.05 1295.81 588.81
00001281 00000110 1042.24 163.27 387.10 546.97 1151.54 387.51 1323.84 411.25 1229.23 495.42 1143.56 568.20 1295.74 588.96
00001282 00000111 1042.47 163.18 386.33 544.59 1149.38 388.35 1322.11 412.24 1225.60 494.59 1141.72 568.77 1292.63 589.63
00001283 00000112 1041.14 162.28 388.20 546.04 1147.54 388.84 1320.68 412.74 1222.00 494.88 1139.50 569.31 1290.19 590.05
00001284 00000113 1041.20 163.16 387.47 546.14 1145.94 390.30 1319.04 413.89 1220.11 496.07 1138.03 570.23 1289.23 590.62
00001285 00000114 1040.07 164.01 388.01 545.11 1144.76 391.18 1318.51 414.32 1218.97 497.22 1137.17 571.56 1288.52 591.53
00001286 00000115 1039.52 162.91 388.12 546.44 1144.01 390.96 1317.42 414.37 1217.68 496.89 1136.13 571.51 1287.12 591.70
00001287 00000116 1039.27 161.77 387.57 547.80 1143.48 390.63 1316.59 414.69 1216.60 496.35 1134.64 570.58 1286.43 591.21
00001288 00000117 1038.37 160.97 386.25 548.96 1142.16 389.91 1314.72 414.83 1214.14 495.17 1131.22 568.60 1284.29 589.89
00001289 00000118 1038.23 159.63 385.20 550.23 1140.83 388.94 1312.22 414.58 1211.16 493.96 1129.55 567.96 1281.42 589.72
00001290 00000119 1038.10 159.02 384.35 552.08 1140.12 388.32 1310.07 414.05 1208.98 492.70 1128.62 567.38 1279.16 589.13
00001291 00000120 1038.01 158.49 383.56 552.69 1138.30 386.91 1307.78 412.95 1205.68 489.72 1126.93 566.56 1277.09 588.26
00001292 00000121 1037.08 157.66 383.23 552.65 1136.93 386.29 1306.01 412.18 1203.62 489.43 1125.67 566.12 1274.90 587.78
00001293 00000122 1035.94 161.08 383.21 550.71 1137.93 390.44 1304.89 415.43 1204.21 491.37 1125.89 566.79 1274.69 587.71
00001294 00000123 1035.60 161.38 382.95 551.40 1137.49 391.16 1303.34 415.40 1203.68 490.94 1126.81 567.58 1273.29 587.87
00001295 00000124 1034.96 160.77 383.75 553.30 1137.72 389.59 1302.52 415.80 1202.97 489.65 1126.26 567.01 1271.44 589.00
00001296 00000125 1034.52 160.18 385.18 556.89 1137.46 386.86 1303.01 413.64 1201.63 487.38 1123.57 567.16 1269.10 589.83
00001297 00000126 1033.45 156.81 385.94 564.28 1136.88 385.67 1301.20 411.49 1201.04 484.37 1124.03 568.84 1266.67 590.61
00001298 00000127 1033.67 154.82 383.85 568.87 1135.13 384.82 1299.36 410.72 1197.80 484.14 1121.60 569.77 1263.66 591.62
00001299 00000128 1033.67 154.44 383.17 569.65 1133.17 384.33 1297.90 410.99 1193.90 484.33 1119.17 569.49 1262.48 591.92
00001300 00000129 1032.67 152.66 384.49 575.17 1133.69 385.25 1297.44 411.49 1194.54 485.44 1120.73 570.97 1263.18 592.99
00001301 00000130 1033.65 154.77 384.68 576.77 1136.15 387.98 1299.62 412.49 1198.78 486.24 1124.81 573.81 1266.22 594.48
00001302 00000131 1033.05 157.70 386.07 575.07 1137.15 393.90 1297.87 415.71 1200.76 487.63 1128.55 575.19 1268.70 593.66
00001303 00000132 1033.32 159.96 383.83 572.66 1136.45 398.49 1296.79 417.53 1201.42 487.84 1130.69 578.04 1270.64 594.30
00001304 00000133 1032.83 160.08 385.30 573.00 1135.76 399.46 1296.29 417.82 1200.98 488.38 1131.36 579.72 1270.21 595.55
00001305 00000134 1032.95 161.13 386.86 572.49 1136.06 396.67 1299.32 416.84 1200.37 487.40 1130.42 579.06 1270.76 596.48
00001306 00000135 1033.82 159.57 386.46 572.78 1135.32 394.95 1300.86 416.72 1199.22 486.63 1129.76 578.05 1272.08 596.50
00001307 00000136 1035.51 157.97 384.62 574.32 1136.94 392.09 1300.89 414.69 1198.80 485.13 1128.65 575.85 1270.23 595.04
00001308 00000137 1036.09 157.30 384.27 573.17 1137.29 389.51 1300.58 412.16 1198.33 483.63 1128.44 574.34 1268.08 593.54
00001309 00000138 1035.92 156.82 383.96 571.73 1135.70 387.86 1298.65 411.45 1195.09 483.19 1126.53 572.38 1266.00 592.31
00001310 00000139 1035.78 158.63 381.13 568.20 1129.57 389.46 1293.09 413.64 1184.60 481.82 1117.51 569.58 1261.15 589.93
00001311 00000140 1032.85 160.78 382.10 564.42 1126.29 388.46 1289.21 414.43 1178.59 478.50 1113.97 566.74 1257.49 588.56
00001312 00000141 1033.79 160.22 378.90 560.61 1123.53 384.73 1287.47 412.74 1171.34 474.36 1109.03 563.65 1253.34 587.54
00001313 00000142 1034.17 156.89 379.63 562.65 1122.42 379.87 1288.96 411.26 1168.25 474.46 1104.27 560.70 1250.52 587.28
00001314 00000143 1034.17 150.93 381.29 567.82 1121.09 377.13 1290.52 410.40 1167.96 474.63 1102.20 560.87 1250.59 588.80
00001315 00000144 1033.98 146.78 381.70 570.80 1121.36 373.38 1292.29 407.79 1169.87 474.65 1100.85 561.03 1250.02 589.89
00001316 00000145 1033.28 145.06 383.05 571.02 1119.38 370.91 1291.71 406.38 1165.77 472.86 1096.52 559.83 1246.60 589.70
00001317 00000146 1032.17 144.04 383.56 570.67 1116.68 367.23 1290.37 405.28 1160.36 470.92 1090.06 556.84 1242.78 588.92
00001318 00000147 1030.99 143.78 382.56 567.78 1112.84 365.11 1287.16 403.85 1153.58 469.67 1084.63 553.62 1238.33 586.22
00001319 00000148 1024.81 137.66 385.39 571.66 1114.43 359.21 1279.07 404.83 1160.74 464.10 1078.65 547.47 1215.14 586.09
00001320 00000149 1023.10 137.20 385.37 570.27 1109.91 357.48 1276.16 403.84 1155.56 463.60 1074.00 545.51 1214.57 584.63
00001321 00000150 1023.25 136.51 382.16 568.58 1106.85 356.78 1273.34 403.64 1152.12 464.21 1071.30 544.26 1213.25 583.75
00001322 00000151 1023.50 136.86 379.38 566.86 1105.27 357.03 1271.94 403.09 1151.05 464.42 1071.04 544.60 1214.19 583.28
00001323 00000152 1023.22 138.07 378.28 563.47 1104.54 357.49 1271.27 403.05 1150.76 464.66 1070.59 545.21 1214.45 583.43
00001324 00000153 1022.83 138.26 378.16 562.52 1104.27 358.15 1270.74 403.62 1150.23 463.93 1070.40 545.00 1213.82 583.12
00001325 00000154 1018.33 142.69 380.98 554.88 1104.70 364.88 1272.51 406.31 1142.65 466.71 1073.17 542.97 1213.43 579.06
00001326 00000155 1021.49 138.36 379.23 561.97 1103.32 357.60 1269.26 404.10 1147.59 464.96 1068.39 543.18 1212.88 582.13
00001327 00000156 1021.73 137.49 378.69 562.05 1103.19 357.84 1268.84 403.50 1147.32 464.80 1069.00 543.47 1213.42 581.75
00001328 00000157 1021.57 137.66 379.07 560.67 1103.05 357.22 1268.52 403.55 1146.75 465.29 1068.67 541.95 1213.78 580.71
00001329 00000158 1021.47 137.77 379.03 561.06 1103.49 357.00 1269.11 403.54 1147.42 466.07 1068.80 541.50 1214.36 580.45
00001330 00000159 1020.02 139.34 381.84 563.46 1105.78 358.23 1271.63 404.93 1151.34 466.25 1070.89 541.48 1214.87 580.74
00001331 00000160 1020.50 140.32 382.60 563.35 1107.81 359.22 1272.16 406.18 1153.99 468.22 1072.53 540.76 1214.12 580.41
00001332 00000161 1022.37 140.22 382.41 562.70 1109.08 361.03 1272.91 407.62 1156.71 470.62 1074.36 541.68 1216.14 580.84
00001333 00000162 1023.59 141.41 385.18 560.85 1114.21 362.71 1278.90 410.06 1162.81 474.35 1080.13 542.81 1223.03 582.48
