Video ID: 	lDnEOjj4phg
H: 	2160
W: 	3840
FPS: 	25.0

FRAME INDEX X0 Y0 W H [Landmarks (5 Points)]

00000126 00000000 1737.25 306.43 449.84 615.26 1876.91 536.18 2073.34 576.14 1963.88 656.96 1866.31 765.69 2002.11 796.55
00000127 00000001 1735.12 306.33 449.28 612.99 1873.40 531.46 2072.17 571.83 1960.58 652.93 1863.82 761.03 2001.84 792.22
00000128 00000002 1733.25 303.88 448.45 609.24 1870.71 530.90 2072.63 571.67 1959.24 652.30 1860.30 756.24 2003.09 788.04
00000129 00000003 1730.08 306.03 448.30 603.68 1866.92 532.80 2068.61 573.60 1954.32 655.26 1855.60 755.32 1999.57 787.34
00000130 DELETE   1728.20 300.03 445.34 605.23 1861.89 538.17 2068.48 582.68 1953.53 656.70 1845.79 750.87 2000.68 786.49
00000131 DELETE   1727.59 303.51 439.46 599.95 1855.45 543.07 2062.33 582.72 1948.43 657.25 1840.81 751.16 2000.79 783.47
00000132 00000006 1724.39 305.77 437.01 597.64 1849.14 542.89 2056.24 579.85 1942.32 657.21 1839.11 753.33 1996.68 783.07
00000133 00000007 1717.67 307.81 439.20 598.55 1841.02 543.38 2048.31 577.11 1934.83 662.40 1832.69 755.76 1992.97 782.96
00000134 00000008 1712.12 310.64 440.32 596.95 1833.16 545.32 2042.74 576.20 1929.72 666.81 1820.52 755.40 1995.08 781.37
00000135 00000009 1706.30 311.82 442.28 600.98 1826.96 547.59 2039.43 575.62 1926.57 666.94 1816.42 757.94 1995.09 781.63
00000136 00000010 1703.60 318.44 440.39 596.02 1824.38 549.36 2035.03 577.78 1922.81 669.91 1813.66 758.95 1991.85 782.76
00000137 00000011 1701.54 320.61 441.21 587.78 1823.00 550.28 2033.75 580.59 1920.36 670.71 1810.78 758.04 1988.60 783.26
00000138 00000012 1700.92 318.45 441.12 586.10 1823.86 547.82 2034.02 580.86 1920.89 668.76 1809.11 755.06 1986.35 782.48
00000139 00000013 1700.12 316.83 436.80 585.96 1826.56 543.96 2030.88 580.03 1920.08 664.73 1806.31 750.31 1980.97 780.20
00000140 00000014 1695.99 313.38 436.41 585.39 1827.10 540.34 2027.20 578.96 1918.12 657.90 1802.16 744.05 1974.24 776.09
00000141 00000015 1688.93 303.80 438.96 590.59 1821.02 531.94 2024.10 572.30 1911.20 646.98 1794.94 736.30 1966.33 769.93
00000142 00000016 1686.23 299.11 434.17 587.00 1815.52 522.46 2016.49 561.17 1904.52 640.42 1791.03 731.18 1960.21 762.86
00000143 00000017 1680.59 293.70 434.55 589.33 1807.72 518.48 2010.82 555.40 1896.75 635.26 1786.26 727.56 1954.58 757.55
00000144 00000018 1675.02 293.26 436.59 589.81 1801.58 518.33 2007.78 553.70 1893.23 634.43 1783.68 729.40 1951.91 757.65
00000145 00000019 1671.62 296.59 439.14 587.99 1798.60 518.24 2005.05 553.18 1889.00 634.70 1783.25 731.82 1946.96 759.32
00000146 00000020 1669.90 298.94 439.59 585.73 1797.25 519.10 2003.56 553.43 1887.88 636.02 1781.93 733.06 1946.19 760.03
00000147 00000021 1669.44 299.91 438.95 584.94 1796.91 519.55 2002.96 553.50 1887.89 636.71 1781.43 733.12 1946.24 759.79
00000148 00000022 1668.46 300.70 439.33 584.00 1797.31 518.46 2003.06 553.59 1888.02 636.28 1781.26 731.24 1945.04 758.71
00000149 00000023 1669.68 299.57 437.59 584.65 1797.85 517.53 2004.04 553.31 1888.12 636.70 1781.34 730.43 1945.05 758.41
00000150 00000024 1670.50 302.14 436.41 583.41 1798.07 519.51 2004.27 553.61 1889.11 639.94 1783.69 732.75 1947.24 759.24
00000151 00000025 1670.28 306.89 437.16 580.50 1798.46 522.90 2004.82 555.25 1889.89 645.09 1785.95 735.79 1948.64 760.83
00000152 00000026 1670.32 311.85 437.62 579.48 1798.97 526.62 2004.49 557.48 1890.77 649.19 1789.14 739.19 1948.94 762.76
00000153 00000027 1668.47 314.59 439.72 579.19 1798.24 528.75 2004.38 558.82 1891.39 652.24 1791.52 741.89 1948.18 764.64
00000154 00000028 1668.19 316.44 440.00 577.89 1798.39 531.18 2005.40 560.52 1893.47 655.59 1792.25 744.76 1949.74 766.86
00000155 00000029 1668.44 316.44 439.99 579.13 1799.56 532.48 2006.60 561.95 1895.29 657.85 1793.03 746.01 1950.94 768.14
00000156 00000030 1669.13 315.78 439.42 580.06 1799.79 531.88 2006.41 561.58 1894.69 657.78 1792.99 746.61 1950.20 768.88
00000157 00000031 1670.20 316.83 438.22 578.51 1801.38 534.96 2005.69 563.93 1896.67 657.92 1794.77 746.57 1951.32 768.31
00000158 00000032 1672.87 318.05 436.61 581.92 1804.15 542.58 2002.85 569.87 1897.17 658.92 1797.28 749.34 1951.75 769.78
00000159 00000033 1675.78 318.13 435.17 589.15 1807.66 546.49 2000.36 573.81 1897.69 659.26 1803.38 758.32 1946.85 778.48
00000160 00000034 1681.46 317.88 430.68 606.42 1809.60 546.98 2002.60 576.67 1900.49 663.19 1799.62 763.86 1950.00 786.62
00000161 00000035 1682.34 317.66 431.17 609.48 1809.15 548.53 2004.81 578.72 1903.24 666.65 1797.52 765.57 1953.61 789.11
00000162 00000036 1684.08 316.00 430.71 608.72 1810.02 549.31 2006.96 580.77 1907.03 669.64 1798.17 765.11 1955.73 789.59
00000163 00000037 1682.74 318.71 432.98 594.94 1812.00 550.19 2009.79 582.41 1909.91 670.56 1802.53 763.60 1957.18 788.06
00000164 00000038 1682.81 321.38 432.92 586.92 1813.11 550.65 2010.30 583.69 1910.15 671.52 1803.62 761.05 1957.55 786.05
00000165 00000039 1681.16 321.96 437.31 582.34 1816.19 549.62 2010.44 582.93 1909.73 671.31 1808.65 759.08 1954.21 783.73
00000166 00000040 1685.17 321.48 434.35 581.12 1818.09 549.85 2013.99 584.10 1912.79 668.79 1805.96 754.81 1961.32 781.22
00000167 00000041 1683.42 318.51 438.45 588.16 1817.52 550.25 2014.30 585.58 1913.00 668.01 1798.05 755.31 1965.01 783.66
00000168 DELETE   1684.50 313.42 435.01 598.84 1818.08 541.95 2013.09 579.73 1909.26 663.27 1797.89 754.74 1956.76 784.79
00000169 00000043 1680.28 307.95 435.79 592.41 1807.74 532.06 2008.14 568.15 1896.32 656.89 1798.67 750.76 1945.10 778.01
00000170 DELETE   1673.35 301.93 438.97 593.97 1798.47 523.43 1999.93 556.18 1883.33 642.10 1790.23 742.97 1937.66 767.95
00000171 00000045 1665.10 299.75 442.39 595.60 1788.56 522.39 1988.83 548.20 1872.27 631.31 1786.63 746.15 1932.40 765.99
00000172 00000046 1660.81 292.00 440.39 601.54 1776.91 517.22 1980.33 542.93 1858.48 625.69 1772.74 742.26 1926.65 762.72
00000173 00000047 1656.99 296.07 438.51 597.32 1768.27 518.92 1970.94 541.45 1847.54 628.23 1766.38 745.42 1919.72 763.49
00000174 00000048 1652.34 295.54 438.95 597.77 1761.52 522.19 1964.93 542.47 1839.52 629.92 1760.43 748.75 1915.16 765.33
00000175 00000049 1648.00 292.99 440.13 599.72 1755.76 525.06 1961.86 543.25 1832.97 631.69 1754.94 750.14 1912.09 765.16
00000176 DELETE   1645.13 296.48 440.01 599.20 1752.22 529.74 1959.70 548.23 1828.31 641.70 1752.14 750.25 1910.72 765.17
00000177 DELETE   1644.67 299.90 437.93 599.35 1749.76 532.70 1958.43 551.66 1825.70 648.32 1751.69 754.24 1907.42 769.32
00000178 00000052 1643.50 308.75 435.80 595.64 1744.51 540.57 1955.39 556.59 1822.41 656.84 1751.34 765.45 1905.69 778.13
00000179 00000053 1640.93 305.90 434.48 599.42 1737.14 543.71 1951.88 559.30 1816.03 663.74 1745.36 768.04 1901.96 780.27
00000180 00000054 1638.26 308.21 434.10 596.10 1731.50 543.91 1945.97 557.14 1809.73 664.02 1745.03 766.81 1896.85 776.88
00000181 DELETE   1638.75 296.73 429.41 600.18 1726.43 541.91 1933.51 548.59 1802.70 655.97 1745.99 761.97 1891.57 768.09
00000182 00000056 1631.59 290.64 430.95 600.48 1718.07 535.52 1926.06 541.25 1792.11 648.80 1738.02 758.01 1883.68 763.76
00000183 00000057 1616.85 284.83 438.14 605.82 1704.84 534.22 1913.93 533.45 1779.83 637.23 1728.11 754.66 1876.20 756.07
00000184 00000058 1607.30 284.48 436.54 600.17 1687.13 542.78 1892.56 527.53 1761.28 628.39 1716.13 756.27 1865.54 745.25
00000185 00000059 1592.79 284.74 446.31 596.31 1672.38 544.74 1873.90 523.04 1744.30 629.77 1704.53 757.69 1857.09 741.85
00000186 00000060 1586.08 286.23 449.06 597.35 1663.06 549.05 1863.06 522.66 1733.95 630.79 1699.70 759.27 1854.59 739.44
00000187 00000061 1585.05 287.32 449.70 596.63 1661.36 550.23 1859.33 522.14 1732.93 632.20 1700.62 758.43 1855.85 737.00
00000188 00000062 1589.29 287.48 447.12 602.89 1666.01 553.30 1862.50 522.74 1738.64 634.43 1707.26 762.28 1861.62 739.27
00000189 00000063 1595.37 289.42 441.45 607.67 1672.57 552.41 1868.46 521.36 1745.47 635.86 1716.34 762.51 1868.84 739.03
00000190 00000064 1598.43 289.59 441.25 602.28 1676.03 551.12 1876.44 518.70 1755.47 635.89 1720.59 760.40 1877.49 735.91
00000191 00000065 1601.41 289.84 441.36 596.35 1680.46 551.61 1882.58 519.59 1763.42 634.35 1722.64 757.12 1883.08 733.14
00000192 00000066 1610.46 294.56 435.98 590.88 1686.67 552.10 1893.28 526.70 1767.93 638.50 1725.07 757.39 1888.18 738.96
00000193 00000067 1613.62 293.08 436.82 596.83 1691.86 552.94 1901.51 529.39 1776.46 639.53 1731.88 760.71 1892.39 743.49
00000194 00000068 1615.37 294.96 442.06 598.25 1701.48 552.41 1904.24 529.39 1785.60 640.95 1735.96 762.37 1901.58 746.25
00000195 00000069 1621.53 299.81 439.10 600.10 1706.11 556.21 1907.62 532.56 1788.89 646.12 1742.92 767.48 1904.03 750.73
00000196 00000070 1628.44 301.26 435.51 599.17 1711.51 558.04 1913.66 536.52 1794.91 650.33 1747.18 768.11 1907.79 753.04
00000197 00000071 1631.44 301.47 434.47 598.06 1714.01 558.72 1916.04 538.03 1797.81 651.46 1748.08 768.14 1909.44 753.82
00000198 00000072 1632.69 300.49 434.01 596.22 1714.59 559.27 1918.44 539.27 1799.53 651.87 1747.75 766.70 1910.42 753.05
00000199 00000073 1632.99 301.54 434.72 593.16 1715.26 559.66 1919.88 539.44 1801.53 652.10 1747.52 766.64 1912.45 752.87
00000200 00000074 1633.22 301.91 434.86 594.21 1715.15 559.75 1919.56 538.72 1801.20 651.72 1748.10 767.58 1913.32 753.13
00000201 00000075 1633.18 301.34 434.81 601.14 1715.44 558.56 1920.22 537.76 1800.84 649.86 1749.99 770.07 1912.79 755.63
00000202 00000076 1633.09 299.87 435.33 600.43 1715.78 558.60 1921.00 538.36 1802.04 651.12 1749.62 769.81 1913.49 755.93
00000203 00000077 1633.85 297.29 436.57 597.08 1716.07 558.24 1922.81 538.43 1803.35 649.86 1748.21 766.24 1915.79 752.82
00000204 00000078 1635.52 297.30 435.69 594.38 1717.69 557.49 1925.02 538.56 1806.55 649.22 1750.00 764.35 1916.50 751.52
00000205 00000079 1637.67 295.48 434.36 595.43 1720.06 555.39 1925.98 538.57 1807.60 649.80 1752.50 762.89 1914.12 751.47
00000206 00000080 1637.95 296.88 435.53 593.49 1721.30 554.87 1926.58 538.73 1807.89 650.54 1755.32 762.94 1912.89 751.95
00000207 00000081 1639.73 297.31 435.10 593.87 1723.36 553.71 1928.53 538.51 1810.01 650.06 1757.25 762.83 1914.13 752.42
00000208 00000082 1641.87 297.32 435.68 592.75 1725.41 552.37 1930.67 538.89 1811.02 648.67 1756.03 759.85 1915.05 750.88
00000209 00000083 1644.44 292.50 435.45 594.94 1727.06 550.63 1934.23 537.74 1813.68 646.36 1756.55 757.45 1920.23 748.95
00000210 00000084 1646.10 292.86 436.01 600.78 1729.70 549.32 1935.84 537.82 1815.51 643.35 1758.84 760.37 1920.58 752.78
00000211 00000085 1648.06 292.10 439.93 610.01 1731.53 546.13 1940.74 534.20 1813.76 640.12 1767.50 766.40 1915.17 757.84
00000212 00000086 1649.06 294.63 441.84 608.00 1734.47 546.99 1942.72 534.58 1818.32 641.59 1770.70 768.23 1918.26 759.06
00000213 00000087 1649.16 298.64 443.19 602.58 1736.56 548.76 1944.88 537.81 1820.90 647.12 1771.50 767.81 1920.07 759.37
00000214 00000088 1648.58 298.47 443.70 601.70 1739.56 555.75 1947.64 546.05 1826.71 652.35 1767.39 766.77 1927.21 759.43
00000215 00000089 1650.47 307.39 442.53 598.55 1740.99 560.85 1950.75 551.50 1828.92 657.04 1765.84 770.53 1929.37 763.51
00000216 00000090 1652.62 308.28 441.73 602.89 1746.15 556.60 1954.03 548.65 1831.85 657.19 1769.75 773.64 1930.27 767.77
00000217 00000091 1654.66 308.08 441.58 603.97 1747.96 554.90 1956.64 548.05 1833.49 657.26 1771.73 773.87 1933.01 768.92
00000218 00000092 1655.96 308.26 441.77 600.85 1750.26 551.97 1959.79 545.77 1837.18 656.56 1772.56 771.63 1937.04 767.22
00000219 00000093 1656.81 305.23 443.04 602.10 1753.54 548.12 1963.55 543.31 1841.03 657.16 1774.04 770.74 1939.17 767.42
00000220 00000094 1658.46 309.95 443.01 598.24 1758.11 546.76 1967.07 543.19 1845.98 656.62 1776.94 770.89 1941.00 768.48
00000221 00000095 1660.59 310.32 443.72 597.51 1765.91 543.37 1971.91 544.98 1852.36 655.00 1782.64 768.15 1938.35 769.56
00000222 00000096 1664.78 307.24 443.16 598.13 1774.59 539.72 1978.77 545.24 1860.57 654.58 1789.94 765.88 1939.70 770.08
00000223 00000097 1668.94 309.10 441.27 592.69 1782.37 536.70 1986.33 544.90 1872.46 648.49 1799.39 763.68 1943.61 769.63
00000224 00000098 1676.57 303.32 437.28 595.98 1789.49 534.34 1993.63 545.19 1881.18 643.86 1805.21 760.96 1950.41 768.97
00000225 00000099 1682.87 301.23 435.11 598.21 1795.35 532.20 2001.11 546.44 1889.70 640.52 1808.94 758.08 1957.74 768.35
00000226 00000100 1690.66 301.83 430.10 602.88 1800.53 537.43 2009.46 553.30 1897.68 648.76 1811.04 761.94 1968.70 773.31
00000227 00000101 1690.77 308.90 429.59 603.31 1805.39 549.58 2007.60 568.90 1901.99 660.22 1807.49 766.03 1968.84 780.54
00000228 00000102 1683.82 313.32 436.13 601.08 1804.11 556.47 2006.94 579.78 1902.59 664.16 1797.34 767.18 1968.32 785.60
00000229 00000103 1684.36 312.83 436.75 600.87 1807.43 551.75 2010.64 580.58 1905.83 666.75 1796.99 764.57 1966.35 787.45
00000230 00000104 1688.56 312.79 434.98 597.17 1811.82 549.27 2014.98 579.12 1909.59 666.66 1801.46 762.11 1967.77 785.75
00000231 00000105 1689.89 315.07 436.98 590.10 1815.01 546.61 2022.03 579.21 1913.94 668.16 1804.03 761.71 1971.05 787.24
00000232 00000106 1688.89 318.40 442.65 586.26 1818.70 546.83 2025.91 580.37 1919.60 670.24 1808.16 762.17 1971.93 788.05
00000233 00000107 1687.79 318.39 448.06 589.24 1821.62 548.61 2030.02 584.39 1922.12 676.65 1811.99 764.83 1971.05 792.22
00000234 00000108 1689.31 321.93 450.01 580.61 1827.71 548.44 2037.20 585.01 1929.76 678.86 1819.61 764.99 1974.64 792.58
00000235 00000109 1692.62 317.73 450.02 583.11 1835.38 545.76 2043.93 584.98 1938.00 678.35 1826.18 763.89 1977.16 793.21
00000236 00000110 1698.80 317.06 445.87 584.51 1841.63 544.24 2047.36 587.17 1942.11 678.38 1826.48 762.25 1978.50 794.78
00000237 00000111 1696.72 320.35 449.07 582.73 1843.47 544.42 2048.44 589.84 1944.13 678.04 1824.59 761.49 1977.88 796.19
00000238 00000112 1694.07 318.61 450.33 582.84 1844.82 542.46 2049.89 589.60 1946.27 678.17 1822.10 759.75 1978.20 795.99
00000239 00000113 1688.91 317.12 452.72 583.20 1843.57 539.43 2048.02 586.11 1946.85 676.18 1819.78 757.71 1976.80 793.58
00000240 00000114 1684.42 316.24 451.93 583.61 1839.85 537.45 2042.20 582.92 1942.23 675.21 1817.42 756.79 1970.89 791.46
00000241 00000115 1679.78 318.26 450.87 582.05 1833.60 540.53 2033.88 583.22 1933.15 676.37 1817.42 758.86 1963.19 790.60
00000242 00000116 1675.94 324.62 447.88 577.49 1825.92 544.21 2024.16 585.42 1923.02 678.23 1810.84 760.71 1956.06 791.27
00000243 00000117 1671.38 328.51 448.33 575.19 1819.77 544.53 2018.76 586.63 1916.74 677.90 1802.65 760.22 1951.45 791.71
00000244 00000118 1669.18 328.50 446.33 579.06 1814.61 545.54 2014.45 587.29 1913.05 679.66 1797.01 762.64 1946.66 794.08
00000245 00000119 1666.64 330.17 444.56 580.62 1810.77 547.32 2011.49 587.51 1910.62 681.75 1793.52 765.06 1945.18 795.56
00000246 00000120 1665.74 331.31 442.49 584.54 1809.33 546.63 2009.91 587.04 1908.37 681.65 1792.78 767.29 1943.05 798.01
00000247 00000121 1663.65 328.35 442.11 593.11 1806.56 545.43 2007.22 585.67 1904.70 677.54 1788.65 766.67 1941.69 797.64
00000248 00000122 1660.68 329.62 441.67 591.38 1801.78 544.85 2004.82 583.79 1899.85 675.31 1785.24 766.01 1941.18 796.07
00000249 00000123 1657.16 330.12 442.49 591.14 1797.89 545.12 2000.47 584.64 1894.73 674.49 1779.63 764.52 1937.59 795.37
00000250 00000124 1655.47 327.91 441.95 595.28 1794.36 546.88 1996.21 586.59 1889.40 675.63 1774.84 766.43 1932.29 797.47
00000251 00000125 1653.18 326.53 440.86 596.84 1790.36 547.61 1992.90 587.42 1885.55 676.56 1772.42 768.50 1927.39 799.59
00000252 00000126 1652.24 326.15 440.88 590.64 1789.24 546.92 1990.44 587.17 1883.10 677.63 1773.92 769.03 1921.77 800.15
00000253 00000127 1650.00 327.00 440.88 587.46 1787.24 546.12 1989.36 586.90 1881.63 678.23 1773.16 768.07 1919.44 799.44
00000254 00000128 1647.26 327.79 441.75 585.75 1784.84 547.67 1988.77 587.74 1879.86 678.22 1769.04 767.46 1921.58 798.41
00000255 00000129 1644.27 330.10 441.80 580.82 1783.02 547.94 1987.26 588.78 1878.14 679.82 1763.78 765.62 1922.07 797.43
00000256 00000130 1638.96 327.23 444.36 585.04 1780.52 546.94 1986.32 588.33 1876.75 679.33 1758.16 765.10 1920.85 797.65
00000257 00000131 1636.70 326.26 444.89 587.70 1777.88 547.82 1985.25 589.13 1875.86 679.55 1756.59 767.41 1919.09 799.89
00000258 00000132 1635.67 327.15 443.82 588.14 1776.13 548.56 1983.26 588.96 1874.72 680.46 1755.60 768.48 1918.39 800.22
00000259 00000133 1634.20 327.52 442.34 586.89 1772.93 548.62 1981.64 589.40 1871.26 681.99 1752.44 768.03 1916.35 799.99
00000260 00000134 1633.45 327.15 440.70 587.47 1770.87 549.16 1979.87 588.74 1870.45 682.66 1751.14 768.28 1916.77 799.25
00000261 00000135 1633.71 326.69 438.75 589.25 1769.59 549.05 1978.41 587.68 1870.01 682.97 1750.26 769.08 1917.55 799.53
00000262 00000136 1634.51 324.29 436.41 592.72 1769.26 548.88 1978.37 585.90 1870.44 683.32 1751.18 770.60 1918.07 799.74
00000263 00000137 1633.69 321.23 437.17 593.56 1768.12 548.05 1978.38 584.18 1869.57 680.50 1749.67 768.91 1918.49 797.46
00000264 00000138 1633.74 320.91 437.05 589.23 1766.86 548.64 1978.10 582.24 1869.96 680.24 1750.22 767.59 1920.68 794.08
00000265 00000139 1632.12 322.03 438.00 587.01 1765.36 548.37 1976.84 581.46 1867.80 677.39 1749.06 766.43 1920.22 792.48
00000266 00000140 1633.03 319.18 435.20 590.35 1763.65 548.71 1975.39 580.80 1865.82 676.59 1748.59 766.41 1919.90 791.60
00000267 00000141 1632.90 319.35 434.80 589.62 1762.01 549.24 1974.66 580.50 1864.86 676.24 1747.78 766.25 1920.44 790.74
00000268 00000142 1632.63 311.08 437.45 593.80 1761.17 548.26 1972.33 581.52 1863.16 677.52 1750.91 765.35 1918.80 792.01
00000269 00000143 1632.36 309.23 437.62 596.76 1760.20 548.38 1970.74 580.76 1862.22 676.36 1751.11 765.67 1917.72 791.57
00000270 00000144 1632.38 310.21 437.10 596.09 1759.28 548.95 1969.50 579.84 1861.04 675.43 1750.97 766.41 1917.83 791.17
00000271 00000145 1633.37 310.53 436.32 597.90 1758.32 549.57 1968.85 580.27 1859.86 676.62 1750.71 768.01 1917.07 792.59
00000272 00000146 1634.51 317.31 431.72 598.51 1757.81 551.16 1970.06 578.52 1859.77 675.02 1749.34 770.87 1916.93 792.18
00000273 00000147 1635.73 317.95 430.60 598.90 1757.86 551.75 1970.37 579.28 1859.57 674.72 1749.31 771.34 1917.36 792.79
00000274 00000148 1636.36 318.73 430.22 598.47 1758.02 552.08 1970.29 579.27 1859.67 675.34 1749.95 771.92 1918.00 793.07
00000275 00000149 1637.19 320.47 429.77 596.02 1758.61 552.41 1970.77 579.42 1859.81 675.27 1750.12 771.93 1918.47 792.97
00000276 00000150 1637.50 322.23 429.72 594.18 1759.16 552.94 1970.99 579.51 1860.26 674.89 1750.82 772.12 1919.32 792.82
00000277 00000151 1638.72 320.45 427.71 595.76 1759.51 556.28 1971.31 581.84 1860.78 676.21 1751.61 772.33 1919.61 792.25
00000278 00000152 1640.39 316.84 426.05 600.91 1760.66 559.94 1969.99 584.17 1861.46 678.06 1754.10 772.94 1917.89 791.81
00000279 00000153 1643.97 319.72 423.03 596.31 1762.12 560.10 1970.42 583.58 1861.99 680.41 1760.76 775.50 1917.04 793.24
00000280 00000154 1647.23 320.86 419.74 593.62 1762.35 560.36 1969.92 582.64 1861.70 682.86 1763.31 776.41 1916.32 792.96
00000281 00000155 1647.83 323.38 419.53 589.23 1762.18 560.52 1970.18 581.76 1861.25 683.27 1764.54 776.69 1917.03 792.34
00000282 00000156 1647.90 321.33 418.97 589.19 1761.90 560.55 1970.18 581.76 1861.03 682.57 1762.96 774.85 1917.76 790.67
00000283 00000157 1647.99 321.10 418.44 586.31 1761.52 560.25 1970.48 581.75 1861.03 681.45 1760.78 772.08 1920.02 788.35
00000284 00000158 1647.96 320.41 419.28 584.99 1761.73 560.12 1971.19 581.49 1862.06 680.57 1760.16 770.86 1921.68 787.14
00000285 00000159 1646.17 319.86 422.35 584.59 1762.30 559.14 1972.04 581.08 1862.72 679.10 1759.14 769.88 1922.44 786.71
00000286 00000160 1646.82 321.66 422.08 582.55 1763.71 558.63 1972.76 580.69 1864.08 678.52 1759.05 769.14 1923.80 786.22
00000287 00000161 1645.01 321.23 425.55 583.37 1764.46 558.28 1973.21 580.51 1864.68 676.53 1757.85 768.31 1924.01 785.70
00000288 00000162 1647.89 319.20 422.95 591.67 1766.17 561.12 1973.71 584.21 1865.23 671.77 1757.46 766.39 1927.21 784.49
