Video ID: 	LSnOqnABGT0
H: 	1080
W: 	1920
FPS: 	25.0

FRAME INDEX X0 Y0 W H [Landmarks (5 Points)]

00004295 00000000 892.90 186.29 404.03 615.44 1017.91 427.28 1205.67 425.08 1132.03 564.64 1039.57 644.87 1198.80 644.51
00004296 00000001 890.04 187.30 403.59 616.57 1008.00 429.91 1198.77 425.76 1123.46 565.61 1032.02 647.33 1195.80 645.34
00004297 DELETE   885.63 188.57 400.21 620.12 997.96 431.57 1186.80 428.95 1109.44 564.95 1020.72 649.16 1182.74 648.77
00004298 DELETE   875.15 189.70 404.00 613.78 987.48 430.08 1169.42 422.00 1093.54 569.48 1013.62 650.53 1162.16 643.06
00004299 DELETE   866.81 185.88 405.34 617.06 972.97 426.64 1158.56 420.05 1076.83 569.88 1002.54 650.82 1148.66 643.79
00004300 00000005 858.80 192.16 405.89 611.33 960.71 426.51 1142.80 422.41 1056.81 569.21 990.62 651.15 1130.37 646.11
00004301 00000006 850.67 196.97 408.52 608.83 949.99 430.70 1130.08 427.02 1045.33 564.35 977.84 650.13 1122.45 646.06
00004302 00000007 848.24 195.05 403.15 611.41 942.72 429.96 1121.36 428.12 1034.41 564.23 969.43 650.17 1113.00 648.03
00004303 00000008 846.00 195.94 399.68 610.76 935.88 429.18 1114.79 428.62 1024.33 564.02 962.96 651.23 1106.13 650.46
00004304 00000009 844.87 197.00 396.91 610.64 932.14 426.54 1109.90 426.74 1017.79 565.92 957.91 651.56 1100.02 651.72
00004305 00000010 840.42 198.73 398.02 608.38 928.08 422.38 1105.93 426.20 1012.31 565.34 952.33 648.83 1094.55 651.92
00004306 00000011 839.58 195.50 397.50 613.32 924.28 419.37 1103.23 423.41 1007.39 566.17 949.00 649.00 1091.76 652.32
00004307 00000012 839.97 195.10 397.27 612.97 923.87 416.17 1103.01 421.12 1005.37 564.55 947.10 646.17 1090.29 650.15
00004308 00000013 830.66 191.13 408.54 608.23 921.61 411.01 1103.31 421.12 996.28 558.31 936.44 635.20 1090.30 644.11
00004309 00000014 839.94 194.94 398.47 611.90 922.30 413.14 1104.15 419.71 1001.37 563.10 942.02 643.69 1088.65 648.80
00004310 00000015 841.81 193.19 397.06 611.90 923.99 411.56 1104.50 419.64 1001.28 561.57 942.46 641.54 1087.66 647.90
00004311 00000016 845.59 188.13 395.75 614.65 926.04 411.79 1106.10 419.11 1004.79 560.81 945.61 640.81 1090.63 646.46
00004312 00000017 847.38 192.36 397.76 609.41 930.56 411.35 1111.03 418.14 1011.83 558.79 949.80 639.31 1095.44 644.44
00004313 00000018 849.07 195.70 401.14 607.91 935.11 410.75 1117.10 417.26 1016.81 557.92 955.72 639.87 1101.13 644.52
00004314 00000019 851.97 195.30 404.35 607.48 940.10 411.81 1122.56 416.92 1023.54 558.65 959.91 639.11 1107.36 642.28
00004315 00000020 856.08 197.12 403.50 605.63 945.22 410.28 1127.00 414.34 1029.17 557.30 964.55 640.22 1110.62 642.59
00004316 00000021 860.82 194.53 402.94 604.54 951.12 409.29 1134.37 412.83 1034.90 557.52 969.69 640.59 1111.95 642.66
00004317 00000022 867.80 190.86 401.96 605.60 954.80 407.82 1140.29 411.67 1037.54 557.50 972.49 638.92 1117.06 641.18
00004318 00000023 872.68 190.50 400.66 603.78 960.13 403.54 1148.08 412.48 1043.84 559.11 976.18 632.06 1122.76 641.50
00004319 00000024 875.99 189.79 400.19 602.29 961.21 404.93 1148.03 410.34 1041.25 558.35 976.88 638.00 1120.02 641.64
00004320 00000025 878.24 188.12 399.45 605.85 965.89 400.86 1152.66 413.35 1047.43 557.25 979.36 631.20 1125.38 643.42
00004321 00000026 880.68 186.12 401.01 607.34 969.39 400.03 1157.76 414.24 1050.22 557.45 981.04 629.76 1130.20 643.24
00004322 00000027 882.84 184.05 403.03 606.29 970.88 399.57 1160.32 414.69 1052.01 556.49 981.16 628.65 1131.70 642.57
00004323 00000028 886.39 184.08 401.65 605.78 974.08 398.61 1163.42 415.50 1054.10 554.88 983.38 627.89 1133.95 643.16
00004324 00000029 887.64 185.90 402.35 611.00 977.89 399.58 1167.32 417.17 1058.61 554.83 984.54 631.17 1137.08 647.07
00004325 00000030 889.84 184.95 402.18 616.45 980.41 399.95 1168.28 418.84 1058.32 555.35 985.06 632.55 1137.76 649.44
00004326 00000031 891.12 184.98 402.23 612.62 982.44 398.87 1169.64 419.83 1058.11 556.02 985.37 630.55 1137.61 649.09
00004327 00000032 893.50 184.86 401.76 608.22 984.14 397.28 1171.17 419.67 1059.02 555.68 985.64 627.67 1138.60 647.31
00004328 00000033 895.83 183.01 402.71 609.82 985.71 396.91 1172.72 419.85 1061.15 555.77 985.87 626.58 1142.36 646.38
00004329 00000034 897.91 183.86 403.20 609.95 988.67 396.43 1173.81 419.15 1063.27 552.43 987.07 624.79 1145.85 644.22
00004330 00000035 898.80 183.74 404.14 612.30 990.85 396.50 1174.73 419.39 1065.06 551.57 987.55 623.98 1146.21 643.52
00004331 00000036 898.59 183.60 404.93 614.26 991.44 397.08 1175.21 419.71 1065.49 551.25 988.64 624.37 1147.77 643.54
00004332 00000037 898.43 183.83 404.00 614.84 991.68 396.80 1175.17 419.43 1065.97 551.12 988.20 623.95 1148.84 642.99
00004333 00000038 898.16 182.95 403.09 619.17 991.98 397.04 1174.93 419.49 1065.80 550.62 988.84 625.64 1149.42 644.40
00004334 00000039 906.84 190.20 391.38 625.84 992.27 395.98 1175.24 416.65 1067.91 549.05 992.96 627.37 1149.87 644.15
00004335 00000040 905.86 190.20 391.43 630.28 992.48 396.70 1175.54 416.71 1069.23 548.17 993.94 629.04 1150.94 645.25
00004336 00000041 904.96 190.38 391.01 634.41 992.68 397.83 1174.31 416.48 1069.20 550.09 994.11 631.07 1152.41 646.16
00004337 00000042 903.53 191.04 392.55 635.54 992.41 401.54 1174.12 418.59 1069.64 553.51 994.29 633.71 1155.07 647.48
00004338 00000043 902.21 191.94 393.79 634.96 992.80 405.02 1175.47 421.04 1072.15 556.29 994.11 634.94 1157.51 647.90
00004339 00000044 901.33 194.60 394.64 631.19 996.23 411.30 1177.88 426.88 1078.40 559.94 996.36 634.27 1161.57 646.57
00004340 00000045 900.36 191.28 395.01 631.96 998.21 416.02 1177.96 429.87 1083.96 562.30 998.99 634.94 1164.22 645.89
00004341 00000046 899.57 196.59 397.40 624.46 1001.37 417.07 1183.38 430.08 1090.34 566.75 1003.54 636.64 1166.72 646.96
00004342 00000047 888.51 196.91 406.10 619.60 996.62 424.15 1184.36 433.64 1089.28 568.64 1000.74 636.80 1173.60 645.69
00004343 00000048 885.61 200.14 408.10 614.89 997.52 431.57 1187.60 435.85 1097.06 575.12 1003.98 639.12 1178.31 644.29
00004344 00000049 883.30 205.54 407.26 608.44 996.70 436.42 1186.87 437.28 1099.66 579.77 1006.72 640.07 1180.96 642.59
00004345 00000050 878.09 204.39 406.62 611.26 992.60 438.48 1182.04 435.12 1097.26 581.66 1006.30 642.73 1180.74 641.74
00004346 00000051 870.30 206.93 410.99 612.07 989.37 440.19 1173.37 433.97 1096.51 587.63 1002.39 646.26 1175.13 640.07
00004347 00000052 865.37 209.58 410.71 608.96 982.34 438.85 1168.89 433.02 1088.50 590.04 997.86 649.09 1166.87 643.11
00004348 00000053 861.29 206.25 410.57 609.28 975.30 439.01 1162.09 433.81 1079.89 590.73 994.83 653.87 1155.72 648.35
00004349 00000054 856.40 204.53 412.53 606.25 968.08 435.45 1156.20 430.90 1071.43 588.64 992.92 657.34 1144.87 652.11
00004350 00000055 851.79 203.64 412.64 607.87 961.22 433.25 1148.94 429.40 1063.64 582.25 989.68 658.92 1137.85 654.11
00004351 00000056 849.51 204.18 413.35 606.37 952.71 431.20 1142.37 427.87 1055.51 580.50 981.38 657.92 1130.95 653.81
00004352 00000057 848.04 204.21 412.48 606.12 948.86 426.86 1136.28 424.01 1049.14 578.66 974.00 653.73 1124.74 650.39
00004353 00000058 845.52 203.81 412.35 606.09 944.12 424.84 1131.74 423.46 1042.67 574.66 966.10 651.28 1118.55 649.57
00004354 00000059 845.07 202.95 409.62 606.58 940.10 421.51 1126.48 422.20 1034.71 568.61 962.13 649.70 1113.17 649.66
00004355 00000060 846.84 202.97 408.51 606.40 939.83 419.73 1124.74 421.46 1031.67 566.25 958.10 646.32 1111.71 647.18
00004356 00000061 849.05 200.71 406.18 608.59 939.97 417.23 1124.04 419.89 1029.41 563.44 956.95 643.11 1110.63 644.61
00004357 00000062 848.99 199.19 405.91 609.43 939.36 416.53 1123.74 420.31 1027.75 562.11 955.50 640.87 1111.07 643.24
00004358 00000063 849.95 200.24 407.56 607.97 939.33 416.42 1125.09 419.13 1028.14 561.65 955.09 640.79 1112.99 642.22
00004359 00000064 852.17 200.71 406.18 606.45 941.22 415.12 1126.04 418.81 1028.34 560.39 955.65 639.04 1114.66 641.31
00004360 00000065 854.10 201.25 405.90 606.13 944.09 414.29 1128.55 418.05 1031.42 559.10 958.56 638.15 1116.73 640.48
00004361 00000066 858.22 199.59 405.95 605.32 948.52 415.69 1131.19 418.19 1034.95 559.07 962.44 635.63 1121.91 636.86
00004362 00000067 863.65 197.77 405.85 603.20 954.03 415.79 1138.47 418.36 1040.02 558.82 965.19 634.82 1124.91 636.28
00004363 00000068 869.63 195.53 405.85 603.18 959.69 415.67 1146.73 417.50 1046.72 562.21 972.43 634.51 1132.73 635.55
00004364 00000069 876.73 195.80 404.18 598.93 965.56 413.15 1157.88 415.62 1054.49 564.83 977.94 633.79 1138.17 635.54
00004365 00000070 882.43 192.90 408.73 601.95 971.40 409.74 1167.26 414.29 1061.72 565.18 984.40 633.04 1146.11 636.09
00004366 00000071 887.44 185.63 405.70 613.72 981.39 403.03 1171.04 417.14 1067.55 554.90 988.40 630.39 1149.09 643.06
00004367 00000072 892.73 183.82 406.04 610.95 987.40 402.72 1177.03 416.43 1073.66 551.65 993.10 629.93 1153.84 642.31
00004368 00000073 898.46 181.00 406.53 609.97 992.80 402.17 1181.31 415.55 1078.38 549.71 997.54 628.21 1158.47 640.22
00004369 00000074 903.95 180.15 406.86 610.82 998.80 403.21 1185.85 415.90 1082.96 547.74 1002.82 628.38 1163.82 639.51
00004370 00000075 908.12 179.30 406.63 611.86 1004.15 402.39 1189.88 415.85 1084.52 545.83 1007.37 627.01 1167.53 638.58
00004371 00000076 910.56 180.04 409.22 612.93 1008.66 399.58 1194.55 413.77 1087.61 545.15 1010.36 625.28 1172.03 637.17
00004372 00000077 921.88 184.05 402.59 612.76 1013.25 398.69 1199.39 411.28 1095.53 544.65 1022.97 625.91 1171.90 636.03
00004373 00000078 925.57 181.97 402.31 613.01 1017.52 398.26 1204.59 411.87 1099.24 544.62 1024.16 621.56 1177.87 632.40
00004374 00000079 928.58 183.88 401.67 610.05 1021.67 397.50 1208.11 410.70 1104.18 542.26 1026.43 619.90 1182.30 630.30
00004375 00000080 930.05 184.10 402.09 608.83 1025.33 395.90 1213.03 409.90 1109.18 541.06 1028.72 619.28 1184.82 630.43
00004376 00000081 931.75 180.40 402.64 610.84 1028.96 395.10 1217.47 408.93 1114.63 540.64 1031.02 616.17 1189.10 627.21
00004377 00000082 927.79 168.65 402.34 622.86 1031.70 392.43 1212.94 405.58 1109.22 536.58 1029.38 617.89 1191.96 628.12
00004378 00000083 926.92 166.98 403.90 625.11 1032.37 391.84 1213.84 404.32 1110.81 534.91 1030.37 618.02 1193.48 627.61
00004379 00000084 925.33 166.70 405.86 625.90 1033.18 391.36 1214.24 403.94 1111.98 535.00 1031.03 618.49 1193.01 628.08
00004380 00000085 923.48 166.95 407.54 626.32 1032.24 391.94 1213.51 403.95 1112.62 535.40 1031.51 619.14 1193.03 628.23
00004381 00000086 920.57 167.21 408.82 627.50 1031.21 393.89 1212.30 405.14 1112.91 536.02 1030.42 619.84 1192.40 628.43
00004382 00000087 923.27 178.78 406.92 617.42 1029.53 394.97 1219.46 408.43 1122.76 539.81 1034.93 619.51 1189.60 629.64
00004383 00000088 920.65 178.28 406.63 620.95 1028.24 396.18 1218.40 408.34 1123.93 539.62 1036.88 622.20 1189.92 630.98
00004384 00000089 918.25 177.46 406.84 625.74 1024.46 396.42 1214.68 405.73 1121.93 538.94 1037.53 626.65 1188.35 633.07
00004385 00000090 909.95 165.96 413.70 634.08 1024.78 394.52 1205.63 402.74 1112.79 539.72 1034.91 631.39 1185.81 637.42
00004386 00000091 908.59 167.25 413.11 629.36 1020.76 394.30 1202.56 401.01 1110.31 540.09 1033.55 631.79 1182.81 636.75
00004387 00000092 907.92 169.55 411.65 623.40 1018.17 394.82 1200.90 400.94 1109.53 540.77 1032.61 631.79 1182.16 636.51
00004388 00000093 906.76 171.53 411.32 620.63 1016.76 395.96 1200.36 401.86 1109.09 542.63 1031.87 632.37 1181.71 637.04
00004389 00000094 906.84 173.67 410.17 619.41 1016.42 397.48 1199.47 402.20 1110.00 543.57 1032.57 633.77 1182.53 637.45
00004390 00000095 906.88 171.62 411.54 622.37 1018.79 399.08 1201.50 403.96 1112.99 544.83 1034.33 633.51 1185.12 637.24
00004391 00000096 906.38 171.69 412.26 621.61 1020.15 399.37 1203.89 403.42 1116.09 544.72 1036.20 633.18 1188.67 636.10
00004392 00000097 907.61 166.49 412.03 625.07 1022.18 398.26 1206.42 402.36 1117.78 541.98 1038.61 632.33 1191.07 635.04
00004393 00000098 908.14 162.45 413.80 630.74 1027.35 397.27 1212.00 403.20 1122.87 540.24 1042.17 630.13 1196.17 633.88
00004394 00000099 909.71 161.83 413.47 629.55 1030.70 396.70 1215.60 403.11 1126.31 540.40 1044.96 628.95 1199.02 633.07
00004395 00000100 912.03 160.37 413.88 631.49 1036.58 396.12 1220.25 402.74 1132.26 540.14 1050.42 629.84 1202.31 633.92
00004396 00000101 916.57 162.43 412.27 629.49 1042.35 397.08 1226.38 404.63 1138.58 540.82 1056.56 631.66 1207.24 636.18
00004397 00000102 920.14 165.15 413.06 627.15 1047.31 398.21 1231.82 405.54 1143.99 542.63 1062.53 634.54 1210.83 638.89
00004398 00000103 924.93 167.04 412.11 628.61 1051.43 399.04 1236.06 406.91 1148.50 545.82 1066.20 637.57 1214.36 642.33
00004399 00000104 933.07 173.24 409.60 615.58 1049.76 400.74 1242.10 404.16 1154.74 546.51 1069.46 637.89 1208.61 639.17
00004400 00000105 935.95 171.42 410.63 615.70 1052.44 400.81 1244.55 403.52 1158.32 546.10 1073.17 638.65 1212.18 639.64
00004401 00000106 937.90 170.25 409.47 617.69 1054.26 399.56 1245.94 402.23 1160.39 544.63 1075.57 638.48 1214.11 639.41
00004402 00000107 938.78 169.63 409.70 616.56 1055.14 399.87 1248.54 402.47 1162.81 545.14 1076.86 638.04 1217.50 638.74
00004403 00000108 938.95 171.22 410.02 615.19 1056.31 399.34 1249.25 402.50 1163.16 545.76 1076.15 637.46 1217.28 638.66
00004404 00000109 939.06 171.11 410.38 615.41 1056.30 399.23 1249.54 402.77 1162.92 545.45 1075.49 636.75 1217.84 638.24
00004405 00000110 938.95 171.51 410.59 616.04 1056.34 398.86 1249.73 402.56 1162.99 545.47 1075.21 637.07 1217.89 638.70
00004406 00000111 939.29 171.90 409.86 616.68 1056.64 398.74 1249.06 402.47 1162.75 545.02 1075.61 637.25 1217.63 638.89
00004407 00000112 939.25 171.11 410.54 617.14 1056.55 398.95 1247.84 402.68 1161.71 544.47 1075.67 637.69 1215.73 639.48
00004408 00000113 938.48 172.23 411.88 614.71 1055.70 399.51 1247.75 402.70 1161.16 545.30 1075.91 637.43 1215.84 638.77
00004409 00000114 937.20 171.43 412.36 614.27 1053.83 400.64 1245.97 403.40 1159.73 546.66 1074.24 637.54 1214.01 638.46
00004410 00000115 936.16 172.80 411.31 612.33 1052.11 402.36 1243.69 404.24 1157.94 547.74 1073.14 639.36 1211.92 639.73
00004411 00000116 934.50 174.66 410.13 612.08 1049.74 403.65 1242.53 406.10 1155.94 549.58 1071.90 640.70 1210.71 641.29
00004412 00000117 932.24 176.19 408.30 612.48 1046.68 404.03 1240.26 406.57 1153.26 551.43 1069.42 641.96 1208.93 642.52
00004413 00000118 931.12 179.28 405.81 611.33 1043.82 404.46 1237.97 406.50 1151.07 551.94 1067.17 643.00 1207.89 642.99
00004414 00000119 927.62 179.56 405.98 612.72 1041.71 403.85 1232.88 405.16 1147.07 552.01 1064.97 642.74 1202.17 642.13
00004415 00000120 915.11 169.63 411.85 626.24 1037.92 402.84 1221.08 406.44 1135.36 551.65 1057.40 638.59 1206.00 640.02
00004416 00000121 909.76 175.38 413.33 616.97 1027.40 404.48 1210.88 406.07 1123.90 550.31 1047.05 633.70 1199.99 634.14
00004417 00000122 911.53 184.29 410.46 610.75 1017.81 403.03 1209.52 405.32 1123.18 551.02 1040.80 635.52 1187.25 636.47
00004418 00000123 907.97 184.97 409.40 613.82 1010.62 401.71 1202.21 403.52 1114.97 550.35 1033.12 636.21 1181.81 637.10
00004419 00000124 902.43 181.04 408.09 615.13 1005.72 404.40 1192.44 406.29 1101.58 550.01 1024.10 637.06 1178.57 639.22
00004420 00000125 900.50 181.32 407.03 615.90 1000.35 405.66 1187.27 408.72 1095.39 550.84 1020.08 639.44 1173.51 642.93
00004421 00000126 897.79 183.79 406.88 613.42 996.81 405.66 1182.25 411.56 1089.47 551.13 1014.33 638.19 1166.22 644.34
00004422 00000127 895.98 185.12 405.31 612.14 991.68 406.14 1178.83 413.04 1084.39 555.11 1008.79 639.51 1160.69 646.97
00004423 00000128 893.13 186.33 404.84 611.14 988.60 406.66 1176.45 415.20 1079.86 556.04 1005.96 640.27 1156.92 649.15
00004424 00000129 892.26 187.82 404.32 609.64 987.15 405.80 1175.72 414.60 1078.53 555.62 1004.72 640.48 1155.84 649.51
00004425 00000130 891.80 186.85 404.16 606.71 986.41 405.03 1175.44 414.78 1077.18 555.28 1002.62 638.90 1153.63 648.74
00004426 00000131 891.31 185.59 405.21 603.23 985.86 404.39 1176.59 414.64 1076.96 555.88 1001.50 637.14 1153.23 647.38
00004427 00000132 892.28 185.63 404.89 600.29 986.21 403.88 1178.15 414.46 1078.28 554.99 1001.76 636.47 1153.81 646.97
00004428 00000133 893.90 183.58 404.36 602.33 989.21 403.95 1178.96 414.97 1080.43 553.84 1002.55 634.85 1154.46 645.79
00004429 00000134 895.02 183.26 404.98 604.23 990.44 403.98 1179.12 414.73 1081.28 553.33 1003.90 634.82 1154.33 645.59
00004430 00000135 896.30 181.91 405.52 612.78 992.06 403.69 1178.94 413.27 1081.75 552.51 1005.19 636.34 1156.45 645.97
00004431 00000136 898.55 182.38 403.79 615.11 993.77 402.35 1179.83 411.89 1083.28 549.86 1006.46 637.38 1157.38 646.77
00004432 00000137 899.15 181.84 404.53 615.15 994.59 402.46 1181.03 412.70 1083.56 550.32 1005.58 636.69 1157.78 646.70
00004433 00000138 899.68 182.52 405.51 612.62 996.58 403.00 1182.52 413.38 1085.24 548.84 1008.47 635.63 1160.42 645.61
00004434 00000139 900.09 183.80 405.53 607.65 998.56 402.23 1185.85 412.72 1088.10 548.76 1010.97 635.05 1161.83 645.32
00004435 00000140 902.07 183.54 405.82 607.17 1000.19 401.91 1187.09 411.69 1088.46 548.41 1013.00 635.07 1163.46 644.66
00004436 00000141 904.18 182.25 405.58 614.69 1002.56 402.58 1187.71 410.99 1089.77 547.62 1014.25 635.72 1166.53 643.66
00004437 00000142 910.82 187.77 401.35 619.44 1006.72 402.65 1191.17 407.25 1099.06 547.65 1027.67 644.04 1164.50 648.24
00004438 00000143 913.27 185.39 403.88 625.12 1011.91 406.16 1196.29 409.53 1106.36 548.65 1032.41 645.11 1172.77 647.72
00004439 00000144 914.50 185.24 404.87 625.02 1018.77 409.10 1202.15 413.36 1115.02 547.08 1038.15 644.74 1179.84 647.68
00004440 00000145 916.40 185.62 404.35 622.47 1026.36 410.64 1208.25 416.85 1122.63 544.84 1043.50 644.37 1182.67 648.75
00004441 00000146 918.34 180.82 407.55 628.51 1031.60 408.09 1215.34 414.51 1129.14 543.51 1048.11 643.39 1188.14 647.59
00004442 00000147 919.53 179.00 407.41 630.79 1033.45 402.03 1220.34 406.86 1133.61 539.74 1053.17 643.28 1191.89 645.88
00004443 00000148 923.48 174.50 405.03 632.64 1037.76 400.21 1224.40 403.71 1138.02 537.99 1057.76 642.76 1194.82 644.19
00004444 00000149 924.82 174.41 405.67 631.36 1040.04 399.33 1228.29 401.47 1141.34 535.94 1059.56 641.73 1198.23 641.98
00004445 00000150 925.45 173.63 408.05 629.40 1042.27 398.67 1230.77 400.10 1144.26 534.55 1061.83 639.36 1200.77 638.99
00004446 00000151 926.52 172.67 408.83 630.11 1044.15 397.26 1233.09 396.65 1147.39 532.27 1065.49 638.48 1205.00 636.14
00004447 00000152 927.03 171.68 410.16 628.19 1044.10 397.04 1234.34 394.77 1149.57 530.60 1068.45 637.31 1208.28 633.61
00004448 00000153 928.53 169.85 409.47 625.56 1047.49 396.84 1236.26 393.58 1154.26 530.90 1072.15 635.29 1211.29 630.84
00004449 00000154 927.88 169.03 411.86 624.92 1050.21 396.35 1238.69 392.48 1158.40 530.90 1074.41 634.18 1214.24 629.12
00004450 00000155 928.28 168.12 411.21 624.85 1052.15 398.25 1239.43 393.40 1160.62 531.87 1077.44 634.36 1217.14 628.38
00004451 00000156 927.54 168.84 413.23 622.41 1051.39 399.54 1240.54 393.22 1162.38 533.00 1079.39 635.16 1219.47 627.84
00004452 00000157 927.23 167.90 413.34 621.97 1053.07 400.30 1241.68 393.84 1164.88 533.27 1080.91 634.94 1220.63 627.38
00004453 00000158 924.28 157.74 412.41 637.42 1058.60 398.89 1238.50 399.31 1161.39 533.12 1081.66 636.90 1227.43 634.53
00004454 00000159 924.36 160.38 411.72 634.50 1059.16 400.56 1240.35 400.19 1163.87 535.55 1081.50 638.00 1229.14 634.97
00004455 00000160 925.01 162.01 410.22 632.13 1059.11 401.75 1240.33 401.22 1164.66 537.14 1082.92 639.36 1229.46 636.22
00004456 00000161 927.65 169.63 411.45 619.64 1054.12 405.91 1245.28 397.94 1169.61 538.86 1081.85 638.91 1225.66 630.11
00004457 00000162 927.41 169.68 411.66 619.87 1054.61 406.12 1245.65 398.12 1170.00 539.72 1082.50 639.32 1225.86 630.46
00004458 00000163 927.50 169.46 412.20 620.23 1054.22 406.26 1245.89 398.06 1169.93 539.78 1082.17 639.57 1226.35 630.53
00004459 00000164 925.82 161.46 408.73 632.65 1060.64 403.58 1241.91 402.42 1167.05 541.36 1084.73 642.01 1230.47 638.30
