Video ID: 	_X_9R4fuiRg
H: 	1080
W: 	1920
FPS: 	25.0

FRAME INDEX X0 Y0 W H [Landmarks (5 Points)]

00000771 00000000 493.65 168.49 498.08 680.74 696.27 446.77 919.82 465.03 835.64 594.35 668.59 658.91 880.43 676.29
00000772 00000001 486.59 175.97 502.48 672.67 700.28 448.14 920.17 464.15 842.68 597.52 672.08 662.92 882.54 677.76
00000773 00000002 489.74 182.42 501.68 669.91 700.79 447.76 919.55 463.99 841.59 597.04 672.74 661.89 883.14 676.98
00000774 00000003 490.11 178.66 503.03 675.08 701.29 448.21 921.17 464.87 841.88 596.15 674.53 663.86 882.77 679.27
00000775 00000004 490.27 169.64 505.92 683.76 702.66 446.66 923.13 463.24 843.91 594.70 677.40 664.79 884.05 679.88
00000776 00000005 493.41 172.68 506.84 677.40 706.49 446.73 925.93 463.15 847.51 594.02 686.77 666.71 885.13 681.60
00000777 00000006 496.63 172.52 508.14 675.52 709.24 446.45 929.69 464.24 849.53 595.91 689.24 666.52 886.92 682.66
00000778 00000007 497.88 173.28 507.89 676.76 711.36 449.43 930.13 466.05 852.27 596.70 693.08 668.10 888.44 683.19
00000779 00000008 500.61 173.01 505.51 676.40 713.09 451.05 932.79 467.96 854.49 597.66 693.31 665.84 892.83 681.18
00000780 00000009 497.84 167.06 508.83 685.11 712.40 451.97 932.61 468.97 854.40 594.91 693.82 667.23 894.87 682.15
00000781 00000010 495.93 167.96 508.26 687.29 712.53 453.87 928.22 469.61 853.81 596.62 693.61 669.03 892.42 682.76
00000782 00000011 492.38 169.96 503.03 689.88 709.53 457.07 922.11 470.61 851.74 600.47 689.24 672.62 886.89 684.74
00000783 00000012 488.04 175.02 500.08 686.05 703.45 460.02 917.97 472.83 844.83 607.84 682.02 675.92 880.78 687.62
00000784 00000013 487.54 174.32 499.73 692.12 693.20 471.87 912.18 482.95 835.54 616.75 676.68 680.60 881.30 691.31
00000785 DELETE   481.27 172.62 500.63 696.89 682.45 474.62 904.15 482.32 826.73 616.05 671.17 684.66 878.78 691.98
00000786 DELETE   474.77 163.89 499.96 707.73 672.64 473.35 894.37 480.95 813.78 613.66 668.54 692.87 865.97 699.83
00000787 DELETE   465.74 168.24 501.32 705.76 659.66 473.55 880.61 476.21 800.05 610.84 663.26 698.86 851.85 701.73
00000788 00000017 453.18 149.57 503.34 725.68 648.74 470.46 870.92 470.57 790.89 609.90 649.26 696.85 843.23 697.52
00000789 00000018 448.16 150.25 502.57 723.36 643.16 465.12 869.55 466.35 786.62 605.32 644.61 697.88 837.36 699.75
00000790 00000019 450.43 145.50 501.36 735.95 644.25 458.48 871.61 462.70 790.29 595.75 647.23 695.69 844.88 699.68
00000791 00000020 462.13 142.90 495.85 726.25 652.14 455.63 882.94 459.88 800.14 590.36 655.90 692.29 856.72 696.36
00000792 DELETE   467.11 148.67 498.92 716.83 677.48 451.83 897.63 458.31 828.23 588.14 671.08 682.70 866.91 689.04
00000793 DELETE   475.28 139.91 494.23 706.81 685.38 444.57 909.93 449.36 838.82 578.08 682.42 673.03 882.18 677.71
00000794 DELETE   478.17 139.44 493.01 694.93 701.23 435.40 916.93 437.22 856.56 568.52 698.20 663.86 890.60 666.43
00000795 00000024 479.87 124.74 492.50 701.18 714.40 427.54 920.69 425.33 872.50 556.05 713.00 654.40 899.80 653.37
00000796 00000025 484.36 113.31 489.37 703.61 722.36 426.70 922.48 419.93 880.87 549.44 723.64 651.58 900.46 647.26
00000797 00000026 482.22 106.74 493.83 716.71 726.38 426.44 927.90 413.01 893.67 546.18 726.20 651.08 911.45 641.42
00000798 00000027 490.71 106.51 491.52 717.61 729.59 429.24 932.29 419.87 894.91 546.91 726.46 649.47 916.02 643.23
00000799 00000028 483.85 118.01 498.90 722.94 723.39 436.18 929.75 426.64 898.15 554.26 723.97 658.43 919.62 650.58
00000800 00000029 489.61 124.40 498.47 733.62 730.85 438.71 930.31 435.41 900.50 559.63 721.45 658.32 917.71 656.05
00000801 00000030 492.59 124.14 497.95 740.14 736.89 443.66 935.30 444.47 904.81 568.35 725.56 663.86 917.85 665.00
00000802 00000031 495.36 122.85 497.23 744.47 744.66 448.38 939.76 445.58 912.61 573.74 731.82 667.88 921.26 666.09
00000803 00000032 498.22 131.02 498.38 733.87 745.80 450.20 941.94 446.05 914.55 575.66 736.87 667.99 926.91 664.94
00000804 00000033 499.62 131.51 496.97 724.42 747.34 452.67 944.57 444.11 918.16 574.20 741.65 666.69 930.56 660.26
00000805 00000034 502.05 138.27 496.29 712.49 746.99 451.81 945.81 443.01 917.42 574.06 740.14 664.14 930.79 657.85
00000806 00000035 501.44 130.75 495.66 719.22 747.27 448.35 945.09 441.03 917.21 570.37 742.11 663.00 931.34 657.30
00000807 00000036 501.99 123.62 494.58 724.07 745.22 446.03 943.46 437.89 915.86 568.10 740.86 660.93 932.17 654.23
00000808 00000037 502.09 125.53 493.72 722.09 743.69 445.10 941.43 437.95 914.79 564.78 739.45 659.70 931.43 653.89
00000809 00000038 499.77 130.51 495.03 717.47 742.67 443.79 940.57 437.32 913.75 564.69 738.85 660.14 929.46 655.12
00000810 00000039 498.58 126.61 493.31 727.16 743.57 443.79 939.58 439.58 912.71 565.06 736.90 661.94 924.92 658.84
00000811 00000040 498.16 130.65 494.81 732.50 742.70 448.36 938.97 440.52 914.10 568.46 733.83 665.30 925.43 659.64
00000812 00000041 493.40 131.46 497.53 735.34 739.49 451.73 936.67 442.36 913.83 571.44 733.72 669.96 925.80 662.85
00000813 00000042 493.37 121.41 493.67 745.90 740.62 455.32 935.47 443.29 913.75 575.68 737.45 674.61 925.43 664.74
00000814 00000043 491.90 120.12 491.87 744.51 735.00 458.04 934.59 442.74 910.53 577.57 740.09 680.06 925.24 667.32
00000815 00000044 491.78 115.13 491.41 748.59 734.91 460.55 934.13 440.56 912.71 578.01 743.15 683.53 926.65 666.90
00000816 00000045 494.24 122.43 489.88 739.74 733.40 465.80 938.53 442.11 913.85 584.75 744.44 688.04 930.84 668.57
00000817 00000046 495.38 131.84 491.28 735.76 736.34 472.84 940.42 452.72 914.36 592.04 737.89 688.41 928.13 672.12
00000818 00000047 499.91 140.91 488.56 729.10 737.70 481.70 944.02 461.20 912.09 604.57 737.60 696.52 927.80 679.90
00000819 00000048 505.02 146.62 489.51 738.89 745.38 486.50 945.42 470.01 913.85 611.53 739.53 702.03 926.82 688.80
00000820 00000049 511.75 152.31 487.06 734.31 749.81 490.64 949.00 470.59 917.77 617.93 744.13 704.99 929.79 689.44
00000821 00000050 513.74 153.09 486.03 728.83 755.19 487.67 954.41 469.37 923.83 613.64 754.54 704.07 935.71 689.76
00000822 00000051 518.69 155.49 481.26 709.88 754.84 486.23 960.90 465.24 928.48 606.45 762.51 699.66 945.60 682.64
00000823 00000052 515.69 142.64 486.12 718.91 755.22 476.19 964.44 457.62 929.13 597.00 767.41 698.46 945.10 683.17
00000824 00000053 516.38 143.31 485.12 721.17 756.43 465.89 962.14 450.28 929.22 591.17 766.03 692.54 943.09 680.23
00000825 00000054 508.49 128.52 487.57 729.60 753.59 455.32 959.14 444.68 925.70 582.24 765.08 688.09 939.78 679.29
00000826 00000055 510.36 134.52 488.41 722.04 753.07 452.64 955.81 441.42 922.49 579.17 762.72 680.68 940.08 671.41
00000827 00000056 511.60 131.12 488.81 724.54 752.09 453.32 954.48 439.44 920.09 577.06 760.32 677.09 940.73 665.83
00000828 00000057 511.65 123.86 491.96 728.66 747.63 453.92 953.08 446.42 910.67 573.05 755.37 672.33 938.02 665.63
00000829 00000058 511.28 127.70 494.83 723.35 743.57 452.61 953.54 445.84 907.25 574.16 748.74 670.85 937.53 665.06
00000830 00000059 509.17 131.21 495.17 723.24 742.11 449.48 950.84 447.42 906.97 574.34 737.74 668.56 931.12 667.30
00000831 00000060 506.11 146.50 497.79 707.26 738.48 450.94 947.73 451.98 901.67 577.96 730.94 669.69 923.47 671.55
00000832 00000061 500.35 149.95 502.44 698.95 731.15 452.24 947.01 456.14 893.76 580.69 722.82 672.36 916.61 676.73
00000833 00000062 496.63 146.08 506.13 705.28 721.20 453.59 942.73 457.16 880.68 585.03 713.71 674.16 914.17 678.11
00000834 00000063 494.11 149.85 503.87 710.31 717.50 454.88 933.43 461.03 871.76 590.24 707.00 673.57 906.34 679.49
00000835 00000064 490.80 153.51 503.73 706.02 711.83 459.20 925.13 461.94 864.17 596.57 699.85 675.61 899.07 678.74
00000836 00000065 486.91 165.19 501.44 693.58 705.95 461.52 919.20 466.01 856.84 599.25 693.54 677.57 892.55 681.97
00000837 00000066 481.45 162.50 501.79 698.30 700.18 463.12 916.09 468.16 850.81 601.61 684.04 679.15 889.07 683.83
00000838 00000067 485.54 162.44 497.01 704.06 690.87 463.71 912.78 471.88 839.11 603.53 677.12 680.67 887.47 688.66
00000839 00000068 483.74 161.47 494.67 707.17 683.90 463.08 907.14 473.20 829.19 604.55 669.40 679.89 881.23 689.56
00000840 00000069 477.29 164.69 499.61 705.47 678.43 462.13 900.93 474.10 822.41 602.40 664.31 678.11 875.21 689.11
00000841 00000070 473.71 166.06 500.08 702.36 671.82 463.05 894.87 472.65 816.43 600.81 658.00 676.31 869.90 685.58
00000842 00000071 469.30 165.53 501.20 699.34 666.96 461.02 891.28 468.74 812.60 597.94 654.19 674.51 866.71 682.41
00000843 00000072 466.06 157.36 501.85 702.68 663.97 457.99 889.96 466.11 809.77 593.52 652.56 672.44 863.88 680.33
00000844 00000073 465.32 159.43 501.45 699.77 660.82 455.19 888.60 463.47 806.51 590.72 650.16 671.81 862.56 679.71
00000845 00000074 464.55 159.16 502.25 699.49 661.27 454.80 888.33 463.63 806.93 590.92 649.34 670.55 862.27 678.94
00000846 00000075 466.29 156.82 501.55 702.26 661.39 454.60 889.21 463.53 806.93 590.05 649.40 670.66 863.20 679.08
00000847 00000076 467.26 156.03 501.13 703.06 661.47 455.77 890.71 464.44 806.93 591.14 649.13 670.94 863.93 679.17
00000848 00000077 469.50 158.37 500.74 701.45 663.79 456.52 890.96 466.87 806.07 591.35 650.97 670.48 863.62 680.02
00000849 00000078 470.09 161.41 501.54 698.22 664.06 457.07 891.63 467.65 806.68 592.80 651.00 671.11 863.75 680.99
00000850 00000079 470.47 162.93 502.63 695.67 663.47 457.39 891.93 468.09 805.35 593.81 650.73 670.80 863.81 680.71
00000851 00000080 470.61 160.59 502.50 698.10 663.13 457.68 892.01 467.78 805.32 594.04 649.90 670.68 863.78 680.16
00000852 00000081 470.39 160.49 501.33 696.96 663.01 458.78 891.78 467.44 805.65 595.19 650.49 670.07 864.26 678.41
00000853 00000082 470.69 165.04 501.58 688.98 663.59 459.33 891.41 467.92 806.51 596.56 652.12 669.87 864.68 678.27
00000854 00000083 470.23 164.50 502.51 690.16 662.88 460.31 892.16 467.44 807.57 597.76 650.53 670.31 866.32 677.60
00000855 00000084 470.70 162.74 503.81 690.04 662.90 461.03 893.11 468.25 807.23 599.50 650.15 670.17 866.58 677.63
00000856 00000085 472.13 162.67 503.97 693.07 665.19 460.41 893.80 469.66 808.03 600.70 650.38 669.35 866.87 678.43
00000857 00000086 473.09 161.93 503.98 697.88 666.78 458.49 895.85 468.36 810.24 598.90 650.73 667.96 869.67 677.54
00000858 00000087 473.18 164.26 505.60 700.25 667.42 456.63 896.41 467.67 810.89 596.33 649.97 666.72 871.49 677.23
00000859 00000088 475.02 162.77 502.86 697.72 668.53 454.56 895.23 465.73 810.89 595.12 651.32 663.67 869.93 674.44
00000860 00000089 475.49 156.46 502.38 703.44 670.07 450.97 896.29 462.42 812.99 591.70 648.42 658.61 870.94 669.70
00000861 00000090 474.78 156.93 503.80 698.20 671.18 447.15 896.63 457.64 814.01 587.26 651.97 655.95 871.15 666.10
00000862 00000091 475.06 156.19 504.56 698.22 672.76 446.23 898.32 456.47 815.59 586.89 653.93 657.22 870.87 667.14
00000863 00000092 476.51 157.41 504.25 700.19 674.68 445.93 898.75 455.32 818.97 588.48 659.03 659.29 875.77 668.42
00000864 00000093 476.40 155.91 505.74 712.59 676.87 445.33 901.30 460.23 819.62 591.32 651.26 659.24 874.56 673.23
00000865 00000094 476.25 160.52 506.51 707.01 677.11 449.83 902.62 466.10 817.78 594.88 653.95 664.51 872.73 679.25
00000866 00000095 475.98 169.26 506.36 700.24 672.80 455.83 899.94 471.21 813.77 600.05 651.29 667.39 872.79 681.52
00000867 00000096 473.46 166.08 504.13 701.66 668.64 464.66 895.43 476.97 811.40 606.29 651.55 673.28 871.65 684.60
00000868 00000097 468.28 164.17 501.58 703.92 661.15 473.36 887.14 479.55 803.30 617.34 644.07 679.28 861.82 686.07
00000869 00000098 457.51 172.69 506.27 693.48 648.79 479.40 876.67 479.71 792.75 625.23 633.65 681.06 854.89 683.19
00000870 00000099 451.63 178.43 507.88 685.71 641.31 479.94 867.61 480.77 782.93 626.76 624.71 676.97 846.95 679.45
00000871 00000100 443.73 173.82 509.49 687.90 635.39 477.32 861.10 476.25 778.64 624.94 621.61 677.85 842.01 678.31
00000872 00000101 440.64 162.10 510.53 698.20 631.23 471.90 856.29 469.11 774.50 619.72 620.67 674.63 840.68 673.37
00000873 00000102 441.13 162.37 511.79 697.93 631.92 466.64 856.63 466.11 773.59 612.86 621.96 671.68 841.88 671.97
00000874 00000103 444.63 154.33 509.90 704.81 634.56 462.21 862.69 463.97 775.82 608.37 623.91 667.65 847.14 670.08
00000875 00000104 450.16 152.35 509.24 701.42 640.26 459.03 872.62 464.00 783.20 603.93 629.76 667.92 851.43 673.13
00000876 00000105 455.73 153.03 507.74 702.32 647.21 457.98 879.71 463.80 791.69 599.80 637.71 668.62 857.05 674.57
00000877 00000106 460.43 159.80 505.71 696.78 651.13 459.45 882.67 467.40 795.12 599.28 638.80 667.40 859.98 675.00
00000878 00000107 463.34 156.89 504.91 701.79 654.90 458.76 884.93 467.95 797.67 600.85 641.25 667.17 861.61 675.88
00000879 00000108 463.10 157.39 505.26 703.57 655.11 460.03 885.61 468.35 798.69 600.98 641.95 668.28 863.17 676.24
00000880 00000109 460.32 158.08 505.50 701.91 653.55 461.55 884.50 469.04 797.86 601.81 643.29 672.22 861.20 679.52
00000881 00000110 459.48 154.21 505.84 705.71 650.83 464.82 881.32 468.83 796.72 604.47 645.63 677.03 863.04 681.13
00000882 00000111 459.70 154.87 504.93 704.28 649.91 468.60 882.31 470.40 796.20 607.91 653.49 690.21 859.54 692.14
00000883 00000112 461.85 158.51 507.30 705.73 652.96 469.02 883.21 472.93 795.42 605.40 653.68 691.59 854.78 695.40
00000884 00000113 469.01 166.45 506.87 704.21 661.84 468.59 887.20 475.90 800.12 605.50 661.59 694.44 855.03 701.15
00000885 00000114 474.42 169.23 507.98 701.09 669.80 469.64 894.42 477.72 806.98 607.68 666.83 692.17 858.97 699.88
00000886 00000115 478.59 167.04 507.06 704.26 678.94 468.83 899.14 481.32 813.65 606.82 673.39 693.96 860.42 704.74
00000887 00000116 480.98 168.50 504.92 702.59 683.99 471.29 903.43 482.31 819.05 609.26 680.38 699.80 862.05 709.44
00000888 00000117 482.14 168.12 505.91 702.44 685.48 470.73 905.38 480.79 821.71 607.36 683.86 701.03 864.84 709.88
00000889 00000118 483.90 162.11 505.23 705.50 688.29 468.05 908.58 478.40 825.30 606.01 686.77 699.92 867.39 708.90
00000890 00000119 488.26 157.33 499.05 701.29 685.94 465.28 912.46 473.19 828.81 604.37 683.29 692.94 878.02 700.11
00000891 00000120 486.64 163.94 497.58 689.13 687.86 458.10 916.33 467.37 836.48 595.45 673.97 678.14 881.69 687.62
00000892 00000121 483.52 151.66 496.58 698.16 693.23 446.15 917.50 453.19 846.15 579.42 677.55 664.20 889.50 671.76
00000893 00000122 478.08 132.00 490.18 715.55 702.75 430.95 913.54 431.22 862.88 557.83 688.43 653.50 893.85 655.49
00000894 00000123 465.28 122.34 497.26 718.73 701.02 415.13 904.69 411.04 865.87 536.66 690.97 645.96 890.91 644.00
00000895 00000124 457.05 110.79 500.39 708.38 697.93 404.37 897.48 395.40 868.36 519.37 688.37 628.75 887.04 622.92
00000896 00000125 444.72 102.33 503.43 723.88 693.00 392.05 885.41 387.10 861.82 505.53 687.62 626.12 878.16 623.05
00000897 00000126 442.85 100.96 500.96 738.08 689.58 388.60 877.52 386.23 854.30 503.89 685.07 630.01 872.37 628.78
00000898 00000127 440.86 104.41 500.75 753.00 687.02 396.55 876.90 394.92 853.58 515.35 681.98 648.68 865.23 648.61
CROP_BBOX: 145 0 1269 1062
