Video ID: 	pnkKGbDArcA
H: 	1080
W: 	1920
FPS: 	30.0

FRAME INDEX X0 Y0 W H [Landmarks (5 Points)]

00007426 00000000 753.29 180.47 453.79 609.70 844.71 432.29 1051.25 387.84 954.40 524.89 906.21 646.85 1083.96 609.76
00007427 00000001 751.14 179.87 454.19 610.13 841.96 432.83 1048.72 387.47 950.51 524.45 904.38 647.67 1081.46 610.00
00007428 00000002 750.21 178.38 454.75 611.26 840.70 432.59 1048.04 386.72 949.23 524.42 903.53 647.60 1081.51 609.50
00007429 00000003 749.75 177.02 454.85 611.96 837.53 432.78 1046.82 385.68 945.54 525.24 901.08 649.49 1080.86 610.17
00007430 DELETE   747.92 175.80 457.34 610.21 831.99 432.67 1045.26 383.62 940.07 526.13 897.99 649.78 1081.98 608.70
00007431 00000005 746.85 177.14 456.68 607.29 831.53 433.60 1043.99 383.82 939.37 525.24 898.38 650.48 1080.12 608.84
00007432 00000006 744.10 176.75 458.04 609.10 829.00 435.52 1042.27 383.27 938.10 525.58 897.66 652.81 1079.38 609.33
00007433 00000007 741.07 177.07 461.26 611.07 826.99 435.66 1040.47 382.07 937.05 526.37 897.26 653.63 1079.23 609.15
00007434 00000008 740.66 177.08 462.22 611.95 826.55 436.77 1039.33 382.61 936.16 527.49 897.35 654.83 1078.60 609.94
00007435 00000009 739.06 177.18 463.56 611.44 825.21 437.84 1038.38 383.44 935.56 527.65 895.74 654.78 1077.95 609.69
00007436 00000010 737.70 176.86 463.92 613.67 824.17 437.61 1037.40 383.98 934.83 528.50 894.75 655.44 1076.76 610.92
00007437 00000011 736.89 176.61 464.87 615.02 823.64 438.11 1036.67 384.01 933.93 528.93 894.03 656.02 1076.32 611.08
00007438 00000012 733.96 177.40 467.60 620.17 820.11 439.48 1032.88 385.53 930.81 531.79 891.09 659.53 1072.00 614.74
00007439 00000013 729.62 180.96 470.29 622.72 817.10 442.37 1025.15 388.11 926.77 532.41 889.34 661.83 1064.23 617.00
00007440 00000014 728.61 182.19 469.05 623.51 813.10 444.99 1021.27 390.85 919.68 533.94 883.27 663.94 1059.03 619.38
00007441 00000015 724.15 181.54 468.45 624.44 805.50 447.13 1013.20 392.07 905.73 531.55 870.68 663.40 1046.84 618.06
00007442 00000016 721.74 180.64 467.37 627.35 798.98 446.22 1006.97 392.17 896.32 531.30 860.82 663.83 1034.92 619.29
00007443 00000017 721.24 176.37 474.13 630.29 796.26 450.99 1000.74 395.29 889.11 530.57 857.61 662.33 1027.92 615.71
00007444 00000018 719.56 176.92 473.40 631.72 791.27 451.01 994.13 394.85 879.28 529.83 849.32 661.12 1022.74 614.05
00007445 00000019 717.31 177.00 473.31 631.96 788.40 450.95 991.29 393.77 876.11 529.62 846.07 659.63 1022.65 611.44
00007446 00000020 716.51 177.52 473.53 631.27 787.23 451.05 990.54 394.02 875.40 529.88 844.95 659.09 1022.76 610.96
00007447 00000021 714.02 179.31 475.34 625.98 785.84 452.27 990.62 394.38 877.25 531.82 845.69 659.82 1023.68 611.05
00007448 00000022 713.03 180.78 476.06 622.49 786.03 451.35 992.05 394.29 880.07 533.89 846.76 659.75 1024.54 611.77
00007449 00000023 711.74 181.14 476.58 620.30 785.80 451.05 992.99 394.52 881.79 536.37 848.09 660.86 1024.62 613.46
00007450 00000024 709.94 183.82 476.99 616.80 784.63 452.20 992.77 397.34 881.63 539.69 847.64 661.89 1024.02 615.78
00007451 00000025 708.78 184.45 475.10 615.63 784.20 451.91 993.11 397.43 882.76 539.71 847.67 662.22 1023.92 616.44
00007452 00000026 707.61 183.22 475.99 617.06 784.48 451.50 993.12 396.56 883.20 538.06 847.93 661.70 1023.98 615.52
00007453 00000027 706.77 180.27 473.53 616.63 783.89 448.47 992.93 393.79 883.62 533.81 845.87 658.57 1023.36 612.59
00007454 00000028 704.60 178.18 473.25 615.94 781.53 444.62 991.44 390.45 882.13 531.16 843.59 655.29 1021.09 609.83
00007455 00000029 701.92 176.49 474.42 616.82 779.65 443.14 989.63 389.59 879.64 529.36 841.32 653.53 1018.87 608.58
00007456 00000030 699.33 176.37 474.94 614.73 775.55 444.86 986.06 389.23 874.95 528.44 840.22 656.74 1015.01 610.11
00007457 00000031 695.03 182.02 469.27 614.25 769.63 440.92 974.72 387.32 861.96 532.40 840.79 662.91 1009.10 617.18
00007458 00000032 695.53 174.08 475.16 611.76 768.85 444.09 982.05 389.83 870.89 532.86 835.88 662.86 1008.07 617.89
00007459 00000033 691.76 183.75 469.71 613.87 762.89 442.48 970.34 389.87 852.90 533.37 829.81 663.25 1002.30 618.21
00007460 00000034 690.09 179.29 475.50 614.65 761.80 446.05 973.63 395.55 859.17 533.75 823.54 659.21 997.09 617.12
00007461 00000035 689.83 181.31 474.65 616.52 761.60 448.29 971.45 396.47 856.66 534.04 824.84 661.64 995.04 618.42
00007462 00000036 689.24 186.24 471.87 611.44 760.80 446.29 968.33 399.01 853.87 535.75 824.06 662.16 987.16 622.90
00007463 00000037 687.74 191.52 466.39 611.19 755.32 440.06 957.58 394.90 839.71 538.33 816.05 659.52 987.26 621.06
00007464 00000038 687.42 189.88 464.54 609.53 755.62 438.40 955.90 393.18 839.50 536.36 816.30 655.04 987.82 616.43
00007465 00000039 687.02 184.67 461.70 604.93 757.38 433.55 951.78 388.29 839.42 530.69 818.40 644.45 988.27 605.48
00007466 00000040 686.25 178.04 463.36 607.17 758.73 428.84 951.05 382.73 839.56 525.69 821.97 640.62 988.77 600.68
00007467 00000041 685.10 175.15 463.38 606.65 757.64 425.22 949.87 378.61 839.26 523.33 823.49 639.57 987.44 599.25
00007468 00000042 684.81 173.66 462.28 596.19 752.53 420.44 948.08 371.38 835.13 516.68 822.77 635.86 987.33 593.08
00007469 00000043 684.05 167.35 463.76 593.22 748.78 414.72 947.78 362.44 835.09 510.73 823.02 631.50 988.55 586.22
00007470 00000044 683.20 165.53 463.74 592.35 748.84 412.50 949.50 358.81 838.40 506.74 824.26 629.79 989.33 583.74
00007471 00000045 685.54 162.47 458.32 589.46 749.32 409.27 950.64 353.49 841.51 499.10 824.53 626.66 990.19 579.34
00007472 00000046 687.91 159.74 453.40 588.75 751.13 402.55 947.44 349.99 840.49 492.27 824.96 621.54 983.42 577.38
00007473 00000047 688.99 160.21 448.74 585.59 753.04 401.09 947.44 349.06 842.17 487.27 825.67 618.75 980.46 575.37
00007474 00000048 689.80 157.82 443.28 584.73 751.55 398.86 946.32 345.65 836.93 477.82 820.91 615.88 976.68 571.89
00007475 00000049 687.93 156.90 443.08 585.62 748.41 397.44 942.79 343.43 830.81 475.40 815.84 613.09 973.24 568.25
00007476 00000050 686.61 154.87 442.20 587.90 745.53 398.57 941.53 343.00 828.06 476.18 813.12 615.13 973.04 568.98
00007477 00000051 679.21 150.13 447.96 586.93 745.39 392.56 932.95 344.04 819.55 478.73 807.80 603.14 962.34 562.56
00007478 00000052 673.74 150.64 448.07 586.70 741.51 390.72 925.75 343.51 816.02 478.56 806.05 604.00 953.64 565.07
00007479 00000053 671.79 150.81 448.36 589.74 740.22 392.76 924.89 344.92 814.74 479.59 803.90 607.45 950.54 568.18
00007480 00000054 669.16 154.10 449.24 588.85 737.13 395.95 922.36 346.89 811.27 481.57 800.43 610.02 947.69 569.70
00007481 00000055 666.39 155.33 450.16 590.94 735.50 399.87 922.28 349.33 810.93 482.73 798.99 613.05 946.63 571.56
00007482 00000056 665.90 155.32 452.23 593.16 734.89 400.64 922.09 350.16 810.22 485.20 798.70 613.53 947.93 572.08
00007483 00000057 664.61 158.04 454.41 591.22 733.41 402.61 921.70 353.44 808.06 489.53 795.94 614.51 946.99 574.17
00007484 00000058 664.65 162.20 456.77 587.82 731.74 405.25 922.18 355.73 806.54 493.03 794.31 615.55 948.93 574.82
00007485 DELETE   664.93 163.71 457.54 586.41 730.95 405.43 922.34 356.70 805.44 494.35 793.29 615.96 948.73 575.89
00007486 00000060 663.57 164.74 460.00 583.87 730.36 407.31 923.23 360.87 805.36 496.52 792.97 616.25 947.29 578.10
00007487 00000061 664.11 165.63 462.17 585.24 730.53 408.89 925.95 361.98 807.69 500.40 795.56 619.54 951.60 580.96
00007488 00000062 665.13 167.51 461.30 583.82 731.48 409.15 927.97 362.46 810.20 501.67 796.65 620.90 952.52 582.53
00007489 00000063 668.72 169.67 460.38 582.35 734.15 409.33 931.91 362.21 814.53 504.10 801.71 623.65 957.09 584.88
00007490 00000064 672.21 167.44 460.78 585.73 734.19 411.26 931.71 356.72 817.41 502.19 809.89 630.43 964.63 583.17
00007491 00000065 672.42 169.00 461.63 586.24 735.90 411.49 932.68 357.41 819.76 502.09 811.56 631.63 963.95 584.92
00007492 00000066 675.85 168.73 460.89 587.88 738.71 411.58 935.07 356.36 820.15 500.02 811.94 631.33 968.53 583.63
00007493 00000067 679.35 169.81 459.93 587.36 740.45 413.66 937.45 358.38 821.08 500.66 810.92 630.39 972.38 582.46
00007494 00000068 680.64 169.45 459.62 587.80 741.61 414.04 939.12 358.20 822.08 500.95 811.92 630.60 975.23 582.20
00007495 DELETE   684.29 169.20 457.59 589.75 745.26 414.17 943.31 359.42 825.94 501.40 813.11 630.17 981.29 582.39
00007496 00000070 686.59 170.51 458.12 592.29 749.86 414.88 947.94 361.84 831.78 502.11 816.59 629.24 986.64 582.79
00007497 00000071 686.53 171.03 458.56 593.31 750.83 415.39 949.15 363.36 833.82 504.57 817.90 629.31 988.69 583.64
00007498 00000072 688.90 171.65 458.17 599.67 756.18 414.83 952.79 365.81 840.33 508.45 823.17 631.08 990.87 588.31
00007499 00000073 693.13 171.67 456.87 599.17 760.82 415.89 956.47 368.53 845.58 509.38 827.25 630.80 993.79 589.49
00007500 00000074 694.53 171.53 455.91 597.81 762.10 416.14 958.16 368.77 848.30 509.47 828.29 630.15 995.36 589.00
00007501 00000075 695.99 171.42 456.82 596.98 765.26 416.05 962.08 369.45 851.39 508.27 829.52 627.79 998.42 587.41
00007502 00000076 699.52 172.04 454.40 595.54 769.77 416.78 965.70 371.41 854.87 508.45 831.48 626.55 1001.92 587.11
00007503 00000077 700.45 171.79 453.84 594.80 771.30 416.97 968.31 371.61 857.05 507.78 832.09 625.94 1004.26 586.47
00007504 00000078 702.54 172.86 453.25 593.19 773.76 416.82 972.89 370.24 861.48 505.54 834.87 625.70 1008.72 585.35
00007505 00000079 705.55 172.24 449.94 590.93 777.28 418.17 977.30 371.85 865.60 505.81 838.15 628.88 1008.15 589.45
00007506 00000080 706.69 172.45 447.19 588.42 777.49 418.24 979.78 371.01 868.26 506.21 838.17 628.59 1011.87 588.70
00007507 00000081 707.88 172.09 446.54 587.80 779.81 417.64 982.46 370.57 871.91 504.61 839.64 627.50 1013.53 587.83
00007508 00000082 709.46 172.26 445.36 591.20 783.31 419.21 984.04 370.47 876.38 502.96 844.34 628.57 1015.51 587.57
00007509 00000083 709.75 172.87 445.80 593.51 784.49 419.38 984.24 370.82 877.62 502.78 845.67 629.43 1015.22 588.55
00007510 00000084 710.20 173.62 448.29 600.95 789.75 418.63 984.91 370.41 882.51 500.73 852.79 630.16 1016.00 589.29
00007511 00000085 710.78 172.89 449.69 610.10 791.95 420.64 988.42 371.92 885.98 500.28 854.14 633.20 1021.18 591.66
00007512 00000086 709.90 173.75 451.22 608.99 793.43 423.39 988.67 375.05 887.55 500.63 854.92 633.20 1021.66 592.04
00007513 00000087 709.41 173.34 452.44 610.82 794.67 423.46 991.35 376.16 890.19 501.08 854.44 633.49 1023.21 593.36
00007514 00000088 708.59 174.52 451.61 609.38 794.14 423.66 992.21 374.51 892.29 502.32 856.39 634.96 1025.81 593.14
00007515 00000089 708.20 174.18 451.03 610.06 794.10 423.89 992.84 374.50 893.04 503.26 856.45 635.47 1026.52 593.48
00007516 00000090 706.79 174.58 450.88 605.25 793.58 426.14 993.01 376.59 894.02 507.08 856.57 635.05 1027.38 593.03
00007517 00000091 703.70 175.96 453.68 601.51 792.81 428.63 993.34 378.56 895.45 509.80 857.15 635.67 1028.22 592.81
00007518 00000092 702.97 177.37 454.46 600.30 793.44 428.58 993.81 378.51 897.43 510.11 858.39 635.65 1029.41 592.55
00007519 00000093 702.04 176.61 456.06 601.83 796.89 430.30 997.02 378.70 903.81 510.92 866.99 640.98 1032.35 596.64
00007520 00000094 702.31 176.46 456.80 608.38 799.52 430.01 999.94 378.07 908.70 511.25 871.26 646.23 1033.89 601.51
00007521 00000095 701.49 176.38 457.79 609.69 799.69 429.57 999.64 378.29 909.20 511.89 872.30 647.39 1033.46 603.11
00007522 00000096 699.81 176.07 459.15 611.40 798.89 429.45 999.52 378.44 909.03 511.95 871.39 647.71 1033.61 603.55
00007523 00000097 699.51 178.30 455.46 607.55 797.99 431.30 1002.53 379.74 914.62 517.09 871.94 651.90 1035.10 606.61
00007524 00000098 698.29 177.29 458.64 610.37 797.15 430.21 997.32 379.30 907.75 513.32 870.21 648.10 1032.74 603.94
00007525 00000099 697.66 178.67 459.15 609.15 796.84 431.31 997.85 379.92 908.36 515.22 869.86 649.15 1033.11 604.56
00007526 00000100 698.77 180.75 456.72 608.22 799.24 433.72 1005.65 383.07 919.54 520.76 872.13 654.89 1038.75 610.10
00007527 00000101 698.87 181.34 457.90 608.38 801.12 433.94 1003.45 382.67 916.19 519.56 872.64 651.77 1037.24 607.29
00007528 00000102 703.93 180.90 457.01 607.89 807.19 431.53 1014.24 382.51 930.04 522.59 877.25 653.54 1044.22 609.88
00007529 00000103 708.08 181.12 454.69 605.01 811.77 431.96 1020.61 381.30 937.80 522.25 880.29 653.06 1050.63 608.11
00007530 00000104 709.81 180.40 453.86 601.58 813.55 433.51 1022.68 381.22 941.33 522.03 884.00 652.85 1054.66 606.41
00007531 00000105 712.22 176.90 454.36 604.75 812.64 433.59 1024.24 380.13 938.35 519.13 888.28 644.70 1068.30 601.10
00007532 00000106 713.90 178.51 454.39 604.11 810.98 435.93 1021.34 382.39 933.29 522.66 883.92 646.80 1063.67 603.03
00007533 00000107 714.37 179.32 455.24 605.34 807.47 438.88 1018.25 385.00 926.96 525.35 879.41 649.12 1059.31 604.72
00007534 00000108 714.98 183.58 454.87 603.18 797.65 444.10 1010.14 390.01 908.36 527.57 864.10 652.95 1048.19 607.40
00007535 00000109 714.13 182.78 460.92 601.44 790.78 448.04 996.66 394.77 892.08 532.01 853.90 652.78 1027.50 608.04
00007536 00000110 713.50 183.08 462.61 602.49 787.98 449.49 992.95 395.96 885.59 532.51 848.79 653.45 1021.85 608.71
00007537 DELETE   713.07 188.34 463.38 602.51 782.26 453.18 986.91 402.25 875.32 536.98 840.49 657.01 1010.85 614.91
00007538 00000112 712.84 190.32 467.13 600.82 780.37 454.43 982.55 405.55 868.43 539.37 838.15 657.34 1006.52 617.00
00007539 00000113 714.16 189.79 466.67 600.82 781.01 454.98 982.15 406.11 868.35 540.31 838.30 657.80 1006.28 617.58
00007540 00000114 716.55 189.82 466.69 600.71 782.72 455.00 985.69 404.98 872.25 540.24 840.74 658.70 1010.50 617.48
00007541 00000115 718.70 187.85 465.99 605.07 787.16 455.00 991.24 403.15 879.31 539.00 847.05 660.88 1015.66 618.01
00007542 00000116 719.89 189.28 465.16 605.80 789.38 454.35 993.03 402.59 882.39 539.47 850.18 661.86 1018.39 618.96
00007543 00000117 720.60 190.99 465.26 607.88 793.00 455.23 993.80 401.30 886.15 539.02 857.79 663.56 1022.75 618.55
00007544 00000118 719.44 195.20 457.68 606.80 799.20 453.19 1000.80 401.68 897.48 538.51 863.20 666.33 1032.38 623.83
00007545 00000119 719.07 194.95 455.88 604.53 799.41 454.29 1001.87 402.48 899.59 539.04 864.72 666.16 1034.48 623.43
00007546 00000120 718.36 191.64 453.66 602.89 798.18 451.07 1002.69 398.95 900.43 538.86 865.03 663.17 1036.41 619.97
00007547 00000121 715.59 191.03 452.51 599.89 796.33 447.43 1002.24 397.71 899.26 537.79 862.75 661.28 1029.90 620.25
00007548 00000122 712.79 190.29 453.40 600.85 794.01 447.35 1000.00 396.76 896.90 538.30 860.96 662.31 1027.80 620.38
00007549 00000123 708.51 196.31 448.77 592.04 787.14 452.96 990.63 404.34 888.94 542.53 855.28 669.41 1018.82 628.11
00007550 00000124 699.78 198.85 452.56 590.85 776.62 453.93 979.37 405.14 875.61 545.09 845.23 668.81 1010.18 627.98
00007551 00000125 696.15 201.16 454.43 590.50 771.25 454.42 974.01 402.96 869.55 545.87 842.13 670.26 1007.34 627.18
00007552 00000126 688.90 200.60 459.03 597.11 763.03 450.89 966.81 398.47 861.78 543.45 836.91 671.96 1000.99 627.72
00007553 00000127 681.08 203.67 457.68 607.77 757.05 450.37 956.01 395.39 853.92 537.50 833.60 675.34 996.02 628.66
00007554 00000128 677.64 206.31 457.28 608.74 755.63 450.43 953.33 394.66 852.45 534.63 832.63 675.99 994.85 628.71
00007555 00000129 670.22 201.02 459.11 608.34 753.64 447.09 945.62 390.50 848.20 534.42 827.87 665.16 991.02 618.30
00007556 00000130 667.16 198.69 459.09 604.83 751.36 447.38 943.82 388.88 849.03 533.69 828.93 665.19 990.14 616.83
00007557 00000131 667.00 197.62 458.80 599.79 749.02 447.82 945.11 389.83 846.82 533.02 826.61 664.95 989.49 616.80
00007558 00000132 668.49 196.33 456.54 591.99 748.15 447.88 946.86 391.25 843.96 531.87 822.69 662.90 987.61 615.34
00007559 00000133 672.19 198.15 455.84 589.18 751.29 448.42 949.92 392.93 847.22 533.60 824.74 662.24 989.78 615.55
00007560 00000134 674.60 196.54 455.52 590.39 755.36 445.85 951.75 391.64 851.83 533.46 828.33 659.23 991.42 613.85
00007561 00000135 683.07 197.68 453.82 588.17 771.06 444.08 963.02 391.78 867.75 528.87 847.15 657.46 998.67 613.50
00007562 00000136 698.19 190.74 445.69 591.11 792.60 442.35 991.41 389.02 908.93 525.74 872.83 663.45 1023.46 618.14
00007563 00000137 700.65 186.80 448.83 595.92 802.00 440.59 1001.81 387.97 924.79 527.11 884.79 663.73 1034.15 618.06
00007564 DELETE   712.89 180.21 455.40 602.35 822.82 434.61 1023.81 379.59 953.20 508.62 919.14 656.20 1065.72 611.91
00007565 DELETE   726.89 167.05 449.69 611.49 847.52 418.89 1042.95 364.19 986.62 488.87 948.07 648.16 1091.99 603.98
00007566 DELETE   736.47 166.14 451.77 614.10 862.14 420.32 1053.42 355.11 1003.46 485.99 960.95 652.40 1100.65 595.52
00007567 00000141 736.00 160.70 449.25 606.20 858.38 417.19 1057.54 362.30 998.58 483.52 946.14 631.62 1107.23 586.56
00007568 00000142 725.18 164.90 447.11 603.94 840.56 416.94 1049.09 369.28 975.19 489.18 918.74 632.55 1086.65 593.60
00007569 00000143 720.57 169.65 447.86 597.81 833.69 417.93 1045.01 373.22 965.95 493.32 907.66 631.46 1077.59 595.32
00007570 00000144 709.97 170.37 459.18 599.77 826.18 420.94 1035.79 373.57 956.40 498.42 898.69 638.47 1064.56 597.89
00007571 00000145 704.00 172.98 457.36 599.63 818.15 424.67 1028.42 379.53 946.82 505.52 889.32 643.01 1056.96 604.06
00007572 00000146 702.09 176.21 457.36 600.91 815.40 426.91 1024.71 382.00 943.22 508.27 886.32 646.19 1052.97 607.08
00007573 00000147 697.62 182.36 454.75 600.80 808.68 431.55 1015.06 382.63 934.96 512.46 879.48 649.84 1045.10 607.77
00007574 00000148 694.66 187.37 452.44 594.87 803.33 433.34 1008.95 385.96 926.89 517.27 872.88 649.15 1039.72 608.45
00007575 00000149 692.25 189.19 451.11 594.38 801.16 434.34 1006.24 386.99 924.82 519.86 871.02 649.89 1038.04 609.31
00007576 00000150 694.55 193.15 447.90 594.27 802.13 438.98 1006.31 390.25 926.94 523.77 874.55 658.87 1040.14 614.71
00007577 00000151 694.71 193.41 446.00 594.43 799.42 442.40 1004.89 392.50 923.95 527.11 872.72 661.97 1039.91 616.92
00007578 00000152 694.03 194.33 446.17 594.27 798.85 442.51 1003.68 393.01 922.81 527.32 871.91 662.28 1037.79 617.69
00007579 00000153 694.03 197.12 444.72 593.62 796.20 442.91 1000.75 394.28 918.91 527.27 869.95 664.06 1034.49 620.38
00007580 00000154 693.60 199.35 444.13 595.13 793.20 445.25 998.22 395.65 915.63 528.92 865.08 665.65 1036.01 621.29
00007581 00000155 693.67 199.14 444.09 597.48 792.58 445.95 997.56 396.01 914.98 528.95 863.75 666.51 1035.37 622.09
00007582 00000156 692.50 201.71 447.49 596.54 791.50 447.32 997.20 396.02 915.04 531.68 863.91 667.41 1037.49 621.64
00007583 00000157 691.75 199.96 449.36 598.45 792.05 447.56 997.07 394.92 915.79 533.12 866.20 667.42 1039.55 620.34
00007584 00000158 691.36 201.07 451.20 598.10 792.08 448.25 997.36 394.80 915.60 533.07 867.10 667.73 1040.91 620.00
00007585 00000159 692.31 199.70 452.46 602.12 792.43 449.14 996.76 393.58 915.63 533.75 868.98 668.59 1043.11 619.18
00007586 00000160 693.96 200.02 452.57 606.57 793.49 449.82 997.10 394.46 914.67 534.48 868.54 669.63 1043.01 620.55
00007587 00000161 695.23 200.88 451.83 606.41 793.25 449.76 996.90 395.92 912.74 535.08 867.58 670.23 1040.98 622.51
00007588 00000162 698.04 201.23 450.59 606.67 790.60 448.71 996.04 398.01 905.33 533.39 861.23 669.64 1034.21 625.18
00007589 00000163 698.72 202.88 449.16 603.99 787.16 448.78 993.45 399.84 898.24 531.92 854.57 668.68 1028.67 626.22
00007590 00000164 698.57 200.86 450.79 603.69 785.89 449.04 993.26 400.62 896.04 530.60 852.43 668.25 1026.77 626.29
00007591 00000165 697.80 201.63 448.28 600.06 785.31 450.51 993.71 402.22 896.93 528.95 851.44 668.36 1025.45 626.71
00007592 00000166 694.67 204.28 451.28 604.32 781.92 453.01 992.52 404.94 893.97 534.52 848.26 672.24 1024.93 630.65
00007593 00000167 692.53 207.95 452.38 604.27 777.74 456.16 990.34 410.62 887.96 540.24 841.88 675.42 1021.37 636.12
00007594 00000168 687.41 215.32 453.60 611.55 770.00 464.63 982.94 420.04 876.99 554.86 833.53 684.50 1014.26 646.00
00007595 00000169 684.79 220.99 453.27 617.07 770.24 468.19 978.78 425.73 876.69 563.05 835.57 691.52 1008.10 654.84
