Video ID: 	TOuwktY_3d4
H: 	1080
W: 	1920
FPS: 	25.0

FRAME INDEX X0 Y0 W H [Landmarks (5 Points)]

00012982 00000000 890.97 168.24 346.88 501.37 934.90 381.16 1068.27 382.41 934.96 448.49 934.30 545.40 1045.14 545.34
00012983 DELETE   905.64 168.29 348.54 508.48 933.38 394.33 1070.05 387.22 943.49 469.07 946.28 559.07 1062.09 556.45
00012984 DELETE   914.59 176.55 348.77 504.62 943.10 400.19 1082.59 393.88 953.17 475.86 953.26 563.56 1074.38 561.40
00012985 DELETE   922.49 181.57 353.65 504.54 954.03 404.26 1091.80 398.36 958.56 478.36 960.72 564.33 1085.62 562.53
00012986 00000004 928.06 186.79 359.52 501.21 965.16 402.26 1103.91 400.45 968.23 480.87 968.91 564.40 1097.43 565.23
00012987 00000005 940.39 188.42 356.51 499.18 976.45 404.26 1113.94 400.03 975.88 480.71 978.39 566.94 1110.24 564.90
00012988 00000006 955.32 192.71 348.50 494.28 988.90 406.00 1122.93 396.93 987.56 480.80 992.90 569.99 1120.99 563.23
00012989 00000007 961.04 190.27 350.39 496.14 999.49 409.18 1131.32 395.99 997.34 479.60 1006.11 570.85 1131.56 560.17
00012990 00000008 966.21 188.35 353.57 500.01 1006.40 409.34 1139.69 395.00 1002.80 476.74 1013.92 571.22 1138.63 559.26
00012991 00000009 967.94 186.07 358.08 500.74 1009.10 406.74 1143.56 392.88 1009.33 474.12 1018.04 568.52 1142.49 557.02
00012992 00000010 974.84 175.10 356.69 515.39 998.19 408.54 1138.44 389.12 1010.87 475.15 1017.85 572.55 1140.35 559.53
00012993 00000011 976.11 171.62 355.46 523.88 999.26 407.56 1138.83 386.85 1011.40 474.74 1020.32 576.33 1140.40 562.32
00012994 00000012 977.56 172.58 357.61 530.71 1000.20 411.98 1140.04 387.78 1011.88 476.56 1023.79 583.26 1143.69 566.44
00012995 00000013 977.10 173.92 357.16 537.30 1003.58 416.01 1139.11 391.39 1012.60 478.72 1028.16 587.83 1142.94 570.34
00012996 00000014 977.14 174.75 356.27 544.22 1003.24 416.00 1138.90 391.83 1009.97 479.76 1027.65 591.53 1144.94 573.97
00012997 00000015 976.73 176.75 355.76 547.86 1003.62 415.37 1137.66 393.18 1007.99 480.69 1026.78 592.87 1144.82 576.49
00012998 00000016 980.38 175.27 350.56 553.21 1006.12 413.74 1138.03 392.72 1007.76 480.46 1028.62 593.90 1143.88 578.33
00012999 00000017 981.09 174.71 348.63 556.61 1007.40 412.75 1140.82 392.05 1009.36 479.29 1029.52 597.45 1143.26 581.99
00013000 00000018 980.53 174.70 348.51 553.05 1007.07 411.12 1145.24 393.27 1013.94 479.37 1026.58 600.31 1138.16 588.21
00013001 00000019 979.02 174.54 352.42 543.94 1007.75 411.16 1143.48 396.91 1014.99 479.82 1022.80 592.29 1131.32 583.81
00013002 00000020 975.80 176.40 355.11 537.03 1000.85 415.52 1138.86 399.22 1009.57 483.88 1016.65 593.24 1127.51 583.10
00013003 00000021 972.23 187.03 352.73 522.86 1013.49 414.21 1142.53 399.04 1011.51 481.67 1021.67 590.72 1128.44 578.89
00013004 00000022 968.75 187.16 355.05 524.35 1011.96 414.15 1141.76 396.91 1009.02 477.43 1022.56 590.90 1130.22 577.28
00013005 00000023 969.16 182.87 356.02 526.63 1013.55 408.06 1144.89 390.84 1011.51 470.58 1026.53 584.53 1138.84 570.69
00013006 00000024 973.86 168.90 360.33 533.35 998.85 403.45 1140.19 376.31 1015.39 464.75 1023.12 580.36 1140.98 562.00
00013007 00000025 974.80 163.19 361.82 530.34 1002.67 394.74 1144.08 369.23 1018.13 459.41 1028.82 574.06 1143.94 556.63
00013008 00000026 977.37 161.63 361.56 531.02 1005.95 392.60 1146.58 366.70 1019.51 456.54 1030.54 572.66 1144.19 555.03
00013009 00000027 976.69 161.35 363.96 537.90 1010.39 391.45 1148.39 366.87 1022.70 455.94 1034.50 573.56 1143.22 556.76
00013010 00000028 976.08 165.87 368.18 543.05 1014.92 390.17 1152.81 370.48 1028.74 462.70 1039.82 578.07 1146.60 564.84
00013011 00000029 974.62 173.89 373.63 542.50 1017.15 396.03 1158.70 375.41 1039.21 471.18 1047.65 585.02 1155.84 570.18
00013012 00000030 968.71 177.96 381.35 540.25 1016.17 403.06 1169.23 378.35 1051.87 475.88 1054.89 593.92 1169.66 574.95
00013013 00000031 969.26 183.73 381.94 530.99 1015.12 422.75 1168.46 385.12 1056.63 477.20 1055.47 597.93 1177.72 567.98
00013014 00000032 971.84 183.37 383.37 517.50 1013.87 421.26 1172.68 382.07 1059.85 477.13 1050.50 590.77 1182.97 560.11
00013015 00000033 973.31 177.54 380.24 514.00 1016.93 410.46 1173.07 371.20 1063.19 472.99 1055.87 583.33 1185.87 552.76
00013016 00000034 973.66 168.37 379.62 521.46 1017.79 397.56 1173.76 359.82 1062.25 465.45 1058.59 578.40 1187.17 549.19
00013017 00000035 972.44 165.64 381.26 521.94 1019.55 393.85 1174.24 355.97 1063.15 458.65 1060.03 574.03 1186.43 544.44
00013018 00000036 972.80 166.19 380.97 516.02 1019.11 390.63 1173.95 352.75 1061.13 453.15 1057.46 569.11 1184.95 539.64
00013019 00000037 969.61 165.10 382.01 521.51 1017.08 389.35 1171.93 351.47 1060.98 452.81 1058.85 570.19 1183.84 540.59
00013020 00000038 965.16 163.42 383.81 539.36 1012.66 391.13 1167.24 352.53 1055.70 457.86 1061.46 579.24 1184.01 548.86
00013021 00000039 964.65 170.25 382.48 533.45 1006.43 399.96 1161.73 359.55 1050.38 466.90 1056.46 583.88 1179.93 552.35
00013022 00000040 963.27 174.89 381.40 526.85 1002.29 407.50 1156.80 366.24 1046.17 474.55 1048.67 586.65 1174.31 554.93
00013023 00000041 959.77 181.57 382.83 521.71 999.74 419.88 1156.30 376.85 1046.49 476.13 1043.21 590.37 1167.46 557.33
00013024 00000042 958.27 178.55 382.36 524.37 998.09 412.31 1152.83 372.22 1042.36 473.16 1041.12 587.29 1163.25 556.68
00013025 00000043 961.60 173.36 378.94 521.85 999.67 402.76 1153.57 364.54 1041.25 466.61 1040.36 581.45 1159.45 552.82
00013026 00000044 962.50 172.11 376.18 514.28 999.63 395.84 1154.38 358.45 1039.59 456.30 1039.46 572.71 1158.75 544.75
00013027 00000045 962.52 167.89 375.25 513.14 1000.65 388.37 1155.23 352.93 1039.22 449.49 1037.95 568.31 1155.02 542.00
00013028 00000046 963.55 167.37 373.87 509.78 1001.76 384.08 1155.31 348.44 1037.44 443.99 1037.69 565.70 1154.11 539.34
00013029 00000047 963.43 167.09 374.06 508.97 1001.09 383.86 1154.61 347.57 1036.85 443.46 1037.88 565.61 1153.96 538.64
00013030 00000048 963.05 170.15 374.60 508.16 1000.12 387.73 1155.34 350.52 1038.83 448.33 1039.27 567.77 1157.44 539.98
00013031 00000049 963.14 171.86 375.61 507.31 998.33 393.21 1154.68 355.06 1038.66 455.17 1039.09 571.59 1159.61 542.76
00013032 00000050 962.34 167.48 378.75 508.28 1007.09 393.30 1153.30 363.58 1041.64 450.11 1042.95 561.71 1157.84 535.31
00013033 00000051 962.23 166.95 378.72 508.51 1006.11 393.50 1152.95 363.07 1040.58 448.43 1042.05 560.60 1159.15 533.47
00013034 00000052 962.56 172.36 374.68 501.18 1006.99 396.13 1154.62 358.44 1037.86 450.39 1038.97 565.02 1162.73 534.08
00013035 00000053 965.71 165.11 373.31 501.54 1009.57 390.05 1154.17 361.14 1040.92 441.24 1040.96 554.05 1154.55 528.23
00013036 00000054 964.53 165.39 374.76 503.65 1011.02 388.23 1155.33 359.42 1042.44 438.68 1041.69 555.16 1150.69 529.68
00013037 00000055 963.55 162.14 374.06 510.19 1011.65 385.54 1153.95 359.94 1040.98 439.85 1042.20 561.16 1142.97 538.44
00013038 00000056 963.81 163.36 370.25 512.78 1009.95 390.45 1148.89 364.10 1037.58 442.90 1039.35 564.92 1140.69 541.67
00013039 00000057 966.41 176.02 365.62 500.08 1008.30 400.16 1144.39 365.94 1029.46 456.38 1037.18 571.90 1145.10 543.95
00013040 00000058 965.57 176.45 363.06 494.86 1005.71 399.20 1144.16 365.76 1027.57 456.75 1033.15 570.33 1143.85 543.03
00013041 00000059 966.26 175.00 362.07 501.01 1005.82 398.32 1145.75 364.95 1026.81 455.71 1032.26 571.94 1147.34 544.93
00013042 00000060 963.64 176.32 366.56 509.84 1009.87 400.86 1149.05 366.09 1032.01 453.24 1040.38 576.21 1148.95 548.03
00013043 00000061 965.49 175.75 367.64 512.06 1011.76 405.00 1152.84 369.23 1035.63 456.06 1042.67 577.41 1156.80 548.15
00013044 00000062 967.76 173.48 370.62 510.43 999.46 400.43 1153.00 362.25 1033.47 461.01 1039.23 577.91 1160.59 549.34
00013045 00000063 969.39 174.55 371.22 509.26 1000.12 403.87 1153.44 365.74 1034.71 466.92 1041.00 578.75 1165.84 550.04
00013046 00000064 971.71 175.81 369.90 509.84 1002.20 406.43 1152.70 370.14 1035.25 471.55 1042.56 580.08 1166.64 552.74
00013047 00000065 970.26 178.73 370.33 512.67 1002.02 411.38 1152.55 372.56 1038.34 473.45 1043.23 584.37 1166.35 555.10
00013048 00000066 967.27 177.62 372.07 526.26 1001.35 412.55 1148.65 372.11 1035.28 473.49 1045.44 590.80 1164.74 559.96
00013049 00000067 966.52 180.12 371.19 526.79 1001.06 413.55 1146.87 372.57 1034.23 473.80 1047.05 592.72 1165.66 561.09
00013050 00000068 968.17 181.11 371.10 523.23 1000.70 414.37 1148.37 373.41 1035.13 474.33 1045.03 592.24 1165.37 560.95
00013051 00000069 971.62 183.13 369.30 513.94 1001.45 415.66 1150.87 376.32 1036.68 475.95 1042.57 588.64 1165.74 559.12
00013052 00000070 972.94 183.72 371.55 509.67 1001.35 417.70 1151.00 379.39 1035.46 478.70 1043.05 585.91 1170.08 556.85
00013053 00000071 973.41 185.50 372.63 505.13 1001.70 419.64 1152.02 381.57 1036.23 481.17 1043.62 584.45 1173.92 555.39
00013054 00000072 974.01 185.95 371.74 502.74 1001.47 420.75 1152.23 382.91 1035.91 481.80 1043.34 583.38 1175.52 554.34
00013055 00000073 974.18 185.48 372.26 504.39 1001.63 421.79 1152.98 384.06 1035.91 482.33 1042.92 584.53 1175.15 555.54
00013056 00000074 975.01 183.99 371.38 506.60 1002.56 423.55 1153.86 384.30 1037.28 483.43 1044.50 587.04 1174.70 556.83
00013057 00000075 976.61 184.47 370.62 507.35 1003.82 424.21 1155.42 385.59 1037.60 482.91 1043.88 588.23 1173.91 558.57
00013058 00000076 977.81 184.54 371.01 509.55 1004.35 423.68 1157.25 384.68 1038.56 482.43 1043.77 590.62 1174.45 560.75
00013059 00000077 977.61 182.25 373.82 519.48 1007.58 422.53 1158.29 383.53 1039.60 480.68 1048.60 594.38 1175.31 564.12
00013060 00000078 978.33 183.75 371.77 522.17 1016.59 420.64 1160.11 382.62 1047.26 476.41 1057.08 594.24 1171.86 564.74
00013061 00000079 980.88 182.85 370.54 525.29 1018.21 418.69 1160.94 381.01 1046.17 475.74 1058.61 594.76 1175.04 565.41
00013062 00000080 984.05 185.64 368.14 522.89 1022.40 425.90 1164.35 385.94 1050.79 473.77 1058.46 596.62 1177.75 565.35
00013063 00000081 986.26 184.37 368.26 521.93 1025.30 427.36 1167.93 387.61 1053.59 472.73 1058.87 595.00 1178.40 563.93
00013064 00000082 987.98 183.41 366.89 513.23 1023.69 421.30 1170.55 386.38 1051.65 473.39 1051.41 588.25 1175.84 561.53
00013065 00000083 988.70 183.52 365.08 503.93 1023.96 416.98 1169.82 384.54 1049.93 472.56 1050.66 581.02 1174.09 556.46
00013066 00000084 987.40 181.06 367.70 513.31 1020.97 413.63 1167.54 382.37 1045.30 473.83 1048.91 586.22 1171.76 562.52
00013067 00000085 983.02 180.55 370.39 524.49 1023.31 413.26 1166.60 381.67 1049.80 473.52 1056.39 590.25 1172.45 566.00
00013068 00000086 979.94 180.95 372.05 526.50 1020.44 412.99 1165.02 382.00 1048.68 474.99 1056.40 591.70 1172.94 567.84
00013069 00000087 979.09 180.04 371.90 527.31 1020.05 412.73 1164.47 381.90 1048.42 474.46 1056.45 591.54 1171.41 567.82
00013070 00000088 979.71 180.36 371.71 526.14 1019.64 413.72 1164.26 381.95 1048.73 474.34 1055.33 590.37 1171.40 565.97
00013071 00000089 981.06 179.57 370.50 525.73 1020.52 412.91 1164.84 381.50 1049.07 473.95 1054.80 587.45 1172.77 563.46
00013072 00000090 982.18 178.77 369.51 523.48 1019.48 412.15 1164.49 380.95 1047.28 474.44 1052.29 585.26 1172.45 561.66
00013073 00000091 982.48 177.96 366.84 519.24 1018.90 411.25 1164.06 381.81 1045.78 473.96 1048.72 580.78 1170.08 558.81
00013074 00000092 982.77 178.14 365.36 516.80 1017.11 410.97 1163.57 382.19 1044.51 474.86 1045.69 580.42 1169.68 559.14
00013075 00000093 983.29 179.90 364.10 512.07 1016.19 410.99 1163.43 382.79 1043.11 475.32 1044.08 579.89 1169.35 559.02
00013076 00000094 983.59 179.53 363.33 510.68 1015.99 410.87 1163.51 383.10 1042.68 475.60 1043.90 578.97 1170.21 558.44
00013077 00000095 983.80 178.98 363.83 510.60 1015.55 410.91 1162.90 383.24 1041.32 475.58 1043.67 578.58 1170.26 558.08
00013078 00000096 983.01 179.74 364.75 513.72 1015.88 411.09 1163.13 383.29 1042.64 475.54 1043.99 579.77 1170.24 559.11
00013079 00000097 981.55 178.33 367.65 526.87 1018.30 410.48 1163.67 381.26 1045.40 473.98 1050.62 584.73 1173.94 562.64
00013080 00000098 981.21 178.86 368.68 526.37 1017.66 410.74 1163.23 380.52 1045.23 474.44 1051.96 585.24 1175.67 562.25
00013081 00000099 982.10 177.60 370.02 521.85 1017.25 410.26 1163.94 381.77 1044.86 475.51 1048.33 581.29 1172.63 560.03
00013082 00000100 982.47 176.64 370.11 514.31 1014.60 410.22 1162.67 381.88 1041.49 476.46 1044.28 576.23 1173.58 555.41
00013083 00000101 983.40 177.72 368.93 510.70 1015.70 410.67 1162.27 381.93 1042.08 475.85 1044.29 574.20 1172.83 553.13
00013084 00000102 983.18 178.07 369.43 510.27 1015.67 411.49 1162.21 382.01 1042.41 475.76 1044.54 574.59 1172.88 552.90
00013085 00000103 983.29 178.61 370.06 510.77 1015.02 412.22 1161.98 382.09 1041.23 476.23 1044.93 576.54 1173.42 554.27
00013086 00000104 982.76 178.22 371.82 515.09 1016.00 412.09 1163.73 382.95 1043.24 477.22 1045.65 578.04 1175.25 556.39
00013087 00000105 982.41 177.70 373.47 520.61 1015.65 411.38 1164.70 383.00 1043.95 478.13 1045.78 580.09 1178.72 558.81
00013088 00000106 981.07 179.91 373.59 526.26 1020.52 414.11 1165.66 382.82 1049.10 476.13 1053.59 588.59 1173.43 564.73
00013089 00000107 979.22 180.68 373.38 530.42 1020.13 414.44 1166.14 384.29 1050.28 477.00 1054.90 592.12 1172.62 569.04
00013090 00000108 978.41 180.94 371.47 527.98 1016.94 416.50 1164.30 387.42 1047.26 479.56 1049.01 591.68 1167.39 569.75
00013091 00000109 978.10 179.98 370.47 525.91 1011.25 418.46 1158.65 389.26 1038.83 482.38 1042.09 593.12 1160.36 571.47
00013092 00000110 976.02 180.49 370.38 528.38 1010.10 418.82 1157.77 388.86 1037.97 481.44 1041.56 597.27 1156.60 575.13
00013093 00000111 975.01 178.07 372.29 528.20 1009.76 415.36 1159.36 385.82 1039.36 479.13 1040.95 595.37 1156.27 573.67
00013094 00000112 978.58 175.23 369.08 523.53 1009.34 411.69 1159.84 381.76 1036.67 475.81 1038.05 588.51 1158.68 566.86
00013095 00000113 983.37 176.49 367.55 514.33 1013.32 405.58 1159.93 377.67 1034.85 472.38 1038.39 580.22 1159.88 560.48
00013096 00000114 985.33 174.79 367.82 512.11 1017.48 401.31 1163.22 374.75 1037.77 468.82 1041.12 575.87 1162.52 556.99
00013097 00000115 986.31 171.30 370.66 515.41 1019.51 398.23 1167.10 371.52 1040.00 466.20 1042.60 574.09 1167.51 554.97
00013098 00000116 985.73 169.44 371.13 519.50 1022.12 397.38 1168.02 368.51 1043.98 463.25 1048.02 574.74 1170.89 553.64
00013099 00000117 985.66 170.62 370.19 524.92 1024.26 398.89 1165.47 370.64 1043.90 463.83 1052.10 575.03 1172.63 554.07
00013100 00000118 982.05 177.30 369.57 519.00 1020.34 403.76 1164.22 376.29 1044.80 468.74 1047.75 575.95 1167.58 555.99
00013101 00000119 979.29 178.64 368.55 515.92 1017.61 405.89 1162.65 381.57 1045.71 474.29 1042.14 577.45 1160.14 560.36
00013102 00000120 977.10 177.90 367.44 517.06 1010.38 410.50 1159.07 384.09 1041.73 479.30 1036.72 583.84 1154.91 565.35
00013103 00000121 976.98 177.19 367.10 516.95 1011.79 411.84 1158.64 381.91 1040.85 473.31 1041.45 584.98 1154.72 563.36
00013104 00000122 979.40 176.66 366.59 511.61 1011.27 405.44 1159.03 378.84 1037.92 472.19 1037.73 577.71 1156.19 559.03
CROP_BBOX: 545 0 1492 896
