Video ID: 	91QplsNqpAg
H: 	1080
W: 	1920
FPS: 	25.0

FRAME INDEX X0 Y0 W H [Landmarks (5 Points)]

00000086 00000000 628.01 244.53 438.71 586.96 850.98 452.94 1020.63 436.76 1016.61 582.88 839.80 670.61 997.16 661.70
00000087 00000001 624.75 245.58 442.22 578.36 853.41 442.74 1020.73 433.15 1015.61 574.20 844.81 661.66 996.45 657.19
00000088 00000002 627.13 240.27 440.79 586.79 853.86 444.25 1021.15 433.34 1016.57 573.98 845.67 663.21 998.83 657.54
00000089 00000003 630.86 238.06 438.91 588.69 854.71 444.00 1023.51 431.48 1019.40 573.11 847.24 663.04 1001.99 656.04
00000090 DELETE   636.08 243.37 436.74 585.95 856.24 446.83 1025.27 431.46 1022.98 575.85 850.16 665.33 1006.25 656.34
00000091 00000005 641.92 239.37 434.23 594.57 857.22 452.65 1028.36 435.63 1022.91 580.31 851.01 668.85 1011.42 658.60
00000092 00000006 643.12 240.77 438.24 601.82 862.09 457.55 1031.22 436.68 1030.11 589.05 851.51 674.39 1013.64 662.10
00000093 DELETE   643.84 231.92 434.60 608.89 857.96 454.86 1030.31 437.07 1024.72 582.85 847.69 671.48 1012.03 660.75
00000094 00000008 640.57 242.19 433.48 593.80 855.69 449.77 1025.00 432.66 1023.42 579.38 844.35 667.29 1005.52 657.37
00000095 DELETE   640.42 244.53 435.75 598.68 856.12 449.70 1025.23 433.75 1025.34 580.28 844.63 670.75 1006.58 661.90
00000096 00000010 642.85 239.54 438.94 606.24 859.56 453.57 1029.55 437.14 1026.80 586.25 845.40 672.61 1010.43 663.52
00000097 00000011 642.30 246.61 438.48 598.08 857.86 454.65 1029.83 437.61 1025.55 587.37 845.50 672.45 1012.15 663.17
00000098 00000012 644.65 251.99 436.97 597.49 857.39 458.43 1029.81 439.80 1025.73 594.25 845.39 677.76 1013.44 667.61
00000099 00000013 643.70 248.15 434.56 598.97 856.17 458.36 1027.58 438.13 1023.84 592.72 841.29 675.72 1010.36 664.40
00000100 00000014 633.37 248.71 435.92 598.14 846.38 455.47 1018.40 437.56 1013.80 592.38 827.39 673.72 996.50 664.39
00000101 00000015 628.83 259.85 440.98 594.84 835.69 457.00 1017.10 444.60 1003.40 592.30 823.84 677.08 997.56 670.85
00000102 00000016 633.98 260.43 437.90 595.99 840.10 461.61 1018.35 449.59 1006.74 592.37 828.97 679.57 999.91 673.95
00000103 00000017 633.09 258.93 439.43 595.71 840.64 460.34 1019.41 448.97 1007.87 592.44 829.22 678.12 1000.55 673.06
00000104 00000018 634.31 258.95 439.29 595.55 839.28 460.01 1020.20 446.76 1007.33 591.80 828.92 677.73 1003.27 670.79
00000105 00000019 638.68 260.45 436.87 592.13 842.14 460.92 1022.17 445.83 1010.49 590.16 832.55 678.09 1005.77 669.62
00000106 00000020 636.91 259.75 437.33 593.47 841.10 459.87 1020.36 444.59 1010.25 589.67 830.23 676.63 1003.72 668.19
00000107 00000021 641.15 262.75 432.49 591.41 843.17 463.00 1021.00 447.49 1011.64 589.88 833.07 679.46 1004.81 670.87
00000108 00000022 642.36 267.33 431.76 589.20 843.84 466.65 1020.38 449.54 1011.76 591.55 834.54 682.19 1005.44 672.28
00000109 00000023 641.75 270.70 431.38 589.39 846.46 472.96 1019.85 455.92 1012.34 597.15 836.81 684.07 1006.44 674.05
00000110 00000024 641.26 273.95 431.61 587.00 847.61 475.91 1020.40 460.04 1012.63 602.33 836.91 686.18 1005.18 677.21
00000111 00000025 642.67 279.45 432.38 583.26 849.36 479.50 1021.41 462.97 1012.71 607.23 837.80 688.48 1006.28 678.96
00000112 00000026 643.07 278.47 431.95 585.81 850.64 481.04 1021.36 466.08 1012.29 609.06 838.39 689.05 1006.49 680.74
00000113 00000027 649.73 270.02 426.90 590.14 864.98 479.97 1029.60 461.76 1024.89 610.13 844.49 691.20 1006.58 682.78
00000114 00000028 653.22 264.02 427.53 595.71 866.24 478.96 1033.75 457.77 1027.35 609.58 844.04 690.62 1010.05 679.86
00000115 00000029 649.79 291.03 427.56 571.25 859.39 483.57 1033.64 469.26 1017.57 609.92 839.20 689.65 1008.17 682.67
00000116 00000030 649.07 288.35 428.43 573.67 858.68 485.89 1031.84 471.53 1014.33 609.84 839.02 690.21 1006.84 683.14
00000117 00000031 648.42 290.39 431.03 570.64 857.77 484.01 1031.56 470.47 1010.34 610.19 839.06 688.98 1007.35 682.08
00000118 00000032 639.20 270.11 434.05 588.05 846.17 486.66 1017.03 460.24 1008.58 614.75 835.28 692.92 1000.18 677.65
00000119 00000033 638.33 275.59 436.39 584.21 842.71 484.76 1016.42 461.86 1004.57 615.77 835.03 693.38 1000.27 680.73
00000120 00000034 639.86 296.80 439.01 565.97 836.21 484.46 1017.43 469.91 993.53 611.61 827.49 692.79 1001.68 683.50
00000121 00000035 632.27 277.60 438.88 584.55 831.56 482.75 1011.16 464.22 992.75 614.75 825.19 692.52 994.28 683.23
00000122 00000036 632.77 276.78 439.84 590.64 829.89 484.49 1010.05 465.76 992.77 617.55 824.12 694.82 997.11 685.34
00000123 00000037 634.15 271.51 441.47 600.30 828.72 484.64 1010.66 467.71 989.87 617.71 823.69 697.18 998.31 688.85
00000124 00000038 632.17 287.65 445.39 585.32 823.24 486.45 1011.22 471.46 981.16 612.35 816.03 696.62 997.23 686.41
00000125 00000039 631.62 288.85 444.73 582.91 820.46 483.43 1010.35 469.38 976.82 610.62 815.66 695.79 996.67 685.84
00000126 00000040 632.30 285.46 445.41 583.43 820.04 480.63 1011.85 468.65 974.69 608.26 816.07 692.62 997.76 683.94
00000127 00000041 631.34 282.88 445.20 585.15 816.10 475.49 1011.52 465.11 971.12 604.55 812.93 690.27 998.18 682.79
00000128 00000042 633.13 281.81 448.12 587.50 817.11 472.41 1015.24 470.78 964.67 605.60 812.34 690.17 998.03 689.29
00000129 00000043 638.26 274.31 448.48 592.81 819.28 468.42 1019.04 471.74 964.11 603.15 812.99 687.21 999.51 690.21
00000130 00000044 633.66 255.80 453.28 602.82 829.98 455.58 1017.90 462.19 967.87 597.62 822.10 682.39 993.16 690.09
00000131 00000045 643.32 251.19 445.50 595.73 835.14 453.02 1023.60 459.00 970.96 596.11 833.61 680.88 998.70 687.44
00000132 00000046 644.27 258.59 445.54 573.95 836.27 447.28 1027.50 454.71 972.55 589.62 841.04 674.84 999.61 682.24
00000133 00000047 645.90 250.90 441.72 577.13 837.57 442.65 1028.87 449.36 973.33 583.12 848.98 675.43 998.98 681.51
00000134 00000048 648.64 241.82 440.27 581.56 838.66 435.99 1032.91 442.91 975.42 573.79 851.59 669.50 1001.52 675.00
00000135 00000049 648.67 230.70 438.12 587.70 838.37 425.27 1032.86 435.28 976.28 561.07 852.00 660.62 1005.48 668.18
00000136 00000050 647.14 225.44 438.57 585.84 841.87 418.47 1032.16 424.16 984.95 551.25 855.60 650.51 1013.10 654.97
00000137 00000051 653.76 230.52 438.28 574.09 849.83 414.90 1040.89 418.29 997.40 542.21 864.48 642.29 1024.75 645.26
00000138 00000052 661.48 234.45 437.64 567.05 855.75 403.51 1044.06 406.84 1004.24 532.15 876.05 636.77 1034.89 639.13
00000139 00000053 670.95 220.66 426.66 579.96 859.42 395.25 1043.52 389.74 1018.11 519.28 878.19 630.93 1038.55 626.38
00000140 00000054 674.12 199.03 416.50 594.84 868.04 390.21 1046.67 378.32 1036.53 506.77 884.96 622.28 1039.28 613.56
00000141 00000055 671.60 190.37 413.99 587.86 870.59 384.82 1044.23 371.41 1040.34 498.36 891.00 610.02 1042.13 600.08
00000142 00000056 667.04 168.04 412.47 593.86 858.29 381.62 1035.98 364.94 1033.31 487.61 888.89 600.19 1044.20 586.88
00000143 00000057 659.45 169.45 417.10 588.28 851.39 378.52 1028.27 363.46 1026.30 483.70 885.65 596.25 1039.15 584.18
00000144 00000058 655.88 171.12 414.13 597.93 846.67 379.20 1021.05 366.99 1021.07 486.67 878.00 602.89 1030.73 593.78
00000145 00000059 651.75 186.58 413.78 603.48 844.26 389.94 1019.96 377.68 1016.12 490.53 867.96 615.74 1026.94 606.07
00000146 00000060 650.10 193.28 415.81 593.91 845.14 396.31 1021.50 382.05 1012.91 501.39 868.98 618.48 1027.33 606.82
00000147 00000061 648.44 197.26 415.48 587.42 842.28 399.82 1021.88 387.50 1005.99 506.10 865.66 621.46 1024.78 611.79
00000148 00000062 647.08 202.11 419.33 585.17 840.95 401.93 1021.68 388.69 1002.36 511.32 868.04 628.22 1023.75 617.33
00000149 00000063 647.27 205.71 418.71 580.77 839.22 403.19 1020.26 389.23 999.99 513.05 871.62 633.65 1023.14 621.93
00000150 00000064 647.43 205.89 419.77 581.71 841.38 404.28 1022.13 391.78 1001.89 515.60 874.23 636.83 1023.96 626.18
00000151 00000065 649.11 209.13 419.57 579.46 841.72 407.37 1023.45 392.36 1002.51 521.08 875.57 640.85 1024.73 628.21
00000152 00000066 650.32 200.51 428.99 595.92 850.71 400.47 1034.98 396.05 1004.06 524.18 890.93 643.56 1027.51 638.07
00000153 00000067 653.67 209.87 430.14 595.94 850.09 405.89 1039.24 402.04 1009.72 531.92 889.41 650.48 1032.72 645.53
00000154 00000068 657.71 222.13 428.86 586.06 852.56 409.55 1042.69 406.75 1014.00 536.11 889.23 655.60 1031.85 652.01
00000155 00000069 662.59 226.98 429.37 586.35 855.52 414.48 1045.83 411.29 1015.61 541.67 887.51 659.37 1032.31 655.76
00000156 00000070 668.20 227.91 424.00 592.40 860.45 422.55 1047.63 414.94 1021.80 549.81 885.88 663.43 1034.73 656.85
00000157 00000071 671.99 231.39 421.78 597.09 864.90 427.81 1048.88 416.08 1033.55 552.51 888.28 666.56 1041.29 657.45
00000158 00000072 676.38 236.41 420.07 593.58 873.00 429.45 1051.42 417.72 1042.62 551.39 894.22 665.21 1044.47 656.53
00000159 00000073 683.13 230.96 418.35 597.23 878.92 430.42 1059.21 417.96 1048.38 549.76 901.69 665.13 1051.70 655.74
00000160 00000074 688.21 235.63 419.43 588.10 888.60 431.14 1070.53 419.20 1057.93 551.19 910.69 665.18 1061.21 656.39
00000161 00000075 691.53 239.16 420.79 586.42 894.00 432.34 1073.47 420.68 1060.63 555.70 913.58 665.63 1063.93 657.28
00000162 00000076 692.01 237.64 420.64 588.30 893.95 432.49 1073.43 420.51 1061.11 555.68 912.02 665.47 1063.84 656.91
00000163 00000077 691.14 237.88 420.02 586.58 894.15 432.62 1073.82 420.35 1062.11 555.08 911.75 664.70 1064.17 655.94
00000164 00000078 692.60 237.81 418.99 584.72 893.22 433.88 1074.77 420.09 1064.35 557.13 909.04 664.70 1063.34 655.01
00000165 00000079 693.09 242.96 416.67 583.79 891.38 438.77 1072.34 425.03 1063.71 563.02 904.13 667.41 1060.66 658.20
00000166 00000080 690.16 248.98 416.79 583.20 890.34 440.66 1067.15 429.22 1060.91 565.10 904.33 669.86 1057.71 662.33
00000167 00000081 684.03 270.61 422.23 569.69 887.93 443.08 1062.57 430.08 1051.70 573.06 896.15 678.13 1041.94 669.67
00000168 00000082 676.66 259.63 425.35 578.72 884.08 439.84 1059.96 427.01 1048.36 571.65 888.62 673.78 1038.10 665.69
00000169 00000083 671.85 243.02 419.89 582.41 865.60 436.39 1049.65 423.70 1034.88 563.36 886.41 671.46 1037.25 661.66
00000170 00000084 660.01 243.89 428.87 575.42 861.37 441.06 1044.87 428.90 1021.26 563.51 886.22 669.50 1029.57 659.99
00000171 00000085 649.51 229.31 435.50 589.61 854.14 436.55 1040.84 432.73 1005.75 561.42 878.89 667.17 1022.28 663.95
00000172 00000086 644.45 234.26 430.02 583.86 835.89 430.51 1023.69 427.78 989.72 557.47 853.29 663.73 1008.63 661.52
00000173 DELETE   638.28 237.40 436.13 582.73 822.75 423.33 1018.42 427.97 971.57 555.69 841.86 662.69 999.49 666.30
00000174 00000088 634.61 241.61 435.34 571.89 813.47 415.15 1014.88 423.29 961.54 552.32 832.35 656.53 993.39 662.91
00000175 00000089 636.66 241.02 435.58 573.63 813.85 412.68 1016.32 425.13 958.13 551.24 828.38 655.68 988.53 665.60
00000176 00000090 640.80 249.04 434.80 566.07 816.89 411.65 1020.06 428.39 958.31 552.11 827.98 654.15 990.39 667.73
00000177 00000091 643.54 248.83 434.02 572.22 822.22 415.54 1020.30 434.85 959.57 553.31 828.01 653.42 990.60 669.37
00000178 00000092 637.93 241.09 443.06 586.85 833.56 417.88 1023.20 442.14 961.13 560.42 827.68 656.31 983.94 675.66
00000179 00000093 637.65 244.76 445.82 590.69 832.47 420.70 1023.31 444.79 960.56 565.19 821.12 660.80 981.30 680.36
00000180 00000094 632.95 255.30 449.54 585.42 829.64 430.72 1018.85 453.50 954.88 573.94 818.58 664.46 978.14 683.61
00000181 00000095 632.86 268.41 445.53 576.44 818.04 438.75 1018.47 462.37 953.86 587.11 811.13 670.05 980.07 688.85
00000182 00000096 629.09 282.67 445.06 567.93 813.63 446.64 1014.16 468.22 949.44 594.81 809.07 676.47 979.88 693.42
00000183 00000097 627.52 286.49 442.46 571.53 806.55 452.93 1007.62 468.43 942.07 598.71 809.23 686.37 976.91 698.17
00000184 00000098 623.15 289.02 437.20 566.05 802.18 457.06 1003.61 471.06 938.90 604.51 808.65 692.39 973.21 703.65
00000185 00000099 619.45 285.86 437.97 567.49 799.63 459.58 1002.21 473.45 935.17 608.29 806.28 694.62 969.43 706.06
00000186 00000100 618.15 289.94 439.71 566.33 797.81 463.57 1002.36 474.69 933.86 613.86 804.08 698.24 969.49 707.53
00000187 00000101 615.97 294.72 441.27 562.67 795.88 465.01 1001.30 475.73 932.65 616.51 802.21 700.90 966.80 709.95
00000188 00000102 614.72 294.11 442.35 567.67 794.66 464.64 998.96 473.96 931.40 615.07 803.08 701.89 967.20 709.45
00000189 00000103 616.22 293.99 440.58 567.02 795.14 465.17 999.66 474.01 932.67 615.89 803.98 703.02 968.29 710.14
00000190 00000104 615.97 291.79 439.96 565.13 795.07 464.89 999.28 473.67 931.90 614.45 803.57 700.13 968.34 707.23
00000191 00000105 619.48 290.30 436.44 564.54 799.56 466.17 1001.07 474.03 938.51 612.09 808.53 698.09 971.55 704.53
00000192 00000106 623.42 293.71 434.93 560.70 808.09 471.18 1005.83 473.93 953.08 609.92 818.65 698.14 980.89 699.99
00000193 00000107 633.43 293.00 432.64 563.32 825.38 470.63 1013.98 469.24 973.04 605.69 836.57 700.93 992.34 699.70
00000194 DELETE   639.61 288.56 427.04 565.53 840.71 470.30 1020.64 463.88 992.24 603.40 855.19 704.29 1000.98 699.88
00000195 00000109 645.36 279.39 421.42 566.85 849.83 471.43 1026.61 464.41 1007.13 600.38 870.00 702.94 1010.39 697.97
00000196 00000110 640.23 259.54 427.57 581.87 865.87 463.62 1033.00 459.08 1020.03 594.35 884.33 698.94 1008.26 695.48
00000197 00000111 649.78 247.74 409.99 590.98 862.32 463.49 1033.40 455.86 1025.81 599.29 879.94 694.94 1014.78 689.15
00000198 00000112 644.02 243.35 418.05 597.68 861.89 469.61 1026.79 452.35 1022.91 602.81 879.82 704.75 1002.89 692.85
00000199 00000113 650.51 247.77 407.98 585.87 862.16 462.92 1034.48 454.40 1026.39 601.75 877.09 693.94 1011.26 687.71
00000200 00000114 652.28 253.39 404.06 574.59 862.66 456.40 1035.86 454.50 1025.66 594.42 875.96 686.62 1010.42 685.63
00000201 00000115 650.67 250.01 404.69 578.75 861.91 449.55 1033.02 448.57 1025.93 586.01 872.33 678.98 1011.61 679.02
00000202 00000116 649.47 250.06 404.92 583.20 856.87 447.91 1025.18 447.33 1019.16 583.79 860.53 675.97 1006.08 677.27
00000203 00000117 637.48 258.93 415.47 593.26 848.92 448.60 1012.91 448.32 1009.84 585.33 842.77 683.59 981.55 687.14
00000204 00000118 631.01 262.38 417.66 594.71 848.29 448.11 1006.37 451.66 1006.93 586.88 837.19 683.87 971.26 690.93
00000205 00000119 624.25 261.42 421.69 598.88 844.47 452.30 1002.19 454.43 1003.52 591.05 834.72 687.78 967.74 693.55
00000206 00000120 619.50 263.34 423.17 597.12 838.84 453.72 997.98 453.31 997.53 589.54 829.84 687.28 965.40 690.81
00000207 00000121 616.70 263.85 425.60 592.08 835.15 453.09 996.25 449.19 995.71 587.77 828.79 684.91 966.31 685.43
00000208 00000122 616.98 258.78 423.25 592.37 832.97 449.46 995.68 446.74 993.43 582.31 827.15 680.38 965.60 681.72
00000209 00000123 613.93 261.17 423.44 585.29 828.45 443.81 992.69 439.48 990.93 577.79 821.64 674.70 963.71 674.70
00000210 00000124 616.71 261.25 421.77 578.65 825.41 438.71 995.84 434.73 987.48 570.77 821.65 670.30 968.57 669.92
00000211 00000125 618.71 242.57 418.93 592.62 822.58 435.57 994.90 429.13 991.41 562.97 821.57 661.75 981.33 659.32
00000212 00000126 612.20 238.65 421.91 590.43 816.18 428.19 990.91 424.15 983.21 553.80 816.98 654.21 978.02 653.43
00000213 00000127 608.14 236.09 428.37 592.57 809.79 427.36 989.19 424.48 973.22 551.16 813.13 653.50 978.60 653.36
00000214 00000128 602.46 232.36 430.11 594.80 800.00 427.86 982.31 425.70 962.10 549.56 802.14 654.88 966.97 654.91
00000215 00000129 596.83 234.15 432.56 591.59 792.60 421.66 980.56 427.29 949.16 551.44 793.55 653.10 962.03 659.08
00000216 00000130 593.80 234.98 442.38 591.14 787.60 414.90 980.49 423.81 938.01 552.09 791.15 650.33 962.06 658.22
00000217 00000131 595.01 238.10 442.01 592.92 784.37 413.86 979.67 423.54 932.32 556.79 785.03 652.54 960.08 661.05
00000218 00000132 593.62 243.37 442.86 591.38 783.95 413.63 978.76 428.85 928.01 559.81 780.76 651.83 956.96 664.97
00000219 00000133 595.92 247.59 444.38 587.43 787.03 415.84 980.70 433.72 927.97 560.55 781.25 651.23 957.02 666.72
00000220 00000134 599.01 247.86 445.21 582.17 789.36 418.39 984.08 436.76 928.24 562.80 782.22 650.66 957.40 666.60
00000221 00000135 598.88 246.93 443.63 578.04 788.03 421.88 984.72 441.71 923.44 565.82 781.26 651.93 954.39 668.85
00000222 00000136 599.04 245.16 444.26 580.15 786.21 423.49 985.13 442.18 921.68 567.41 781.20 653.79 955.09 669.51
00000223 00000137 597.89 243.46 445.17 586.78 785.64 424.49 984.34 443.56 920.70 569.92 779.90 657.11 953.16 673.04
00000224 00000138 594.41 248.25 444.62 581.72 782.16 428.36 980.77 446.60 916.28 573.89 776.68 658.40 949.11 673.82
00000225 00000139 595.42 250.96 444.54 577.18 780.71 431.27 982.22 447.55 915.67 576.80 777.18 659.34 951.39 673.38
00000226 00000140 596.76 250.63 445.69 585.60 782.13 433.77 981.23 451.46 914.65 580.56 776.80 662.68 950.62 677.93
00000227 00000141 599.21 260.92 443.40 577.62 790.10 432.76 987.88 453.46 921.97 590.10 779.10 664.77 945.71 683.27
00000228 00000142 598.39 266.08 445.03 572.47 790.04 434.18 990.90 457.39 922.90 594.85 779.81 668.28 946.77 688.58
00000229 00000143 598.77 269.00 444.92 568.35 789.60 435.63 991.73 457.93 923.61 596.58 781.09 669.27 948.66 688.57
00000230 00000144 599.60 271.83 446.19 569.53 790.41 438.46 993.47 460.47 924.90 598.49 782.15 672.02 950.27 690.98
00000231 00000145 599.49 272.06 445.06 570.12 791.09 436.57 993.27 459.05 925.78 598.30 782.97 671.89 949.91 691.20
00000232 00000146 602.92 270.82 442.83 575.04 790.57 438.46 993.27 458.13 926.78 597.15 786.17 677.49 950.09 694.05
00000233 00000147 600.07 270.77 443.69 571.17 789.98 438.04 991.18 458.76 923.54 596.31 790.41 678.96 946.36 696.19
00000234 00000148 599.54 268.22 441.95 570.14 789.60 437.13 990.53 457.60 924.35 594.49 794.06 680.30 945.74 697.01
00000235 00000149 598.36 264.25 441.74 574.54 788.39 437.24 988.84 455.05 923.96 593.52 795.68 683.17 944.71 697.62
00000236 00000150 595.77 265.13 441.99 571.46 786.58 435.28 986.58 453.05 921.28 592.02 790.90 680.31 941.98 694.86
00000237 00000151 594.28 267.90 442.61 561.65 783.45 434.77 987.24 454.27 919.83 589.68 789.16 676.25 943.76 691.67
00000238 00000152 594.19 271.25 443.01 557.77 782.12 436.37 987.01 457.36 917.90 590.59 786.91 677.13 943.69 693.70
00000239 00000153 592.63 275.49 440.79 552.93 779.87 440.79 983.82 460.72 915.59 593.07 785.42 680.29 942.20 695.97
00000240 00000154 596.57 277.77 438.71 562.57 781.46 445.53 986.75 463.06 918.32 601.35 788.56 691.52 942.39 705.51
00000241 00000155 595.96 279.06 441.93 567.94 783.04 449.43 986.60 465.64 918.76 605.19 790.71 696.62 943.18 709.70
00000242 00000156 595.83 277.70 442.03 571.04 785.03 451.98 985.44 466.91 918.91 605.61 791.15 696.00 944.06 708.23
00000243 00000157 598.12 279.09 441.63 572.64 786.10 452.89 987.50 467.88 919.56 607.43 792.22 695.35 945.71 707.61
00000244 00000158 599.90 277.07 441.46 571.36 786.39 452.18 990.28 467.49 921.78 603.48 791.91 689.68 949.92 702.25
00000245 00000159 599.88 278.17 441.74 567.68 785.26 451.09 989.22 467.05 920.66 601.20 791.12 684.82 952.28 697.66
00000246 00000160 600.10 278.54 442.30 565.99 785.29 451.40 990.11 466.78 921.63 600.52 791.36 684.62 953.94 696.92
00000247 00000161 599.67 277.28 442.14 569.63 785.72 449.79 990.61 464.33 923.05 600.99 789.62 685.68 952.80 697.73
00000248 00000162 599.47 281.35 440.57 571.86 785.38 450.58 985.80 463.59 920.28 600.76 790.42 688.63 950.68 699.46
00000249 00000163 598.45 282.89 438.27 571.53 784.29 449.06 982.23 460.88 920.14 598.65 789.43 687.08 950.01 696.97
00000250 00000164 596.69 283.07 437.98 570.28 782.99 448.30 981.16 458.02 921.03 597.45 789.74 687.22 949.65 695.37
00000251 00000165 597.33 281.54 437.36 565.57 785.47 450.55 982.00 459.12 922.05 598.20 793.55 685.76 951.88 692.89
00000252 00000166 598.25 280.67 437.80 559.23 787.48 450.49 985.53 458.29 926.30 598.67 796.10 685.14 953.94 691.61
00000253 00000167 597.04 278.66 437.85 559.42 787.18 448.96 985.43 457.41 926.24 596.50 794.99 682.92 953.31 689.88
00000254 00000168 598.05 279.48 437.82 559.13 787.31 449.68 986.00 457.96 926.04 598.31 796.68 684.62 953.82 691.36
