Video ID: 	yUReYx56Z4A
H: 	1080
W: 	1920
FPS: 	25.0

FRAME INDEX X0 Y0 W H [Landmarks (5 Points)]

00011381 00000000 621.83 214.70 359.01 484.50 745.87 380.72 919.85 390.55 850.87 468.30 756.93 562.97 900.81 572.87
00011382 00000001 621.79 214.50 358.59 482.74 746.34 380.57 920.47 390.49 850.90 468.30 757.21 562.90 900.62 572.91
00011383 00000002 626.04 216.57 355.63 481.40 750.84 379.38 924.56 390.14 856.28 466.64 760.71 561.87 905.03 572.62
00011384 00000003 629.49 211.92 357.48 482.49 763.52 376.30 935.69 390.11 868.28 467.54 776.25 559.54 916.35 571.74
00011385 DELETE   634.55 205.18 360.56 488.23 774.02 376.20 944.77 392.19 879.38 462.42 785.53 556.64 924.30 570.61
00011386 00000005 643.50 206.65 360.40 483.26 782.59 375.16 952.33 390.54 890.57 462.64 796.01 558.13 929.06 571.44
00011387 DELETE   653.22 206.61 356.84 487.36 791.13 374.02 962.19 393.27 899.92 461.24 802.56 558.30 935.66 574.66
00011388 DELETE   660.70 206.75 353.75 487.24 801.60 376.63 968.98 397.34 908.72 467.17 810.22 561.26 939.30 578.70
00011389 DELETE   668.86 209.59 350.05 490.36 808.55 378.86 975.64 400.33 917.51 471.36 817.64 565.05 946.23 583.62
00011390 00000009 671.69 218.55 350.23 488.37 815.79 381.86 981.34 405.87 925.30 476.26 820.84 567.97 950.69 589.04
00011391 00000010 672.41 217.43 351.66 491.34 818.27 383.02 985.06 406.56 929.16 478.99 823.76 571.22 953.46 591.97
00011392 00000011 672.53 221.43 350.64 488.17 816.49 384.02 983.73 407.07 927.97 480.33 822.86 572.29 952.74 592.56
00011393 00000012 669.84 222.37 350.57 484.41 813.48 385.08 980.74 408.60 924.53 480.50 820.27 570.86 949.77 591.23
00011394 00000013 670.29 216.01 346.43 482.43 807.21 384.84 977.79 409.87 917.29 478.34 813.79 566.84 948.24 589.02
00011395 00000014 665.04 211.34 348.97 485.27 801.98 383.48 972.38 407.61 910.59 475.68 807.57 562.91 942.82 584.23
00011396 00000015 661.29 207.97 352.65 487.41 800.15 382.15 968.23 405.94 907.34 471.42 806.60 562.14 937.95 582.59
00011397 00000016 655.63 209.82 355.84 485.84 801.89 380.68 965.03 402.26 906.13 468.33 808.36 560.63 933.76 578.61
00011398 00000017 653.92 211.57 355.25 481.57 801.09 384.04 963.76 405.00 906.54 467.12 808.42 558.58 934.58 576.11
00011399 00000018 656.03 210.93 353.51 480.27 802.00 383.75 965.09 403.44 908.35 467.51 810.23 557.25 938.20 574.01
00011400 00000019 657.95 210.05 353.40 481.48 804.64 383.99 967.62 402.84 911.17 470.13 812.81 559.67 938.92 575.80
00011401 00000020 661.98 211.90 349.68 484.98 807.61 386.43 970.53 406.05 914.29 473.74 815.97 564.33 940.62 581.08
00011402 00000021 663.10 215.26 349.24 486.49 812.51 386.90 973.37 407.45 919.14 477.11 818.67 565.68 943.05 583.38
00011403 00000022 665.25 217.27 348.70 487.02 816.36 388.17 976.12 407.62 924.51 477.42 823.50 568.22 947.19 585.07
00011404 00000023 668.56 217.17 346.62 488.34 818.48 386.59 980.38 407.00 928.15 476.45 824.75 567.97 951.51 586.15
00011405 00000024 671.54 214.78 345.02 488.47 820.09 386.35 982.23 405.16 929.97 476.88 827.26 567.71 954.36 584.93
00011406 00000025 669.06 217.66 347.38 485.84 820.47 386.43 982.69 403.92 931.39 477.30 828.33 568.62 955.00 584.45
00011407 00000026 664.98 211.11 349.88 494.72 817.75 388.96 979.73 405.38 929.21 477.66 827.23 570.21 953.62 585.01
00011408 00000027 661.38 212.51 349.23 491.21 812.82 389.90 973.36 404.59 924.07 476.00 824.82 569.62 949.43 582.51
00011409 00000028 656.05 214.56 349.61 489.78 804.39 388.84 967.73 400.42 917.27 473.89 822.06 569.79 946.90 579.47
00011410 00000029 646.57 210.99 354.82 490.33 794.83 388.34 961.15 393.77 912.73 468.68 818.78 568.27 945.13 572.82
00011411 DELETE   639.94 203.04 353.37 496.44 783.95 388.82 951.25 388.19 903.72 463.46 816.02 568.13 942.56 568.08
00011412 00000031 635.13 203.85 356.43 489.91 775.57 390.62 938.80 384.15 892.61 462.63 812.96 567.93 936.39 563.27
00011413 DELETE   627.38 200.51 353.46 487.10 766.14 387.10 928.04 373.41 884.92 459.72 806.71 563.34 931.36 553.48
00011414 DELETE   619.38 186.34 351.65 496.99 753.97 392.53 917.76 365.37 878.51 457.39 793.91 570.62 928.96 548.73
00011415 00000034 614.52 193.65 354.31 489.99 742.75 396.46 907.16 363.04 869.44 455.52 788.97 570.54 925.70 543.44
00011416 00000035 598.46 192.10 361.56 490.25 729.16 403.59 890.43 359.61 860.84 457.05 784.81 573.40 917.52 537.25
00011417 00000036 582.69 195.82 368.57 484.19 712.46 403.06 872.24 355.10 841.33 458.48 776.82 575.10 899.85 535.13
00011418 00000037 572.31 197.65 373.75 482.59 702.42 401.80 862.62 351.81 830.91 459.49 770.65 575.64 892.54 534.48
00011419 00000038 564.63 192.60 378.65 493.73 693.10 399.85 854.14 352.33 818.31 457.93 765.48 578.65 887.86 539.21
00011420 00000039 551.87 182.59 381.87 508.76 685.59 403.65 842.71 352.69 811.39 454.50 760.77 580.90 880.04 538.74
00011421 00000040 544.04 182.41 385.10 508.90 678.05 409.22 837.15 353.72 806.88 455.47 750.90 580.55 875.60 535.10
00011422 00000041 539.22 177.08 385.41 514.02 672.71 413.03 833.21 354.33 803.68 456.79 744.49 580.77 872.69 533.21
00011423 00000042 535.87 176.97 388.12 520.18 672.02 414.49 830.43 355.98 801.32 456.57 743.62 581.59 869.25 534.75
00011424 00000043 536.65 176.53 386.36 523.49 672.61 413.91 830.88 356.42 801.64 458.52 745.06 583.72 869.60 538.05
00011425 00000044 535.91 173.75 387.20 527.12 673.39 413.20 831.14 355.80 803.14 457.59 747.23 584.10 870.79 538.38
00011426 00000045 540.87 172.28 382.65 526.25 675.83 412.54 832.78 356.46 806.01 458.01 749.81 584.55 873.44 539.92
00011427 00000046 541.95 177.36 383.24 517.97 677.59 411.48 836.14 355.69 807.76 457.98 751.67 584.18 875.62 538.91
00011428 00000047 543.77 180.09 384.07 517.28 680.24 409.47 838.98 356.46 809.38 458.34 753.87 584.37 876.76 541.21
00011429 00000048 540.27 179.28 390.62 525.90 682.56 405.85 837.35 357.45 809.24 458.30 756.55 584.14 874.66 544.24
00011430 00000049 544.50 175.99 390.51 527.67 685.79 403.82 841.82 356.06 812.29 459.41 760.80 584.61 877.92 545.11
00011431 00000050 550.20 171.59 388.04 531.65 686.57 405.38 844.79 356.67 813.90 460.47 762.30 585.20 883.57 544.77
00011432 00000051 554.45 174.09 385.26 527.32 687.56 405.83 848.42 356.21 816.29 461.59 764.76 587.40 886.41 545.85
00011433 00000052 554.00 174.57 387.12 527.24 688.72 405.88 850.27 356.11 817.50 462.38 764.81 587.51 886.10 545.85
00011434 00000053 555.94 176.29 385.27 524.26 689.95 405.38 851.11 356.06 817.57 462.80 765.69 587.03 886.22 545.65
00011435 00000054 554.95 176.42 385.57 525.37 689.71 404.19 850.26 355.38 817.63 461.56 765.47 586.57 885.91 545.67
00011436 00000055 554.03 173.59 386.07 527.53 688.73 403.54 849.07 354.00 817.57 460.39 765.25 587.01 885.41 545.75
00011437 00000056 553.59 172.26 386.15 529.28 688.60 403.30 848.67 354.04 817.60 459.65 765.12 586.74 885.38 545.73
00011438 00000057 553.66 173.20 386.21 529.08 688.55 403.22 849.05 354.54 817.33 460.32 764.38 586.96 884.99 546.43
00011439 00000058 554.93 174.04 385.43 528.84 689.17 403.54 849.43 354.67 817.69 460.82 765.63 587.32 885.89 546.44
00011440 00000059 555.13 176.94 384.63 525.46 689.63 404.28 850.27 355.85 817.80 461.86 765.79 587.46 885.85 546.89
00011441 00000060 554.95 176.38 385.08 526.09 689.68 404.50 850.03 356.60 817.55 462.40 765.56 587.23 885.41 547.13
00011442 00000061 556.23 180.34 383.89 522.33 690.41 404.83 851.53 357.25 817.42 464.03 764.39 587.10 885.06 547.21
00011443 00000062 557.68 183.61 383.27 518.03 690.81 404.40 853.13 357.37 817.57 464.26 763.96 586.51 886.00 546.97
00011444 00000063 558.91 185.96 382.47 515.54 691.41 405.16 853.50 357.42 818.25 464.67 764.97 586.63 886.56 546.47
00011445 00000064 557.63 185.50 382.84 516.90 691.17 404.56 853.74 356.90 818.47 465.02 764.94 586.93 886.28 546.82
00011446 00000065 556.15 183.64 384.58 519.55 691.36 403.78 854.29 356.78 818.90 464.85 764.47 586.35 885.45 546.95
00011447 00000066 558.04 183.17 382.00 518.72 692.15 402.89 854.86 355.81 819.17 465.08 765.43 586.71 885.46 547.33
00011448 00000067 556.21 180.49 383.74 521.57 692.31 401.83 854.02 355.44 819.70 463.80 766.47 586.13 885.25 547.27
00011449 00000068 556.80 181.35 383.46 521.23 692.09 401.60 854.26 355.03 819.32 463.67 766.33 586.21 885.48 547.15
00011450 00000069 558.17 184.58 381.53 517.35 692.61 400.28 855.33 354.58 819.28 463.90 766.16 585.66 884.96 547.41
00011451 00000070 558.31 184.50 381.87 518.52 691.73 400.00 853.97 355.04 817.79 463.10 764.82 585.07 885.58 547.31
00011452 00000071 557.21 184.18 381.83 516.21 691.56 399.05 853.27 354.08 817.45 462.12 764.93 584.18 883.34 546.60
00011453 00000072 556.09 182.68 383.08 517.00 690.14 398.51 851.57 353.04 816.63 460.98 763.32 583.53 883.45 545.74
00011454 00000073 553.92 178.47 383.64 518.26 688.86 397.86 849.83 352.48 815.49 457.12 761.98 581.69 881.35 544.37
00011455 00000074 551.59 180.33 384.16 517.08 687.20 397.71 847.22 350.80 813.62 457.38 761.08 581.92 879.35 543.23
00011456 00000075 550.16 177.72 382.95 517.73 685.58 401.02 844.75 352.65 811.67 458.07 759.34 582.27 878.00 542.47
00011457 00000076 547.87 179.12 382.78 515.18 682.33 405.26 843.97 354.87 810.38 461.11 757.19 586.06 877.38 544.65
00011458 00000077 545.38 179.40 383.92 515.09 678.87 406.44 842.35 355.29 807.59 461.40 754.85 586.55 876.21 544.49
00011459 00000078 537.86 177.97 389.24 516.18 673.45 408.08 838.96 353.84 806.54 461.35 750.42 586.05 874.64 541.63
00011460 00000079 538.39 174.05 384.11 516.15 671.19 406.88 835.62 352.77 803.95 461.34 747.52 586.03 872.08 541.83
00011461 00000080 533.98 170.90 386.14 520.36 669.04 406.06 832.93 353.49 800.97 461.80 744.80 584.82 867.43 542.40
00011462 00000081 533.72 175.74 384.86 516.56 665.83 407.46 831.89 354.64 796.82 462.18 739.29 585.51 864.75 543.37
00011463 00000082 533.56 179.13 385.58 512.94 664.12 407.40 831.39 354.50 794.64 463.17 737.38 586.09 863.73 543.60
00011464 00000083 533.27 174.95 385.57 517.71 664.87 407.93 831.32 355.37 795.97 462.96 737.10 585.77 863.90 543.82
00011465 00000084 534.88 172.83 386.13 519.06 668.47 408.39 832.35 356.23 799.07 463.34 742.86 586.23 866.02 544.19
00011466 00000085 534.40 173.58 389.15 519.05 670.15 407.83 835.39 354.64 802.37 462.27 746.69 586.88 869.46 543.43
00011467 00000086 535.61 173.20 388.34 517.38 670.93 409.58 835.19 355.85 803.62 462.10 747.54 585.82 870.59 542.03
00011468 00000087 537.27 173.61 388.32 516.57 673.49 409.43 837.65 357.13 805.34 462.90 751.46 587.12 871.76 544.06
00011469 00000088 539.02 173.21 387.21 518.40 675.25 410.52 838.48 358.60 806.37 463.06 752.39 587.27 872.85 544.75
00011470 00000089 540.39 171.77 385.79 519.86 676.37 409.37 838.85 358.47 806.31 462.90 752.58 586.64 872.76 544.93
00011471 00000090 539.32 172.67 386.80 522.93 675.78 408.82 838.90 357.87 806.38 463.92 749.91 587.35 872.51 546.04
00011472 00000091 537.79 174.24 389.56 526.34 675.61 408.91 836.82 357.72 804.64 464.87 750.51 587.23 871.21 545.96
00011473 00000092 535.71 175.00 391.05 531.10 676.71 408.02 835.91 360.17 804.54 464.93 755.08 590.66 869.82 551.73
00011474 00000093 536.33 173.93 390.65 532.35 677.22 409.41 833.50 362.17 802.91 466.65 754.59 589.97 867.82 551.73
00011475 00000094 532.77 178.66 394.21 526.30 672.15 413.52 831.26 367.08 796.49 472.52 744.32 589.16 863.82 551.00
00011476 00000095 527.37 185.03 394.16 517.94 662.85 421.51 827.29 371.71 786.91 476.80 730.81 591.02 857.75 550.49
00011477 DELETE   521.67 191.94 396.77 513.31 647.86 423.22 819.11 374.28 774.81 477.64 710.44 591.27 848.60 550.00
00011478 00000097 519.79 201.93 390.39 513.59 644.23 417.33 809.64 377.32 763.98 483.04 705.74 599.12 830.70 565.00
00011479 00000098 515.91 200.11 392.35 510.60 639.77 417.63 807.40 377.63 758.05 487.44 702.54 599.66 828.41 565.35
00011480 00000099 516.41 200.72 392.94 508.74 640.56 419.76 809.12 377.81 760.07 487.68 704.27 600.22 831.33 564.55
00011481 00000100 518.10 203.44 391.13 505.17 643.67 419.88 812.46 378.17 764.80 487.62 706.44 598.37 834.45 562.79
00011482 00000101 520.33 202.74 391.58 509.58 648.23 419.59 820.30 379.03 773.18 486.76 708.75 598.19 841.70 563.72
00011483 00000102 524.96 194.32 390.34 513.37 652.11 420.65 824.93 376.60 779.65 483.83 713.74 595.64 849.97 558.86
00011484 00000103 528.01 189.65 391.15 519.95 659.37 417.68 827.72 377.68 782.04 484.12 721.03 592.96 854.70 560.87
00011485 00000104 529.34 190.26 391.12 521.46 661.75 415.80 827.99 375.62 783.36 482.77 723.52 592.38 854.53 560.22
00011486 00000105 530.99 186.87 388.92 520.35 663.26 416.67 829.62 375.30 785.83 482.90 723.31 590.55 856.39 557.48
00011487 00000106 530.18 186.45 391.04 522.02 663.60 417.86 830.87 374.50 788.38 482.70 723.92 590.48 859.37 555.60
00011488 00000107 529.29 186.23 393.67 523.10 664.25 417.62 830.68 374.20 788.61 483.35 724.61 590.61 859.77 555.59
00011489 00000108 529.49 185.81 394.85 528.03 665.13 415.61 830.23 373.81 787.64 482.70 727.32 591.42 860.13 557.63
00011490 00000109 531.59 189.38 392.31 522.30 667.23 414.96 830.16 375.13 787.88 481.04 728.22 588.04 858.79 555.73
00011491 00000110 533.07 188.70 391.37 519.38 668.70 415.60 833.44 373.85 791.72 481.13 729.42 588.12 861.27 554.28
00011492 00000111 535.80 189.52 388.96 522.05 672.09 414.54 835.99 372.80 795.43 481.83 732.45 590.46 861.71 556.72
00011493 00000112 539.13 197.08 385.72 523.36 676.43 413.91 833.63 375.67 794.97 485.36 737.89 593.92 857.10 563.07
00011494 00000113 541.28 192.04 383.41 528.88 678.61 412.14 835.91 373.94 797.89 484.30 741.21 595.26 858.45 564.38
00011495 00000114 541.85 190.65 385.78 522.18 677.83 410.76 838.38 369.20 799.66 478.86 743.78 591.43 864.05 557.58
00011496 00000115 542.91 191.40 386.69 514.47 676.54 410.55 840.03 365.75 801.44 475.03 742.88 587.71 868.16 551.16
00011497 00000116 540.71 185.70 388.58 516.67 675.85 408.73 839.37 362.67 802.29 468.00 743.75 584.18 868.80 546.54
00011498 00000117 541.40 181.04 388.29 519.39 676.39 406.54 839.94 360.47 802.36 467.09 743.93 583.13 868.89 545.49
00011499 00000118 541.79 179.60 388.85 520.15 677.15 404.15 840.96 359.08 803.03 466.74 744.65 581.97 869.39 545.17
00011500 00000119 542.39 180.29 388.75 519.56 677.79 404.42 841.15 358.71 803.43 465.80 744.69 581.65 869.32 544.31
00011501 00000120 543.78 182.45 388.61 515.85 678.74 404.24 842.67 358.68 803.90 465.98 745.45 581.33 870.23 543.93
00011502 00000121 545.06 182.26 387.92 512.76 679.57 402.39 843.80 357.71 804.99 465.48 746.10 579.71 870.99 542.95
00011503 00000122 545.90 180.03 387.45 513.00 679.87 402.36 844.01 357.79 805.90 464.94 745.98 578.94 872.02 542.31
00011504 00000123 544.83 177.70 389.15 519.01 679.92 402.49 843.72 358.18 805.96 465.01 745.58 578.72 872.73 542.42
00011505 00000124 543.36 177.54 391.15 519.73 679.75 401.43 844.01 357.35 805.91 465.27 745.75 579.17 872.15 543.09
00011506 00000125 543.06 179.76 392.28 522.44 680.38 401.28 843.44 358.16 805.25 464.15 748.84 580.27 872.08 544.71
00011507 00000126 543.79 183.14 391.50 520.77 681.14 401.49 843.97 359.13 806.05 466.31 749.96 582.35 871.85 547.42
00011508 00000127 544.06 181.96 392.11 520.49 680.10 404.46 844.10 360.25 806.67 466.53 749.99 583.10 873.63 546.76
00011509 00000128 544.81 184.06 390.92 518.93 681.98 404.64 844.44 362.50 807.27 466.70 749.66 581.85 872.84 547.20
00011510 00000129 540.01 188.48 392.19 516.65 680.92 411.49 841.87 367.45 807.71 468.24 747.18 583.28 871.12 547.18
00011511 00000130 539.15 186.35 393.08 517.72 680.79 411.61 842.06 367.32 807.98 468.28 746.43 583.09 871.15 546.87
00011512 00000131 541.07 183.63 393.06 519.22 681.33 408.58 842.89 364.86 807.57 466.56 747.83 581.96 871.96 546.17
00011513 00000132 544.21 180.27 390.83 521.00 683.06 404.80 843.92 362.91 807.64 464.67 749.50 580.11 872.16 545.75
00011514 00000133 547.94 176.29 386.51 522.40 684.09 402.59 844.60 361.12 807.87 463.43 750.05 579.78 873.00 545.91
00011515 00000134 548.91 180.15 386.41 519.78 685.25 402.05 845.78 361.42 809.35 464.82 751.21 579.94 873.44 546.74
00011516 00000135 549.41 183.71 387.27 517.98 685.06 399.68 847.41 360.57 808.12 463.78 752.05 579.84 874.36 547.56
00011517 00000136 551.30 184.51 385.33 516.87 686.45 398.08 847.95 358.92 809.65 464.08 753.63 580.06 874.84 547.81
00011518 00000137 552.00 183.11 383.62 518.41 687.11 397.43 847.66 358.77 809.71 463.37 753.35 579.77 874.20 548.09
00011519 00000138 552.36 182.77 383.28 517.40 687.36 397.10 848.14 358.64 809.81 462.68 753.33 579.09 874.16 547.53
00011520 00000139 552.85 181.69 383.29 517.68 687.61 397.70 848.93 357.88 810.85 461.71 754.67 580.04 875.21 547.37
00011521 00000140 556.51 182.86 379.44 516.90 689.13 396.92 850.60 357.81 811.82 463.68 755.37 580.93 876.04 548.95
00011522 00000141 555.83 187.71 382.15 512.44 689.39 397.61 852.26 358.67 812.51 463.32 755.71 581.23 877.02 549.06
00011523 00000142 557.78 188.33 380.43 512.35 689.85 398.12 854.35 359.04 813.64 464.75 756.86 582.43 878.35 550.11
00011524 00000143 556.91 186.68 381.87 513.31 689.66 398.11 854.72 359.17 814.17 463.81 757.61 582.56 878.34 550.27
00011525 00000144 556.91 189.50 381.33 511.36 689.95 397.51 855.14 359.18 814.26 463.75 756.60 581.82 877.97 550.01
00011526 00000145 557.44 186.77 380.36 513.67 690.70 396.10 854.47 357.62 814.13 463.42 757.36 581.30 877.36 549.46
00011527 00000146 556.40 187.71 381.28 513.44 690.50 396.90 854.41 358.01 814.55 463.46 756.91 581.39 877.65 549.25
00011528 00000147 556.30 186.55 381.01 514.25 690.51 397.26 853.78 358.83 813.90 463.11 756.85 581.31 877.13 549.54
00011529 00000148 556.30 185.59 381.02 515.62 690.36 396.81 853.44 358.34 813.77 463.62 756.87 581.60 876.89 549.80
00011530 00000149 556.66 185.55 380.74 515.33 690.52 396.93 853.48 358.50 813.67 463.23 756.81 581.64 876.88 549.91
00011531 00000150 557.67 186.56 380.35 513.27 690.83 396.77 854.60 358.13 814.36 462.38 756.80 581.39 877.64 549.57
00011532 00000151 557.27 187.47 380.78 513.72 691.71 396.42 855.29 358.83 815.35 462.67 756.58 580.73 877.37 549.77
00011533 00000152 556.74 187.23 381.80 515.89 691.88 396.49 856.21 359.41 815.77 463.79 756.26 580.53 877.65 549.89
00011534 00000153 556.38 190.56 383.08 510.99 692.11 396.68 857.41 358.97 817.22 464.24 757.76 580.83 878.76 549.46
00011535 00000154 559.21 190.46 380.06 505.19 692.93 396.59 858.13 358.51 817.82 463.83 759.46 580.68 879.23 549.09
00011536 00000155 560.08 192.25 379.61 500.98 693.18 397.50 859.51 358.57 818.63 464.30 759.45 581.73 879.76 549.48
00011537 00000156 560.58 191.78 379.94 501.34 693.28 397.41 858.67 358.84 817.92 463.82 759.75 580.97 879.83 549.02
00011538 00000157 559.61 193.49 381.44 501.11 692.45 397.41 858.41 358.64 817.61 464.09 757.30 580.09 880.18 548.11
00011539 00000158 557.81 193.17 383.08 503.62 692.12 397.58 858.09 359.10 817.52 464.42 755.98 580.06 879.65 548.32
00011540 00000159 556.75 192.69 384.01 508.26 692.86 395.28 856.92 358.58 816.45 465.64 756.51 579.67 876.45 549.28
00011541 00000160 556.83 193.33 384.64 507.14 692.23 395.64 857.61 357.86 817.33 464.61 757.04 579.90 878.67 548.56
00011542 00000161 558.65 190.79 382.52 504.91 692.18 396.81 857.27 356.15 817.71 462.83 759.14 580.08 880.01 546.33
00011543 00000162 556.81 189.82 384.06 507.76 692.28 397.26 856.98 356.93 818.62 461.75 758.06 579.10 879.60 545.66
00011544 00000163 556.57 187.72 383.79 510.80 692.30 396.55 856.69 356.97 818.34 461.03 757.98 578.84 879.29 545.95
00011545 00000164 557.15 189.98 383.67 507.01 692.80 396.13 857.37 356.68 818.80 461.79 758.54 578.59 879.67 545.84
00011546 00000165 559.39 188.78 381.65 505.24 693.60 395.91 857.95 356.06 818.94 461.67 759.08 578.45 879.75 545.42
00011547 00000166 559.38 188.62 382.30 503.89 693.40 395.04 857.40 354.64 818.19 460.85 759.24 576.84 879.72 543.43
00011548 00000167 559.31 190.59 382.84 498.93 691.87 395.40 857.38 354.55 817.60 461.03 759.03 576.38 880.51 542.51
00011549 00000168 559.74 190.47 381.76 496.79 691.38 396.05 857.11 354.65 817.31 460.21 758.23 575.93 880.64 541.65
00011550 00000169 560.39 186.55 379.12 503.13 691.71 394.98 854.40 354.83 815.13 459.81 757.99 575.78 878.73 542.52
00011551 00000170 557.77 183.15 380.14 514.06 691.36 394.37 852.69 355.56 813.99 460.42 757.48 577.69 877.25 545.64
