Video ID: 	wxH9rwKsk0g
H: 	2160
W: 	3840
FPS: 	24.0

FRAME INDEX X0 Y0 W H [Landmarks (5 Points)]

00023864 00000000 1626.15 406.75 468.76 696.44 1843.60 680.73 2031.02 711.99 1976.54 825.61 1826.53 925.97 1977.25 949.64
00023865 00000001 1634.71 404.66 472.14 707.27 1851.95 679.78 2042.79 718.04 1980.97 827.35 1823.94 927.52 1977.78 958.11
00023866 00000002 1638.25 403.43 471.38 705.07 1850.06 678.09 2039.54 717.58 1971.38 830.70 1818.63 924.69 1968.51 956.78
00023867 00000003 1634.63 408.44 473.56 695.36 1839.13 678.07 2033.79 719.91 1955.57 831.06 1807.22 925.09 1962.31 959.03
00023868 00000004 1629.23 407.91 473.90 691.60 1826.90 683.59 2024.76 723.69 1937.68 836.99 1798.66 931.73 1954.04 963.63
00023869 00000005 1622.36 422.67 470.18 676.12 1814.02 692.19 2011.03 735.88 1917.85 857.46 1782.67 946.97 1939.72 980.28
00023870 00000006 1616.95 430.39 473.16 667.73 1797.61 704.69 2003.67 747.76 1900.61 869.14 1772.78 963.42 1929.99 996.51
00023871 00000007 1613.77 443.81 471.98 683.59 1781.18 722.50 1990.28 768.67 1882.61 897.90 1756.12 978.93 1916.14 1014.65
00023872 DELETE   1605.09 454.74 475.43 702.13 1767.45 744.58 1971.73 786.11 1862.80 921.31 1742.21 1004.32 1902.47 1036.68
00023873 00000009 1593.80 460.30 477.24 718.95 1753.86 757.83 1960.79 797.87 1852.58 935.46 1727.61 1018.12 1893.73 1050.72
00023874 00000010 1584.99 468.95 481.96 721.07 1742.69 764.48 1955.70 809.16 1841.61 943.53 1717.33 1027.34 1886.43 1063.75
00023875 00000011 1577.32 472.39 483.64 710.66 1736.95 769.78 1952.26 818.58 1838.81 946.60 1711.96 1025.90 1878.09 1065.55
00023876 00000012 1575.96 476.06 484.90 708.53 1735.06 773.47 1950.29 823.34 1834.26 950.97 1709.67 1030.40 1873.57 1070.49
00023877 00000013 1573.71 471.24 486.46 723.23 1730.57 776.74 1950.04 827.78 1831.20 956.22 1703.31 1035.42 1869.16 1076.90
00023878 00000014 1572.73 482.14 478.44 713.53 1727.16 778.11 1943.28 825.23 1822.92 959.25 1694.77 1045.30 1872.71 1083.37
00023879 00000015 1566.13 479.52 478.95 713.64 1713.02 781.37 1933.24 825.89 1806.76 964.62 1684.67 1047.83 1864.25 1083.76
00023880 00000016 1559.22 488.35 481.35 708.01 1701.77 786.39 1921.51 828.22 1795.04 965.13 1678.29 1049.71 1856.04 1083.52
00023881 00000017 1555.04 479.23 481.75 731.07 1692.97 787.48 1914.33 825.85 1786.25 967.12 1673.78 1047.59 1850.43 1079.50
00023882 00000018 1548.60 482.71 483.36 732.36 1689.06 786.95 1908.84 824.78 1782.35 967.84 1669.11 1042.49 1852.40 1073.44
00023883 00000019 1541.24 484.34 485.90 731.16 1686.60 786.34 1904.78 826.09 1781.06 967.03 1663.52 1035.47 1849.15 1067.87
00023884 00000020 1538.23 481.69 482.96 728.32 1684.24 785.51 1900.96 826.68 1779.91 965.00 1658.33 1027.46 1846.37 1061.20
00023885 00000021 1535.64 479.79 484.72 723.92 1682.71 781.94 1899.40 825.95 1778.88 962.65 1654.25 1019.92 1844.17 1055.62
00023886 00000022 1533.42 485.69 483.66 719.08 1681.95 781.60 1896.69 826.34 1776.41 958.82 1650.93 1014.63 1843.16 1051.15
00023887 00000023 1533.32 483.79 482.83 718.60 1680.72 779.13 1896.32 825.97 1774.38 956.18 1647.57 1010.02 1844.07 1048.28
00023888 00000024 1532.78 490.45 482.55 712.11 1681.29 779.28 1895.37 824.98 1774.88 954.45 1647.93 1010.15 1844.27 1047.69
00023889 00000025 1532.31 486.25 483.78 716.26 1679.96 778.59 1895.59 824.74 1773.65 952.78 1647.53 1009.28 1843.59 1047.20
00023890 00000026 1532.13 488.69 480.60 706.40 1677.03 778.50 1893.45 821.85 1774.25 952.93 1647.48 1011.07 1841.42 1046.72
00023891 00000027 1530.78 487.57 479.63 700.83 1674.78 778.17 1891.20 819.83 1772.25 952.66 1649.12 1010.57 1839.83 1044.42
00023892 00000028 1529.49 489.03 479.26 693.06 1672.89 776.57 1889.36 817.44 1771.15 948.95 1647.29 1011.20 1836.42 1044.87
00023893 00000029 1527.77 486.36 478.74 694.42 1669.51 774.50 1887.06 815.43 1768.45 949.47 1645.79 1010.67 1834.95 1044.11
00023894 00000030 1525.23 492.03 478.58 686.74 1667.72 774.12 1885.31 814.95 1765.56 950.06 1644.02 1011.83 1833.16 1045.09
00023895 00000031 1524.63 484.17 479.80 698.14 1664.57 775.29 1884.17 816.52 1764.17 949.68 1642.76 1012.65 1831.04 1046.37
00023896 00000032 1524.48 488.81 479.49 692.39 1664.37 775.27 1883.26 815.41 1763.08 949.48 1642.78 1013.73 1829.90 1046.73
00023897 00000033 1523.35 489.98 480.15 688.78 1663.60 775.91 1882.85 815.56 1762.16 949.23 1641.94 1010.46 1832.00 1042.79
00023898 00000034 1521.02 493.95 482.61 684.68 1664.68 777.67 1880.54 818.70 1760.55 951.01 1641.10 1006.95 1829.31 1040.03
00023899 00000035 1519.52 485.03 484.56 696.02 1662.14 786.57 1874.70 829.89 1754.75 951.00 1637.13 1001.60 1824.83 1036.37
00023900 00000036 1516.75 485.43 486.90 691.98 1655.63 789.95 1871.56 835.11 1746.82 945.36 1630.00 996.63 1820.25 1033.12
00023901 00000037 1517.25 477.64 484.99 696.09 1650.28 786.24 1865.23 837.42 1735.25 941.93 1622.78 991.44 1811.06 1031.99
00023902 00000038 1518.98 478.30 485.73 689.29 1647.11 776.61 1863.01 836.89 1726.16 938.90 1617.41 989.40 1798.41 1037.18
00023903 00000039 1522.13 468.46 491.09 693.09 1651.43 769.26 1864.10 831.36 1724.35 930.36 1623.26 994.97 1787.46 1044.46
00023904 00000040 1526.26 463.41 492.05 697.90 1656.72 766.53 1868.62 826.73 1729.19 925.37 1628.64 994.91 1792.73 1043.04
00023905 00000041 1528.92 459.95 498.32 697.72 1662.78 767.69 1874.51 827.12 1734.49 924.78 1633.33 997.40 1792.72 1044.84
00023906 00000042 1531.77 461.63 502.81 699.26 1669.85 768.73 1882.09 829.03 1740.08 926.73 1637.25 999.79 1797.21 1048.19
00023907 00000043 1537.24 459.92 501.51 702.16 1671.94 769.87 1888.57 832.27 1745.36 933.47 1639.94 1001.09 1802.68 1051.12
00023908 00000044 1537.23 463.08 507.05 707.68 1674.86 772.83 1889.24 836.38 1744.92 935.06 1639.82 1004.07 1802.78 1055.23
00023909 00000045 1539.20 461.29 507.31 715.25 1674.78 777.82 1889.26 842.45 1744.65 941.58 1640.85 1006.36 1802.71 1058.39
00023910 00000046 1542.91 471.57 493.88 703.73 1675.89 784.56 1886.26 844.46 1740.27 936.64 1634.13 993.79 1800.43 1045.86
00023911 00000047 1543.25 472.72 499.57 693.10 1676.48 791.36 1891.54 848.82 1747.00 946.96 1644.95 1001.68 1803.97 1050.09
00023912 00000048 1545.22 476.63 500.14 691.77 1682.48 796.68 1893.30 853.28 1751.75 951.06 1650.15 1004.31 1807.15 1051.88
00023913 00000049 1549.50 483.38 501.17 698.41 1687.19 794.39 1895.34 853.29 1760.58 956.03 1656.69 1011.12 1808.21 1059.21
00023914 00000050 1551.32 479.99 502.81 685.68 1690.10 795.66 1900.48 853.62 1763.09 960.55 1662.56 1014.65 1812.57 1060.70
00023915 00000051 1548.48 476.27 506.15 700.79 1690.24 793.79 1900.71 855.17 1762.51 962.41 1658.40 1018.76 1808.45 1067.83
00023916 00000052 1546.01 484.21 510.25 674.20 1690.36 791.99 1897.77 855.41 1756.97 952.21 1652.45 996.46 1805.88 1046.85
00023917 00000053 1540.09 482.46 526.26 694.74 1686.99 790.18 1897.12 859.85 1747.99 955.69 1643.63 999.20 1798.25 1054.19
00023918 00000054 1538.13 478.29 520.41 699.41 1687.55 793.03 1896.38 858.83 1755.62 962.69 1647.10 1010.30 1796.22 1062.50
00023919 00000055 1538.46 480.91 517.74 710.91 1686.52 793.28 1894.99 859.44 1751.54 959.28 1646.04 1016.32 1798.01 1070.04
00023920 00000056 1536.62 474.46 522.73 722.89 1683.51 793.32 1891.17 855.22 1749.45 953.93 1644.99 1016.42 1801.64 1067.61
00023921 00000057 1539.33 481.37 506.92 715.27 1682.00 792.67 1888.12 852.93 1750.77 949.65 1648.07 1017.80 1801.13 1068.32
00023922 00000058 1534.61 476.66 510.34 711.81 1678.19 794.22 1888.27 851.73 1748.83 944.33 1642.78 1015.72 1798.72 1063.98
00023923 00000059 1534.39 472.60 513.22 711.57 1676.15 792.48 1890.91 847.78 1749.67 938.96 1642.32 1014.51 1802.50 1061.12
00023924 00000060 1537.48 466.68 511.91 713.66 1676.41 790.58 1892.53 843.11 1750.93 934.91 1645.49 1013.03 1808.33 1057.21
00023925 00000061 1539.45 464.39 517.67 718.76 1681.13 785.88 1897.31 840.65 1753.91 936.31 1650.72 1012.98 1816.08 1058.88
00023926 00000062 1544.78 460.31 510.61 716.70 1681.68 783.69 1898.52 839.72 1757.73 937.86 1653.03 1012.07 1816.15 1058.07
00023927 00000063 1546.56 463.10 506.35 716.84 1683.34 782.07 1902.22 839.23 1762.10 936.38 1654.93 1013.25 1820.70 1060.37
00023928 00000064 1549.09 466.85 506.85 713.70 1687.03 780.89 1905.95 839.51 1765.03 936.73 1658.74 1013.57 1826.46 1061.93
00023929 00000065 1554.17 459.95 504.39 719.45 1691.13 780.54 1908.40 839.49 1769.54 933.19 1661.82 1012.45 1825.42 1060.58
00023930 00000066 1557.57 462.50 504.66 715.99 1693.92 780.12 1909.34 838.76 1770.33 932.10 1665.16 1010.72 1828.02 1058.63
00023931 00000067 1561.74 460.56 503.57 711.65 1700.09 777.30 1913.09 836.56 1778.79 931.23 1670.44 1008.88 1826.22 1056.58
00023932 00000068 1566.56 462.46 500.04 717.30 1702.39 777.85 1916.62 836.33 1782.83 926.66 1673.51 1011.67 1829.08 1059.05
00023933 00000069 1568.16 465.99 498.40 717.25 1706.94 778.58 1919.76 840.24 1787.71 928.79 1676.18 1009.58 1830.52 1059.52
00023934 00000070 1569.61 462.59 504.99 716.94 1711.78 777.86 1924.78 843.68 1790.16 931.66 1677.90 1000.81 1834.68 1053.65
00023935 00000071 1570.38 468.54 506.58 694.50 1717.81 779.16 1931.88 845.82 1797.08 934.98 1681.81 997.04 1839.39 1049.74
00023936 00000072 1572.64 473.28 503.21 685.58 1717.35 782.22 1933.41 847.33 1797.49 935.60 1682.72 998.84 1839.01 1050.44
00023937 00000073 1572.08 473.16 503.01 680.91 1717.29 779.66 1933.45 844.55 1797.32 932.37 1683.02 1000.49 1837.65 1051.31
00023938 00000074 1575.50 466.90 500.10 686.11 1718.81 778.97 1932.29 841.66 1797.56 925.26 1685.92 1001.90 1836.87 1050.85
00023939 00000075 1576.06 464.84 499.14 685.96 1718.21 772.85 1929.76 837.56 1794.99 921.28 1684.31 997.14 1835.70 1047.69
00023940 00000076 1575.04 465.45 500.03 683.87 1718.32 769.06 1927.64 832.48 1792.70 914.88 1683.61 992.94 1834.49 1042.81
00023941 00000077 1576.23 467.33 497.64 672.62 1718.24 765.28 1930.36 828.29 1795.41 915.46 1685.55 991.94 1836.62 1041.26
00023942 00000078 1577.69 460.61 497.08 677.83 1723.29 764.89 1933.38 827.40 1799.24 910.98 1688.19 990.17 1839.25 1038.91
00023943 00000079 1577.01 465.86 499.22 671.53 1725.64 764.67 1936.00 828.75 1802.66 913.79 1689.39 989.81 1840.50 1039.81
00023944 00000080 1576.85 466.17 499.91 665.58 1727.85 764.58 1934.48 829.66 1802.75 913.42 1689.45 984.96 1836.44 1035.23
00023945 00000081 1570.56 457.53 505.20 674.07 1725.07 763.41 1940.65 827.37 1804.09 918.61 1681.67 981.51 1829.54 1033.13
00023946 00000082 1571.35 455.49 504.95 676.55 1724.67 763.69 1941.04 827.98 1803.15 917.36 1681.24 979.93 1830.21 1032.06
00023947 00000083 1568.92 455.18 507.26 685.17 1723.32 762.97 1939.95 827.47 1800.36 914.34 1677.07 977.24 1831.84 1030.33
00023948 00000084 1568.52 459.42 506.51 677.78 1723.06 763.93 1942.15 825.99 1803.24 913.61 1681.71 977.28 1839.68 1028.67
00023949 00000085 1567.25 457.28 507.47 677.46 1723.17 763.13 1942.01 826.66 1803.80 915.58 1679.63 973.78 1837.08 1026.18
00023950 00000086 1568.27 455.99 505.57 674.26 1722.73 762.78 1943.30 826.03 1804.89 916.69 1679.68 974.01 1838.25 1026.10
00023951 00000087 1567.09 457.37 505.23 679.62 1721.14 763.65 1942.43 825.77 1804.23 915.10 1679.00 975.08 1841.19 1026.85
00023952 00000088 1567.32 458.79 505.49 677.04 1721.37 762.57 1941.97 826.47 1803.63 915.88 1678.36 976.27 1837.51 1029.00
00023953 00000089 1566.63 459.93 504.65 675.75 1720.60 762.36 1941.46 827.50 1803.20 916.47 1676.70 976.17 1835.64 1029.76
00023954 00000090 1565.70 457.02 506.67 680.75 1719.88 762.56 1940.62 828.38 1801.56 916.93 1674.63 976.93 1833.05 1030.96
00023955 00000091 1565.70 457.54 505.46 681.39 1719.97 763.67 1941.16 829.43 1802.52 917.28 1674.68 977.42 1834.65 1031.76
00023956 00000092 1565.90 457.67 505.09 680.89 1720.36 764.06 1940.81 828.01 1803.63 918.32 1676.87 977.48 1837.02 1030.55
00023957 00000093 1566.15 458.92 504.52 680.84 1720.39 763.55 1940.40 828.31 1802.45 919.29 1675.95 977.48 1838.22 1031.39
00023958 00000094 1567.04 462.06 503.58 677.25 1721.95 764.69 1940.32 830.47 1803.87 921.05 1676.63 977.06 1837.52 1031.70
00023959 00000095 1568.58 466.57 503.51 675.47 1725.46 766.26 1942.46 832.32 1808.77 922.05 1680.35 977.98 1839.54 1032.86
00023960 00000096 1567.72 462.46 509.03 683.01 1726.84 765.67 1943.96 832.73 1807.58 921.48 1679.36 978.18 1840.12 1033.95
00023961 00000097 1570.99 467.89 507.44 675.10 1732.18 764.83 1946.60 835.78 1810.65 924.78 1681.15 977.27 1840.03 1035.78
00023962 00000098 1574.97 468.19 505.82 678.87 1736.62 766.40 1949.74 837.93 1816.35 925.44 1682.72 977.49 1845.16 1037.05
00023963 00000099 1575.10 471.74 516.87 686.31 1742.71 771.09 1957.03 843.71 1821.14 926.25 1685.40 978.75 1852.01 1039.89
00023964 DELETE   1590.09 474.75 514.32 684.43 1764.09 777.29 1976.61 848.44 1851.18 934.64 1705.42 984.44 1873.04 1044.55
00023965 DELETE   1608.34 474.27 504.36 698.58 1795.26 787.66 2010.22 855.67 1891.09 952.20 1729.57 989.31 1910.70 1048.23
00023966 DELETE   1622.73 484.19 512.03 692.59 1830.36 787.71 2026.87 860.97 1925.51 954.16 1752.53 981.62 1925.34 1043.65
00023967 00000103 1626.25 475.24 510.27 701.32 1835.83 775.85 2036.68 847.65 1937.10 946.50 1759.22 976.58 1939.53 1037.83
00023968 00000104 1628.16 468.68 507.79 693.67 1833.32 763.10 2034.89 836.11 1933.49 931.87 1761.37 961.99 1939.50 1023.56
00023969 00000105 1627.59 466.99 502.97 683.82 1829.88 749.67 2031.00 829.56 1925.86 919.69 1754.83 950.18 1932.56 1017.27
00023970 00000106 1624.63 464.52 506.61 682.97 1827.77 738.50 2027.73 825.04 1918.55 913.28 1747.93 942.37 1924.91 1014.46
00023971 00000107 1623.32 461.09 508.68 686.35 1824.56 734.19 2026.50 822.74 1914.56 908.08 1744.11 938.64 1923.27 1012.44
00023972 00000108 1624.79 462.52 505.56 686.98 1824.49 736.56 2026.47 822.38 1916.92 910.06 1746.49 942.36 1926.48 1014.21
00023973 00000109 1627.30 459.01 501.94 690.47 1823.73 735.88 2024.32 818.82 1916.56 909.29 1747.03 941.98 1927.36 1011.60
00023974 00000110 1626.95 455.45 501.00 689.57 1822.14 733.37 2024.09 815.78 1915.16 907.20 1747.48 944.57 1923.13 1013.53
00023975 00000111 1743.24 395.46 709.46 980.64 2006.02 792.28 2304.28 901.13 2126.79 1023.09 1920.26 1084.57 2194.64 1178.70
00023976 00000112 1741.94 398.43 707.14 971.69 2003.62 789.12 2303.78 897.26 2123.41 1017.57 1917.53 1081.03 2193.83 1174.03
00023977 00000113 1741.28 397.39 706.37 968.31 2000.22 788.36 2299.76 893.20 2119.67 1013.65 1916.67 1079.62 2190.59 1169.50
00023978 00000114 1740.21 395.81 705.45 971.07 1998.21 785.44 2297.26 892.98 2117.27 1008.67 1917.58 1080.97 2187.95 1172.41
00023979 00000115 1738.85 387.21 702.11 980.50 1993.86 786.10 2292.27 890.64 2114.44 1011.64 1916.88 1084.21 2187.47 1173.02
00023980 00000116 1735.13 383.90 704.30 987.91 1989.85 783.44 2289.27 886.64 2113.06 1009.62 1912.77 1088.76 2183.02 1176.15
00023981 00000117 1728.18 378.24 708.40 995.87 1984.49 780.46 2284.79 884.25 2109.36 1000.84 1909.68 1089.95 2178.77 1177.33
00023982 00000118 1725.84 372.66 706.46 1010.44 1976.93 780.76 2279.26 876.95 2104.30 998.89 1909.94 1100.40 2176.18 1181.29
00023983 00000119 1720.93 365.48 704.60 1027.25 1967.26 778.09 2267.03 874.13 2093.63 1002.28 1899.81 1107.92 2161.92 1188.97
00023984 00000120 1706.14 362.84 710.00 1030.41 1956.63 778.62 2256.31 871.67 2085.54 1008.64 1883.21 1112.74 2147.08 1191.15
00023985 00000121 1695.18 364.87 712.47 1023.42 1945.53 779.01 2245.17 869.73 2075.61 1009.67 1872.37 1112.83 2134.69 1188.77
00023986 00000122 1679.99 361.83 716.01 1026.19 1931.79 777.45 2231.23 867.35 2065.57 1009.82 1861.57 1109.82 2123.85 1184.67
00023987 00000123 1673.92 366.78 710.30 1023.83 1931.34 775.63 2225.87 862.65 2057.90 1013.78 1862.71 1103.72 2120.15 1180.40
00023988 00000124 1682.52 365.12 709.37 1037.47 1908.21 778.38 2217.82 860.07 2050.99 1010.56 1856.53 1107.71 2136.96 1180.18
00023989 00000125 1684.27 365.07 706.73 1052.86 1906.62 775.65 2214.37 855.88 2044.17 1006.26 1851.67 1113.64 2129.57 1184.56
00023990 00000126 1677.54 365.36 705.80 1053.68 1897.66 774.32 2207.34 855.18 2033.35 1001.31 1837.84 1110.22 2124.13 1181.95
00023991 00000127 1671.87 368.44 701.52 1046.72 1886.68 773.91 2196.36 858.18 2017.83 994.33 1829.51 1109.60 2111.13 1182.91
00023992 00000128 1664.15 376.92 704.69 1025.04 1876.69 772.79 2186.85 859.54 2001.52 991.79 1821.12 1106.88 2095.79 1182.17
00023993 00000129 1666.13 379.12 697.10 1020.52 1869.38 782.40 2170.11 871.69 1984.10 999.93 1817.92 1109.81 2081.50 1186.30
00023994 00000130 1665.59 381.32 685.55 995.23 1867.69 793.32 2156.38 892.60 1974.29 1011.66 1810.85 1110.18 2052.48 1194.57
00023995 00000131 1659.30 389.49 685.03 986.86 1853.68 797.40 2149.94 901.27 1952.02 1011.61 1798.35 1106.04 2053.08 1193.45
00023996 00000132 1651.79 391.36 684.71 988.91 1837.98 799.55 2140.82 897.10 1934.65 1013.16 1787.98 1109.29 2054.54 1191.23
00023997 00000133 1640.62 376.61 683.32 997.47 1820.15 809.00 2129.37 893.44 1924.45 1025.66 1760.38 1106.56 2033.81 1176.23
00023998 00000134 1647.18 394.01 679.04 982.65 1825.87 802.15 2126.28 903.33 1911.62 1012.02 1774.57 1105.90 2038.55 1190.06
00023999 00000135 1642.59 393.81 681.50 979.58 1825.01 801.92 2123.89 907.83 1908.54 1011.40 1770.38 1101.41 2032.67 1189.38
00024000 00000136 1633.06 381.12 688.61 981.37 1809.52 810.56 2112.11 900.12 1896.32 1021.97 1744.84 1095.71 2010.06 1168.85
00024001 00000137 1630.43 381.45 686.24 986.40 1799.81 813.23 2102.12 899.05 1884.99 1025.26 1740.04 1096.77 2009.19 1166.92
00024002 00000138 1626.05 379.28 677.81 985.29 1787.25 816.91 2087.88 900.84 1870.67 1034.97 1731.87 1098.65 1999.00 1166.57
00024003 00000139 1613.98 381.41 678.34 979.40 1772.37 817.20 2073.20 900.75 1854.57 1038.29 1718.66 1103.26 1982.73 1169.97
00024004 00000140 1598.38 383.22 682.08 972.54 1759.67 817.44 2062.21 900.96 1841.93 1039.10 1707.73 1099.49 1975.58 1165.75
00024005 00000141 1592.88 384.56 687.81 974.13 1757.47 816.01 2061.26 901.16 1838.35 1035.74 1702.04 1099.42 1972.00 1166.94
00024006 00000142 1604.06 387.66 685.72 962.87 1770.30 811.24 2071.92 902.97 1846.71 1035.47 1708.76 1092.24 1974.51 1164.87
00024007 00000143 1623.82 383.52 683.17 969.67 1786.69 811.83 2088.13 903.21 1864.29 1030.18 1722.95 1093.45 1984.53 1166.19
00024008 00000144 1628.62 381.82 688.17 968.03 1794.91 809.43 2100.02 898.77 1877.07 1025.36 1735.64 1092.01 2003.96 1163.52
00024009 00000145 1624.42 378.51 681.79 967.86 1791.52 803.74 2095.38 889.75 1880.80 1018.81 1736.77 1090.49 1996.90 1159.46
00024010 00000146 1622.97 376.54 681.40 967.59 1785.50 811.01 2083.47 894.46 1864.77 1024.32 1729.12 1092.86 1984.40 1159.45
00024011 00000147 1618.15 371.62 677.92 970.65 1783.82 806.91 2083.03 889.35 1869.96 1018.78 1729.21 1095.35 1980.24 1162.19
00024012 00000148 1623.91 376.63 680.42 972.33 1784.91 814.26 2087.30 894.60 1870.64 1024.84 1732.27 1100.06 1989.46 1164.28
00024013 00000149 1621.04 373.55 677.91 973.42 1785.29 807.77 2092.62 889.53 1880.83 1019.70 1732.22 1101.14 1989.93 1167.76
00024014 00000150 1622.97 370.96 684.20 980.79 1786.61 810.76 2087.98 892.78 1870.62 1022.83 1730.73 1098.07 1987.75 1163.66
00024015 00000151 1624.43 362.32 676.62 986.02 1786.11 801.46 2089.87 883.58 1877.81 1013.84 1733.40 1097.11 1982.53 1163.97
00024016 00000152 1627.53 368.04 686.39 998.52 1792.85 804.40 2093.32 882.41 1879.90 1012.18 1738.35 1099.81 1996.19 1164.08
00024017 00000153 1630.20 368.12 690.40 993.04 1798.22 801.75 2103.46 879.90 1886.62 1006.63 1745.28 1098.68 2006.58 1163.20
00024018 00000154 1630.45 363.85 686.52 991.39 1802.15 801.67 2104.68 879.35 1891.19 1004.05 1747.58 1101.81 1999.66 1165.65
00024019 00000155 1627.05 363.07 693.96 977.11 1790.54 801.68 2098.80 873.85 1879.38 1003.45 1745.84 1106.39 1994.84 1164.49
00024020 00000156 1621.86 355.66 683.18 985.17 1778.96 793.11 2079.72 869.98 1862.97 1006.45 1733.33 1103.75 1967.66 1165.09
00024021 00000157 1617.05 356.73 691.43 991.31 1774.91 798.57 2074.83 865.20 1851.41 994.89 1729.11 1114.21 1964.08 1167.29
00024022 00000158 1626.87 348.96 683.78 986.52 1781.38 795.55 2078.60 859.29 1855.63 992.06 1742.53 1121.65 1963.60 1171.09
00024023 00000159 1634.56 346.20 679.73 965.87 1780.48 788.29 2083.65 856.54 1862.58 996.18 1747.42 1119.24 1957.07 1172.30
