Video ID: 	N9QC0zecRFs
H: 	1080
W: 	1920
FPS: 	29.97002997002997

FRAME INDEX X0 Y0 W H [Landmarks (5 Points)]

00022818 00000000 749.12 205.55 375.13 509.39 834.09 402.82 1000.29 387.58 907.08 466.75 863.54 591.10 992.88 580.54
00022819 DELETE   752.89 211.39 372.68 513.83 834.40 414.21 1003.27 400.59 905.93 482.98 865.14 604.39 996.24 595.01
00022820 00000002 748.63 225.02 372.21 528.53 833.44 424.39 1006.64 407.81 904.15 483.97 862.09 619.53 988.01 605.78
00022821 00000003 748.51 224.70 372.45 528.24 832.89 424.46 1006.49 407.87 903.93 483.57 861.69 618.90 987.94 605.12
00022822 00000004 749.00 217.29 378.96 534.96 824.93 424.02 1005.92 408.18 906.08 504.10 856.84 629.09 993.75 617.27
00022823 00000005 749.30 218.27 376.06 534.05 821.91 428.33 1004.92 415.49 901.47 510.22 851.44 629.75 994.46 620.09
00022824 00000006 748.29 220.49 375.11 536.31 821.47 429.70 1000.65 418.04 899.65 513.02 849.23 629.10 989.78 620.70
00022825 00000007 745.56 220.55 377.13 540.10 818.29 431.84 998.30 420.42 895.74 513.49 843.93 628.10 992.09 619.82
00022826 00000008 745.63 221.14 376.92 539.41 818.20 431.83 998.59 420.51 895.77 513.78 843.78 628.18 992.40 619.98
00022827 00000009 743.48 216.20 375.50 539.68 815.99 431.00 995.87 420.49 893.67 513.24 840.70 625.14 990.00 617.20
00022828 00000010 740.38 214.39 376.06 536.26 813.64 428.72 993.49 420.22 890.76 512.20 835.14 619.47 986.51 612.85
00022829 00000011 735.70 213.54 379.08 531.26 812.27 420.44 990.70 420.73 884.18 510.67 833.26 605.70 986.92 607.04
00022830 00000012 733.67 208.63 380.05 546.74 810.28 414.02 989.71 413.03 883.07 504.47 830.12 606.80 987.02 607.01
00022831 00000013 733.81 209.00 379.90 546.46 810.20 414.09 989.62 412.90 882.91 504.51 830.07 606.85 987.05 606.88
00022832 00000014 733.31 200.19 377.11 556.36 808.81 406.20 986.68 402.76 879.48 493.76 827.31 603.23 983.90 601.67
00022833 00000015 732.02 194.87 377.37 548.84 805.91 396.94 983.75 393.37 875.31 483.96 822.57 591.33 981.62 589.76
00022834 00000016 726.50 185.85 382.39 541.39 803.50 387.04 975.64 391.19 865.84 473.93 813.51 577.22 962.54 582.22
00022835 DELETE   724.94 182.09 381.00 530.59 801.37 376.24 971.67 384.43 860.38 463.26 808.83 567.64 944.35 576.67
00022836 00000018 724.92 182.13 381.24 530.61 801.35 376.26 971.61 384.41 860.35 463.26 808.86 567.69 944.31 576.69
00022837 00000019 722.59 177.99 380.23 523.84 796.43 364.54 967.82 371.12 856.59 447.82 805.80 560.87 933.06 568.58
00022838 00000020 722.45 174.00 375.30 514.94 795.43 359.26 965.23 363.51 857.36 439.28 805.78 552.32 930.22 558.12
00022839 00000021 720.74 171.26 371.28 511.33 796.63 353.92 965.92 358.97 862.08 433.97 808.34 545.73 930.86 551.80
00022840 00000022 716.63 166.33 367.50 516.98 793.24 350.15 962.34 353.10 860.80 426.03 806.36 543.48 927.21 548.11
00022841 00000023 715.94 165.97 368.38 517.31 793.29 350.38 962.34 353.39 861.14 426.10 806.24 543.59 927.11 548.24
00022842 00000024 710.73 163.25 369.58 522.12 790.97 349.82 959.48 351.17 859.83 420.33 803.44 544.39 922.28 547.91
00022843 00000025 704.90 170.16 371.58 516.69 785.80 353.69 957.38 354.09 856.11 420.19 801.30 545.80 921.36 548.01
00022844 00000026 701.13 171.40 377.54 513.71 782.98 365.02 955.75 366.11 852.96 423.02 794.21 545.54 920.36 548.35
00022845 00000027 699.17 174.79 377.21 508.29 780.79 362.23 954.24 365.51 850.29 424.33 790.36 542.19 918.81 546.44
00022846 00000028 698.97 174.76 377.54 508.60 780.79 362.41 954.26 365.57 850.22 424.29 790.37 542.18 918.92 546.34
00022847 00000029 691.50 178.36 373.89 506.36 783.18 363.32 955.16 366.44 841.02 422.55 784.93 547.29 913.52 549.89
00022848 00000030 690.12 176.17 370.56 509.22 781.27 362.13 950.90 367.54 838.27 426.56 781.68 547.37 909.74 552.32
00022849 00000031 689.33 161.37 374.36 524.28 772.86 354.88 951.66 360.89 841.97 436.80 781.96 554.26 917.41 561.14
00022850 00000032 689.17 158.52 374.88 530.19 771.48 358.47 954.09 364.28 843.16 441.40 781.51 557.89 925.41 564.88
00022851 00000033 689.43 157.97 374.79 530.62 771.49 358.34 954.50 364.27 843.14 441.26 781.23 557.83 925.87 564.90
00022852 00000034 690.59 156.81 374.75 531.14 773.48 358.40 956.64 366.25 845.19 441.73 781.79 556.98 927.26 565.41
00022853 00000035 691.66 159.57 373.44 527.64 777.23 357.54 957.33 366.23 849.70 441.57 784.66 556.31 924.76 565.44
00022854 00000036 692.05 163.64 374.45 523.36 780.89 358.35 960.13 368.66 854.82 443.68 787.78 559.03 923.51 569.68
00022855 00000037 696.42 170.99 380.69 522.86 787.83 361.91 959.63 376.01 861.51 445.47 792.14 553.32 920.97 566.07
00022856 00000038 696.43 170.46 380.46 523.37 787.93 361.78 959.79 376.04 861.67 445.68 792.17 553.20 921.35 566.08
00022857 00000039 698.72 173.93 378.85 517.91 792.24 361.09 963.63 379.10 866.72 447.68 796.84 551.79 921.98 567.40
00022858 00000040 702.88 175.93 376.28 516.61 797.10 362.35 967.87 381.15 870.25 447.15 801.14 553.46 924.25 569.87
00022859 00000041 710.05 177.00 372.43 516.12 804.01 361.44 974.15 383.30 874.02 447.73 805.07 552.37 926.37 571.39
00022860 00000042 717.54 178.11 369.02 516.18 809.89 361.32 976.72 383.20 877.04 448.82 809.54 553.96 926.27 573.33
00022861 00000043 717.42 177.88 369.53 516.39 809.93 361.20 976.66 383.35 877.03 448.88 809.37 553.69 926.11 573.29
00022862 00000044 721.45 178.29 368.45 516.16 815.47 360.85 981.32 383.91 881.59 449.93 813.87 552.62 928.81 573.02
00022863 00000045 722.34 180.19 366.53 514.76 816.89 366.79 984.52 389.90 882.80 449.68 813.26 554.69 931.36 575.32
00022864 00000046 719.99 183.42 370.55 533.61 815.04 377.93 990.57 396.28 886.17 457.85 815.76 574.63 939.16 591.63
00022865 00000047 720.46 187.78 372.24 547.60 816.51 391.75 995.09 411.21 888.43 475.57 815.39 590.64 951.92 608.54
00022866 DELETE   720.98 188.06 371.86 547.13 816.61 392.00 995.34 411.01 888.44 475.12 815.55 590.72 952.32 608.31
00022867 DELETE   717.75 195.89 371.79 542.74 815.12 400.90 994.81 422.93 888.64 486.96 815.13 594.26 956.69 613.95
00022868 00000050 716.04 198.63 369.72 537.15 811.25 408.07 988.99 431.32 883.23 500.72 814.17 595.06 954.31 615.68
00022869 00000051 715.69 198.75 370.15 534.64 809.67 409.93 986.36 434.03 880.19 503.00 811.96 593.59 951.89 614.88
00022870 00000052 712.54 197.76 370.10 537.79 808.58 409.47 984.36 431.86 881.64 502.20 812.83 595.47 950.63 615.32
00022871 00000053 712.69 197.82 370.36 537.76 808.78 409.39 984.16 432.05 881.06 502.44 812.96 595.26 950.34 615.34
00022872 00000054 710.95 196.81 370.90 539.49 806.70 409.42 981.65 429.15 880.60 501.26 812.54 597.63 947.29 615.44
00022873 00000055 707.82 196.35 371.99 538.78 802.94 408.27 978.25 427.17 876.41 499.16 810.22 595.74 947.32 612.69
00022874 00000056 706.82 194.24 369.51 544.61 800.01 404.89 979.10 421.04 874.08 493.78 808.54 597.90 949.41 612.62
00022875 00000057 706.13 193.72 370.30 541.15 796.66 403.06 979.05 416.96 870.91 489.26 805.78 594.53 951.61 607.16
00022876 00000058 706.37 193.32 370.05 541.60 796.75 403.15 979.18 417.06 870.84 489.25 805.79 594.70 951.71 607.36
00022877 00000059 703.42 193.49 371.83 533.78 796.07 402.06 972.90 414.64 872.75 484.07 805.94 588.72 946.78 600.21
00022878 00000060 698.53 196.18 371.31 523.70 794.83 402.02 971.28 411.09 862.88 479.37 798.57 583.00 934.96 589.79
00022879 DELETE   697.51 191.33 373.54 526.53 794.50 394.17 969.86 404.74 861.01 475.69 798.03 577.36 934.06 585.47
00022880 00000062 700.63 180.83 375.39 538.62 785.91 383.24 967.06 393.24 861.81 468.70 800.16 572.42 942.88 581.72
00022881 DELETE   700.45 180.19 376.04 539.47 785.96 383.25 967.13 393.41 861.71 468.44 800.21 572.35 943.01 581.79
00022882 DELETE   698.98 175.52 376.68 539.72 783.10 372.59 963.33 379.40 858.05 453.41 797.08 565.14 943.61 572.05
00022883 00000065 698.93 172.77 378.66 532.64 783.28 367.08 961.65 371.94 859.95 443.75 798.76 556.19 943.81 561.44
00022884 00000066 700.18 170.98 371.07 525.79 782.43 363.76 957.41 365.55 857.66 437.35 800.03 550.47 940.41 553.39
00022885 00000067 701.84 164.73 367.02 534.66 783.98 360.13 962.44 356.05 859.78 427.99 800.67 560.16 946.39 558.31
00022886 00000068 701.77 165.33 367.35 533.95 783.85 360.18 962.42 356.16 859.83 428.34 800.59 560.09 946.31 558.21
00022887 00000069 701.99 166.06 366.47 539.28 782.64 361.17 960.56 356.20 856.36 428.40 799.49 563.20 945.26 560.38
00022888 00000070 702.31 177.05 370.30 530.24 780.31 364.20 956.58 361.94 850.62 430.18 801.70 555.49 941.54 555.73
00022889 00000071 700.03 184.43 377.09 521.88 782.42 372.35 957.55 373.88 851.89 436.84 799.90 555.67 944.72 558.47
00022890 00000072 699.41 187.86 381.51 510.06 781.43 378.76 958.92 378.69 852.39 440.64 799.10 559.37 940.46 560.61
00022891 00000073 699.44 187.36 381.45 510.79 781.49 378.76 958.96 378.80 852.37 440.66 799.09 559.36 940.48 560.71
00022892 00000074 699.74 187.12 381.84 510.06 779.70 380.44 958.94 378.80 851.47 446.74 798.78 564.43 937.86 564.37
00022893 00000075 700.54 186.92 382.46 509.80 781.72 380.57 959.82 380.93 852.94 448.85 798.02 565.78 935.55 567.37
00022894 00000076 699.86 184.06 383.10 512.61 782.60 379.06 960.03 382.24 855.23 448.73 796.46 564.52 933.00 568.42
00022895 00000077 701.43 181.01 383.68 515.20 783.97 378.06 961.47 382.83 856.10 448.19 795.52 563.65 932.07 568.90
00022896 00000078 701.24 181.34 383.69 515.14 783.93 378.22 961.38 382.84 856.11 448.20 795.71 563.74 932.01 568.88
00022897 00000079 705.81 177.28 378.24 524.37 786.93 373.84 963.65 381.62 857.35 446.84 797.45 562.28 933.77 570.37
00022898 00000080 709.88 174.96 371.80 535.77 790.12 367.32 967.50 378.95 858.55 445.61 799.79 562.91 934.37 574.31
00022899 00000081 711.09 173.39 372.00 539.70 792.59 367.40 969.65 381.64 859.08 446.15 799.08 562.42 935.63 575.99
00022900 00000082 710.69 176.06 375.60 539.09 794.51 372.38 972.34 387.39 861.22 450.25 798.96 565.42 937.04 579.49
00022901 00000083 710.57 176.41 375.54 538.80 794.45 372.35 972.29 387.30 861.37 450.35 799.00 565.51 937.15 579.52
00022902 00000084 708.93 181.82 382.14 531.50 796.39 380.28 972.85 397.42 864.89 463.68 799.90 569.80 935.44 585.32
00022903 00000085 706.53 188.11 383.77 521.69 796.24 390.72 968.96 407.55 863.71 473.97 798.07 573.30 933.63 588.38
00022904 00000086 708.56 190.20 381.42 522.53 798.14 397.36 970.97 416.80 862.97 481.12 796.97 577.42 934.86 594.74
00022905 00000087 709.09 192.30 380.37 528.53 797.09 400.98 970.51 418.59 861.08 486.65 797.91 584.38 934.50 600.47
00022906 00000088 708.82 192.14 380.86 528.65 796.98 400.93 970.50 418.39 861.21 487.09 798.06 584.67 934.47 600.65
00022907 00000089 708.94 194.29 378.90 530.79 796.64 402.77 971.79 419.57 860.44 491.56 799.01 589.69 937.60 605.04
00022908 00000090 709.43 194.69 378.18 530.33 796.88 403.40 971.03 419.51 860.89 492.69 800.16 590.62 938.53 605.41
00022909 00000091 710.77 193.85 376.50 528.37 797.95 402.53 971.59 418.63 862.46 491.36 800.40 587.91 938.62 602.85
00022910 00000092 712.86 192.99 376.12 527.43 798.95 400.23 973.10 416.06 863.30 488.28 801.24 584.97 938.56 599.76
00022911 00000093 712.77 193.14 376.19 527.33 798.88 400.15 973.20 415.90 863.34 488.29 801.19 585.13 938.52 599.85
00022912 00000094 714.36 190.83 374.41 527.14 800.10 398.94 973.05 415.17 864.93 484.78 801.89 581.75 939.03 596.91
00022913 00000095 714.24 191.49 376.68 524.97 802.96 399.83 973.11 419.61 867.30 479.80 803.63 577.16 940.82 595.03
00022914 00000096 713.24 188.64 378.75 535.49 804.50 397.47 975.15 417.95 870.03 478.05 807.24 578.64 944.71 596.79
00022915 00000097 714.40 182.13 379.50 556.88 803.42 391.05 980.67 409.77 869.93 477.09 806.52 584.27 951.30 601.14
00022916 00000098 714.30 182.01 380.05 557.19 803.30 391.19 980.60 409.80 869.80 477.14 806.41 584.31 951.09 601.10
00022917 00000099 715.30 181.54 377.16 563.01 801.81 391.06 982.61 406.19 869.04 478.43 805.92 587.55 954.84 601.47
00022918 00000100 716.32 183.79 379.22 554.30 801.12 392.00 981.86 405.68 868.76 478.72 804.57 584.82 957.07 597.46
00022919 00000101 716.77 185.81 379.85 544.41 801.59 394.77 979.51 408.42 869.02 480.39 805.43 583.71 956.13 596.46
00022920 00000102 716.46 186.45 379.05 541.71 801.21 396.11 977.60 409.26 868.92 482.54 804.79 585.14 953.65 597.67
00022921 00000103 716.26 186.76 379.19 541.29 801.24 396.14 977.17 409.47 868.79 482.55 804.92 584.94 953.23 597.62
00022922 00000104 716.65 188.27 379.27 538.14 801.34 397.75 977.72 410.91 869.06 483.32 805.24 585.17 953.31 597.74
00022923 00000105 717.40 187.87 379.07 538.24 802.61 397.03 977.95 411.39 869.46 483.15 804.99 583.95 952.91 597.50
00022924 00000106 719.50 183.74 379.38 549.10 805.85 392.07 982.14 408.33 872.32 480.03 807.18 583.44 955.66 598.30
00022925 00000107 721.07 181.18 379.06 558.91 808.14 389.22 984.33 405.40 874.94 477.39 810.71 583.65 959.18 598.14
00022926 00000108 721.34 181.64 378.60 558.49 808.46 389.14 984.60 405.57 875.07 477.37 810.71 583.39 959.08 598.10
00022927 00000109 723.61 179.37 379.92 560.09 809.33 387.81 985.59 401.92 876.17 474.85 812.58 581.96 962.96 594.67
00022928 00000110 723.31 181.96 383.61 547.45 808.83 387.45 985.14 400.52 877.02 472.30 811.86 577.77 963.32 589.69
00022929 00000111 723.64 182.40 384.47 539.42 809.95 385.94 985.29 399.12 878.70 470.47 813.68 571.84 963.70 584.12
00022930 00000112 724.81 182.08 385.11 535.06 811.74 382.38 986.13 395.40 880.01 468.29 815.77 568.70 961.87 581.11
00022931 00000113 724.98 182.07 384.72 535.20 811.77 382.27 985.92 395.35 879.88 468.28 815.78 568.61 961.79 581.06
00022932 00000114 728.56 179.92 383.40 533.61 813.67 379.19 988.39 390.78 880.34 460.28 816.89 565.73 963.70 577.30
00022933 00000115 733.05 178.76 379.82 530.34 816.87 377.53 991.16 387.50 881.89 453.05 820.09 562.88 965.67 573.11
00022934 00000116 738.16 176.29 379.10 524.52 817.48 373.32 991.60 381.27 880.94 451.40 821.91 558.94 963.50 567.48
00022935 00000117 741.75 169.93 378.16 525.47 819.56 371.97 993.46 375.80 885.33 449.50 829.03 558.03 968.94 562.74
00022936 00000118 741.90 169.93 378.01 525.25 819.64 371.98 993.53 375.83 885.40 449.46 829.14 557.96 968.88 562.68
00022937 00000119 746.44 168.11 373.24 524.22 823.90 371.32 997.63 373.93 890.63 447.55 835.37 558.70 972.61 562.58
00022938 00000120 748.06 165.62 373.55 525.53 825.47 371.24 1000.11 372.40 894.23 447.15 838.50 560.17 974.11 563.21
00022939 00000121 750.08 165.70 372.62 523.53 827.05 372.69 1000.21 373.52 895.79 449.35 842.29 562.64 973.35 565.44
00022940 00000122 752.92 167.82 371.06 522.84 829.82 374.62 1003.19 376.69 898.65 452.65 844.85 565.25 977.41 569.06
00022941 00000123 753.01 167.89 371.15 522.82 829.81 374.78 1003.29 376.49 898.82 452.48 845.09 565.24 977.98 568.73
00022942 00000124 753.67 170.10 374.25 523.25 829.83 381.78 1003.75 384.86 896.13 461.50 843.60 568.17 985.53 571.67
00022943 00000125 753.95 177.83 372.18 528.95 829.58 387.01 1002.28 386.27 893.23 465.50 842.57 574.86 989.22 575.60
CROP_BBOX: 487 0 1336 884
