Video ID: 	NaU-4jY8sgo
H: 	1080
W: 	1920
FPS: 	25.0

FRAME INDEX X0 Y0 W H [Landmarks (5 Points)]

00082166 00000000 801.39 134.50 391.65 577.60 999.92 377.11 1148.47 339.28 1174.85 443.98 1079.61 597.02 1191.30 565.35
00082167 00000001 800.15 129.81 393.91 588.61 987.10 381.27 1134.45 339.38 1163.88 449.58 1084.29 606.08 1178.79 573.51
00082168 00000002 803.21 128.20 386.14 566.68 995.47 377.87 1137.27 335.57 1170.20 447.77 1086.37 593.40 1179.56 560.30
00082169 DELETE   806.84 130.50 386.05 569.26 996.13 379.89 1140.46 337.30 1173.28 447.31 1089.62 594.60 1186.41 560.68
00082170 00000004 804.96 142.17 389.65 559.04 1000.07 379.39 1142.85 341.97 1171.72 451.10 1085.30 590.34 1184.41 561.17
00082171 00000005 806.25 143.20 390.29 570.50 1009.25 382.24 1154.60 344.81 1176.00 449.04 1067.89 589.82 1181.83 559.31
00082172 DELETE   805.11 144.98 392.80 564.71 1003.53 383.61 1150.95 350.25 1169.99 458.33 1072.50 591.15 1175.15 566.32
00082173 00000007 811.36 138.41 392.77 573.49 1009.46 385.14 1158.12 352.32 1176.96 457.99 1077.41 590.17 1183.50 565.72
00082174 DELETE   816.56 146.35 388.31 570.83 1016.60 379.26 1153.03 353.29 1179.27 453.51 1069.65 584.74 1167.95 564.19
00082175 DELETE   817.78 152.79 387.49 567.37 1018.30 382.11 1155.81 358.71 1182.29 460.34 1067.62 588.83 1165.66 570.59
00082176 00000010 819.04 166.91 384.00 564.30 1017.44 387.10 1155.62 366.39 1179.18 465.65 1064.80 592.73 1164.65 576.03
00082177 00000011 820.33 167.02 384.36 565.90 1019.90 388.72 1159.40 368.37 1179.81 468.52 1065.58 594.56 1165.88 578.17
00082178 00000012 823.92 168.89 380.81 558.59 1019.21 387.39 1159.38 371.35 1177.84 465.66 1069.70 590.33 1170.13 576.94
00082179 00000013 823.30 167.26 385.18 563.73 1016.97 387.76 1160.61 369.47 1178.85 463.07 1071.99 590.79 1178.37 575.07
00082180 00000014 826.21 161.89 381.37 562.06 1020.06 385.90 1162.62 368.81 1177.50 462.20 1077.27 588.79 1181.11 573.59
00082181 00000015 825.21 163.41 383.40 568.83 1017.42 381.94 1166.59 371.74 1176.52 460.99 1070.45 588.87 1181.35 579.07
00082182 00000016 825.43 161.39 384.62 564.66 1021.84 383.97 1167.18 368.75 1178.02 457.01 1073.88 583.23 1182.88 569.79
00082183 00000017 827.75 158.79 386.90 563.42 1025.87 384.71 1168.81 364.27 1181.31 456.16 1075.89 582.75 1183.71 565.42
00082184 00000018 827.59 158.73 390.03 560.28 1028.90 383.52 1171.34 360.80 1187.71 456.61 1077.68 582.70 1186.26 563.92
00082185 00000019 828.95 150.29 390.33 562.61 1029.22 380.12 1172.69 357.90 1190.39 452.74 1083.13 581.30 1190.87 562.69
00082186 00000020 828.48 147.74 396.60 567.64 1031.24 380.93 1176.10 355.14 1196.73 448.13 1093.29 582.52 1205.42 560.74
00082187 00000021 829.97 146.69 396.23 569.65 1032.21 383.76 1176.54 350.06 1202.58 452.13 1098.87 587.65 1210.58 559.64
00082188 00000022 834.75 158.61 392.60 574.23 1032.38 384.16 1180.48 360.39 1201.81 452.35 1096.11 594.39 1211.71 574.65
00082189 00000023 835.76 161.18 395.62 614.58 1026.42 388.67 1180.18 370.65 1195.41 462.41 1084.26 617.12 1209.48 601.76
00082190 00000024 838.18 165.58 394.68 607.06 1031.11 392.62 1175.73 374.79 1194.59 465.83 1085.74 617.66 1204.52 603.02
00082191 00000025 842.10 165.65 391.42 583.98 1037.03 393.46 1178.51 369.05 1200.54 460.36 1091.34 604.38 1207.72 585.10
00082192 00000026 849.50 171.87 390.91 559.58 1042.66 399.21 1192.42 360.25 1213.26 465.23 1097.23 603.61 1218.55 572.10
00082193 00000027 852.42 172.48 394.87 544.35 1049.11 401.27 1198.49 352.90 1225.08 460.37 1110.50 596.83 1231.18 557.56
00082194 00000028 856.57 167.68 397.26 553.31 1052.41 398.47 1203.56 350.89 1227.49 460.04 1111.83 596.69 1237.98 558.01
00082195 00000029 861.24 166.27 396.72 549.54 1057.21 397.01 1205.70 351.40 1228.02 460.86 1121.02 597.18 1242.51 559.67
00082196 00000030 863.44 167.17 393.29 569.29 1058.09 395.90 1206.95 362.81 1225.22 466.34 1115.17 603.74 1238.07 576.20
00082197 00000031 867.09 166.02 391.67 575.52 1071.09 402.39 1217.11 371.51 1240.97 476.03 1118.08 606.44 1242.95 581.04
00082198 00000032 865.64 171.61 394.78 575.27 1075.68 404.91 1220.16 381.61 1246.32 480.55 1118.23 608.52 1242.48 589.17
00082199 00000033 873.47 177.26 385.44 577.06 1076.87 407.50 1225.21 383.05 1245.16 486.93 1114.97 614.41 1241.82 594.21
00082200 00000034 868.05 196.37 394.86 569.99 1073.16 413.43 1215.51 390.38 1242.04 485.45 1113.78 623.44 1232.10 605.91
00082201 00000035 870.51 193.12 394.73 576.77 1078.72 417.38 1220.34 395.86 1243.66 490.25 1120.34 625.73 1236.50 609.08
00082202 00000036 873.39 195.32 392.17 572.01 1078.49 421.45 1222.44 396.52 1241.91 496.32 1122.82 627.61 1238.11 607.85
00082203 00000037 872.68 197.73 393.29 574.81 1078.39 424.92 1223.93 401.00 1240.64 503.21 1118.43 631.21 1237.06 612.47
00082204 00000038 869.78 194.82 395.15 580.18 1078.28 425.78 1224.26 401.34 1244.99 504.42 1117.31 635.13 1236.83 616.13
00082205 00000039 868.87 190.53 394.40 586.46 1075.99 424.37 1222.82 399.23 1242.93 504.05 1118.17 636.74 1236.76 617.14
00082206 00000040 871.46 191.19 391.90 581.69 1074.40 423.37 1223.61 397.66 1241.06 500.34 1121.86 636.56 1240.64 616.03
00082207 00000041 871.12 193.35 392.53 579.84 1070.94 425.44 1220.83 396.64 1237.85 499.92 1121.64 636.78 1241.47 613.69
00082208 00000042 870.26 193.93 392.11 582.49 1068.08 424.26 1218.49 397.38 1235.36 499.15 1119.47 637.25 1240.75 615.68
00082209 00000043 867.69 195.17 392.98 583.55 1065.96 424.98 1216.42 397.69 1232.73 503.21 1114.58 639.57 1236.24 618.02
00082210 00000044 867.47 195.07 391.37 578.31 1065.90 424.19 1215.01 396.41 1232.08 499.82 1111.47 635.56 1232.02 614.05
00082211 00000045 865.77 193.99 392.08 578.17 1065.49 425.67 1213.65 397.05 1230.84 499.06 1111.55 635.34 1231.09 613.06
00082212 00000046 865.37 192.87 392.09 577.20 1065.24 426.92 1213.92 394.88 1231.87 498.84 1113.82 636.15 1233.45 611.10
00082213 00000047 865.12 193.65 392.84 578.20 1064.69 427.11 1213.98 394.43 1232.03 499.07 1113.61 636.80 1234.42 611.13
00082214 00000048 864.28 190.48 391.11 577.62 1065.19 427.22 1213.01 395.67 1231.23 500.07 1113.56 635.92 1232.34 611.26
00082215 00000049 865.74 195.04 390.04 575.13 1067.50 426.81 1214.19 393.65 1233.67 503.93 1109.22 636.53 1228.95 611.10
00082216 00000050 865.50 196.62 389.86 572.82 1066.12 425.90 1211.64 394.60 1229.11 503.76 1104.41 633.97 1224.85 610.14
00082217 00000051 863.37 197.93 389.71 567.19 1066.52 423.05 1212.91 397.70 1226.68 504.58 1101.60 632.71 1217.95 613.57
00082218 00000052 864.86 198.20 388.73 571.04 1064.56 423.59 1211.41 396.80 1222.89 502.39 1103.49 634.27 1221.27 613.73
00082219 00000053 868.32 201.90 386.35 576.22 1063.86 422.84 1211.75 399.04 1221.74 502.38 1103.30 637.12 1223.70 618.78
00082220 00000054 867.39 199.73 387.19 581.33 1062.59 423.33 1212.19 401.01 1222.08 503.76 1101.97 639.02 1223.87 621.76
00082221 00000055 864.84 202.29 389.00 582.83 1061.56 421.52 1212.52 401.02 1223.59 505.46 1099.75 641.25 1222.78 625.50
00082222 00000056 864.57 198.17 388.79 585.39 1062.06 421.57 1212.39 401.39 1223.67 506.16 1100.16 640.94 1222.56 625.59
00082223 00000057 862.41 199.69 387.76 573.67 1060.85 420.85 1211.71 396.72 1223.34 503.99 1099.74 634.24 1221.93 615.63
00082224 00000058 859.16 199.80 392.13 574.49 1060.74 419.68 1210.43 395.38 1223.94 504.02 1104.33 636.61 1224.93 617.43
00082225 00000059 853.56 199.63 396.70 577.69 1055.93 415.35 1208.28 393.00 1219.73 501.35 1104.61 637.42 1225.49 619.43
00082226 00000060 855.72 199.84 390.85 573.82 1051.25 410.93 1207.10 388.09 1214.58 497.60 1100.22 635.28 1222.24 616.90
00082227 00000061 856.85 192.96 386.55 582.07 1046.73 407.41 1203.08 384.97 1211.47 498.19 1092.62 636.54 1214.23 619.34
00082228 00000062 851.16 201.84 388.60 571.31 1042.70 396.64 1197.54 380.06 1204.23 490.28 1088.28 627.22 1207.27 614.08
00082229 00000063 854.43 188.33 379.17 581.12 1041.91 395.86 1198.89 382.64 1204.42 482.14 1085.65 618.87 1209.84 608.47
00082230 00000064 851.87 178.12 383.24 588.53 1043.39 394.23 1197.25 381.16 1205.78 480.48 1090.06 617.41 1210.92 606.92
00082231 00000065 851.33 174.87 384.42 593.98 1045.49 393.11 1197.32 379.15 1209.61 477.83 1093.61 615.72 1215.42 604.60
00082232 00000066 852.56 178.31 384.95 585.81 1048.78 396.52 1201.07 382.01 1211.09 481.21 1098.40 617.31 1218.41 605.67
00082233 00000067 849.54 190.56 393.98 576.24 1049.43 403.04 1199.16 381.45 1208.61 488.57 1097.51 626.49 1215.02 609.38
00082234 00000068 853.93 197.40 395.93 580.25 1055.88 410.43 1203.62 390.34 1218.01 491.98 1104.65 631.61 1221.50 615.40
00082235 00000069 863.32 202.45 387.53 572.44 1063.29 421.23 1214.23 403.38 1219.89 501.49 1102.76 633.75 1224.03 619.56
00082236 00000070 864.35 203.43 386.59 575.08 1062.95 424.84 1215.59 406.40 1220.37 505.94 1101.42 637.22 1223.43 622.50
00082237 00000071 860.53 207.11 391.30 582.33 1061.75 421.27 1209.67 405.92 1219.30 506.65 1104.44 642.15 1219.88 629.99
00082238 00000072 857.15 201.31 394.42 585.44 1058.43 417.13 1209.89 402.26 1217.80 503.17 1104.75 641.54 1220.94 629.41
00082239 00000073 852.69 190.77 391.09 576.77 1054.16 407.12 1201.64 390.32 1219.36 493.16 1099.39 631.39 1208.72 618.65
00082240 00000074 850.91 180.01 387.53 586.77 1049.98 402.52 1200.42 386.27 1212.74 488.34 1095.85 624.69 1210.42 612.40
00082241 00000075 848.34 189.42 392.36 587.07 1048.61 406.71 1196.22 385.88 1214.12 494.10 1098.55 634.29 1209.80 618.25
00082242 00000076 841.63 195.87 399.48 580.78 1048.23 414.06 1200.30 391.91 1215.44 495.82 1107.66 639.25 1220.71 620.32
00082243 00000077 849.01 206.35 400.64 587.92 1055.05 428.41 1210.83 405.09 1223.76 508.84 1107.80 650.31 1227.15 630.59
00082244 00000078 859.40 206.59 401.01 617.52 1059.14 445.43 1217.84 422.72 1235.04 518.03 1099.99 659.49 1239.31 641.40
00082245 00000079 866.63 216.80 395.43 605.89 1062.97 450.34 1226.79 431.31 1233.70 529.62 1099.58 662.58 1241.65 647.23
00082246 00000080 861.96 212.38 403.30 611.55 1068.69 445.44 1227.34 426.75 1242.21 527.20 1106.91 661.62 1243.09 646.17
00082247 00000081 861.19 206.67 403.75 613.70 1067.63 436.13 1222.49 420.01 1240.47 516.29 1112.64 657.52 1242.04 643.99
00082248 00000082 859.49 203.94 403.11 610.61 1065.98 428.94 1219.53 412.16 1237.66 517.14 1108.45 653.48 1233.59 640.00
00082249 00000083 859.96 207.06 405.94 609.66 1062.33 423.32 1216.75 408.56 1236.39 509.74 1107.19 650.81 1233.82 639.22
00082250 00000084 858.36 207.65 403.42 603.82 1061.86 420.10 1214.97 406.01 1231.43 512.32 1102.38 649.99 1225.83 639.09
00082251 00000085 857.31 208.12 404.22 592.18 1062.73 424.70 1211.30 405.92 1229.68 516.42 1103.99 651.11 1224.91 636.69
00082252 00000086 856.92 203.28 401.12 592.71 1067.59 429.30 1217.04 410.04 1232.39 517.57 1110.00 652.15 1230.66 636.85
00082253 00000087 858.27 197.87 399.29 600.79 1068.35 433.36 1221.67 416.10 1232.74 519.59 1104.06 649.39 1228.31 635.59
00082254 00000088 863.40 195.97 396.75 604.73 1074.21 435.92 1226.69 415.14 1241.09 518.18 1111.48 652.25 1235.23 635.97
00082255 00000089 864.05 197.97 396.51 594.80 1074.77 435.40 1227.55 413.94 1243.06 517.04 1111.23 647.15 1237.39 629.99
00082256 00000090 863.01 202.03 397.72 576.39 1075.94 429.70 1224.11 406.87 1243.05 514.60 1113.80 641.14 1235.74 623.55
00082257 00000091 861.05 199.20 398.57 575.84 1071.80 421.72 1219.96 402.17 1237.40 503.88 1110.30 634.68 1231.01 619.54
00082258 00000092 859.38 197.10 395.70 575.24 1065.76 417.45 1214.88 401.03 1227.29 500.74 1105.90 634.33 1222.60 621.82
00082259 00000093 860.34 201.54 391.60 568.82 1063.72 419.14 1210.88 401.37 1223.08 503.67 1104.61 635.32 1218.27 621.44
00082260 00000094 864.00 203.08 390.73 579.10 1065.89 427.23 1214.18 404.33 1229.31 508.66 1109.16 643.02 1226.41 625.00
00082261 00000095 863.22 198.15 391.48 595.54 1069.80 433.85 1220.71 410.09 1237.15 517.41 1109.58 649.28 1229.56 630.70
00082262 00000096 857.90 199.10 396.78 594.02 1071.49 435.49 1219.10 411.19 1238.43 520.84 1106.12 649.45 1224.00 630.69
00082263 00000097 857.92 204.53 392.88 579.89 1066.97 427.24 1213.98 406.27 1231.46 515.28 1102.84 645.47 1217.64 629.37
00082264 00000098 855.83 204.62 392.58 570.75 1058.40 419.65 1205.36 394.74 1221.60 507.10 1103.37 641.22 1215.59 621.34
00082265 00000099 853.13 197.62 392.29 568.70 1059.89 417.98 1204.27 394.72 1219.14 503.70 1106.52 635.99 1213.42 617.33
00082266 00000100 852.08 198.54 395.36 583.60 1055.05 416.55 1202.88 395.92 1220.92 508.00 1106.92 647.66 1216.46 631.09
00082267 00000101 853.89 205.88 393.17 581.08 1056.82 425.92 1204.38 402.96 1221.03 514.59 1101.34 648.53 1212.08 630.74
00082268 00000102 854.95 201.04 394.51 596.67 1064.83 430.51 1213.81 416.53 1230.70 520.09 1103.74 652.25 1217.61 641.38
00082269 00000103 857.35 203.59 394.22 600.98 1067.43 433.06 1216.08 418.90 1235.35 523.08 1107.59 657.80 1222.75 646.57
00082270 DELETE   849.83 204.84 403.08 603.10 1062.46 430.15 1214.22 414.07 1231.66 519.57 1102.79 655.94 1222.23 643.42
00082271 00000105 853.48 205.26 392.50 577.02 1058.11 423.33 1205.44 401.66 1223.33 508.82 1104.30 643.85 1216.02 626.94
00082272 00000106 851.29 206.44 396.37 567.76 1060.01 416.94 1208.34 398.84 1222.23 505.98 1107.57 640.41 1214.39 625.58
00082273 00000107 852.27 208.31 397.82 572.89 1063.88 424.23 1210.18 408.48 1227.55 515.49 1101.32 645.23 1211.68 633.46
00082274 00000108 858.42 197.98 394.99 590.99 1074.04 432.81 1221.45 420.41 1234.52 523.39 1100.46 645.03 1216.83 636.50
00082275 00000109 859.11 205.40 399.12 593.57 1076.95 437.84 1229.00 421.48 1241.95 527.12 1106.81 651.16 1229.25 638.15
00082276 00000110 861.08 212.47 399.23 589.80 1077.23 438.71 1230.31 422.26 1245.24 528.23 1104.13 651.08 1231.09 638.42
00082277 00000111 863.38 207.41 398.97 583.22 1081.49 439.67 1230.70 419.82 1247.65 524.78 1109.76 646.17 1231.74 631.01
00082278 00000112 864.84 199.94 398.57 590.06 1081.56 436.30 1229.69 415.58 1247.14 524.61 1109.22 646.02 1232.56 630.73
00082279 00000113 866.97 201.42 397.74 589.77 1084.80 434.97 1230.77 416.26 1249.33 523.75 1111.38 644.06 1234.19 630.43
00082280 00000114 870.90 195.52 392.97 594.37 1085.87 435.21 1233.13 420.37 1247.87 523.96 1115.28 646.53 1233.02 635.64
00082281 00000115 869.51 193.70 396.56 600.33 1084.54 435.40 1234.68 418.52 1250.83 521.92 1121.45 651.43 1239.27 638.06
00082282 00000116 868.92 193.44 396.18 600.17 1084.55 436.21 1234.15 419.15 1250.73 522.56 1120.93 651.73 1237.86 638.30
00082283 00000117 869.02 194.43 395.46 598.27 1082.98 435.01 1233.15 419.84 1249.52 520.45 1118.47 649.76 1235.68 638.06
00082284 00000118 868.89 194.77 393.35 595.63 1081.64 435.58 1230.65 422.54 1243.47 522.15 1115.86 649.41 1231.28 639.84
00082285 00000119 867.37 196.54 395.69 594.43 1086.30 435.14 1229.60 423.59 1245.34 525.00 1111.39 645.57 1224.36 637.79
00082286 00000120 870.04 196.15 391.74 592.59 1086.29 436.11 1232.67 423.69 1246.81 525.89 1114.24 647.17 1228.90 638.67
00082287 00000121 868.01 196.24 394.92 591.69 1083.49 437.66 1234.27 421.70 1247.93 524.80 1111.30 645.49 1231.50 633.99
00082288 00000122 870.38 195.15 391.29 586.91 1086.76 437.15 1233.00 419.89 1249.49 525.58 1113.51 642.51 1230.99 630.12
00082289 00000123 868.47 197.52 395.07 591.95 1084.05 436.88 1232.85 417.85 1250.27 526.07 1111.32 645.60 1231.63 631.77
00082290 00000124 867.84 196.24 396.90 594.21 1084.67 437.81 1232.66 417.13 1252.25 525.89 1112.27 645.50 1232.13 630.22
00082291 00000125 867.89 196.90 396.36 591.36 1086.00 438.48 1232.53 417.77 1253.16 527.46 1112.09 646.00 1229.58 631.11
00082292 00000126 871.46 200.68 393.82 588.42 1087.08 439.68 1235.99 418.00 1252.92 528.85 1113.33 647.83 1232.88 631.97
00082293 00000127 872.32 204.31 393.94 584.17 1088.64 439.43 1237.22 418.44 1253.12 529.07 1115.18 648.40 1233.77 632.92
00082294 00000128 873.09 205.86 393.82 585.06 1088.89 439.30 1237.63 419.90 1253.02 528.48 1117.22 649.59 1235.18 634.88
00082295 00000129 872.35 208.05 395.17 582.30 1088.70 439.65 1237.15 419.78 1253.04 528.45 1117.43 649.69 1234.87 634.66
00082296 00000130 871.32 208.23 396.24 580.62 1088.72 439.39 1237.44 420.30 1253.32 529.39 1117.23 650.17 1234.40 635.70
00082297 00000131 871.84 210.19 395.31 580.13 1089.29 438.21 1235.96 420.88 1252.82 529.38 1115.08 649.35 1231.45 636.75
00082298 00000132 872.56 211.93 394.46 577.14 1088.96 438.28 1236.06 421.50 1252.39 529.59 1114.80 649.43 1231.30 637.34
00082299 00000133 874.75 209.87 391.66 579.06 1089.81 439.22 1236.65 423.61 1252.05 529.92 1115.55 649.37 1231.82 638.20
00082300 00000134 874.74 210.50 391.46 578.97 1089.37 439.01 1237.34 423.65 1251.96 529.18 1115.21 649.25 1233.10 638.28
00082301 00000135 873.87 210.63 392.95 579.11 1089.69 439.22 1236.83 422.73 1252.44 529.83 1114.66 649.36 1232.38 637.55
00082302 00000136 874.01 209.88 391.94 578.93 1088.83 439.62 1235.72 423.88 1251.72 529.19 1114.75 649.07 1231.98 637.95
00082303 00000137 874.14 206.51 391.15 583.27 1088.90 439.59 1236.30 424.76 1251.46 529.84 1114.36 649.12 1232.00 638.75
00082304 00000138 875.15 206.06 389.97 583.08 1087.62 439.56 1235.67 425.38 1250.61 529.22 1112.63 648.67 1230.76 639.08
00082305 00000139 874.53 205.85 389.79 582.28 1086.42 439.70 1234.62 424.51 1249.88 528.33 1113.09 648.59 1231.28 638.15
00082306 00000140 874.27 203.20 389.02 581.22 1086.64 440.51 1233.37 424.41 1250.02 528.06 1114.11 647.71 1230.89 636.70
00082307 00000141 874.78 203.29 388.12 582.07 1085.02 440.80 1233.00 422.98 1249.26 527.76 1112.66 648.69 1230.33 636.34
00082308 00000142 873.33 203.41 388.97 580.39 1085.00 440.21 1231.97 423.28 1248.71 528.14 1112.22 648.07 1228.65 636.48
00082309 00000143 872.30 203.02 390.09 581.46 1084.72 439.76 1232.18 422.73 1249.20 527.98 1111.76 648.21 1228.73 636.46
00082310 00000144 873.36 202.84 388.93 581.64 1085.36 439.92 1232.06 423.18 1248.94 528.00 1111.82 648.10 1228.38 636.67
00082311 00000145 873.33 202.09 389.85 586.00 1084.84 440.43 1232.89 423.18 1249.70 528.01 1112.08 649.57 1230.57 637.55
00082312 00000146 873.21 199.74 389.20 587.28 1084.99 440.32 1232.58 423.38 1250.08 528.40 1111.51 649.42 1229.73 637.73
00082313 00000147 873.90 200.71 389.09 586.83 1085.26 440.29 1233.48 423.49 1250.44 528.65 1111.75 649.85 1230.89 638.26
00082314 00000148 874.90 201.17 389.05 586.44 1086.12 440.54 1234.05 424.03 1250.73 529.93 1112.73 650.60 1231.87 639.46
00082315 00000149 874.51 201.79 390.15 586.72 1085.90 440.94 1234.64 425.16 1250.66 529.52 1113.65 651.05 1233.71 640.28
00082316 00000150 874.03 202.69 390.81 585.13 1085.82 440.91 1234.14 425.90 1249.40 530.89 1112.53 650.80 1232.13 640.61
00082317 00000151 874.78 200.97 389.70 586.48 1086.24 440.26 1235.32 425.71 1249.62 531.61 1112.01 650.96 1231.81 641.25
00082318 00000152 873.81 200.07 389.92 586.20 1086.10 440.21 1234.66 426.12 1249.33 531.84 1112.05 650.68 1231.24 641.25
00082319 00000153 872.62 201.24 390.53 585.88 1085.43 440.88 1234.14 426.53 1248.74 531.78 1111.25 650.75 1230.67 641.02
00082320 00000154 872.85 203.83 389.83 584.73 1085.84 440.96 1233.86 426.26 1249.18 531.62 1111.54 651.45 1230.37 641.60
00082321 00000155 873.05 203.57 389.46 584.28 1086.01 441.41 1233.80 426.89 1248.73 533.13 1111.20 652.17 1229.46 642.49
00082322 00000156 872.85 203.12 390.55 586.52 1085.46 441.63 1235.09 427.95 1248.71 533.71 1110.81 653.41 1230.56 644.25
00082323 00000157 873.17 204.68 389.45 584.61 1085.72 441.54 1234.22 429.15 1248.12 534.42 1109.69 653.07 1227.97 645.10
00082324 00000158 871.11 203.00 392.00 591.72 1083.05 442.42 1234.25 430.30 1247.52 535.63 1108.10 655.69 1230.09 647.71
00082325 00000159 872.17 204.35 389.85 590.10 1083.96 441.96 1234.45 430.53 1248.73 535.59 1107.52 655.48 1228.78 648.25
00082326 00000160 871.97 205.70 389.21 589.63 1084.66 441.50 1234.11 430.04 1248.01 535.79 1108.24 655.76 1227.82 648.42
00082327 00000161 871.92 204.18 389.24 591.87 1082.19 441.71 1233.78 429.70 1246.93 534.59 1107.76 656.49 1229.12 648.48
00082328 00000162 873.14 204.34 388.22 593.72 1082.96 440.39 1233.72 428.49 1247.91 535.70 1107.44 657.56 1227.50 649.76
00082329 00000163 872.23 205.15 388.79 591.30 1082.27 440.22 1233.56 429.76 1247.12 535.48 1107.19 657.79 1227.15 651.13
