Video ID: 	KGK5ocAVwL8
H: 	1080
W: 	1920
FPS: 	23.976023976023978

FRAME INDEX X0 Y0 W H [Landmarks (5 Points)]

00007789 00000000 956.14 163.47 459.92 628.57 1012.90 434.74 1191.26 395.62 1060.08 525.17 1062.34 653.39 1195.19 620.67
00007790 00000001 952.70 169.37 463.70 629.04 1014.13 440.28 1197.14 400.31 1071.32 534.64 1067.62 660.07 1209.46 627.07
00007791 00000002 952.06 175.75 466.75 629.53 1020.10 442.88 1210.47 401.94 1094.39 543.56 1082.54 667.05 1232.66 633.34
00007792 DELETE   949.80 182.81 471.06 628.73 1027.25 445.13 1225.24 402.51 1116.02 549.98 1099.49 672.98 1253.68 638.48
00007793 00000004 949.45 188.28 470.07 625.23 1035.19 451.73 1235.44 405.35 1133.92 553.76 1112.34 677.39 1270.23 639.61
00007794 00000005 942.93 193.27 472.03 624.64 1035.24 455.67 1237.91 407.33 1142.25 556.04 1118.12 682.53 1275.96 643.19
00007795 00000006 939.78 191.74 474.25 630.57 1031.57 458.79 1235.05 408.59 1138.76 558.86 1114.79 686.02 1274.30 645.23
00007796 00000007 934.79 195.05 471.24 631.14 1021.90 463.68 1224.30 414.30 1125.29 565.87 1101.12 690.05 1261.84 649.83
00007797 00000008 925.11 198.87 471.86 633.52 1011.98 469.06 1211.78 425.55 1107.13 573.30 1084.85 694.95 1241.06 659.45
00007798 DELETE   906.55 206.14 485.61 638.26 978.34 486.09 1165.19 446.42 1047.62 592.73 1048.61 710.67 1187.43 678.01
00007799 00000010 902.53 209.74 480.55 627.41 967.84 484.58 1156.40 439.28 1034.06 584.79 1038.68 716.73 1174.41 679.40
00007800 00000011 900.47 208.58 477.48 621.51 963.82 480.78 1148.08 434.09 1024.38 580.57 1031.28 712.35 1165.73 673.65
00007801 00000012 904.80 199.27 470.79 631.07 964.69 474.13 1144.57 428.59 1018.96 567.01 1028.54 702.25 1162.79 664.38
00007802 00000013 909.59 190.95 470.94 644.72 971.85 464.87 1138.22 422.40 1018.41 559.69 1036.24 687.67 1156.34 652.37
00007803 00000014 913.60 180.11 476.99 648.46 978.43 452.24 1154.51 404.13 1032.41 541.65 1044.60 680.91 1178.06 640.74
00007804 00000015 911.14 170.01 485.90 646.76 983.62 441.98 1171.22 393.42 1051.10 532.31 1049.87 670.88 1190.98 629.87
00007805 00000016 915.37 165.76 482.28 637.31 992.63 430.43 1183.33 383.91 1065.54 522.70 1058.33 659.53 1198.04 620.38
00007806 00000017 925.63 160.46 470.80 627.87 1004.31 424.64 1201.09 379.50 1082.88 513.28 1067.27 650.99 1210.14 613.12
00007807 00000018 932.68 159.45 469.37 617.64 1013.41 420.06 1211.85 373.68 1096.75 506.82 1077.55 644.21 1222.19 605.92
00007808 00000019 939.63 159.28 466.18 607.82 1020.43 420.42 1217.78 371.36 1106.43 503.01 1089.45 641.78 1229.91 601.27
00007809 00000020 944.98 159.64 466.58 606.24 1025.88 417.91 1225.00 368.64 1112.47 499.29 1096.11 640.17 1236.90 599.59
00007810 00000021 950.79 159.08 467.27 605.84 1030.65 416.18 1230.45 367.68 1117.74 499.28 1101.36 638.83 1244.98 598.90
00007811 00000022 958.39 157.90 465.69 610.81 1034.32 413.47 1233.67 367.50 1116.62 497.95 1101.55 639.62 1244.97 601.86
00007812 00000023 961.09 159.11 461.46 609.74 1034.24 412.22 1233.50 367.53 1114.86 497.32 1099.73 640.53 1242.03 603.75
00007813 00000024 964.64 159.74 460.53 609.65 1033.54 412.98 1231.20 369.43 1107.83 498.39 1094.71 641.97 1235.78 606.11
00007814 00000025 967.52 158.32 459.94 613.57 1034.72 410.61 1230.12 371.16 1104.53 499.73 1093.56 642.01 1232.37 609.58
00007815 00000026 970.19 158.24 458.94 618.62 1035.07 410.08 1230.14 371.83 1101.30 500.47 1091.91 643.52 1231.52 612.10
00007816 00000027 972.96 155.66 457.70 621.77 1036.50 408.91 1231.01 372.15 1099.90 499.98 1090.48 643.39 1230.97 613.30
00007817 00000028 973.83 156.15 457.09 618.76 1036.39 408.42 1231.64 372.88 1099.43 500.17 1089.22 642.14 1231.00 612.96
00007818 00000029 973.15 154.99 456.95 616.24 1035.78 408.51 1230.28 372.26 1099.37 500.67 1090.21 639.31 1234.86 609.16
00007819 00000030 972.99 154.44 457.88 615.08 1036.29 409.42 1233.65 371.62 1102.26 499.25 1090.88 637.99 1240.57 606.58
00007820 00000031 972.77 154.41 461.35 613.60 1037.30 410.77 1238.26 372.18 1106.46 499.83 1093.42 637.48 1246.32 605.21
00007821 00000032 972.52 161.37 462.64 609.47 1044.28 414.26 1247.62 374.23 1123.32 503.10 1104.88 638.16 1261.56 604.84
00007822 00000033 969.69 164.48 463.72 620.87 1043.31 417.97 1246.23 376.04 1124.53 506.53 1106.72 647.22 1260.02 612.94
00007823 00000034 961.53 169.74 463.72 627.04 1035.91 426.48 1235.45 385.16 1118.33 520.90 1102.70 655.55 1252.07 622.29
00007824 00000035 948.11 170.55 466.90 629.37 1025.67 437.26 1224.66 393.12 1111.45 531.35 1092.64 662.87 1243.43 627.47
00007825 00000036 934.26 175.22 470.27 638.07 1010.15 450.85 1205.97 404.69 1094.27 546.60 1075.56 675.53 1227.02 637.81
00007826 DELETE   915.51 186.80 480.71 646.68 993.37 467.86 1178.49 420.71 1065.96 565.14 1061.76 691.53 1203.80 652.51
00007827 DELETE   902.78 200.93 484.45 641.67 976.37 486.37 1158.79 440.99 1046.50 586.75 1050.18 708.78 1181.25 671.72
00007828 00000039 889.10 220.63 481.97 631.18 958.82 493.15 1142.41 447.89 1028.22 594.53 1037.73 716.63 1178.10 677.93
00007829 00000040 883.38 222.36 480.36 638.82 952.89 505.85 1135.12 461.91 1021.72 608.85 1028.23 727.30 1170.91 690.25
00007830 00000041 882.01 229.94 480.21 631.59 952.65 509.03 1136.57 468.69 1025.13 618.88 1029.52 729.79 1175.98 695.49
00007831 00000042 887.64 232.53 482.18 631.24 959.92 508.32 1148.84 465.61 1035.78 615.73 1037.83 730.49 1187.65 694.73
00007832 00000043 893.82 230.16 485.51 637.69 969.85 499.01 1166.00 450.21 1056.91 608.14 1056.74 730.33 1208.40 689.71
00007833 00000044 906.55 220.82 480.14 641.96 991.23 490.92 1187.11 443.11 1083.72 596.33 1079.99 725.78 1225.06 685.73
00007834 00000045 918.30 205.08 475.28 643.51 1013.45 480.10 1214.33 432.99 1115.62 583.56 1092.73 709.79 1244.79 671.59
00007835 00000046 929.35 197.08 471.12 641.00 1022.15 470.67 1225.73 424.47 1127.00 575.95 1101.15 700.26 1260.17 662.89
00007836 00000047 935.56 195.28 469.76 640.59 1030.46 466.51 1236.25 420.86 1138.12 571.49 1107.91 695.68 1272.01 658.51
00007837 00000048 941.34 193.43 468.65 640.33 1033.75 461.66 1239.74 417.50 1140.84 568.15 1111.27 693.19 1274.28 657.36
00007838 00000049 944.86 193.65 468.89 631.59 1035.61 456.97 1241.32 414.68 1141.06 563.75 1112.56 687.46 1273.90 653.09
00007839 00000050 953.50 183.16 469.48 632.70 1040.93 447.76 1243.73 408.94 1140.25 556.63 1112.25 676.60 1271.03 644.84
00007840 00000051 961.81 180.71 467.06 626.26 1045.10 438.66 1245.99 400.70 1138.13 542.94 1115.25 669.65 1266.97 638.44
00007841 00000052 964.69 177.15 467.03 619.08 1045.59 427.88 1248.11 391.98 1134.35 528.25 1111.64 654.95 1265.37 625.23
00007842 00000053 966.50 168.50 467.47 612.77 1044.66 420.91 1249.74 383.17 1131.40 513.43 1108.79 644.58 1266.68 613.22
00007843 00000054 966.94 163.84 467.59 601.24 1045.47 412.92 1249.86 368.12 1131.42 496.57 1111.69 634.92 1269.07 597.50
00007844 00000055 971.09 152.93 464.36 598.32 1040.98 401.24 1246.67 356.51 1119.67 477.22 1097.58 623.69 1257.48 585.99
00007845 00000056 969.98 149.30 465.26 595.49 1038.81 396.86 1245.73 351.56 1115.58 469.44 1093.07 617.93 1253.94 579.87
00007846 00000057 969.42 145.92 466.35 598.11 1037.85 393.21 1243.11 348.02 1111.06 465.65 1090.23 616.28 1247.12 578.28
00007847 00000058 968.17 145.00 466.19 604.35 1036.28 392.78 1240.49 345.67 1107.74 462.43 1091.37 620.89 1242.51 581.12
00007848 00000059 964.88 142.66 466.72 604.34 1035.51 391.42 1234.98 346.66 1104.65 466.74 1086.01 614.07 1240.42 577.15
00007849 00000060 963.67 144.54 465.48 601.12 1032.88 392.97 1231.21 348.09 1101.78 468.05 1083.49 613.61 1237.87 576.42
00007850 00000061 961.84 146.12 464.66 600.00 1029.07 396.43 1228.93 349.91 1099.01 471.11 1079.98 615.86 1236.37 577.35
00007851 00000062 959.93 146.97 464.49 599.94 1027.95 399.95 1225.46 353.13 1097.03 473.44 1078.77 616.69 1232.92 577.83
00007852 00000063 959.29 148.03 460.91 602.16 1026.77 401.05 1223.61 354.02 1097.30 475.26 1078.65 619.71 1231.06 580.89
00007853 00000064 957.05 148.70 461.07 602.35 1025.17 402.41 1221.25 356.34 1096.35 477.79 1077.79 620.46 1229.61 582.53
00007854 00000065 954.41 149.32 461.60 603.83 1023.18 401.19 1216.81 358.34 1094.88 481.47 1077.29 620.25 1226.23 585.10
00007855 00000066 953.38 149.31 460.21 604.31 1021.87 400.41 1213.22 359.67 1090.96 482.68 1073.92 618.78 1221.04 585.47
00007856 00000067 953.32 148.84 459.21 604.56 1020.68 401.83 1211.33 361.53 1087.80 484.99 1071.95 619.49 1219.11 586.51
00007857 00000068 951.91 148.52 458.30 606.70 1019.38 405.04 1210.24 365.01 1087.63 489.09 1071.61 621.98 1219.08 589.21
00007858 00000069 952.73 151.03 457.20 604.80 1019.67 408.57 1211.08 367.60 1088.92 492.68 1072.19 624.94 1219.53 591.45
00007859 00000070 953.46 153.90 456.55 605.77 1020.73 412.59 1212.93 371.02 1089.40 493.82 1071.84 630.38 1216.59 596.54
00007860 00000071 952.45 158.58 459.01 602.39 1020.17 416.36 1213.21 375.27 1088.96 497.87 1072.85 636.36 1214.83 602.69
00007861 00000072 949.57 158.61 463.44 603.05 1016.33 419.74 1210.99 380.53 1083.44 502.19 1066.66 635.28 1212.35 603.15
00007862 00000073 949.15 161.71 461.95 602.30 1015.22 422.68 1208.63 383.99 1079.78 502.72 1062.99 636.80 1207.83 605.03
00007863 00000074 947.73 164.01 460.10 601.69 1014.79 423.89 1206.94 383.48 1079.45 502.77 1064.11 637.74 1206.74 604.49
00007864 00000075 946.20 150.44 459.18 614.68 1011.59 425.10 1190.27 377.23 1070.24 502.18 1069.11 642.85 1198.81 604.59
00007865 00000076 945.24 150.49 460.53 614.70 1010.07 426.03 1189.00 377.84 1070.34 504.59 1069.31 643.57 1199.98 604.91
00007866 00000077 945.81 149.83 460.91 615.59 1010.71 427.83 1191.20 379.50 1071.98 507.14 1069.67 645.06 1202.01 606.25
00007867 00000078 947.94 149.88 461.92 627.52 1013.98 428.97 1191.20 381.48 1071.09 508.17 1071.82 646.97 1201.47 608.62
00007868 00000079 946.29 155.85 466.48 636.20 1011.80 426.10 1198.99 379.29 1072.06 513.14 1071.23 654.00 1209.12 614.67
00007869 00000080 945.67 154.96 462.71 632.03 1009.36 427.18 1197.96 381.29 1068.78 515.32 1066.11 653.04 1204.95 614.37
00007870 00000081 943.90 158.05 463.89 628.68 1007.05 430.34 1193.68 385.15 1063.25 517.82 1061.33 652.30 1198.65 614.31
00007871 00000082 938.99 163.23 467.91 628.23 1002.56 432.73 1186.94 389.40 1058.37 522.80 1056.52 654.08 1194.37 617.45
00007872 00000083 934.19 164.66 469.47 627.61 997.48 438.61 1181.25 394.76 1054.18 527.75 1050.92 655.22 1191.32 617.84
00007873 00000084 931.35 167.85 469.14 624.77 993.70 441.79 1177.87 397.48 1052.35 531.61 1048.87 658.26 1189.99 620.56
00007874 00000085 928.17 172.23 473.98 625.62 991.46 445.80 1176.54 399.69 1051.87 536.28 1049.32 662.31 1193.05 622.96
00007875 00000086 925.40 173.77 478.62 631.44 987.12 452.65 1173.64 404.50 1047.79 542.93 1046.20 667.06 1195.08 625.95
00007876 00000087 920.30 175.42 477.86 632.52 983.54 455.41 1172.35 407.25 1046.98 547.19 1043.14 669.24 1194.12 628.15
00007877 00000088 916.03 179.99 478.78 634.07 979.13 457.98 1167.70 409.58 1041.59 547.95 1038.96 671.57 1190.66 630.39
00007878 00000089 914.09 181.01 479.51 634.81 976.62 457.81 1165.02 410.60 1038.88 550.07 1037.11 672.21 1189.20 632.01
00007879 00000090 913.02 182.61 474.65 628.24 974.90 458.22 1159.85 411.28 1036.61 550.75 1036.30 670.36 1185.22 630.63
00007880 00000091 912.52 181.90 472.67 627.46 973.62 459.36 1157.39 412.36 1034.96 551.52 1035.03 670.13 1183.81 630.41
00007881 00000092 912.55 183.40 472.54 628.42 973.85 460.41 1156.81 413.78 1034.77 552.47 1035.06 672.12 1182.50 632.75
00007882 00000093 912.36 184.20 476.70 632.56 974.80 462.11 1158.34 415.66 1035.66 553.71 1037.10 675.76 1183.14 636.55
00007883 00000094 912.54 187.62 474.75 632.17 976.38 463.44 1158.44 418.38 1037.02 555.50 1039.64 680.42 1179.35 642.80
00007884 00000095 911.79 190.52 472.91 632.81 978.23 464.94 1156.19 420.96 1037.81 559.05 1043.72 684.47 1175.56 648.05
00007885 00000096 911.77 191.71 472.59 634.32 978.00 467.36 1155.18 422.81 1037.91 561.65 1045.95 688.96 1174.76 652.26
00007886 00000097 910.44 193.58 473.01 634.27 977.94 469.47 1155.63 424.79 1039.43 564.45 1045.77 692.59 1174.23 655.82
00007887 00000098 908.34 192.35 472.32 635.63 977.07 470.09 1154.18 425.69 1039.72 566.07 1046.53 692.36 1173.69 655.78
00007888 00000099 908.00 191.34 473.28 636.60 975.91 471.41 1154.69 425.48 1038.47 565.67 1044.57 693.64 1173.48 655.82
00007889 00000100 907.70 190.86 470.98 635.75 975.02 471.51 1153.40 425.10 1037.45 565.44 1044.36 692.96 1173.09 654.77
00007890 00000101 907.37 192.80 471.98 634.74 974.31 470.21 1151.97 424.27 1036.17 565.49 1044.25 692.68 1172.09 654.88
00007891 00000102 907.07 190.50 472.61 637.50 974.34 470.76 1151.84 423.94 1036.24 565.77 1045.88 693.75 1173.16 655.21
00007892 00000103 908.33 192.87 475.88 635.13 973.32 469.98 1154.66 423.42 1036.85 567.14 1044.25 689.77 1180.94 651.03
00007893 00000104 909.48 192.64 475.03 633.71 974.80 470.11 1154.23 423.45 1037.47 566.53 1045.57 688.82 1180.80 649.95
00007894 00000105 910.20 194.30 476.75 634.56 977.33 468.05 1155.85 423.38 1039.02 565.65 1047.31 688.23 1180.19 651.18
00007895 00000106 911.16 193.63 474.86 635.42 980.35 467.39 1157.10 425.04 1040.86 564.71 1047.80 686.38 1177.68 651.37
00007896 00000107 911.77 193.82 475.89 629.18 978.24 469.02 1159.71 424.45 1042.62 558.27 1048.61 694.11 1178.63 657.87
00007897 00000108 912.56 191.82 474.06 627.33 977.84 467.69 1160.06 424.19 1042.63 558.23 1045.83 689.31 1179.37 653.76
00007898 00000109 912.47 191.64 473.51 625.03 977.66 466.63 1159.78 423.52 1043.21 558.36 1045.42 685.75 1180.72 650.45
00007899 00000110 911.73 192.68 475.25 628.92 978.92 466.78 1158.72 422.72 1042.50 554.63 1047.71 686.45 1180.11 650.39
00007900 00000111 911.05 193.91 474.86 637.62 980.27 465.23 1154.25 420.70 1039.00 559.50 1048.37 686.39 1175.98 649.47
00007901 00000112 911.59 193.95 476.10 631.08 977.73 465.25 1155.26 419.91 1037.71 559.98 1045.87 684.88 1178.08 647.15
00007902 00000113 910.46 191.40 477.31 628.23 974.25 465.81 1154.42 420.77 1034.61 562.58 1042.33 682.09 1179.99 644.45
00007903 00000114 910.66 193.18 476.41 624.69 973.93 466.55 1154.78 421.54 1034.99 562.53 1040.68 680.52 1178.98 642.91
00007904 00000115 910.00 193.21 475.25 628.12 973.28 468.00 1153.23 420.79 1034.64 561.93 1041.26 683.01 1179.75 643.64
00007905 00000116 909.99 194.34 474.45 627.09 973.97 467.36 1152.38 421.57 1034.35 563.02 1042.59 682.62 1177.92 644.48
00007906 00000117 910.38 194.36 474.02 629.58 975.05 468.42 1152.88 421.69 1036.88 563.80 1044.86 685.55 1179.35 646.65
00007907 00000118 909.86 195.05 474.76 630.33 976.26 468.97 1154.06 422.35 1038.65 564.98 1046.46 687.11 1181.50 648.34
00007908 00000119 910.79 193.75 475.21 631.95 976.93 468.84 1156.12 422.75 1039.70 565.39 1046.36 686.79 1183.18 648.40
00007909 00000120 911.28 194.15 475.37 631.63 977.65 469.44 1157.48 422.47 1040.96 564.45 1046.75 687.06 1184.34 647.99
00007910 00000121 911.97 193.17 475.72 633.79 978.62 468.88 1157.76 422.05 1041.56 563.33 1047.11 687.46 1183.87 648.56
00007911 00000122 911.49 192.05 475.03 636.08 978.61 469.20 1158.19 421.78 1042.71 563.79 1047.85 688.88 1185.38 649.45
00007912 00000123 911.66 191.64 474.79 636.36 978.63 469.33 1158.21 421.48 1043.10 563.35 1047.49 688.71 1186.31 648.85
00007913 00000124 911.05 191.26 474.89 636.70 978.24 469.47 1158.77 421.34 1043.80 563.98 1047.70 688.89 1187.08 648.79
00007914 00000125 910.68 192.47 475.66 635.34 978.05 469.60 1159.19 421.27 1044.18 564.47 1047.59 688.86 1187.45 648.58
00007915 00000126 910.48 192.78 474.66 635.54 977.82 469.76 1158.89 421.17 1044.22 564.06 1047.49 689.07 1187.58 648.55
00007916 00000127 910.26 193.34 475.10 635.03 977.85 470.10 1159.12 421.35 1044.60 564.17 1047.64 689.21 1187.57 648.56
00007917 00000128 910.51 193.54 474.88 635.21 977.93 469.56 1159.26 421.25 1044.62 564.63 1047.86 688.93 1187.86 648.66
00007918 00000129 911.20 192.84 475.57 635.43 978.12 469.33 1160.21 420.92 1044.55 563.37 1046.93 688.57 1188.42 648.18
00007919 00000130 911.76 193.15 473.56 634.91 978.86 469.59 1160.32 421.78 1045.49 564.59 1047.16 687.91 1188.70 648.04
00007920 00000131 911.53 193.46 474.03 633.33 980.03 468.72 1161.59 422.19 1046.33 564.01 1046.99 687.17 1187.77 648.48
00007921 00000132 912.04 192.03 473.92 635.88 981.92 468.61 1163.42 422.27 1048.89 563.53 1048.33 687.20 1189.38 648.63
00007922 00000133 912.55 191.80 474.30 636.26 982.87 467.54 1164.59 421.78 1050.35 564.29 1049.98 686.77 1190.31 648.65
00007923 00000134 912.72 191.31 475.94 635.59 984.36 466.40 1167.02 420.74 1052.58 563.78 1052.28 686.27 1191.78 648.18
00007924 00000135 914.50 188.02 476.19 634.84 985.52 464.00 1169.44 419.71 1053.55 563.73 1052.28 683.59 1193.18 646.47
00007925 00000136 917.91 191.51 474.50 620.23 984.70 467.52 1168.98 419.16 1056.16 559.22 1056.79 683.68 1195.70 643.66
00007926 00000137 916.51 188.05 476.83 628.60 987.00 461.85 1171.18 418.86 1053.67 560.73 1051.56 679.08 1190.73 643.02
00007927 00000138 915.63 186.46 477.24 633.21 985.93 461.00 1170.82 416.42 1053.80 559.39 1052.80 681.79 1192.72 644.38
00007928 00000139 914.05 188.47 474.78 636.75 988.24 462.40 1167.23 416.51 1055.76 556.95 1058.01 683.30 1190.52 644.93
00007929 00000140 913.42 190.64 474.96 633.86 987.22 462.90 1168.74 417.13 1056.61 558.45 1057.43 685.00 1192.17 646.86
00007930 00000141 913.19 189.45 474.29 633.52 986.43 462.83 1167.38 418.03 1054.76 559.99 1055.04 683.81 1189.98 646.42
00007931 00000142 913.91 187.52 475.22 635.20 984.76 461.47 1166.39 416.55 1050.87 558.37 1051.63 683.03 1188.75 645.52
00007932 00000143 914.09 184.81 476.59 637.72 984.33 459.35 1167.09 411.92 1050.43 552.64 1050.89 680.68 1190.32 640.92
00007933 00000144 915.20 180.28 477.38 634.54 985.48 455.46 1170.74 406.03 1053.80 545.03 1052.58 676.24 1192.28 634.49
00007934 00000145 917.35 176.01 476.60 632.47 989.49 449.73 1174.50 400.47 1057.91 537.56 1055.10 670.56 1193.21 628.95
00007935 00000146 917.90 172.53 477.48 627.20 991.05 443.57 1178.27 397.04 1059.20 531.06 1054.21 661.92 1191.82 622.89
00007936 00000147 920.58 167.84 479.24 627.22 991.27 441.63 1178.90 393.49 1057.76 528.19 1052.82 658.58 1194.75 617.71
00007937 00000148 925.55 168.93 475.99 618.99 994.54 438.20 1182.29 391.48 1059.37 525.63 1054.51 653.60 1195.57 613.99
00007938 00000149 932.07 164.13 473.07 621.21 998.76 444.29 1179.80 393.64 1061.35 523.73 1062.02 655.51 1202.82 614.26
00007939 00000150 935.51 166.36 468.46 615.36 1000.81 445.33 1180.35 396.49 1062.45 527.76 1061.65 656.63 1203.02 617.06
00007940 00000151 934.04 171.10 469.63 614.50 999.45 445.33 1187.29 400.79 1062.95 535.23 1056.10 659.75 1199.58 621.76
00007941 00000152 931.47 177.24 469.90 617.77 998.28 448.64 1185.88 405.65 1065.34 544.98 1057.91 665.78 1200.22 629.35
00007942 00000153 926.64 178.91 474.49 634.27 998.04 453.51 1183.88 409.58 1066.50 549.48 1061.89 673.69 1201.52 636.97
00007943 00000154 923.68 183.45 475.85 635.20 997.91 456.57 1180.76 412.86 1066.74 552.22 1064.61 679.49 1197.35 643.50
00007944 00000155 921.76 186.38 476.09 634.20 996.93 459.77 1180.38 415.22 1066.82 554.71 1064.27 681.14 1198.04 644.47
00007945 00000156 921.34 187.14 477.49 630.49 996.74 460.23 1181.11 415.82 1066.73 555.32 1062.97 678.01 1199.52 641.22
00007946 00000157 923.10 183.82 475.51 628.13 997.17 457.26 1182.15 414.42 1067.07 554.82 1061.79 673.87 1200.30 638.23
00007947 00000158 924.99 181.06 474.88 632.28 999.42 455.06 1183.52 413.10 1068.33 551.37 1063.58 673.18 1200.30 638.36
00007948 00000159 927.86 180.29 472.71 632.15 999.82 453.82 1185.09 410.76 1069.28 550.02 1063.27 671.87 1203.53 636.02
00007949 00000160 931.43 180.07 468.89 626.76 1000.63 452.58 1189.24 409.36 1071.52 550.31 1061.46 668.83 1207.46 632.72
00007950 00000161 932.84 180.62 468.20 630.58 1002.04 452.59 1191.00 409.77 1074.38 550.80 1063.31 669.69 1211.30 634.05
00007951 00000162 932.66 180.70 470.10 635.30 1004.01 453.73 1191.87 410.75 1077.36 550.69 1068.14 673.63 1212.15 638.31
00007952 00000163 933.63 182.56 467.97 635.11 1005.97 454.71 1193.31 412.99 1079.79 551.23 1070.45 675.42 1211.45 641.33
00007953 00000164 934.24 183.36 467.04 630.18 1006.35 454.05 1194.57 412.83 1080.85 551.71 1069.97 673.66 1211.95 639.88
