Video ID: 	LlXbuow8hcY
H: 	1080
W: 	1920
FPS: 	25.0

FRAME INDEX X0 Y0 W H [Landmarks (5 Points)]

00025394 00000000 710.45 194.14 377.94 545.60 761.60 418.35 871.00 411.85 760.73 512.46 808.58 602.71 891.77 592.76
00025395 DELETE   718.41 193.10 375.99 547.30 768.23 417.34 881.34 411.64 774.28 515.28 820.08 602.63 906.89 593.17
00025396 DELETE   727.05 195.88 376.00 542.68 778.57 422.46 893.01 415.37 788.19 515.75 829.18 603.28 920.94 592.80
00025397 DELETE   731.27 198.29 375.29 539.13 779.89 422.58 894.27 420.59 787.05 519.60 825.26 600.46 920.42 594.02
00025398 00000004 730.24 199.21 372.63 540.37 777.16 424.50 885.20 422.03 777.44 519.64 825.05 603.88 911.98 596.57
00025399 00000005 729.22 200.92 373.61 542.26 772.76 424.58 880.62 421.74 769.73 522.29 821.26 606.39 907.49 598.60
00025400 00000006 730.09 198.57 373.47 547.40 775.04 425.68 881.64 417.34 773.74 518.25 827.56 608.77 912.05 596.42
00025401 00000007 736.41 193.67 364.86 550.50 777.20 423.00 879.63 416.99 778.92 527.59 827.15 612.72 916.60 606.76
00025402 00000008 737.93 191.66 361.43 552.81 778.10 422.28 880.80 416.56 780.03 528.15 827.33 611.56 918.62 605.95
00025403 00000009 728.35 198.46 377.66 545.74 773.21 422.17 881.63 415.14 772.30 519.65 825.28 607.52 912.12 596.47
00025404 00000010 729.23 192.28 377.00 548.33 772.68 418.38 881.14 415.16 770.04 516.05 820.15 602.91 908.16 595.31
00025405 DELETE   732.21 186.28 380.37 554.28 775.98 413.83 898.01 410.63 785.48 514.26 824.43 601.70 919.89 595.05
00025406 DELETE   735.56 175.85 390.87 567.07 788.25 415.17 918.07 406.19 811.62 507.56 837.80 603.60 936.36 593.28
00025407 DELETE   742.55 178.13 395.21 564.70 793.95 411.40 930.77 400.64 825.88 508.24 848.23 600.56 955.99 588.61
00025408 00000014 747.14 179.86 399.04 563.90 798.04 411.65 937.70 401.75 831.22 509.06 851.12 598.78 964.78 587.75
00025409 00000015 748.26 178.24 401.57 564.35 800.22 409.33 941.35 401.29 832.37 507.46 849.61 598.35 963.43 589.07
00025410 00000016 749.42 174.88 398.72 567.68 799.44 408.25 941.23 401.82 826.73 507.45 843.12 599.65 958.33 591.91
00025411 00000017 752.46 173.76 394.42 570.01 800.91 406.94 939.52 401.80 824.47 507.13 843.00 599.09 956.32 592.26
00025412 00000018 754.09 176.97 394.03 565.53 804.02 405.55 943.43 400.77 829.08 505.40 843.92 594.01 960.61 587.68
00025413 00000019 755.86 178.97 399.46 561.80 807.63 404.76 952.90 401.73 843.05 508.42 846.63 590.08 969.81 585.61
00025414 00000020 751.06 178.29 407.29 561.14 810.67 397.18 961.65 398.10 846.13 512.71 847.41 590.34 973.85 588.55
00025415 00000021 752.03 178.46 401.61 558.70 809.82 397.81 957.34 399.74 842.62 513.38 845.53 587.48 970.65 586.45
00025416 00000022 749.32 175.90 398.02 555.81 800.95 393.15 951.27 399.07 831.38 511.03 836.83 584.32 959.63 587.09
00025417 00000023 749.81 170.39 394.58 557.99 800.52 388.11 949.35 396.54 826.30 505.54 833.67 579.36 953.88 584.12
00025418 00000024 753.45 169.99 399.01 557.44 807.64 387.40 954.79 395.14 833.95 503.18 837.78 577.92 958.19 582.57
00025419 00000025 759.60 168.22 403.32 560.20 817.17 389.16 966.46 392.70 845.11 500.24 843.93 580.95 968.14 582.55
00025420 00000026 764.79 168.15 402.56 559.51 822.08 389.54 970.99 391.29 850.70 498.57 851.69 582.42 974.76 582.34
00025421 00000027 766.35 169.48 399.21 559.00 824.21 388.74 971.41 391.06 852.18 498.31 851.66 580.72 977.20 580.86
00025422 00000028 765.67 169.06 399.15 563.80 824.71 387.48 969.41 389.32 851.04 497.38 853.20 581.17 974.71 580.57
00025423 00000029 766.39 168.97 396.86 562.49 823.54 388.73 965.75 388.37 846.86 495.02 854.07 581.18 973.67 578.77
00025424 00000030 766.90 173.27 397.46 557.40 821.42 387.28 963.97 386.01 842.67 494.05 853.62 581.56 974.28 578.52
00025425 00000031 767.36 170.57 396.57 559.79 821.64 385.87 963.74 383.18 842.78 491.22 854.39 580.53 975.48 576.38
00025426 00000032 771.91 168.94 393.35 557.05 825.95 386.68 968.86 381.58 853.01 488.82 860.02 579.39 980.84 573.34
00025427 00000033 778.71 174.12 390.08 554.24 834.05 385.16 974.07 379.02 858.17 484.45 865.75 576.09 988.73 568.95
00025428 00000034 780.14 175.83 388.34 552.36 835.19 384.33 973.73 378.40 857.37 482.58 866.54 575.28 988.46 568.27
00025429 00000035 778.59 173.24 388.33 552.89 831.73 382.56 971.76 378.22 853.66 482.16 862.32 574.07 984.46 568.49
00025430 00000036 780.76 172.61 386.54 553.73 833.91 380.18 972.76 376.66 854.73 479.96 863.65 572.46 985.91 567.55
00025431 00000037 788.44 175.78 380.49 545.02 840.49 381.29 977.39 380.09 867.46 482.77 866.06 569.98 994.01 568.28
00025432 00000038 791.20 176.30 376.99 543.24 844.25 380.05 981.83 379.11 873.10 481.58 869.03 567.68 999.01 566.51
00025433 00000039 791.43 176.74 377.33 544.01 843.72 381.83 980.92 381.21 870.41 482.19 867.59 568.98 996.79 568.00
00025434 00000040 787.16 174.96 384.25 549.40 839.52 380.83 975.93 376.65 857.48 479.02 866.71 571.51 988.72 566.14
00025435 00000041 789.61 181.80 381.18 538.92 842.27 384.53 978.43 382.39 868.04 483.97 868.90 570.88 996.37 568.56
00025436 00000042 792.62 177.79 374.42 538.42 844.90 383.43 981.91 382.00 873.71 483.08 871.76 568.28 999.44 566.84
00025437 00000043 795.62 177.04 375.37 536.74 847.42 379.59 985.29 378.27 876.24 477.47 872.88 565.74 1000.57 564.68
00025438 00000044 796.13 175.94 376.74 533.72 847.38 380.29 983.96 377.01 874.61 474.94 872.73 564.47 999.89 561.82
00025439 00000045 798.31 177.11 375.38 531.45 849.43 378.54 985.60 377.23 875.72 473.13 871.88 563.22 996.71 562.55
00025440 00000046 797.92 176.60 382.62 532.25 848.51 378.05 985.36 375.94 875.09 472.94 872.16 565.09 994.08 563.86
00025441 00000047 799.10 175.28 385.99 538.08 849.20 377.05 987.65 373.90 874.96 471.48 873.37 568.38 995.16 566.52
00025442 00000048 799.95 170.93 382.07 537.27 847.76 377.01 987.16 373.91 874.99 472.12 872.93 570.17 990.20 568.84
00025443 00000049 798.01 166.77 380.59 542.55 842.41 378.05 984.67 373.21 868.92 478.19 874.88 572.44 988.36 566.87
00025444 00000050 798.19 168.65 383.05 543.21 844.05 378.28 987.23 365.41 871.05 467.93 878.63 576.19 990.34 562.78
00025445 00000051 799.13 165.44 379.80 540.79 845.99 372.93 986.26 371.58 874.24 470.84 869.25 569.63 983.25 569.74
00025446 00000052 796.43 160.78 375.89 545.86 838.75 376.92 979.50 371.94 865.78 477.80 871.47 570.82 982.98 565.37
00025447 00000053 794.49 160.87 374.21 544.43 836.61 377.53 976.60 373.26 863.84 478.77 868.30 569.99 978.33 565.19
00025448 00000054 792.46 161.40 373.79 542.86 833.32 378.71 973.79 373.82 860.56 478.68 867.13 570.95 976.72 565.55
00025449 00000055 789.62 161.68 378.06 545.12 830.74 378.44 970.67 373.07 857.44 478.38 864.85 570.34 974.37 564.56
00025450 00000056 787.63 159.57 381.29 549.93 829.00 378.55 968.35 375.07 855.32 479.63 858.96 566.10 972.11 562.02
00025451 00000057 784.65 158.03 378.50 550.94 825.21 377.60 964.36 374.01 849.97 477.03 853.89 564.87 966.40 560.61
00025452 00000058 779.09 156.70 381.03 550.99 818.64 375.96 960.15 372.96 844.91 475.95 845.42 563.28 959.31 559.63
00025453 00000059 770.60 159.93 382.67 545.46 810.68 372.57 952.38 369.24 836.54 473.82 837.77 560.13 950.68 555.93
00025454 00000060 762.94 160.31 383.28 545.96 804.01 371.06 944.72 368.04 829.37 472.13 834.18 562.65 942.41 558.45
00025455 00000061 745.59 158.16 388.54 553.47 793.42 376.78 936.10 368.78 819.32 476.97 829.84 574.82 932.81 569.84
00025456 00000062 743.59 164.67 381.04 555.08 787.93 386.29 926.47 373.03 813.67 475.53 822.54 584.99 927.21 571.54
00025457 00000063 732.92 173.95 377.34 550.03 786.09 390.43 916.12 385.76 811.98 484.95 813.95 588.92 915.60 586.98
00025458 00000064 728.18 176.69 383.32 553.86 780.74 396.38 915.36 382.66 802.03 484.83 817.83 598.15 909.48 585.59
00025459 00000065 724.95 176.48 388.61 552.29 778.61 396.33 914.44 382.42 800.61 485.24 815.70 597.07 908.50 584.49
00025460 00000066 724.63 177.57 388.95 547.63 781.37 392.52 916.98 379.78 803.98 479.52 814.13 590.81 910.21 579.62
00025461 00000067 727.86 178.25 383.51 541.93 781.78 390.20 916.06 377.14 801.49 476.51 810.40 587.22 912.01 575.96
00025462 00000068 728.14 175.16 379.72 544.17 772.26 390.08 914.00 374.82 797.90 474.57 803.83 589.53 910.30 574.46
00025463 00000069 723.15 171.59 385.08 550.01 776.63 390.05 910.42 378.63 792.62 475.61 803.64 589.03 899.66 579.27
00025464 00000070 718.60 174.19 382.17 554.55 773.40 391.03 903.07 382.58 788.62 477.93 803.44 593.85 887.61 586.07
00025465 00000071 715.66 172.98 384.39 557.67 768.50 392.58 900.60 384.51 787.13 487.22 804.09 597.12 891.31 589.34
00025466 00000072 712.70 173.77 384.04 556.78 765.85 390.39 899.39 386.43 784.52 491.26 798.43 591.68 897.86 587.01
00025467 00000073 712.00 173.37 386.24 554.76 764.39 389.92 899.50 386.43 784.19 491.14 794.78 589.59 898.56 585.35
00025468 00000074 713.18 173.72 389.82 550.21 764.30 388.45 901.11 384.94 785.18 490.96 791.40 588.78 896.63 585.01
00025469 00000075 716.10 173.82 389.58 548.07 766.98 387.76 903.04 382.53 786.79 486.99 793.74 586.94 898.87 581.77
00025470 00000076 720.46 175.86 386.68 546.83 773.07 387.98 906.06 381.54 790.54 481.78 800.52 583.73 907.30 577.33
00025471 00000077 723.43 174.71 384.88 543.35 777.37 387.25 910.49 381.32 795.62 480.74 803.33 581.59 909.71 575.78
00025472 00000078 728.26 177.55 379.63 540.46 772.60 387.89 912.66 376.68 799.50 477.39 804.94 580.84 916.35 568.74
00025473 00000079 731.88 175.74 381.32 537.01 785.94 382.98 917.19 386.36 809.50 479.41 803.53 570.45 914.23 574.36
00025474 00000080 734.94 171.53 378.74 538.73 785.14 383.69 919.37 381.22 812.61 480.82 808.88 572.51 922.90 571.53
00025475 00000081 738.77 167.18 377.63 541.54 787.42 380.90 922.07 376.41 816.69 478.70 812.80 572.11 927.48 569.81
00025476 00000082 739.18 168.46 392.12 542.84 784.79 376.88 930.89 371.89 813.86 486.48 823.33 573.97 931.06 571.46
00025477 00000083 743.37 165.13 390.76 544.96 789.91 374.75 934.18 374.04 817.21 486.73 825.46 570.81 933.45 571.77
00025478 00000084 745.06 168.77 393.40 549.09 795.18 376.99 938.04 374.36 821.19 482.96 832.18 573.19 939.66 571.41
00025479 00000085 746.56 168.97 392.76 548.04 797.35 378.25 943.71 378.22 827.33 487.53 832.73 572.76 943.54 572.78
00025480 00000086 746.86 175.02 393.96 545.31 797.16 380.91 943.56 382.20 825.62 489.51 830.39 574.95 942.08 575.97
00025481 00000087 748.68 175.51 390.44 545.14 797.29 384.00 943.59 385.14 825.26 492.97 830.36 577.63 942.78 578.61
00025482 00000088 751.56 177.17 391.50 545.14 801.11 387.81 946.87 389.38 827.13 495.96 832.57 579.43 946.36 580.39
00025483 00000089 756.09 178.23 395.36 549.60 807.24 388.81 953.70 388.08 831.81 495.38 837.30 584.29 952.88 582.84
00025484 00000090 763.77 172.31 389.25 549.01 816.28 388.75 962.12 385.71 842.68 495.10 847.10 586.55 960.39 583.69
00025485 00000091 772.99 167.06 391.63 551.93 822.38 397.08 967.10 382.81 857.54 492.57 857.21 585.41 973.36 572.81
00025486 00000092 780.65 172.77 389.36 544.32 831.89 385.36 972.01 378.55 855.00 484.44 862.65 584.91 970.29 578.41
00025487 00000093 783.50 173.14 386.43 543.81 835.44 384.76 972.63 380.50 856.93 483.70 862.05 583.46 968.13 579.30
00025488 00000094 780.13 172.41 387.17 545.44 828.93 390.20 973.93 384.13 861.66 487.93 851.55 579.71 967.26 574.57
00025489 00000095 776.35 169.65 383.42 552.99 823.27 392.53 970.51 385.03 857.87 489.37 845.70 585.19 962.71 578.67
00025490 00000096 764.74 171.86 385.79 552.47 815.74 385.99 965.65 390.09 842.46 494.38 838.61 588.96 950.56 592.08
00025491 00000097 758.08 180.41 387.12 544.99 808.73 386.89 959.40 392.88 835.88 498.64 834.14 587.01 948.10 591.69
00025492 00000098 758.32 180.57 384.90 539.99 807.41 386.61 958.01 392.07 835.33 498.04 832.28 583.87 949.16 588.46
00025493 00000099 762.26 171.02 389.28 547.43 812.52 385.04 963.13 386.73 841.71 495.08 836.27 584.01 953.78 585.62
00025494 00000100 769.50 166.66 390.07 548.01 820.47 382.58 966.78 381.24 848.58 489.21 844.76 579.79 963.37 578.46
00025495 00000101 772.01 167.48 390.40 546.85 822.89 380.93 967.66 381.15 848.68 487.11 845.12 577.18 962.54 576.97
00025496 00000102 765.05 168.01 395.18 550.43 818.92 382.55 966.07 384.85 846.06 490.64 842.01 578.19 959.74 579.82
00025497 00000103 756.79 177.26 395.04 542.96 808.52 385.58 959.46 388.23 838.34 495.16 836.14 578.35 955.84 580.44
00025498 00000104 753.67 179.60 392.40 545.83 800.48 389.30 951.16 393.52 830.53 503.35 832.18 582.33 955.09 585.10
00025499 00000105 750.01 184.66 394.19 544.58 797.99 392.25 947.75 396.44 826.83 504.71 830.74 583.64 951.50 585.90
CROP_BBOX: 467 0 1427 889
