Video ID: 	SHgAQn9rHeg
H: 	1080
W: 	1920
FPS: 	23.976023976023978

FRAME INDEX X0 Y0 W H [Landmarks (5 Points)]

00015538 00000000 888.55 171.16 510.15 662.29 1047.81 379.72 1266.58 478.98 1099.28 524.05 969.01 623.92 1142.79 706.43
00015539 00000001 883.54 170.82 512.26 660.06 1042.61 381.05 1260.15 480.30 1094.73 525.61 964.31 622.22 1138.46 704.73
00015540 00000002 872.46 178.06 507.72 653.69 1032.79 386.10 1248.08 481.64 1084.47 527.85 957.10 625.61 1129.70 704.87
00015541 00000003 855.47 172.82 509.01 667.43 1004.89 388.67 1225.17 464.43 1066.28 533.42 946.48 635.34 1114.06 699.47
00015542 00000004 843.59 172.90 496.39 668.83 986.49 392.10 1210.43 463.17 1050.08 534.98 931.48 639.66 1101.26 700.34
00015543 00000005 831.06 172.36 495.00 667.34 970.44 395.49 1190.82 475.91 1022.60 539.53 909.73 643.45 1081.23 710.31
00015544 00000006 822.46 173.23 488.78 669.03 959.86 399.79 1178.88 476.86 1014.79 546.18 903.19 647.04 1076.52 710.81
00015545 00000007 816.69 171.08 484.61 678.65 952.67 401.07 1172.05 480.11 1011.35 550.22 894.59 651.75 1071.29 717.11
00015546 00000008 815.37 175.17 482.08 672.36 945.46 407.78 1169.09 484.54 1015.64 550.10 895.09 650.52 1076.08 714.26
00015547 00000009 812.58 179.64 480.36 673.63 944.87 414.57 1165.98 488.95 1017.67 555.64 896.76 653.56 1080.61 715.23
00015548 00000010 813.27 185.32 481.42 676.22 945.37 420.31 1167.38 491.81 1021.90 559.46 898.32 661.38 1085.21 720.86
00015549 00000011 818.52 184.73 480.26 683.96 950.12 427.68 1170.22 497.67 1024.45 564.39 904.54 669.50 1087.64 727.49
00015550 00000012 823.70 186.53 476.07 690.60 954.49 432.90 1175.01 500.37 1028.51 565.83 908.66 677.71 1091.48 733.84
00015551 00000013 828.57 189.29 476.16 690.74 957.11 436.06 1177.59 505.09 1027.05 569.67 911.87 682.07 1091.49 739.56
00015552 DELETE   831.55 191.43 477.55 694.50 957.28 438.53 1179.17 506.17 1025.08 581.41 913.66 690.59 1088.04 747.19
00015553 00000015 832.64 191.29 481.17 698.75 956.89 441.48 1180.91 511.08 1023.44 590.10 914.88 695.88 1089.86 753.80
00015554 DELETE   834.06 196.11 483.20 699.12 959.90 443.89 1183.71 516.67 1024.62 598.04 914.46 700.14 1091.72 760.55
00015555 00000017 832.84 199.01 485.51 696.67 962.11 445.46 1185.91 520.59 1026.12 600.67 914.24 700.97 1092.43 763.05
00015556 00000018 831.53 201.02 486.62 695.95 962.47 445.33 1186.39 521.89 1026.78 600.38 912.65 700.85 1091.83 764.18
00015557 00000019 830.37 204.86 482.73 691.23 960.15 446.57 1184.08 523.23 1025.55 601.91 910.63 700.83 1090.49 764.25
00015558 00000020 830.81 209.86 478.31 684.79 957.65 452.20 1179.29 526.71 1022.40 602.99 909.43 701.22 1086.75 762.86
00015559 DELETE   826.29 208.82 475.94 686.74 953.39 453.26 1173.32 525.46 1020.23 603.58 905.35 700.92 1082.30 760.79
00015560 00000022 812.83 210.45 474.12 682.88 940.65 453.52 1162.28 522.25 1013.57 604.63 896.96 700.69 1072.95 758.11
00015561 00000023 803.68 208.62 475.35 684.68 931.28 453.64 1153.74 519.94 1005.74 609.82 891.74 701.78 1066.90 757.11
00015562 00000024 796.34 206.52 475.81 690.94 922.31 455.17 1147.27 517.19 1001.88 612.73 885.72 707.04 1060.96 758.88
00015563 DELETE   781.78 206.34 482.34 683.70 907.99 449.33 1140.09 512.67 992.05 605.16 872.18 701.32 1055.62 755.45
00015564 DELETE   780.41 208.73 483.42 682.16 908.04 451.62 1134.50 514.18 985.94 598.01 868.87 699.86 1048.70 753.32
00015565 00000027 774.27 209.69 483.08 684.16 899.99 455.58 1127.12 511.91 978.60 596.89 864.10 706.03 1041.81 754.50
00015566 DELETE   765.29 208.28 487.80 688.83 894.09 460.05 1121.25 512.96 971.23 601.15 860.81 711.71 1036.69 757.37
00015567 DELETE   767.44 212.28 477.31 690.41 891.54 463.13 1114.37 525.78 965.47 616.46 854.49 718.46 1029.91 769.79
00015568 00000030 763.79 210.96 474.78 694.12 887.53 464.82 1111.42 527.20 964.63 618.41 848.99 721.27 1027.80 772.39
00015569 00000031 760.99 215.83 472.16 692.96 885.42 467.36 1109.19 529.12 963.62 620.30 846.81 723.52 1026.33 774.28
00015570 00000032 759.01 216.28 471.56 694.09 885.30 468.47 1105.72 530.04 961.46 620.81 848.24 723.41 1022.98 774.13
00015571 00000033 758.52 219.04 471.40 693.90 884.83 468.71 1105.00 529.85 961.77 621.22 847.87 724.49 1021.75 775.19
00015572 00000034 757.95 222.37 470.60 691.77 884.51 471.37 1103.59 531.10 961.37 621.61 846.81 725.37 1020.76 775.03
00015573 DELETE   761.60 220.82 468.81 694.33 883.85 478.27 1102.75 534.91 961.04 622.47 848.75 728.71 1022.70 775.60
00015574 DELETE   761.20 222.98 470.94 696.96 883.39 479.45 1103.71 535.21 962.09 624.95 848.47 730.99 1025.50 777.06
00015575 DELETE   758.65 221.56 474.00 704.42 883.49 476.51 1105.79 534.66 964.43 628.45 847.54 732.72 1028.20 780.71
00015576 00000038 756.97 223.26 476.33 705.02 884.44 476.31 1109.26 536.31 967.17 632.04 848.92 735.06 1031.48 784.47
00015577 00000039 755.83 222.97 476.97 706.36 884.45 476.65 1111.01 536.58 969.97 634.34 849.14 736.47 1034.17 785.75
00015578 00000040 755.85 223.24 476.72 703.22 884.33 477.66 1112.91 538.39 970.13 637.25 849.70 737.39 1035.35 787.23
00015579 00000041 755.85 226.91 476.19 698.25 883.65 480.84 1112.83 540.01 970.48 640.66 853.08 739.25 1038.32 787.74
00015580 00000042 755.42 230.96 475.91 693.72 883.80 484.04 1112.20 544.08 970.33 648.03 853.06 740.30 1038.62 789.49
00015581 00000043 754.95 237.44 474.16 690.12 881.29 486.78 1109.36 547.56 966.45 652.93 852.00 745.23 1037.20 795.18
00015582 00000044 752.08 242.42 476.27 685.35 876.93 491.29 1107.86 551.01 961.95 659.42 849.20 751.12 1033.34 800.57
00015583 00000045 749.93 245.41 476.77 684.74 875.20 494.89 1105.81 554.98 960.54 662.17 848.00 754.50 1031.02 804.44
00015584 00000046 746.28 238.88 476.71 691.24 873.02 490.99 1103.98 550.01 960.03 658.55 844.77 753.06 1027.54 802.03
00015585 00000047 743.24 237.29 478.81 692.06 871.95 489.33 1103.27 548.05 961.29 656.56 843.07 750.19 1027.14 799.04
00015586 00000048 741.54 238.72 476.64 684.90 872.07 488.34 1102.88 546.95 962.97 654.81 840.04 744.66 1027.67 793.36
00015587 00000049 740.82 237.65 476.23 686.68 870.79 487.54 1100.98 545.91 960.21 653.34 838.37 743.85 1025.77 792.31
00015588 00000050 738.97 235.94 476.16 692.48 868.50 488.07 1096.90 545.35 956.15 651.68 838.44 747.01 1019.77 794.69
00015589 00000051 736.79 235.82 477.43 697.71 866.44 487.16 1094.17 545.66 951.59 651.47 834.84 749.03 1012.93 797.97
00015590 00000052 735.45 233.74 476.53 698.48 863.57 487.56 1091.70 545.24 949.92 651.62 831.71 748.13 1011.50 796.31
00015591 00000053 732.44 234.05 476.32 695.85 862.48 486.87 1090.70 543.17 951.83 647.24 829.40 743.96 1012.40 790.89
00015592 00000054 728.33 230.61 477.09 697.29 861.80 484.27 1089.08 541.85 952.65 643.99 825.96 738.68 1010.34 786.81
00015593 00000055 727.24 227.32 476.00 697.43 859.64 484.80 1087.43 540.42 951.94 642.66 825.47 737.81 1009.38 784.26
00015594 00000056 725.78 228.52 476.23 698.33 856.78 486.86 1085.92 540.05 950.51 643.07 824.42 740.53 1009.80 784.94
00015595 00000057 724.57 228.91 475.01 697.65 854.51 488.10 1083.90 539.74 949.43 644.54 824.46 742.21 1008.88 785.44
00015596 00000058 724.30 232.35 473.37 693.85 853.02 490.05 1081.80 540.97 948.33 647.37 824.50 743.99 1008.02 786.68
00015597 00000059 724.36 234.10 469.79 693.75 851.55 491.58 1080.23 542.08 947.30 649.06 822.37 744.29 1006.83 786.71
00015598 DELETE   726.00 235.66 465.55 690.43 852.12 498.42 1076.14 546.91 946.01 651.51 822.22 744.25 1004.37 784.80
00015599 DELETE   721.94 238.05 468.09 686.68 849.52 497.98 1073.96 546.63 943.88 652.13 820.94 743.93 1003.25 784.58
00015600 00000062 717.23 233.95 473.55 693.48 847.16 492.72 1076.18 541.98 943.85 650.99 818.63 743.92 1003.81 785.25
00015601 00000063 715.36 232.85 476.96 694.60 846.55 491.99 1075.87 540.78 943.50 649.38 819.15 743.73 1004.58 784.73
00015602 00000064 715.81 232.93 475.69 694.65 845.98 493.24 1074.74 540.72 943.48 650.14 819.40 744.40 1004.93 784.28
00015603 00000065 715.22 231.92 476.77 697.64 845.49 494.66 1074.56 541.21 942.76 651.85 820.40 746.36 1005.43 785.52
00015604 00000066 716.85 232.30 474.95 698.99 843.50 497.36 1072.30 543.15 940.07 657.70 821.07 751.07 1004.67 789.77
00015605 00000067 716.59 237.18 474.71 697.25 841.88 503.30 1070.32 546.81 938.69 662.13 821.32 756.35 1003.31 793.34
00015606 00000068 716.38 237.87 474.15 699.72 839.61 505.39 1068.70 547.92 936.58 667.07 820.81 760.68 1002.82 796.94
00015607 00000069 713.35 236.82 474.33 699.07 838.93 502.79 1067.46 545.77 937.32 663.63 819.28 757.10 1002.12 793.74
00015608 00000070 710.83 236.97 475.90 696.43 839.16 499.90 1067.99 544.31 937.35 662.85 819.07 755.31 1001.61 793.12
00015609 00000071 711.43 237.28 474.86 694.55 839.03 500.37 1067.48 543.84 938.01 661.88 819.08 754.43 1001.23 791.49
00015610 00000072 711.98 236.67 474.99 693.60 838.66 499.36 1068.06 543.27 937.36 662.19 818.68 754.07 1001.52 791.52
00015611 00000073 711.77 235.19 475.39 694.08 838.99 497.51 1068.93 542.77 937.18 661.44 818.26 752.27 1001.80 790.75
00015612 00000074 712.21 234.67 474.73 690.93 838.64 497.48 1068.95 542.85 937.69 661.24 817.47 750.71 1002.15 789.20
00015613 00000075 710.94 234.35 473.58 689.58 838.76 496.05 1069.11 542.54 937.93 659.55 816.18 748.45 1001.30 787.84
00015614 00000076 706.75 233.20 475.44 690.31 837.62 495.39 1068.64 542.97 938.21 659.66 814.50 747.53 1001.18 787.81
00015615 00000077 700.70 230.25 480.64 689.92 834.88 493.69 1060.29 543.61 928.44 659.57 813.36 746.18 994.64 786.87
00015616 00000078 698.23 230.51 480.87 691.79 831.23 492.96 1057.41 543.91 923.94 659.07 809.85 747.05 991.60 788.36
00015617 00000079 696.18 232.01 477.98 690.97 827.02 493.02 1054.28 543.19 919.94 659.75 806.92 748.57 989.34 789.35
00015618 00000080 694.47 233.70 476.12 689.63 824.26 493.19 1052.45 543.47 917.54 660.70 804.34 748.89 988.06 789.79
00015619 00000081 693.35 234.96 474.16 687.68 822.50 493.94 1049.97 544.24 914.95 661.07 802.57 749.07 985.89 790.16
00015620 00000082 693.13 237.42 472.48 684.98 819.72 493.53 1047.89 543.62 912.06 661.49 800.57 749.15 985.09 789.99
00015621 00000083 691.93 237.66 473.59 683.28 818.55 492.71 1046.85 543.84 910.05 660.47 798.33 747.56 983.38 789.36
00015622 00000084 692.06 236.38 472.16 683.68 817.28 492.07 1046.04 543.55 908.74 660.34 796.43 746.91 982.24 789.07
00015623 00000085 691.13 236.90 472.80 684.93 815.13 490.08 1044.89 541.66 906.55 659.26 794.04 746.56 981.75 788.78
00015624 00000086 690.33 236.28 472.51 685.28 813.75 489.90 1044.94 541.00 905.95 658.81 793.34 747.14 981.94 789.04
00015625 00000087 689.93 235.25 472.84 687.68 812.79 489.20 1044.36 540.94 904.09 656.89 792.14 747.21 980.75 789.53
00015626 00000088 688.67 234.31 474.04 687.39 812.20 489.30 1044.11 540.68 904.19 654.11 790.88 745.43 980.68 787.39
00015627 00000089 687.21 231.02 472.10 688.43 811.35 486.97 1042.59 538.49 902.78 648.98 787.99 741.80 977.49 783.73
00015628 00000090 685.02 228.47 469.33 688.12 807.56 482.98 1039.66 533.44 898.30 643.34 782.96 738.13 972.89 779.25
00015629 DELETE   685.32 228.24 465.66 685.39 807.39 486.14 1034.40 537.39 893.36 640.33 779.56 735.26 965.32 777.30
00015630 DELETE   683.65 230.66 464.06 685.90 802.10 487.24 1029.68 537.31 887.66 641.39 775.97 739.47 960.74 780.66
00015631 00000093 680.82 232.97 462.36 686.55 790.10 486.36 1022.81 532.53 877.99 647.46 772.34 751.04 954.27 789.42
00015632 DELETE   680.91 232.61 458.26 688.23 789.26 494.30 1018.23 537.18 877.53 650.76 772.67 752.42 952.43 788.02
00015633 DELETE   679.33 232.86 460.51 687.21 788.97 496.25 1018.02 539.72 878.01 651.26 770.20 752.12 950.95 788.20
00015634 00000096 676.39 234.59 458.73 686.75 785.72 490.27 1015.79 535.49 875.18 652.05 766.68 751.58 949.08 789.18
00015635 DELETE   674.00 234.60 461.45 688.52 784.60 486.92 1016.29 535.50 870.83 652.04 766.01 752.84 945.41 793.41
00015636 00000098 671.30 234.31 464.80 694.21 785.28 484.90 1016.26 535.89 869.72 649.03 762.83 751.18 943.17 793.73
00015637 00000099 671.27 233.11 463.99 688.02 785.65 483.91 1015.34 535.47 869.64 647.39 762.32 746.83 942.06 789.72
00015638 00000100 668.03 232.87 469.20 693.40 784.94 481.80 1012.25 531.90 867.76 643.28 759.74 744.88 939.87 786.75
00015639 00000101 666.53 233.44 466.05 684.24 785.22 479.93 1009.34 531.56 866.63 639.28 757.26 738.67 932.95 782.16
00015640 00000102 665.85 229.63 469.09 694.71 782.91 478.42 1007.57 529.30 862.75 640.03 756.18 738.17 938.91 780.64
00015641 00000103 665.78 229.56 469.99 687.09 782.80 477.38 1007.34 530.46 861.90 640.35 754.21 735.61 935.59 780.05
00015642 00000104 665.48 229.22 466.54 684.32 782.68 476.37 1006.15 529.76 862.45 638.43 754.75 734.48 931.40 779.36
00015643 00000105 664.94 228.89 467.03 685.62 783.08 476.11 1005.58 530.96 862.51 638.25 754.27 734.94 928.99 781.04
00015644 00000106 663.75 229.08 467.58 684.46 782.34 476.76 1004.64 531.93 862.09 639.80 752.88 735.12 927.11 781.55
00015645 00000107 660.52 227.85 469.62 688.73 779.29 477.25 1001.63 531.83 858.34 640.53 749.30 734.31 925.88 780.28
00015646 00000108 660.20 226.80 466.87 691.69 774.53 477.57 999.16 530.78 852.89 641.93 746.32 737.38 924.35 782.33
00015647 00000109 660.66 229.21 464.43 686.96 770.37 479.83 996.94 532.37 849.34 643.39 744.32 740.19 921.85 784.71
00015648 00000110 657.75 229.30 464.87 685.99 765.29 481.77 996.49 533.51 847.81 647.94 741.98 740.74 922.01 784.77
00015649 00000111 657.27 229.16 463.07 684.71 764.14 482.56 997.45 534.76 847.10 648.99 739.79 740.40 921.31 784.82
00015650 00000112 657.08 231.75 472.32 688.30 764.02 483.46 995.51 535.57 843.69 650.00 740.65 744.08 919.61 788.56
00015651 00000113 658.07 234.81 478.75 695.10 767.14 485.12 996.31 538.09 843.89 651.83 742.23 748.95 917.21 794.22
00015652 00000114 658.93 235.39 474.09 700.04 768.43 486.55 996.38 540.11 845.27 655.76 742.19 751.26 918.04 797.02
00015653 00000115 660.17 240.45 471.96 694.40 769.85 489.19 997.33 541.73 847.45 660.21 744.55 752.93 920.01 797.71
00015654 00000116 657.64 248.25 491.97 697.73 772.37 491.30 1001.01 545.62 847.38 664.57 745.43 760.61 923.64 806.73
CROP_BBOX: 453 0 1576 1080
