Video ID: 	RfZxyR5AHjA
H: 	1080
W: 	1920
FPS: 	59.94006309148265

FRAME INDEX X0 Y0 W H [Landmarks (5 Points)]

00057087 00000000 739.29 88.44 425.44 690.36 796.09 350.53 1017.74 361.73 863.48 485.74 803.85 606.47 974.49 618.22
00057088 DELETE   738.67 83.68 426.30 701.53 802.17 345.58 1016.66 353.89 863.42 479.07 808.64 603.64 983.58 611.20
00057089 00000002 739.42 96.79 423.15 670.39 795.99 347.67 1019.74 357.70 858.63 488.37 804.83 609.03 977.61 618.39
00057090 00000003 736.64 84.78 425.97 701.20 799.75 347.69 1013.71 355.71 859.71 478.99 806.59 605.23 979.27 612.67
00057091 00000004 736.45 91.66 427.49 685.14 794.03 353.46 1014.64 363.72 859.73 485.54 803.32 606.81 971.03 617.42
00057092 00000005 736.48 91.83 427.41 684.74 794.02 353.43 1014.61 363.76 859.76 485.75 803.31 606.85 970.99 617.49
00057093 00000006 728.23 91.82 432.22 679.34 797.83 349.87 1014.17 361.59 856.17 489.18 804.93 601.40 977.52 609.80
00057094 DELETE   728.39 91.24 431.83 680.11 797.80 349.61 1013.73 361.43 856.06 489.74 804.97 601.28 977.73 609.74
00057095 00000008 727.74 92.66 431.08 680.28 798.04 350.98 1013.74 360.77 857.32 489.53 807.21 604.39 976.17 611.41
00057096 00000009 727.87 92.82 431.19 679.88 798.05 350.91 1013.70 360.65 857.14 489.53 807.55 604.34 976.35 611.31
00057097 00000010 724.52 97.73 433.47 681.01 797.46 351.75 1010.70 361.29 857.93 489.17 807.75 604.66 977.40 611.54
00057098 DELETE   724.53 96.58 433.17 682.07 797.33 352.03 1010.67 361.36 858.09 489.68 807.81 604.74 977.61 611.44
00057099 00000012 722.83 98.94 430.86 680.84 796.13 350.57 1009.41 359.56 857.73 487.06 805.53 603.45 978.37 609.78
00057100 00000013 722.91 98.76 430.92 681.22 796.41 350.47 1009.68 359.55 858.03 487.14 805.68 603.46 978.39 609.86
00057101 00000014 723.59 93.25 429.98 683.68 795.98 351.21 1010.09 357.39 858.89 483.82 805.49 601.73 980.82 605.87
00057102 DELETE   723.66 92.80 429.36 684.05 795.86 351.23 1010.38 357.47 858.67 483.61 804.98 601.94 980.68 606.13
00057103 00000016 721.03 95.84 429.19 672.70 795.43 352.33 1005.52 359.80 856.44 479.94 802.34 596.86 977.02 601.52
00057104 DELETE   722.03 96.19 428.63 672.72 795.33 352.53 1004.82 359.36 855.89 480.23 802.79 597.39 976.88 601.45
00057105 00000018 721.63 97.25 430.24 665.51 791.92 355.08 1001.74 367.48 848.37 480.87 794.85 594.68 970.37 603.14
00057106 00000019 721.76 97.40 430.17 665.50 792.10 355.19 1001.78 367.44 848.50 480.78 795.00 594.81 970.48 603.15
00057107 00000020 719.91 93.50 429.18 667.03 787.81 352.10 996.57 366.20 841.07 479.82 788.54 590.68 964.76 600.87
00057108 00000021 720.05 93.25 428.95 667.46 787.81 351.97 996.73 366.05 841.26 480.17 788.75 590.70 965.10 600.85
00057109 DELETE   716.09 90.64 425.56 677.65 783.47 348.67 992.06 360.86 836.64 479.44 785.31 590.52 961.23 599.24
00057110 00000023 716.67 89.85 425.19 678.38 783.28 349.40 991.48 361.11 836.74 479.55 785.38 590.52 961.44 598.90
00057111 DELETE   712.26 92.20 424.15 682.86 777.66 348.81 985.61 354.33 833.37 474.15 781.52 592.75 959.99 596.10
00057112 00000025 712.47 91.69 424.70 683.23 778.25 348.84 985.92 354.87 833.23 474.29 781.69 592.19 959.57 595.91
00057113 00000026 707.60 91.19 426.41 688.96 775.21 345.17 982.81 350.49 832.28 473.41 779.44 591.64 957.96 594.84
00057114 00000027 707.86 91.44 425.80 688.89 775.08 345.18 982.33 349.68 831.61 473.32 780.01 592.22 957.94 594.72
00057115 00000028 700.76 92.10 430.73 687.35 768.25 345.16 980.80 347.87 829.35 473.13 775.92 593.60 955.81 595.11
00057116 00000029 700.16 92.81 431.50 687.24 768.30 344.67 981.25 347.32 830.29 473.27 775.96 593.66 956.04 595.11
00057117 00000030 697.69 103.55 429.11 676.87 765.32 345.67 976.95 347.76 827.06 475.03 774.83 593.58 953.84 594.72
00057118 00000031 697.50 104.00 429.58 676.32 765.05 345.25 976.93 347.34 826.79 475.08 774.70 593.68 953.69 594.81
00057119 00000032 693.97 106.41 430.05 675.56 759.41 349.14 971.34 348.96 821.53 476.47 770.75 597.46 948.82 596.96
00057120 00000033 693.94 106.42 430.06 675.61 759.40 349.13 971.33 348.94 821.53 476.46 770.76 597.47 948.85 596.95
00057121 00000034 690.40 104.76 427.30 681.99 751.49 355.03 962.45 352.87 811.42 480.47 764.70 602.69 944.84 601.00
00057122 00000035 690.26 104.22 427.24 682.54 751.54 355.29 962.37 353.05 811.54 480.49 764.72 602.69 945.01 600.93
00057123 00000036 684.82 106.84 429.73 685.33 746.26 358.83 956.34 355.19 805.81 482.43 762.30 608.00 941.37 604.97
00057124 00000037 684.59 106.31 429.56 686.13 746.12 358.69 956.30 355.10 805.82 482.40 762.37 608.26 940.74 605.34
00057125 00000038 680.30 108.30 432.16 690.21 741.88 360.89 950.11 355.66 799.53 484.58 760.79 612.84 937.90 608.12
00057126 00000039 679.92 107.96 432.40 690.84 741.85 360.86 950.17 355.69 799.71 484.76 760.62 612.81 937.84 608.17
00057127 00000040 678.62 111.47 433.54 690.93 739.68 362.55 946.64 356.31 794.76 485.66 758.40 615.09 935.63 609.33
00057128 00000041 678.78 111.13 433.30 691.44 739.69 362.59 946.74 356.34 794.16 485.30 758.61 615.36 936.02 609.54
00057129 00000042 674.60 108.49 434.18 698.99 734.49 370.15 941.53 358.32 789.38 490.72 755.83 623.21 932.24 612.64
00057130 00000043 674.63 107.51 434.58 699.67 734.84 369.56 941.68 358.21 789.84 490.70 756.09 623.09 931.64 612.99
00057131 00000044 679.17 112.64 426.26 692.52 734.45 379.38 936.34 368.12 783.97 491.89 755.80 626.72 925.34 618.29
00057132 00000045 678.89 112.55 426.67 692.41 734.53 379.31 936.19 368.23 783.66 492.22 755.90 626.84 925.32 618.56
00057133 00000046 676.26 114.61 427.25 692.34 731.95 380.42 933.06 368.67 780.92 492.24 751.93 629.12 922.05 620.33
00057134 00000047 676.30 114.70 427.29 692.09 731.87 380.62 933.09 368.69 781.00 492.19 752.01 629.22 922.09 620.27
00057135 00000048 675.51 116.39 428.25 690.28 730.56 381.94 932.31 368.80 780.61 493.08 751.45 631.35 920.60 621.48
00057136 00000049 675.70 116.10 428.32 690.19 730.45 382.28 932.00 368.80 780.50 492.93 751.45 631.56 920.39 621.45
00057137 00000050 673.83 115.84 430.54 689.58 728.89 383.79 931.09 369.93 779.52 492.96 749.97 632.31 918.22 621.96
00057138 00000051 673.78 116.52 430.69 688.68 728.87 383.91 930.40 370.20 779.40 493.37 750.07 632.30 917.53 622.10
00057139 00000052 673.62 117.15 430.96 687.33 727.63 384.79 928.82 370.71 778.85 494.15 749.11 633.66 915.03 623.24
00057140 00000053 672.71 117.58 431.70 686.65 727.53 384.93 928.90 371.42 779.41 494.47 748.77 633.18 915.32 623.19
00057141 00000054 671.46 117.97 433.68 687.41 726.57 387.37 927.44 372.51 778.86 495.09 747.99 635.67 913.40 624.66
00057142 00000055 671.19 118.09 433.49 686.94 726.38 387.91 927.46 372.75 779.47 494.60 747.96 635.87 913.22 624.62
00057143 00000056 670.87 119.44 435.59 685.24 726.30 392.26 926.03 374.76 776.60 494.98 746.88 637.87 911.39 624.85
00057144 00000057 671.04 120.92 435.54 683.18 726.55 391.97 925.45 375.32 775.91 495.66 747.23 637.22 910.82 624.90
00057145 00000058 670.92 119.92 438.42 684.97 727.46 401.12 924.69 382.82 775.15 497.10 745.81 640.67 909.17 627.10
00057146 00000059 670.79 119.71 438.53 685.07 727.32 401.53 924.70 383.04 775.08 497.03 745.59 640.79 908.96 627.05
00057147 00000060 672.48 118.52 435.81 687.92 727.72 404.03 923.48 385.69 774.65 499.31 745.94 641.64 909.51 628.07
00057148 00000061 672.43 118.91 435.84 687.38 727.56 404.17 923.41 385.82 774.85 499.50 745.93 641.62 909.55 628.03
00057149 00000062 671.17 122.84 437.06 686.82 728.23 400.15 924.18 383.91 775.19 502.11 745.59 641.36 908.89 629.67
00057150 00000063 670.92 121.89 437.14 687.86 728.63 400.12 924.37 383.64 775.12 502.18 746.03 641.63 909.13 629.75
00057151 00000064 668.10 122.42 438.37 687.84 727.47 399.34 923.27 383.00 773.01 504.46 744.99 642.57 908.10 630.82
00057152 00000065 667.40 123.64 438.97 686.76 726.59 399.83 923.24 382.75 772.75 504.59 744.69 643.24 908.57 630.86
00057153 00000066 667.49 123.69 437.91 688.04 725.05 399.30 921.32 382.18 770.36 503.69 743.20 643.28 906.53 630.83
00057154 00000067 667.50 123.45 437.97 688.99 725.00 399.06 921.37 382.47 769.87 503.85 742.38 643.11 905.99 631.15
00057155 00000068 665.57 124.01 439.20 689.47 721.91 400.20 919.79 382.42 767.81 503.02 739.59 643.31 904.13 630.24
00057156 00000069 665.78 124.12 438.98 689.18 722.12 400.01 919.71 382.41 767.33 502.78 739.43 643.19 904.15 630.26
00057157 00000070 660.64 122.78 441.83 689.98 719.02 398.27 919.14 380.64 766.21 502.31 738.14 642.57 905.73 629.16
00057158 00000071 660.74 122.83 441.56 689.97 718.90 398.16 919.41 380.57 765.99 502.19 737.89 642.59 906.13 629.23
00057159 00000072 656.06 121.47 444.93 691.55 716.34 397.32 918.12 379.59 765.01 502.29 736.32 642.11 905.18 628.35
00057160 00000073 656.39 121.80 444.61 691.05 716.41 397.28 918.20 379.69 765.23 502.16 736.20 641.97 904.95 628.34
00057161 00000074 654.87 120.97 444.87 692.03 714.18 396.42 916.76 378.27 763.77 501.21 734.34 641.40 904.80 627.18
00057162 00000075 654.69 121.18 445.13 691.62 714.12 396.66 916.74 378.42 763.81 501.27 734.32 641.36 904.77 627.06
00057163 00000076 654.52 119.50 442.77 692.29 712.90 394.82 915.51 376.39 764.22 499.45 733.61 639.82 903.91 625.20
00057164 00000077 654.77 119.56 442.66 692.54 713.00 394.75 915.34 376.42 763.58 499.43 733.69 639.79 903.80 625.27
00057165 00000078 652.37 121.17 444.09 692.41 711.73 393.66 913.84 374.37 761.85 499.14 734.20 640.65 904.08 625.15
00057166 00000079 652.75 120.72 443.46 692.93 712.09 393.82 913.88 374.45 761.58 498.67 734.33 640.78 904.08 625.20
00057167 00000080 649.99 123.49 443.18 697.82 711.50 386.17 913.61 369.87 760.43 496.73 729.72 637.46 900.64 622.71
00057168 00000081 650.16 122.95 442.92 698.28 711.57 385.98 913.35 370.00 760.00 496.53 729.78 637.21 900.26 622.69
00057169 00000082 645.51 119.01 443.59 712.06 708.26 388.27 904.89 372.12 754.55 499.75 728.86 641.16 897.54 626.44
00057170 00000083 645.44 118.70 444.04 712.51 708.05 388.33 905.88 371.96 754.77 500.01 728.62 641.66 898.21 626.80
00057171 00000084 642.60 124.88 437.07 707.30 698.91 397.33 896.04 378.13 744.09 510.19 733.07 654.11 902.02 635.56
00057172 00000085 642.65 125.07 437.16 706.65 698.80 397.76 896.43 378.55 744.24 510.07 732.87 653.81 902.62 635.25
00057173 00000086 637.88 136.06 440.04 700.51 694.38 400.50 892.88 379.57 740.67 511.98 728.80 657.45 898.81 637.53
00057174 00000087 638.41 136.30 439.64 700.32 694.34 400.80 892.78 379.70 740.39 511.65 728.88 657.76 898.76 637.68
00057175 00000088 635.51 136.17 440.58 697.74 691.67 401.60 890.31 378.77 739.26 513.32 728.39 658.87 897.03 637.53
00057176 00000089 635.36 135.75 440.85 698.06 691.63 401.42 890.26 378.60 739.28 513.48 728.37 658.81 897.07 637.47
00057177 00000090 632.77 132.98 444.22 695.70 687.73 397.01 884.77 371.28 735.26 512.31 723.42 653.47 892.80 630.89
00057178 00000091 635.94 135.07 439.01 685.53 688.42 401.76 885.44 379.47 736.68 515.80 727.60 653.83 893.15 633.37
00057179 00000092 632.64 133.32 443.94 677.99 685.63 398.47 883.05 373.73 734.45 512.97 722.33 648.83 889.78 626.80
00057180 00000093 632.58 133.36 444.55 678.21 685.61 398.79 883.32 373.79 734.50 513.23 722.34 649.14 889.97 626.87
00057181 00000094 633.79 133.79 443.14 674.59 686.17 397.88 882.67 374.15 733.39 512.43 720.95 646.81 887.92 625.40
00057182 00000095 633.71 133.71 442.85 674.87 686.69 397.59 882.51 373.97 733.39 512.27 721.08 646.41 887.78 625.07
00057183 00000096 633.04 134.41 443.08 678.56 686.44 397.32 883.33 374.62 734.23 512.73 719.72 648.06 885.86 627.80
00057184 00000097 632.75 134.46 443.54 678.69 686.26 397.38 883.29 374.48 733.93 512.36 719.60 648.04 885.62 627.62
00057185 00000098 633.06 134.01 442.21 682.13 685.29 398.05 884.07 375.18 733.39 512.46 717.05 650.53 884.52 630.36
00057186 00000099 633.17 134.13 441.48 681.88 685.38 397.79 883.77 374.63 732.93 511.52 716.85 650.33 883.67 629.91
00057187 00000100 632.57 125.69 439.97 688.76 686.06 394.02 884.36 371.63 731.78 504.72 715.41 647.73 880.21 628.15
00057188 00000101 632.68 125.36 439.17 688.66 685.88 393.99 884.32 371.73 731.82 504.93 715.12 647.85 880.11 628.38
00057189 00000102 632.80 122.41 436.94 687.34 687.16 387.69 886.14 367.58 732.76 498.04 711.95 641.04 879.65 623.33
00057190 00000103 632.72 122.40 437.11 687.43 687.29 387.69 886.20 367.62 732.85 498.16 712.06 641.04 879.74 623.34
00057191 00000104 634.50 119.68 434.66 688.22 688.35 384.94 888.01 365.35 734.40 496.13 712.09 638.77 879.25 621.64
00057192 00000105 634.71 120.07 434.85 688.06 688.14 384.84 887.91 365.13 734.18 496.02 711.70 638.79 879.63 621.53
00057193 00000106 634.92 120.19 435.49 686.92 688.10 382.80 888.34 363.16 733.21 493.70 711.06 637.23 879.51 620.01
00057194 00000107 635.10 118.72 434.75 688.15 688.70 383.29 888.22 363.54 733.33 493.52 711.02 637.07 879.76 619.75
00057195 00000108 633.69 119.48 435.36 687.83 687.31 381.50 887.68 363.09 731.88 494.32 710.52 636.62 879.08 620.42
00057196 00000109 633.74 118.37 435.81 688.78 687.43 381.17 888.06 363.48 731.78 495.07 710.50 636.22 879.08 620.58
00057197 00000110 630.94 115.34 438.67 693.53 685.98 381.34 886.00 365.17 728.20 497.30 708.18 637.07 876.13 622.46
00057198 00000111 631.49 115.50 437.78 693.17 686.02 381.47 886.05 365.34 728.21 497.27 708.17 637.07 876.20 622.50
00057199 00000112 627.56 112.95 437.92 695.81 680.95 380.11 882.16 365.53 726.15 499.23 703.75 637.43 869.87 624.15
00057200 00000113 627.76 113.54 437.39 694.95 680.91 380.50 881.93 365.51 725.83 498.67 704.11 637.75 869.63 624.08
00057201 00000114 626.72 117.27 436.69 688.24 676.36 378.70 878.27 364.04 720.88 499.39 701.51 637.77 866.39 624.51
00057202 00000115 626.62 116.81 436.86 688.82 676.48 378.78 878.25 363.97 721.04 499.22 701.70 637.82 866.45 624.43
00057203 00000116 626.16 116.30 435.62 687.00 674.27 381.07 878.77 363.82 720.50 499.24 699.78 638.63 868.60 623.05
00057204 00000117 626.16 116.13 435.48 687.23 674.25 380.99 878.78 363.70 720.53 499.15 699.76 638.68 868.60 623.08
00057205 00000118 624.73 115.52 434.92 686.71 671.31 384.31 876.79 365.31 718.23 502.22 699.13 640.63 870.17 623.44
CROP_BBOX: 350 0 1514 1060
