Video ID: 	He7TNRK5YUE
H: 	1080
W: 	1920
FPS: 	30.0

FRAME INDEX X0 Y0 W H [Landmarks (5 Points)]

00001016 00000000 892.69 188.10 439.56 681.03 931.46 458.67 1081.82 468.75 908.07 575.29 941.68 704.21 1050.23 711.08
00001017 DELETE   893.58 180.04 441.90 698.81 937.20 455.91 1076.28 473.27 915.03 569.91 939.69 695.28 1047.48 710.41
00001018 DELETE   890.87 183.05 443.83 697.67 935.65 459.40 1073.89 476.48 911.93 569.62 938.30 695.59 1046.33 710.18
00001019 00000003 884.14 179.99 455.59 706.12 939.63 463.46 1072.15 479.84 909.55 569.81 935.03 697.98 1043.17 712.04
00001020 DELETE   886.35 180.04 450.88 701.02 938.45 460.24 1064.64 480.24 902.99 569.89 933.77 694.05 1035.65 710.32
00001021 DELETE   886.14 179.45 446.91 698.06 932.89 459.90 1061.28 477.85 900.04 569.50 931.94 694.29 1032.97 708.72
00001022 DELETE   873.70 168.33 443.78 685.60 920.50 454.44 1057.50 471.09 889.71 562.88 920.20 687.10 1024.88 700.07
00001023 00000007 867.75 165.87 436.08 680.02 911.53 458.57 1047.78 469.57 882.73 560.88 914.86 690.34 1015.39 698.80
00001024 00000008 863.66 168.37 429.85 670.38 908.54 458.15 1043.37 469.84 880.56 561.09 912.20 688.94 1010.58 698.11
00001025 00000009 863.11 168.53 421.42 674.71 907.36 460.97 1037.27 467.94 875.36 558.97 913.27 689.69 1008.60 694.73
00001026 00000010 861.92 169.77 433.52 687.91 911.49 457.32 1029.15 463.35 867.75 558.35 918.67 686.83 1014.14 690.22
00001027 00000011 861.97 169.27 429.62 686.07 910.24 457.35 1029.89 461.97 868.70 557.91 918.76 687.19 1016.37 689.52
00001028 00000012 862.15 168.68 430.97 689.47 911.98 456.05 1029.45 459.21 869.23 555.36 921.29 685.53 1017.58 686.71
00001029 00000013 862.86 168.26 429.73 681.04 909.07 452.34 1031.13 457.05 868.67 550.96 917.28 680.74 1015.92 683.06
00001030 00000014 861.83 167.23 428.06 679.32 907.81 451.86 1032.10 457.29 868.45 550.61 915.31 679.63 1015.25 682.58
00001031 00000015 862.70 167.77 429.17 678.70 908.97 451.62 1033.55 456.29 868.96 551.10 917.85 679.15 1018.52 681.28
00001032 00000016 863.70 165.94 429.52 685.74 908.88 453.29 1034.36 456.63 871.43 551.52 918.85 682.42 1020.77 683.63
00001033 00000017 861.55 164.86 430.53 687.66 908.52 454.48 1033.37 457.74 869.92 553.14 917.85 684.03 1019.94 685.17
00001034 00000018 858.77 164.66 435.72 689.28 907.77 455.77 1029.27 460.63 863.47 556.67 916.30 686.87 1014.42 688.97
00001035 00000019 853.84 167.12 430.38 683.26 901.63 454.88 1026.38 464.03 859.09 559.92 908.51 686.99 1006.26 692.91
00001036 00000020 852.46 168.40 430.40 681.98 897.71 457.46 1025.14 465.04 857.70 561.63 905.24 689.23 1004.24 694.37
00001037 00000021 849.74 169.98 427.39 680.45 889.00 459.40 1023.58 467.93 855.56 564.02 898.86 691.23 1001.03 697.59
00001038 00000022 843.86 171.19 434.56 689.97 880.26 465.77 1017.85 470.02 847.49 569.78 892.74 700.53 997.56 703.39
00001039 00000023 840.32 184.01 439.16 687.30 881.23 468.47 1018.21 472.13 850.07 577.67 896.62 705.24 995.47 706.78
00001040 00000024 835.51 188.26 445.04 684.34 882.50 474.94 1012.32 477.47 846.59 581.86 896.21 707.58 990.62 707.70
00001041 00000025 831.98 184.75 448.31 697.70 881.39 473.91 1010.36 476.60 843.90 583.86 896.30 710.99 992.43 710.81
00001042 00000026 834.20 184.05 445.62 701.02 881.54 476.02 1009.75 476.78 846.10 586.77 900.15 714.66 994.43 713.06
00001043 00000027 836.30 182.70 439.32 699.55 880.81 471.21 1015.41 474.02 849.43 589.03 900.51 717.70 997.20 717.84
00001044 00000028 840.07 189.21 441.64 686.53 887.11 468.98 1020.27 473.82 854.71 588.05 901.58 715.08 997.66 716.95
00001045 00000029 849.52 180.27 433.41 696.82 891.67 462.89 1017.94 474.60 871.90 585.15 899.21 704.12 992.81 715.02
00001046 00000030 852.53 177.19 437.30 702.04 898.76 459.63 1023.75 474.75 877.60 581.77 904.29 696.76 999.09 710.36
00001047 00000031 854.30 177.23 438.94 700.41 895.56 458.17 1029.94 471.84 883.59 582.78 902.96 697.04 1002.60 709.83
00001048 00000032 855.78 178.78 440.33 693.48 896.98 458.74 1033.27 470.83 886.33 581.94 903.20 695.43 1003.39 707.07
00001049 00000033 850.65 182.26 443.21 677.15 889.32 458.00 1038.22 464.12 874.17 581.49 907.45 700.84 1016.77 704.84
00001050 00000034 854.99 175.44 447.39 679.99 892.79 456.57 1045.98 459.76 879.81 578.41 913.06 702.91 1023.28 704.32
00001051 00000035 857.29 175.14 447.79 679.09 895.18 455.59 1049.53 459.63 882.75 576.95 914.06 701.19 1024.97 703.43
00001052 00000036 867.52 169.50 446.12 699.33 907.02 455.70 1058.29 460.74 901.65 568.33 912.06 694.19 1025.15 699.59
00001053 00000037 866.87 168.84 453.35 684.18 902.07 458.16 1062.94 458.14 892.05 567.40 915.13 698.27 1032.56 697.82
00001054 00000038 868.13 171.23 451.70 678.21 907.50 460.98 1064.13 465.51 896.91 566.54 916.72 693.42 1032.83 696.93
00001055 00000039 872.99 171.31 453.36 685.78 912.04 463.16 1070.73 466.93 904.14 560.55 919.23 694.01 1037.73 697.75
00001056 DELETE   879.18 178.77 450.06 690.21 919.40 459.29 1078.33 468.71 914.90 565.85 924.90 694.70 1042.12 703.72
00001057 DELETE   880.64 172.84 449.82 692.53 920.21 456.84 1080.30 463.39 918.30 564.70 926.73 694.60 1044.49 701.50
00001058 00000042 886.92 175.05 449.31 694.32 924.36 449.27 1084.34 457.38 924.46 564.81 934.06 694.27 1051.05 702.31
00001059 00000043 889.90 172.90 449.43 695.59 928.22 444.82 1090.70 451.87 929.38 560.57 936.85 693.38 1052.83 701.11
00001060 00000044 891.02 170.89 446.72 697.41 930.25 443.24 1094.85 448.40 932.41 557.44 938.23 693.84 1054.59 700.27
00001061 00000045 897.30 169.81 444.45 702.63 936.05 438.52 1100.04 444.77 938.48 554.42 940.22 692.64 1056.97 700.36
00001062 00000046 896.80 172.65 453.89 702.74 939.25 436.33 1105.24 437.17 927.58 549.09 946.12 699.55 1064.43 700.57
00001063 00000047 897.95 172.89 457.14 701.73 940.76 437.70 1106.79 436.68 929.21 547.61 949.25 698.73 1068.91 698.16
00001064 00000048 901.19 170.34 455.59 705.38 944.03 435.58 1114.14 436.15 936.89 545.61 951.90 694.85 1080.68 695.35
00001065 00000049 906.44 164.50 452.50 715.23 949.10 426.30 1121.36 433.78 954.07 542.88 951.57 683.51 1087.57 691.73
00001066 00000050 908.53 165.29 449.79 712.73 951.37 426.60 1124.74 433.10 958.16 542.58 955.83 683.59 1092.99 690.91
00001067 00000051 914.06 167.37 449.88 703.22 958.07 426.77 1128.99 431.29 965.52 541.08 966.10 679.59 1102.51 685.02
00001068 00000052 920.04 163.45 439.68 700.69 958.22 424.91 1127.06 426.96 963.93 540.08 967.94 674.69 1096.95 678.37
00001069 00000053 921.74 159.65 438.02 704.86 960.12 422.74 1130.47 424.76 965.95 537.13 968.46 671.80 1101.16 675.40
00001070 00000054 914.05 166.34 455.73 698.89 965.32 420.76 1145.25 429.23 970.27 540.61 969.25 671.02 1112.43 678.30
00001071 00000055 919.18 161.94 456.65 699.26 969.39 421.88 1156.18 426.69 980.47 536.50 971.62 670.37 1120.30 675.26
00001072 00000056 918.97 161.02 464.83 695.28 972.51 421.63 1161.59 426.83 983.90 534.01 972.72 668.42 1123.74 673.90
00001073 00000057 927.91 165.04 454.37 695.98 982.41 415.22 1170.32 424.67 991.92 531.28 979.88 659.70 1136.56 668.10
00001074 00000058 934.09 159.39 453.09 702.98 987.65 409.96 1182.29 419.08 1004.57 527.78 983.01 659.97 1146.07 668.34
00001075 00000059 932.97 161.43 458.69 702.33 989.60 409.47 1187.36 418.94 1010.64 525.99 983.29 659.37 1148.42 668.31
00001076 00000060 932.55 148.45 470.62 726.87 995.16 403.24 1191.72 412.48 1015.35 521.01 992.14 656.30 1166.21 663.46
00001077 00000061 943.80 158.14 459.20 711.87 995.86 410.66 1197.12 415.67 1019.19 512.42 992.41 655.95 1169.29 661.40
00001078 00000062 946.48 156.90 457.39 714.23 999.02 413.77 1198.33 417.43 1020.93 513.28 995.16 655.81 1173.86 660.01
00001079 DELETE   936.36 143.47 478.51 732.36 1013.13 412.63 1199.30 420.71 1027.90 520.73 1004.86 654.18 1179.68 659.31
00001080 00000064 942.06 145.13 477.11 726.99 1017.43 412.93 1203.53 421.82 1032.59 524.61 1010.83 653.00 1185.08 658.37
00001081 00000065 943.31 150.58 477.52 719.29 1019.37 412.81 1206.89 423.07 1035.74 524.07 1012.07 650.58 1185.67 657.33
00001082 00000066 957.01 159.79 463.34 692.14 1016.85 416.44 1218.63 420.36 1046.43 519.04 1011.52 651.17 1186.11 656.13
00001083 00000067 946.51 141.17 477.78 719.49 1022.01 412.62 1220.93 427.69 1048.16 528.86 1009.10 652.47 1188.92 663.92
00001084 00000068 958.98 153.70 469.16 702.04 1021.62 405.98 1225.70 421.55 1048.17 528.17 1007.44 647.52 1182.32 660.96
00001085 00000069 960.01 156.34 468.56 699.06 1023.36 404.83 1227.49 422.05 1051.36 528.36 1008.11 647.09 1181.98 662.31
00001086 00000070 962.30 161.43 465.95 692.45 1023.38 406.72 1228.57 422.47 1053.67 529.79 1008.34 649.39 1183.50 663.50
00001087 00000071 962.75 161.44 466.60 693.03 1022.93 408.08 1228.55 423.77 1052.53 530.76 1007.89 650.50 1184.01 664.47
00001088 00000072 953.30 150.13 474.95 708.33 1023.72 413.91 1227.56 429.87 1053.53 535.32 1009.03 659.11 1186.23 671.86
00001089 00000073 953.53 149.90 475.16 708.62 1025.12 412.66 1226.36 429.34 1053.14 534.76 1010.76 658.47 1184.85 671.74
00001090 00000074 953.87 149.79 475.03 709.99 1025.41 413.17 1226.92 429.73 1053.49 535.14 1010.59 660.60 1184.20 673.86
00001091 00000075 964.94 169.27 458.39 683.39 1023.97 418.08 1225.43 428.80 1056.75 527.33 1016.04 663.85 1175.33 675.35
00001092 00000076 973.05 172.15 454.87 686.86 1024.30 422.05 1225.73 430.58 1055.91 531.44 1019.49 673.12 1178.52 683.50
00001093 00000077 974.93 173.01 453.94 685.77 1023.62 422.99 1226.99 431.66 1056.41 532.74 1018.69 675.75 1179.18 686.39
00001094 00000078 977.36 171.50 451.14 684.78 1023.59 423.58 1226.92 432.14 1059.77 533.92 1019.17 676.97 1178.87 687.05
00001095 00000079 976.76 172.77 452.07 681.89 1024.00 422.37 1227.52 432.95 1058.77 532.44 1016.17 674.74 1174.47 686.39
00001096 00000080 976.90 173.05 451.25 676.22 1024.87 421.85 1227.31 433.08 1058.58 530.79 1015.92 671.82 1172.30 684.09
00001097 00000081 971.81 172.69 457.78 668.27 1026.87 423.91 1225.76 435.43 1057.51 526.94 1017.45 664.31 1170.48 676.82
00001098 00000082 961.74 172.94 466.63 670.46 1031.04 421.20 1222.87 436.24 1054.46 521.40 1015.45 656.19 1160.58 671.99
00001099 00000083 960.63 156.40 460.51 690.67 1026.93 413.76 1212.72 438.35 1046.76 517.01 1012.08 651.38 1154.66 674.14
00001100 00000084 948.05 148.90 480.80 708.52 1029.31 414.03 1216.95 432.15 1039.84 525.84 1005.66 653.59 1160.41 668.50
00001101 00000085 944.98 140.97 482.44 713.78 1025.54 407.08 1210.96 424.91 1032.44 521.87 1002.35 649.48 1156.38 664.44
00001102 00000086 945.47 139.95 481.68 715.02 1026.97 407.02 1209.58 423.86 1031.69 520.39 1003.99 649.29 1155.28 663.51
00001103 00000087 944.57 137.11 482.25 721.61 1026.13 403.37 1208.42 418.73 1029.27 518.41 1005.81 652.12 1153.65 664.95
00001104 00000088 950.92 160.45 466.38 694.04 1017.63 398.95 1205.58 415.04 1025.03 503.75 999.94 649.63 1139.93 666.27
00001105 00000089 950.61 158.86 463.71 696.21 1016.15 397.80 1204.83 415.58 1023.64 505.54 998.51 649.39 1140.65 667.29
00001106 00000090 954.09 163.20 459.42 686.34 1016.18 400.65 1201.81 416.80 1024.14 507.92 1002.73 649.55 1142.48 665.79
00001107 00000091 959.53 156.66 449.75 692.43 1010.61 401.30 1195.25 420.84 1017.07 509.21 998.68 649.93 1141.76 668.21
00001108 00000092 956.96 153.72 454.30 693.76 1010.07 402.13 1193.96 422.09 1015.65 509.40 996.43 648.69 1139.52 667.41
00001109 00000093 952.25 165.01 460.57 676.18 1011.57 405.30 1198.27 421.42 1020.42 511.64 997.50 648.98 1138.37 665.19
00001110 00000094 954.20 150.08 452.45 691.05 1012.79 416.02 1190.07 437.04 1017.20 510.45 997.62 648.66 1133.79 668.11
00001111 00000095 950.61 147.97 455.13 695.39 1011.87 417.17 1189.45 437.52 1015.12 509.46 995.63 650.33 1132.69 669.30
00001112 00000096 952.47 150.56 453.60 693.62 1012.39 416.90 1189.36 435.81 1014.88 509.54 995.40 651.93 1132.30 669.75
00001113 00000097 954.20 156.09 452.04 692.03 1009.41 416.14 1193.16 433.31 1015.89 511.06 993.25 656.44 1130.83 673.07
00001114 00000098 951.34 162.84 460.16 681.29 1010.56 411.30 1199.56 425.31 1021.27 515.74 995.43 657.62 1133.25 672.51
00001115 00000099 951.35 164.91 460.60 687.45 1014.21 401.49 1201.54 419.23 1021.60 510.94 994.03 654.25 1129.41 672.05
00001116 00000100 956.39 165.57 456.76 684.84 1017.33 400.86 1200.83 417.36 1023.86 510.72 999.81 653.06 1130.21 669.81
00001117 00000101 946.24 147.88 475.16 712.33 1026.51 398.37 1203.59 419.70 1019.40 519.37 998.30 651.29 1141.92 669.09
00001118 00000102 944.98 149.40 474.98 709.98 1025.73 394.93 1201.31 421.19 1016.09 515.96 993.22 644.83 1137.03 667.19
00001119 00000103 956.12 152.62 450.59 692.74 1017.87 396.32 1201.71 423.19 1026.95 507.95 986.13 641.73 1125.22 665.79
00001120 00000104 956.47 147.58 448.36 694.50 1016.36 395.69 1201.99 422.86 1027.00 509.44 985.32 641.73 1125.02 666.11
00001121 00000105 957.04 150.41 445.92 691.51 1015.55 400.15 1201.24 423.25 1030.47 512.89 989.34 645.01 1131.48 665.85
00001122 00000106 952.65 167.48 453.51 682.61 1010.68 407.98 1196.41 424.89 1020.36 519.28 994.53 657.93 1130.18 675.01
00001123 00000107 954.14 167.74 456.43 681.14 1009.94 417.41 1195.53 433.06 1018.64 524.17 996.48 661.66 1132.15 677.63
00001124 00000108 955.39 167.06 448.53 674.19 1008.71 427.15 1188.34 433.68 1008.93 519.01 993.81 668.04 1126.60 675.57
00001125 00000109 953.25 169.26 446.73 671.57 1006.66 427.87 1187.17 435.79 1008.48 520.17 988.72 668.22 1121.68 677.39
00001126 00000110 952.65 168.78 448.01 673.99 1003.67 426.89 1187.26 434.55 1005.83 522.38 986.97 670.89 1121.38 679.73
00001127 00000111 949.98 161.09 452.86 690.21 1001.26 421.02 1185.34 437.00 1009.73 527.34 990.41 670.55 1121.17 686.22
00001128 00000112 950.24 172.11 451.08 673.90 1003.42 412.44 1191.08 434.68 1016.54 532.52 988.52 667.24 1121.91 688.36
00001129 00000113 951.74 171.47 450.21 677.27 1002.96 413.72 1191.48 435.70 1016.57 533.68 989.00 668.96 1123.82 689.82
00001130 00000114 952.18 172.51 447.05 674.03 1002.12 414.12 1190.85 438.21 1016.88 536.74 989.25 667.85 1124.87 690.22
00001131 00000115 951.22 171.53 447.23 672.67 1001.43 414.48 1190.25 438.70 1016.88 537.47 989.80 667.10 1126.34 689.50
00001132 00000116 950.10 171.55 448.23 672.89 1001.70 413.90 1190.32 438.99 1016.84 537.76 989.91 666.48 1126.28 689.61
00001133 00000117 949.58 163.80 446.96 684.98 997.74 419.50 1185.29 439.70 1012.62 534.39 993.23 669.42 1125.29 688.27
00001134 00000118 947.76 166.43 451.70 680.73 1002.40 427.77 1185.11 445.64 1012.38 539.48 993.16 671.37 1129.23 688.28
00001135 00000119 950.26 155.65 449.49 692.62 1000.19 434.16 1178.40 451.47 1005.90 534.90 995.29 670.09 1125.91 686.52
00001136 00000120 949.70 156.32 450.06 693.96 999.72 436.07 1178.89 451.48 1007.54 534.53 994.46 671.85 1125.25 686.71
00001137 00000121 950.45 159.40 448.98 694.72 997.91 430.93 1180.43 445.29 1007.76 535.08 995.11 674.28 1127.08 688.37
00001138 00000122 949.98 161.81 447.75 691.61 997.50 425.66 1182.23 442.78 1009.66 534.89 994.50 672.23 1127.12 688.59
00001139 00000123 949.45 169.28 450.26 684.78 1000.51 414.76 1188.93 438.12 1013.78 538.91 990.63 670.69 1130.61 692.01
00001140 00000124 949.39 171.27 450.49 682.16 1000.12 412.84 1189.63 436.23 1015.30 540.11 990.69 670.27 1130.51 691.72
00001141 00000125 948.92 171.14 452.56 681.81 999.93 413.89 1188.74 435.10 1014.62 538.46 991.20 670.23 1130.05 689.98
00001142 00000126 950.35 172.74 451.36 677.92 999.90 413.41 1189.13 432.29 1014.29 536.51 990.99 670.44 1129.57 688.33
00001143 00000127 950.78 169.99 451.21 678.28 999.40 413.91 1188.96 430.86 1013.43 534.32 989.68 669.90 1129.49 686.31
00001144 00000128 951.74 165.63 451.40 685.35 997.88 416.57 1185.78 431.00 1010.63 528.84 991.99 670.07 1125.61 684.26
00001145 00000129 950.72 162.85 452.17 688.21 998.76 416.64 1185.87 430.09 1010.16 526.37 991.96 669.00 1126.09 682.41
00001146 00000130 950.12 167.82 452.22 681.88 1001.79 413.28 1190.17 429.35 1014.97 528.03 990.20 667.31 1127.77 683.16
00001147 00000131 949.97 166.87 452.24 684.19 1002.31 413.28 1190.31 429.49 1015.77 527.28 990.70 667.01 1127.53 683.06
00001148 00000132 948.46 157.37 455.16 695.94 1001.32 427.53 1180.87 438.19 1006.33 522.31 993.06 667.86 1126.65 678.78
00001149 00000133 949.02 156.26 454.13 699.06 1004.64 430.32 1182.10 443.63 1006.71 521.82 993.44 667.16 1126.86 680.26
00001150 00000134 949.30 155.98 454.44 702.05 1005.76 429.55 1182.56 443.38 1006.78 521.57 994.02 666.31 1127.34 679.83
00001151 00000135 944.93 168.25 461.78 698.53 1006.32 421.11 1191.66 438.24 1013.57 525.76 992.67 669.57 1131.60 686.36
00001152 00000136 947.05 168.84 458.80 700.20 1005.62 413.93 1193.71 431.09 1014.93 523.88 992.05 671.39 1131.46 688.20
00001153 00000137 946.73 169.27 460.32 703.06 1005.81 413.03 1194.82 429.50 1015.72 523.39 991.20 672.20 1131.94 688.64
00001154 00000138 946.83 172.68 458.76 701.19 1007.78 410.19 1195.24 427.12 1015.29 521.13 990.02 672.23 1129.45 688.86
00001155 00000139 947.33 173.09 458.59 702.79 1007.76 410.23 1193.73 425.10 1014.53 520.47 991.37 674.49 1130.69 689.17
00001156 00000140 947.59 174.04 460.15 705.11 1007.82 410.60 1192.99 425.00 1014.44 521.04 991.93 675.29 1132.34 689.48
00001157 00000141 945.84 171.78 462.81 711.51 1007.54 408.61 1192.18 424.48 1012.61 521.89 991.27 674.59 1133.31 689.89
00001158 00000142 944.99 169.55 462.15 713.47 1006.20 406.19 1191.53 423.57 1012.05 523.82 989.82 674.67 1133.56 691.07
00001159 00000143 943.82 171.28 461.56 712.31 1005.10 406.35 1190.66 423.79 1012.12 525.00 989.69 674.32 1134.36 690.59
00001160 00000144 943.17 171.89 460.60 714.61 1004.72 404.77 1190.27 423.43 1012.00 525.96 990.22 674.58 1136.09 691.62
00001161 00000145 942.80 172.46 460.65 717.59 1005.81 405.11 1189.36 424.25 1012.59 527.00 991.05 674.91 1137.36 692.14
00001162 00000146 942.07 171.97 461.42 718.28 1005.14 406.67 1189.29 424.82 1011.93 527.40 990.56 675.38 1137.55 691.85
00001163 00000147 942.29 170.71 460.85 714.85 1003.31 405.39 1188.61 426.07 1012.11 528.64 990.63 671.58 1140.64 690.12
00001164 00000148 950.19 162.28 449.08 708.79 1004.99 424.38 1178.74 440.02 1004.69 520.19 998.46 664.94 1142.04 679.01
00001165 00000149 950.73 162.73 450.16 700.70 1005.21 424.45 1178.05 440.75 1003.89 520.47 1000.22 662.13 1143.10 676.81
00001166 00000150 948.75 159.45 450.83 693.91 1002.39 424.74 1179.02 441.66 1004.39 522.06 997.14 657.66 1140.13 673.03
00001167 00000151 948.23 157.21 453.25 687.83 998.85 423.80 1179.23 435.63 1007.05 522.61 996.73 658.86 1138.36 670.44
00001168 00000152 947.11 160.22 451.42 679.91 997.64 420.92 1178.71 433.69 1007.27 521.85 994.92 656.36 1135.11 668.76
00001169 00000153 945.97 159.07 453.56 676.53 995.04 416.50 1178.25 430.65 1006.48 521.67 991.75 654.86 1132.61 668.40
00001170 00000154 946.92 162.30 449.14 673.79 995.56 415.45 1180.27 429.89 1009.26 520.08 991.64 652.81 1133.72 666.55
CROP_BBOX: 671 0 1750 1061
