Video ID: 	9liYalnsPa4
H: 	1080
W: 	1920
FPS: 	25.0

FRAME INDEX X0 Y0 W H [Landmarks (5 Points)]

00004830 00000000 1107.54 126.54 411.18 579.98 1154.57 367.42 1324.44 342.68 1201.07 447.95 1189.13 566.51 1324.07 546.37
00004831 00000001 1107.31 121.68 415.21 577.87 1155.07 368.24 1331.11 346.49 1206.00 453.75 1187.56 565.16 1332.65 547.28
00004832 00000002 1107.74 124.85 418.97 572.82 1155.02 368.62 1330.92 345.54 1207.25 454.76 1189.48 564.49 1334.77 545.40
00004833 DELETE   1107.30 122.77 416.88 579.63 1150.69 369.31 1321.81 340.91 1197.30 456.55 1186.67 566.90 1329.64 541.51
00004834 DELETE   1095.16 146.52 418.86 557.05 1140.07 379.35 1301.16 343.11 1178.64 459.44 1182.67 574.87 1318.79 545.11
00004835 00000005 1097.30 156.21 408.93 547.00 1137.08 381.04 1299.62 347.22 1176.88 460.75 1175.36 566.62 1323.02 537.28
00004836 DELETE   1103.28 163.59 418.64 537.64 1148.22 368.43 1326.32 336.77 1209.27 459.61 1196.96 564.54 1351.77 539.43
00004837 DELETE   1114.80 171.23 410.57 534.49 1175.97 360.79 1357.41 328.61 1248.85 451.28 1221.00 557.69 1385.86 528.38
00004838 00000008 1117.37 168.57 409.69 545.41 1177.70 356.93 1359.78 326.00 1248.81 449.76 1221.78 555.37 1392.79 526.40
00004839 DELETE   1106.02 169.27 410.01 552.49 1161.55 372.21 1329.62 333.56 1217.50 452.75 1207.31 561.32 1374.78 528.36
00004840 00000010 1098.88 170.97 395.94 553.20 1150.06 368.62 1317.70 329.23 1206.28 454.85 1197.69 567.64 1362.04 534.63
00004841 00000011 1105.50 162.90 406.07 571.97 1160.35 369.42 1334.93 324.76 1224.01 454.88 1210.61 570.80 1385.70 533.22
00004842 00000012 1110.66 162.04 406.07 577.45 1165.01 371.18 1340.70 317.93 1233.66 453.76 1220.73 574.46 1393.79 530.02
00004843 DELETE   1097.51 175.50 412.85 569.17 1153.09 379.60 1326.14 326.49 1218.72 464.05 1211.56 579.40 1385.57 533.41
00004844 00000014 1086.19 173.25 414.75 568.51 1140.60 390.74 1304.21 339.03 1199.69 473.90 1201.82 582.43 1370.41 536.26
00004845 DELETE   1088.83 180.60 417.07 556.87 1144.39 394.84 1309.04 343.96 1207.76 486.59 1207.33 579.55 1380.33 534.22
00004846 00000016 1093.20 179.13 419.63 554.78 1148.55 393.06 1318.76 332.87 1221.03 482.34 1214.37 576.45 1393.05 523.84
00004847 DELETE   1092.33 186.84 418.41 545.26 1145.94 386.25 1307.95 331.43 1204.94 468.59 1207.61 570.05 1378.13 521.41
00004848 DELETE   1084.68 174.26 412.02 554.92 1132.92 378.77 1288.37 324.40 1174.67 452.08 1192.49 564.73 1357.56 515.62
00004849 00000019 1077.89 170.30 409.16 556.75 1123.65 372.69 1281.93 316.06 1166.02 451.17 1188.41 564.99 1353.57 513.40
00004850 00000020 1077.15 177.52 405.39 546.35 1124.73 379.33 1281.77 321.48 1171.26 453.08 1187.76 567.27 1350.40 514.98
00004851 00000021 1076.19 184.98 405.92 536.61 1121.59 391.70 1277.80 329.68 1168.68 469.22 1190.94 577.53 1347.27 521.53
00004852 00000022 1069.59 199.30 405.57 520.14 1115.99 397.28 1272.37 338.07 1164.24 483.65 1187.69 584.75 1340.22 531.03
00004853 00000023 1066.12 206.22 408.00 514.08 1113.74 400.61 1271.55 341.15 1163.12 489.71 1186.80 588.35 1339.49 534.48
00004854 00000024 1069.94 209.71 404.85 512.03 1116.85 400.97 1276.53 342.11 1168.26 491.51 1187.93 588.64 1344.42 535.59
00004855 00000025 1068.21 208.26 408.73 516.31 1117.24 405.40 1277.82 345.47 1171.54 495.32 1188.85 591.17 1347.79 536.89
00004856 00000026 1066.73 208.48 407.63 515.69 1115.58 405.50 1276.40 347.79 1169.91 497.66 1186.95 592.51 1345.73 539.91
00004857 00000027 1068.02 206.65 406.30 517.46 1116.43 403.85 1277.96 348.51 1170.82 495.52 1183.94 589.98 1344.60 539.63
00004858 00000028 1069.87 206.26 404.69 517.10 1118.62 400.67 1281.38 348.03 1173.27 493.50 1181.71 585.82 1345.30 537.88
00004859 00000029 1072.62 197.31 403.37 527.13 1120.67 399.03 1284.28 347.84 1176.89 489.92 1179.89 580.93 1347.62 534.55
00004860 00000030 1074.81 191.16 405.68 533.99 1122.93 396.84 1288.19 347.79 1180.47 485.36 1180.59 577.05 1351.49 532.56
00004861 00000031 1078.65 184.60 401.64 539.87 1128.51 393.90 1293.54 347.05 1186.62 477.52 1180.74 572.99 1352.27 531.21
00004862 00000032 1081.82 171.36 400.57 549.93 1131.10 388.88 1297.26 345.27 1189.41 471.87 1179.28 567.72 1352.44 528.81
00004863 00000033 1083.74 152.79 400.13 563.25 1132.72 386.15 1298.61 346.35 1187.13 470.10 1178.59 562.63 1351.62 527.08
00004864 00000034 1086.04 155.81 400.07 556.66 1135.41 382.22 1301.95 344.36 1189.60 466.01 1177.61 557.39 1351.61 523.66
00004865 00000035 1091.12 163.05 397.78 544.30 1139.53 375.56 1305.64 338.30 1193.22 460.19 1177.96 551.29 1351.74 518.44
00004866 00000036 1092.35 161.83 401.72 539.33 1140.75 368.49 1312.85 332.09 1194.82 454.00 1177.32 546.17 1353.77 514.00
00004867 00000037 1095.95 155.48 402.61 541.48 1143.96 362.42 1317.24 329.07 1196.25 449.59 1175.27 540.68 1352.41 511.78
00004868 00000038 1095.48 142.53 409.58 548.84 1143.46 354.57 1323.41 324.39 1196.29 447.18 1173.34 536.40 1351.71 510.17
00004869 00000039 1098.98 139.76 407.01 554.15 1149.53 348.42 1327.94 322.24 1200.36 441.04 1174.60 532.48 1346.77 509.83
00004870 00000040 1100.17 137.05 408.57 563.44 1153.10 342.86 1331.30 318.50 1203.53 436.14 1176.17 533.38 1343.67 512.54
00004871 00000041 1100.61 139.23 409.03 560.69 1154.47 340.69 1332.93 318.80 1203.94 435.23 1175.39 534.34 1339.21 515.86
00004872 00000042 1101.05 135.86 407.48 563.00 1154.47 342.63 1332.56 320.95 1203.39 436.16 1175.04 535.58 1337.95 517.40
00004873 00000043 1101.44 133.51 405.93 564.10 1154.50 343.98 1332.28 323.13 1205.11 439.12 1176.03 537.33 1339.68 519.76
00004874 00000044 1102.00 137.13 404.74 559.63 1154.79 345.06 1332.27 324.33 1206.60 439.72 1177.33 538.60 1340.61 520.97
00004875 00000045 1102.66 139.09 403.96 555.98 1155.51 345.35 1333.42 325.45 1208.25 441.44 1178.90 539.65 1339.99 522.83
00004876 00000046 1103.25 138.55 406.22 558.25 1157.31 346.91 1335.23 325.95 1210.29 441.75 1181.98 542.58 1340.05 525.22
00004877 00000047 1104.79 140.45 405.72 557.74 1159.22 348.06 1337.26 327.00 1212.47 443.29 1185.49 545.97 1339.87 528.58
00004878 00000048 1105.72 144.15 403.34 553.02 1160.30 350.43 1336.62 329.16 1213.07 444.67 1188.42 549.18 1339.91 531.79
00004879 00000049 1106.59 144.35 405.09 552.49 1161.74 351.76 1339.15 330.23 1214.90 445.15 1188.42 549.05 1340.31 531.54
00004880 00000050 1108.48 148.15 402.70 547.76 1163.03 354.00 1339.50 333.52 1216.24 447.50 1188.93 549.27 1341.26 532.96
00004881 00000051 1109.66 149.07 402.49 545.48 1164.38 356.10 1339.60 336.34 1216.95 449.18 1190.12 550.03 1340.85 534.38
00004882 00000052 1110.31 146.80 400.22 542.25 1164.65 358.85 1339.31 339.48 1218.04 451.25 1191.75 550.42 1340.76 534.96
00004883 00000053 1111.17 150.07 398.60 538.81 1164.80 359.38 1338.72 338.47 1218.00 449.53 1193.65 551.77 1341.69 534.93
00004884 00000054 1112.95 152.25 395.47 538.99 1164.99 362.00 1336.61 340.16 1215.78 447.65 1192.13 548.96 1346.89 531.60
00004885 00000055 1113.31 152.94 392.78 542.34 1165.73 362.60 1338.24 339.07 1218.03 447.00 1193.59 550.56 1352.63 531.81
00004886 00000056 1116.11 156.63 392.88 548.70 1169.05 363.04 1339.52 337.85 1220.75 448.59 1197.32 550.40 1362.06 529.84
00004887 00000057 1117.36 160.83 390.49 550.36 1170.28 361.86 1340.43 335.52 1222.13 447.67 1199.62 552.84 1364.42 531.25
00004888 00000058 1118.83 161.02 389.48 549.67 1171.73 361.30 1341.45 335.63 1223.37 447.43 1200.87 553.21 1364.23 532.21
00004889 00000059 1120.36 158.07 390.36 546.95 1172.22 362.90 1342.79 337.52 1224.04 447.83 1201.20 552.77 1362.85 532.00
00004890 00000060 1120.61 154.73 391.75 548.20 1172.21 365.13 1343.40 338.92 1224.72 448.20 1201.97 554.14 1362.94 532.70
00004891 00000061 1120.72 161.11 391.87 542.94 1171.81 368.04 1342.47 340.57 1224.82 451.04 1203.71 556.00 1364.80 533.37
00004892 00000062 1118.89 162.69 392.02 542.81 1169.50 371.15 1337.64 342.47 1220.40 453.47 1201.86 556.00 1362.85 532.55
00004893 00000063 1115.42 166.27 393.51 535.64 1165.01 372.03 1333.85 341.21 1215.89 450.22 1197.54 556.22 1358.83 531.41
00004894 00000064 1113.17 163.22 392.07 530.65 1162.29 370.00 1331.72 339.57 1211.63 446.42 1193.78 553.92 1353.20 529.55
00004895 00000065 1112.96 160.33 392.44 530.45 1162.14 369.38 1329.23 339.28 1211.19 445.75 1194.00 552.08 1349.80 527.86
00004896 00000066 1111.87 162.03 395.07 532.92 1160.87 371.31 1327.99 342.71 1209.68 452.31 1194.27 556.79 1348.78 533.31
00004897 00000067 1111.09 162.85 393.41 537.45 1159.95 374.27 1326.77 345.05 1209.80 455.41 1193.78 563.06 1346.56 539.10
00004898 00000068 1108.86 158.62 395.53 537.10 1157.47 370.85 1327.58 341.60 1208.54 452.20 1193.95 566.60 1338.71 543.17
00004899 00000069 1108.54 158.88 396.08 529.77 1156.83 364.19 1330.93 337.10 1207.46 447.38 1187.98 556.65 1335.21 534.91
00004900 00000070 1107.77 160.64 398.52 531.05 1156.64 362.30 1330.36 335.55 1206.44 445.76 1186.95 555.28 1333.91 533.79
00004901 00000071 1105.97 159.78 398.62 537.31 1155.35 363.09 1329.17 335.75 1206.71 447.21 1187.91 560.50 1333.27 538.48
00004902 00000072 1104.63 163.26 394.92 539.79 1151.57 364.83 1325.17 332.62 1202.78 445.78 1189.31 568.75 1332.66 543.19
00004903 00000073 1104.36 172.96 401.02 524.28 1150.12 352.05 1320.65 328.88 1196.92 446.07 1193.33 564.25 1326.29 547.29
00004904 00000074 1101.94 160.40 394.72 532.56 1145.66 361.43 1315.92 327.58 1195.33 442.39 1180.40 559.06 1321.14 532.23
00004905 00000075 1099.38 159.80 394.41 532.22 1141.48 362.38 1311.09 327.33 1190.02 445.66 1178.72 560.46 1318.60 532.14
00004906 00000076 1096.78 160.84 392.28 530.02 1139.30 365.02 1304.47 328.85 1186.43 446.92 1177.54 561.36 1314.18 532.10
00004907 00000077 1093.08 154.15 396.25 529.82 1136.59 363.36 1302.78 325.09 1181.01 441.09 1172.15 555.20 1309.83 523.84
00004908 00000078 1091.07 159.73 393.19 519.85 1133.71 359.55 1299.16 318.94 1176.70 434.29 1170.61 552.31 1308.36 518.84
00004909 00000079 1089.96 160.53 389.96 521.77 1132.54 358.37 1297.42 317.40 1175.45 433.40 1175.23 558.94 1304.72 525.40
00004910 00000080 1090.36 156.96 392.51 529.90 1130.58 360.54 1297.29 317.06 1172.94 438.22 1174.12 561.25 1309.88 525.41
00004911 00000081 1089.91 150.51 392.61 533.21 1131.38 358.07 1301.20 316.27 1175.69 434.39 1169.72 554.45 1310.59 520.36
00004912 00000082 1090.91 132.58 396.93 544.64 1130.21 348.15 1298.19 303.00 1167.94 414.76 1166.03 550.02 1309.55 512.20
00004913 00000083 1093.04 131.90 392.19 538.11 1132.24 345.59 1295.84 302.17 1164.95 409.61 1166.22 544.10 1305.02 508.14
00004914 00000084 1092.29 132.89 395.52 535.63 1130.96 343.32 1295.54 297.07 1162.15 407.20 1167.05 543.27 1307.29 504.63
00004915 00000085 1093.11 129.80 396.30 534.56 1130.76 340.27 1293.51 295.96 1160.45 407.39 1164.45 537.35 1306.72 500.03
00004916 00000086 1093.44 135.79 396.35 526.52 1131.22 337.40 1292.14 293.61 1158.62 403.94 1164.35 535.48 1304.23 498.30
00004917 00000087 1091.79 135.48 397.47 530.47 1131.47 338.55 1292.89 293.57 1159.74 403.91 1165.47 538.61 1303.02 500.87
00004918 00000088 1092.50 140.97 391.75 527.07 1132.37 336.23 1294.27 300.13 1166.20 408.80 1167.66 533.03 1291.51 505.59
00004919 00000089 1092.44 141.72 392.63 530.07 1131.75 339.13 1294.06 303.39 1164.82 411.94 1168.19 536.20 1294.47 508.19
00004920 00000090 1092.70 128.62 398.55 547.28 1130.40 344.69 1293.47 299.48 1158.67 412.24 1165.24 547.06 1304.49 509.10
00004921 00000091 1093.62 127.67 396.05 547.61 1132.68 345.38 1293.76 299.69 1161.91 411.51 1168.68 546.23 1305.97 508.04
00004922 00000092 1093.35 129.92 398.77 546.30 1132.34 346.37 1296.50 299.51 1164.10 412.97 1169.85 548.86 1309.03 509.62
00004923 00000093 1098.07 135.62 399.43 539.71 1125.88 347.64 1302.04 301.48 1168.66 420.35 1175.30 554.86 1312.98 517.35
00004924 00000094 1099.19 152.09 390.89 514.44 1134.68 349.17 1301.66 307.02 1171.95 423.05 1172.59 545.28 1308.74 510.33
00004925 00000095 1100.62 133.35 400.84 536.40 1128.23 343.31 1305.66 300.37 1170.87 415.59 1173.38 550.72 1313.76 516.67
00004926 00000096 1101.83 130.47 404.38 539.46 1132.67 343.26 1310.89 300.42 1176.13 414.91 1178.58 551.23 1317.95 516.97
00004927 00000097 1102.95 137.75 409.01 533.84 1138.95 343.99 1318.03 304.21 1183.48 417.67 1184.83 551.35 1320.37 518.77
00004928 00000098 1103.89 142.60 408.49 537.24 1142.67 348.65 1322.57 307.87 1187.59 424.15 1189.09 559.44 1322.34 525.54
00004929 00000099 1105.54 149.07 409.11 535.24 1146.46 349.54 1325.94 306.59 1191.68 424.24 1194.32 562.92 1327.00 526.76
00004930 00000100 1107.25 145.02 409.38 538.61 1147.46 350.77 1328.24 307.17 1192.47 425.05 1196.09 563.08 1332.60 526.40
00004931 00000101 1111.76 141.12 407.43 541.43 1151.24 347.09 1330.38 305.87 1194.25 423.81 1198.32 560.21 1336.65 525.59
00004932 00000102 1113.03 145.39 406.46 537.14 1153.65 347.94 1331.95 306.53 1197.39 423.37 1199.24 561.94 1335.11 527.06
00004933 00000103 1111.40 153.67 408.98 537.63 1154.60 349.21 1332.68 307.57 1197.45 423.11 1200.23 565.23 1335.64 529.29
00004934 00000104 1109.49 138.35 410.23 567.32 1155.83 345.55 1329.53 304.71 1202.39 423.98 1196.58 562.17 1334.67 527.69
00004935 00000105 1110.29 125.84 408.52 580.92 1158.14 340.38 1331.31 298.26 1203.85 415.09 1198.48 559.60 1337.54 524.16
00004936 00000106 1112.13 120.46 410.32 576.56 1158.18 337.22 1331.71 295.88 1202.80 414.67 1200.65 555.45 1338.92 520.67
00004937 00000107 1111.90 126.71 412.99 562.30 1156.77 334.68 1335.47 295.78 1199.55 412.03 1202.64 554.69 1340.32 521.50
00004938 00000108 1116.04 120.46 409.86 558.00 1156.74 339.52 1329.42 298.91 1202.58 410.96 1204.64 545.52 1340.51 511.90
00004939 00000109 1114.97 116.00 412.86 560.75 1154.60 338.19 1330.36 296.54 1202.93 409.61 1201.18 542.78 1343.00 508.11
00004940 00000110 1116.35 114.33 412.14 562.10 1156.46 334.15 1331.77 295.33 1204.46 408.53 1200.89 540.57 1342.64 508.18
00004941 00000111 1115.44 111.09 414.99 566.44 1157.22 337.70 1331.80 297.22 1205.78 411.26 1204.40 544.37 1343.50 511.04
00004942 00000112 1112.20 120.65 416.57 562.42 1154.94 345.53 1333.50 302.97 1211.52 423.39 1208.41 551.22 1348.14 516.31
00004943 00000113 1106.33 156.91 422.96 536.35 1154.06 349.93 1334.46 310.17 1210.96 439.21 1200.61 559.46 1346.33 524.89
00004944 00000114 1105.96 167.98 422.59 522.88 1147.51 357.27 1329.19 316.70 1214.23 441.08 1206.11 559.03 1341.51 524.65
00004945 00000115 1105.13 162.63 423.34 527.29 1147.95 359.02 1328.91 318.72 1214.56 441.91 1205.53 560.13 1339.49 526.22
00004946 00000116 1104.15 167.68 416.09 521.61 1157.89 357.25 1332.68 319.35 1221.47 446.26 1206.34 564.34 1347.14 530.93
00004947 00000117 1106.36 164.73 420.19 529.16 1150.19 359.33 1326.77 319.26 1215.40 445.01 1206.54 561.50 1340.63 527.60
00004948 00000118 1104.22 162.84 409.46 536.58 1155.59 363.98 1323.81 325.03 1210.55 446.00 1206.44 565.68 1347.45 532.80
00004949 00000119 1103.99 161.17 410.56 539.96 1155.28 364.04 1325.35 324.30 1210.94 444.39 1205.91 565.87 1349.53 532.17
00004950 00000120 1105.00 159.53 410.76 540.10 1155.82 364.75 1327.22 325.41 1210.62 443.41 1204.19 564.19 1351.58 530.74
00004951 00000121 1108.12 156.12 417.92 539.45 1153.12 358.36 1331.86 321.44 1214.86 444.06 1205.28 561.20 1345.57 529.99
00004952 00000122 1111.28 160.13 415.96 534.52 1155.20 359.92 1334.51 323.21 1218.09 446.19 1205.11 559.88 1349.74 529.00
00004953 00000123 1113.81 154.64 416.98 540.48 1158.17 360.19 1337.59 323.75 1220.62 447.35 1207.13 559.29 1355.03 528.84
00004954 00000124 1113.64 156.66 422.07 545.12 1166.37 357.56 1342.13 326.60 1221.42 450.12 1207.16 559.95 1363.73 532.14
00004955 00000125 1118.60 166.56 412.26 536.93 1173.37 359.22 1348.40 328.77 1231.04 445.88 1215.40 562.89 1369.02 535.53
00004956 00000126 1122.30 168.76 411.07 535.26 1176.76 359.98 1350.70 331.08 1231.97 446.74 1216.96 560.84 1372.23 534.76
00004957 00000127 1123.89 165.98 409.21 538.42 1177.77 361.10 1352.63 332.30 1233.77 448.61 1217.99 561.44 1375.53 535.30
00004958 00000128 1123.97 165.25 410.78 540.76 1178.23 360.20 1353.66 332.13 1235.22 450.62 1219.75 562.13 1377.88 536.53
00004959 00000129 1124.07 163.50 412.91 548.33 1178.15 359.12 1351.73 331.35 1234.77 451.71 1223.77 566.69 1375.06 541.39
00004960 00000130 1125.80 163.85 412.90 551.33 1179.50 358.81 1352.65 333.24 1234.93 453.93 1223.91 569.93 1370.36 546.83
00004961 00000131 1128.46 161.23 411.65 553.88 1180.10 361.04 1351.89 336.24 1234.12 456.91 1222.93 572.92 1366.93 550.88
00004962 00000132 1128.24 160.36 413.88 552.46 1180.49 364.27 1352.79 339.63 1235.41 460.40 1224.35 576.12 1365.56 554.64
00004963 00000133 1129.17 158.76 414.22 552.32 1181.36 366.12 1355.15 342.33 1236.52 463.30 1224.40 576.08 1367.96 555.45
00004964 00000134 1131.79 157.27 412.14 552.48 1183.54 369.12 1358.37 345.18 1240.19 467.19 1226.03 576.45 1372.50 555.88
00004965 00000135 1133.24 160.55 412.03 549.02 1185.98 370.08 1362.28 346.08 1243.83 467.37 1228.45 576.53 1375.57 556.29
00004966 00000136 1133.96 160.60 412.44 547.65 1188.74 370.18 1365.28 347.41 1247.63 467.61 1229.13 573.29 1378.00 553.76
00004967 00000137 1135.53 162.77 407.81 545.58 1191.94 368.30 1367.01 347.27 1253.09 468.06 1230.76 571.34 1379.58 553.50
00004968 00000138 1137.85 161.12 407.42 547.04 1195.65 368.74 1369.71 348.22 1256.42 467.28 1231.57 567.80 1381.24 550.25
00004969 00000139 1138.91 161.83 406.51 544.03 1197.42 369.45 1371.44 348.84 1259.76 466.98 1232.89 566.84 1382.99 549.65
00004970 00000140 1139.31 162.22 406.77 542.70 1198.21 369.94 1371.64 349.10 1260.72 465.76 1233.95 565.83 1383.22 548.17
00004971 00000141 1139.72 163.76 405.81 541.84 1199.22 371.17 1372.52 349.56 1262.29 465.50 1234.66 565.77 1384.38 547.88
00004972 00000142 1139.85 165.75 406.21 540.13 1199.55 372.01 1373.28 349.81 1263.43 465.64 1235.54 566.36 1385.94 548.25
00004973 00000143 1139.97 167.98 405.81 538.01 1200.58 372.34 1375.23 350.64 1265.76 467.05 1236.64 567.36 1386.93 549.62
00004974 00000144 1140.97 170.20 403.98 535.83 1201.45 373.92 1377.10 351.80 1266.85 468.58 1237.80 569.21 1388.18 551.11
00004975 00000145 1141.55 171.21 404.46 536.99 1202.19 376.62 1378.37 352.98 1268.60 470.42 1239.49 572.31 1390.51 553.22
00004976 00000146 1141.94 175.68 404.65 536.20 1202.88 377.84 1380.05 354.06 1269.77 471.87 1239.21 573.71 1392.25 554.21
00004977 00000147 1143.76 170.78 403.89 538.75 1202.82 379.95 1379.80 354.96 1270.11 474.08 1240.95 576.40 1394.24 556.14
00004978 00000148 1145.35 171.13 400.49 543.82 1201.99 381.64 1378.29 354.13 1268.73 472.83 1241.25 579.57 1398.93 557.36
00004979 00000149 1146.91 174.74 397.26 545.91 1204.44 381.84 1376.68 354.75 1268.12 470.04 1240.06 573.74 1403.24 551.37
CROP_BBOX: 845 0 1768 902
