Video ID: 	tWlwRnB2kP0
H: 	1080
W: 	1920
FPS: 	23.976023976023978

FRAME INDEX X0 Y0 W H [Landmarks (5 Points)]

00001803 00000000 571.13 271.82 367.68 540.62 694.67 540.30 877.33 524.67 811.63 637.75 703.91 701.40 870.47 689.38
00001804 00000001 573.35 274.92 367.87 544.45 698.99 546.50 881.07 532.27 815.78 642.49 706.11 706.01 869.03 695.07
00001805 00000002 577.08 273.20 368.81 542.30 699.25 545.12 882.70 531.67 814.82 642.34 708.62 705.90 871.70 695.44
00001806 DELETE   580.93 271.00 364.72 540.53 698.83 540.78 884.28 531.09 812.98 640.15 707.86 703.47 872.90 695.71
00001807 00000004 581.67 272.20 365.55 540.76 698.61 542.04 885.01 533.40 810.16 643.63 704.52 704.60 872.81 698.11
00001808 DELETE   581.38 277.38 365.64 540.01 698.26 548.00 885.72 540.10 809.32 650.13 700.89 708.06 869.67 702.23
00001809 00000006 583.04 281.20 364.72 537.92 697.58 548.48 885.08 542.48 806.21 650.01 699.87 708.40 868.67 704.21
00001810 DELETE   304.44 134.45 252.70 348.97
00001811 00000008 304.69 135.31 252.81 348.63
00001812 00000009 304.94 136.18 252.91 348.28
00001813 DELETE   305.98 136.70 252.97 349.39
00001814 00000011 307.12 137.17 253.02 350.67
00001815 DELETE   308.26 137.64 253.08 351.96
00001816 DELETE   309.40 138.12 253.13 353.24
00001817 00000014 310.45 138.51 253.17 354.35
00001818 DELETE   310.73 138.19 253.08 353.87
00001819 DELETE   311.00 137.86 252.99 353.39
00001820 00000017 311.28 137.54 252.90 352.91
00001821 00000018 311.56 137.21 252.82 352.42
00001822 00000019 311.91 136.98 252.71 352.12
00001823 DELETE   312.45 136.96 252.56 352.24
00001824 00000021 312.98 136.94 252.41 352.36
00001825 DELETE   313.52 136.93 252.25 352.48
00001826 00000023 314.05 136.91 252.10 352.60
00001827 DELETE   314.35 137.63 251.99 352.22
00001828 DELETE   314.40 139.06 251.92 351.35
00001829 00000026 314.46 140.50 251.84 350.48
00001830 00000027 314.52 141.94 251.77 349.61
00001831 00000028 314.57 143.37 251.70 348.73
00001832 00000029 314.28 144.74 251.73 348.02
00001833 DELETE   313.84 146.08 251.80 347.36
00001834 00000031 313.39 147.42 251.87 346.70
00001835 00000032 312.95 148.75 251.94 346.05
00001836 DELETE   312.51 150.09 252.01 345.39
00001837 00000034 312.19 150.68 252.13 345.05
00001838 00000035 593.46 317.23 363.19 531.78 707.98 586.07 888.55 562.68 817.53 691.37 709.33 741.12 875.87 723.62
00001839 00000036 592.57 321.04 363.08 526.68 707.35 584.35 888.13 562.56 817.02 691.12 708.55 740.72 874.30 724.52
00001840 00000037 593.29 318.91 363.82 529.58 708.02 581.55 889.86 560.57 818.11 691.05 710.19 740.74 875.63 725.18
00001841 00000038 594.49 318.73 362.08 530.02 708.39 581.63 889.10 560.63 818.08 691.73 709.81 740.56 874.62 724.95
00001842 00000039 594.62 318.89 362.95 531.51 709.47 581.94 890.60 560.79 819.72 692.58 711.68 741.94 877.09 726.08
00001843 00000040 594.68 318.62 364.10 533.97 710.51 583.28 892.26 561.50 821.95 694.21 712.80 744.21 878.84 727.72
00001844 00000041 598.80 320.64 362.30 532.41 712.69 583.36 893.40 562.76 822.83 695.74 714.27 745.40 877.27 729.86
00001845 00000042 598.75 317.12 362.76 539.41 712.22 584.16 893.32 563.17 821.69 697.14 713.27 746.16 878.59 730.19
00001846 00000043 597.33 320.63 363.44 536.06 711.93 585.94 890.53 566.37 821.43 699.51 712.17 746.74 876.20 731.71
00001847 00000044 600.64 323.00 365.85 525.87 706.84 584.64 890.75 569.93 814.53 702.72 716.00 747.55 883.14 738.16
00001848 00000045 602.13 323.24 364.87 524.26 706.35 583.69 889.40 569.91 811.95 701.36 716.35 745.86 882.08 737.11
00001849 00000046 594.63 320.98 367.44 537.30 709.91 584.75 889.86 564.69 819.89 698.72 711.23 747.99 875.15 732.61
00001850 00000047 593.46 316.82 365.52 540.28 709.87 582.04 892.45 562.03 821.72 694.33 706.46 741.54 878.30 726.68
00001851 00000048 593.88 315.41 364.48 542.66 710.44 580.77 892.93 561.20 822.69 692.38 705.05 738.13 880.82 723.55
00001852 00000049 310.46 158.31 255.35 341.45
00001853 00000050 593.73 327.35 370.92 527.77 705.72 584.93 895.56 567.71 819.90 705.31 708.69 746.62 890.85 735.54
00001854 00000051 596.65 332.90 365.89 529.32 705.82 591.82 893.30 573.83 816.30 711.67 710.88 751.59 890.68 739.22
00001855 00000052 310.79 158.47 256.24 341.53
00001856 00000053 311.23 159.17 256.50 341.85
00001857 00000054 600.49 346.30 363.35 526.80 711.52 602.30 896.20 585.08 822.42 721.83 712.77 757.89 890.10 746.84
00001858 00000055 312.35 161.04 256.98 342.72
00001859 DELETE   312.91 161.98 257.22 343.15
00001860 00000057 313.47 162.91 257.47 343.58
00001861 00000058 314.65 163.72 257.61 343.82
00001862 00000059 315.87 164.52 257.74 344.04
00001863 00000060 317.09 165.32 257.87 344.26
00001864 00000061 621.65 356.44 364.89 524.43 735.40 611.57 925.80 597.44 848.02 723.65 745.16 774.55 916.61 764.48
00001865 DELETE   624.45 362.50 364.41 520.14 739.26 616.29 930.54 601.62 852.96 726.45 748.69 777.48 922.01 767.11
00001866 00000063 628.67 364.84 365.99 519.17 743.85 617.76 936.68 603.65 860.72 729.92 751.54 778.40 928.01 768.79
00001867 00000064 633.76 365.05 366.53 520.71 748.85 620.05 941.05 605.42 865.95 728.98 756.32 779.70 931.95 769.57
00001868 00000065 639.12 366.35 365.50 523.18 754.84 620.56 943.64 606.68 870.12 730.55 762.06 781.60 933.67 771.97
00001869 00000066 644.29 363.74 363.42 526.37 760.25 624.27 949.43 610.14 874.52 734.14 765.51 783.60 939.86 773.87
00001870 00000067 648.16 368.35 362.17 522.43 763.53 626.14 951.04 613.09 875.11 736.12 768.87 784.59 940.55 775.72
00001871 DELETE   652.77 368.60 361.50 524.46 766.87 627.00 953.07 613.40 877.61 736.94 769.51 781.95 939.71 772.97
00001872 DELETE   652.28 364.50 361.28 525.80 767.74 623.29 953.88 609.07 879.93 732.89 771.37 779.78 939.90 770.29
00001873 00000070 653.48 370.87 360.68 520.84 769.07 626.48 955.03 614.46 879.04 736.57 771.49 780.88 940.54 773.24
00001874 00000071 656.13 368.89 358.67 522.62 772.74 625.48 956.26 610.86 883.81 737.22 775.12 779.29 942.79 769.72
00001875 00000072 660.10 369.98 357.10 523.29 775.85 623.95 958.48 610.30 885.08 737.45 777.36 779.06 945.55 770.33
00001876 00000073 661.85 370.88 356.82 521.38 777.43 623.94 960.60 609.94 887.16 737.87 778.77 779.37 946.29 770.57
00001877 00000074 664.74 370.10 357.04 522.02 780.47 623.72 961.75 608.38 891.07 736.37 782.96 779.10 948.10 769.17
00001878 00000075 665.49 370.13 356.56 523.20 780.22 623.56 961.54 608.27 891.02 736.49 781.96 779.60 947.62 769.79
00001879 00000076 667.01 369.67 355.88 519.92 781.72 621.87 964.04 606.03 893.28 735.36 782.69 777.47 948.34 767.33
00001880 DELETE   663.85 364.40 358.88 522.05 783.34 619.46 964.74 604.52 894.68 733.11 782.55 773.93 947.30 764.76
00001881 00000078 661.94 360.28 361.73 524.73 783.66 617.49 965.50 603.59 894.62 731.11 781.40 770.55 948.08 762.31
00001882 00000079 661.64 358.43 361.00 523.58 784.49 614.54 965.10 601.95 894.46 727.92 779.79 765.44 947.07 758.47
00001883 00000080 664.81 351.12 362.95 526.11 784.67 611.87 967.41 599.76 894.73 726.65 780.55 765.09 949.10 758.12
00001884 00000081 664.05 343.29 364.07 529.38 784.16 605.01 965.69 595.36 894.40 720.91 781.10 760.93 947.45 756.04
00001885 00000082 663.15 338.99 366.96 533.02 783.01 597.41 965.25 589.40 893.09 715.90 780.28 757.82 947.37 754.23
00001886 00000083 661.63 336.82 366.64 532.83 781.76 592.19 965.18 583.34 894.04 713.83 781.89 756.72 948.88 752.54
00001887 00000084 659.17 337.11 365.66 530.97 780.41 588.44 963.56 579.79 892.84 711.51 780.57 754.59 946.01 750.91
00001888 00000085 658.75 336.98 366.04 528.87 780.10 588.51 962.63 580.67 891.58 711.69 780.84 753.52 944.23 750.20
00001889 00000086 657.60 339.80 363.58 522.16 778.50 587.96 958.02 582.28 887.25 711.20 778.48 748.99 939.07 747.54
00001890 DELETE   657.31 338.80 362.52 519.65 776.00 587.15 954.23 583.68 881.82 711.25 776.99 746.22 935.48 746.45
00001891 00000088 655.23 334.73 365.56 519.82 773.11 585.99 952.97 583.59 878.53 710.11 773.57 747.82 932.71 749.18
00001892 00000089 655.15 331.01 363.73 521.66 770.61 579.31 952.28 578.86 875.01 706.44 767.56 744.74 931.05 748.02
00001893 00000090 651.38 326.60 370.78 531.71 773.19 577.61 951.41 571.94 875.83 706.87 764.34 745.59 921.97 743.85
00001894 00000091 651.20 322.10 368.09 534.48 772.00 574.68 950.28 569.07 875.73 704.23 762.39 743.37 919.94 742.03
00001895 00000092 648.68 319.57 370.51 536.88 772.20 573.93 950.31 568.82 876.97 701.93 762.07 742.72 918.08 741.94
00001896 00000093 648.12 320.82 368.89 535.00 770.71 571.47 949.29 565.49 875.68 701.20 761.21 742.08 916.86 740.70
00001897 00000094 644.20 319.70 371.55 536.68 769.81 570.64 949.93 565.77 875.78 700.43 760.14 740.73 917.39 740.13
00001898 00000095 641.28 317.80 372.92 537.87 769.39 569.61 949.95 564.43 876.61 699.70 759.72 740.71 916.34 740.02
00001899 00000096 640.65 319.43 371.05 537.52 767.93 570.64 947.43 567.32 874.82 701.28 756.64 740.90 913.21 741.62
00001900 00000097 639.55 320.82 372.98 535.45 767.75 572.32 947.02 568.93 874.53 702.36 756.03 742.77 910.74 743.35
00001901 00000098 638.49 320.38 373.43 537.13 766.89 572.84 948.07 570.00 873.95 704.40 753.72 744.14 910.55 745.32
00001902 00000099 636.27 320.42 375.83 538.51 765.90 573.55 948.96 570.74 872.11 706.44 751.36 746.32 908.54 747.78
00001903 00000100 635.03 321.63 375.83 536.47 763.57 575.26 948.19 572.35 870.32 709.46 749.57 747.85 907.49 749.23
00001904 00000101 631.72 322.31 376.03 535.73 761.86 576.09 947.17 572.45 870.36 708.82 748.27 747.79 906.56 748.53
00001905 00000102 627.80 324.81 378.71 534.96 758.36 575.70 945.30 573.28 867.16 708.98 742.69 747.37 903.78 749.29
00001906 00000103 619.66 326.99 385.89 533.73 754.50 575.81 943.27 573.39 864.43 709.16 739.54 748.55 899.55 750.32
00001907 00000104 618.32 327.75 384.44 532.85 751.98 576.26 939.42 573.91 860.85 708.31 740.75 749.38 897.39 750.77
00001908 00000105 616.00 327.66 386.05 534.32 749.60 575.55 936.19 573.72 858.06 708.55 739.05 749.28 894.54 750.87
00001909 00000106 610.58 328.75 387.68 532.15 745.98 575.93 931.29 571.67 854.67 705.99 739.01 748.87 890.92 748.39
00001910 00000107 608.23 325.86 386.12 537.20 743.49 575.28 926.97 572.29 851.23 704.02 736.65 748.48 888.13 748.83
00001911 00000108 610.09 323.59 381.35 539.60 742.22 573.26 923.46 570.32 849.30 700.76 738.01 746.69 886.92 746.88
00001912 DELETE   610.17 322.42 377.91 541.66 740.76 572.78 920.94 569.17 848.41 699.64 737.72 744.69 888.84 743.87
00001913 00000110 608.60 316.47 375.96 549.39 737.40 573.74 919.08 568.16 846.28 697.43 736.50 745.57 887.70 743.26
00001914 00000111 609.00 319.39 373.15 545.88 735.08 571.88 917.14 566.21 844.13 695.33 733.43 743.76 886.22 741.61
00001915 00000112 607.71 315.79 372.28 548.55 733.00 572.05 916.13 566.70 843.55 695.35 731.40 744.01 884.33 742.44
00001916 00000113 603.35 314.61 373.07 549.28 729.73 572.76 915.68 565.67 842.19 695.70 727.33 744.20 884.05 741.35
00001917 00000114 602.13 313.69 368.09 548.82 724.73 570.29 909.92 564.27 837.74 694.05 721.10 739.92 880.79 738.17
00001918 00000115 594.50 309.31 369.16 551.50 720.13 569.64 897.08 559.96 826.89 693.61 709.61 738.56 868.33 733.40
00001919 00000116 586.43 306.26 374.71 554.46 717.00 568.56 893.61 557.68 824.92 690.58 706.46 736.83 864.59 730.94
00001920 00000117 584.25 304.53 375.95 556.21 714.10 567.42 893.22 556.53 824.41 689.11 703.68 734.07 867.80 728.00
00001921 00000118 581.76 303.58 376.66 555.82 712.32 566.08 890.86 555.96 822.39 687.52 698.87 729.04 865.99 723.70
00001922 00000119 578.87 305.47 377.59 555.02 709.24 564.48 887.95 557.16 818.24 685.12 692.26 722.47 865.81 719.37
00001923 00000120 577.80 306.45 377.99 551.86 708.72 563.01 889.15 555.68 818.50 683.86 691.85 719.47 869.08 716.30
00001924 00000121 578.42 303.51 377.22 552.35 707.83 562.50 890.35 554.08 818.71 681.50 691.77 718.07 870.80 714.10
00001925 00000122 580.96 301.15 375.24 554.73 711.39 562.33 893.50 552.99 823.69 681.99 695.54 719.81 873.51 715.11
00001926 00000123 584.53 301.43 372.19 551.50 713.44 560.85 896.63 552.51 826.10 679.55 699.12 719.37 875.73 715.42
00001927 00000124 587.97 301.73 372.48 549.88 715.90 558.46 900.77 549.95 830.88 680.45 702.58 719.57 878.82 715.49
00001928 00000125 593.33 302.20 370.19 547.92 720.80 555.75 903.93 549.20 834.81 679.64 707.17 717.16 882.78 714.79
00001929 00000126 601.54 297.39 366.84 549.43 725.06 553.42 907.38 546.48 837.36 676.03 713.25 713.77 887.76 710.71
00001930 00000127 608.58 291.07 366.99 553.70 730.34 549.50 921.37 543.18 846.24 668.15 717.47 713.89 893.79 711.89
00001931 00000128 607.94 291.17 369.73 551.65 732.40 545.18 924.12 538.50 848.31 666.26 720.66 711.82 896.54 709.58
00001932 00000129 607.98 285.71 371.58 554.02 734.81 540.12 926.37 534.69 850.58 663.67 720.32 708.45 896.07 707.42
00001933 00000130 606.94 283.37 374.17 549.33 739.35 537.90 927.46 532.03 853.38 663.52 728.30 705.82 897.91 704.51
00001934 00000131 607.64 278.57 377.15 548.91 742.98 535.06 932.61 530.04 857.46 661.55 733.53 703.82 902.63 703.40
00001935 00000132 611.08 274.08 376.90 550.90 747.17 533.54 935.78 528.79 863.31 658.13 739.14 700.90 907.48 700.34
00001936 00000133 613.15 272.30 377.59 552.63 749.53 530.59 937.27 528.07 864.77 656.05 737.52 695.64 910.78 696.79
00001937 00000134 615.39 267.81 376.71 550.90 753.32 524.83 940.31 525.58 867.13 651.85 739.49 690.28 912.20 694.01
00001938 00000135 615.78 264.31 379.31 553.89 756.04 521.46 941.25 522.42 870.29 648.72 743.90 689.04 914.56 693.00
00001939 00000136 616.23 264.28 381.87 555.36 758.70 520.45 943.48 520.84 872.15 649.22 745.20 689.08 915.35 692.84
00001940 00000137 615.90 263.07 383.70 557.93 759.84 520.02 944.52 520.46 873.41 648.80 746.79 689.96 916.25 693.72
00001941 00000138 615.37 260.84 385.46 558.56 760.45 516.67 944.30 517.89 874.45 646.38 748.45 687.78 917.42 692.07
00001942 00000139 615.14 259.50 387.76 561.05 761.63 517.07 944.39 518.05 875.00 646.02 749.28 688.05 917.36 692.06
00001943 00000140 614.00 261.05 388.64 557.88 762.02 515.08 944.36 516.47 875.37 644.26 749.01 685.47 917.60 689.81
00001944 00000141 614.25 258.15 389.58 560.25 762.75 514.43 945.17 516.91 876.06 643.05 748.79 684.00 918.50 689.20
00001945 00000142 615.68 258.49 391.30 563.37 763.29 515.43 947.95 518.58 877.79 643.34 750.43 687.50 921.37 693.06
00001946 00000143 616.04 258.30 393.11 565.53 763.25 515.75 949.34 518.23 879.12 643.07 753.08 689.91 923.90 694.77
00001947 00000144 615.60 257.65 390.72 567.06 759.42 524.59 948.30 522.76 876.81 644.51 751.95 694.29 925.10 695.25
00001948 00000145 619.98 251.98 388.18 576.60 756.30 528.67 946.59 526.40 872.22 642.61 748.70 697.37 924.27 697.15
00001949 00000146 620.88 258.74 378.66 564.85 749.41 522.44 938.70 520.47 865.02 637.28 747.56 694.15 920.86 694.14
00001950 00000147 616.54 240.05 380.09 577.90 738.15 506.09 927.86 507.11 855.62 622.67 743.36 687.19 917.07 688.22
00001951 DELETE   615.82 226.56 390.02 586.07 734.10 492.08 924.07 495.25 844.37 611.93 739.70 675.31 906.39 678.03
00001952 00000149 609.31 203.29 390.53 606.58 729.04 476.78 919.92 481.73 840.13 588.83 733.59 661.57 903.62 665.87
00001953 DELETE   606.87 192.55 391.21 599.49 722.02 461.02 916.28 467.29 832.44 569.39 726.30 645.58 901.31 651.13
00001954 00000151 611.24 185.03 379.59 599.63 718.43 461.57 908.77 459.78 825.74 571.97 730.51 653.37 898.69 651.18
00001955 00000152 613.87 180.97 386.42 609.86 722.66 453.39 920.70 461.06 831.84 562.66 731.17 644.83 907.79 650.58
00001956 00000153 614.50 186.45 388.49 608.87 727.72 461.15 924.82 467.65 838.89 569.02 734.64 648.70 910.69 653.62
00001957 00000154 622.08 191.92 391.84 603.52 736.71 466.31 933.15 472.69 848.41 574.53 742.48 654.60 915.73 659.87
00001958 00000155 622.25 191.51 394.47 600.38 737.15 465.79 934.69 470.24 849.27 572.81 743.65 653.33 917.40 657.02
00001959 00000156 622.72 188.69 395.71 599.10 734.89 458.77 936.68 462.97 847.46 566.48 742.59 649.75 920.33 652.86
00001960 00000157 621.10 181.94 393.04 602.47 732.08 451.92 932.07 457.23 842.15 557.29 741.62 642.99 920.23 646.58
00001961 00000158 620.60 176.80 391.06 613.17 729.57 439.20 928.55 446.40 841.04 545.87 738.77 632.36 922.95 637.26
00001962 00000159 624.57 168.39 387.91 627.81 731.03 430.22 924.73 437.33 840.09 536.79 744.07 633.12 920.95 637.99
00001963 00000160 623.81 159.05 389.03 636.46 729.41 419.87 920.62 427.15 837.15 529.33 742.15 627.85 918.01 632.66
00001964 00000161 621.52 148.22 395.08 643.24 726.04 410.59 916.51 416.23 831.42 521.73 738.17 623.60 913.15 627.31
CROP_BBOX: 216 0 1271 1044
