Video ID: 	kEao3Ndr224
H: 	1080
W: 	1920
FPS: 	23.976023976023978

FRAME INDEX X0 Y0 W H [Landmarks (5 Points)]

00004577 00000000 768.07 202.31 346.36 532.71 819.30 435.94 974.36 439.16 855.10 537.30 846.87 607.87 976.63 607.71
00004578 DELETE   768.64 198.89 355.51 527.04 815.59 435.25 967.34 432.33 856.86 538.15 847.86 608.16 975.48 605.51
00004579 00000002 765.23 198.40 357.47 524.76 814.28 430.69 967.64 429.32 856.33 536.10 842.74 601.48 974.88 600.40
00004580 00000003 759.04 203.21 354.79 514.35 806.79 427.70 956.30 426.38 845.82 532.00 835.89 598.32 966.88 596.70
00004581 00000004 751.71 202.16 351.95 512.26 795.10 427.28 942.98 423.68 833.31 528.39 824.81 596.27 956.05 592.12
00004582 00000005 745.26 199.63 345.49 514.53 789.68 423.88 940.75 420.50 827.87 517.79 812.40 590.72 948.96 587.86
00004583 DELETE   743.89 189.07 346.52 519.67 791.64 419.37 944.89 410.66 824.28 509.92 810.46 585.81 955.07 577.14
00004584 00000007 742.60 184.40 346.10 521.45 787.47 410.76 941.40 401.20 818.93 504.46 805.02 580.73 957.79 571.31
00004585 00000008 734.77 176.55 349.36 523.85 780.71 397.56 936.77 388.32 818.26 496.83 801.29 573.08 953.88 564.20
00004586 00000009 722.72 175.52 353.66 517.66 769.23 392.41 915.94 386.56 806.69 484.08 795.33 554.58 932.82 548.71
00004587 00000010 708.14 155.39 354.79 526.22 756.51 379.19 910.49 370.57 795.35 475.07 779.00 550.77 921.99 543.67
00004588 00000011 693.76 141.11 348.94 526.70 737.01 368.42 886.61 358.48 772.51 461.93 764.87 541.15 898.13 534.26
00004589 00000012 686.18 148.42 348.17 504.93 721.76 363.56 856.81 355.30 751.38 453.99 749.47 530.02 867.64 523.09
00004590 00000013 673.94 128.06 340.41 517.43 711.71 353.27 857.36 342.13 738.92 442.00 733.57 528.38 857.57 518.23
00004591 DELETE   654.46 118.00 348.73 520.58 691.58 345.62 845.87 331.68 724.27 439.45 719.25 530.46 845.21 519.10
00004592 DELETE   638.49 102.55 354.35 533.34 683.32 334.44 837.83 317.89 721.88 425.26 714.34 524.83 838.59 511.68
00004593 00000016 627.39 95.22 358.56 538.30 674.92 327.57 833.42 306.70 722.18 410.42 710.36 514.37 838.53 497.45
00004594 DELETE   619.12 84.32 365.00 543.78 664.03 324.99 825.31 293.16 717.92 401.05 706.76 509.85 840.37 484.27
00004595 00000018 620.73 83.28 366.27 539.47 662.19 324.87 824.55 292.04 716.67 404.50 707.57 506.48 848.70 479.50
00004596 00000019 636.02 96.87 358.66 531.12 679.25 330.59 823.89 301.02 724.90 409.64 724.14 498.63 855.81 473.05
00004597 00000020 649.94 100.42 359.47 523.96 691.25 328.87 836.85 297.74 736.08 410.38 736.46 494.51 873.18 467.57
00004598 00000021 660.37 90.28 360.61 521.76 701.91 320.89 857.86 293.66 752.99 401.20 742.15 486.46 886.90 462.85
00004599 00000022 671.21 85.80 357.18 509.95 711.57 313.54 864.17 284.12 761.78 390.37 752.56 472.81 895.26 447.66
00004600 00000023 678.24 74.47 357.27 516.37 718.30 299.10 866.56 271.76 768.05 382.14 762.90 463.55 901.51 439.96
00004601 00000024 681.51 63.83 357.10 525.47 720.85 290.49 862.09 259.25 767.27 373.84 772.54 461.79 903.44 434.91
00004602 00000025 680.52 62.49 357.26 518.77 722.16 288.21 863.05 253.14 770.58 371.41 774.59 458.30 904.67 428.55
00004603 00000026 685.40 60.33 357.88 516.30 730.84 289.10 868.33 258.37 778.39 369.14 780.22 462.70 896.39 437.66
00004604 00000027 693.54 56.06 353.10 519.35 739.96 295.07 888.64 261.56 789.41 369.36 788.73 469.81 909.00 440.55
00004605 00000028 703.13 55.46 352.68 525.79 750.41 296.17 902.94 264.07 803.71 376.29 801.54 475.65 924.76 448.15
00004606 00000029 720.04 55.25 357.38 531.67 767.50 305.31 915.18 272.79 817.21 380.85 819.25 483.92 939.17 455.03
00004607 00000030 727.36 72.30 353.54 525.93 769.79 308.63 908.62 287.25 809.93 393.96 816.80 482.00 929.35 464.44
00004608 00000031 731.68 79.77 351.97 526.31 775.59 313.27 911.77 295.90 816.11 404.17 820.77 489.12 929.03 475.19
00004609 00000032 736.24 98.47 353.88 512.41 782.99 327.23 921.62 309.25 827.00 416.34 828.54 496.49 939.93 481.85
00004610 00000033 744.00 108.39 355.84 512.82 794.35 335.73 930.47 321.14 837.18 423.87 836.44 505.14 944.79 493.76
00004611 00000034 760.00 114.10 352.86 524.19 809.43 346.78 946.20 326.07 852.39 435.48 856.23 528.20 962.27 511.76
00004612 00000035 772.26 110.04 347.68 533.72 822.61 349.36 970.63 330.98 862.14 438.67 874.30 536.76 979.48 521.11
00004613 00000036 785.08 117.29 351.53 529.87 835.05 354.70 982.01 338.36 873.31 445.94 882.02 542.39 992.01 527.66
00004614 00000037 795.54 122.48 351.33 529.81 841.97 357.10 990.54 343.30 880.25 457.31 885.49 544.98 1004.11 531.74
00004615 00000038 803.81 124.73 349.09 530.40 847.61 362.61 995.35 346.55 887.39 460.66 891.43 546.71 1012.37 531.03
00004616 00000039 807.47 135.57 347.00 519.82 850.13 366.55 994.42 355.48 891.82 462.44 891.72 539.40 1014.67 529.65
00004617 00000040 815.66 139.09 347.17 520.18 857.42 368.49 997.91 355.38 898.20 464.29 902.60 539.42 1025.74 527.67
00004618 00000041 823.16 140.15 348.85 523.12 864.51 372.44 1002.56 355.06 905.82 466.24 913.92 541.02 1037.69 524.98
00004619 00000042 829.01 144.54 349.80 520.73 871.66 373.99 1009.94 356.09 914.88 469.33 920.48 540.13 1047.41 523.34
00004620 00000043 834.75 147.98 348.03 519.98 878.91 375.43 1018.78 358.26 923.18 469.63 925.13 540.74 1053.24 524.74
00004621 00000044 840.79 149.71 347.46 519.99 886.76 378.02 1026.43 359.20 931.13 469.43 932.04 542.48 1057.70 525.72
00004622 00000045 840.68 139.67 349.14 537.30 884.20 375.43 1034.96 356.67 926.15 470.49 931.82 548.03 1066.52 531.84
00004623 00000046 845.65 140.29 348.04 542.03 890.80 377.20 1041.66 358.87 930.73 471.14 937.59 551.35 1071.99 535.26
00004624 00000047 847.60 140.35 344.28 537.74 892.57 378.37 1044.10 358.94 933.96 471.13 936.64 553.54 1068.15 537.19
00004625 00000048 846.54 149.50 337.92 520.57 895.71 378.60 1044.45 368.88 934.11 467.66 933.92 543.43 1055.09 532.45
00004626 00000049 845.41 148.86 343.27 522.80 893.72 379.74 1042.36 369.79 932.17 467.29 930.11 547.18 1047.92 536.19
00004627 00000050 847.79 144.28 336.80 528.18 893.26 380.66 1041.82 369.96 931.46 464.99 931.36 552.26 1040.79 540.94
00004628 00000051 851.71 141.03 331.24 526.50 895.54 378.59 1047.02 364.74 935.20 455.80 935.52 551.28 1046.29 537.45
00004629 00000052 855.78 134.47 331.03 519.40 904.36 365.53 1050.00 356.94 938.35 449.81 933.54 536.60 1055.63 527.84
00004630 00000053 857.00 122.94 344.82 520.91 903.25 349.98 1058.38 346.13 937.99 439.96 924.13 527.75 1056.40 524.03
00004631 00000054 858.37 123.07 350.64 517.61 906.35 347.37 1065.34 345.56 945.34 438.16 922.60 523.33 1061.16 521.18
00004632 00000055 861.45 129.36 346.08 520.20 908.74 354.29 1068.18 350.63 949.23 443.65 924.15 529.00 1065.42 524.78
00004633 00000056 854.16 132.43 352.53 540.13 904.94 356.70 1066.47 356.68 950.80 450.20 924.03 536.49 1066.92 535.92
00004634 00000057 853.19 145.18 344.29 546.20 899.54 361.58 1061.52 351.38 949.04 447.27 919.44 545.36 1070.36 536.31
00004635 00000058 845.03 146.90 349.86 522.38 900.87 357.40 1067.25 356.90 951.81 456.20 914.97 532.86 1062.18 534.54
00004636 00000059 839.30 148.31 355.43 511.99 900.10 358.92 1073.74 361.35 956.81 455.72 911.53 530.66 1065.00 534.34
00004637 00000060 842.61 154.25 352.65 513.12 904.67 360.58 1079.24 357.90 969.39 456.88 918.04 541.62 1074.95 540.20
00004638 00000061 852.11 155.53 351.70 528.59 911.73 372.83 1089.93 368.93 984.82 459.82 924.21 545.96 1092.52 544.33
00004639 00000062 851.60 159.02 350.22 524.38 911.65 374.10 1090.42 371.63 985.09 459.50 922.26 546.28 1091.50 545.93
00004640 00000063 842.85 161.18 346.98 517.06 908.74 365.52 1082.56 362.62 982.18 458.75 920.86 549.63 1076.83 548.34
00004641 00000064 836.42 164.63 346.85 511.24 904.91 368.75 1078.48 364.78 979.67 462.17 922.45 555.35 1067.10 553.41
00004642 00000065 837.58 157.85 346.16 519.41 902.64 374.34 1079.32 373.35 972.82 463.72 915.85 561.57 1065.19 562.54
00004643 00000066 833.68 173.71 342.57 502.66 904.32 374.78 1078.23 371.68 983.19 468.98 917.24 565.50 1059.96 564.52
00004644 00000067 837.64 177.35 343.17 504.64 906.95 378.71 1080.71 375.02 983.10 471.15 920.37 568.18 1061.98 566.80
00004645 00000068 839.40 181.33 343.41 500.34 909.22 385.30 1082.88 379.44 985.60 474.60 922.30 573.60 1065.69 570.34
00004646 00000069 840.94 183.65 340.96 495.27 909.66 388.39 1083.84 382.41 985.66 478.30 921.32 576.45 1067.98 572.96
00004647 00000070 837.19 189.13 346.77 484.96 912.21 394.78 1081.36 388.91 988.14 480.17 923.53 571.27 1067.87 569.33
00004648 00000071 836.24 183.78 342.34 491.96 907.87 387.12 1082.17 380.09 986.50 475.27 920.86 573.42 1070.47 568.75
00004649 00000072 828.54 186.02 348.38 483.12 902.38 392.00 1073.21 383.18 979.27 471.60 915.42 566.65 1061.16 562.74
00004650 00000073 822.83 185.59 349.19 486.59 895.75 393.17 1063.89 379.07 973.67 472.68 913.61 567.20 1059.88 559.02
00004651 00000074 815.94 185.41 352.82 492.88 885.15 396.86 1055.10 377.58 963.20 474.83 906.43 570.40 1058.32 557.63
00004652 00000075 808.18 187.95 352.02 498.73 875.84 403.04 1044.53 378.18 953.69 474.53 899.69 574.74 1051.12 556.40
00004653 00000076 803.51 188.48 350.49 496.57 868.82 402.37 1032.72 375.77 940.17 472.76 894.58 573.10 1039.70 553.12
00004654 00000077 812.11 184.30 342.59 505.79 865.73 396.93 1032.29 379.58 928.99 469.11 890.54 569.11 1038.67 555.77
00004655 00000078 815.09 173.92 346.46 512.33 870.43 388.08 1038.51 370.71 934.70 456.62 889.43 558.37 1044.33 545.65
00004656 00000079 821.17 169.65 350.85 519.78 880.23 383.78 1048.38 363.28 949.59 454.33 898.41 555.28 1057.37 541.23
00004657 00000080 822.46 165.05 354.44 526.68 882.74 383.14 1051.89 355.56 958.42 453.09 910.38 559.93 1066.54 539.65
00004658 00000081 817.46 170.62 349.18 526.20 876.75 382.63 1042.98 360.09 945.08 452.97 901.93 563.53 1045.60 548.10
00004659 00000082 802.14 175.45 350.45 513.22 860.15 382.64 1020.21 369.68 924.41 455.30 890.36 560.01 1016.64 551.69
00004660 DELETE   791.71 178.80 342.25 506.20 846.36 392.68 1006.90 380.31 900.47 471.59 864.22 571.07 998.26 561.76
00004661 DELETE   780.51 183.50 343.66 524.96 838.56 407.48 993.61 388.53 888.62 476.86 864.17 586.24 993.04 570.86
00004662 00000085 772.80 192.90 355.96 519.47 824.61 419.76 980.14 393.79 877.48 498.20 857.96 589.81 993.94 570.00
00004663 DELETE   762.10 194.85 353.87 512.15 813.06 424.17 965.99 405.06 862.03 501.01 846.67 591.84 974.85 577.27
00004664 DELETE   756.24 201.41 341.51 499.28 795.52 421.57 942.28 405.56 837.14 498.54 822.14 587.65 948.30 575.55
00004665 00000088 744.83 193.45 334.99 501.63 787.89 413.19 928.30 392.87 826.15 496.95 819.63 587.15 932.73 571.32
00004666 00000089 744.65 188.21 343.35 500.60 788.80 413.96 935.39 393.08 836.26 493.28 821.44 578.84 945.97 562.33
00004667 00000090 756.55 192.05 349.85 493.96 799.46 407.82 952.30 391.43 850.87 490.79 830.00 576.61 963.80 563.38
00004668 00000091 750.94 196.40 353.50 498.58 797.76 415.31 952.23 394.24 851.16 498.20 831.06 580.36 971.38 562.79
00004669 DELETE   737.53 202.04 350.45 507.36 783.29 421.44 932.91 400.56 831.82 506.91 819.50 587.79 956.80 570.71
00004670 DELETE   728.96 198.49 349.77 520.33 772.74 426.01 918.99 408.89 812.66 520.34 809.13 602.79 943.33 586.57
00004671 00000094 719.53 201.61 352.26 528.38 767.19 429.79 914.60 417.82 806.26 530.24 804.87 608.99 937.84 595.83
00004672 00000095 718.09 201.87 349.50 520.89 763.72 432.98 917.84 420.69 810.71 531.26 801.73 614.64 929.83 602.83
00004673 00000096 716.21 200.86 349.32 512.51 761.90 433.07 919.54 420.69 813.12 530.00 800.14 616.46 923.72 605.74
00004674 00000097 715.92 200.16 345.81 509.35 761.77 432.96 917.78 421.75 811.04 530.17 799.37 612.70 920.98 602.99
00004675 00000098 716.10 201.01 344.02 511.92 763.57 433.36 915.78 423.13 810.17 530.37 803.55 612.87 920.69 603.74
00004676 00000099 719.49 201.16 340.68 513.18 765.55 433.02 915.04 424.02 808.98 530.44 805.26 611.44 921.59 603.04
00004677 00000100 718.89 210.98 343.59 499.22 770.06 429.57 919.45 417.58 820.33 530.73 806.13 605.93 925.73 596.06
00004678 00000101 734.88 204.93 338.00 509.28 780.01 428.25 936.36 421.10 830.64 531.66 816.14 611.09 936.68 604.54
00004679 00000102 740.60 209.41 345.39 512.93 793.07 430.46 955.69 426.77 846.89 533.44 827.06 612.11 952.87 607.55
00004680 00000103 737.57 218.91 359.51 502.89 792.81 436.13 953.13 429.90 859.17 540.27 835.67 613.10 961.00 607.55
00004681 00000104 728.14 216.73 360.35 505.91 787.38 434.69 948.02 431.62 851.38 540.21 830.64 616.42 950.06 613.50
00004682 00000105 723.60 207.96 352.77 518.01 774.46 437.29 935.35 422.59 831.62 535.59 823.05 628.68 938.81 615.02
00004683 00000106 717.52 205.02 349.66 516.96 768.20 436.32 925.72 423.34 820.12 535.73 813.23 624.69 931.02 613.01
00004684 00000107 714.06 203.91 345.12 513.66 762.92 436.93 918.17 424.81 812.31 535.65 806.96 619.31 926.71 608.23
00004685 00000108 712.28 202.20 341.43 513.91 761.96 437.56 913.27 426.10 807.90 535.24 806.76 616.82 924.15 606.12
00004686 00000109 713.24 203.20 340.96 513.51 763.52 437.12 910.50 426.36 806.24 536.29 810.89 615.94 922.17 605.67
00004687 00000110 711.68 209.28 340.58 511.83 760.23 439.65 903.52 423.84 808.79 542.37 807.89 617.36 917.64 603.83
00004688 00000111 713.90 214.58 338.87 508.89 762.78 439.52 902.92 427.64 809.09 546.48 810.57 614.74 920.63 603.10
00004689 00000112 715.17 216.82 338.49 512.58 767.20 441.07 908.13 430.91 814.64 550.79 813.58 611.70 931.97 600.05
00004690 00000113 721.54 215.30 338.00 516.54 772.80 440.91 910.78 429.72 811.01 548.31 822.05 614.15 948.12 600.29
00004691 00000114 716.28 216.22 349.55 514.57 769.04 439.83 916.64 422.67 821.55 542.68 820.13 611.21 956.36 592.73
00004692 00000115 711.56 209.32 357.00 520.92 764.33 440.29 918.86 417.59 822.48 541.47 815.33 612.56 959.42 590.00
00004693 00000116 708.99 208.28 357.43 522.61 761.20 444.81 912.96 422.72 814.60 546.67 811.73 613.37 956.04 590.93
00004694 00000117 710.54 214.30 354.54 516.23 762.24 446.69 910.40 429.16 810.65 552.18 807.84 611.17 951.70 592.18
00004695 00000118 713.80 217.04 345.59 512.86 764.89 446.92 908.93 434.79 807.64 555.53 806.51 608.08 947.82 593.28
00004696 00000119 715.37 216.07 341.30 516.45 768.32 445.21 907.35 432.10 809.26 550.78 818.10 616.03 942.73 600.77
00004697 00000120 715.26 211.64 345.03 519.35 767.82 443.45 913.42 428.13 814.53 547.66 826.66 626.19 938.51 610.13
00004698 00000121 717.70 203.66 343.30 523.39 768.51 442.90 917.10 425.52 818.96 546.71 823.95 623.78 942.11 606.50
00004699 00000122 721.80 199.20 342.88 526.46 770.95 442.47 919.71 420.29 822.36 540.49 831.00 624.41 948.33 603.33
00004700 00000123 723.13 197.59 346.19 526.98 773.22 435.63 919.24 414.81 822.98 535.95 835.17 616.90 951.77 597.12
00004701 00000124 724.11 198.92 345.29 528.14 776.30 434.05 914.67 415.21 817.78 535.36 831.02 610.69 952.50 591.69
00004702 00000125 726.09 200.06 345.26 530.09 776.19 432.79 910.77 418.11 811.50 537.19 827.56 609.24 948.59 593.03
00004703 00000126 731.77 199.71 337.12 530.18 778.84 432.49 911.67 419.68 810.62 538.13 828.43 608.03 948.03 593.40
00004704 00000127 737.20 200.28 335.34 526.91 782.80 431.76 917.28 417.21 816.98 537.85 832.90 609.53 953.14 593.95
00004705 00000128 737.23 193.97 340.07 529.92 783.54 429.64 925.67 410.80 826.59 531.27 839.83 612.33 953.97 594.72
00004706 00000129 735.60 188.70 345.36 531.41 780.04 427.96 929.08 403.59 823.93 525.64 835.44 612.52 950.46 591.45
00004707 00000130 736.92 186.67 346.06 532.10 779.41 427.29 923.04 399.44 817.90 524.10 839.40 613.57 949.27 589.73
00004708 00000131 736.63 182.03 339.59 536.78 780.16 425.49 915.76 399.48 810.23 520.47 841.17 614.28 939.69 592.06
00004709 00000132 739.60 179.63 329.89 534.78 777.38 423.20 911.66 400.33 803.17 524.51 833.78 612.39 937.18 592.91
00004710 00000133 747.83 175.96 323.06 537.30 790.12 412.92 933.23 398.72 823.60 522.63 840.86 607.12 946.80 595.24
00004711 00000134 762.44 173.35 354.16 541.18 811.55 413.34 959.60 403.94 856.81 525.29 859.35 608.40 971.98 600.27
00004712 00000135 770.43 164.96 357.77 557.64 830.49 410.69 999.76 398.14 886.11 515.35 875.54 614.39 999.40 603.66
00004713 00000136 771.57 163.08 362.48 545.69 831.09 407.82 999.95 389.99 893.24 511.08 877.62 607.41 1002.20 592.86
00004714 00000137 762.66 162.67 369.84 543.53 810.89 411.07 973.56 385.00 865.30 504.62 860.97 604.86 983.01 583.49
00004715 00000138 755.97 179.00 362.44 526.25 799.57 415.89 937.72 395.55 838.05 507.62 843.17 593.37 957.52 576.07
00004716 00000139 745.53 178.75 362.27 536.78 783.92 416.20 931.03 393.81 821.12 511.39 837.79 593.27 950.92 575.11
00004717 00000140 750.97 189.21 353.33 520.73 795.90 413.98 928.08 401.66 830.20 517.00 838.77 593.38 949.07 582.53
00004718 00000141 762.62 178.84 352.41 537.22 813.62 416.54 953.26 399.36 859.82 522.70 865.33 603.74 977.09 588.27
00004719 00000142 768.13 167.18 349.96 558.40 828.47 414.92 985.42 396.93 878.01 512.50 882.71 607.71 1001.66 591.25
00004720 00000143 772.73 163.10 358.60 568.22 831.61 414.55 989.76 393.11 879.43 511.27 886.94 616.07 1002.26 596.82
00004721 00000144 772.83 157.56 353.33 571.55 824.50 413.44 982.71 392.70 867.07 509.62 875.48 615.37 993.89 597.02
00004722 00000145 768.35 169.82 337.54 553.66 818.66 415.16 967.40 400.02 856.33 513.79 870.28 610.21 978.85 596.37
00004723 00000146 771.27 180.28 344.00 537.36 812.57 417.54 949.94 405.08 849.11 526.85 863.71 607.60 972.07 596.26
00004724 00000147 769.99 185.19 345.49 533.57 814.81 423.43 956.45 411.41 856.21 534.49 870.78 612.93 979.52 602.16
00004725 00000148 773.45 183.33 344.32 545.23 822.27 430.98 969.11 414.22 871.19 543.01 883.63 625.55 994.10 610.90
00004726 00000149 776.61 181.04 346.10 553.87 830.27 435.71 986.80 419.06 878.50 542.99 888.21 630.39 1009.70 613.61
00004727 00000150 779.87 182.21 355.68 557.49 836.30 433.37 989.74 418.65 881.41 543.63 895.26 633.95 1008.01 618.42
00004728 00000151 781.75 183.91 348.14 552.22 838.03 432.12 990.74 420.88 880.80 540.62 895.97 632.72 999.68 620.69
00004729 00000152 781.62 183.90 346.72 542.65 836.14 425.92 990.12 415.86 880.78 532.32 890.30 622.03 996.50 611.54
00004730 00000153 783.04 182.27 340.91 541.15 835.35 422.20 984.02 413.74 874.23 527.33 881.30 610.29 995.85 600.69
00004731 00000154 783.30 180.57 331.66 535.81 832.03 418.45 981.12 412.14 868.94 523.43 874.06 603.43 992.49 596.69
00004732 00000155 778.90 179.73 331.61 538.22 826.16 413.52 973.24 407.67 859.27 520.20 872.86 600.07 988.54 593.29
00004733 00000156 777.90 179.18 340.73 539.40 823.85 412.94 963.58 397.49 864.70 522.80 875.32 602.93 990.23 589.44
00004734 00000157 779.26 180.07 340.99 548.36 824.12 412.91 966.20 391.55 867.21 519.81 878.81 604.88 1001.51 585.67
00004735 00000158 782.28 173.61 332.35 552.70 828.39 415.94 974.49 400.91 861.44 514.90 877.83 599.23 1009.00 583.42
00004736 00000159 786.33 172.72 335.57 538.39 828.79 415.70 980.15 399.26 867.98 515.47 871.40 594.24 1010.43 579.12
00004737 00000160 788.89 173.51 339.04 526.58 831.43 415.72 983.22 398.53 872.69 512.28 869.12 588.88 1009.46 574.04
00004738 00000161 791.21 172.94 341.04 521.99 832.26 412.54 982.92 394.60 873.26 507.79 867.04 585.09 1008.77 569.96
00004739 00000162 793.35 170.20 337.17 523.76 833.92 406.93 983.46 389.84 873.32 501.40 867.03 580.49 1006.08 566.17
00004740 00000163 791.43 167.19 334.23 527.48 832.38 402.78 980.16 386.44 870.62 494.59 867.05 575.68 1002.13 561.68
00004741 00000164 788.91 165.58 334.85 528.71 830.29 401.63 982.49 382.57 872.78 490.54 867.64 572.91 1007.14 556.49
00004742 00000165 792.01 165.34 338.69 525.35 835.95 396.11 992.82 374.86 884.30 485.08 871.78 568.44 1016.89 550.37
00004743 00000166 801.34 164.31 344.14 522.46 848.95 387.54 1001.79 375.57 894.74 477.40 878.80 550.80 1024.51 540.36
00004744 00000167 806.59 160.12 347.58 520.16 858.11 383.00 1017.23 373.78 906.16 471.62 883.19 543.75 1035.90 535.71
00004745 00000168 811.03 155.38 345.71 517.04 864.69 377.05 1028.24 372.28 916.85 466.73 886.11 537.45 1041.03 533.49
00004746 00000169 811.53 151.43 349.79 516.79 866.49 373.94 1030.62 372.55 918.12 463.13 885.24 536.13 1034.35 535.39
