Video ID: 	zkXz_3qv9us
H: 	1080
W: 	1920
FPS: 	23.976023976023978

FRAME INDEX X0 Y0 W H [Landmarks (5 Points)]

00014511 00000000 687.39 183.73 406.30 624.02 792.94 460.22 980.23 441.26 899.18 557.34 844.13 670.74 991.46 655.64
00014512 00000001 678.23 179.12 408.19 634.72 781.33 460.58 968.90 444.40 882.44 558.65 827.72 671.72 976.42 658.76
00014513 00000002 670.39 175.81 408.96 639.42 767.86 460.63 956.28 444.12 865.64 556.83 812.47 672.46 962.31 659.78
00014514 00000003 660.82 182.74 406.85 632.47 762.01 464.49 950.97 441.49 862.35 563.44 809.96 682.82 959.26 662.98
00014515 00000004 660.83 185.09 409.06 628.49 766.19 464.23 953.69 439.72 870.45 563.99 815.87 679.89 964.88 658.69
00014516 00000005 675.53 173.14 407.40 634.36 778.40 456.69 968.22 438.01 882.89 553.11 826.70 664.13 983.12 648.63
00014517 00000006 682.61 176.41 408.61 626.81 789.13 454.97 978.52 435.64 898.09 553.04 839.97 661.34 996.25 645.05
00014518 00000007 687.58 180.07 408.51 620.35 794.89 456.40 983.92 434.16 904.26 553.56 844.54 660.26 1002.26 641.74
00014519 00000008 687.09 177.22 409.65 619.47 795.21 456.41 982.89 434.13 904.50 553.94 845.35 658.34 1002.33 639.63
00014520 00000009 690.53 175.78 403.73 613.55 804.86 455.76 989.35 439.74 911.34 545.77 847.47 649.94 1003.70 636.34
00014521 DELETE   688.60 170.72 407.24 613.49 809.73 449.26 989.41 427.13 925.30 538.22 861.41 650.22 1009.89 631.37
00014522 00000011 691.68 167.61 407.23 610.47 819.10 439.09 999.56 410.91 948.13 525.08 884.71 650.61 1024.74 626.75
00014523 00000012 695.51 163.29 405.70 608.06 826.81 429.90 1008.31 398.96 961.60 518.24 897.00 643.85 1037.32 617.00
00014524 00000013 694.24 157.91 408.99 610.72 825.87 423.60 1011.79 391.51 965.66 510.03 898.05 637.60 1046.21 608.97
00014525 00000014 694.43 157.53 410.95 610.45 826.26 421.42 1011.44 389.57 965.26 504.18 897.44 634.40 1045.88 606.10
00014526 00000015 698.43 155.61 411.29 615.70 830.49 421.11 1014.25 390.36 967.66 502.62 901.11 637.57 1046.31 610.38
00014527 00000016 710.65 158.27 408.04 617.19 843.45 418.33 1027.28 389.99 981.52 498.29 912.98 640.73 1057.57 615.87
00014528 DELETE   722.71 157.22 407.50 612.04 856.95 419.75 1040.69 387.79 997.83 497.95 927.05 637.27 1073.63 609.40
00014529 00000018 738.14 151.41 403.76 623.84 864.77 418.94 1044.54 385.55 1002.67 494.68 936.30 629.74 1089.34 601.46
00014530 00000019 744.83 152.65 404.57 615.35 869.85 418.84 1047.48 382.96 1007.19 494.94 945.05 627.78 1094.97 597.45
00014531 00000020 744.25 153.04 407.04 607.62 869.42 419.71 1050.14 383.59 1007.36 494.90 944.25 625.37 1096.55 594.78
00014532 00000021 729.81 154.65 413.13 601.92 863.68 422.31 1056.51 383.15 1006.78 500.91 927.63 629.73 1087.84 595.84
00014533 00000022 722.12 155.86 412.45 599.30 852.65 421.83 1042.02 385.15 993.29 498.17 920.38 630.21 1076.23 598.58
00014534 00000023 713.00 156.12 413.84 604.32 840.25 420.77 1027.88 385.36 978.54 498.71 912.18 631.81 1065.57 600.68
00014535 00000024 709.07 155.33 412.85 607.62 833.85 422.87 1020.36 384.64 970.91 503.36 907.97 634.15 1059.61 600.87
00014536 00000025 711.85 156.71 413.44 607.43 838.67 423.00 1023.69 385.54 976.23 500.35 912.87 634.17 1063.99 601.41
00014537 00000026 720.31 154.09 415.03 609.95 852.52 423.61 1038.69 384.87 993.92 498.84 925.25 634.53 1077.27 600.97
00014538 00000027 740.45 147.17 406.50 622.38 865.89 423.29 1044.79 388.39 1001.78 501.10 937.85 629.68 1090.04 600.73
00014539 00000028 749.74 153.07 405.59 620.44 876.34 421.73 1054.45 386.16 1014.23 507.38 949.71 634.99 1099.08 604.62
00014540 00000029 756.36 154.83 406.80 620.74 882.16 421.12 1064.79 389.22 1019.20 512.11 949.93 636.47 1101.44 608.82
00014541 00000030 756.83 157.04 406.69 616.13 883.00 419.32 1066.22 388.77 1019.15 510.77 949.12 633.92 1100.72 607.45
00014542 00000031 752.23 155.51 404.94 617.45 876.86 418.82 1057.57 386.99 1011.23 507.76 944.91 633.17 1094.69 605.87
00014543 00000032 744.66 149.62 403.54 626.92 866.67 419.88 1047.95 390.17 999.28 507.35 932.15 632.98 1085.99 607.85
00014544 00000033 728.92 154.85 410.54 622.21 857.87 427.28 1044.86 391.76 993.89 510.95 921.05 643.52 1074.58 613.19
00014545 00000034 720.10 155.54 410.00 623.94 846.81 428.41 1033.52 394.48 983.77 512.19 908.72 642.69 1065.25 613.68
00014546 00000035 717.22 155.87 409.86 622.66 844.11 428.57 1030.81 394.44 981.65 511.40 906.50 641.47 1063.58 612.18
00014547 00000036 718.29 157.21 409.12 616.53 845.82 429.75 1033.19 395.54 982.98 514.66 905.88 639.94 1063.88 610.62
00014548 00000037 719.90 158.95 411.08 609.24 849.49 430.01 1039.87 395.26 987.98 515.43 907.96 637.11 1070.10 607.34
00014549 00000038 721.56 159.75 412.03 601.97 853.16 428.65 1044.35 393.81 993.15 513.86 912.49 633.60 1075.06 603.77
00014550 00000039 722.24 162.59 411.18 598.56 854.44 428.33 1047.22 393.26 995.03 515.28 911.32 631.81 1077.33 601.89
00014551 00000040 724.61 161.02 405.73 599.42 859.64 438.83 1041.66 403.57 995.79 518.79 912.37 632.22 1071.33 602.72
00014552 00000041 725.67 158.79 403.08 605.50 860.71 437.97 1042.49 407.54 994.08 518.95 909.68 632.41 1068.83 606.80
00014553 00000042 722.51 160.63 404.87 612.73 855.28 434.75 1039.50 402.83 992.51 519.23 909.93 640.75 1066.54 613.70
00014554 00000043 722.05 159.12 404.53 618.17 853.50 428.17 1038.94 397.91 992.30 516.02 913.78 644.77 1064.77 618.84
00014555 00000044 722.10 158.00 405.32 624.11 855.05 423.61 1039.28 393.29 993.44 511.61 918.45 645.78 1066.38 619.61
00014556 00000045 721.56 158.48 407.85 616.33 855.74 419.48 1040.10 389.86 994.61 505.60 920.57 639.78 1068.39 614.32
00014557 00000046 722.92 157.66 409.46 607.59 857.03 418.30 1041.74 387.66 996.46 500.24 922.32 633.58 1071.67 607.22
00014558 00000047 725.41 158.66 409.75 602.79 858.83 417.50 1046.85 385.51 999.14 496.65 923.64 631.74 1076.42 604.17
00014559 00000048 727.45 158.33 410.22 593.48 862.99 418.03 1052.01 384.19 1003.52 491.94 928.03 625.64 1082.18 596.08
00014560 00000049 726.98 157.91 411.90 591.63 863.24 416.25 1054.17 384.17 1004.37 490.26 924.12 619.42 1083.54 591.08
00014561 00000050 727.47 160.34 411.45 589.11 864.36 414.74 1054.49 383.69 1004.72 487.53 923.80 617.37 1083.01 590.03
00014562 00000051 727.87 160.98 411.08 589.02 865.68 413.71 1053.47 382.98 1005.33 486.26 926.25 618.61 1080.87 591.67
00014563 00000052 727.64 161.52 410.65 588.33 865.47 413.14 1052.33 382.08 1004.81 484.42 927.65 619.64 1079.49 592.51
00014564 00000053 725.39 163.92 412.34 588.91 862.74 412.47 1049.66 380.55 1002.23 483.57 925.52 620.61 1077.25 592.94
00014565 00000054 722.90 163.88 413.55 601.11 858.89 412.55 1047.70 380.64 1000.81 484.28 922.85 627.71 1076.41 599.94
00014566 00000055 718.51 169.53 414.13 607.60 855.08 421.24 1037.53 385.30 996.75 483.80 914.47 635.38 1061.47 603.87
00014567 00000056 716.51 165.26 415.95 611.16 854.82 423.55 1035.67 390.45 996.50 483.70 913.49 634.66 1060.78 605.64
00014568 00000057 719.77 162.91 414.47 609.44 858.00 426.15 1044.91 399.23 995.87 488.57 913.85 634.57 1071.28 611.73
00014569 00000058 715.80 163.97 418.51 609.02 854.54 423.76 1044.96 396.96 995.67 489.30 910.42 631.31 1073.84 608.29
00014570 00000059 713.13 167.35 420.68 606.14 851.24 426.63 1037.31 392.54 995.13 486.62 906.09 631.69 1063.47 601.22
00014571 00000060 712.22 170.92 421.11 605.65 850.97 427.87 1034.99 392.75 994.09 487.20 907.38 634.63 1061.24 603.26
00014572 00000061 714.53 174.57 418.27 596.34 853.71 428.64 1037.87 393.26 995.39 490.76 910.40 635.32 1061.37 603.95
00014573 00000062 714.74 174.06 417.48 598.42 852.34 430.17 1038.95 395.51 994.30 495.07 904.77 632.74 1064.79 601.94
00014574 00000063 715.32 173.71 417.14 601.77 852.51 432.18 1039.27 396.40 995.78 495.05 908.46 638.34 1065.12 606.53
00014575 00000064 715.92 176.32 417.71 605.93 852.95 434.52 1037.89 397.37 994.93 497.72 911.56 647.01 1061.10 614.40
00014576 00000065 717.04 181.44 417.32 605.09 854.09 436.71 1037.82 398.13 995.52 501.18 915.07 652.79 1061.28 619.26
00014577 00000066 718.39 184.82 417.74 600.68 856.19 438.61 1040.05 398.70 997.68 504.17 917.87 653.40 1064.28 618.58
00014578 00000067 718.59 183.96 419.61 604.81 857.49 439.82 1042.44 399.04 1000.11 506.46 917.22 652.20 1068.31 616.50
00014579 00000068 720.42 186.43 419.07 602.30 859.09 441.13 1044.41 399.85 1002.23 507.01 919.51 652.97 1070.70 616.86
00014580 00000069 723.70 188.89 417.33 600.39 861.26 442.78 1047.74 401.43 1005.15 508.12 922.13 653.99 1074.80 617.80
00014581 00000070 724.79 187.80 418.11 601.34 862.70 444.43 1049.19 403.44 1006.31 509.82 923.98 654.74 1075.84 618.94
00014582 00000071 727.33 191.29 416.18 597.71 864.44 446.31 1051.13 405.83 1007.30 510.05 927.06 656.26 1078.13 620.96
00014583 00000072 727.10 192.41 416.03 600.09 864.77 447.30 1049.47 407.06 1006.32 509.22 929.53 658.71 1076.86 623.70
00014584 00000073 729.38 196.70 413.61 602.60 865.54 446.62 1051.71 409.35 1005.64 510.90 929.37 664.15 1075.52 631.87
00014585 00000074 732.02 196.98 412.11 604.54 866.45 447.66 1054.56 411.20 1006.36 513.62 928.57 666.85 1076.80 635.42
00014586 00000075 738.40 179.74 406.32 618.17 870.24 444.12 1049.00 420.08 997.52 517.82 929.85 655.79 1071.81 637.27
00014587 00000076 737.61 178.05 409.02 615.31 867.67 440.88 1049.13 417.33 994.45 510.15 926.34 649.47 1073.62 631.08
00014588 00000077 733.43 176.12 408.32 615.61 860.80 429.30 1042.74 407.88 988.64 498.77 917.57 643.21 1065.83 626.51
00014589 00000078 725.85 183.85 415.36 608.00 851.34 431.75 1042.85 396.96 983.93 494.83 899.44 649.87 1057.16 619.70
00014590 00000079 722.45 184.11 416.39 611.33 842.50 428.82 1037.09 395.53 970.79 499.19 888.60 650.24 1049.90 621.06
00014591 00000080 719.43 184.12 417.51 612.17 835.99 428.14 1032.81 396.25 960.86 507.95 883.64 652.52 1043.67 623.75
00014592 00000081 715.21 182.32 419.77 615.57 828.43 428.93 1024.14 397.94 949.41 515.79 877.97 654.41 1035.74 626.40
00014593 00000082 710.86 182.78 421.22 621.86 821.39 434.58 1016.57 404.26 940.07 522.18 873.20 659.05 1031.50 631.67
00014594 00000083 708.41 191.59 421.57 619.14 815.83 443.63 1011.34 415.91 931.94 528.08 868.29 665.34 1028.73 640.30
00014595 00000084 706.91 193.08 420.26 623.97 813.17 446.12 1009.65 420.63 928.77 533.81 861.77 666.88 1027.29 643.80
00014596 00000085 709.00 193.18 413.80 626.85 815.50 454.09 1008.01 433.16 926.01 539.69 857.04 667.04 1025.07 648.28
00014597 00000086 706.25 195.60 414.06 626.51 809.86 454.86 1002.64 429.80 919.53 542.94 857.78 674.04 1019.89 651.64
00014598 00000087 704.24 199.01 415.25 619.26 805.53 453.69 1001.21 428.84 917.75 545.61 859.54 675.21 1016.93 652.92
00014599 00000088 699.05 198.99 422.83 618.71 800.92 448.98 1001.34 426.02 915.56 547.03 853.76 671.59 1017.23 650.50
00014600 00000089 697.14 200.65 422.40 620.37 798.28 448.78 1000.00 425.70 913.66 548.07 850.15 674.40 1015.19 653.23
00014601 00000090 697.02 205.65 418.29 622.90 797.91 451.45 997.48 427.81 912.38 551.37 850.38 680.32 1013.20 658.66
00014602 00000091 697.12 206.85 416.53 624.87 798.89 452.69 995.21 428.76 912.56 554.39 855.84 685.85 1008.89 664.11
00014603 00000092 699.64 209.97 413.92 620.54 799.27 450.96 995.49 427.79 911.57 552.15 854.19 685.62 1006.39 664.86
00014604 00000093 700.85 207.56 415.54 620.28 800.66 448.66 998.03 425.83 912.73 549.81 854.44 682.54 1007.60 662.14
00014605 00000094 702.75 205.69 415.53 617.53 801.52 445.41 1000.12 422.50 912.26 543.78 854.54 677.86 1008.90 657.38
00014606 00000095 703.28 201.92 417.43 618.93 803.09 444.17 1001.14 420.40 913.46 539.02 853.26 673.49 1011.07 652.25
00014607 00000096 705.37 195.60 419.13 620.18 806.86 442.31 1004.33 419.72 916.69 532.53 853.39 669.01 1012.80 649.06
00014608 00000097 707.39 191.41 422.08 615.72 809.96 439.16 1008.77 414.28 921.29 525.16 857.54 662.14 1016.41 640.39
00014609 00000098 708.51 184.11 424.64 615.02 815.06 433.44 1011.41 405.79 926.65 517.70 863.88 653.59 1019.23 629.47
00014610 00000099 713.87 178.70 419.54 620.14 814.27 427.61 1015.22 409.83 920.23 518.06 854.89 647.00 1021.19 632.03
00014611 00000100 714.25 176.31 421.08 620.17 815.58 425.98 1017.23 408.97 921.76 516.89 856.18 644.75 1023.42 630.21
00014612 00000101 715.24 178.27 420.01 613.79 816.09 424.07 1018.06 407.00 922.42 511.01 855.88 640.43 1024.09 625.81
00014613 00000102 714.51 172.81 420.15 595.88 816.74 417.29 1016.69 403.24 920.64 496.31 856.52 624.41 1023.05 612.31
00014614 00000103 714.14 168.35 421.80 593.07 816.57 411.04 1015.78 392.25 920.21 486.15 859.23 619.37 1022.86 602.87
00014615 00000104 714.39 169.05 422.12 592.18 815.83 407.72 1017.67 388.23 919.96 482.41 858.16 618.47 1023.71 601.35
00014616 00000105 715.41 166.89 421.34 593.65 817.87 409.27 1018.25 390.03 922.44 484.70 860.10 618.60 1024.49 601.63
00014617 00000106 715.90 169.86 421.46 593.57 819.48 412.98 1019.27 395.54 923.15 489.93 859.34 619.97 1024.94 604.92
00014618 00000107 716.73 176.01 420.25 592.54 819.96 416.94 1021.97 402.88 925.18 498.02 858.26 623.51 1027.44 611.40
00014619 00000108 716.89 178.23 419.99 595.82 820.45 418.86 1024.26 406.32 927.65 504.08 859.07 629.91 1027.53 619.10
00014620 00000109 718.80 182.85 418.07 600.21 819.94 422.58 1026.10 409.50 928.41 509.37 856.94 636.37 1028.20 625.12
00014621 00000110 719.11 182.26 417.76 603.33 820.12 425.18 1026.69 411.71 928.04 515.08 857.03 640.25 1027.72 628.63
00014622 00000111 722.87 178.83 410.07 611.59 822.13 437.68 1021.77 422.15 924.94 523.98 856.38 648.57 1022.81 635.57
00014623 00000112 720.06 178.84 414.62 621.79 824.04 442.35 1016.76 417.93 930.43 520.57 863.96 657.44 1021.21 637.08
00014624 00000113 718.90 185.28 415.79 623.17 822.11 439.68 1015.52 416.27 928.09 522.87 865.62 665.97 1012.74 646.72
00014625 00000114 717.34 182.70 417.60 622.19 821.42 439.99 1015.26 418.79 928.24 528.79 865.82 663.36 1014.85 645.21
00014626 00000115 719.30 187.10 415.35 617.06 822.16 444.56 1016.25 425.87 927.39 538.42 865.68 662.58 1017.49 646.10
00014627 00000116 718.87 183.26 417.04 618.24 821.87 444.62 1016.76 424.89 928.13 535.00 865.70 659.98 1019.83 642.42
00014628 00000117 717.37 176.67 423.09 619.99 824.49 435.88 1021.05 411.85 934.17 525.04 870.33 655.27 1022.53 634.07
00014629 00000118 720.04 178.53 424.35 611.54 830.54 427.64 1025.90 403.26 941.60 514.26 872.89 647.92 1025.11 626.25
00014630 00000119 722.39 177.34 424.06 613.15 833.86 425.46 1030.54 401.51 945.67 511.92 874.90 646.19 1029.43 624.56
00014631 00000120 722.93 178.74 424.15 612.69 833.73 427.02 1031.36 402.99 946.57 515.05 876.73 650.29 1030.19 628.65
00014632 00000121 723.67 183.29 421.79 618.05 834.14 433.49 1028.74 408.73 944.88 521.52 880.62 661.43 1026.74 639.39
00014633 00000122 728.95 181.84 406.45 634.09 838.59 453.86 1027.50 433.98 943.84 536.56 881.47 676.86 1028.45 660.01
00014634 00000123 727.79 187.79 406.54 636.22 836.53 457.91 1029.56 438.05 943.93 546.43 878.60 681.60 1033.12 664.95
00014635 00000124 725.69 191.60 409.99 628.33 835.30 457.14 1029.58 437.36 946.44 549.85 877.64 678.25 1035.98 661.45
00014636 00000125 724.73 195.67 412.28 622.23 834.22 452.88 1029.85 434.11 946.44 547.27 875.30 673.48 1036.08 657.32
00014637 00000126 724.47 191.85 414.31 624.76 833.89 448.50 1032.57 428.09 948.01 543.52 877.71 673.59 1038.59 655.75
00014638 00000127 727.79 192.18 414.28 623.28 840.20 446.51 1037.18 424.97 956.58 541.09 882.77 670.58 1044.78 651.51
00014639 00000128 734.33 192.96 411.37 618.24 847.38 446.36 1046.41 424.96 966.87 538.12 887.60 668.49 1053.29 649.62
00014640 00000129 738.17 196.18 410.66 612.35 853.52 448.35 1053.11 425.56 975.29 539.66 895.56 669.93 1060.12 649.86
00014641 00000130 742.30 188.96 408.96 620.55 858.20 442.59 1050.00 426.90 976.29 539.95 907.70 663.00 1059.48 651.39
00014642 00000131 738.66 201.43 409.95 607.60 856.04 454.93 1055.72 433.99 977.81 549.66 900.64 676.06 1061.23 657.71
00014643 00000132 735.54 201.52 410.54 609.25 849.76 458.44 1051.22 437.54 970.66 555.84 894.24 678.76 1057.47 660.63
00014644 00000133 735.24 201.81 410.63 610.76 849.09 461.10 1051.24 442.98 969.27 561.69 891.94 681.70 1055.08 666.11
00014645 00000134 735.44 203.61 411.84 609.70 851.88 463.29 1054.01 446.43 973.11 565.97 894.36 682.91 1057.01 668.32
00014646 00000135 736.05 210.44 412.96 604.62 855.85 465.69 1055.95 450.09 978.84 570.39 896.56 680.66 1062.06 667.25
00014647 00000136 742.13 203.77 414.43 617.25 863.50 475.73 1055.63 459.23 978.30 571.25 902.77 672.06 1063.78 659.51
00014648 00000137 745.75 216.78 410.43 610.17 864.19 475.97 1053.37 464.03 978.94 576.78 900.22 678.46 1065.36 667.30
00014649 00000138 743.20 219.29 413.71 610.25 861.15 474.40 1052.45 461.21 978.96 581.58 899.92 680.62 1067.55 668.00
00014650 00000139 743.35 221.16 413.20 608.56 860.88 473.80 1054.26 460.49 980.39 583.81 902.13 683.10 1068.84 670.43
00014651 00000140 743.17 221.17 413.09 608.74 860.39 474.16 1055.43 460.34 980.26 586.68 901.61 685.22 1067.68 672.53
00014652 00000141 735.06 221.28 415.17 607.57 857.05 478.18 1054.66 461.69 978.23 588.74 895.64 688.86 1063.39 674.50
00014653 00000142 731.83 219.61 415.79 609.78 851.40 477.24 1049.70 460.93 972.19 587.42 892.43 691.20 1058.91 676.79
00014654 00000143 730.27 219.07 416.34 610.07 848.86 476.51 1047.40 460.93 969.20 585.39 890.43 690.62 1056.54 676.85
00014655 00000144 730.33 220.40 416.39 606.79 847.90 476.35 1046.33 459.76 967.63 584.46 891.91 691.61 1055.26 676.92
00014656 00000145 731.12 219.16 414.44 606.64 846.18 474.82 1047.40 458.04 965.52 582.87 890.09 693.37 1053.79 678.57
00014657 00000146 730.16 216.49 414.13 606.64 844.82 472.74 1046.32 456.66 963.90 578.80 887.78 690.47 1052.41 676.36
00014658 00000147 729.07 212.43 414.06 607.79 842.27 472.22 1044.30 454.22 961.03 574.11 886.00 689.91 1050.18 674.33
00014659 00000148 727.79 209.40 414.26 610.60 840.95 469.53 1043.53 451.54 960.85 570.87 884.81 688.99 1049.00 673.45
00014660 00000149 729.64 201.05 412.74 617.07 845.33 469.77 1046.46 452.08 967.08 569.16 888.71 688.30 1051.10 673.25
00014661 00000150 730.84 201.91 413.03 615.98 848.38 467.62 1050.42 447.84 972.61 565.60 894.08 688.48 1056.65 671.51
00014662 00000151 732.85 202.32 413.01 620.13 851.93 465.78 1054.81 444.33 979.08 563.70 898.78 691.30 1060.66 672.78
00014663 00000152 738.02 201.36 406.38 634.08 856.58 459.93 1046.20 442.10 980.50 558.25 908.80 694.65 1049.86 679.36
00014664 00000153 743.61 203.03 403.14 627.92 864.85 466.66 1050.16 449.60 984.61 558.62 914.07 693.89 1049.62 680.32
00014665 DELETE   752.67 199.79 403.32 626.77 880.90 459.50 1060.43 442.94 1006.18 553.23 931.60 685.84 1065.95 671.76
00014666 DELETE   758.02 183.21 414.91 632.65 900.62 453.65 1093.82 439.40 1035.10 553.09 950.56 675.90 1100.25 663.61
00014667 DELETE   774.99 188.72 406.24 626.34 924.03 441.92 1107.28 426.91 1060.82 544.06 976.45 674.58 1110.36 659.66
00014668 00000157 779.40 189.83 406.77 623.92 930.51 438.08 1113.93 426.95 1066.39 540.73 975.45 671.89 1110.86 660.82
00014669 00000158 775.91 196.18 409.95 623.78 923.82 435.23 1108.95 426.38 1058.42 541.84 965.83 672.34 1102.54 663.11
00014670 00000159 771.16 198.45 410.39 624.27 912.39 432.68 1101.83 425.06 1046.95 538.90 954.56 673.89 1094.45 665.71
00014671 00000160 770.71 202.68 410.98 617.41 906.26 432.24 1099.43 423.77 1038.98 536.50 947.51 672.99 1094.11 663.94
00014672 00000161 771.28 199.24 410.76 619.99 907.91 433.55 1099.71 423.46 1041.37 536.21 950.86 671.96 1097.33 661.39
00014673 00000162 773.60 199.71 410.19 625.47 914.25 435.50 1103.72 424.55 1049.71 539.61 954.53 672.36 1101.94 661.53
00014674 00000163 774.62 199.37 411.59 626.01 918.41 438.04 1105.55 425.46 1053.20 541.38 959.55 673.11 1106.04 660.90
00014675 00000164 773.30 201.89 411.50 626.83 918.47 439.88 1106.15 430.45 1052.93 545.20 955.12 672.94 1105.47 663.30
00014676 00000165 769.83 203.00 411.75 628.55 911.48 441.19 1101.00 432.60 1045.01 550.88 947.08 674.55 1101.28 665.40
00014677 00000166 765.80 208.00 412.33 625.25 900.58 442.57 1094.50 435.75 1032.85 550.85 934.81 675.05 1096.79 667.22
00014678 00000167 760.55 202.06 410.38 632.59 889.69 445.04 1086.47 439.95 1019.38 553.61 922.59 675.91 1087.45 669.74
