Video ID: 	jO_MOKLRHfM
H: 	1080
W: 	1920
FPS: 	30.0

FRAME INDEX X0 Y0 W H [Landmarks (5 Points)]

00018096 00000000 1202.78 268.66 465.93 561.89 1318.28 498.24 1518.54 452.50 1442.24 576.87 1391.94 703.41 1554.04 661.50
00018097 00000001 1197.07 262.81 469.92 560.27 1313.73 491.85 1516.71 447.81 1434.64 564.04 1386.51 691.74 1551.89 653.81
00018098 00000002 1200.05 266.83 461.42 554.94 1315.22 493.34 1513.62 445.84 1438.50 572.09 1388.28 695.62 1551.45 652.09
00018099 00000003 1192.16 267.28 466.88 552.17 1305.09 493.60 1509.05 445.96 1426.17 565.25 1382.56 693.91 1548.08 652.98
00018100 00000004 1191.61 265.59 467.63 554.41 1303.70 493.60 1506.08 444.84 1423.67 563.54 1381.13 693.68 1545.37 651.70
00018101 00000005 1187.90 263.22 467.63 559.16 1299.02 491.77 1499.56 441.37 1417.99 563.65 1377.86 694.86 1539.67 651.52
00018102 00000006 1187.04 259.89 470.18 566.65 1297.04 490.83 1496.87 437.36 1415.99 562.04 1378.71 696.47 1541.30 650.34
00018103 00000007 1187.11 266.12 467.84 579.81 1303.24 500.44 1494.90 443.07 1423.47 571.26 1389.77 710.70 1540.12 659.57
00018104 00000008 1188.57 270.65 468.29 582.21 1304.85 502.79 1498.70 447.89 1426.45 573.57 1390.90 715.66 1543.50 666.71
00018105 00000009 1188.98 268.20 462.65 578.70 1306.18 509.22 1500.36 457.19 1427.19 576.81 1388.81 715.35 1541.36 668.77
00018106 00000010 1186.33 272.99 469.65 576.75 1308.65 523.66 1501.93 469.94 1433.12 593.78 1393.20 724.11 1547.65 675.82
00018107 00000011 1184.57 273.10 475.82 584.28 1310.13 529.66 1505.67 474.52 1440.28 603.25 1396.80 733.24 1555.51 683.69
00018108 00000012 1186.68 278.64 473.17 588.06 1309.61 535.04 1510.29 483.38 1441.44 612.55 1395.28 743.40 1558.01 696.61
00018109 00000013 1182.28 289.17 477.75 591.29 1307.26 541.89 1511.15 492.48 1440.11 622.61 1392.05 753.05 1557.61 708.36
00018110 00000014 1178.95 288.50 474.66 597.26 1304.55 543.47 1507.53 495.53 1437.03 624.21 1388.10 756.90 1553.96 713.92
00018111 00000015 1178.61 288.55 474.55 594.75 1302.86 541.45 1506.73 492.67 1434.94 619.98 1385.57 754.92 1552.64 711.18
00018112 00000016 1178.35 278.20 476.55 597.39 1302.42 534.26 1506.31 480.98 1435.26 607.79 1385.52 747.89 1552.90 700.19
00018113 00000017 1177.71 273.01 472.03 580.82 1297.58 523.45 1501.53 471.67 1425.14 602.11 1374.69 725.41 1539.56 682.27
00018114 DELETE   1181.03 270.94 465.32 569.80 1299.22 515.01 1501.81 466.41 1424.09 590.23 1374.21 714.48 1538.09 673.88
00018115 00000019 1184.22 265.28 462.65 573.33 1299.56 509.33 1503.45 460.85 1424.24 575.36 1374.60 710.96 1540.62 670.02
00018116 00000020 1187.22 249.60 461.44 585.41 1298.71 496.54 1501.44 443.31 1425.05 558.05 1373.72 699.35 1545.14 654.93
00018117 00000021 1188.00 243.03 458.68 588.24 1301.28 486.37 1498.19 433.16 1424.62 544.01 1378.64 692.46 1543.67 647.27
00018118 00000022 1186.66 240.22 466.16 591.21 1302.24 478.09 1499.85 424.33 1425.23 531.74 1378.49 686.06 1547.15 639.49
00018119 00000023 1185.83 246.01 467.31 581.80 1299.25 474.74 1497.91 419.18 1423.01 528.18 1378.37 682.65 1549.58 634.28
00018120 DELETE   1185.17 241.57 469.02 589.95 1299.69 472.78 1500.75 415.92 1426.14 524.69 1378.94 682.94 1553.46 633.43
00018121 00000025 1185.40 234.65 474.59 595.76 1304.34 467.20 1505.77 410.82 1432.54 518.39 1383.22 679.13 1557.10 629.43
00018122 00000026 1183.77 238.18 478.36 592.04 1304.35 471.02 1505.33 411.94 1435.93 521.56 1387.44 682.15 1559.47 630.12
00018123 00000027 1182.01 241.99 480.53 584.64 1304.91 476.69 1506.16 413.04 1439.14 524.05 1392.28 684.77 1563.73 629.12
00018124 00000028 1180.14 244.12 484.00 576.25 1307.05 480.40 1506.65 416.61 1441.03 526.37 1393.12 681.04 1563.26 625.16
00018125 00000029 1179.15 240.79 486.89 577.48 1307.91 481.32 1507.70 414.87 1444.03 525.50 1396.13 680.92 1565.80 623.00
00018126 00000030 1178.38 237.04 488.97 587.53 1307.96 480.46 1507.23 412.99 1444.94 525.52 1396.15 682.74 1565.43 624.07
00018127 00000031 1178.16 237.26 494.24 594.91 1306.79 482.85 1507.68 412.57 1444.28 526.90 1398.69 689.10 1567.60 628.37
00018128 00000032 1178.05 239.76 491.77 597.42 1305.81 487.43 1504.50 418.75 1442.55 532.51 1396.24 692.74 1563.82 634.16
00018129 00000033 1173.66 238.77 493.47 599.68 1304.35 486.37 1502.95 417.38 1442.39 532.49 1395.88 693.16 1563.21 634.58
00018130 00000034 1172.47 240.39 492.83 599.30 1303.67 489.03 1501.22 418.96 1441.84 533.96 1396.22 694.97 1562.97 635.78
00018131 00000035 1171.59 240.03 491.63 595.85 1302.61 491.57 1500.76 420.06 1442.07 534.21 1397.50 695.45 1564.96 635.06
00018132 00000036 1169.43 239.57 492.44 592.49 1301.65 492.34 1499.31 418.71 1441.54 532.16 1396.36 692.93 1564.88 630.87
00018133 00000037 1168.50 237.99 492.04 589.61 1302.37 489.11 1499.36 414.65 1443.58 529.26 1397.07 689.26 1565.53 626.34
00018134 00000038 1167.84 239.16 491.09 589.98 1300.98 487.31 1497.86 412.56 1442.53 529.07 1395.53 688.91 1565.01 625.65
00018135 00000039 1166.03 238.87 490.87 592.34 1301.68 496.25 1496.07 421.39 1442.52 533.10 1395.87 691.05 1562.93 628.67
00018136 00000040 1168.70 240.07 488.22 594.98 1303.01 496.50 1495.45 423.32 1440.68 535.28 1397.26 693.70 1560.72 632.68
00018137 00000041 1168.41 241.51 488.70 592.10 1302.67 490.87 1497.05 417.77 1441.97 533.28 1397.69 692.40 1561.39 631.40
00018138 00000042 1169.31 243.09 491.28 589.08 1302.86 487.12 1499.18 414.18 1444.30 533.95 1399.37 691.55 1565.21 629.74
00018139 DELETE   1169.68 242.41 490.70 591.06 1302.53 486.29 1500.12 414.24 1444.11 535.23 1399.15 692.79 1565.54 631.64
00018140 00000044 1170.85 243.04 493.06 590.00 1304.78 482.69 1503.47 412.21 1447.34 533.64 1402.07 691.27 1569.15 630.73
00018141 00000045 1169.45 242.01 494.54 594.23 1303.91 481.22 1503.76 411.94 1446.32 533.71 1400.46 692.95 1567.71 633.34
00018142 00000046 1171.68 241.33 495.70 595.46 1305.12 481.02 1505.98 412.60 1447.36 534.07 1401.54 692.90 1569.18 633.90
00018143 00000047 1174.91 244.06 494.83 592.51 1306.12 482.15 1507.99 413.87 1447.69 535.36 1404.31 695.09 1571.46 635.88
00018144 00000048 1177.97 242.68 491.61 594.85 1309.54 487.57 1511.03 418.70 1453.84 536.91 1407.88 698.96 1573.97 639.44
00018145 00000049 1186.61 239.94 492.86 599.80 1317.09 487.21 1520.22 416.55 1461.65 533.17 1416.22 700.28 1583.22 638.73
00018146 00000050 1188.36 234.53 487.67 605.61 1321.32 488.55 1522.05 415.66 1467.60 536.39 1419.16 701.93 1594.55 638.32
00018147 00000051 1190.87 239.08 488.83 612.17 1326.52 490.47 1525.41 419.29 1475.13 542.00 1427.03 708.57 1598.22 647.48
00018148 00000052 1193.60 237.33 488.14 611.71 1330.64 491.42 1531.90 419.19 1482.95 545.80 1432.67 709.40 1605.98 647.73
00018149 00000053 1193.99 240.10 492.96 609.31 1335.21 498.82 1537.22 427.71 1490.24 552.95 1437.24 713.07 1610.68 653.56
00018150 00000054 1196.53 242.62 490.81 610.52 1338.00 502.13 1541.44 431.42 1494.87 557.48 1440.57 717.53 1614.59 658.94
00018151 00000055 1197.62 249.71 492.19 614.65 1336.97 506.22 1539.91 437.62 1493.05 560.39 1442.62 726.25 1613.42 669.61
00018152 00000056 1193.57 243.25 498.25 638.89 1338.22 508.24 1539.36 441.32 1494.90 564.21 1443.78 733.97 1614.02 678.59
00018153 00000057 1195.90 245.41 498.25 630.59 1340.80 511.94 1545.38 442.53 1501.14 565.95 1449.53 735.92 1619.33 678.44
00018154 00000058 1198.81 247.77 499.64 625.70 1343.53 516.59 1553.38 446.59 1506.02 569.92 1451.76 737.43 1622.94 679.40
00018155 00000059 1199.97 255.39 500.78 621.62 1346.84 520.62 1558.77 450.11 1512.40 578.24 1454.64 742.57 1627.17 684.10
00018156 00000060 1200.11 254.60 503.94 627.35 1349.00 522.78 1560.28 450.09 1515.08 579.98 1458.91 746.00 1629.52 685.49
00018157 00000061 1202.30 253.25 506.19 625.51 1351.58 522.95 1563.94 448.52 1517.76 581.31 1462.13 746.06 1632.68 683.68
00018158 00000062 1201.22 254.34 506.86 628.92 1353.85 528.41 1564.65 454.35 1520.54 581.83 1464.83 749.30 1633.28 687.38
00018159 00000063 1201.03 253.22 505.21 636.37 1356.13 529.16 1564.78 456.07 1522.54 584.91 1466.00 752.30 1632.66 691.67
00018160 00000064 1200.13 255.60 509.87 643.33 1359.17 532.75 1562.23 459.68 1524.13 582.58 1471.87 757.25 1630.59 697.02
00018161 00000065 1199.77 255.58 511.84 650.24 1358.48 532.28 1563.23 458.88 1524.81 582.58 1470.20 758.74 1632.64 698.11
00018162 00000066 1198.16 251.00 516.18 647.54 1358.32 528.63 1565.00 452.97 1527.16 577.44 1471.75 753.25 1636.39 690.24
00018163 DELETE   1197.42 242.60 517.28 649.88 1357.76 521.50 1566.40 446.70 1527.80 566.81 1465.34 742.65 1639.59 680.52
00018164 DELETE   1200.36 235.63 514.37 650.57 1358.78 513.48 1563.29 437.80 1527.09 554.52 1465.65 732.75 1639.23 669.88
00018165 00000069 1197.94 229.78 518.32 643.46 1356.39 505.27 1562.58 426.16 1525.27 545.69 1461.95 721.51 1640.33 655.82
00018166 00000070 1202.06 229.68 515.55 629.25 1358.17 503.49 1563.81 422.20 1524.84 542.01 1461.85 713.66 1640.99 646.08
00018167 00000071 1203.62 225.73 516.14 626.67 1360.02 500.11 1566.32 417.64 1526.28 538.13 1461.69 708.89 1642.76 639.83
00018168 00000072 1202.07 222.69 516.25 626.90 1359.36 498.59 1565.67 415.94 1525.70 534.95 1461.23 708.07 1642.93 638.55
00018169 00000073 1202.42 223.32 514.77 627.22 1360.33 498.24 1564.51 414.79 1527.28 533.63 1464.27 708.96 1643.03 639.15
00018170 00000074 1203.52 225.36 516.43 626.37 1362.37 497.18 1565.27 412.58 1530.00 531.71 1470.89 710.17 1645.64 639.69
00018171 00000075 1200.85 225.38 518.48 633.40 1362.38 498.72 1562.76 413.44 1531.15 530.80 1473.99 712.81 1646.23 641.92
00018172 00000076 1198.05 223.90 521.63 640.43 1360.31 497.39 1561.48 411.93 1529.84 528.59 1474.29 714.55 1647.33 643.21
00018173 00000077 1195.81 223.00 523.92 640.95 1358.31 499.18 1558.84 412.08 1528.29 529.13 1473.08 715.14 1646.84 642.29
00018174 00000078 1191.61 222.25 528.62 648.86 1355.95 499.84 1559.07 412.92 1527.83 533.23 1470.24 720.70 1646.35 647.76
00018175 00000079 1183.87 221.88 534.18 650.48 1350.75 503.37 1557.40 414.65 1525.37 539.71 1463.80 723.82 1642.81 649.29
00018176 00000080 1181.51 224.59 532.09 644.00 1346.76 509.59 1552.99 419.83 1521.45 543.96 1462.24 726.04 1640.49 650.55
00018177 00000081 1176.57 229.42 531.57 644.34 1340.84 514.83 1543.59 422.44 1516.83 544.82 1461.33 729.59 1636.84 651.96
00018178 00000082 1172.53 232.20 533.30 650.56 1335.32 518.48 1537.97 426.84 1510.97 550.38 1458.77 737.35 1633.28 660.42
00018179 00000083 1166.98 231.40 539.53 664.82 1331.85 517.91 1533.60 425.79 1509.03 549.92 1461.03 742.47 1634.59 664.59
00018180 00000084 1161.36 236.65 542.28 663.27 1326.06 519.04 1530.11 426.69 1504.89 553.25 1458.70 746.05 1632.99 667.40
00018181 00000085 1159.17 243.33 538.39 647.44 1320.86 522.67 1527.59 429.26 1497.25 557.80 1452.97 746.22 1627.24 666.64
00018182 00000086 1155.27 240.62 535.11 641.07 1318.86 521.09 1524.57 429.31 1494.61 559.56 1448.10 742.78 1621.11 664.56
00018183 00000087 1150.95 241.16 535.07 639.75 1315.60 523.92 1519.08 432.04 1491.77 559.87 1444.22 741.62 1617.00 662.97
00018184 00000088 1148.74 240.50 539.51 649.45 1316.35 520.56 1514.83 429.78 1492.58 555.90 1446.87 741.36 1617.04 663.34
00018185 00000089 1148.87 236.15 537.74 652.27 1315.83 517.74 1515.01 428.30 1491.29 554.49 1441.96 739.27 1613.94 662.55
00018186 00000090 1147.86 241.79 537.38 645.17 1313.07 522.59 1514.49 433.00 1487.99 558.45 1441.16 741.24 1613.22 664.13
00018187 00000091 1147.90 242.18 532.86 641.67 1311.33 523.43 1511.76 433.68 1486.13 558.57 1439.52 740.36 1611.03 662.92
00018188 00000092 1148.68 241.16 528.84 633.26 1312.59 523.38 1510.96 434.86 1486.48 557.99 1439.92 736.99 1607.88 660.61
00018189 00000093 1146.67 243.98 530.85 629.37 1309.43 525.94 1508.76 436.56 1482.90 558.44 1436.92 736.20 1606.18 658.90
00018190 00000094 1147.20 243.13 531.25 629.92 1310.31 530.21 1507.78 438.46 1482.66 559.41 1438.10 738.06 1605.15 659.15
00018191 DELETE   1146.10 246.46 532.21 630.41 1313.42 536.67 1509.37 444.85 1485.82 567.33 1440.75 741.11 1606.04 663.40
00018192 00000096 1149.81 251.24 530.30 630.06 1316.41 540.45 1512.94 445.21 1490.61 569.86 1444.88 745.83 1610.64 666.12
00018193 DELETE   1156.63 243.37 529.20 643.32 1324.85 535.41 1523.29 443.56 1499.38 567.45 1449.55 747.75 1616.54 671.19
00018194 DELETE   1162.09 244.29 528.75 650.54 1328.41 535.18 1531.00 443.13 1505.69 569.09 1455.32 752.83 1625.66 676.14
00018195 00000099 1163.52 242.74 533.80 660.32 1331.36 534.07 1536.01 443.98 1510.28 573.61 1462.69 759.89 1630.10 684.58
00018196 00000100 1162.44 241.38 538.11 671.83 1330.03 532.29 1538.89 444.69 1511.51 576.20 1460.46 765.23 1631.75 691.79
00018197 00000101 1162.44 242.42 538.11 668.31 1328.88 530.27 1538.55 442.65 1511.20 577.24 1459.89 764.26 1632.20 690.48
00018198 00000102 1160.00 240.22 540.17 666.13 1325.07 529.11 1536.50 437.17 1509.04 576.75 1458.87 763.02 1632.82 685.22
00018199 00000103 1155.60 236.64 541.10 665.77 1321.57 526.23 1529.97 434.08 1504.13 572.46 1456.77 759.11 1629.58 680.63
00018200 00000104 1154.27 231.41 539.53 659.01 1319.18 525.01 1526.58 431.00 1499.87 570.82 1451.28 751.44 1624.87 671.46
00018201 00000105 1153.25 229.48 537.97 654.25 1317.19 524.16 1522.53 429.10 1496.72 567.86 1449.06 747.66 1621.63 666.75
00018202 00000106 1147.94 228.01 536.56 647.91 1314.57 522.44 1516.24 427.26 1492.36 565.15 1444.29 742.25 1614.84 660.79
00018203 00000107 1148.76 223.42 532.15 646.61 1314.86 519.57 1515.30 425.40 1491.51 560.23 1438.83 736.58 1611.03 655.96
00018204 00000108 1148.29 221.33 530.23 645.43 1315.14 518.93 1514.05 425.32 1491.00 558.56 1438.09 734.88 1608.60 654.53
00018205 00000109 1148.87 216.53 526.93 644.69 1315.20 517.75 1513.98 423.47 1490.31 557.57 1431.86 730.31 1604.54 649.58
00018206 00000110 1147.18 220.91 527.96 639.67 1314.47 517.87 1513.46 424.49 1490.26 557.14 1431.60 730.67 1603.22 650.47
00018207 00000111 1147.05 221.10 527.38 641.21 1313.96 516.75 1511.48 424.15 1488.69 554.81 1432.04 730.10 1602.34 650.31
00018208 00000112 1144.88 219.87 526.00 640.22 1311.85 515.84 1508.03 425.16 1484.90 552.36 1428.66 728.21 1598.24 649.60
00018209 00000113 1145.03 234.13 528.60 622.80 1305.19 516.38 1507.90 425.46 1474.48 548.56 1427.31 724.07 1592.81 647.03
00018210 00000114 1142.06 232.87 529.25 621.96 1301.93 517.20 1504.23 424.83 1469.83 549.26 1424.66 723.39 1589.72 645.20
00018211 00000115 1142.98 236.75 531.47 621.17 1303.51 519.09 1505.84 428.65 1471.65 549.35 1427.10 725.59 1591.18 649.01
00018212 00000116 1136.46 226.76 533.77 632.77 1305.45 521.17 1504.65 430.88 1478.65 554.42 1425.48 731.62 1594.79 653.21
00018213 00000117 1137.43 227.58 532.48 633.80 1304.86 521.25 1504.07 429.77 1477.96 554.58 1424.95 732.55 1594.93 653.13
00018214 00000118 1141.69 238.36 532.73 623.17 1303.61 519.83 1506.84 430.04 1472.66 550.45 1427.09 728.37 1591.93 652.26
00018215 00000119 1137.20 226.72 531.92 636.82 1305.96 518.94 1504.73 428.62 1479.53 553.24 1424.59 731.96 1595.35 653.43
00018216 00000120 1137.88 221.62 534.73 651.03 1307.53 517.59 1505.53 427.06 1481.11 552.44 1427.36 734.50 1598.65 655.94
00018217 00000121 1137.69 223.32 535.31 653.51 1307.43 517.25 1504.68 427.46 1480.74 552.60 1427.65 735.47 1598.45 657.68
00018218 00000122 1139.29 227.08 534.52 649.44 1305.10 521.22 1505.98 432.04 1478.60 556.45 1426.10 738.34 1599.06 661.09
00018219 00000123 1145.15 230.02 527.24 637.57 1309.54 521.80 1507.37 435.63 1479.03 557.33 1428.56 734.85 1597.08 660.34
00018220 00000124 1146.42 230.91 523.99 632.37 1314.12 527.15 1509.05 439.90 1482.39 559.83 1430.82 732.17 1596.95 658.18
00018221 00000125 1145.29 231.82 525.69 634.73 1313.85 530.92 1508.41 443.31 1481.07 562.49 1429.20 734.02 1595.24 660.02
00018222 00000126 1144.10 231.51 529.84 645.07 1313.30 531.60 1507.48 443.31 1481.03 563.42 1433.68 739.43 1598.08 664.50
00018223 00000127 1143.23 236.17 529.64 647.71 1309.98 533.17 1506.39 446.02 1477.99 569.03 1429.66 743.67 1596.52 669.79
00018224 DELETE   1142.01 240.41 530.74 643.50 1306.23 538.22 1507.53 449.51 1474.60 577.96 1427.90 748.01 1596.40 672.68
00018225 00000129 1144.68 240.71 528.63 644.12 1306.50 540.46 1509.54 452.39 1472.97 583.80 1426.25 750.54 1595.69 675.72
00018226 00000130 1145.51 238.06 529.52 645.62 1308.95 539.66 1512.24 452.33 1476.23 584.33 1428.81 749.78 1597.90 675.68
00018227 00000131 1147.50 244.88 528.77 641.07 1308.25 540.82 1513.91 456.27 1473.40 588.58 1425.32 751.53 1596.28 679.65
00018228 00000132 1150.48 248.35 529.46 648.18 1309.31 544.04 1518.87 460.56 1475.07 594.12 1425.50 758.18 1599.88 687.26
00018229 00000133 1153.95 247.92 531.40 649.58 1312.97 542.09 1524.04 459.21 1479.01 593.89 1429.90 758.32 1604.00 688.26
00018230 00000134 1156.21 248.03 530.18 652.10 1313.86 544.95 1526.08 462.92 1479.74 597.02 1430.34 764.08 1603.18 694.91
00018231 00000135 1157.11 256.75 533.90 650.39 1314.14 549.61 1533.42 468.27 1482.28 601.83 1430.66 772.59 1606.82 703.96
00018232 00000136 1158.90 259.99 531.89 649.57 1314.38 552.85 1538.53 473.38 1482.15 611.45 1427.02 776.54 1607.19 709.58
00018233 00000137 1158.77 256.49 533.13 659.19 1314.88 554.59 1540.14 476.52 1482.68 617.46 1424.41 779.21 1608.43 713.33
00018234 00000138 1160.68 254.44 533.17 668.81 1318.16 556.72 1544.05 480.60 1486.40 621.49 1426.38 783.09 1610.45 718.88
00018235 00000139 1158.02 261.97 532.86 667.49 1317.24 560.99 1541.95 484.69 1485.75 624.48 1426.96 788.39 1607.41 723.70
00018236 DELETE   1160.15 271.16 527.64 663.35 1316.98 566.58 1539.13 491.26 1482.60 629.03 1424.70 794.85 1600.69 731.07
00018237 00000141 1160.29 274.33 528.06 667.50 1317.12 569.83 1538.79 496.69 1481.38 632.71 1424.38 801.15 1596.35 739.09
00018238 00000142 1158.65 267.69 523.93 665.94 1317.87 576.04 1529.90 501.72 1477.37 632.27 1414.64 799.75 1591.89 737.56
00018239 00000143 1158.84 266.76 521.73 667.19 1316.62 577.20 1529.28 503.76 1475.90 636.01 1411.99 801.16 1589.80 739.93
00018240 00000144 1158.60 269.69 521.45 664.33 1317.70 581.04 1528.30 506.25 1477.43 638.26 1411.35 802.03 1590.42 739.90
00018241 00000145 1159.52 282.18 523.11 657.10 1315.09 580.18 1536.90 506.15 1478.79 642.56 1417.06 805.57 1589.47 742.88
CROP_BBOX: 919 0 1920 1080
