Video ID: 	YTNO4rVbqV0
H: 	1080
W: 	1920
FPS: 	25.0

FRAME INDEX X0 Y0 W H [Landmarks (5 Points)]

00013360 00000000 971.48 125.38 399.16 582.42 1071.30 349.05 1245.42 366.40 1141.25 450.59 1072.27 548.14 1217.68 563.33
00013361 00000001 985.13 127.53 400.15 570.44 1085.82 350.08 1259.25 366.60 1155.17 451.39 1088.49 547.05 1228.71 561.92
00013362 00000002 996.79 146.03 399.59 556.03 1092.86 351.53 1269.76 363.60 1170.69 446.93 1103.81 551.50 1238.33 562.30
00013363 00000003 996.52 149.85 399.73 556.58 1095.53 351.91 1271.96 366.16 1173.07 449.49 1103.13 553.36 1237.95 565.95
00013364 00000004 992.00 153.70 401.54 557.13 1091.95 353.55 1269.63 368.64 1169.80 451.08 1097.60 556.40 1235.45 569.53
00013365 00000005 987.20 155.84 402.49 563.84 1088.96 357.61 1266.59 377.58 1165.76 453.49 1088.90 558.54 1230.92 575.83
00013366 00000006 983.70 160.52 401.49 553.11 1086.04 361.54 1262.08 381.08 1165.36 460.86 1087.34 559.52 1226.99 575.72
00013367 00000007 979.10 162.28 399.66 546.91 1082.68 365.84 1257.05 385.68 1163.75 465.56 1082.82 562.05 1222.92 578.32
00013368 00000008 974.87 161.82 400.20 551.41 1081.16 369.51 1253.34 389.03 1162.18 472.01 1080.89 565.74 1221.53 581.91
00013369 00000009 967.94 166.22 400.91 544.93 1076.43 376.26 1249.80 394.75 1157.75 475.93 1070.66 568.60 1216.78 583.96
00013370 00000010 956.65 160.66 403.41 551.26 1061.80 379.93 1241.96 398.73 1139.87 481.39 1063.34 573.83 1213.53 588.60
00013371 00000011 949.17 168.67 406.08 550.43 1055.78 382.23 1232.12 400.34 1130.60 481.87 1057.17 574.53 1204.95 588.96
00013372 00000012 940.59 169.65 401.55 555.53 1048.83 385.29 1222.11 405.14 1124.42 483.49 1046.30 578.44 1192.55 595.14
00013373 00000013 926.84 170.82 405.69 571.48 1039.92 389.06 1215.16 409.82 1119.58 490.20 1038.15 593.64 1181.93 611.13
00013374 00000014 912.31 179.07 408.70 559.52 1028.51 390.87 1204.41 411.83 1108.60 502.75 1031.43 597.74 1167.25 615.47
00013375 00000015 899.98 185.46 406.54 556.43 1019.17 398.88 1197.89 418.89 1104.04 514.44 1022.53 608.31 1156.18 625.46
00013376 00000016 890.93 183.85 409.32 566.93 1012.94 401.21 1193.95 425.38 1098.90 521.22 1011.31 612.41 1146.69 632.99
00013377 00000017 885.64 190.10 408.12 561.57 1010.20 405.87 1188.97 430.18 1095.57 526.08 1007.79 618.20 1140.49 639.07
00013378 00000018 879.63 191.51 409.35 579.33 1005.51 413.80 1183.08 440.10 1090.66 535.27 1002.91 625.92 1133.20 649.39
00013379 DELETE   874.04 206.83 412.60 577.91 1009.92 427.26 1188.23 458.88 1094.93 543.20 999.67 630.09 1138.32 657.57
00013380 00000020 870.27 214.50 419.36 578.99 1009.83 443.45 1187.29 472.06 1093.78 555.57 999.95 637.83 1137.66 663.06
00013381 00000021 874.72 228.34 417.91 579.11 1016.04 450.75 1189.88 480.56 1098.59 570.52 1001.22 645.51 1137.89 672.77
00013382 00000022 882.17 239.64 418.95 570.61 1021.88 454.35 1195.33 481.40 1112.24 581.45 1010.52 655.35 1152.19 677.93
00013383 00000023 887.81 235.24 422.26 575.36 1031.56 453.45 1204.74 481.36 1123.87 577.75 1018.45 652.20 1162.87 675.29
00013384 00000024 884.75 222.03 429.31 581.75 1041.54 441.87 1220.22 475.02 1134.15 566.04 1027.15 642.14 1167.61 671.68
00013385 00000025 884.15 211.20 422.32 569.16 1044.90 429.45 1225.62 457.60 1144.16 558.20 1034.76 633.73 1174.49 659.18
00013386 00000026 883.32 210.60 412.95 565.11 1044.22 427.57 1220.78 447.26 1149.79 550.93 1042.65 629.37 1181.86 647.71
00013387 00000027 880.23 212.56 402.14 563.77 1039.69 425.08 1211.79 438.09 1149.94 545.03 1048.32 628.52 1186.60 640.98
00013388 00000028 875.54 215.03 399.01 547.88 1033.58 421.48 1207.32 428.62 1148.09 540.32 1056.69 630.50 1189.86 637.72
00013389 00000029 872.64 197.53 398.12 552.25 1026.79 421.42 1204.62 426.19 1144.46 526.95 1056.20 628.96 1185.39 631.78
00013390 00000030 878.56 182.62 392.56 545.70 1026.49 406.91 1202.85 411.52 1143.62 505.51 1053.56 607.63 1186.15 610.90
00013391 00000031 878.78 171.39 396.90 558.08 1032.61 391.81 1207.65 401.31 1155.12 485.57 1055.20 595.52 1191.72 603.04
00013392 00000032 887.79 163.21 390.87 551.26 1035.43 385.45 1211.32 396.69 1155.28 476.90 1053.09 582.12 1193.18 591.26
00013393 00000033 891.52 164.19 391.52 545.13 1037.50 382.90 1214.59 394.84 1154.20 476.01 1051.49 578.87 1192.98 588.77
00013394 00000034 890.64 167.96 397.34 552.25 1044.92 378.31 1217.00 394.53 1157.12 476.92 1054.53 577.79 1191.14 591.00
00013395 00000035 891.59 168.77 396.21 551.20 1047.20 380.51 1216.49 398.41 1157.09 478.20 1055.66 577.68 1189.40 592.32
00013396 00000036 892.29 169.04 394.37 548.67 1047.41 381.26 1216.15 397.49 1157.30 478.59 1056.23 577.16 1189.57 590.45
00013397 00000037 892.08 169.22 390.83 540.57 1040.87 384.22 1216.53 398.84 1157.70 477.02 1054.35 578.43 1193.85 590.37
00013398 00000038 886.55 166.66 391.59 542.47 1036.95 384.62 1210.81 397.73 1155.80 474.42 1051.52 576.95 1190.55 587.74
00013399 00000039 881.59 163.05 393.83 545.76 1033.04 385.67 1206.45 397.45 1151.62 471.83 1048.75 576.22 1187.96 585.66
00013400 00000040 878.11 165.73 394.35 543.15 1032.66 386.16 1204.16 397.71 1150.27 473.27 1047.22 576.91 1183.64 586.23
00013401 00000041 879.20 168.69 393.86 541.45 1032.28 387.63 1204.91 399.12 1150.21 475.59 1047.93 579.12 1184.71 588.33
00013402 00000042 880.90 171.08 393.17 540.91 1033.39 390.03 1206.05 400.45 1152.12 480.66 1050.80 583.65 1186.44 591.94
00013403 00000043 880.62 174.25 394.46 541.36 1035.18 390.46 1208.05 401.54 1154.12 482.75 1051.08 585.16 1186.84 593.93
00013404 00000044 881.04 179.00 395.44 541.04 1038.33 391.35 1209.17 402.80 1155.46 486.97 1051.92 587.67 1186.18 596.81
00013405 00000045 880.39 183.11 396.29 542.36 1041.57 394.95 1208.18 407.63 1154.48 492.31 1053.36 590.18 1183.86 600.18
00013406 00000046 881.26 188.98 393.64 537.17 1041.07 397.68 1208.03 411.90 1152.27 497.32 1051.27 591.88 1182.29 603.26
00013407 00000047 881.05 185.32 395.46 540.63 1039.44 396.78 1207.27 410.49 1149.39 503.16 1052.92 592.87 1183.72 604.51
00013408 00000048 881.50 184.85 398.79 544.91 1044.07 405.01 1212.86 418.86 1154.25 509.78 1056.43 598.33 1186.75 610.28
00013409 00000049 887.91 186.46 401.52 545.26 1050.50 420.00 1217.22 435.25 1154.47 515.27 1059.89 603.48 1186.69 616.82
00013410 00000050 885.79 200.18 408.15 551.78 1054.34 423.22 1223.38 445.79 1156.65 531.95 1054.06 615.05 1181.49 634.74
00013411 00000051 885.26 211.03 414.07 556.06 1058.77 426.40 1226.43 455.71 1155.87 547.48 1046.56 618.95 1177.74 644.52
00013412 00000052 887.96 212.72 420.95 553.85 1062.79 425.60 1231.66 456.09 1159.14 550.62 1047.15 621.05 1177.85 647.60
00013413 00000053 888.61 213.01 421.36 555.96 1068.87 419.62 1233.74 452.45 1164.38 543.30 1047.42 616.47 1176.17 644.93
00013414 00000054 889.47 203.90 416.49 560.13 1064.19 413.24 1231.02 443.95 1163.53 531.79 1051.89 615.94 1177.54 642.71
00013415 00000055 889.74 197.68 408.42 552.66 1059.32 407.99 1226.60 435.08 1161.12 521.70 1054.76 609.93 1179.79 633.44
00013416 00000056 885.17 198.67 405.72 553.97 1054.31 404.54 1223.09 429.83 1161.83 516.81 1054.34 608.13 1183.94 630.01
00013417 00000057 876.77 194.97 403.53 551.01 1047.53 397.39 1215.30 421.40 1159.02 505.84 1052.59 601.47 1183.18 621.93
00013418 00000058 865.88 186.15 406.03 545.32 1041.51 384.28 1204.76 406.23 1151.95 490.89 1040.60 589.75 1169.57 608.48
00013419 00000059 863.94 168.52 394.16 542.83 1028.80 378.68 1192.19 406.26 1140.77 474.52 1032.26 571.69 1158.44 594.54
00013420 00000060 855.59 162.08 389.09 545.06 1016.55 365.67 1180.37 388.21 1127.63 462.25 1021.21 561.93 1149.28 580.19
00013421 00000061 847.91 159.38 388.33 536.22 1005.58 359.10 1172.39 378.82 1114.18 451.01 1010.53 552.39 1141.93 567.85
00013422 00000062 840.56 157.11 388.10 531.63 1001.13 356.34 1164.10 373.78 1107.95 449.75 1005.76 547.76 1132.96 561.73
00013423 00000063 830.14 154.72 395.00 529.07 992.99 360.41 1164.06 380.42 1103.53 457.12 1000.44 548.66 1131.98 565.36
00013424 00000064 824.90 158.69 395.91 530.57 987.51 360.10 1158.71 379.37 1098.16 455.03 994.79 549.03 1129.56 565.11
00013425 00000065 823.13 159.35 394.67 532.15 983.14 360.33 1154.60 378.59 1093.39 455.56 991.59 549.62 1128.69 564.96
00013426 00000066 821.53 159.21 395.12 530.21 980.42 358.66 1154.00 375.61 1092.39 454.12 990.16 549.43 1128.72 563.77
00013427 00000067 822.51 158.85 392.27 526.56 978.00 359.68 1151.89 374.62 1091.17 454.03 992.97 551.35 1129.15 564.02
00013428 00000068 822.59 160.73 391.12 521.26 977.26 364.01 1150.50 376.92 1088.43 458.28 993.75 551.65 1128.49 562.71
00013429 00000069 823.30 161.99 393.89 527.40 979.67 373.16 1151.82 384.53 1089.32 470.32 993.21 558.35 1127.45 568.68
00013430 00000070 828.59 168.87 392.09 548.84 977.96 379.02 1147.77 392.12 1088.11 474.19 994.87 577.17 1122.78 587.57
00013431 00000071 829.73 174.86 394.38 546.97 980.20 395.74 1147.45 409.17 1087.00 478.90 998.96 585.39 1123.24 595.84
00013432 00000072 830.52 173.58 397.72 549.91 980.23 394.99 1148.45 408.58 1084.53 479.41 997.52 585.58 1123.34 596.35
00013433 00000073 835.94 171.83 397.12 548.17 982.78 386.12 1154.74 402.47 1088.47 476.94 999.91 583.20 1128.38 596.00
00013434 00000074 847.52 170.62 390.94 540.55 988.39 382.57 1158.89 402.29 1091.22 472.76 1001.88 577.75 1131.35 593.23
00013435 00000075 854.52 169.64 393.33 536.11 992.76 374.76 1164.96 397.80 1090.97 463.77 1001.82 566.72 1132.38 584.73
00013436 00000076 847.23 159.15 401.14 539.90 998.68 367.03 1169.84 393.56 1095.61 462.53 995.88 554.78 1130.20 577.70
00013437 00000077 848.96 164.03 394.34 533.95 994.27 359.22 1168.66 386.05 1094.18 454.92 991.80 553.34 1127.74 574.47
00013438 00000078 839.59 162.04 397.17 535.94 985.02 356.11 1160.29 380.16 1086.40 453.47 982.62 549.75 1120.94 568.80
00013439 00000079 828.10 158.09 397.59 533.49 975.75 358.61 1152.23 378.04 1078.41 456.21 979.83 548.04 1122.56 564.82
00013440 00000080 823.65 162.36 394.82 516.69 969.77 361.84 1141.61 374.45 1070.91 456.50 982.75 549.37 1116.73 560.23
00013441 00000081 820.61 158.94 393.75 523.37 965.63 364.43 1135.33 376.27 1064.49 459.97 978.16 550.54 1110.97 561.07
00013442 00000082 820.41 160.18 392.92 522.97 963.52 365.94 1131.14 376.25 1060.62 462.13 976.36 552.47 1106.85 561.83
00013443 00000083 820.10 157.90 395.74 534.31 962.65 366.04 1129.91 378.98 1057.66 463.81 971.27 552.51 1105.18 564.37
00013444 00000084 830.49 166.82 394.45 537.73 960.50 368.24 1132.86 383.02 1058.31 462.22 967.08 558.27 1106.15 570.10
00013445 00000085 834.72 167.63 398.21 531.58 964.97 365.69 1137.51 383.25 1059.30 460.30 966.36 555.08 1106.68 569.27
00013446 00000086 840.87 166.16 399.41 527.41 968.50 359.54 1142.65 379.42 1059.55 454.93 967.31 554.63 1104.25 570.41
00013447 00000087 842.65 161.77 401.95 522.67 968.30 355.55 1144.60 378.06 1057.00 453.95 965.98 548.87 1100.90 566.31
00013448 00000088 837.04 158.67 404.26 527.40 969.09 354.65 1141.06 380.77 1048.58 458.82 960.26 542.42 1096.43 565.14
00013449 00000089 833.37 160.39 403.30 531.73 965.17 359.34 1136.09 382.99 1044.81 467.08 957.51 550.41 1092.08 571.41
00013450 00000090 836.25 164.55 397.01 542.41 957.03 365.64 1129.64 386.97 1044.26 467.57 957.22 562.14 1091.41 579.44
00013451 00000091 833.15 165.20 395.76 545.78 950.05 367.35 1122.42 386.83 1037.78 469.98 955.24 564.14 1087.39 580.09
00013452 00000092 833.61 163.50 394.57 547.08 949.76 366.32 1122.44 385.41 1037.55 467.21 954.85 563.93 1088.64 579.50
00013453 00000093 835.00 162.87 396.08 546.13 951.30 363.02 1124.76 383.34 1038.12 463.89 955.09 561.54 1088.35 578.02
00013454 00000094 838.11 164.21 395.41 532.48 955.84 363.67 1125.62 384.25 1040.81 464.27 956.22 556.69 1089.19 573.03
00013455 00000095 840.37 162.92 394.20 529.28 957.55 364.38 1125.26 385.65 1040.55 465.60 956.54 555.95 1088.59 572.76
00013456 00000096 842.73 162.25 392.03 526.56 958.07 366.09 1124.38 385.87 1040.89 466.04 960.19 556.15 1090.55 571.61
00013457 00000097 844.08 164.83 390.46 531.51 957.15 368.29 1122.96 386.83 1039.81 465.55 961.52 558.75 1091.27 573.68
00013458 00000098 841.73 164.00 390.69 532.91 952.84 368.63 1119.92 385.99 1037.12 467.02 960.01 558.29 1091.28 572.15
00013459 00000099 832.03 155.86 394.94 530.62 948.67 367.07 1116.53 379.97 1026.22 470.92 953.04 554.36 1084.43 566.45
00013460 00000100 825.28 154.95 393.62 528.57 940.31 364.61 1109.92 377.64 1020.59 464.22 949.69 552.69 1081.94 563.92
00013461 00000101 818.16 156.15 387.98 531.78 927.04 369.94 1101.45 375.34 1015.61 455.90 940.96 562.81 1077.24 566.67
00013462 00000102 811.33 154.22 388.13 542.39 916.66 372.12 1089.25 375.27 1004.74 458.59 935.86 568.70 1070.44 570.79
00013463 00000103 806.72 156.20 387.23 543.62 908.94 374.23 1077.39 375.98 994.02 460.87 928.34 565.55 1063.85 566.86
00013464 00000104 799.29 164.71 386.63 537.89 900.67 378.56 1064.19 381.37 982.61 467.11 918.43 568.45 1050.03 571.31
CROP_BBOX: 577 0 1536 947
