Video ID: 	2OMCSB1jLyk
H: 	1080
W: 	1920
FPS: 	25.0

FRAME INDEX X0 Y0 W H [Landmarks (5 Points)]

00001017 00000000 890.62 167.52 432.22 715.01 1046.62 473.64 1249.46 450.23 1207.82 595.17 1106.03 736.76 1252.36 717.02
00001018 00000001 890.54 166.74 430.15 712.71 1038.98 476.14 1243.46 450.52 1200.72 595.21 1095.62 733.44 1247.90 712.21
00001019 DELETE   887.64 165.50 432.22 710.58 1028.93 474.43 1239.38 448.47 1189.19 599.21 1081.60 729.23 1243.59 707.64
00001020 00000003 880.83 164.16 438.29 707.22 1022.67 468.69 1234.09 444.30 1181.59 597.31 1071.28 721.85 1240.47 701.07
00001021 DELETE   875.53 160.19 440.77 706.11 1014.08 461.04 1228.09 434.42 1173.09 585.88 1062.25 708.56 1236.25 685.99
00001022 00000005 872.66 151.45 437.84 707.49 1010.09 455.48 1220.27 428.96 1166.93 578.76 1056.49 701.11 1228.58 678.68
00001023 00000006 868.99 146.41 436.26 695.05 1003.25 449.27 1214.26 424.97 1158.51 567.96 1052.30 690.16 1222.90 669.93
00001024 00000007 867.32 143.28 436.54 687.46 999.24 444.19 1209.09 420.31 1151.85 561.25 1050.85 684.62 1219.03 665.06
00001025 00000008 863.07 137.25 440.71 692.02 995.50 443.56 1205.76 417.07 1146.30 556.59 1049.04 682.91 1217.60 661.45
00001026 00000009 860.29 133.93 445.90 691.34 994.63 443.68 1205.48 414.43 1145.12 554.62 1052.27 683.12 1219.33 659.37
00001027 00000010 862.75 135.83 448.14 686.46 996.09 443.50 1210.11 413.69 1146.82 554.40 1055.01 683.24 1223.53 659.01
00001028 00000011 863.28 135.47 451.93 684.86 998.72 441.66 1214.49 412.23 1149.94 553.24 1056.86 681.45 1227.29 657.14
00001029 00000012 867.58 134.77 453.95 685.34 1002.30 440.37 1220.84 409.98 1154.97 552.36 1060.57 680.25 1234.12 654.98
00001030 00000013 874.34 136.22 452.46 683.07 1007.86 438.84 1227.19 408.99 1161.15 551.33 1065.75 680.01 1240.39 655.03
00001031 00000014 880.34 133.65 452.25 686.08 1013.37 438.64 1234.50 408.48 1168.73 555.55 1070.29 682.08 1245.83 656.73
00001032 00000015 882.99 131.40 454.94 688.00 1019.17 439.45 1237.60 408.94 1174.97 554.29 1077.02 682.89 1250.50 656.86
00001033 00000016 885.91 132.19 457.41 684.16 1025.52 441.61 1244.03 410.25 1182.22 552.54 1085.66 684.22 1254.40 657.85
00001034 00000017 895.94 130.27 451.31 689.81 1031.94 440.22 1249.14 406.67 1187.09 550.62 1095.57 689.29 1257.16 661.50
00001035 00000018 899.67 131.56 454.56 695.24 1039.54 437.68 1255.22 404.67 1193.00 549.56 1107.68 693.97 1261.73 666.18
00001036 00000019 912.49 121.98 450.65 706.63 1047.17 428.87 1262.23 401.53 1193.54 542.98 1112.81 687.61 1268.12 665.18
00001037 00000020 917.83 119.09 448.15 713.16 1048.59 425.65 1263.81 398.42 1194.32 543.22 1116.93 688.20 1270.06 665.93
00001038 00000021 921.03 116.33 449.60 716.85 1050.46 421.45 1263.88 394.08 1195.26 536.78 1119.35 686.82 1271.41 664.67
00001039 00000022 920.56 113.50 452.58 724.64 1050.57 417.79 1264.33 390.93 1195.84 534.19 1118.68 686.42 1272.11 664.79
00001040 00000023 922.18 111.16 452.14 727.12 1051.92 416.17 1265.77 390.23 1197.45 532.49 1118.27 685.80 1272.52 664.86
00001041 00000024 920.08 113.07 453.49 721.49 1057.36 426.43 1272.00 401.61 1203.83 535.58 1114.83 683.77 1278.27 662.82
00001042 00000025 921.18 114.75 450.57 716.51 1058.72 429.47 1275.32 404.13 1207.01 540.24 1115.61 683.33 1280.32 662.22
00001043 00000026 920.24 110.21 451.84 718.53 1057.14 421.58 1272.55 396.28 1205.62 535.19 1117.25 680.27 1279.02 659.26
00001044 DELETE   923.60 109.25 447.99 713.77 1056.89 410.69 1268.86 386.22 1203.16 522.87 1120.16 674.20 1272.42 654.70
00001045 00000028 918.50 99.02 451.03 711.50 1057.49 405.15 1268.84 382.71 1203.76 517.18 1119.94 663.38 1273.41 644.66
00001046 00000029 916.68 99.13 454.29 698.12 1056.25 409.55 1272.43 383.65 1201.16 510.33 1117.35 652.54 1276.32 631.21
00001047 00000030 914.70 101.64 456.26 694.75 1056.35 411.87 1277.16 386.41 1203.71 515.93 1112.57 652.57 1280.83 631.46
00001048 00000031 919.59 102.04 451.62 698.37 1056.01 410.75 1277.22 387.41 1205.23 521.62 1112.01 655.93 1281.55 636.10
00001049 00000032 921.89 103.84 450.39 712.91 1055.53 409.22 1276.51 387.38 1204.43 523.83 1110.80 659.66 1284.18 640.62
00001050 00000033 919.91 104.20 451.26 721.82 1057.07 406.02 1273.47 384.56 1208.78 521.20 1106.27 662.85 1286.75 645.20
00001051 00000034 922.25 101.64 448.55 723.08 1056.45 405.94 1269.91 380.99 1206.75 519.47 1109.40 661.64 1287.44 641.19
00001052 00000035 923.10 100.01 447.40 717.49 1056.60 405.27 1269.74 379.07 1206.73 518.09 1114.83 662.44 1285.66 640.69
00001053 00000036 922.71 101.37 448.80 713.99 1058.88 405.37 1270.89 380.71 1208.55 518.45 1119.40 664.58 1283.28 644.51
00001054 00000037 923.94 101.63 448.71 715.51 1058.50 407.71 1272.37 381.83 1209.33 522.41 1120.66 668.94 1283.28 648.35
00001055 00000038 924.00 105.61 448.88 713.27 1060.36 409.93 1273.80 384.49 1211.68 523.51 1121.39 670.89 1281.96 650.98
00001056 00000039 923.98 104.84 449.97 714.30 1061.70 410.30 1274.12 385.78 1212.78 521.80 1121.85 670.66 1281.41 651.41
00001057 00000040 921.15 103.76 454.22 718.70 1064.45 411.40 1275.99 388.87 1216.30 519.84 1124.61 671.65 1283.13 653.78
00001058 00000041 917.22 101.41 459.02 719.30 1069.80 415.81 1279.84 396.40 1218.77 517.06 1126.03 669.49 1282.74 653.33
00001059 00000042 916.00 101.86 459.37 717.73 1066.84 413.95 1279.56 393.44 1216.98 517.79 1126.35 669.15 1283.74 652.00
00001060 00000043 920.32 101.10 454.02 713.65 1065.00 409.91 1277.46 388.88 1215.26 521.66 1124.38 664.56 1282.37 647.35
00001061 00000044 924.77 102.13 448.06 709.77 1061.74 407.17 1274.47 385.91 1210.68 521.05 1123.03 667.93 1277.02 650.83
00001062 00000045 924.00 102.08 448.61 709.39 1061.20 404.92 1272.74 381.97 1210.04 520.21 1124.23 667.06 1277.79 648.44
00001063 00000046 922.05 101.00 450.13 708.02 1059.04 403.91 1272.87 381.76 1207.57 519.84 1120.44 664.28 1278.04 645.87
00001064 00000047 921.70 101.11 452.49 703.30 1055.24 404.70 1275.67 380.40 1204.94 518.33 1117.52 656.53 1282.77 635.81
00001065 00000048 923.10 100.64 451.02 703.80 1055.31 405.24 1274.50 380.54 1204.28 518.65 1117.90 656.27 1282.33 635.21
00001066 00000049 921.99 98.94 451.96 703.60 1053.81 405.63 1274.21 380.84 1202.48 518.73 1116.35 656.50 1281.50 635.42
00001067 00000050 921.99 100.14 450.25 703.36 1054.33 402.48 1273.14 378.66 1202.73 514.01 1117.73 657.16 1276.91 637.29
00001068 00000051 921.15 99.35 450.10 704.43 1053.42 401.66 1271.27 378.83 1200.14 512.01 1117.53 657.21 1274.33 638.30
00001069 00000052 917.58 96.94 454.58 709.12 1052.92 401.61 1271.14 378.91 1198.92 511.98 1115.66 656.68 1273.36 637.95
00001070 00000053 915.18 96.53 454.83 717.87 1056.08 401.21 1268.40 382.46 1200.95 516.27 1114.23 661.76 1269.67 646.02
00001071 00000054 916.27 99.18 453.75 719.06 1057.02 402.18 1267.10 382.98 1201.19 515.38 1116.15 664.26 1268.18 648.45
00001072 00000055 916.50 100.50 453.37 719.81 1055.76 402.46 1265.95 382.56 1199.12 514.38 1115.57 665.92 1266.02 649.82
00001073 00000056 914.73 100.97 454.07 720.83 1053.34 402.60 1265.71 381.87 1197.62 514.76 1112.21 666.26 1266.73 649.34
00001074 00000057 913.36 102.05 455.20 720.70 1051.32 402.65 1264.50 382.67 1195.63 514.26 1107.44 664.47 1266.58 647.90
00001075 00000058 913.25 103.83 454.22 721.12 1047.67 402.98 1263.49 382.54 1192.60 515.10 1101.86 665.10 1265.95 648.10
00001076 00000059 914.02 104.20 453.44 721.53 1045.31 403.82 1264.01 382.40 1191.29 516.89 1097.18 665.35 1267.85 647.55
00001077 00000060 914.35 105.10 453.69 721.32 1043.70 405.90 1265.80 382.99 1191.34 519.50 1094.88 666.15 1273.41 647.01
00001078 00000061 916.54 105.95 454.19 724.07 1043.63 407.57 1266.28 383.27 1191.78 523.87 1095.30 668.68 1276.37 648.37
00001079 00000062 920.68 108.19 451.64 722.44 1046.88 410.83 1266.70 386.49 1192.82 526.58 1097.19 669.39 1275.88 649.14
00001080 00000063 924.48 110.99 449.83 718.30 1049.00 413.34 1267.01 387.91 1195.57 529.91 1100.82 669.64 1279.07 648.59
00001081 00000064 926.38 113.47 451.63 715.38 1051.74 413.76 1271.50 389.69 1199.97 532.02 1102.38 670.18 1283.61 649.82
00001082 00000065 929.05 116.05 454.16 712.12 1054.43 414.82 1275.73 391.90 1203.71 532.68 1103.57 670.77 1285.72 651.48
00001083 00000066 929.67 118.33 458.86 706.32 1057.39 415.12 1280.94 392.51 1206.69 530.79 1106.68 669.57 1288.96 650.93
00001084 00000067 932.08 118.61 460.20 704.18 1060.10 416.81 1283.83 393.36 1209.80 529.71 1109.61 669.87 1291.39 651.08
00001085 00000068 934.55 118.97 460.99 704.84 1064.01 416.54 1287.96 394.45 1214.40 529.34 1112.19 669.59 1294.83 652.08
00001086 00000069 936.63 123.56 461.52 700.19 1068.72 416.87 1292.82 397.64 1219.51 531.39 1114.22 669.16 1298.89 653.79
00001087 00000070 936.09 127.02 462.57 697.42 1070.74 419.67 1295.08 401.43 1221.31 532.81 1113.29 668.43 1301.06 653.53
00001088 00000071 935.47 129.05 462.22 694.57 1069.70 421.42 1295.41 402.71 1220.90 532.91 1111.94 668.07 1301.79 652.90
00001089 00000072 933.40 128.81 461.97 692.20 1068.94 420.75 1293.06 402.14 1219.13 532.55 1111.36 666.66 1300.38 651.22
00001090 00000073 931.40 128.20 463.95 693.73 1067.75 420.60 1291.64 401.84 1217.21 531.73 1109.62 666.28 1298.73 650.57
00001091 00000074 928.73 127.57 465.20 694.72 1067.54 420.02 1290.45 402.55 1216.51 531.76 1108.72 665.73 1296.89 650.84
00001092 00000075 928.52 130.71 464.08 691.45 1066.25 420.96 1289.75 402.90 1214.66 531.79 1108.00 666.44 1295.86 651.04
00001093 00000076 924.15 131.34 465.11 691.61 1064.78 422.00 1286.69 403.74 1212.46 532.17 1107.00 666.26 1293.31 650.42
00001094 00000077 921.38 128.52 464.60 695.22 1062.45 420.57 1284.16 403.00 1209.32 531.90 1104.75 665.51 1289.70 650.15
00001095 00000078 919.70 125.56 463.38 699.49 1060.07 419.06 1281.01 402.31 1206.27 531.60 1101.03 662.70 1286.99 647.99
00001096 00000079 916.12 122.96 465.01 703.07 1057.90 416.43 1277.33 400.07 1202.59 530.59 1098.48 660.53 1283.04 646.24
00001097 00000080 913.92 120.98 465.37 704.99 1056.20 415.36 1275.44 399.45 1200.78 529.13 1095.11 658.23 1281.39 644.18
00001098 00000081 910.77 119.22 467.47 707.41 1055.52 414.92 1274.83 399.35 1200.60 528.90 1092.35 657.08 1281.77 643.20
00001099 00000082 911.26 119.90 467.51 707.04 1055.54 415.09 1276.30 400.37 1200.84 528.68 1091.77 656.95 1281.79 643.76
00001100 00000083 912.06 120.36 467.31 706.47 1055.23 415.37 1276.32 399.94 1200.78 529.32 1092.01 657.18 1282.43 643.52
00001101 00000084 913.84 121.65 466.15 703.93 1057.59 415.12 1276.58 400.22 1202.63 528.50 1094.02 656.33 1282.93 643.22
00001102 00000085 915.75 123.26 465.36 700.59 1059.25 414.30 1277.36 400.02 1204.15 526.17 1096.93 655.85 1284.44 643.08
00001103 00000086 917.57 124.74 463.97 698.99 1060.17 415.71 1277.13 400.16 1205.08 525.66 1102.05 659.89 1284.20 646.19
00001104 00000087 919.84 124.14 462.31 701.13 1058.37 416.68 1274.04 397.14 1203.88 524.25 1104.73 664.10 1283.02 647.49
00001105 00000088 920.17 123.11 462.91 704.43 1060.24 415.26 1272.60 396.45 1204.45 522.63 1107.56 665.34 1280.72 649.57
00001106 00000089 919.73 121.45 463.45 706.09 1061.46 413.76 1273.87 395.26 1206.57 521.65 1108.53 664.72 1282.16 649.12
00001107 00000090 922.41 121.27 461.00 705.45 1062.10 413.67 1274.03 393.60 1207.34 520.96 1110.66 664.15 1282.81 647.55
00001108 00000091 922.78 118.78 460.59 709.14 1063.63 412.11 1273.96 392.48 1209.06 519.76 1112.22 663.30 1282.66 647.07
00001109 00000092 923.56 117.71 459.29 710.87 1063.91 410.99 1274.03 391.95 1209.29 517.98 1113.45 664.62 1280.92 649.01
00001110 00000093 923.08 114.90 458.77 712.62 1063.27 410.22 1272.30 390.54 1207.66 517.47 1115.96 665.60 1278.61 649.28
00001111 00000094 924.15 114.26 454.61 708.98 1063.11 410.30 1268.83 390.10 1205.76 514.35 1120.29 666.74 1273.21 650.09
00001112 00000095 924.64 113.97 450.53 706.84 1061.04 409.40 1266.54 387.85 1203.33 514.17 1119.92 667.76 1269.55 650.01
00001113 00000096 920.17 111.51 453.07 705.74 1055.39 407.82 1263.42 385.77 1198.49 512.73 1114.43 666.53 1267.28 648.56
00001114 00000097 916.33 113.94 453.03 702.52 1049.77 409.74 1259.49 386.38 1191.86 513.56 1108.37 665.55 1264.29 646.67
00001115 00000098 911.68 119.55 451.80 699.88 1043.65 414.13 1256.09 388.75 1186.86 518.05 1104.82 669.65 1264.79 648.77
00001116 00000099 901.62 133.33 454.82 686.96 1036.15 430.68 1254.14 398.55 1189.57 532.59 1104.16 682.45 1264.31 656.00
00001117 00000100 899.26 137.15 455.84 683.08 1039.37 438.39 1254.17 402.57 1194.91 540.70 1106.11 684.07 1267.63 654.28
00001118 00000101 891.34 141.05 465.14 680.71 1043.90 447.44 1258.59 408.47 1205.60 545.95 1106.94 684.45 1275.19 652.08
00001119 DELETE   911.27 134.30 452.51 690.75 1056.58 447.24 1268.82 409.70 1210.78 542.65 1106.93 672.93 1293.71 642.29
00001120 00000103 919.74 137.61 440.55 695.27 1063.69 448.14 1266.35 408.13 1223.94 542.71 1117.58 674.18 1300.39 641.91
00001121 00000104 917.46 138.02 438.70 716.47 1066.58 442.52 1266.10 398.98 1235.53 533.44 1128.76 683.60 1310.24 648.48
00001122 00000105 915.41 140.20 440.48 725.29 1066.19 443.15 1264.52 395.76 1238.45 531.27 1131.75 690.92 1313.33 652.53
00001123 00000106 911.72 141.30 439.75 728.28 1063.18 449.13 1262.73 397.02 1239.55 539.56 1133.38 697.93 1314.12 654.82
00001124 DELETE   906.48 146.97 442.86 725.63 1061.77 464.36 1257.51 406.68 1234.51 551.19 1139.56 708.28 1311.01 659.49
00001125 00000108 888.86 159.49 456.48 710.32 1052.06 479.87 1253.17 419.93 1226.03 565.80 1129.21 721.42 1293.08 672.66
00001126 DELETE   883.45 167.52 455.36 697.19 1044.33 486.40 1244.35 419.57 1219.01 570.15 1124.58 721.71 1289.39 667.40
00001127 00000110 876.77 170.63 456.37 684.73 1036.02 485.97 1237.45 418.43 1212.02 567.32 1117.25 715.30 1285.40 660.02
CROP_BBOX: 507 0 1645 1045
