Video ID: 	190evnx33-c
H: 	1080
W: 	1920
FPS: 	29.97002997002997

FRAME INDEX X0 Y0 W H [Landmarks (5 Points)]

00007382 00000000 821.24 166.38 363.44 550.69 906.90 405.60 1074.85 423.07 974.47 503.70 911.44 597.79 1043.50 612.96
00007383 DELETE   822.08 164.77 360.57 548.89 905.35 397.71 1072.44 416.52 971.94 496.38 907.34 588.73 1042.51 604.80
00007384 00000002 820.88 162.41 359.98 549.55 904.21 394.27 1071.44 412.26 972.30 494.93 905.65 586.88 1041.57 602.20
00007385 00000003 820.50 161.49 358.57 549.37 903.03 395.63 1070.45 412.75 972.29 497.48 905.74 589.85 1041.13 604.42
00007386 00000004 819.03 162.79 359.13 546.98 901.80 398.51 1068.58 414.19 972.77 500.70 905.82 592.85 1039.70 606.26
00007387 00000005 816.96 162.25 358.96 546.50 900.47 398.08 1067.41 412.59 973.17 500.49 905.54 594.44 1039.47 606.87
00007388 00000006 816.12 160.24 357.42 547.35 899.17 392.22 1068.03 408.38 971.37 494.47 901.23 589.74 1038.52 603.56
00007389 00000007 815.75 156.67 354.65 551.39 898.36 386.61 1066.47 403.51 970.22 490.28 899.47 584.52 1037.76 598.92
00007390 00000008 814.81 152.82 354.55 553.06 896.10 380.90 1065.30 398.56 966.36 486.06 895.38 580.21 1036.48 595.12
00007391 00000009 813.10 152.12 354.39 552.78 894.52 378.33 1062.96 396.04 963.91 484.88 895.53 580.07 1031.85 595.10
00007392 00000010 810.85 154.12 354.91 551.67 892.01 380.34 1060.25 396.83 961.54 487.30 895.65 583.59 1026.97 597.77
00007393 00000011 806.15 158.40 357.13 552.72 890.52 388.19 1053.95 403.14 959.54 490.69 895.41 587.89 1021.36 601.34
00007394 00000012 801.99 163.21 359.72 553.98 889.85 396.44 1054.41 413.01 958.45 488.02 890.76 589.60 1022.41 604.96
00007395 00000013 800.27 167.66 359.41 555.09 889.48 403.72 1053.88 419.12 961.42 492.34 893.41 595.76 1022.12 610.44
00007396 DELETE   798.01 168.38 359.47 563.43 886.97 410.96 1049.51 426.30 956.41 501.67 891.97 600.11 1018.89 614.53
00007397 00000015 791.22 165.36 362.29 568.85 880.35 414.30 1044.58 432.44 949.45 508.83 885.21 602.55 1013.21 618.73
00007398 DELETE   782.55 167.76 365.52 567.22 867.70 420.51 1033.98 438.11 934.26 518.03 875.07 607.13 1005.22 622.19
00007399 DELETE   773.74 179.35 366.00 554.46 844.46 425.29 1019.40 426.43 911.88 536.41 865.29 618.94 1004.45 620.41
00007400 00000018 766.62 179.28 367.33 551.45 835.18 424.15 1009.30 427.90 901.05 538.66 857.15 617.39 995.73 620.94
00007401 00000019 763.75 175.76 366.72 554.00 832.96 421.81 1007.87 427.32 900.12 537.94 853.71 614.95 993.76 619.96
00007402 00000020 763.44 175.61 365.75 557.18 835.54 419.41 1008.48 422.56 905.41 534.19 857.37 615.53 994.67 618.89
00007403 00000021 764.10 171.94 365.71 565.39 837.60 417.99 1009.21 415.28 911.42 529.41 865.83 620.84 997.72 619.48
00007404 00000022 764.93 170.80 364.62 570.79 840.42 412.61 1012.36 408.57 915.11 520.68 867.43 620.43 998.42 618.06
00007405 00000023 765.57 170.40 363.53 570.96 840.65 409.47 1011.90 405.09 915.95 515.17 866.66 616.41 998.70 614.03
00007406 00000024 764.11 168.86 364.38 567.39 841.29 405.73 1010.84 404.03 915.89 511.10 863.68 607.66 997.58 607.72
00007407 00000025 762.08 168.16 366.11 561.86 840.83 403.87 1010.60 403.57 914.83 507.59 861.62 601.32 998.53 602.66
00007408 00000026 762.09 168.31 366.68 555.32 841.36 402.75 1010.76 403.26 915.66 504.50 860.88 596.56 998.99 598.66
00007409 00000027 761.87 168.08 367.27 551.20 841.03 402.46 1012.05 402.97 916.33 503.40 861.13 595.05 1001.09 597.00
00007410 00000028 761.91 166.47 367.28 549.77 839.87 401.46 1013.00 402.03 914.91 502.26 859.68 594.11 1001.83 595.99
00007411 00000029 762.52 165.88 366.26 549.32 839.29 400.14 1013.87 401.20 913.75 499.44 857.71 592.47 1001.89 594.83
00007412 00000030 762.94 166.07 365.65 548.27 839.32 399.31 1014.19 400.73 913.12 498.54 856.59 591.28 1001.60 593.98
00007413 00000031 763.03 166.26 365.69 549.73 839.79 399.19 1013.86 400.91 912.93 497.93 856.24 590.98 1000.98 593.92
00007414 00000032 763.96 166.93 365.19 552.86 841.07 400.51 1014.57 401.85 914.58 499.52 857.83 592.95 1001.89 595.63
00007415 00000033 767.13 166.39 362.99 562.82 843.40 399.74 1018.87 400.37 917.54 497.95 859.66 597.67 1004.43 600.06
00007416 00000034 769.23 163.61 361.02 572.36 845.11 396.40 1023.17 396.03 920.07 495.80 860.71 600.31 1006.84 601.67
00007417 00000035 770.18 162.21 361.95 571.30 847.36 391.65 1026.49 393.14 922.77 492.77 861.64 597.19 1007.86 599.77
00007418 00000036 771.15 161.89 362.64 565.37 847.66 392.46 1025.06 393.76 921.92 489.98 862.76 593.18 1008.40 595.47
00007419 00000037 770.08 166.75 363.15 551.53 847.01 397.11 1022.70 397.35 919.54 487.34 863.77 591.40 1005.76 592.84
00007420 00000038 768.88 165.89 364.17 547.45 847.89 396.71 1022.93 398.37 921.05 487.03 864.24 588.97 1005.66 591.31
00007421 00000039 771.79 164.14 361.98 543.06 849.42 391.69 1025.68 393.21 922.37 483.40 865.14 585.18 1007.57 587.16
00007422 00000040 768.66 152.08 364.29 552.88 851.36 382.03 1020.82 386.53 922.69 477.03 862.09 577.05 998.10 582.15
00007423 00000041 772.90 150.11 362.74 549.35 855.34 373.47 1024.82 380.72 925.72 470.97 861.92 566.18 1005.11 573.65
00007424 00000042 773.54 149.43 367.16 544.98 860.85 372.75 1031.99 386.59 938.35 463.40 865.88 553.80 1008.73 565.69
00007425 00000043 773.29 147.25 368.26 545.14 861.85 366.09 1034.07 380.72 939.00 457.22 863.96 547.81 1010.46 560.26
00007426 00000044 774.37 154.18 367.42 547.93 864.75 359.07 1029.02 372.87 938.13 450.67 865.15 546.62 1007.94 559.37
00007427 00000045 775.51 156.69 365.76 551.28 864.35 355.04 1029.40 367.80 937.18 446.47 866.36 548.80 1008.87 560.73
00007428 00000046 776.51 155.88 365.27 555.27 864.07 352.87 1029.91 365.61 936.87 446.34 867.31 550.08 1008.72 561.96
00007429 00000047 774.08 152.87 366.60 558.21 863.74 354.05 1029.90 366.73 938.68 446.34 873.12 555.41 1003.66 567.39
00007430 00000048 772.76 153.76 367.42 552.46 863.58 357.89 1028.45 365.33 942.07 446.52 877.62 560.71 1000.18 568.44
00007431 00000049 773.69 154.72 366.77 539.78 862.84 357.24 1028.33 362.01 941.18 440.29 878.73 555.80 1001.43 561.03
00007432 00000050 771.83 145.25 369.95 531.10 864.55 351.85 1036.62 355.71 944.51 430.80 880.73 546.55 1011.00 551.16
00007433 00000051 773.77 154.00 366.52 512.90 865.13 347.46 1035.57 346.54 944.74 419.97 881.08 540.16 1010.44 539.94
00007434 00000052 776.41 153.08 362.37 502.00 865.13 341.73 1034.35 340.29 943.43 414.52 881.01 532.03 1010.50 531.52
00007435 00000053 773.56 148.91 367.54 508.35 865.48 335.99 1041.24 339.25 944.55 407.70 879.21 524.79 1015.88 528.28
00007436 00000054 773.03 149.49 367.68 507.50 867.20 336.69 1040.31 339.29 948.62 408.96 882.50 527.27 1014.79 530.31
00007437 00000055 773.29 146.97 367.33 513.44 868.09 337.81 1040.51 343.03 949.77 412.93 881.43 530.16 1013.62 535.60
00007438 00000056 773.74 143.83 367.23 520.85 867.90 340.02 1042.30 348.17 949.04 416.99 880.10 532.37 1015.42 540.33
00007439 00000057 774.74 136.83 366.40 533.01 865.03 343.65 1041.92 353.37 944.78 425.13 877.76 538.76 1015.21 548.01
00007440 00000058 774.91 134.00 368.08 542.17 863.71 351.43 1039.30 362.65 942.86 438.67 876.86 544.83 1015.29 554.84
00007441 00000059 776.75 136.12 365.47 544.81 864.41 361.21 1037.94 371.82 945.25 451.57 879.03 554.44 1013.19 563.92
00007442 00000060 779.04 139.33 365.39 555.47 868.08 370.20 1038.65 382.20 948.80 465.27 880.65 562.62 1013.33 573.46
00007443 00000061 782.67 148.21 360.78 556.06 876.92 367.77 1040.09 385.08 955.83 472.00 880.33 568.46 1011.07 583.72
00007444 00000062 785.57 146.13 359.82 558.27 879.94 363.89 1043.74 380.57 958.53 467.07 881.66 565.37 1013.91 580.13
00007445 00000063 789.77 144.05 357.50 552.11 882.29 360.81 1044.75 375.80 960.74 462.73 885.68 561.01 1013.95 574.39
00007446 00000064 789.12 135.73 357.61 553.70 882.01 363.61 1047.41 377.45 960.22 455.90 890.38 555.99 1017.14 568.91
00007447 00000065 791.39 135.71 356.68 547.23 885.91 365.41 1054.54 381.68 961.45 449.55 890.81 549.71 1020.62 564.61
00007448 00000066 790.87 138.48 358.55 540.62 886.35 365.48 1056.31 381.74 961.77 445.62 891.96 546.90 1022.95 561.56
00007449 00000067 792.05 138.14 357.55 540.85 884.84 363.46 1057.12 379.35 961.89 448.35 891.85 547.53 1025.58 561.90
00007450 00000068 790.93 137.55 359.16 543.79 883.45 364.22 1055.42 379.11 962.16 451.71 892.12 550.06 1027.29 563.31
00007451 00000069 791.27 137.71 359.92 545.87 883.82 364.46 1056.20 379.66 962.87 454.35 892.19 551.17 1028.06 564.68
00007452 00000070 791.95 138.77 360.60 549.16 884.74 365.93 1057.76 380.34 964.51 458.64 893.69 553.67 1031.68 566.58
00007453 00000071 798.87 145.47 356.87 547.22 886.66 362.89 1053.80 372.97 966.25 460.14 892.50 557.63 1029.77 566.96
00007454 00000072 799.65 146.75 355.92 557.45 887.92 360.76 1055.39 373.07 965.69 458.23 890.06 558.03 1030.32 569.31
00007455 00000073 800.53 147.67 354.76 563.22 888.91 360.57 1056.10 372.95 965.34 457.33 889.91 559.49 1032.82 570.89
00007456 00000074 801.93 148.82 354.17 560.67 889.64 360.54 1057.63 372.55 965.92 458.05 890.84 559.63 1034.30 570.74
00007457 00000075 804.00 147.58 354.09 558.11 890.43 361.17 1059.00 372.84 967.08 460.32 893.58 561.31 1033.74 572.07
00007458 00000076 804.56 148.28 354.79 551.44 890.63 364.61 1060.77 376.39 968.04 463.26 894.83 563.58 1036.40 574.31
00007459 00000077 805.34 151.16 355.04 548.23 892.54 365.25 1062.74 379.33 969.41 467.24 895.48 565.22 1035.91 577.75
00007460 00000078 806.74 151.24 354.58 549.25 894.01 366.58 1063.81 380.45 970.99 469.44 897.07 567.59 1035.84 579.93
00007461 00000079 807.20 151.71 356.11 549.78 895.11 366.35 1065.29 380.23 972.01 469.58 898.68 568.67 1035.98 580.96
00007462 00000080 807.99 152.97 355.98 550.95 896.04 366.30 1066.14 379.87 973.04 469.94 900.48 569.94 1035.82 581.90
00007463 00000081 808.82 153.74 355.37 552.87 897.25 366.44 1066.22 380.11 974.21 470.22 902.19 571.38 1033.48 583.33
00007464 00000082 808.69 153.57 355.10 555.22 897.28 366.61 1066.44 380.35 974.32 470.35 902.31 572.41 1033.57 584.36
00007465 00000083 808.72 152.85 355.25 556.00 896.72 367.33 1066.47 380.30 974.09 470.75 903.15 574.56 1033.15 585.81
00007466 00000084 808.69 152.49 355.54 557.32 896.53 368.28 1066.38 380.85 974.00 470.72 902.86 576.04 1033.27 586.96
00007467 00000085 808.41 151.28 356.14 556.52 895.82 368.22 1066.59 380.40 973.37 470.32 901.90 576.96 1034.12 587.51
00007468 00000086 808.19 151.67 355.91 554.42 894.85 368.46 1066.41 380.90 971.28 471.63 899.84 577.09 1034.33 587.92
00007469 00000087 806.73 151.68 355.96 553.66 892.63 370.63 1064.07 384.03 968.33 477.43 897.77 577.56 1033.67 589.15
00007470 00000088 804.62 152.21 355.03 553.80 889.15 374.17 1059.60 390.13 961.42 483.63 892.64 578.00 1030.00 591.78
00007471 00000089 799.46 150.12 358.11 557.86 886.48 376.23 1055.64 396.42 956.21 489.78 886.95 579.00 1022.37 596.15
00007472 00000090 796.75 150.05 361.39 569.49 886.24 378.19 1055.08 398.93 955.47 491.17 884.52 582.46 1020.06 600.42
00007473 00000091 796.68 150.57 361.39 581.12 888.65 380.04 1057.39 399.60 958.78 491.98 886.49 588.61 1020.61 605.88
00007474 00000092 798.28 149.37 361.02 586.51 890.69 381.60 1059.97 399.50 963.41 493.92 889.39 592.53 1023.70 608.11
00007475 00000093 798.94 148.81 360.90 585.30 891.37 384.30 1059.15 399.91 966.22 495.63 892.69 594.10 1026.57 607.79
00007476 00000094 795.29 151.13 362.79 575.95 887.68 390.55 1052.62 402.73 964.78 498.55 893.35 593.64 1027.95 604.42
00007477 00000095 791.56 155.35 364.63 566.16 886.32 396.57 1047.55 415.98 959.38 495.39 887.89 586.97 1020.83 603.67
00007478 00000096 786.60 155.16 367.22 559.91 881.73 393.78 1042.93 412.86 953.11 490.92 882.13 582.97 1015.30 599.48
00007479 00000097 786.77 152.28 366.80 556.52 878.75 385.87 1041.53 407.71 945.71 486.35 874.51 575.88 1009.58 594.67
00007480 00000098 787.29 143.98 368.87 559.36 874.03 377.05 1047.27 401.30 938.15 479.06 868.83 568.25 1002.33 590.42
00007481 00000099 786.40 140.19 369.54 563.44 873.32 375.31 1045.89 400.55 938.15 479.54 868.95 569.05 1000.19 592.09
00007482 00000100 784.53 149.06 367.08 559.71 875.60 379.56 1041.66 401.36 945.78 487.75 874.45 581.54 1003.70 600.21
00007483 00000101 785.11 149.47 366.01 568.23 878.36 380.41 1043.73 402.92 948.53 491.05 877.11 583.26 1006.09 602.88
00007484 00000102 785.72 150.52 365.43 567.88 878.68 378.91 1045.65 401.17 948.39 489.57 875.40 580.56 1009.14 600.00
00007485 00000103 786.91 150.95 364.96 568.10 879.22 375.68 1045.46 398.98 947.37 485.28 873.55 575.14 1010.55 595.42
00007486 00000104 787.16 148.54 364.19 573.28 878.40 371.46 1045.30 394.29 947.17 478.38 872.59 571.73 1011.93 591.68
00007487 00000105 787.39 147.94 363.52 575.22 877.29 369.44 1044.58 391.30 945.10 472.51 870.52 568.55 1014.61 587.61
00007488 00000106 788.39 146.70 362.83 575.01 878.03 368.62 1044.26 390.69 944.96 472.50 870.13 567.09 1014.62 586.36
00007489 00000107 788.66 147.68 362.90 568.21 878.21 370.35 1043.15 392.82 945.76 477.66 872.17 568.10 1010.93 587.82
00007490 00000108 788.66 147.87 362.37 560.80 876.82 373.46 1042.21 396.39 945.86 480.76 869.29 567.96 1010.00 587.80
00007491 00000109 787.94 148.14 362.66 555.75 876.68 372.68 1041.56 396.63 945.47 478.01 867.91 565.46 1008.36 585.96
00007492 00000110 788.18 147.35 362.78 554.27 877.59 369.35 1042.21 392.54 946.99 471.84 868.82 562.13 1008.36 582.12
00007493 00000111 789.42 145.03 362.78 553.20 877.24 366.95 1041.81 387.53 948.26 468.10 872.34 559.59 1009.53 577.25
00007494 00000112 787.03 136.72 366.59 562.16 875.59 368.67 1048.58 388.29 947.73 467.86 875.27 558.62 1014.48 576.04
00007495 00000113 792.04 142.05 360.50 558.84 878.16 369.77 1044.38 389.49 949.64 472.11 874.58 562.60 1015.78 579.47
00007496 00000114 791.37 138.80 362.11 564.34 877.17 374.63 1049.02 394.45 947.90 476.65 877.63 564.12 1014.84 582.28
00007497 00000115 792.79 141.92 361.04 565.48 877.24 378.56 1048.69 398.61 946.30 482.66 877.39 567.15 1015.17 585.83
00007498 00000116 789.46 149.23 361.03 559.68 879.23 379.40 1045.09 400.02 949.87 486.82 875.74 573.22 1015.79 590.99
00007499 00000117 787.79 149.33 360.95 562.02 878.53 379.86 1042.94 401.30 948.47 487.29 874.62 574.21 1013.54 592.71
00007500 00000118 785.84 148.29 360.58 571.96 878.85 377.96 1043.04 399.10 950.38 486.20 876.35 576.73 1012.41 595.07
00007501 00000119 785.27 146.94 361.05 580.46 877.66 376.89 1043.18 396.29 949.24 483.48 876.44 578.67 1013.31 595.62
00007502 00000120 785.84 146.29 361.38 584.55 877.68 376.98 1044.01 396.50 949.02 483.22 875.63 579.25 1014.77 596.17
00007503 00000121 786.43 145.59 361.01 586.55 878.03 378.63 1044.98 398.50 949.46 485.39 875.69 580.64 1016.42 597.69
00007504 00000122 788.09 146.43 359.84 586.98 879.48 381.52 1044.98 401.67 949.97 487.25 876.61 581.87 1016.94 599.08
00007505 00000123 787.67 147.63 360.75 586.69 880.16 384.28 1045.07 404.82 951.56 489.87 876.59 583.48 1017.05 601.07
00007506 00000124 787.44 148.91 360.64 584.19 880.45 386.87 1043.92 407.88 951.25 492.83 877.59 584.91 1016.28 603.02
00007507 00000125 786.56 151.75 361.31 578.42 879.48 390.11 1042.78 410.24 950.29 495.36 877.14 585.74 1015.93 603.18
00007508 00000126 785.89 153.10 363.41 576.64 880.44 391.26 1043.76 411.34 951.78 497.06 878.26 588.32 1014.36 605.72
00007509 00000127 785.51 153.31 366.06 575.25 882.36 390.57 1045.34 411.88 953.30 497.88 878.77 588.57 1012.98 607.06
00007510 00000128 785.58 153.38 367.39 573.01 885.56 390.02 1047.55 414.34 956.83 496.27 880.51 587.19 1013.24 608.19
00007511 00000129 787.41 154.07 370.62 568.50 891.37 389.24 1054.64 416.38 963.44 496.67 881.99 587.45 1015.18 610.45
00007512 00000130 792.67 153.62 372.50 572.17 899.85 388.83 1063.71 423.16 970.57 500.46 883.75 588.79 1016.93 617.71
00007513 00000131 799.02 160.78 373.44 559.68 909.04 390.51 1072.22 428.96 979.77 506.70 892.07 591.96 1020.96 624.46
00007514 00000132 805.30 166.33 372.27 552.50 914.17 393.00 1078.73 434.00 982.97 513.29 895.50 594.77 1025.51 629.61
00007515 00000133 808.31 169.28 371.32 548.22 915.51 394.27 1080.07 434.98 984.10 516.75 896.82 595.02 1026.90 629.69
00007516 00000134 808.32 170.44 371.85 547.53 915.39 394.79 1078.35 435.00 982.27 515.27 896.71 594.17 1023.62 628.60
00007517 00000135 805.39 170.37 372.19 549.61 913.14 394.14 1075.14 434.44 978.40 512.49 894.08 592.44 1020.94 626.95
00007518 00000136 803.38 169.63 373.75 555.33 912.52 393.99 1075.53 434.82 978.10 511.35 893.14 592.03 1022.45 626.95
00007519 00000137 803.97 169.82 374.42 557.82 914.56 394.47 1077.50 435.02 980.73 513.33 894.70 591.84 1025.07 626.69
00007520 00000138 804.48 170.76 374.73 557.73 915.82 395.25 1079.68 436.14 983.08 514.98 895.64 591.61 1028.43 626.70
00007521 00000139 802.64 172.15 375.03 559.27 914.50 396.39 1079.28 437.60 982.00 514.72 893.55 591.26 1028.35 626.60
00007522 00000140 801.86 170.51 374.43 561.99 912.25 397.74 1076.92 437.64 979.28 515.82 892.14 592.14 1026.72 626.22
00007523 00000141 801.29 169.76 373.38 561.73 911.33 398.61 1076.00 438.46 979.18 517.03 891.96 593.59 1025.69 627.53
00007524 00000142 803.09 169.13 371.16 556.56 911.62 399.76 1077.68 440.03 983.14 518.28 894.68 595.07 1028.49 629.08
00007525 00000143 803.25 169.03 371.17 552.44 911.82 399.39 1078.15 438.51 984.15 518.15 895.42 595.51 1029.38 628.62
00007526 00000144 799.50 169.81 370.95 551.13 906.98 397.49 1072.35 438.98 975.71 514.68 886.60 591.68 1021.22 626.79
00007527 00000145 791.45 167.41 375.48 551.28 899.32 394.98 1060.85 438.14 961.33 510.31 870.12 587.25 1004.23 623.87
00007528 00000146 787.75 165.91 374.27 554.36 893.81 395.28 1054.05 439.27 951.61 509.69 860.93 588.52 993.76 625.91
00007529 00000147 789.18 166.53 373.13 561.07 895.35 396.21 1054.42 438.94 953.90 512.43 867.18 590.23 997.54 626.62
00007530 00000148 792.63 167.28 374.30 568.44 900.48 396.26 1061.85 437.01 962.40 514.97 877.26 593.59 1008.29 628.28
00007531 00000149 795.28 166.74 373.74 570.87 903.35 397.22 1066.87 435.90 968.85 513.79 883.89 592.51 1017.92 625.28
00007532 00000150 797.28 167.04 371.82 569.56 906.46 394.98 1070.44 431.74 973.88 514.39 888.60 593.79 1021.49 625.36
00007533 00000151 797.75 167.34 372.23 568.95 906.20 394.77 1069.98 429.53 974.04 513.45 889.52 593.53 1022.00 623.49
00007534 00000152 795.94 167.60 371.54 568.34 903.48 395.17 1066.96 430.14 970.51 512.58 886.94 592.67 1020.00 622.75
00007535 00000153 793.80 167.77 371.45 568.43 901.37 395.96 1064.58 429.61 968.27 514.51 884.81 594.09 1017.91 623.13
00007536 00000154 793.12 167.80 371.94 567.57 899.86 395.44 1063.13 428.72 965.42 514.74 882.27 593.88 1016.16 622.58
00007537 00000155 792.31 168.41 373.34 567.26 899.82 395.38 1063.12 428.58 965.53 515.31 881.81 594.19 1015.87 622.82
00007538 00000156 791.86 168.68 373.70 567.68 899.76 396.10 1063.62 429.12 966.06 515.73 882.34 594.90 1016.67 623.37
00007539 00000157 791.80 168.76 373.44 567.66 899.79 396.38 1063.67 429.11 966.64 516.28 882.67 594.78 1017.05 622.97
00007540 00000158 791.74 169.60 373.30 566.07 899.61 396.24 1063.76 429.16 966.33 516.37 882.21 594.24 1017.06 622.60
00007541 00000159 791.14 169.11 372.92 566.28 898.66 396.46 1062.64 429.66 965.19 516.47 880.89 594.25 1016.13 622.80
00007542 00000160 790.44 169.00 372.46 565.52 897.13 395.83 1060.74 428.92 963.03 515.56 879.41 593.74 1014.84 622.18
00007543 00000161 790.08 169.04 371.61 564.53 896.66 395.72 1059.59 429.22 962.28 515.49 878.40 593.57 1013.53 622.35
00007544 00000162 789.95 169.42 371.07 563.38 896.84 395.89 1059.55 429.44 963.05 515.45 878.90 593.89 1013.19 622.78
00007545 00000163 790.43 167.61 371.52 567.22 897.39 397.20 1060.40 429.92 965.08 517.22 882.01 597.76 1013.77 625.91
00007546 00000164 790.61 166.94 371.46 567.44 896.54 398.15 1060.59 429.96 964.95 518.42 882.27 600.22 1014.07 627.58
00007547 00000165 790.46 167.48 370.31 565.47 894.77 398.55 1059.12 431.37 961.96 519.84 879.17 601.05 1011.64 629.25
00007548 00000166 790.74 169.00 369.22 564.48 896.04 400.42 1059.61 434.65 962.77 522.10 879.41 601.70 1010.36 631.18
00007549 00000167 793.45 170.00 369.57 564.89 899.09 404.64 1063.73 442.04 965.34 525.54 880.44 601.65 1013.04 633.59
