Video ID: 	A08RchnGi-s
H: 	1080
W: 	1920
FPS: 	25.0

FRAME INDEX X0 Y0 W H [Landmarks (5 Points)]

00007609 00000000 717.23 238.64 392.56 630.60 903.49 514.33 1065.47 500.35 1072.47 606.02 948.62 730.85 1084.85 718.49
00007610 00000001 717.73 233.57 394.17 636.42 909.26 511.17 1069.46 496.84 1076.83 604.62 951.85 730.16 1086.90 717.28
00007611 DELETE   713.53 235.45 403.93 635.92 915.19 508.50 1073.11 496.21 1085.35 602.25 951.25 729.61 1084.97 718.85
00007612 00000003 721.21 225.94 403.81 645.60 921.02 502.47 1082.43 488.37 1092.15 598.85 949.88 725.70 1085.93 714.29
00007613 00000004 723.42 226.33 404.74 640.60 920.26 497.11 1089.22 490.63 1085.94 595.76 948.48 719.75 1089.71 713.83
00007614 00000005 724.91 220.59 404.44 646.09 920.31 494.66 1089.50 489.90 1082.63 596.02 948.10 718.63 1089.90 713.80
00007615 00000006 728.54 217.83 397.88 650.67 920.25 490.74 1087.62 489.70 1081.08 592.79 944.16 717.22 1083.95 715.53
00007616 00000007 734.24 212.30 397.04 653.56 923.41 485.74 1088.24 487.28 1084.31 588.29 942.44 710.57 1081.85 711.38
00007617 00000008 739.39 203.61 397.92 659.08 928.55 475.00 1095.31 485.61 1088.54 580.66 941.55 698.70 1084.32 706.80
00007618 00000009 735.19 203.60 405.15 658.65 931.10 472.13 1097.27 488.93 1086.98 578.52 943.79 692.79 1086.22 705.34
00007619 00000010 735.89 203.29 407.47 658.53 934.62 471.23 1099.92 489.37 1088.06 576.63 947.99 690.34 1089.46 703.67
00007620 00000011 739.76 202.74 405.67 657.10 935.79 470.58 1101.26 490.56 1088.19 572.69 951.26 686.99 1092.19 701.42
00007621 00000012 738.68 208.91 406.22 648.67 938.82 473.11 1105.66 495.10 1092.38 572.25 951.11 684.65 1093.18 700.95
00007622 00000013 751.91 203.52 397.71 644.56 945.36 472.60 1119.18 491.08 1100.42 579.47 956.49 686.88 1108.67 700.21
00007623 00000014 755.12 201.67 399.41 647.87 950.70 469.81 1122.23 491.28 1107.45 579.88 962.72 686.64 1112.69 701.57
00007624 00000015 753.61 202.79 401.68 648.88 953.09 467.15 1123.04 490.31 1111.97 579.71 966.52 689.76 1113.89 706.00
00007625 00000016 758.72 203.73 398.42 652.11 955.00 467.71 1123.73 490.91 1113.38 580.50 968.42 691.31 1114.65 708.43
00007626 00000017 758.78 203.96 399.41 655.74 955.77 466.82 1125.12 490.62 1115.31 580.32 970.15 693.25 1116.56 710.86
00007627 00000018 759.13 206.48 400.89 654.64 956.15 465.71 1123.67 489.22 1114.97 578.56 973.56 695.68 1118.03 712.91
00007628 00000019 757.30 207.37 401.61 654.31 955.47 464.32 1122.29 488.64 1114.39 577.58 973.09 695.55 1116.81 713.57
00007629 00000020 755.17 206.15 403.43 651.29 957.18 463.25 1120.96 492.73 1112.07 575.73 974.04 693.70 1109.99 715.53
00007630 00000021 752.11 209.44 407.70 648.08 955.75 462.58 1120.58 493.70 1110.32 577.53 973.98 697.67 1106.39 720.96
00007631 00000022 752.63 207.18 405.04 650.80 952.95 466.93 1121.12 496.20 1108.98 582.58 967.52 699.15 1105.26 721.06
00007632 00000023 752.12 216.03 401.63 641.65 951.97 479.28 1120.53 502.55 1107.87 592.77 963.79 702.46 1102.29 720.99
00007633 00000024 752.20 217.65 402.40 639.76 951.99 479.84 1120.63 503.17 1108.87 592.87 964.38 703.25 1103.40 721.74
00007634 00000025 750.79 215.56 402.99 642.30 952.21 476.28 1118.95 501.15 1108.01 590.88 961.95 700.17 1100.57 720.18
00007635 00000026 749.41 215.45 402.38 641.16 950.41 470.72 1116.70 495.71 1107.20 587.16 958.15 695.83 1100.25 716.11
00007636 00000027 750.18 211.78 398.41 642.61 947.72 467.68 1114.13 489.95 1104.95 583.00 957.21 693.72 1101.79 711.76
00007637 00000028 744.55 209.85 395.91 644.80 940.04 460.50 1105.53 484.05 1096.35 575.17 945.74 686.86 1091.85 706.43
00007638 00000029 743.68 209.86 395.78 643.45 938.52 459.08 1105.07 482.37 1094.17 574.47 943.10 685.77 1091.49 705.11
00007639 00000030 745.13 211.93 393.44 639.32 938.55 457.79 1104.03 480.93 1093.80 572.46 944.82 684.84 1092.95 703.73
00007640 00000031 738.58 209.87 403.85 638.49 938.19 465.37 1101.55 491.29 1090.82 568.71 947.78 677.52 1085.95 697.43
00007641 00000032 751.44 207.58 397.83 634.69 942.77 461.82 1107.85 484.90 1096.18 567.41 958.18 678.74 1096.41 699.16
00007642 00000033 739.13 209.31 408.04 637.98 942.44 470.17 1106.93 493.91 1094.73 571.34 954.39 678.09 1093.92 695.61
00007643 00000034 739.64 210.22 408.55 640.15 942.77 471.54 1107.58 494.99 1093.98 573.85 954.49 680.93 1093.51 698.17
00007644 00000035 744.98 210.81 401.74 639.76 945.01 464.77 1116.12 487.41 1100.25 578.34 958.34 690.39 1107.70 707.71
00007645 00000036 743.97 209.99 405.44 648.06 946.43 467.32 1112.66 493.25 1099.07 580.52 960.67 695.19 1096.26 715.55
00007646 00000037 741.54 211.95 406.94 649.76 946.35 467.20 1112.43 495.07 1098.29 582.24 960.02 697.64 1095.22 719.52
00007647 00000038 742.02 203.58 396.55 657.59 944.94 466.52 1106.69 493.16 1099.72 574.86 959.68 690.42 1091.50 711.45
00007648 00000039 748.11 211.13 398.28 641.56 942.95 465.34 1108.62 490.69 1095.89 564.15 964.50 687.53 1092.79 709.59
00007649 00000040 748.82 208.55 395.53 643.56 939.95 462.52 1107.48 487.08 1094.11 561.88 961.93 685.05 1094.00 706.22
00007650 00000041 738.12 205.47 397.19 647.85 948.26 462.34 1111.67 488.00 1099.55 559.53 960.25 684.85 1092.34 705.56
00007651 00000042 737.24 205.68 399.08 641.80 942.70 461.26 1108.70 489.84 1095.35 553.74 956.77 680.80 1090.59 703.68
00007652 00000043 741.29 211.45 395.31 630.27 942.56 457.56 1106.33 495.15 1088.16 545.32 950.37 674.50 1083.68 705.35
00007653 00000044 742.79 213.45 395.32 625.40 943.45 453.81 1106.57 494.38 1085.12 542.07 947.06 670.80 1081.05 704.50
00007654 00000045 742.71 216.56 393.87 619.14 943.09 452.34 1106.07 494.94 1083.61 541.08 945.16 667.40 1079.91 702.92
00007655 00000046 743.57 216.43 394.14 617.08 942.82 452.14 1107.55 493.95 1082.64 540.72 943.12 665.71 1080.57 700.75
00007656 00000047 743.63 217.11 394.54 618.48 942.69 451.39 1108.34 493.88 1082.83 541.01 941.58 665.62 1080.58 701.22
00007657 00000048 740.66 213.63 399.76 623.07 933.66 446.47 1101.42 491.16 1080.67 545.05 944.07 657.27 1082.70 692.56
00007658 00000049 741.45 214.20 399.99 623.00 934.02 447.49 1102.54 490.73 1082.37 545.84 944.44 658.27 1084.01 692.28
00007659 00000050 748.77 213.66 399.04 626.02 942.54 446.98 1108.03 481.19 1089.74 552.90 950.45 667.03 1088.25 697.01
00007660 00000051 748.74 211.78 398.68 624.42 943.27 449.66 1112.48 478.42 1093.23 552.84 950.25 665.71 1093.74 691.24
00007661 00000052 750.01 210.64 399.26 626.76 943.17 453.16 1113.19 481.63 1091.13 554.90 950.65 666.48 1094.10 691.55
00007662 00000053 745.39 211.20 400.30 626.53 942.84 449.89 1111.85 486.33 1091.40 558.61 950.40 671.29 1095.67 699.04
00007663 00000054 746.51 215.39 396.17 621.20 942.41 449.96 1111.56 487.09 1092.06 559.73 951.45 674.55 1096.33 703.24
00007664 00000055 746.58 216.06 395.02 619.42 942.78 447.78 1111.67 486.08 1092.40 559.13 951.19 674.43 1096.28 704.16
00007665 00000056 745.92 218.68 393.84 616.50 941.65 447.40 1110.41 487.19 1091.23 559.51 948.83 674.30 1094.11 705.41
00007666 00000057 742.34 218.73 398.39 622.35 937.22 454.76 1104.38 497.90 1086.61 555.36 945.80 665.75 1084.57 699.74
00007667 00000058 741.62 219.57 398.97 623.00 935.65 454.44 1103.18 496.71 1086.57 555.33 944.51 666.86 1084.84 700.17
00007668 00000059 740.43 221.30 399.28 620.65 934.64 453.93 1103.44 496.76 1086.00 554.58 943.15 665.84 1085.59 699.64
00007669 00000060 739.87 218.28 399.55 622.54 934.18 452.85 1101.31 493.92 1083.95 553.53 942.63 662.46 1084.78 694.78
00007670 00000061 741.94 220.40 397.36 620.99 943.46 457.68 1109.82 495.92 1087.13 548.98 940.97 668.02 1085.16 699.74
00007671 00000062 740.52 221.35 397.59 619.86 943.09 456.67 1108.93 496.19 1086.37 547.60 940.00 666.41 1084.18 699.06
00007672 00000063 737.03 220.66 399.49 619.67 939.98 455.01 1105.60 495.40 1083.25 542.76 937.57 662.21 1083.17 695.38
00007673 00000064 736.72 218.35 397.81 621.77 940.00 453.06 1104.88 493.49 1083.52 541.16 937.26 660.60 1082.80 693.87
00007674 00000065 737.46 217.02 397.92 623.85 939.48 452.36 1104.40 492.09 1083.10 538.75 938.01 661.14 1083.32 693.95
00007675 00000066 738.83 214.76 396.59 624.96 939.10 452.52 1104.71 491.53 1082.88 537.81 939.51 661.73 1085.12 693.83
00007676 00000067 740.57 214.48 396.15 621.35 939.95 452.85 1104.70 490.52 1085.04 536.71 944.03 661.00 1087.75 691.86
00007677 00000068 750.93 209.41 393.03 622.92 941.08 437.47 1102.94 470.82 1089.63 539.36 958.14 658.98 1090.85 687.57
00007678 00000069 751.84 207.56 394.05 624.52 943.84 438.17 1104.91 472.33 1090.32 538.70 960.48 657.98 1092.05 686.93
00007679 00000070 755.18 208.17 393.38 624.04 947.76 439.03 1106.65 472.77 1092.97 539.54 964.13 656.25 1095.15 685.08
00007680 00000071 757.92 208.64 392.17 621.65 951.33 439.85 1108.58 474.54 1095.92 540.73 966.21 655.59 1096.47 685.44
00007681 00000072 760.26 209.38 390.59 622.05 954.29 439.24 1110.11 476.90 1098.29 542.26 967.13 656.77 1094.45 689.37
00007682 00000073 755.91 212.50 389.72 620.97 946.47 441.12 1107.56 484.91 1098.52 530.86 963.98 650.84 1099.03 685.04
00007683 00000074 756.58 213.20 390.86 621.59 947.26 442.32 1108.00 484.86 1099.04 532.88 963.74 652.21 1099.50 685.54
00007684 00000075 756.35 215.17 391.82 618.66 946.10 446.57 1108.30 486.69 1098.64 535.99 963.38 654.00 1100.80 685.34
00007685 00000076 757.18 215.34 393.60 618.52 946.38 448.73 1109.51 485.65 1098.74 536.27 963.52 653.73 1103.43 682.45
00007686 00000077 757.74 215.09 393.12 617.19 947.20 448.31 1110.64 484.82 1100.53 535.99 964.26 652.77 1104.84 681.19
00007687 00000078 758.87 215.74 392.92 616.89 947.30 448.88 1111.39 486.07 1099.30 536.05 963.83 652.72 1104.56 681.73
00007688 00000079 762.20 214.59 388.06 615.15 950.90 441.38 1112.22 471.85 1101.57 547.08 966.77 665.26 1109.07 689.76
00007689 00000080 760.99 217.80 389.51 618.71 951.95 446.01 1111.56 478.35 1101.36 551.34 966.04 668.26 1105.94 694.39
00007690 00000081 760.88 220.47 389.94 619.29 951.69 449.54 1108.46 479.58 1100.53 552.68 967.27 670.42 1103.86 695.03
00007691 00000082 760.90 216.50 388.82 623.88 950.53 448.59 1106.60 477.97 1100.13 550.55 969.27 671.26 1103.61 695.36
00007692 00000083 757.26 207.45 390.06 631.71 947.75 446.08 1106.98 474.73 1100.61 546.20 972.89 672.40 1106.61 695.48
00007693 00000084 763.78 205.81 388.67 633.11 951.09 454.14 1109.98 477.14 1101.60 544.88 975.83 669.15 1102.91 690.07
00007694 00000085 762.49 203.22 392.90 635.76 948.72 453.81 1113.10 474.99 1098.55 543.44 972.99 669.76 1104.39 688.69
00007695 00000086 765.96 203.09 392.11 634.67 949.49 451.92 1116.03 474.56 1095.91 543.35 970.92 665.92 1105.65 685.94
00007696 00000087 754.50 207.34 396.42 631.94 943.58 455.96 1107.61 482.61 1093.97 534.49 969.64 656.89 1110.61 676.44
00007697 00000088 752.66 203.54 399.69 628.75 946.11 453.43 1104.96 475.80 1096.18 531.29 970.18 648.96 1110.18 665.56
00007698 00000089 764.08 201.95 393.26 625.51 954.18 446.78 1111.71 467.50 1099.12 537.72 974.86 653.19 1110.45 671.28
00007699 00000090 765.22 202.30 391.84 629.32 953.56 443.17 1108.49 464.14 1097.86 533.02 975.39 653.24 1105.46 672.18
00007700 00000091 765.20 203.78 389.76 629.03 948.81 438.66 1108.20 461.04 1098.18 532.53 967.36 652.77 1103.56 672.99
00007701 00000092 765.46 202.81 390.01 629.30 945.85 436.67 1109.31 458.11 1097.21 530.52 962.67 652.16 1104.38 671.50
00007702 00000093 763.03 204.35 390.12 621.74 942.76 438.06 1104.59 456.14 1093.22 526.27 965.58 651.69 1103.82 668.18
00007703 00000094 762.76 201.60 390.60 621.94 942.36 439.31 1102.19 455.46 1091.12 523.92 970.95 652.66 1104.97 667.38
00007704 00000095 762.41 202.99 390.34 618.80 942.18 440.61 1100.76 456.45 1090.16 524.96 971.37 652.97 1102.94 667.50
00007705 00000096 762.20 203.05 389.83 618.90 943.30 441.78 1100.68 459.01 1090.12 528.69 970.24 653.83 1100.72 669.56
00007706 00000097 765.00 205.95 389.65 618.90 945.20 443.98 1103.13 460.74 1092.24 531.90 971.53 655.51 1103.58 671.03
00007707 00000098 754.90 204.88 395.00 627.42 940.70 449.24 1101.01 473.28 1094.11 531.37 970.87 657.55 1107.04 675.51
00007708 00000099 754.57 209.77 394.46 626.20 942.83 455.22 1099.42 475.75 1095.11 537.65 973.89 662.87 1107.08 677.82
00007709 00000100 754.77 210.60 394.18 628.38 942.15 458.94 1098.18 478.01 1095.59 545.53 972.99 669.53 1105.79 683.36
00007710 00000101 752.29 211.73 395.49 629.38 941.16 462.34 1098.43 481.09 1097.04 549.28 974.18 674.49 1106.00 687.76
00007711 00000102 755.48 209.94 390.86 624.92 942.15 454.02 1105.17 468.81 1101.53 557.18 972.05 682.75 1113.66 693.79
00007712 00000103 749.15 212.14 395.02 625.42 934.77 460.94 1096.13 480.87 1089.15 549.29 968.41 674.21 1102.04 688.32
00007713 00000104 756.65 210.05 393.06 622.91 939.45 454.28 1099.78 468.23 1090.58 545.87 975.70 673.25 1102.68 685.94
00007714 00000105 756.36 208.41 393.90 623.06 939.36 453.65 1099.59 466.97 1088.78 542.18 976.08 670.87 1103.45 683.01
00007715 00000106 758.40 207.44 392.75 622.33 940.93 452.87 1100.77 466.41 1089.21 539.70 977.65 668.60 1105.57 680.92
00007716 00000107 759.59 205.75 392.07 623.66 941.61 451.34 1101.11 465.16 1091.13 539.05 978.31 667.69 1105.78 680.31
00007717 00000108 760.68 208.26 391.54 620.49 940.86 450.13 1101.40 464.36 1090.04 538.07 976.68 666.53 1105.11 679.45
00007718 00000109 760.27 209.75 391.14 618.39 940.54 449.60 1101.46 464.24 1091.09 538.73 976.52 667.44 1104.33 680.85
00007719 00000110 760.22 209.73 391.16 617.56 940.44 449.96 1102.10 464.32 1090.36 538.84 977.23 667.95 1104.67 681.08
00007720 00000111 760.83 210.44 389.74 616.73 939.73 450.68 1101.58 464.49 1089.91 539.00 977.84 668.81 1104.93 681.46
00007721 00000112 760.53 209.73 388.96 617.97 940.00 450.78 1101.70 465.40 1089.67 539.50 978.82 670.19 1104.02 683.63
00007722 00000113 761.01 208.39 388.98 620.93 940.04 451.54 1101.16 463.02 1090.39 540.92 985.66 674.26 1107.11 684.88
00007723 00000114 761.11 210.12 389.38 618.85 940.38 451.79 1100.85 462.57 1090.25 541.13 987.01 674.76 1107.17 684.78
00007724 00000115 762.68 209.40 387.15 619.75 940.27 451.36 1100.41 462.98 1089.88 540.97 986.43 674.23 1106.19 685.05
00007725 00000116 762.12 209.16 387.30 618.33 939.75 450.70 1100.51 462.76 1088.65 539.79 986.09 673.48 1105.66 684.64
00007726 00000117 754.83 206.89 385.08 620.56 933.26 451.50 1091.75 471.17 1082.44 532.88 978.32 667.60 1103.25 681.25
00007727 00000118 756.03 202.30 385.71 623.70 933.40 443.84 1089.50 467.67 1083.36 517.43 982.14 662.93 1103.68 680.49
00007728 00000119 755.88 203.60 386.45 626.36 932.83 442.55 1088.67 466.69 1083.52 517.65 980.58 662.02 1103.51 679.65
00007729 00000120 757.63 205.06 386.19 629.61 933.93 446.92 1089.47 470.07 1084.85 523.84 979.57 665.39 1103.88 682.16
00007730 00000121 758.53 205.68 385.73 633.43 932.43 448.50 1090.72 470.21 1084.78 526.87 976.82 667.82 1104.52 683.12
00007731 00000122 758.19 207.78 385.14 633.31 931.49 451.04 1089.08 471.27 1082.85 529.92 975.05 668.81 1102.26 682.89
00007732 00000123 756.81 206.19 384.10 636.29 930.21 452.99 1091.63 471.91 1084.27 536.65 972.02 671.43 1102.60 684.15
00007733 00000124 755.47 207.20 386.60 637.24 930.14 454.54 1093.16 475.95 1084.02 541.00 966.50 669.90 1101.03 684.44
00007734 00000125 755.76 205.90 386.11 638.76 929.96 453.07 1093.48 475.59 1083.98 540.31 965.16 669.62 1099.79 685.11
00007735 00000126 755.89 208.08 385.02 634.23 929.68 449.93 1093.65 474.71 1082.56 535.99 962.95 665.79 1098.73 683.36
00007736 00000127 755.61 207.53 384.13 635.83 929.06 444.35 1091.82 474.22 1079.74 529.39 962.76 665.35 1093.95 687.51
00007737 00000128 755.41 205.56 383.53 636.60 927.27 441.59 1090.31 470.44 1077.81 523.23 963.58 662.74 1096.48 683.96
00007738 00000129 756.25 203.70 383.35 637.13 926.48 436.90 1090.06 465.46 1079.80 515.77 965.24 660.27 1099.85 681.46
00007739 00000130 758.07 201.84 382.71 635.43 926.77 436.79 1089.38 462.00 1079.65 514.86 967.95 659.92 1101.32 678.42
00007740 00000131 756.63 198.04 384.88 635.10 927.41 438.01 1089.02 460.16 1080.74 515.16 970.71 657.99 1103.08 673.99
00007741 00000132 755.21 192.59 391.07 633.15 932.71 443.79 1090.95 459.39 1084.09 516.62 976.83 653.01 1108.80 663.99
00007742 00000133 756.13 192.14 391.73 630.59 932.37 446.21 1096.08 459.38 1086.89 516.38 976.30 651.58 1115.67 660.52
00007743 00000134 761.28 205.18 387.20 616.39 937.56 452.53 1100.89 467.30 1089.16 523.08 978.12 653.54 1115.50 663.84
00007744 00000135 763.94 212.58 388.77 612.09 940.01 454.83 1104.42 474.31 1090.11 527.12 977.45 658.59 1114.22 672.66
00007745 00000136 766.75 214.98 386.52 614.56 941.61 458.16 1104.17 478.34 1090.57 531.60 977.77 663.60 1112.67 678.33
00007746 00000137 767.14 218.54 385.57 614.82 940.70 462.59 1103.34 481.56 1091.47 538.22 976.30 670.51 1112.19 684.31
00007747 00000138 765.80 219.47 384.31 617.04 940.44 465.30 1100.91 481.40 1094.09 543.04 977.11 675.52 1111.03 686.90
00007748 00000139 761.76 216.13 386.76 623.17 936.69 472.79 1096.53 481.57 1088.75 550.10 977.45 681.58 1110.46 686.87
00007749 00000140 762.85 216.46 385.66 622.54 934.94 474.70 1095.12 481.25 1087.89 552.64 977.65 685.18 1110.46 688.63
00007750 00000141 762.24 216.13 386.61 622.56 933.43 474.60 1093.44 479.96 1085.74 552.35 978.84 686.58 1110.26 689.12
00007751 00000142 761.59 212.12 387.95 627.08 932.66 473.57 1092.22 476.38 1084.56 553.01 980.48 687.25 1110.64 687.64
00007752 00000143 762.38 210.88 387.70 628.52 933.07 473.78 1093.31 477.04 1084.95 553.02 980.71 687.19 1111.34 687.83
00007753 00000144 765.47 213.64 386.84 626.08 936.34 475.39 1098.27 481.85 1088.58 554.49 979.17 686.91 1112.94 690.21
00007754 00000145 764.97 215.95 387.40 624.01 938.50 475.82 1100.94 484.61 1091.34 555.49 978.50 687.57 1112.49 692.88
00007755 00000146 770.53 213.29 381.75 627.27 945.28 464.57 1110.71 476.59 1101.58 563.03 976.91 692.06 1116.84 701.14
00007756 00000147 764.52 214.78 387.96 626.93 942.17 475.87 1104.19 488.19 1093.37 558.88 975.53 686.12 1109.90 694.38
00007757 00000148 763.23 212.98 388.49 627.18 940.35 475.29 1104.26 488.75 1092.70 558.77 974.84 685.84 1110.41 694.76
00007758 00000149 759.48 210.97 391.12 632.13 935.28 476.43 1099.15 485.16 1089.99 558.44 976.08 688.80 1110.25 693.72
00007759 00000150 760.16 213.16 390.57 632.06 933.80 476.24 1098.15 482.84 1090.53 559.54 976.52 691.23 1111.14 694.43
00007760 00000151 759.79 214.46 390.22 633.14 931.33 476.14 1095.94 481.75 1088.73 559.87 975.67 692.98 1110.69 695.30
00007761 00000152 759.14 216.63 390.12 635.39 929.27 475.04 1095.00 481.38 1087.03 561.24 971.48 693.93 1107.78 696.97
00007762 00000153 762.71 215.60 385.91 639.43 937.49 467.43 1099.91 475.96 1098.66 562.44 974.92 698.27 1109.35 704.80
00007763 00000154 764.57 217.47 386.75 640.57 943.21 467.86 1102.04 482.05 1100.64 562.25 977.05 697.25 1105.61 708.65
00007764 00000155 763.20 220.76 388.80 638.30 944.93 466.31 1101.88 481.99 1103.34 561.57 979.61 695.88 1107.63 708.52
00007765 00000156 761.60 219.10 385.94 637.84 943.52 464.37 1101.67 479.12 1102.80 560.69 979.15 694.73 1108.66 706.33
00007766 00000157 754.94 218.44 386.83 634.85 937.36 460.66 1096.53 473.91 1100.42 557.32 975.88 692.26 1106.99 702.04
00007767 00000158 743.87 209.30 393.44 646.37 918.84 463.72 1083.45 479.96 1076.39 547.90 960.90 686.00 1095.86 697.02
00007768 00000159 733.56 205.08 388.19 629.69 901.65 460.82 1077.42 472.76 1062.46 537.05 944.70 681.19 1089.04 690.17
00007769 00000160 732.08 200.32 385.19 627.77 895.87 460.17 1069.61 469.04 1054.03 528.53 938.04 673.03 1084.04 679.67
00007770 00000161 735.33 198.76 387.87 623.95 899.82 457.05 1072.92 467.44 1057.41 521.61 941.45 667.00 1086.29 675.05
00007771 00000162 741.03 202.60 391.20 612.64 914.31 457.37 1085.82 471.39 1069.79 522.86 947.51 659.54 1094.20 670.69
00007772 00000163 745.69 209.71 395.05 606.35 921.77 444.39 1092.27 466.56 1072.90 518.11 964.00 653.29 1101.65 669.94
00007773 00000164 760.55 210.54 386.42 598.82 949.26 447.78 1101.11 462.11 1095.65 532.56 984.43 655.04 1109.01 667.84
00007774 00000165 759.70 212.57 391.00 596.38 949.22 448.01 1100.95 458.86 1099.52 533.17 988.83 657.00 1113.62 666.74
00007775 00000166 753.96 205.43 393.11 608.90 939.98 447.64 1096.60 462.35 1093.04 523.25 983.57 654.23 1113.75 664.74
