Video ID: 	oCBfVUK_qQM
H: 	1080
W: 	1920
FPS: 	30.0

FRAME INDEX X0 Y0 W H [Landmarks (5 Points)]

00003786 00000000 824.01 172.56 382.32 601.07 941.18 420.87 1129.39 415.09 1063.43 547.99 951.78 624.81 1124.61 620.89
00003787 00000001 824.26 172.19 382.23 600.77 941.39 420.66 1129.55 415.22 1063.44 548.69 951.69 624.32 1124.57 620.69
00003788 00000002 824.83 175.88 381.64 602.69 941.97 420.97 1129.13 415.52 1063.86 548.96 951.04 624.85 1125.08 621.34
00003789 00000003 826.23 171.63 384.88 610.23 941.14 417.66 1129.87 417.84 1062.52 542.67 949.87 619.71 1124.65 620.37
00003790 00000004 827.50 171.23 383.57 607.46 941.10 415.60 1131.49 417.55 1061.97 541.97 948.97 618.60 1125.08 620.53
00003791 00000005 828.43 173.91 379.69 599.98 941.59 417.40 1130.34 415.77 1061.63 546.93 950.31 621.00 1126.03 620.32
00003792 00000006 828.38 173.89 379.76 600.02 941.60 417.39 1130.32 415.75 1061.63 546.92 950.32 620.94 1126.04 620.26
00003793 00000007 828.53 172.33 380.82 596.03 942.38 415.12 1130.47 413.11 1061.60 545.97 950.51 614.56 1128.86 613.91
00003794 00000008 831.18 169.80 379.86 594.56 943.37 412.73 1131.02 410.35 1060.55 545.29 949.03 607.28 1132.96 606.35
00003795 00000009 831.16 169.94 380.64 594.55 944.12 412.82 1131.11 411.14 1060.52 544.16 948.18 604.82 1133.59 604.61
00003796 00000010 830.35 168.56 378.31 597.92 940.92 415.25 1126.26 415.88 1053.09 542.96 941.77 604.25 1128.50 605.76
00003797 00000011 830.39 168.56 378.25 597.93 940.93 415.27 1126.29 415.89 1053.13 542.98 941.77 604.25 1128.52 605.75
00003798 DELETE   826.31 159.85 373.41 619.15 933.89 414.50 1116.17 416.40 1040.51 539.02 928.21 606.38 1116.50 608.82
00003799 00000013 819.98 158.39 375.04 622.40 920.11 410.75 1103.30 409.08 1022.52 532.36 924.15 611.38 1105.86 610.32
00003800 DELETE   815.13 153.15 376.23 622.64 912.19 404.43 1096.44 404.73 1008.63 528.94 917.33 606.77 1099.42 606.73
00003801 00000015 806.67 153.96 380.52 613.25 906.33 399.77 1087.02 400.86 1001.19 525.96 913.24 599.51 1090.47 600.02
00003802 00000016 807.39 154.15 379.41 610.44 906.18 399.68 1087.63 401.06 1001.55 526.23 912.73 599.14 1089.51 600.08
00003803 00000017 807.76 151.21 376.91 609.86 904.17 394.86 1084.39 395.69 998.10 523.92 908.68 593.89 1085.71 594.52
00003804 00000018 807.32 153.51 376.05 595.32 902.08 391.46 1083.97 392.58 997.57 521.91 905.67 587.20 1084.30 588.84
00003805 00000019 805.27 154.63 377.95 589.19 900.85 388.82 1083.45 391.35 996.69 516.63 902.94 580.78 1083.61 584.04
00003806 00000020 805.98 157.42 374.08 584.62 897.62 386.84 1082.13 387.37 995.60 512.92 901.67 580.10 1083.21 582.06
00003807 00000021 805.69 157.30 374.45 585.01 897.77 387.11 1081.98 387.89 995.63 512.77 901.37 579.95 1083.03 582.16
00003808 00000022 805.92 155.66 371.35 586.43 895.33 384.50 1080.45 385.18 993.06 511.02 899.92 579.70 1081.11 581.84
00003809 00000023 804.18 154.95 370.95 587.14 893.55 382.02 1079.69 382.66 990.74 508.18 899.87 580.87 1078.25 582.69
00003810 00000024 802.93 153.26 370.56 590.64 893.24 379.82 1079.00 380.86 989.77 505.90 901.09 583.44 1074.84 584.93
00003811 00000025 803.40 154.11 369.50 590.63 892.93 377.56 1077.60 377.61 987.50 504.27 904.57 585.57 1072.91 585.77
00003812 00000026 803.40 154.11 369.49 590.63 892.93 377.55 1077.60 377.61 987.50 504.27 904.57 585.57 1072.91 585.77
00003813 00000027 803.18 154.10 369.35 589.76 892.76 375.84 1075.87 375.19 985.86 503.08 907.56 585.56 1071.30 584.71
00003814 00000028 804.71 153.57 366.30 588.94 892.70 375.52 1075.76 373.83 985.68 500.74 907.37 585.26 1071.87 583.76
00003815 00000029 803.60 154.33 366.01 584.64 890.99 376.24 1076.45 375.05 985.29 500.31 903.74 583.68 1071.64 583.09
00003816 00000030 801.81 156.45 366.85 577.69 888.75 377.38 1074.99 374.58 984.61 499.30 902.16 581.64 1072.28 579.97
00003817 00000031 801.56 157.74 365.91 572.50 887.18 378.27 1073.87 374.48 984.01 499.33 900.05 580.19 1071.97 577.99
00003818 00000032 801.55 157.60 365.95 573.20 887.12 378.44 1074.03 374.66 984.30 499.69 900.11 580.16 1072.66 577.92
00003819 00000033 801.54 157.95 366.61 573.00 886.88 378.70 1073.61 374.46 984.28 499.57 900.11 579.80 1072.96 577.25
00003820 00000034 801.57 158.59 366.15 571.42 887.11 379.69 1073.03 375.54 984.16 499.92 900.23 580.06 1072.25 577.59
00003821 00000035 801.90 158.49 365.81 570.98 886.92 380.01 1073.10 375.73 983.74 500.88 900.69 580.97 1071.65 578.32
00003822 00000036 802.01 158.52 365.79 571.09 886.93 379.77 1073.17 375.50 983.67 500.96 900.57 581.06 1071.48 578.42
00003823 00000037 800.47 154.59 367.86 579.29 888.23 386.91 1071.45 383.60 984.66 502.23 901.56 582.12 1073.32 580.02
00003824 00000038 800.33 153.78 367.56 581.31 889.26 387.88 1071.47 384.93 984.35 501.54 903.17 583.26 1072.93 581.57
00003825 00000039 800.08 153.06 367.19 583.55 889.51 386.22 1073.73 382.85 985.76 498.76 904.53 585.44 1072.62 583.42
00003826 00000040 802.68 151.87 365.98 586.74 891.61 381.76 1078.10 378.34 989.59 494.53 905.09 584.67 1076.53 582.85
00003827 00000041 803.88 152.12 364.72 586.06 891.67 381.69 1078.78 377.55 989.72 494.82 905.22 584.31 1077.62 582.21
00003828 00000042 809.74 149.70 362.72 583.77 900.76 372.88 1086.00 371.27 999.47 492.87 910.29 577.80 1081.77 577.96
00003829 00000043 810.93 149.97 365.50 575.99 906.41 367.71 1092.82 367.03 1008.44 486.54 913.46 570.22 1087.45 571.00
00003830 00000044 812.15 149.79 370.64 569.25 910.98 365.35 1096.35 363.87 1016.30 480.14 918.45 564.15 1093.71 564.01
00003831 00000045 820.79 148.28 369.28 569.09 918.42 361.78 1105.42 357.46 1027.71 474.02 927.81 562.74 1104.94 560.13
00003832 00000046 820.75 148.26 369.31 569.13 918.42 361.77 1105.41 357.46 1027.73 474.04 927.79 562.71 1104.94 560.13
00003833 00000047 823.92 149.73 369.95 567.86 922.48 359.66 1109.27 352.02 1035.76 468.54 934.82 561.12 1111.18 556.04
00003834 00000048 830.00 149.12 368.81 571.04 928.13 356.07 1112.91 346.26 1045.37 466.74 944.97 561.15 1116.14 553.99
00003835 00000049 839.68 147.41 365.75 571.93 935.73 355.77 1118.22 344.45 1050.95 462.59 953.94 562.36 1121.42 554.69
00003836 00000050 844.99 151.32 367.23 569.26 943.98 350.06 1124.70 340.11 1059.68 460.22 963.23 557.96 1130.21 551.17
00003837 DELETE   846.56 140.66 363.18 571.15 957.62 335.83 1134.51 338.55 1070.23 459.49 973.89 551.45 1122.63 552.60
00003838 00000052 848.33 139.51 361.88 572.79 957.91 335.73 1135.10 338.64 1069.69 458.58 973.55 551.29 1122.55 552.53
00003839 00000053 849.44 120.18 365.56 582.64 963.99 342.94 1144.84 342.23 1081.57 458.03 982.76 547.24 1144.22 547.16
00003840 00000054 850.10 131.63 369.48 571.94 968.46 336.25 1152.87 332.66 1092.82 452.30 987.15 549.48 1140.05 546.36
00003841 00000055 849.39 132.29 371.90 571.17 969.62 337.08 1154.33 333.04 1094.85 452.47 986.92 545.03 1146.30 541.35
00003842 00000056 847.10 131.37 374.38 573.35 971.22 338.07 1155.32 334.64 1098.43 453.40 987.96 545.44 1147.69 541.91
00003843 00000057 846.61 133.60 375.91 574.67 971.55 339.80 1154.94 333.85 1099.39 456.00 991.99 547.03 1151.73 541.05
00003844 00000058 846.60 133.60 375.92 574.67 971.57 339.81 1154.94 333.85 1099.40 456.00 992.01 547.03 1151.74 541.04
00003845 00000059 849.55 137.95 373.85 573.49 974.57 346.59 1154.72 339.91 1100.63 461.96 994.06 550.23 1151.24 543.70
00003846 00000060 848.02 133.75 372.89 582.98 975.07 358.61 1150.88 354.77 1097.96 465.72 990.43 551.60 1151.30 547.64
00003847 00000061 844.27 138.61 373.15 580.50 971.29 364.86 1146.46 361.24 1093.61 471.29 985.52 554.90 1150.29 551.22
00003848 00000062 844.28 138.60 373.15 580.51 971.29 364.85 1146.45 361.23 1093.61 471.29 985.53 554.90 1150.30 551.21
00003849 00000063 843.15 142.52 370.40 580.09 965.07 367.53 1139.87 360.90 1086.80 475.98 980.68 557.35 1147.84 551.35
00003850 00000064 842.13 145.59 367.93 578.34 963.18 366.39 1135.42 361.23 1085.20 477.19 978.11 560.66 1143.86 555.49
00003851 00000065 843.55 151.03 367.13 576.72 956.25 368.93 1134.19 356.04 1080.10 477.90 975.28 566.35 1147.49 556.83
00003852 00000066 843.57 151.00 367.08 576.71 956.22 368.94 1134.17 356.07 1080.05 477.87 975.19 566.29 1147.41 556.81
00003853 00000067 841.94 146.79 367.10 583.54 960.00 363.77 1133.07 358.38 1083.51 477.34 978.47 566.80 1140.90 561.36
00003854 00000068 844.95 141.37 366.66 586.69 964.42 364.83 1138.60 357.66 1089.49 479.54 984.29 570.50 1142.24 563.76
00003855 00000069 848.52 140.30 364.00 584.79 968.54 366.68 1143.16 357.27 1095.27 482.10 989.04 572.30 1144.53 564.62
00003856 00000070 849.45 139.98 364.65 585.32 969.56 368.95 1145.75 358.10 1097.02 484.38 991.08 573.15 1147.89 564.34
00003857 00000071 849.18 139.26 365.95 587.66 969.28 370.45 1147.00 359.81 1096.81 485.10 990.46 575.87 1147.21 567.40
00003858 00000072 849.20 139.19 365.87 587.71 969.28 370.44 1147.01 359.79 1096.85 485.07 990.43 575.85 1147.19 567.39
00003859 00000073 848.45 140.78 366.44 586.94 967.55 369.99 1147.59 360.41 1094.98 485.15 989.17 577.28 1146.94 569.70
00003860 00000074 850.26 140.13 366.41 588.38 966.58 369.36 1147.88 360.40 1093.99 483.17 989.48 579.24 1146.70 572.00
00003861 00000075 850.03 140.11 366.82 588.20 964.96 367.30 1145.55 359.80 1089.84 482.87 988.19 578.90 1141.95 572.23
00003862 00000076 850.03 142.16 369.75 589.30 966.10 368.94 1143.67 364.67 1085.00 485.50 985.47 576.47 1138.71 572.04
00003863 00000077 850.04 142.05 369.93 589.52 966.30 369.31 1143.30 365.07 1084.74 485.82 986.18 576.76 1138.31 572.18
00003864 00000078 848.61 140.57 373.82 593.66 963.90 380.17 1143.32 376.60 1079.35 488.13 978.31 576.69 1140.71 573.54
00003865 00000079 846.36 141.75 374.88 593.17 961.45 381.08 1139.48 378.19 1076.18 489.03 974.64 577.35 1137.50 574.38
00003866 00000080 845.12 141.93 374.63 596.29 959.12 374.63 1138.16 375.03 1073.77 486.59 969.97 579.87 1131.54 579.43
00003867 00000081 841.92 143.48 376.57 598.43 952.75 372.33 1135.10 372.13 1066.76 488.65 964.77 581.61 1128.58 580.58
00003868 00000082 842.04 143.26 376.72 598.75 952.88 372.10 1135.27 372.05 1066.65 488.61 964.79 581.57 1128.37 580.66
00003869 00000083 841.87 143.04 376.14 599.28 951.84 371.24 1134.03 371.81 1064.71 489.84 964.15 581.87 1126.51 581.38
00003870 00000084 839.19 143.42 376.93 596.47 950.02 371.69 1133.23 371.28 1064.78 489.07 963.01 581.44 1127.32 580.18
00003871 00000085 838.70 143.96 375.23 594.60 949.94 370.56 1134.74 370.31 1066.47 488.57 963.59 584.18 1128.00 583.03
00003872 00000086 838.69 143.98 375.24 594.59 949.96 370.56 1134.74 370.33 1066.49 488.57 963.60 584.17 1127.99 583.04
00003873 00000087 838.51 144.41 377.13 593.53 949.97 368.26 1134.18 366.69 1067.54 490.06 965.09 581.68 1128.89 579.28
00003874 00000088 839.60 143.05 375.95 596.29 948.89 367.88 1132.84 365.66 1065.56 490.05 967.09 580.63 1128.25 577.59
00003875 00000089 839.55 141.79 375.11 601.98 948.71 366.76 1132.22 365.54 1064.85 491.94 966.52 586.32 1123.10 584.60
00003876 00000090 839.44 139.30 373.67 605.86 949.02 364.60 1131.97 365.92 1063.26 494.93 966.67 589.60 1114.29 590.38
00003877 00000091 838.73 139.59 375.39 605.88 948.38 364.99 1131.52 365.86 1062.34 495.77 966.09 588.87 1114.67 589.18
00003878 00000092 838.79 139.83 375.32 605.10 948.72 364.91 1131.12 365.95 1062.38 495.58 966.79 588.70 1113.83 589.22
00003879 00000093 837.25 138.68 374.97 609.49 947.47 365.82 1130.16 366.28 1063.35 494.31 965.30 593.11 1114.55 593.27
00003880 00000094 836.24 138.23 375.93 609.24 946.66 370.24 1127.11 369.37 1061.09 493.54 962.67 590.31 1117.04 589.22
00003881 00000095 836.31 139.98 375.14 600.12 946.28 378.62 1125.24 379.36 1058.28 490.62 960.61 582.16 1117.94 582.05
00003882 00000096 836.30 139.97 375.02 600.14 946.31 378.61 1125.26 379.41 1058.26 490.66 960.62 582.15 1117.90 582.10
00003883 00000097 836.97 142.57 373.97 587.96 946.13 382.27 1123.59 380.62 1054.96 493.45 956.03 572.79 1123.22 573.64
00003884 00000098 837.40 141.50 374.33 586.54 944.00 378.38 1122.31 378.78 1050.46 490.55 952.09 568.79 1120.38 571.32
00003885 00000099 835.86 141.85 375.09 583.93 942.82 371.18 1122.92 375.82 1048.67 487.66 947.48 565.82 1116.62 571.83
00003886 00000100 838.48 140.04 371.53 589.16 947.30 360.00 1125.32 369.94 1053.59 481.84 954.81 569.57 1107.65 577.67
00003887 00000101 838.32 139.32 371.80 590.22 946.99 360.69 1125.57 370.66 1053.57 481.09 954.60 569.79 1108.04 577.81
00003888 00000102 843.73 142.81 372.42 585.69 956.78 355.63 1136.42 368.76 1063.54 481.15 962.05 569.16 1110.91 579.54
00003889 DELETE   854.49 137.15 373.01 593.46 973.25 350.74 1159.29 369.09 1081.35 477.86 970.40 568.43 1126.76 582.88
00003890 DELETE   866.31 139.07 377.35 594.06 989.69 350.02 1171.79 371.14 1097.92 477.49 985.09 565.95 1138.49 583.34
00003891 DELETE   862.87 138.10 380.59 595.37 987.85 350.28 1170.57 370.86 1097.56 477.38 984.82 567.29 1137.72 583.99
00003892 00000106 869.34 140.70 383.50 590.65 997.45 348.43 1181.98 370.36 1108.36 477.97 993.29 566.78 1146.05 584.68
00003893 00000107 880.51 140.64 379.27 596.31 1007.11 347.78 1191.56 372.87 1114.55 474.39 996.41 565.91 1153.75 587.29
00003894 00000108 884.92 141.85 379.39 604.28 1011.44 347.43 1196.04 374.75 1120.59 476.13 998.35 573.66 1152.37 597.11
00003895 00000109 886.94 145.86 382.60 600.47 1014.00 350.20 1198.24 375.99 1122.87 478.13 1001.63 574.88 1154.63 597.13
00003896 00000110 889.25 146.95 381.40 597.87 1013.18 348.69 1196.78 375.52 1117.47 476.06 997.76 570.82 1152.14 593.80
00003897 00000111 889.30 147.06 381.28 597.83 1013.23 348.75 1196.86 375.59 1117.55 476.03 997.79 570.84 1152.16 593.82
00003898 00000112 886.50 146.66 381.07 596.25 1007.25 347.79 1190.55 375.36 1105.92 474.32 987.90 568.62 1144.41 592.35
00003899 00000113 880.55 146.29 384.36 597.27 1003.45 346.93 1186.29 376.28 1103.57 478.24 983.16 570.37 1137.93 595.65
00003900 00000114 879.69 143.98 383.89 602.99 1003.18 346.69 1186.34 376.81 1104.35 479.30 983.36 574.58 1134.95 600.47
00003901 00000115 881.08 142.08 381.49 606.37 1002.82 346.50 1186.31 374.34 1105.30 478.85 985.81 578.21 1136.33 602.07
00003902 00000116 881.08 142.30 381.61 606.14 1002.83 346.46 1186.34 374.29 1105.28 478.78 985.83 578.13 1136.39 601.98
00003903 00000117 880.12 140.98 377.42 603.95 1002.11 353.05 1181.11 379.51 1100.96 478.91 984.54 575.41 1135.64 597.99
CROP_BBOX: 572 0 1498 914
