Video ID: 	nZf4GWVNTrU
H: 	1080
W: 	1920
FPS: 	25.0

FRAME INDEX X0 Y0 W H [Landmarks (5 Points)]

00002120 00000000 504.25 98.01 436.48 658.08 690.65 385.45 877.25 400.27 816.33 505.40 699.42 606.92 840.01 620.07
00002121 00000001 499.40 96.64 435.55 660.11 682.35 381.80 871.78 396.03 810.89 499.68 692.63 606.13 836.25 618.94
00002122 DELETE   494.94 93.49 433.36 663.34 674.92 377.02 865.73 390.06 805.04 493.28 685.16 602.71 831.50 614.77
00002123 DELETE   492.06 95.55 431.78 658.93 668.00 374.59 858.95 385.79 798.59 487.18 680.56 596.97 829.61 607.44
00002124 00000004 492.12 95.31 429.20 654.39 661.93 371.42 855.53 381.28 796.62 484.76 677.00 593.33 830.99 602.75
00002125 00000005 488.11 95.68 432.83 656.81 658.22 369.19 853.43 378.00 793.99 483.71 673.29 592.64 830.59 601.08
00002126 00000006 487.44 93.10 431.27 655.79 655.83 368.14 850.55 374.84 791.11 480.89 673.65 591.80 829.89 598.61
00002127 00000007 484.76 92.09 431.12 653.96 656.11 366.52 846.56 374.70 788.50 477.94 673.54 589.88 824.11 598.14
00002128 00000008 484.92 88.61 427.67 653.77 654.36 366.04 843.87 372.94 786.57 476.37 676.08 590.36 823.83 597.46
00002129 00000009 478.30 95.78 428.73 644.29 651.79 370.84 838.02 377.15 786.39 485.48 682.83 595.68 825.38 598.64
00002130 00000010 476.30 96.74 428.12 644.64 651.08 371.27 836.76 378.25 785.38 486.27 682.08 596.09 823.59 599.57
00002131 00000011 475.83 95.22 428.75 645.61 650.36 371.54 835.42 378.06 784.37 486.71 681.83 596.15 822.60 599.15
00002132 00000012 481.29 87.52 427.88 657.08 652.85 366.95 840.80 375.66 784.24 477.97 676.11 590.72 820.24 599.15
00002133 00000013 479.95 87.87 428.97 657.84 653.97 367.15 840.49 376.62 785.14 478.12 676.27 590.31 819.71 599.37
00002134 00000014 480.35 89.60 428.06 656.49 654.93 367.72 841.23 377.85 785.88 479.35 677.00 590.87 820.07 600.56
00002135 00000015 480.43 90.48 427.95 661.32 656.06 368.47 841.70 379.59 786.57 480.21 676.42 592.36 819.54 602.83
00002136 00000016 473.71 99.31 431.42 652.93 653.62 374.79 837.07 383.62 787.52 491.84 681.02 601.76 819.89 606.91
00002137 00000017 474.10 99.20 430.99 653.80 654.45 374.00 837.55 383.46 788.15 491.79 680.56 601.34 819.54 607.05
00002138 00000018 482.36 91.69 428.19 660.16 655.96 369.40 844.45 380.63 787.26 482.02 671.22 590.47 821.11 601.05
00002139 00000019 485.12 93.03 427.54 655.92 655.30 372.55 846.10 379.78 788.28 483.78 673.40 591.43 826.79 598.59
00002140 00000020 486.77 94.60 427.73 656.65 656.59 373.83 847.35 380.78 789.96 485.99 673.70 592.53 827.63 599.44
00002141 00000021 489.33 94.83 426.61 656.37 658.62 376.00 849.48 384.74 790.39 489.73 673.20 593.94 824.61 602.65
00002142 00000022 490.15 96.60 426.82 661.86 660.52 380.80 849.36 390.29 791.57 495.98 675.47 600.41 822.60 609.84
00002143 00000023 490.04 94.66 430.25 666.00 668.23 383.27 855.08 393.84 797.57 503.45 678.44 604.68 822.17 614.94
00002144 DELETE   493.44 98.73 428.43 662.25 671.54 387.93 860.79 399.59 801.86 507.42 681.06 608.53 826.49 619.32
00002145 00000025 493.67 99.78 433.78 663.57 676.41 390.88 867.57 403.92 804.95 512.60 684.51 612.50 829.11 624.20
00002146 00000026 497.12 104.01 436.04 658.95 681.22 391.57 872.82 404.58 808.20 515.98 688.43 612.87 833.26 624.56
00002147 DELETE   501.27 106.09 437.95 657.65 688.89 393.48 878.52 407.46 814.43 518.99 695.20 614.07 836.50 626.72
00002148 00000028 507.95 106.28 435.22 660.17 696.91 395.84 883.94 410.92 820.37 521.44 701.24 616.44 839.75 629.81
00002149 00000029 511.93 107.04 434.52 656.61 706.70 395.31 889.06 413.08 828.27 523.91 707.04 616.45 841.79 631.95
00002150 00000030 515.09 107.60 432.92 656.63 712.45 395.87 893.09 414.02 833.85 525.87 713.11 616.46 847.24 632.09
00002151 00000031 517.95 107.54 431.42 655.81 715.26 396.74 896.33 415.40 837.95 525.94 715.62 615.76 852.08 631.73
00002152 00000032 520.10 109.98 431.13 654.15 719.54 397.17 899.63 415.68 843.21 526.14 720.33 617.13 856.59 632.69
00002153 00000033 524.20 111.26 428.58 653.62 722.61 398.41 901.74 416.08 845.70 527.77 722.67 617.88 859.92 632.67
00002154 00000034 526.23 114.34 429.72 654.02 726.14 399.42 903.35 417.82 848.14 529.97 726.61 620.39 862.02 635.63
00002155 00000035 528.21 117.59 429.50 651.48 727.68 401.56 904.64 418.45 849.39 532.19 729.02 622.89 864.16 636.96
00002156 00000036 528.30 120.18 431.22 652.51 729.75 402.98 906.69 417.18 852.87 533.44 732.48 626.23 867.31 638.20
00002157 00000037 528.86 124.16 433.01 650.45 731.20 405.66 907.90 419.37 854.45 535.67 734.78 628.53 868.25 640.11
00002158 00000038 532.18 125.84 431.58 651.40 733.80 408.95 907.37 421.63 855.80 537.75 737.47 630.56 870.02 641.08
00002159 00000039 532.55 124.08 434.19 655.74 735.90 409.68 909.06 422.06 857.54 539.04 738.47 631.98 870.49 642.25
00002160 00000040 533.48 125.52 434.01 652.61 737.70 411.19 910.17 423.32 858.88 539.48 739.49 632.16 870.85 642.25
00002161 00000041 534.01 125.66 435.21 653.03 738.89 411.96 910.49 424.32 859.27 540.52 740.28 632.94 870.58 643.18
00002162 00000042 534.84 124.53 434.81 654.01 739.54 412.54 910.53 424.57 859.74 540.27 741.66 633.45 871.28 643.46
00002163 00000043 534.00 125.48 435.38 654.49 739.50 412.70 910.66 424.51 860.07 540.50 742.23 634.34 871.59 644.13
00002164 00000044 532.46 126.83 436.89 655.53 738.01 412.42 910.52 424.75 859.51 540.85 741.30 635.82 871.20 646.07
00002165 00000045 527.83 128.56 438.20 660.18 740.02 412.03 903.35 427.92 859.59 547.04 742.00 640.40 863.95 653.21
00002166 00000046 527.35 129.09 437.86 660.14 739.21 413.48 902.59 428.91 859.11 547.88 741.43 641.70 863.33 654.24
00002167 00000047 527.07 129.77 436.77 660.03 738.63 413.89 902.08 429.20 858.64 548.58 740.49 641.90 863.36 654.37
00002168 00000048 526.27 130.06 436.98 658.69 737.41 413.73 901.54 429.38 857.62 548.28 740.48 641.67 862.82 654.33
00002169 00000049 525.90 130.94 437.23 657.60 737.86 412.23 901.57 429.39 857.04 548.59 738.81 640.60 861.36 654.58
00002170 00000050 525.91 131.30 436.45 658.01 737.20 413.35 900.22 429.03 855.94 549.56 738.23 639.52 862.35 652.14
00002171 00000051 525.05 129.23 435.51 659.95 735.90 413.62 899.05 427.94 855.53 549.05 738.48 640.26 862.34 651.71
00002172 00000052 530.73 128.64 431.33 656.49 731.69 413.95 906.60 422.99 854.62 540.21 738.85 636.58 871.63 644.00
00002173 00000053 530.47 127.45 430.57 659.88 730.10 414.14 906.00 423.78 853.76 540.63 737.29 636.56 872.93 644.55
00002174 00000054 528.92 128.06 430.47 657.06 728.84 413.72 904.73 422.86 852.32 540.16 737.62 636.37 871.46 644.03
00002175 00000055 526.79 126.81 430.95 657.93 727.14 413.03 903.90 422.18 851.51 539.98 735.77 636.17 869.77 643.85
00002176 00000056 524.40 119.02 429.44 668.07 724.61 411.06 899.94 421.02 847.48 539.37 732.85 637.61 864.83 645.93
00002177 00000057 522.53 121.07 431.23 664.54 717.18 409.66 897.66 421.54 839.91 541.10 725.19 639.40 859.28 649.51
00002178 00000058 518.52 122.19 432.41 658.53 709.57 408.61 892.80 420.93 832.64 539.58 719.00 637.87 852.87 648.49
00002179 00000059 512.79 121.64 435.31 655.35 701.62 413.71 885.99 421.83 824.56 539.46 712.10 634.65 848.64 641.74
00002180 DELETE   504.62 119.80 436.81 660.30 685.44 416.32 878.10 423.83 812.07 535.32 695.78 634.22 840.20 641.19
00002181 00000061 499.41 119.39 437.94 661.88 676.90 411.57 872.58 419.59 804.54 529.00 687.38 630.00 835.22 637.65
00002182 DELETE   495.87 113.91 439.92 665.84 673.01 405.91 868.29 412.40 800.98 526.02 685.54 628.05 829.81 634.57
00002183 DELETE   495.05 111.63 436.52 660.69 670.90 402.21 864.03 408.99 797.61 522.52 683.35 623.84 824.54 630.96
00002184 00000064 495.65 109.00 432.71 654.92 669.15 399.23 861.49 405.02 796.27 520.20 682.61 620.03 823.54 626.26
00002185 00000065 495.88 104.83 429.28 653.18 666.88 395.66 858.85 400.32 795.21 515.84 680.31 612.20 826.82 617.64
00002186 DELETE   495.65 99.14 427.95 661.07 664.02 391.02 857.59 397.68 795.70 512.95 675.25 608.39 828.70 615.14
00002187 00000067 494.35 94.81 429.36 665.50 662.23 387.41 855.03 396.75 792.18 509.43 671.94 606.14 824.27 615.25
00002188 00000068 492.66 96.16 430.80 665.57 661.46 386.34 853.21 397.38 789.84 506.82 669.62 605.21 819.34 615.90
00002189 00000069 491.37 95.97 432.60 665.88 663.35 383.44 853.67 397.16 789.82 505.74 669.29 603.64 817.79 616.56
00002190 00000070 491.62 97.23 434.10 661.19 668.67 379.81 855.46 396.79 791.62 503.00 672.22 600.61 815.96 616.41
00002191 00000071 491.09 97.34 437.50 661.57 671.98 376.59 860.03 397.15 794.47 497.71 673.77 596.60 819.27 615.10
00002192 00000072 494.39 92.75 436.85 661.09 676.95 373.65 865.50 394.50 799.89 494.56 678.28 595.18 823.84 613.70
00002193 00000073 499.42 92.24 437.36 659.95 681.00 372.91 871.56 395.31 804.89 492.81 683.19 596.16 829.51 615.81
00002194 00000074 503.20 95.03 437.31 660.11 686.89 369.74 875.24 395.54 808.41 494.50 685.28 596.59 829.97 619.17
00002195 00000075 508.86 95.41 436.17 661.51 691.13 370.44 879.76 397.00 813.39 494.43 688.76 596.51 834.51 619.76
00002196 00000076 513.70 96.74 434.09 658.80 696.13 371.39 883.39 398.26 818.76 497.77 691.28 595.00 839.42 618.36
00002197 00000077 515.55 96.44 434.66 659.39 700.97 373.13 887.32 400.44 823.49 500.35 695.08 595.72 843.01 619.45
00002198 00000078 517.30 98.61 435.01 656.44 704.43 372.72 888.94 400.61 824.91 501.61 699.16 596.83 842.01 621.14
00002199 00000079 518.66 98.85 434.34 653.61 708.19 372.85 890.22 401.48 827.31 501.47 703.55 597.85 841.59 622.82
00002200 00000080 518.95 99.11 434.04 659.76 710.69 372.61 891.63 401.41 831.56 500.32 706.34 599.33 844.01 624.33
00002201 00000081 520.36 99.83 433.88 657.43 712.50 372.65 893.19 402.39 833.46 499.64 707.98 598.76 845.28 624.47
00002202 00000082 521.24 98.73 433.99 657.69 713.96 372.66 893.90 402.07 833.79 499.72 708.67 597.74 845.85 623.06
00002203 00000083 521.26 101.37 435.49 656.64 716.01 372.00 894.71 401.42 836.31 497.87 711.71 597.64 847.89 622.90
00002204 00000084 520.60 101.31 438.02 652.04 716.50 374.31 896.98 402.76 837.83 500.73 711.10 595.52 850.39 619.89
00002205 00000085 523.68 101.27 436.90 645.86 717.80 375.69 899.56 403.48 839.31 503.04 712.26 593.14 854.25 616.83
00002206 00000086 524.27 102.66 436.01 642.02 718.49 377.18 898.92 402.99 839.56 502.70 715.16 592.23 856.29 614.21
00002207 00000087 524.75 105.17 435.20 640.88 719.64 376.95 898.47 403.29 839.87 502.75 717.23 594.41 854.80 616.86
00002208 00000088 524.26 103.58 434.76 650.61 720.82 375.30 897.79 404.93 839.59 503.31 715.86 597.51 849.89 622.90
00002209 00000089 523.69 102.93 435.24 653.44 720.83 374.54 897.21 405.10 839.46 502.71 716.13 598.22 848.91 624.42
00002210 00000090 523.30 102.98 435.18 656.71 720.52 373.10 896.43 404.12 839.39 500.94 715.81 598.28 849.00 624.84
00002211 00000091 523.96 102.74 434.14 653.02 719.66 372.79 896.74 403.15 839.32 499.77 715.93 597.38 849.50 623.41
00002212 00000092 522.77 101.58 434.69 651.86 717.54 373.91 897.41 403.35 838.85 500.75 713.46 596.08 851.23 621.27
00002213 00000093 523.24 102.95 434.10 646.51 718.86 374.56 899.52 403.46 840.81 503.44 713.12 594.21 853.80 618.82
00002214 00000094 523.76 106.32 433.24 642.94 722.64 376.58 900.33 405.19 844.09 505.19 716.06 594.01 854.87 618.43
00002215 00000095 520.94 105.24 434.94 649.72 721.99 376.04 904.64 405.50 848.24 502.55 715.75 595.52 857.93 620.13
00002216 00000096 529.00 111.76 427.32 641.06 732.95 384.39 905.38 409.15 854.78 512.23 728.71 600.70 861.85 621.79
00002217 00000097 531.84 111.67 426.66 645.43 738.45 386.95 907.93 408.60 860.66 515.40 736.64 606.42 865.95 624.66
00002218 00000098 534.06 109.22 429.45 659.77 742.27 381.45 913.04 406.95 868.38 515.62 737.73 605.23 865.88 627.95
00002219 00000099 537.74 108.67 431.17 665.47 748.63 384.71 916.17 408.46 873.05 515.60 744.59 607.77 868.96 629.20
00002220 00000100 540.13 108.54 431.62 667.09 749.38 388.21 919.96 408.90 877.97 515.14 747.58 610.09 875.13 628.94
00002221 00000101 540.18 108.60 432.93 666.77 752.43 389.66 923.07 409.71 880.94 515.90 750.39 610.14 877.42 628.46
00002222 00000102 540.96 108.00 434.75 667.22 754.03 389.22 926.54 408.99 882.72 516.69 751.40 611.56 879.42 629.50
00002223 00000103 542.56 106.89 435.30 666.18 756.98 388.89 930.47 407.33 887.30 517.19 755.52 610.88 884.90 627.62
00002224 00000104 543.54 108.78 436.36 665.32 758.78 390.32 934.34 406.80 891.46 517.37 758.77 612.21 890.35 627.52
00002225 00000105 543.57 106.87 439.15 669.39 763.21 387.77 937.37 407.90 894.84 518.45 761.27 611.60 892.69 629.76
00002226 00000106 545.67 105.78 439.54 670.25 766.79 387.99 938.77 407.71 897.05 519.01 765.13 612.29 893.32 630.16
00002227 00000107 549.01 105.19 437.66 671.88 768.66 388.74 940.09 408.13 898.49 519.11 767.95 613.03 896.34 630.48
00002228 00000108 551.66 105.19 435.45 671.66 772.12 388.72 942.39 408.50 900.21 519.74 770.56 613.05 897.46 630.72
00002229 00000109 553.85 104.16 433.75 672.98 772.79 389.19 942.63 408.51 900.60 518.58 771.94 613.98 898.24 631.25
00002230 00000110 554.65 105.01 432.88 672.76 774.46 388.16 942.61 409.17 900.88 517.95 772.51 613.39 897.08 632.09
00002231 00000111 554.28 106.88 433.42 668.78 773.81 386.88 942.57 408.72 900.58 517.37 772.05 611.70 897.41 631.20
00002232 00000112 554.52 106.56 433.25 668.57 775.45 386.36 942.89 407.76 901.53 516.68 773.35 609.55 898.61 628.69
00002233 00000113 553.32 107.28 433.64 666.33 774.85 386.27 942.50 406.32 901.97 514.44 775.27 608.46 901.04 626.38
00002234 00000114 553.13 109.59 433.13 665.13 775.07 385.52 942.41 405.10 902.53 513.69 776.84 608.03 902.55 625.47
00002235 00000115 552.86 108.72 432.80 665.30 774.80 385.64 941.65 404.50 902.41 513.97 776.62 607.93 902.11 624.80
00002236 00000116 552.78 108.60 431.97 663.17 773.45 387.62 940.84 404.48 902.26 514.35 777.80 608.94 902.77 624.24
00002237 00000117 552.31 108.63 431.40 662.41 772.75 387.84 941.06 404.40 901.91 515.28 777.67 609.25 902.60 624.34
00002238 00000118 550.23 108.63 433.60 660.79 771.61 387.86 939.74 406.48 901.35 515.22 775.67 608.81 900.53 625.62
00002239 00000119 548.14 110.75 434.59 661.04 769.31 388.24 938.13 406.94 899.28 516.58 771.83 610.70 897.10 627.70
00002240 00000120 546.46 110.78 435.34 659.36 767.82 388.63 938.24 405.97 898.29 518.27 768.82 611.44 893.76 627.77
00002241 00000121 546.62 107.61 435.98 663.08 766.35 389.31 938.47 406.18 897.15 519.06 766.18 611.22 893.62 627.01
00002242 00000122 544.95 108.61 437.27 666.11 763.67 388.98 937.56 405.88 895.71 518.15 763.96 613.36 892.67 629.19
00002243 00000123 544.69 107.89 436.29 669.00 763.75 388.38 936.68 405.77 896.11 515.97 765.79 612.89 894.47 628.90
00002244 00000124 545.27 106.07 433.02 670.06 762.76 389.18 935.26 405.73 896.17 513.33 766.75 611.86 895.84 627.05
00002245 00000125 545.12 106.34 432.52 668.49 761.27 389.10 935.18 404.97 894.52 514.20 763.87 611.02 894.56 625.75
00002246 00000126 544.13 105.58 431.55 669.20 760.71 389.12 932.71 405.10 894.71 512.98 763.28 611.20 892.74 625.97
00002247 00000127 543.07 106.84 432.11 669.12 759.31 388.34 931.20 406.24 892.99 513.98 759.00 610.89 888.92 627.33
00002248 00000128 542.91 106.77 431.76 670.65 756.10 388.70 928.85 406.70 890.72 514.59 755.58 611.32 887.89 627.77
00002249 00000129 543.05 106.78 430.03 666.71 754.01 389.83 926.75 408.02 886.52 513.53 755.04 610.14 884.98 626.86
00002250 00000130 542.00 106.86 428.62 665.88 753.20 390.95 923.20 409.16 884.51 514.02 753.24 608.22 881.94 625.07
00002251 00000131 541.97 110.09 426.89 660.56 751.38 394.19 919.64 411.45 879.03 517.29 749.86 608.21 877.54 624.41
00002252 DELETE   537.87 113.17 427.29 657.80 744.85 394.98 914.29 414.78 871.82 517.32 742.46 608.80 871.72 626.87
00002253 00000133 533.95 108.48 427.28 663.74 741.44 392.91 910.56 413.89 866.36 520.33 736.99 608.73 867.04 627.58
00002254 00000134 529.35 107.29 428.86 658.89 736.19 388.89 906.49 410.17 861.13 516.01 734.31 606.67 864.52 625.43
00002255 00000135 523.36 106.74 432.89 655.03 729.55 384.10 906.13 407.06 856.85 512.20 729.22 604.18 863.46 623.94
00002256 00000136 519.26 103.83 436.15 654.26 726.38 381.66 904.80 404.97 853.81 507.56 723.77 599.88 860.84 619.70
00002257 00000137 522.46 102.33 435.76 652.80 728.24 372.99 905.24 401.86 852.31 501.21 722.83 596.24 856.65 620.49
00002258 00000138 523.55 100.08 437.76 653.81 728.37 367.02 905.90 398.45 851.49 496.63 721.97 592.54 856.96 618.64
00002259 00000139 526.60 99.01 438.64 655.71 733.16 364.21 906.68 399.12 852.63 495.64 723.25 589.92 854.69 619.11
00002260 00000140 527.88 102.81 441.45 663.60 737.88 364.30 909.34 403.03 853.37 500.01 721.70 591.37 852.23 624.05
00002261 00000141 523.36 108.73 443.45 664.28 734.73 372.97 909.61 411.15 850.33 511.89 714.90 598.89 847.56 631.46
00002262 00000142 521.62 111.02 442.39 656.02 729.40 382.82 902.82 415.63 844.24 521.05 715.48 605.35 845.62 633.30
00002263 00000143 524.45 115.37 433.78 641.86 718.16 385.05 895.58 417.70 830.78 523.25 707.53 609.71 836.60 637.53
00002264 00000144 516.59 116.48 435.94 637.53 704.11 383.49 889.63 414.63 819.80 522.58 695.20 609.22 830.63 635.73
00002265 DELETE   507.60 109.46 438.11 643.34 696.10 377.16 881.69 411.17 813.02 511.77 687.96 601.76 826.13 631.46
00002266 DELETE   511.26 104.81 431.01 619.57 685.57 373.36 875.90 397.29 809.03 501.46 693.17 606.19 826.02 626.84
00002267 00000147 509.38 98.95 431.49 621.07 686.45 365.53 873.50 389.59 806.93 498.84 693.67 587.29 828.55 609.05
00002268 00000148 517.39 97.57 428.74 607.71 685.44 361.54 877.59 384.48 805.28 493.01 694.34 581.17 830.58 601.45
00002269 00000149 520.80 100.41 421.57 631.17 698.58 366.69 882.66 387.15 816.26 519.56 704.72 599.95 831.11 618.95
00002270 00000150 515.72 100.73 428.45 661.40 702.97 363.13 880.99 397.81 820.90 500.57 696.17 596.41 830.55 626.47
00002271 00000151 520.84 103.15 427.98 654.68 710.98 371.17 885.28 408.64 828.37 502.92 703.60 595.29 835.82 627.60
00002272 00000152 523.70 102.38 427.87 654.34 716.66 373.59 889.93 407.75 837.16 504.50 709.49 594.76 842.31 623.99
00002273 00000153 536.16 102.25 425.12 665.24 724.24 366.88 901.34 404.29 840.92 510.85 713.72 595.03 849.24 626.95
00002274 00000154 546.59 104.70 421.16 651.48 734.85 368.45 906.20 406.89 845.47 520.99 726.58 599.01 848.36 631.99
00002275 00000155 537.04 103.58 439.84 632.11 730.64 367.46 907.67 401.25 847.05 504.16 728.75 591.71 854.48 619.90
00002276 00000156 546.73 107.03 434.94 613.08 737.56 364.37 914.36 396.56 849.96 493.71 727.16 577.82 856.94 605.77
00002277 00000157 548.86 104.57 436.30 642.63 739.51 360.07 919.41 398.60 853.24 496.74 724.04 589.10 857.06 622.42
00002278 00000158 545.85 100.61 442.76 655.56 748.25 352.93 921.76 397.95 856.51 496.46 725.99 582.69 857.63 621.31
00002279 00000159 545.13 98.87 447.85 651.54 754.54 347.03 926.52 396.15 861.68 489.97 730.20 576.55 860.01 618.46
00002280 00000160 546.17 92.15 450.03 658.20 761.13 340.29 929.88 395.30 868.35 482.73 734.26 567.94 865.27 614.66
00002281 00000161 544.61 95.21 453.60 651.51 764.97 336.14 932.54 387.42 874.12 479.53 740.49 563.30 871.66 607.01
00002282 00000162 545.44 90.10 454.77 648.09 769.08 332.52 937.36 384.19 880.09 474.71 745.29 559.85 874.62 603.66
00002283 00000163 546.63 93.71 454.26 644.61 771.88 334.53 939.13 384.60 882.96 476.90 748.45 561.14 876.74 603.76
00002284 00000164 547.67 97.16 456.13 648.61 774.87 339.31 938.71 391.98 883.42 483.47 750.45 564.41 877.24 609.19
00002285 00000165 547.59 101.67 455.19 649.17 771.28 348.71 936.22 400.17 879.13 488.43 748.39 570.98 874.87 614.67
00002286 00000166 550.52 108.17 448.81 646.95 762.35 363.12 934.79 403.50 873.84 498.55 744.41 585.18 874.60 619.96
00002287 00000167 549.85 109.51 446.18 655.62 757.57 370.70 930.12 407.39 869.22 507.87 740.36 594.86 868.09 627.03
00002288 00000168 547.63 112.20 441.56 660.00 748.90 378.36 923.97 410.99 862.82 515.61 734.80 604.66 863.36 633.85
00002289 00000169 539.08 112.79 444.65 657.95 737.10 389.16 919.43 414.70 857.66 525.48 729.97 614.97 871.46 636.38
00002290 00000170 532.56 111.88 444.62 654.56 729.93 390.62 913.46 416.77 850.35 525.10 723.13 612.25 865.35 634.24
00002291 00000171 529.82 111.49 441.15 654.01 723.67 389.95 909.27 413.47 846.64 522.71 718.58 611.90 862.74 631.76
