Video ID: 	-XAmfuEQQvs
H: 	1080
W: 	1920
FPS: 	25.0

FRAME INDEX X0 Y0 W H [Landmarks (5 Points)]

00003923 00000000 609.81 121.71 424.06 606.01 834.68 318.20 998.99 351.37 997.81 403.10 875.70 548.12 1006.43 572.48
00003924 00000001 610.07 126.21 422.90 600.81 836.06 316.23 998.59 353.79 998.61 402.66 874.01 546.97 1003.94 575.13
00003925 00000002 611.59 129.83 423.65 601.65 838.31 319.28 1003.24 355.34 1001.76 408.68 874.06 550.78 1006.33 577.55
00003926 00000003 612.03 136.38 424.71 597.78 839.86 322.46 1009.87 360.12 1004.82 414.96 874.30 553.90 1008.49 581.85
00003927 00000004 612.44 135.31 427.57 597.21 844.45 328.81 1016.39 367.94 1011.95 418.02 878.83 556.64 1014.96 585.56
00003928 00000005 613.94 134.95 432.91 598.24 851.41 331.10 1024.08 371.71 1020.91 419.44 883.32 558.28 1020.68 588.52
00003929 00000006 615.15 131.81 436.84 611.09 853.68 331.41 1025.26 368.65 1023.19 422.02 886.82 563.97 1023.80 591.57
00003930 00000007 615.26 131.27 440.33 612.44 854.12 333.72 1027.27 368.06 1024.12 426.17 887.73 568.42 1025.53 593.69
00003931 00000008 614.13 137.21 443.98 611.67 850.13 337.89 1023.63 369.05 1019.54 431.56 887.04 573.93 1024.30 596.63
00003932 00000009 617.98 142.35 440.84 619.51 849.75 340.38 1025.35 369.77 1017.08 439.26 885.11 582.05 1025.30 603.55
00003933 00000010 618.82 149.04 439.29 620.95 850.36 341.98 1024.06 374.56 1015.17 444.06 880.19 585.93 1021.38 610.36
00003934 00000011 619.02 156.11 435.45 633.68 849.50 343.53 1014.46 375.51 1011.28 452.85 872.47 595.66 1005.44 620.98
00003935 00000012 618.51 154.45 433.28 631.58 850.51 349.74 1015.61 381.93 1010.62 456.82 869.29 594.76 1005.67 620.40
00003936 00000013 615.14 155.24 437.54 631.77 849.73 354.22 1016.48 384.82 1011.96 461.04 869.36 595.59 1008.54 619.79
00003937 00000014 615.15 162.01 433.77 628.04 851.56 364.00 1019.31 398.61 1013.92 471.86 875.88 607.03 1009.00 633.80
00003938 00000015 615.74 162.98 429.22 630.67 849.93 365.85 1015.85 400.03 1010.78 475.32 877.82 612.93 1006.69 639.28
00003939 00000016 612.25 162.97 428.48 627.13 846.90 366.80 1012.88 400.29 1008.60 477.12 873.76 612.69 1002.12 638.77
00003940 00000017 610.68 162.38 430.54 626.70 846.30 369.29 1017.75 401.83 1014.06 480.32 871.82 613.48 1007.81 638.97
00003941 00000018 609.64 162.72 429.53 626.06 844.86 372.75 1015.46 404.69 1010.12 483.24 870.96 615.52 1004.64 640.68
00003942 00000019 607.23 161.10 431.07 634.50 842.18 369.52 1004.41 403.51 1002.14 475.82 872.28 614.26 998.31 641.03
00003943 00000020 601.69 153.59 431.40 635.52 834.19 367.74 1000.43 409.09 994.10 468.41 860.48 607.37 989.89 640.06
00003944 DELETE   586.24 162.83 437.14 614.40 806.59 364.94 992.69 409.21 971.15 458.12 834.01 599.50 980.36 634.15
00003945 00000022 576.92 167.78 439.49 607.59 787.41 362.16 978.81 412.98 947.50 450.97 813.98 591.49 963.11 630.94
00003946 00000023 576.10 170.57 443.59 621.98 773.58 364.21 973.76 414.93 921.71 467.17 784.47 604.27 939.26 644.54
00003947 00000024 575.33 174.81 445.41 641.61 768.59 379.37 963.52 428.62 904.62 490.07 774.86 622.60 921.56 661.70
00003948 00000025 580.17 186.57 440.42 644.03 774.90 391.39 966.52 434.71 906.20 525.06 778.53 640.96 919.01 675.31
00003949 00000026 583.44 197.20 436.20 644.93 778.07 399.67 965.42 439.07 909.28 537.73 783.54 654.17 917.17 685.03
00003950 00000027 587.27 201.02 433.08 647.21 782.06 401.08 966.85 437.95 918.95 531.42 793.64 657.96 929.20 686.62
00003951 00000028 592.31 206.91 430.86 637.62 786.25 402.18 971.44 437.11 926.70 525.15 801.38 654.72 939.88 681.91
00003952 00000029 593.47 213.24 426.50 624.78 792.24 406.40 973.85 439.91 932.86 532.04 805.81 652.88 943.33 678.54
00003953 00000030 594.14 220.14 422.19 616.07 791.82 410.36 969.94 444.02 932.74 533.93 804.39 651.06 942.90 676.64
00003954 00000031 598.56 223.76 420.26 603.63 794.26 407.95 972.79 441.57 936.19 524.19 808.63 646.57 946.83 672.24
00003955 00000032 602.91 224.28 417.10 593.68 800.48 406.76 975.41 442.66 938.59 521.82 812.02 641.79 945.89 669.62
00003956 00000033 604.20 225.54 412.95 591.10 805.70 410.06 975.88 445.75 941.52 526.99 815.44 642.51 944.97 670.24
00003957 00000034 606.07 232.85 408.41 588.27 809.35 413.52 974.55 449.77 943.20 530.81 820.36 646.41 944.43 674.26
00003958 00000035 610.90 230.94 403.36 594.14 814.64 412.99 973.31 450.06 945.20 527.32 829.57 649.34 944.82 677.83
00003959 00000036 613.75 229.09 403.41 592.89 812.23 404.91 977.50 445.88 948.33 515.50 829.53 641.06 950.87 672.66
00003960 00000037 615.65 228.00 402.25 588.88 814.25 398.95 978.59 445.78 951.42 508.84 828.05 633.90 951.30 670.65
00003961 00000038 615.01 225.66 402.21 583.39 817.27 402.80 978.45 445.00 948.95 512.47 835.54 633.98 953.11 666.42
00003962 00000039 613.50 226.02 403.33 574.98 819.09 400.75 979.66 446.04 952.64 510.73 829.05 623.21 951.90 658.67
00003963 00000040 608.82 227.73 405.70 567.85 812.11 404.93 978.16 445.52 945.07 513.62 823.87 620.97 950.84 652.35
00003964 00000041 605.71 231.31 409.72 569.27 803.02 401.68 969.92 438.49 937.34 519.39 813.04 629.58 940.08 657.89
00003965 00000042 598.69 229.18 408.49 576.78 795.29 399.94 961.64 436.82 926.65 520.03 806.17 630.58 930.89 658.95
00003966 00000043 594.39 227.68 411.62 583.96 792.35 400.47 958.32 440.50 921.70 521.95 799.18 632.63 923.88 663.86
00003967 00000044 593.08 224.05 415.37 588.25 793.56 399.97 961.36 439.69 924.06 523.23 799.31 633.39 925.84 664.35
00003968 00000045 591.71 224.79 416.57 586.97 794.70 400.42 961.39 439.12 926.12 521.38 804.16 633.09 928.24 662.96
00003969 00000046 593.20 225.71 415.49 587.92 798.84 403.99 962.02 446.82 928.00 521.96 803.43 633.00 927.48 666.29
00003970 00000047 592.31 226.30 415.73 591.15 798.77 406.34 962.18 450.06 930.01 520.95 803.02 633.03 929.47 667.26
00003971 00000048 592.42 223.40 414.63 594.48 796.89 404.59 961.41 448.24 927.42 520.43 801.56 633.63 928.42 667.67
00003972 00000049 591.70 224.12 413.87 591.38 792.64 405.20 960.02 445.49 925.50 521.31 800.49 635.26 927.97 666.49
00003973 00000050 590.95 222.32 415.64 592.67 794.18 403.63 959.67 442.09 927.20 522.33 802.04 636.27 927.52 666.05
00003974 00000051 589.54 223.44 411.98 589.42 793.05 402.28 957.34 442.11 926.21 524.09 799.23 634.54 924.63 665.45
00003975 00000052 585.43 224.50 412.23 581.01 789.91 404.71 952.66 441.69 921.05 523.76 796.71 629.71 923.70 658.24
00003976 00000053 583.81 226.68 413.20 575.45 791.30 404.62 951.02 439.67 920.68 523.94 798.08 627.35 923.97 654.34
00003977 00000054 585.03 225.01 413.93 586.66 789.61 403.80 954.28 438.19 923.58 528.50 794.77 635.24 924.25 661.88
00003978 00000055 590.14 219.12 413.37 600.67 795.15 410.84 960.97 441.69 930.05 535.41 801.34 644.53 931.45 668.26
00003979 00000056 593.90 218.52 414.34 604.67 804.56 418.16 967.31 447.45 937.21 538.73 813.76 649.64 938.90 671.75
00003980 00000057 597.53 215.35 412.67 613.42 814.36 422.74 973.45 448.71 951.60 537.70 832.42 654.71 953.78 673.78
00003981 00000058 604.28 216.25 409.96 614.67 825.07 423.96 981.54 454.50 965.38 536.90 841.35 656.53 962.79 679.70
00003982 00000059 610.51 214.55 409.61 621.46 835.99 420.33 987.69 451.05 976.95 534.98 855.78 662.42 973.56 686.40
00003983 00000060 612.30 215.34 414.12 628.55 838.71 422.68 988.95 448.68 982.20 540.71 853.43 665.32 975.60 685.61
00003984 00000061 612.14 218.15 413.53 622.67 836.76 426.59 987.76 448.09 982.10 549.45 849.29 668.10 971.19 684.75
00003985 00000062 612.27 219.78 414.02 618.41 838.00 432.66 993.01 447.82 986.24 552.34 848.69 665.66 976.97 677.36
00003986 00000063 613.22 216.31 413.12 621.55 835.77 435.46 994.54 452.06 980.77 553.35 846.89 665.23 976.57 677.80
00003987 00000064 612.88 215.32 412.38 623.71 831.56 433.61 992.08 454.56 972.43 553.60 840.79 667.38 969.15 683.40
00003988 00000065 611.91 214.62 412.68 622.27 827.33 437.19 989.07 460.06 963.11 554.57 838.73 668.13 962.98 685.79
00003989 DELETE   605.65 215.16 415.41 623.61 811.08 437.86 981.42 457.02 949.59 552.36 831.91 671.72 958.97 685.76
00003990 00000067 601.16 211.96 419.20 631.53 800.40 434.93 977.93 453.10 940.59 559.01 816.60 670.37 955.30 682.96
00003991 00000068 597.57 210.60 422.73 630.06 791.40 433.21 974.56 454.37 932.01 562.72 804.93 668.91 948.41 684.15
00003992 00000069 597.50 206.42 419.69 632.96 785.10 431.38 964.93 454.67 919.59 563.14 795.60 671.21 930.62 689.31
00003993 00000070 592.71 223.83 426.82 616.29 771.96 430.10 966.95 449.16 907.91 565.87 789.00 671.16 926.87 686.27
00003994 00000071 590.75 208.63 425.53 632.21 769.07 428.08 959.29 451.27 903.12 560.40 779.99 666.47 927.30 684.19
00003995 00000072 587.72 210.47 425.19 625.77 762.72 428.94 952.79 448.13 897.91 559.11 776.96 664.32 925.43 678.95
00003996 00000073 587.84 211.42 420.75 622.17 758.69 428.50 942.30 446.31 885.84 560.14 773.54 664.55 913.35 678.52
00003997 00000074 587.08 216.94 412.26 615.91 747.30 437.15 933.35 444.70 878.83 559.48 767.11 671.00 914.66 676.80
00003998 00000075 579.73 215.19 416.62 623.86 736.15 438.94 928.28 446.28 868.41 562.39 757.95 675.97 910.15 681.07
00003999 00000076 574.02 214.06 417.00 627.28 731.00 440.15 919.81 445.56 861.55 563.10 754.41 677.62 904.87 680.41
00004000 00000077 568.30 215.51 423.81 632.54 727.35 443.30 914.35 447.68 853.98 564.73 745.24 674.18 904.26 675.57
00004001 00000078 563.04 215.63 428.46 630.74 718.81 444.99 907.98 448.54 844.24 566.70 736.23 669.68 901.94 670.32
00004002 00000079 556.52 213.98 432.44 634.27 711.09 447.86 902.03 449.86 837.01 569.52 728.08 669.94 897.52 669.37
00004003 00000080 551.07 212.64 433.49 641.24 708.71 448.13 897.98 450.82 834.14 570.15 724.01 673.28 890.45 673.38
00004004 00000081 547.99 211.38 434.57 641.75 704.17 449.49 895.99 451.67 830.86 571.02 722.37 675.28 888.82 674.80
00004005 00000082 545.91 211.76 434.40 642.47 701.07 450.43 894.38 451.72 829.62 570.33 719.51 675.90 887.84 674.76
00004006 00000083 544.85 209.75 433.46 647.14 699.36 450.66 891.77 451.15 826.54 570.31 717.89 677.89 885.47 675.87
00004007 00000084 546.76 211.11 429.31 638.87 707.77 450.52 892.41 449.70 834.93 567.10 730.67 679.00 884.28 675.88
00004008 DELETE   553.34 212.40 426.82 632.69 720.37 447.64 910.43 443.84 858.32 565.15 748.31 681.17 903.82 675.63
00004009 DELETE   561.69 215.09 423.99 617.49 741.55 446.02 931.02 438.69 893.79 552.93 775.41 677.81 927.04 670.22
00004010 DELETE   566.34 217.16 427.59 611.26 756.74 434.06 937.10 426.04 909.62 540.42 795.57 673.50 938.44 665.42
00004011 00000088 571.53 214.60 428.12 619.15 768.38 427.32 945.32 425.78 923.39 535.24 804.62 669.83 948.58 666.60
00004012 00000089 573.13 212.70 429.48 618.85 771.51 422.03 943.19 427.72 921.24 532.56 808.06 657.26 946.53 659.99
00004013 00000090 574.43 213.43 429.20 601.46 777.77 423.12 947.78 425.76 925.65 532.76 812.79 648.49 948.18 648.75
00004014 00000091 576.84 214.15 428.07 593.07 780.27 420.42 951.02 421.32 929.65 527.87 817.00 644.42 951.90 643.30
00004015 00000092 577.97 217.00 426.93 598.28 776.50 416.74 947.86 422.16 927.70 524.31 810.77 645.67 948.45 648.35
00004016 00000093 583.02 217.80 424.21 600.29 776.99 417.06 948.26 421.74 928.26 521.75 810.78 646.24 949.63 648.19
00004017 00000094 587.89 214.50 418.17 600.49 784.78 416.67 949.98 421.21 932.00 519.34 823.72 647.42 950.84 649.21
00004018 00000095 593.16 213.54 414.85 598.39 788.47 416.15 956.40 420.80 936.59 519.50 829.27 647.99 955.13 649.67
00004019 00000096 597.70 214.86 413.97 594.48 790.60 417.76 960.44 422.18 937.66 518.19 832.86 645.98 959.31 647.32
00004020 00000097 601.20 216.65 411.32 591.67 792.40 419.68 963.28 424.39 937.82 521.19 832.40 646.30 959.20 647.79
00004021 00000098 603.88 218.67 409.98 589.96 793.77 420.45 965.86 426.07 938.47 521.62 833.33 647.59 960.40 649.86
00004022 00000099 605.95 221.76 406.72 589.65 794.24 419.67 965.71 426.30 938.02 524.27 832.30 650.37 958.28 653.53
00004023 00000100 606.71 223.84 406.58 590.58 795.86 421.07 966.53 425.85 939.45 528.70 831.27 653.93 958.14 655.74
00004024 00000101 605.58 227.62 406.58 584.93 794.51 423.10 964.76 427.57 937.30 531.29 826.82 652.28 956.18 654.09
00004025 00000102 602.60 228.76 406.90 580.99 792.22 425.38 959.68 429.20 934.35 531.86 822.10 649.02 952.36 650.56
00004026 00000103 598.61 231.57 410.51 574.94 790.89 426.00 957.18 428.36 932.69 532.57 818.43 645.14 950.89 645.80
00004027 00000104 596.31 233.81 411.99 567.28 787.38 426.90 955.46 429.27 929.69 532.76 812.41 638.66 950.20 640.11
00004028 00000105 595.20 233.01 412.67 568.36 788.05 433.01 955.93 434.40 929.77 536.33 810.33 639.42 950.87 640.42
00004029 00000106 596.85 234.78 411.61 570.98 789.16 440.49 958.09 440.51 932.17 543.56 809.47 644.39 952.96 644.48
00004030 00000107 598.01 238.24 409.89 573.83 790.47 447.24 955.64 445.66 931.21 552.33 809.68 648.72 953.78 647.42
00004031 00000108 598.72 236.59 411.12 586.94 794.22 448.67 955.93 444.68 937.39 555.32 812.43 658.60 953.12 654.89
00004032 00000109 601.74 238.21 408.62 587.26 796.97 452.51 959.68 446.37 944.16 554.53 817.53 662.34 958.39 656.77
00004033 00000110 604.80 238.02 407.10 585.25 805.51 456.99 963.64 452.40 947.33 553.67 831.37 664.41 962.61 659.94
00004034 00000111 606.48 238.00 403.70 584.36 807.52 459.02 965.92 455.14 948.12 553.03 840.96 668.89 967.40 664.63
00004035 00000112 605.15 238.92 400.04 585.47 805.06 459.78 961.89 456.66 945.27 555.06 839.33 672.12 962.01 668.59
00004036 00000113 603.96 241.01 397.87 583.86 802.86 460.43 957.05 458.50 939.47 557.71 835.28 673.11 955.21 670.62
00004037 00000114 603.98 240.49 395.69 584.73 798.70 456.63 954.18 457.73 935.90 555.58 832.62 673.15 950.60 673.24
00004038 00000115 605.13 242.03 391.96 585.88 796.46 453.67 951.38 458.96 933.90 556.37 826.17 673.35 943.24 677.13
00004039 00000116 603.23 255.29 399.57 574.32 801.82 449.97 957.35 460.24 940.47 563.58 832.92 676.80 945.95 684.68
00004040 00000117 603.48 250.36 393.56 574.62 799.47 459.94 957.25 463.48 936.41 564.10 824.70 671.45 947.74 674.06
00004041 00000118 603.39 251.94 393.29 573.84 800.23 462.31 957.34 464.55 937.24 565.31 826.61 672.92 949.61 674.50
00004042 00000119 604.55 249.43 394.34 577.72 801.20 461.23 959.83 464.35 940.16 562.21 829.67 673.55 953.15 675.58
00004043 00000120 606.27 254.57 399.07 576.10 804.68 453.42 966.15 463.32 948.73 565.67 837.72 680.64 955.19 687.91
00004044 00000121 606.71 254.62 399.33 577.42 805.66 453.08 965.91 463.09 948.60 566.43 837.42 681.66 953.99 689.05
00004045 00000122 606.64 255.02 399.58 577.05 805.41 453.41 966.14 463.54 948.29 566.93 836.61 681.53 953.92 689.04
00004046 00000123 606.12 254.70 399.40 577.84 805.44 453.40 966.32 464.14 948.43 567.55 836.54 682.04 952.89 690.10
CROP_BBOX: 211 0 1301 1043
