Video ID: 	IPMfW_cGj2I
H: 	1080
W: 	1920
FPS: 	25.0

FRAME INDEX X0 Y0 W H [Landmarks (5 Points)]

00054676 00000000 332.37 129.40 356.63 533.11 549.50 361.62 625.50 335.37 682.62 451.08 575.51 555.31 624.50 536.41
00054677 00000001 322.47 136.17 356.98 549.30 553.71 366.72 618.13 339.86 680.01 456.44 560.01 560.05 605.90 541.82
00054678 00000002 314.69 125.46 361.11 568.74 546.77 358.76 612.40 337.01 672.20 454.47 558.14 563.50 604.38 548.77
00054679 00000003 319.46 121.22 360.37 556.59 547.17 351.91 614.33 329.34 680.42 445.27 560.49 553.70 604.74 538.34
00054680 DELETE   317.16 117.35 363.28 560.17 546.21 345.34 613.36 327.16 679.52 443.18 559.44 551.51 603.27 539.61
00054681 00000005 321.53 128.11 367.32 591.27 552.10 338.88 607.38 340.47 665.95 452.92 545.32 564.26 578.53 569.67
00054682 00000006 324.19 135.51 366.74 579.71 555.50 341.85 608.86 345.68 668.52 455.40 537.79 557.77 576.09 565.84
00054683 DELETE   318.88 137.21 373.30 567.76 560.00 346.87 615.50 344.59 677.67 451.86 548.56 554.63 592.07 557.49
00054684 00000008 321.60 129.44 377.61 578.27 564.28 348.14 624.23 341.19 684.96 453.19 569.32 562.17 609.77 560.39
00054685 DELETE   331.74 123.60 379.33 600.13 567.52 347.51 626.85 336.19 689.10 456.97 576.69 572.07 615.30 567.63
00054686 00000010 339.27 123.09 381.89 598.81 570.87 350.15 641.31 334.33 702.37 462.10 585.35 576.30 627.47 569.09
00054687 DELETE   349.46 121.97 378.58 602.20 577.57 351.67 640.55 334.39 710.44 461.18 595.28 577.11 633.42 569.17
00054688 DELETE   366.92 127.68 368.57 588.03 584.17 352.13 654.12 333.11 720.65 458.11 604.82 570.60 647.32 560.55
00054689 00000013 370.86 124.79 369.17 590.12 596.21 352.43 658.47 336.80 727.27 458.03 611.13 568.96 648.15 562.18
00054690 DELETE   373.36 119.79 381.16 601.75 613.47 349.39 664.09 346.40 728.99 452.87 617.45 568.23 645.42 569.27
00054691 DELETE   374.83 119.85 382.75 597.72 622.09 342.73 669.33 344.01 734.64 447.80 622.96 560.87 651.81 565.58
00054692 DELETE   380.69 120.25 377.92 596.64 621.84 344.16 669.98 344.27 734.39 449.03 625.42 562.94 653.69 566.62
00054693 00000017 378.80 113.83 373.88 599.12 616.78 346.90 674.49 331.36 744.58 451.35 621.23 566.42 664.05 557.74
00054694 DELETE   379.75 105.34 373.84 614.65 617.68 344.84 672.52 330.28 746.56 446.88 621.42 566.38 663.26 558.72
00054695 00000019 376.79 107.81 375.69 610.62 614.44 345.27 669.88 327.68 745.87 447.54 621.23 565.29 664.89 555.45
00054696 00000020 377.61 120.31 381.49 595.09 618.38 338.63 668.40 336.99 736.87 441.72 623.55 556.87 658.01 559.74
00054697 00000021 374.57 114.92 385.13 608.16 618.79 336.59 664.88 341.46 736.57 444.12 615.79 557.37 648.17 566.40
00054698 00000022 380.97 103.04 370.29 613.83 607.96 337.67 659.65 326.93 744.03 440.93 608.29 557.93 650.11 554.69
00054699 DELETE   377.77 99.34 373.21 613.03 608.02 330.02 656.53 323.64 743.42 435.70 602.19 547.89 645.20 548.71
00054700 00000024 373.49 99.83 376.44 632.43 603.83 327.15 652.39 323.29 738.83 438.37 591.44 557.10 632.65 560.57
00054701 00000025 375.12 99.06 369.89 648.49 601.60 326.28 649.78 317.97 726.50 440.01 591.16 559.41 628.96 559.21
00054702 DELETE   363.20 97.73 383.08 636.05 592.69 332.29 649.89 315.71 731.85 440.51 603.73 561.76 643.85 554.59
00054703 00000027 359.77 109.86 382.18 605.86 595.27 345.71 649.57 329.05 741.18 448.94 615.08 573.01 654.00 564.31
00054704 00000028 352.81 121.47 381.35 603.87 587.95 364.57 647.18 340.82 721.96 472.22 597.55 583.19 634.58 570.58
00054705 00000029 347.36 130.94 384.56 620.38 583.63 374.13 637.08 351.67 723.69 478.07 592.21 594.74 630.61 583.90
00054706 00000030 344.51 128.06 388.37 614.00 584.95 375.38 642.17 349.72 723.94 478.40 595.01 590.85 635.64 576.56
00054707 DELETE   347.64 126.40 385.71 607.69 583.47 371.17 648.54 344.72 724.12 475.58 590.70 587.08 639.03 572.02
00054708 00000032 347.97 126.99 386.87 614.81 584.56 360.95 650.45 342.82 716.45 474.72 573.57 581.42 622.27 573.09
00054709 00000033 348.41 124.44 387.82 609.49 585.93 362.86 655.18 342.58 721.12 475.52 581.40 581.20 632.31 571.22
00054710 00000034 345.00 123.18 392.93 618.92 587.28 373.16 654.65 345.95 728.53 477.40 584.19 583.66 639.21 568.18
00054711 00000035 343.17 127.13 396.50 627.76 587.55 377.05 652.02 351.12 729.45 479.08 582.65 587.83 636.49 573.15
00054712 00000036 346.00 136.56 393.45 619.76 585.28 378.53 655.40 351.28 731.40 481.42 581.17 589.98 641.42 573.97
00054713 00000037 351.00 136.74 393.43 615.72 588.40 379.29 664.29 351.43 736.91 484.48 586.98 591.89 648.26 575.44
00054714 DELETE   358.38 140.88 397.56 606.60 607.26 366.13 666.39 359.68 740.07 476.05 598.75 586.94 643.48 586.74
00054715 00000039 373.71 137.20 393.96 609.09 617.28 361.89 677.66 354.50 750.36 474.24 602.01 580.43 651.61 580.17
00054716 00000040 382.29 138.74 390.71 606.81 622.44 362.67 680.52 352.95 759.24 475.17 605.51 580.57 654.05 578.77
00054717 00000041 382.51 149.27 392.87 601.44 627.44 370.39 682.42 359.85 764.62 482.40 605.27 584.01 652.53 581.53
00054718 00000042 386.54 154.26 396.21 607.30 631.82 372.21 688.79 363.29 773.24 487.20 607.64 588.14 659.90 587.24
00054719 00000043 395.00 154.15 388.14 608.83 633.59 373.47 690.68 363.54 774.88 489.35 608.48 592.12 659.53 590.59
00054720 00000044 400.59 160.55 386.51 608.80 637.45 374.08 698.94 366.27 779.27 488.66 609.92 591.47 668.06 591.94
00054721 00000045 406.88 164.12 381.65 604.95 640.93 379.06 702.53 370.12 779.87 487.69 620.73 593.26 677.87 592.35
00054722 00000046 400.55 166.53 391.05 602.73 644.37 382.48 701.34 368.50 785.22 486.13 634.31 600.45 682.84 595.79
00054723 00000047 404.52 165.98 387.77 617.50 642.55 381.28 701.49 369.72 785.39 486.32 644.10 608.02 693.05 604.84
00054724 00000048 402.23 165.21 390.68 609.63 640.78 383.04 698.27 370.45 785.49 487.54 660.13 611.58 702.56 607.52
00054725 00000049 400.06 164.38 393.13 604.23 638.89 386.35 696.69 372.84 787.18 490.29 666.20 614.61 706.87 609.98
00054726 00000050 404.30 165.66 385.62 603.88 637.47 391.66 692.13 375.69 782.38 494.16 665.14 617.64 703.45 610.88
00054727 00000051 405.76 178.14 382.06 608.22 638.84 396.44 694.43 378.52 776.55 504.53 660.11 630.04 691.45 621.80
00054728 00000052 399.77 184.04 384.18 604.43 638.57 399.40 691.82 383.02 770.73 503.66 652.03 626.65 686.96 618.88
00054729 00000053 395.95 182.79 385.37 609.97 636.90 398.94 688.44 385.52 771.13 502.91 646.18 626.49 681.47 621.13
00054730 00000054 394.00 182.93 386.78 613.01 633.85 396.04 686.51 387.51 766.66 503.11 641.91 625.96 679.41 624.53
00054731 00000055 384.23 163.71 388.01 620.34 623.95 402.52 684.49 387.26 766.89 501.22 637.53 626.17 679.88 618.09
00054732 00000056 376.55 156.63 395.12 624.81 619.25 399.77 675.82 383.82 763.81 501.31 630.73 626.85 671.63 618.62
00054733 00000057 375.95 161.40 392.96 622.84 614.54 400.24 669.01 383.17 761.04 499.97 628.37 626.18 670.90 617.20
00054734 00000058 369.37 164.91 395.61 630.20 610.07 402.94 662.99 387.13 759.08 502.61 619.68 627.43 664.56 620.01
00054735 00000059 360.13 168.62 400.74 642.18 605.25 404.86 655.48 389.89 756.68 505.36 614.47 636.62 657.20 630.43
00054736 00000060 353.06 166.22 402.10 638.90 597.48 403.65 648.15 390.34 748.91 501.00 606.28 630.22 650.79 625.71
00054737 00000061 338.00 170.23 409.43 638.42 591.42 402.67 641.64 390.49 741.75 505.23 597.57 635.69 639.53 632.42
00054738 00000062 333.32 179.08 402.23 621.89 581.02 404.90 629.98 382.17 727.27 508.00 602.56 631.25 638.28 620.16
00054739 00000063 325.42 166.46 406.29 627.27 579.98 400.78 629.80 389.88 728.30 499.46 595.68 628.63 636.63 625.26
00054740 00000064 318.12 171.11 402.21 610.40 570.53 401.54 623.99 385.04 721.31 499.54 589.15 629.75 629.92 620.97
00054741 00000065 319.10 175.39 391.97 614.52 553.81 402.53 607.14 381.74 706.43 494.64 576.27 628.41 619.15 617.92
00054742 00000066 310.91 161.64 397.84 622.07 550.46 395.84 602.56 375.79 701.23 488.88 564.41 620.56 609.02 610.51
00054743 00000067 302.44 158.01 407.00 622.39 547.51 391.34 599.29 371.34 699.41 484.71 558.14 614.52 603.59 604.53
00054744 00000068 296.79 158.64 409.85 608.28 544.54 388.92 590.52 363.92 693.00 478.78 558.39 609.06 599.85 594.92
00054745 00000069 294.73 146.52 409.63 614.38 543.28 382.70 591.57 359.98 689.01 477.95 555.76 607.13 596.52 594.40
00054746 00000070 295.40 149.53 398.09 608.03 535.24 382.53 584.31 367.43 675.71 477.45 541.92 602.04 581.09 595.46
00054747 00000071 295.12 144.23 394.01 611.83 529.96 379.15 579.91 367.30 668.31 476.46 536.94 603.03 571.62 598.45
00054748 00000072 293.89 150.99 392.98 613.95 528.34 374.27 577.93 364.62 666.72 477.37 532.01 606.03 564.83 603.15
00054749 00000073 290.66 150.32 395.21 618.44 525.44 372.83 575.39 364.18 663.98 476.82 530.81 609.24 562.73 607.32
00054750 00000074 289.89 148.27 398.33 618.79 526.83 375.18 575.77 362.97 665.93 473.91 536.85 608.07 569.64 603.27
00054751 00000075 295.92 145.30 397.78 626.59 527.74 375.25 581.17 362.27 671.31 474.87 542.84 610.62 577.94 605.31
00054752 00000076 292.50 144.23 406.53 632.33 532.11 376.47 583.30 361.59 677.16 472.63 556.43 615.32 591.29 607.90
00054753 00000077 294.80 140.19 405.06 627.99 539.80 376.88 589.82 360.11 683.46 472.99 566.78 614.43 599.61 604.93
00054754 00000078 291.59 144.60 412.60 613.67 543.36 378.77 593.40 357.26 687.33 471.68 576.64 610.87 609.57 597.34
00054755 00000079 292.99 148.21 418.95 625.12 546.89 383.16 588.68 360.56 694.77 478.30 587.25 619.67 619.23 607.19
00054756 00000080 296.65 158.73 416.55 606.58 547.34 387.98 605.07 363.04 701.08 481.67 584.37 616.85 628.55 601.67
00054757 00000081 303.77 155.21 413.20 618.06 551.05 388.60 613.65 359.92 709.04 482.82 581.39 617.00 630.32 599.64
00054758 00000082 304.02 154.83 414.13 609.90 553.69 387.45 617.33 358.19 713.92 482.17 580.44 614.04 629.62 596.82
00054759 00000083 305.13 158.45 415.11 604.40 557.78 386.88 626.45 358.55 718.62 485.36 581.20 614.94 635.10 598.30
00054760 00000084 308.36 166.80 412.01 600.06 560.98 395.21 628.67 366.68 721.17 491.31 583.78 616.27 634.84 599.79
00054761 00000085 307.00 167.88 409.95 603.26 563.12 400.30 629.13 374.70 718.14 500.38 579.75 623.24 621.94 608.50
00054762 DELETE   299.93 177.19 422.79 610.89 562.81 401.28 647.10 381.52 717.62 514.08 592.10 637.68 643.62 625.58
00054763 00000087 292.21 182.83 430.48 618.30 566.61 412.41 657.22 399.11 715.36 532.65 584.66 651.23 640.41 643.75
00054764 00000088 298.40 197.60 413.27 593.54 563.03 430.92 658.11 409.14 711.58 553.57 571.65 661.80 625.48 647.40
00054765 00000089 285.72 199.03 415.41 606.73 557.01 442.30 633.68 427.00 700.26 560.87 554.99 671.25 596.69 662.19
00054766 00000090 276.26 214.22 406.48 581.60 523.69 449.38 627.39 423.24 677.91 577.37 529.19 676.41 591.39 660.13
00054767 00000091 252.89 202.70 414.97 602.17 508.01 447.00 602.54 419.93 661.56 571.27 514.29 681.03 570.79 663.81
00054768 00000092 226.26 186.41 429.84 611.49 504.95 438.72 599.61 418.26 655.51 565.27 508.37 669.31 570.12 659.53
00054769 00000093 199.00 185.12 436.32 633.06 480.30 445.36 570.05 424.16 632.99 562.64 485.88 678.41 543.81 665.06
00054770 DELETE   184.31 175.92 432.17 634.73 454.59 453.17 553.20 426.03 611.57 563.66 469.24 674.69 533.95 658.52
00054771 DELETE   151.01 192.56 447.70 630.43 425.41 453.98 533.77 421.61 593.90 569.18 442.27 686.34 517.37 663.37
00054772 00000096 125.08 191.71 460.16 630.33 414.53 455.02 519.26 422.28 577.16 569.35 431.80 689.23 497.60 665.87
00054773 DELETE   112.92 192.20 462.71 632.15 397.96 448.98 512.55 420.43 559.27 567.97 419.75 690.23 493.91 669.50
00054774 00000098 104.23 177.04 465.53 636.94 381.26 448.70 503.54 407.16 552.25 566.88 411.92 685.62 491.35 657.70
00054775 00000099 94.55 165.96 475.90 640.40 377.72 442.29 508.50 405.75 550.73 567.39 405.23 681.89 490.37 657.76
00054776 00000100 95.98 164.97 485.60 652.50 380.90 437.96 517.72 404.99 554.65 573.03 401.96 689.77 490.39 668.59
00054777 00000101 105.02 179.63 491.45 648.62 395.41 446.96 536.56 415.31 569.37 589.26 410.09 700.31 500.91 680.86
00054778 00000102 122.93 162.39 490.87 675.27 402.46 451.37 565.30 431.83 577.95 598.95 404.18 711.86 513.14 700.40
00054779 00000103 141.18 182.55 492.99 666.50 426.53 469.48 593.30 452.25 603.74 620.47 429.24 728.54 539.09 718.46
00054780 DELETE   163.61 184.19 507.24 693.81 458.35 477.07 618.91 456.18 633.23 634.72 456.17 742.59 557.83 730.83
00054781 00000105 193.78 202.12 504.67 676.21 485.08 476.92 640.57 462.23 655.32 636.27 478.97 741.76 584.49 733.71
00054782 00000106 226.10 193.24 511.08 679.53 520.95 483.54 684.23 468.87 692.65 651.42 510.13 753.84 612.97 745.97
00054783 00000107 252.52 180.68 511.44 704.37 556.70 465.04 704.20 459.65 715.59 638.69 527.76 739.42 622.72 739.84
00054784 00000108 276.48 185.14 513.65 702.85 588.06 466.88 724.03 458.70 747.37 644.62 547.28 739.47 639.04 738.01
00054785 DELETE   292.30 178.23 529.34 732.27 623.03 468.73 750.47 468.00 778.74 648.17 570.14 743.35 656.53 748.28
00054786 00000110 316.24 183.94 524.12 730.30 632.81 466.34 763.36 476.68 770.29 645.54 573.54 740.43 656.75 754.28
00054787 00000111 333.86 213.81 516.93 680.09 652.39 465.19 775.30 488.78 782.44 644.19 588.89 732.90 669.07 755.08
00054788 00000112 345.93 219.65 511.33 660.62 659.08 463.59 779.20 481.86 785.41 644.59 591.89 724.50 671.55 743.32
00054789 00000113 341.03 196.23 517.65 687.73 670.78 455.16 772.02 473.24 786.13 639.02 584.32 710.13 658.43 729.53
00054790 00000114 347.57 170.46 519.29 681.50 656.47 451.53 789.89 459.28 783.63 634.55 580.72 704.27 665.29 716.73
00054791 00000115 359.71 176.53 510.54 660.38 658.49 447.68 797.85 451.48 786.41 631.43 584.04 695.69 671.81 705.72
00054792 00000116 359.41 183.52 513.20 641.90 660.58 444.04 796.47 444.69 782.24 624.47 579.82 684.85 664.51 692.97
00054793 00000117 367.00 179.08 502.64 632.92 662.29 441.42 801.39 441.61 783.45 616.52 585.05 679.48 672.24 686.70
00054794 00000118 379.30 174.32 498.56 624.15 667.55 438.48 811.89 438.83 788.69 610.15 597.17 670.95 685.94 677.84
00054795 00000119 378.25 169.64 501.90 641.29 667.63 433.07 811.26 437.06 794.65 607.04 600.06 669.77 695.47 679.71
00054796 00000120 398.07 170.71 490.88 629.06 677.76 435.50 817.23 437.99 798.35 605.16 608.96 665.68 696.85 674.46
00054797 00000121 390.21 168.72 502.22 637.68 684.31 432.30 812.19 435.26 802.33 606.43 605.47 663.55 686.48 673.40
00054798 00000122 397.39 175.24 493.35 625.11 683.75 437.44 812.50 440.04 797.88 607.93 608.11 665.24 686.15 674.74
00054799 00000123 401.56 177.08 486.93 621.52 684.71 444.33 814.13 443.63 798.03 611.16 612.46 669.09 690.16 675.70
00054800 00000124 397.64 182.31 491.22 622.68 683.09 448.90 811.94 450.15 796.14 617.41 611.73 675.79 689.05 683.74
00054801 00000125 392.44 191.93 502.03 615.65 681.15 453.15 810.85 448.92 785.39 624.35 596.38 679.90 669.54 684.19
00054802 00000126 393.42 187.28 496.65 624.70 679.56 453.73 808.49 453.45 783.33 622.27 595.04 678.06 669.13 685.57
00054803 00000127 413.04 175.40 478.47 651.06 682.40 447.91 812.68 456.11 794.50 617.64 609.41 678.76 691.83 692.53
00054804 00000128 419.95 171.29 481.65 661.48 696.85 438.70 815.88 458.80 798.49 614.19 616.01 674.88 689.63 698.11
00054805 00000129 422.56 170.39 483.05 653.37 697.46 439.43 825.60 465.18 799.74 611.69 616.60 675.61 696.99 703.27
00054806 00000130 432.23 175.77 477.72 652.35 703.29 440.28 825.71 468.04 805.26 612.39 621.43 675.18 698.58 704.63
00054807 00000131 429.02 183.38 488.32 654.54 703.46 440.43 837.17 464.13 813.75 617.52 619.96 678.88 709.32 705.66
00054808 00000132 428.97 185.01 490.22 651.13 705.21 439.45 838.00 462.56 811.96 615.42 621.10 675.30 709.08 701.49
00054809 00000133 427.95 180.87 488.35 652.64 703.02 438.58 830.93 461.89 806.46 611.19 619.40 673.58 702.22 699.67
00054810 00000134 431.34 174.91 474.03 647.22 697.94 435.50 823.74 460.89 795.09 608.92 608.30 668.68 688.31 696.70
00054811 00000135 424.15 164.04 475.17 647.59 696.75 428.94 817.56 449.19 797.26 606.33 604.46 663.49 682.76 687.98
00054812 00000136 421.94 158.27 478.94 649.34 699.85 425.64 814.18 440.42 798.51 600.27 605.63 658.08 677.15 678.43
00054813 00000137 416.63 154.70 481.99 655.49 703.86 424.72 805.85 437.25 803.99 595.72 614.42 652.39 674.56 670.04
00054814 00000138 412.90 151.78 483.39 656.39 696.59 421.02 804.28 433.33 800.94 591.02 609.27 648.63 673.77 665.71
CROP_BBOX: 0 0 1084 1080
