Video ID: 	WRHhdRaOd2M
H: 	1440
W: 	2560
FPS: 	23.976023976023978

FRAME INDEX X0 Y0 W H [Landmarks (5 Points)]

00003661 00000000 966.16 312.27 559.54 765.31 1102.41 581.55 1360.97 578.56 1218.37 718.34 1123.97 873.51 1323.16 871.00
00003662 00000001 980.46 298.46 568.27 791.77 1106.44 580.18 1385.55 575.61 1229.56 716.71 1135.08 880.26 1364.22 873.11
00003663 00000002 997.68 304.00 559.87 777.39 1121.09 572.23 1391.59 577.21 1241.54 721.94 1148.04 862.13 1364.05 865.99
00003664 DELETE   1002.12 309.81 566.07 766.62 1131.60 567.14 1403.77 579.11 1249.00 722.36 1155.29 857.77 1370.93 867.39
00003665 00000004 1004.62 309.71 573.53 773.63 1138.71 570.27 1411.87 586.76 1255.83 721.24 1153.27 860.40 1369.51 874.60
00003666 00000005 1003.04 310.96 579.59 779.88 1147.46 575.50 1421.64 597.37 1261.49 724.21 1158.66 865.58 1375.40 883.69
00003667 00000006 1000.70 309.55 582.72 790.78 1145.85 576.15 1425.84 596.56 1265.07 730.68 1161.55 877.96 1378.77 894.31
00003668 00000007 997.82 299.27 587.14 818.83 1140.78 579.05 1420.74 595.44 1262.80 743.70 1155.47 890.97 1369.94 904.58
00003669 00000008 991.94 293.80 586.54 827.77 1130.79 585.86 1411.46 601.04 1253.70 754.51 1148.23 893.27 1364.09 906.01
00003670 00000009 975.24 284.88 606.63 841.03 1127.42 586.40 1404.31 604.06 1249.55 765.99 1150.43 892.70 1358.30 906.61
00003671 00000010 966.39 279.00 607.00 847.72 1113.91 593.91 1393.59 607.81 1238.51 771.69 1140.26 901.64 1350.82 912.37
00003672 00000011 961.46 279.92 607.25 855.79 1106.65 599.29 1389.00 608.54 1232.26 772.31 1140.09 912.42 1350.42 919.11
00003673 00000012 957.15 281.71 608.47 874.44 1100.51 596.78 1384.70 604.32 1224.64 773.79 1131.30 911.40 1351.13 916.45
00003674 00000013 956.27 281.53 604.25 877.37 1096.55 594.79 1384.69 604.42 1221.02 776.52 1127.50 913.63 1352.52 920.25
00003675 00000014 953.20 289.10 599.49 854.28 1095.72 603.94 1381.79 609.95 1217.95 773.93 1121.60 920.27 1358.44 921.64
00003676 00000015 951.54 290.48 600.39 856.62 1094.76 604.70 1380.59 610.02 1216.97 778.97 1122.05 921.26 1361.14 921.75
00003677 DELETE   954.47 285.43 602.34 873.46 1083.28 612.67 1377.42 608.60 1214.48 797.40 1121.35 933.15 1367.24 928.97
00003678 DELETE   951.35 311.71 603.77 843.84 1068.33 630.70 1357.95 614.46 1202.49 821.47 1125.43 946.18 1362.03 932.20
00003679 DELETE   940.26 311.70 608.32 856.73 1050.75 646.02 1333.62 617.84 1183.68 829.31 1116.52 957.24 1351.04 933.43
00003680 00000019 939.87 297.13 604.05 864.33 1045.62 648.77 1327.20 623.50 1173.44 834.07 1108.28 956.49 1344.55 934.65
00003681 00000020 943.18 302.22 600.89 854.08 1046.46 649.24 1328.72 624.22 1174.13 834.79 1109.70 957.07 1344.86 935.65
00003682 00000021 949.21 303.73 598.28 850.21 1051.23 648.10 1334.96 625.12 1180.53 837.35 1115.09 957.98 1350.97 938.16
00003683 00000022 953.46 301.37 598.44 865.23 1058.46 647.58 1339.83 626.18 1187.21 836.39 1119.21 958.15 1356.30 939.78
00003684 00000023 956.69 300.92 596.89 874.12 1060.46 644.08 1342.71 624.83 1189.17 835.68 1119.80 961.04 1355.88 944.66
00003685 00000024 956.78 300.81 598.77 868.22 1058.65 638.44 1343.76 618.57 1187.38 828.21 1119.67 957.19 1356.45 940.12
00003686 00000025 958.23 291.22 594.25 867.67 1059.73 631.47 1347.06 611.86 1191.26 819.46 1119.54 955.32 1353.02 938.62
00003687 00000026 954.30 302.03 592.79 838.20 1068.26 631.74 1343.58 619.36 1184.73 812.43 1122.96 947.38 1342.62 933.64
00003688 00000027 952.92 302.87 593.35 841.14 1065.85 628.87 1340.50 617.67 1180.83 810.31 1120.00 948.67 1338.52 935.97
00003689 00000028 949.77 301.12 594.19 851.93 1064.94 627.46 1338.09 617.29 1178.49 805.95 1116.28 949.17 1333.05 937.53
00003690 00000029 948.38 287.14 597.48 872.17 1056.28 623.90 1334.47 605.90 1177.95 798.85 1107.16 946.03 1320.28 931.50
00003691 00000030 940.88 302.49 597.66 852.65 1059.53 616.40 1330.54 610.04 1166.92 792.94 1105.59 940.79 1317.03 932.37
00003692 00000031 935.86 300.60 599.61 842.47 1056.87 616.85 1326.16 608.82 1163.18 785.98 1100.06 932.50 1309.55 922.88
00003693 00000032 930.77 303.78 600.01 841.13 1056.02 620.04 1326.36 612.67 1163.78 781.92 1094.24 928.56 1310.36 919.62
00003694 00000033 929.44 302.93 597.24 847.46 1054.24 623.39 1322.49 614.19 1160.35 782.70 1092.98 929.86 1313.91 919.36
00003695 00000034 925.00 296.78 601.26 855.04 1047.45 622.31 1320.93 611.71 1156.41 784.41 1086.90 930.93 1314.26 919.40
00003696 00000035 919.70 287.25 604.02 861.51 1039.92 621.91 1317.45 610.33 1154.41 788.87 1085.66 932.57 1315.75 920.66
00003697 00000036 918.04 285.95 604.57 856.45 1036.16 621.48 1316.75 610.66 1153.21 792.20 1083.01 932.89 1314.21 922.02
00003698 00000037 915.43 286.93 606.64 854.79 1033.21 623.64 1318.40 611.60 1154.45 795.66 1082.66 936.92 1314.78 925.14
00003699 00000038 914.56 299.76 609.72 845.20 1041.04 632.92 1322.19 621.28 1162.56 795.82 1086.52 933.58 1322.18 921.86
00003700 00000039 917.57 302.85 605.50 842.43 1045.53 645.50 1320.93 630.38 1166.90 796.08 1090.67 935.07 1325.66 921.40
00003701 00000040 917.43 301.60 610.31 855.60 1050.46 649.46 1330.98 634.21 1175.90 802.20 1093.05 939.69 1338.16 925.58
00003702 00000041 918.50 302.99 614.31 852.99 1055.35 649.93 1339.34 635.64 1186.46 807.87 1099.74 943.50 1346.52 930.09
00003703 00000042 923.69 306.09 617.46 854.27 1055.95 646.63 1344.56 633.71 1186.63 810.83 1103.05 949.89 1350.97 937.05
00003704 00000043 928.35 304.90 618.81 852.98 1056.69 640.36 1352.86 631.24 1189.25 818.54 1106.99 953.95 1357.82 943.91
00003705 00000044 932.33 299.31 622.42 867.30 1064.38 634.07 1361.67 626.97 1197.15 818.36 1112.13 954.14 1362.20 945.49
00003706 00000045 936.86 297.27 619.99 875.28 1072.10 630.71 1367.82 625.77 1204.12 814.74 1115.98 954.36 1364.29 947.15
00003707 00000046 944.13 279.20 619.11 890.82 1069.39 622.75 1375.99 615.84 1209.76 816.43 1118.45 951.67 1369.93 944.87
00003708 00000047 947.35 279.73 620.10 888.69 1077.49 620.45 1386.03 617.23 1218.48 814.52 1122.48 950.02 1374.46 946.37
00003709 00000048 951.25 281.09 619.20 888.93 1083.09 620.70 1388.87 617.31 1225.78 814.65 1128.27 949.52 1380.01 945.72
00003710 00000049 953.17 277.90 619.79 890.09 1086.12 621.98 1392.18 618.38 1230.16 814.43 1131.46 950.59 1383.45 946.65
00003711 00000050 953.44 278.69 622.50 894.38 1088.57 621.66 1393.22 619.31 1231.03 814.09 1130.87 949.28 1384.13 946.23
00003712 00000051 955.18 278.91 618.57 888.76 1090.20 622.39 1394.59 620.31 1231.09 811.66 1129.70 947.37 1383.59 944.62
00003713 00000052 950.41 284.87 622.57 873.79 1090.48 620.38 1395.64 622.54 1230.59 807.63 1126.66 939.34 1377.64 940.16
00003714 00000053 951.18 292.23 619.38 857.53 1093.73 614.36 1394.95 623.81 1222.12 802.24 1120.77 931.63 1360.37 938.92
00003715 00000054 946.80 294.02 625.84 852.66 1092.57 609.11 1390.79 624.89 1215.72 801.84 1114.91 924.18 1348.86 936.98
00003716 00000055 946.85 288.07 623.71 852.61 1087.21 606.41 1388.74 627.55 1210.69 803.50 1104.53 918.83 1345.65 935.92
00003717 00000056 949.19 283.97 621.37 858.89 1090.22 602.70 1386.83 630.81 1208.25 803.46 1101.93 916.21 1334.93 939.30
00003718 00000057 951.75 281.74 622.14 865.69 1092.72 600.59 1388.92 630.46 1208.41 804.49 1101.45 917.20 1334.30 941.72
00003719 00000058 954.45 282.77 622.57 867.94 1096.93 601.30 1391.53 629.85 1211.58 804.11 1107.18 920.04 1338.90 943.36
00003720 00000059 956.26 279.43 624.51 883.06 1098.45 600.06 1393.73 625.09 1212.50 802.35 1110.54 927.90 1344.39 948.48
00003721 00000060 957.95 276.61 622.01 892.77 1097.56 600.63 1392.50 621.11 1212.59 801.01 1111.70 932.55 1347.06 949.50
00003722 00000061 955.72 283.42 624.47 877.27 1104.66 603.82 1395.68 625.01 1218.30 793.42 1114.44 925.57 1346.75 942.67
00003723 00000062 958.14 283.40 618.32 867.52 1110.93 607.63 1394.23 627.29 1224.73 784.27 1118.07 914.91 1345.97 931.06
00003724 00000063 959.37 271.76 620.69 874.88 1111.65 602.02 1391.51 618.12 1225.28 770.14 1129.17 902.63 1339.13 915.10
00003725 00000064 959.42 266.84 622.60 877.28 1113.61 588.84 1396.10 601.90 1231.49 760.34 1134.28 896.99 1344.39 906.97
00003726 00000065 965.32 273.29 617.30 867.51 1115.55 585.06 1402.53 595.48 1234.86 755.84 1137.88 903.25 1352.33 910.93
00003727 00000066 909.14 285.60 600.91 846.67 1014.53 615.33 1300.97 599.47 1136.23 798.07 1074.48 935.63 1296.95 921.49
00003728 00000067 906.41 286.99 602.15 855.08 1013.71 617.01 1302.54 598.00 1138.17 795.39 1074.20 940.51 1300.10 923.80
00003729 00000068 905.68 284.70 604.31 855.27 1014.99 611.91 1302.32 596.09 1136.51 789.52 1069.32 928.92 1303.65 914.21
00003730 00000069 906.59 283.16 599.94 846.98 1014.92 610.33 1301.32 591.38 1140.24 782.25 1071.05 918.80 1315.78 900.49
00003731 00000070 905.82 280.97 598.22 847.71 1021.34 602.27 1310.35 589.39 1147.57 777.99 1069.52 900.89 1327.01 887.52
00003732 00000071 906.26 280.36 606.58 852.79 1027.83 600.15 1314.68 585.89 1156.18 773.34 1073.01 894.42 1337.37 879.62
00003733 00000072 909.05 282.19 612.41 860.73 1035.85 601.76 1321.48 582.60 1169.15 769.02 1079.38 895.20 1351.02 876.41
00003734 00000073 912.74 284.87 615.78 850.99 1043.99 605.26 1329.67 588.62 1179.02 767.07 1081.09 891.11 1355.97 874.71
00003735 00000074 917.75 286.06 615.84 843.46 1054.90 610.36 1340.27 598.86 1191.51 773.46 1086.85 891.17 1359.64 879.79
00003736 00000075 920.14 288.34 620.30 841.96 1060.74 613.59 1346.39 604.26 1195.52 787.39 1091.24 896.07 1362.33 886.56
00003737 00000076 922.07 292.21 620.56 842.08 1062.99 616.82 1349.68 609.62 1194.43 793.44 1091.08 900.14 1364.46 892.50
00003738 00000077 925.23 293.29 622.49 843.92 1067.37 622.59 1352.20 616.86 1195.69 794.82 1098.31 906.43 1366.76 899.44
00003739 00000078 929.16 296.03 624.39 837.65 1072.22 624.66 1363.56 622.03 1199.48 796.67 1104.37 909.02 1375.01 903.46
00003740 00000079 936.93 294.07 617.90 838.40 1075.25 625.17 1369.56 624.39 1201.63 796.77 1107.32 917.75 1372.20 913.74
00003741 00000080 940.42 288.06 618.47 847.27 1080.52 620.27 1370.02 623.87 1202.37 797.38 1111.11 922.68 1359.73 922.18
00003742 00000081 941.62 283.27 614.82 852.87 1082.58 618.04 1368.75 621.59 1203.40 794.77 1113.09 924.78 1356.26 924.13
00003743 00000082 943.48 286.84 614.18 857.03 1083.00 611.34 1372.58 617.97 1202.08 795.36 1113.99 927.56 1354.97 929.27
00003744 00000083 942.93 288.86 617.17 861.13 1083.45 611.26 1371.51 620.07 1200.67 797.17 1115.52 933.73 1347.47 937.27
00003745 00000084 943.68 286.25 613.37 867.12 1083.92 616.45 1370.69 623.70 1204.38 805.81 1118.58 943.85 1342.95 946.11
00003746 00000085 944.50 285.03 610.53 884.85 1076.17 615.52 1370.08 619.05 1211.18 815.03 1112.58 951.29 1333.39 954.41
00003747 00000086 938.71 293.54 612.90 884.55 1072.32 623.31 1370.17 625.01 1210.16 823.00 1112.20 964.61 1328.26 966.70
00003748 00000087 934.99 297.32 612.76 886.85 1069.28 629.08 1364.23 630.31 1206.40 825.63 1107.98 968.09 1321.04 970.35
00003749 00000088 932.22 295.10 615.25 888.25 1063.57 629.13 1357.30 627.37 1199.18 824.16 1106.71 967.85 1319.68 967.38
00003750 00000089 929.09 298.56 619.33 880.89 1061.39 628.81 1356.95 633.34 1189.37 822.29 1103.32 969.06 1325.86 971.08
00003751 00000090 928.36 294.08 617.87 888.99 1058.49 625.55 1355.49 629.90 1185.02 817.20 1097.80 963.82 1332.44 965.19
00003752 00000091 930.43 282.28 618.28 906.46 1054.27 617.63 1350.83 611.08 1191.24 813.95 1099.89 959.29 1334.59 953.67
00003753 00000092 928.54 290.61 617.36 872.68 1057.23 615.19 1353.26 617.15 1184.30 807.27 1099.48 954.34 1330.57 953.35
00003754 00000093 930.62 287.92 618.24 874.58 1062.71 609.27 1357.49 612.95 1189.61 803.44 1100.49 947.89 1330.50 947.99
00003755 00000094 935.01 291.48 618.74 874.08 1070.80 607.13 1363.54 612.07 1195.61 801.38 1109.84 947.22 1334.31 947.93
00003756 00000095 941.74 276.40 615.62 904.68 1071.16 607.85 1365.82 607.80 1202.26 803.80 1110.79 948.75 1339.99 948.79
00003757 00000096 945.18 278.68 614.98 895.39 1078.27 607.52 1376.53 610.45 1212.49 804.39 1115.93 948.56 1343.58 951.06
00003758 00000097 951.63 280.38 611.43 880.35 1090.70 607.09 1388.08 612.39 1226.74 800.42 1123.42 941.68 1345.81 946.55
00003759 00000098 957.69 277.07 611.12 881.27 1099.13 607.97 1397.16 618.16 1233.18 801.12 1126.40 938.98 1353.96 947.93
00003760 00000099 963.34 282.31 614.01 882.49 1107.13 610.75 1405.50 620.79 1241.15 806.09 1134.35 944.36 1360.87 953.10
00003761 00000100 969.32 287.78 616.30 885.85 1117.45 612.16 1409.70 626.36 1245.99 806.70 1136.20 940.46 1362.82 952.57
00003762 00000101 977.76 295.62 613.26 874.25 1124.38 624.99 1412.32 636.79 1252.87 813.27 1142.91 942.84 1373.52 952.65
00003763 00000102 986.93 308.89 603.40 858.40 1137.34 635.03 1425.99 651.83 1265.88 815.88 1147.39 940.02 1385.85 953.64
00003764 00000103 992.09 312.85 596.84 851.62 1144.01 643.38 1431.72 658.93 1276.31 817.86 1157.75 942.80 1396.87 955.35
00003765 00000104 993.80 312.62 597.68 857.58 1145.83 643.06 1435.46 658.40 1280.45 818.69 1160.05 947.13 1402.25 959.01
00003766 00000105 994.61 309.48 597.10 866.21 1147.68 641.28 1437.15 656.24 1284.52 818.24 1159.33 948.74 1401.52 960.69
00003767 00000106 992.13 305.37 601.66 872.41 1145.84 638.88 1438.85 654.14 1284.07 817.60 1157.99 950.78 1405.21 962.94
00003768 00000107 989.69 305.34 603.38 872.87 1143.27 636.47 1437.57 651.28 1281.34 817.15 1154.23 949.54 1403.75 961.38
00003769 00000108 986.68 300.67 602.93 873.62 1140.40 634.27 1432.08 649.62 1278.05 814.01 1149.41 943.11 1400.14 955.20
00003770 00000109 984.30 296.06 601.61 875.55 1136.92 629.61 1428.01 644.50 1273.24 813.23 1145.29 940.02 1396.46 951.46
00003771 00000110 978.34 292.57 606.24 883.31 1128.79 624.41 1419.89 634.75 1263.85 814.50 1143.05 943.43 1388.69 951.71
00003772 00000111 974.02 289.57 607.26 884.99 1122.55 618.56 1414.93 627.36 1258.65 812.74 1141.65 945.22 1379.81 952.71
00003773 00000112 965.03 283.90 608.90 887.23 1114.24 614.77 1409.90 623.63 1251.93 804.92 1136.72 942.17 1374.20 949.69
00003774 00000113 956.16 281.31 610.61 885.02 1106.10 613.67 1400.82 621.29 1245.34 805.43 1133.26 937.90 1366.55 944.53
00003775 00000114 948.97 280.54 609.58 883.61 1100.24 613.10 1391.78 620.90 1240.01 801.27 1126.83 932.58 1359.99 939.33
00003776 00000115 941.95 292.22 612.92 865.92 1094.66 617.43 1381.13 626.08 1223.81 799.19 1124.07 934.66 1356.76 938.43
00003777 00000116 934.20 289.91 614.83 870.50 1081.05 617.85 1369.26 625.65 1208.27 802.48 1109.77 935.11 1347.33 938.69
00003778 00000117 928.67 293.31 613.94 865.81 1067.02 615.48 1357.72 620.80 1192.35 805.34 1097.05 935.00 1335.89 937.12
00003779 00000118 925.94 293.53 609.55 864.13 1059.24 616.93 1347.03 618.13 1185.60 803.77 1092.41 936.88 1329.46 936.18
00003780 00000119 923.16 290.76 611.72 871.09 1053.00 618.38 1341.88 618.82 1178.41 804.58 1090.33 940.10 1325.34 938.90
00003781 00000120 922.71 291.39 612.46 874.68 1053.55 618.28 1343.13 618.73 1179.55 803.88 1091.80 944.38 1322.57 943.08
00003782 00000121 923.36 291.31 613.01 875.70 1055.38 617.50 1346.29 618.27 1182.76 805.63 1095.71 947.43 1324.58 946.36
00003783 00000122 924.65 292.52 613.44 874.93 1057.59 619.82 1349.15 619.50 1186.84 806.82 1099.36 950.68 1326.95 948.71
00003784 00000123 926.34 296.86 613.10 869.91 1062.45 628.44 1350.99 629.59 1191.42 808.12 1101.71 950.85 1331.02 950.10
00003785 00000124 926.41 297.33 611.73 870.13 1069.62 636.50 1355.11 639.53 1197.03 806.09 1102.49 946.81 1337.02 947.42
00003786 00000125 927.19 297.16 610.37 867.84 1067.73 638.25 1352.16 640.28 1194.07 806.92 1102.46 947.76 1334.64 947.62
00003787 00000126 925.22 297.59 610.14 867.11 1061.02 637.10 1347.46 636.72 1189.22 807.69 1099.54 949.72 1332.91 947.70
00003788 00000127 924.98 297.26 611.21 869.83 1058.37 634.13 1345.07 633.60 1185.17 809.24 1097.95 950.19 1330.02 948.29
00003789 00000128 924.72 294.68 609.67 875.45 1058.48 631.21 1342.97 629.50 1184.51 807.30 1097.28 948.75 1330.66 945.65
00003790 00000129 924.35 292.72 611.10 880.73 1057.00 628.02 1345.14 626.36 1183.68 808.21 1096.49 950.46 1331.94 947.29
00003791 00000130 923.90 293.32 611.47 885.05 1056.25 626.30 1344.77 623.77 1183.43 809.18 1096.86 952.81 1332.23 948.69
00003792 00000131 923.22 293.54 611.19 880.49 1055.27 626.66 1345.98 622.44 1184.60 809.49 1097.29 951.93 1335.58 946.43
00003793 00000132 923.05 293.22 612.07 881.19 1055.27 625.50 1347.10 621.78 1184.31 809.03 1096.13 950.82 1335.72 945.80
00003794 00000133 923.54 293.85 611.38 878.54 1055.96 626.27 1347.33 622.21 1184.73 809.65 1097.66 950.63 1336.38 945.34
00003795 00000134 923.30 292.40 612.60 878.34 1056.57 625.21 1348.59 620.58 1186.85 809.19 1099.92 951.24 1337.16 945.45
00003796 00000135 923.92 293.34 612.70 876.71 1057.46 627.23 1349.18 621.08 1188.80 810.54 1102.81 953.39 1338.70 946.29
00003797 00000136 925.18 298.72 612.05 862.12 1057.53 628.19 1347.46 623.07 1188.23 813.17 1101.66 948.76 1335.66 943.02
00003798 00000137 923.49 299.23 612.97 860.47 1058.20 630.67 1346.98 626.34 1189.26 813.31 1097.58 941.95 1336.98 937.28
00003799 00000138 922.59 295.18 611.22 863.46 1057.21 625.36 1341.29 621.62 1184.53 804.91 1094.85 937.52 1330.16 933.08
00003800 00000139 920.79 287.67 611.17 867.33 1056.28 606.82 1335.10 602.94 1175.02 777.01 1092.41 925.91 1318.94 920.43
00003801 00000140 923.20 281.98 609.27 845.68 1053.74 594.63 1335.23 594.36 1174.99 758.33 1092.73 908.07 1316.78 905.33
00003802 00000141 929.67 282.13 601.55 829.07 1054.17 586.00 1340.92 586.89 1175.51 747.91 1090.31 899.20 1317.88 897.39
00003803 00000142 931.57 283.42 602.30 825.23 1059.01 580.74 1344.97 581.74 1180.60 744.05 1097.77 896.35 1318.93 894.34
00003804 00000143 930.76 285.08 604.03 825.49 1063.58 578.07 1345.46 579.29 1184.68 742.64 1102.08 892.38 1316.84 890.27
00003805 00000144 931.25 286.37 601.90 821.82 1061.42 580.70 1345.43 582.20 1183.26 744.73 1098.18 894.19 1318.19 892.54
00003806 00000145 929.66 283.89 602.18 826.14 1058.93 583.35 1342.63 586.36 1181.70 747.71 1092.90 893.28 1317.95 893.03
00003807 00000146 927.46 283.59 600.29 835.21 1055.36 588.46 1335.24 588.04 1176.16 750.93 1092.97 900.69 1313.39 897.73
00003808 00000147 922.59 284.96 601.43 850.02 1052.91 597.67 1333.57 595.57 1172.01 761.15 1088.42 914.03 1309.47 910.15
00003809 00000148 921.85 290.66 601.09 845.68 1056.22 610.20 1331.40 607.37 1175.97 769.17 1090.22 914.67 1315.37 909.85
00003810 00000149 920.16 293.16 601.82 838.35 1057.38 607.97 1335.78 612.96 1177.39 768.34 1086.68 909.08 1315.22 910.71
00003811 00000150 919.53 294.08 602.73 834.55 1056.11 608.54 1337.14 612.66 1177.91 768.75 1086.15 909.92 1314.82 910.96
00003812 00000151 920.27 289.46 602.60 842.58 1052.83 612.72 1333.73 610.98 1175.23 774.23 1090.45 917.96 1320.12 913.89
00003813 00000152 921.22 289.55 599.10 858.69 1054.44 612.22 1334.68 612.41 1173.22 780.87 1085.54 927.52 1315.55 925.31
00003814 00000153 923.88 292.61 598.36 851.96 1052.51 614.38 1337.24 613.32 1173.14 787.14 1086.22 932.71 1319.77 929.45
00003815 00000154 928.23 291.85 599.39 830.83 1056.41 610.79 1343.93 613.59 1177.03 783.02 1092.24 930.35 1318.72 930.18
00003816 DELETE   936.23 285.88 595.14 811.43 1071.16 596.40 1355.48 608.81 1188.50 763.60 1094.88 906.34 1317.43 913.68
00003817 DELETE   949.94 281.87 590.76 800.48 1083.07 576.60 1367.11 599.61 1193.18 748.17 1091.64 881.65 1316.83 898.32
00003818 DELETE   961.96 282.36 582.34 771.79 1092.80 552.70 1373.30 588.92 1190.83 723.91 1086.88 844.11 1310.62 873.48
00003819 00000158 960.12 281.61 591.62 785.88 1105.00 534.81 1376.26 575.27 1196.54 708.85 1086.82 828.20 1296.18 862.95
00003820 DELETE   958.34 286.91 591.23 787.79 1103.68 543.82 1372.03 584.31 1191.95 722.28 1085.71 839.50 1286.09 875.16
00003821 DELETE   955.89 283.08 588.51 808.92 1096.40 573.92 1364.14 610.28 1186.74 750.31 1082.31 864.05 1285.41 896.02
00003822 00000161 947.47 288.08 601.34 842.80 1079.79 593.05 1361.31 629.53 1166.22 764.26 1069.53 902.92 1295.34 931.40
00003823 00000162 947.81 287.97 602.36 851.46 1078.42 598.84 1361.68 626.71 1168.41 760.96 1075.34 907.47 1311.36 928.03
00003824 DELETE   949.50 290.76 602.08 841.77 1090.08 590.44 1364.38 617.20 1182.50 750.90 1089.81 891.41 1314.05 911.19
