Video ID: 	iGj5bIzXge0
H: 	1080
W: 	1920
FPS: 	23.976023976023978

FRAME INDEX X0 Y0 W H [Landmarks (5 Points)]

00006637 00000000 690.98 328.92 369.54 545.68 934.50 571.00 1024.75 551.86 1051.53 673.15 927.36 756.89 991.04 744.83
00006638 00000001 691.42 335.33 374.16 539.54 935.54 571.05 1028.65 552.70 1052.94 674.89 927.28 756.38 993.81 745.28
00006639 00000002 697.31 337.98 372.51 536.81 943.70 570.89 1033.04 553.89 1056.82 676.46 931.65 753.99 995.22 744.17
00006640 00000003 701.46 331.65 369.30 542.29 950.25 566.22 1034.09 553.53 1058.53 674.31 935.77 750.74 995.20 743.68
00006641 00000004 705.65 330.72 367.43 542.81 953.63 560.61 1033.11 550.05 1058.54 669.77 938.76 748.13 994.53 742.34
00006642 00000005 709.14 328.85 369.39 543.54 958.54 556.82 1038.22 546.07 1063.59 668.31 940.53 745.91 996.41 740.29
00006643 00000006 710.61 326.25 368.15 544.50 958.20 555.79 1041.61 546.51 1065.18 667.27 939.43 743.00 999.42 738.73
00006644 00000007 708.82 331.82 369.44 536.87 958.25 553.89 1042.87 546.22 1064.31 667.90 937.61 739.70 999.77 736.58
00006645 00000008 703.51 332.46 370.56 535.90 955.24 551.66 1037.21 545.14 1058.98 668.37 930.01 738.56 991.66 736.58
00006646 00000009 699.59 330.29 371.22 537.06 949.57 547.65 1033.12 538.35 1056.68 664.42 922.42 737.97 988.84 734.25
00006647 00000010 701.29 325.38 372.41 541.05 950.30 543.87 1034.23 531.87 1063.31 661.95 924.88 737.42 991.00 731.89
00006648 DELETE   707.70 329.92 369.92 538.63 955.00 549.18 1043.99 541.17 1065.40 668.20 933.42 740.84 1001.46 737.74
00006649 00000012 710.03 343.33 370.69 539.07 960.91 560.29 1048.43 550.13 1070.31 683.76 933.09 752.04 1000.04 748.21
00006650 00000013 707.80 363.28 374.40 527.40 949.99 575.06 1050.88 557.71 1067.23 696.19 916.79 761.42 996.17 753.65
00006651 00000014 714.07 375.80 371.54 519.63 956.24 579.60 1057.74 567.87 1070.54 700.08 925.49 762.07 1001.94 758.77
00006652 00000015 724.26 371.02 367.51 528.64 970.04 580.84 1062.95 570.45 1080.86 702.86 936.78 764.07 1004.77 761.47
00006653 00000016 733.31 377.14 358.25 519.26 981.21 592.16 1062.98 578.49 1085.87 709.42 937.12 768.02 1000.66 766.64
00006654 DELETE   735.94 397.83 362.57 513.37 981.43 610.88 1064.98 591.34 1091.69 729.20 935.41 788.62 999.59 784.07
00006655 DELETE   733.15 410.97 375.82 515.84 977.11 631.75 1067.75 611.46 1090.55 745.68 942.97 803.66 1011.97 791.44
00006656 00000019 737.79 416.72 379.17 515.66 973.74 643.48 1077.92 619.19 1088.35 756.14 941.07 811.15 1020.56 795.96
00006657 00000020 737.01 428.55 380.61 505.92 970.84 648.30 1082.32 620.61 1088.04 761.38 938.15 812.18 1023.43 795.05
00006658 00000021 734.26 427.57 380.94 504.62 965.17 648.39 1081.57 619.92 1083.82 759.46 935.59 810.64 1026.08 792.60
00006659 00000022 732.17 415.16 380.54 512.95 959.82 646.51 1079.48 618.23 1078.83 754.20 932.71 807.21 1028.33 788.47
00006660 00000023 730.23 409.68 383.87 514.63 965.50 638.15 1078.79 616.18 1078.86 749.81 934.79 800.24 1022.74 786.30
00006661 00000024 731.84 409.11 388.30 514.92 972.46 632.68 1081.75 608.95 1088.08 750.50 934.09 793.37 1025.60 779.35
00006662 00000025 738.67 390.14 375.89 518.59 976.04 621.78 1081.87 592.96 1092.25 739.14 935.00 787.86 1017.31 775.47
00006663 00000026 736.18 372.29 370.71 525.36 969.80 612.01 1082.88 583.73 1087.91 728.47 934.10 775.71 1024.00 763.71
00006664 00000027 736.65 368.06 364.41 518.67 963.86 597.20 1081.70 574.35 1082.55 715.21 931.01 762.46 1027.53 753.53
00006665 00000028 734.57 363.93 363.54 517.36 962.46 585.30 1080.67 566.72 1081.19 704.45 927.53 754.03 1028.70 747.68
00006666 00000029 726.68 340.32 385.78 548.16 961.41 576.27 1083.17 556.37 1086.93 697.01 936.39 758.30 1029.91 747.06
00006667 00000030 728.05 340.47 384.76 540.56 958.55 569.27 1080.83 549.61 1087.66 687.83 939.48 754.51 1034.01 742.54
00006668 00000031 729.01 341.68 383.78 532.61 957.75 566.59 1082.86 546.29 1089.76 682.76 942.04 749.62 1039.67 736.67
00006669 00000032 725.47 340.21 383.43 533.49 957.53 563.93 1080.19 544.48 1086.42 683.07 942.45 750.97 1035.97 738.50
00006670 00000033 726.01 334.07 381.36 536.01 956.75 558.02 1080.20 536.67 1088.65 675.51 940.15 743.13 1038.12 729.40
00006671 00000034 733.35 309.69 375.61 558.73 965.98 544.01 1083.06 518.31 1106.25 659.99 945.80 741.10 1042.38 725.58
00006672 00000035 734.77 304.39 372.21 551.92 960.33 530.03 1081.88 509.72 1101.65 644.10 946.24 730.63 1045.44 719.00
00006673 00000036 733.90 290.93 369.37 550.73 957.54 517.81 1084.78 502.51 1100.62 629.15 950.35 717.79 1054.01 710.04
00006674 00000037 729.57 273.59 372.76 558.90 950.52 510.63 1080.34 494.89 1094.35 619.48 952.54 713.96 1054.36 705.06
00006675 00000038 726.88 265.29 373.04 557.41 941.23 504.86 1071.81 486.47 1084.54 606.62 957.17 710.16 1053.13 698.14
00006676 00000039 731.28 264.56 373.21 555.64 939.54 499.17 1070.42 478.78 1084.31 598.16 960.30 706.63 1057.81 692.32
00006677 00000040 739.24 260.02 372.59 548.06 940.45 490.37 1073.33 472.20 1086.22 585.27 974.77 682.08 1073.94 668.45
00006678 00000041 743.40 242.16 369.71 564.07 958.56 484.08 1085.69 464.39 1105.37 575.43 971.46 677.05 1077.48 662.73
00006679 00000042 744.89 239.09 364.33 555.06 952.66 474.93 1081.13 457.30 1096.92 560.47 966.01 663.83 1075.70 651.12
00006680 00000043 742.95 234.02 363.44 551.27 946.31 467.48 1078.65 448.19 1094.71 550.56 961.34 655.76 1076.67 641.88
00006681 00000044 737.09 227.07 365.67 549.31 942.14 462.10 1072.48 439.38 1092.38 541.42 958.28 649.43 1071.79 633.32
00006682 00000045 733.29 217.83 363.42 553.89 938.25 459.07 1065.08 438.72 1086.21 537.68 956.35 646.81 1064.13 632.87
00006683 00000046 730.53 209.15 364.15 559.64 932.65 452.96 1059.36 432.68 1082.09 532.69 954.32 645.17 1059.38 631.26
00006684 00000047 725.89 201.83 367.14 564.38 927.89 448.97 1056.04 429.38 1079.88 527.60 955.90 642.76 1059.62 628.90
00006685 00000048 720.87 202.97 371.05 565.88 923.22 445.12 1051.61 425.61 1077.84 523.68 955.27 641.81 1058.46 627.54
00006686 00000049 720.81 199.80 372.68 571.20 921.30 440.88 1050.30 422.01 1075.87 518.27 956.48 639.22 1061.33 624.98
00006687 00000050 720.57 190.04 375.18 578.33 921.54 432.96 1051.48 416.58 1075.38 511.54 957.22 634.94 1062.73 622.65
00006688 00000051 721.86 188.06 373.02 574.89 921.05 425.61 1052.86 411.53 1072.89 509.34 953.74 630.97 1059.38 620.71
00006689 00000052 715.98 190.97 376.05 569.07 916.79 423.33 1049.20 410.54 1067.63 509.10 951.02 630.24 1054.69 620.74
00006690 00000053 714.19 193.13 375.91 567.76 915.25 424.06 1047.28 412.27 1065.30 509.01 950.33 630.37 1053.29 621.54
00006691 00000054 716.89 189.64 373.70 569.28 916.10 423.38 1050.55 412.13 1068.28 507.69 952.10 629.69 1057.58 621.31
00006692 00000055 716.51 188.24 374.57 565.17 915.33 421.80 1052.16 409.49 1067.75 507.21 951.77 628.02 1057.61 618.68
00006693 00000056 716.85 188.53 374.75 559.00 915.97 421.91 1054.92 407.71 1068.95 507.94 951.09 627.33 1057.80 616.58
00006694 00000057 717.03 189.59 374.52 556.02 917.48 422.22 1056.83 407.77 1070.89 509.28 951.48 627.09 1058.26 616.20
00006695 00000058 718.99 188.07 374.13 552.53 922.99 426.56 1059.89 412.49 1075.01 505.62 958.80 615.57 1066.40 604.31
00006696 00000059 721.48 188.04 373.62 551.53 927.96 429.71 1062.64 414.22 1079.17 509.20 961.10 616.74 1067.01 604.69
00006697 00000060 723.56 187.81 371.08 561.17 928.93 428.16 1063.80 416.35 1079.28 516.15 956.85 629.55 1061.57 621.51
00006698 00000061 725.21 191.51 369.90 560.06 933.04 431.03 1063.35 419.80 1081.25 518.95 958.95 630.42 1060.24 622.99
00006699 00000062 727.60 192.76 367.46 561.86 937.75 433.12 1064.15 423.91 1084.20 521.18 960.40 631.54 1059.34 626.09
00006700 00000063 731.50 194.03 365.54 562.03 941.97 434.89 1068.36 426.66 1089.56 522.75 962.13 632.26 1061.91 627.90
00006701 00000064 732.64 195.58 365.25 563.07 943.11 437.66 1068.50 428.52 1090.12 524.80 961.81 633.48 1061.97 628.56
00006702 00000065 730.01 195.87 365.64 564.71 942.11 439.77 1065.62 431.08 1087.99 528.51 958.95 635.78 1057.44 631.25
00006703 00000066 728.63 202.97 363.81 559.56 940.37 442.61 1063.79 437.01 1083.82 533.17 953.76 637.35 1052.25 635.50
00006704 00000067 729.19 209.71 360.55 555.56 943.05 451.63 1064.92 447.27 1084.98 539.85 954.28 639.45 1052.89 638.46
00006705 00000068 732.43 211.83 359.52 553.39 942.25 455.52 1069.13 451.76 1084.25 539.82 956.02 640.14 1058.77 639.11
00006706 00000069 736.58 213.65 357.04 553.37 944.31 456.49 1070.60 448.95 1086.90 539.08 961.43 641.58 1065.40 637.69
00006707 00000070 737.89 210.89 357.78 557.34 946.29 455.45 1070.62 444.36 1089.69 539.58 965.50 643.66 1067.99 637.01
00006708 00000071 737.41 210.21 358.48 557.30 946.58 454.32 1070.10 442.30 1089.63 539.13 966.49 643.71 1068.03 636.44
00006709 00000072 735.60 207.62 358.24 558.98 945.05 453.76 1066.78 439.59 1088.65 536.97 967.43 643.33 1067.40 634.45
00006710 00000073 734.28 207.45 358.72 558.73 942.91 455.31 1065.12 439.09 1087.74 536.19 968.40 643.96 1068.71 633.25
00006711 00000074 735.54 209.93 358.09 558.64 943.43 456.82 1067.26 440.49 1087.26 539.74 966.19 646.03 1067.74 635.11
00006712 00000075 735.85 219.31 357.42 560.53 944.13 470.48 1069.00 448.79 1088.12 554.79 962.24 658.21 1066.07 642.91
00006713 00000076 740.85 229.24 356.46 566.19 946.20 472.26 1072.65 459.18 1085.76 557.33 961.82 663.10 1069.26 653.88
00006714 00000077 747.87 230.38 358.99 574.08 951.85 466.08 1079.44 459.66 1090.95 552.79 966.40 662.06 1077.94 657.79
00006715 00000078 745.57 227.43 368.60 573.94 950.89 459.68 1079.94 450.95 1095.84 542.94 963.03 653.07 1080.00 647.60
00006716 00000079 737.82 207.15 372.01 580.45 946.11 447.13 1074.55 439.90 1092.69 532.22 955.07 642.92 1069.21 638.71
00006717 00000080 726.99 194.26 375.85 584.46 935.73 437.92 1061.71 425.28 1088.09 521.22 950.99 635.75 1063.21 627.27
00006718 00000081 725.58 184.42 378.73 577.05 924.21 424.68 1060.92 411.35 1077.39 507.21 946.85 624.42 1064.87 615.17
00006719 00000082 725.80 174.28 376.99 579.92 926.05 416.89 1062.40 405.21 1076.90 491.59 946.23 605.69 1072.48 597.08
00006720 00000083 722.73 170.34 375.15 578.52 928.08 413.58 1064.09 405.67 1080.78 490.78 943.04 599.93 1068.20 594.59
00006721 00000084 723.71 176.94 372.71 575.52 938.79 412.18 1068.22 408.84 1089.58 498.56 946.26 603.28 1063.23 601.79
00006722 00000085 740.09 178.41 363.97 568.37 943.52 411.75 1068.51 403.16 1092.93 503.26 960.16 604.37 1074.55 600.06
00006723 00000086 750.30 175.20 367.51 571.51 955.00 413.37 1078.98 404.36 1106.31 507.32 967.98 607.78 1080.61 603.16
00006724 00000087 754.14 178.20 367.47 567.40 964.48 422.25 1083.49 411.66 1113.46 516.13 972.16 612.15 1079.22 606.46
00006725 00000088 753.01 193.87 366.87 558.84 971.80 429.83 1088.27 422.14 1118.12 530.62 971.85 618.30 1073.23 616.03
00006726 00000089 755.71 204.96 364.68 553.67 979.53 432.24 1088.67 433.91 1118.41 538.23 980.42 622.53 1070.44 627.52
00006727 00000090 757.87 207.60 364.27 549.64 981.41 432.45 1090.38 434.99 1119.13 537.65 982.21 621.77 1073.03 627.20
00006728 00000091 755.72 205.22 364.73 550.63 979.20 433.35 1088.64 433.48 1117.52 537.91 980.44 621.19 1071.59 624.81
00006729 00000092 751.22 201.89 364.26 554.95 974.95 434.40 1083.44 435.37 1113.43 537.53 976.67 620.81 1066.99 625.36
00006730 00000093 751.03 200.73 363.25 552.25 973.24 431.99 1085.05 432.20 1113.21 533.46 977.67 618.53 1070.66 622.22
00006731 00000094 750.30 200.34 362.71 549.28 968.28 430.82 1084.12 426.16 1111.35 529.90 975.91 617.77 1072.78 617.37
00006732 00000095 749.04 197.80 362.63 551.93 965.06 431.31 1081.05 424.17 1109.13 527.16 975.20 617.55 1071.48 615.26
00006733 00000096 748.81 193.34 362.29 556.42 966.09 429.62 1077.94 423.11 1109.94 524.79 978.54 617.99 1069.10 616.18
00006734 00000097 751.51 190.99 362.25 557.20 968.02 430.12 1077.58 420.61 1112.03 522.44 982.93 617.22 1072.89 612.68
00006735 00000098 752.85 191.21 360.64 558.65 969.26 430.76 1076.38 421.48 1113.26 522.36 985.76 618.26 1072.90 613.96
00006736 00000099 752.47 194.04 360.38 558.51 969.23 431.15 1075.48 422.56 1113.41 523.09 987.39 620.36 1070.41 617.02
00006737 00000100 751.63 195.66 360.85 559.79 971.60 431.93 1075.16 424.54 1115.74 524.98 993.32 624.01 1071.59 621.78
00006738 00000101 751.01 197.26 363.47 560.31 973.24 434.29 1077.35 427.44 1117.95 527.29 997.20 627.06 1075.37 625.18
00006739 00000102 754.08 196.75 362.65 560.63 977.02 436.34 1081.43 429.37 1122.50 528.77 1004.24 629.95 1082.87 627.35
00006740 00000103 757.30 200.27 366.98 555.80 979.74 439.21 1085.81 429.03 1127.48 529.60 1011.07 630.69 1094.08 624.78
00006741 00000104 764.03 202.12 370.41 555.91 985.72 443.35 1090.07 429.94 1133.42 533.13 1019.10 632.84 1103.28 623.85
00006742 00000105 769.37 206.50 368.71 560.17 992.93 447.16 1093.56 436.78 1138.14 541.28 1022.91 639.43 1105.40 632.99
00006743 00000106 774.05 204.80 364.83 574.93 998.09 450.93 1095.03 442.23 1139.33 544.99 1022.17 645.46 1101.88 641.11
00006744 00000107 778.02 209.84 362.15 572.81 998.00 454.36 1098.88 446.57 1141.26 547.76 1019.02 647.16 1102.79 644.06
00006745 00000108 778.46 209.79 363.69 574.83 999.83 457.69 1102.15 449.19 1143.37 550.22 1021.82 649.97 1105.63 646.22
00006746 00000109 780.83 214.53 363.18 572.35 1004.25 461.10 1106.17 454.34 1145.09 555.57 1025.20 653.88 1107.60 651.43
00006747 00000110 782.65 224.89 365.59 562.09 1014.55 470.52 1114.05 463.80 1153.20 554.48 1025.04 652.33 1105.67 648.98
00006748 00000111 785.41 227.67 364.57 565.91 1014.44 475.42 1119.26 466.32 1154.57 560.54 1025.89 658.59 1111.13 653.05
00006749 00000112 786.79 232.67 365.16 563.96 1011.84 478.52 1123.79 468.43 1153.06 566.54 1024.85 664.81 1111.46 658.13
00006750 00000113 787.09 233.63 365.74 566.94 1009.89 480.68 1127.76 469.26 1153.66 571.44 1025.11 671.17 1114.33 663.16
00006751 00000114 785.92 234.25 368.63 565.22 1009.30 484.02 1130.27 472.66 1152.86 574.33 1027.36 673.46 1117.58 665.14
00006752 00000115 784.87 238.45 369.69 559.62 1005.99 482.85 1132.48 474.90 1150.29 575.00 1027.10 675.07 1118.37 669.27
00006753 00000116 782.47 240.67 369.44 557.57 1003.30 483.33 1130.11 474.90 1147.81 575.40 1023.06 675.53 1113.85 669.60
00006754 00000117 780.62 244.03 368.88 550.61 999.10 481.14 1129.65 476.16 1141.13 573.48 1018.56 673.11 1109.90 670.02
00006755 00000118 775.04 246.02 370.89 551.43 995.13 478.91 1126.05 475.96 1134.94 571.34 1012.48 670.54 1104.67 668.97
00006756 00000119 774.95 244.23 371.31 554.57 996.14 479.20 1124.62 475.61 1136.18 572.18 1009.33 669.97 1101.17 668.17
00006757 00000120 779.44 244.03 369.51 551.58 1002.70 478.82 1130.31 476.23 1144.15 571.31 1011.30 666.68 1104.83 666.08
00006758 00000121 782.74 242.07 368.00 552.16 1008.07 479.69 1132.02 476.33 1149.27 573.22 1013.87 666.77 1105.73 665.97
00006759 00000122 784.17 241.95 368.36 551.87 1005.71 480.81 1132.88 475.69 1147.30 573.86 1017.05 669.60 1109.76 666.79
00006760 00000123 776.66 244.45 371.43 549.36 994.69 480.59 1127.28 472.92 1138.13 571.46 1013.88 670.76 1108.30 665.38
00006761 00000124 761.85 246.88 375.23 550.37 973.54 482.12 1112.96 477.06 1113.27 573.39 1004.36 672.36 1103.00 667.96
00006762 00000125 756.27 246.91 374.70 552.17 957.91 485.58 1098.17 474.28 1092.83 577.13 989.24 674.30 1092.31 665.37
00006763 00000126 751.96 246.34 373.31 549.60 950.41 480.42 1090.48 471.33 1081.19 574.37 978.60 669.44 1082.12 662.86
00006764 00000127 752.27 245.03 373.75 547.28 949.05 478.47 1090.05 470.99 1081.43 566.15 977.53 662.29 1085.07 656.78
00006765 00000128 755.63 239.64 371.22 550.83 955.19 476.02 1093.71 471.64 1088.76 560.29 983.33 658.97 1089.54 655.63
00006766 00000129 763.51 236.63 370.52 550.90 970.44 473.39 1107.54 473.71 1106.72 555.53 998.07 657.85 1100.32 657.93
00006767 00000130 778.98 237.30 369.33 551.50 998.40 476.44 1127.48 471.20 1141.48 563.59 1015.25 663.92 1111.43 660.76
00006768 00000131 785.87 240.44 369.53 552.95 1014.33 481.28 1136.62 477.57 1155.04 575.21 1021.29 668.36 1112.50 666.92
00006769 00000132 784.44 244.39 371.24 549.91 1012.20 483.93 1135.65 480.27 1150.86 577.19 1018.63 669.06 1110.15 667.45
00006770 00000133 771.86 246.49 374.86 549.94 991.48 483.43 1125.90 478.29 1130.36 572.65 1005.44 669.66 1103.65 666.15
00006771 00000134 758.98 250.17 381.62 550.86 971.10 487.67 1116.01 486.31 1107.33 578.03 981.40 669.13 1092.92 669.00
00006772 00000135 759.02 252.50 379.93 548.99 971.74 487.70 1115.32 490.13 1106.05 579.05 980.01 668.66 1089.92 671.71
00006773 00000136 767.33 252.55 378.71 548.47 990.74 488.48 1127.62 493.44 1127.44 576.82 996.02 667.72 1099.41 673.06
00006774 00000137 776.89 246.83 374.31 551.81 1012.52 480.48 1136.59 495.83 1142.31 588.11 1004.45 670.61 1107.28 683.93
00006775 00000138 779.30 242.48 382.56 561.96 1029.86 473.27 1137.30 499.70 1153.04 591.13 1010.17 669.40 1097.92 692.29
00006776 00000139 787.48 245.85 389.86 568.56 1047.04 471.27 1137.24 497.63 1161.25 590.00 1022.23 667.56 1092.46 691.35
00006777 00000140 808.78 247.53 380.03 557.53 1066.14 462.29 1155.16 491.18 1181.29 586.21 1042.79 664.42 1113.01 689.86
00006778 00000141 821.11 248.92 379.52 556.52 1080.63 462.99 1164.44 488.77 1190.40 588.33 1052.47 663.92 1121.38 687.99
00006779 00000142 822.25 240.07 378.56 564.45 1079.42 461.02 1164.78 486.39 1188.63 584.32 1048.94 660.14 1120.77 684.00
00006780 00000143 815.87 243.14 380.77 560.71 1072.89 462.44 1162.28 488.24 1181.18 586.41 1039.86 660.08 1114.59 684.26
00006781 00000144 810.11 245.52 383.02 558.91 1064.88 465.90 1159.79 490.54 1177.24 588.93 1037.29 662.93 1114.46 685.83
00006782 00000145 809.16 250.67 382.05 556.29 1064.28 470.86 1158.73 494.20 1176.98 592.80 1038.61 666.24 1113.41 688.30
00006783 00000146 807.85 249.03 381.96 559.32 1062.60 474.75 1158.69 494.29 1177.83 593.66 1043.54 670.48 1116.90 689.54
00006784 00000147 808.54 246.60 379.93 560.73 1059.31 475.87 1158.35 491.91 1177.76 593.00 1046.68 672.91 1120.56 689.01
00006785 00000148 803.32 248.81 383.30 565.92 1052.66 489.20 1148.76 497.04 1171.43 598.10 1045.09 680.85 1114.43 689.06
00006786 00000149 801.15 248.38 384.66 566.30 1050.92 490.58 1149.71 497.17 1171.14 598.95 1044.74 681.97 1116.30 689.07
00006787 00000150 802.96 248.67 384.59 564.48 1052.24 494.80 1150.91 496.92 1176.89 600.38 1048.84 684.57 1120.23 688.07
00006788 00000151 806.17 253.54 377.98 554.54 1054.55 484.23 1156.04 491.66 1180.75 598.50 1051.39 679.32 1124.51 689.05
00006789 00000152 806.41 253.95 378.32 555.21 1055.48 484.63 1155.83 491.80 1181.57 599.55 1052.35 680.26 1124.13 689.91
00006790 00000153 805.07 250.85 379.03 561.15 1052.93 483.54 1155.60 491.78 1179.20 598.56 1048.80 681.06 1122.70 691.57
00006791 00000154 802.25 249.01 385.33 570.06 1051.46 491.32 1148.41 492.44 1178.07 600.64 1048.50 687.37 1117.35 690.37
00006792 00000155 803.89 247.02 382.66 570.58 1049.24 490.33 1147.97 491.55 1177.17 599.15 1048.11 687.37 1117.58 690.31
00006793 00000156 801.84 244.54 384.36 573.37 1047.63 492.78 1149.22 491.59 1175.71 600.48 1047.61 689.18 1119.17 690.27
00006794 00000157 799.11 246.54 385.01 574.87 1040.61 493.74 1148.28 494.10 1169.38 601.12 1043.42 690.96 1120.70 693.24
00006795 00000158 796.66 248.65 386.53 575.39 1038.30 494.42 1147.60 496.36 1166.99 602.25 1040.46 692.23 1120.12 695.88
00006796 00000159 793.71 250.25 387.73 574.34 1036.99 493.88 1146.54 498.85 1164.32 602.65 1037.12 690.90 1118.01 697.08
00006797 00000160 788.75 251.44 390.89 573.01 1032.96 490.80 1142.10 496.54 1160.45 602.74 1030.20 689.24 1110.64 696.51
00006798 00000161 785.32 253.80 385.75 569.99 1026.25 483.44 1134.69 490.39 1152.43 599.22 1024.63 686.88 1105.00 694.75
00006799 00000162 776.80 254.30 379.39 567.89 1012.16 483.19 1128.01 487.52 1137.91 602.44 1011.97 687.26 1102.19 693.05
00006800 00000163 755.15 252.50 386.79 570.77 985.30 486.73 1119.35 484.71 1116.84 607.70 984.21 691.50 1088.10 692.45
00006801 00000164 739.68 259.29 386.08 567.26 948.79 498.79 1087.47 486.55 1076.78 606.66 963.50 694.93 1064.11 686.69
00006802 00000165 735.29 257.24 383.39 576.33 945.45 500.74 1086.48 489.95 1080.35 606.40 952.93 703.84 1062.66 695.49
