Video ID: 	GWlhZx6goTI
H: 	2160
W: 	3840
FPS: 	29.97002997002997

FRAME INDEX X0 Y0 W H [Landmarks (5 Points)]

00002967 00000000 1576.33 171.45 396.85 627.67 1842.85 401.97 1939.58 432.70 1954.90 523.20 1805.41 615.97 1887.93 642.48
00002968 DELETE   1585.18 170.05 394.29 627.92 1850.02 406.82 1944.62 434.98 1959.37 527.95 1816.27 620.60 1895.30 644.31
00002969 00000002 1587.40 173.53 394.97 622.90 1850.70 411.54 1945.50 432.53 1962.09 530.76 1817.82 623.53 1897.04 641.39
00002970 00000003 1589.02 166.38 399.23 633.25 1853.61 412.22 1952.91 438.96 1967.05 532.86 1819.91 624.49 1902.64 647.17
00002971 00000004 1595.55 178.55 402.45 619.12 1856.67 416.45 1950.23 442.57 1963.09 539.32 1819.48 629.74 1901.92 652.31
00002972 00000005 1597.54 169.21 396.99 627.04 1861.76 416.48 1944.80 439.02 1967.56 539.55 1825.14 629.19 1898.45 649.93
00002973 00000006 1597.26 167.39 399.73 632.56 1862.67 415.44 1947.12 436.41 1969.36 538.69 1826.15 630.00 1899.04 649.53
00002974 00000007 1596.09 175.07 399.63 627.68 1863.13 413.27 1946.62 433.93 1971.09 537.17 1824.56 628.51 1899.00 648.29
00002975 00000008 1594.76 179.64 404.80 622.41 1864.53 409.40 1948.66 429.38 1974.52 534.38 1826.59 627.42 1901.11 646.52
00002976 00000009 1592.03 169.99 398.57 637.16 1859.68 407.74 1951.53 423.99 1973.75 531.80 1823.99 628.82 1900.48 642.71
00002977 00000010 1591.18 170.91 396.25 629.95 1857.96 409.58 1946.68 426.71 1971.38 531.33 1823.94 624.31 1899.67 639.07
00002978 00000011 1585.60 171.43 396.68 631.52 1855.38 406.77 1940.45 426.49 1970.89 526.19 1821.01 621.46 1895.09 638.81
00002979 00000012 1582.30 160.88 399.86 639.06 1850.60 404.39 1942.42 428.15 1969.03 522.17 1824.91 617.92 1900.59 638.32
00002980 00000013 1580.77 156.45 400.36 647.59 1849.55 402.57 1941.27 428.10 1967.31 520.62 1820.95 618.06 1897.49 640.67
00002981 00000014 1580.16 169.46 399.29 629.56 1847.14 400.99 1939.83 428.06 1965.61 519.00 1817.91 616.19 1896.04 639.70
00002982 DELETE   1576.63 163.71 402.77 637.34 1847.52 401.05 1938.26 425.11 1965.41 519.59 1815.61 617.06 1892.16 638.28
00002983 00000016 1576.86 162.96 399.77 637.24 1845.42 401.63 1935.99 427.60 1962.77 519.65 1814.93 615.53 1891.55 638.69
00002984 00000017 1573.77 158.60 404.94 645.44 1844.94 403.51 1935.93 425.44 1963.28 519.69 1821.38 620.56 1895.07 640.61
00002985 00000018 1572.78 161.72 402.90 636.15 1843.10 405.86 1933.80 425.93 1958.88 520.54 1821.60 620.43 1894.29 638.48
00002986 00000019 1571.32 170.43 398.11 622.66 1837.97 402.90 1930.74 418.64 1955.78 516.99 1819.09 620.56 1893.04 634.96
00002987 00000020 1570.04 163.55 407.83 623.12 1839.52 402.51 1942.96 422.46 1955.36 515.51 1820.39 614.98 1901.14 632.57
00002988 00000021 1565.28 155.15 411.55 632.67 1836.17 398.34 1938.42 419.03 1958.21 508.92 1822.38 611.66 1901.32 630.79
00002989 00000022 1563.06 154.83 407.48 636.53 1835.06 395.95 1931.66 414.36 1957.71 504.95 1822.80 612.10 1897.26 629.72
00002990 00000023 1563.89 165.66 405.05 642.94 1833.88 390.76 1925.87 418.41 1959.10 505.14 1808.06 609.67 1885.19 635.63
00002991 00000024 1566.28 160.78 404.62 653.92 1835.81 388.64 1928.18 415.99 1961.55 508.83 1796.91 610.67 1878.30 636.09
00002992 00000025 1565.58 159.53 405.66 658.09 1837.22 390.95 1928.01 416.56 1962.28 509.84 1800.09 614.18 1878.27 638.33
00002993 00000026 1569.28 155.62 409.16 650.58 1840.77 393.93 1935.49 419.07 1962.89 511.20 1811.88 614.98 1888.56 638.07
00002994 00000027 1571.43 155.36 405.84 639.98 1840.94 398.60 1938.88 419.83 1962.01 512.66 1821.50 616.32 1898.39 635.63
00002995 00000028 1570.31 160.05 401.70 628.03 1839.36 403.29 1934.09 422.22 1957.97 515.99 1822.31 617.39 1896.87 634.50
00002996 00000029 1572.58 162.80 406.18 625.44 1840.79 402.58 1943.95 429.29 1958.90 518.11 1816.49 615.50 1898.15 638.69
00002997 00000030 1572.00 158.25 403.96 638.26 1842.17 404.71 1939.25 430.47 1958.38 519.54 1816.07 615.86 1894.74 638.92
00002998 00000031 1574.17 162.25 402.81 641.46 1841.73 402.28 1935.18 431.41 1959.65 519.44 1809.90 614.57 1889.43 640.61
00002999 00000032 1576.38 167.09 398.42 633.02 1843.72 401.67 1935.89 430.48 1960.86 522.12 1805.27 613.99 1884.28 639.53
00003000 00000033 1579.01 171.12 398.28 625.26 1843.66 400.68 1939.59 430.62 1961.45 521.89 1805.31 613.10 1886.88 639.24
00003001 00000034 1575.67 167.99 406.26 622.47 1844.13 401.07 1947.12 433.50 1960.13 521.91 1805.91 610.56 1891.73 638.23
00003002 00000035 1574.46 166.15 406.70 623.80 1842.98 397.01 1944.96 428.42 1959.26 515.77 1805.47 607.96 1890.46 635.21
00003003 00000036 1574.26 167.23 405.99 627.72 1839.54 392.86 1944.95 426.50 1958.01 513.17 1797.46 605.88 1888.00 635.37
00003004 00000037 1574.52 167.20 405.42 635.94 1841.09 391.44 1942.77 424.95 1958.05 512.37 1792.76 606.90 1882.18 636.66
00003005 00000038 1572.22 165.73 409.46 634.22 1840.50 392.92 1945.17 426.54 1958.14 513.53 1796.02 608.44 1886.12 638.13
00003006 00000039 1573.76 157.06 401.59 635.44 1840.53 398.21 1938.88 425.59 1957.89 517.34 1804.34 608.33 1888.94 632.71
00003007 00000040 1578.17 165.52 398.96 620.68 1842.17 401.02 1941.43 427.96 1956.71 517.00 1811.73 610.00 1893.28 633.47
00003008 00000041 1579.00 167.04 399.06 620.83 1843.00 403.19 1940.77 426.37 1959.04 518.04 1819.87 614.53 1897.50 634.88
00003009 00000042 1576.75 168.48 396.85 622.68 1840.42 405.73 1935.56 424.27 1958.84 518.64 1826.37 620.29 1900.16 637.10
00003010 00000043 1577.12 166.78 397.72 625.40 1841.20 405.28 1937.36 422.89 1961.09 520.07 1828.92 623.71 1902.77 639.63
00003011 00000044 1575.69 167.76 397.13 626.46 1841.86 405.54 1932.88 421.00 1960.82 521.03 1830.22 627.49 1899.99 641.44
00003012 00000045 1572.78 166.82 403.25 629.32 1842.91 404.39 1936.66 420.70 1960.58 521.46 1827.36 627.43 1899.62 641.89
00003013 00000046 1572.16 168.96 405.50 626.19 1842.30 403.62 1938.61 420.62 1960.73 519.57 1825.27 625.55 1899.70 640.42
00003014 00000047 1572.65 168.27 406.88 631.40 1844.59 402.56 1936.87 420.42 1960.53 520.30 1821.27 625.61 1893.88 641.36
00003015 00000048 1570.80 164.35 407.42 634.88 1842.35 402.59 1935.64 420.27 1960.15 520.38 1817.82 624.05 1892.14 639.90
00003016 00000049 1571.16 163.43 408.73 638.97 1843.71 401.78 1936.14 422.22 1960.07 520.56 1813.76 622.65 1888.23 640.96
00003017 00000050 1570.19 162.05 409.32 640.22 1843.03 400.73 1936.11 423.48 1960.79 520.83 1809.91 620.67 1885.92 640.92
00003018 00000051 1571.67 162.62 410.24 632.50 1843.80 402.77 1940.61 423.13 1961.34 520.05 1817.97 621.30 1894.60 639.04
00003019 00000052 1572.23 163.54 407.39 630.93 1840.98 402.51 1938.45 417.36 1961.32 520.15 1824.67 627.04 1899.50 640.29
00003020 00000053 1569.97 163.34 409.92 630.71 1841.86 403.36 1937.18 418.19 1962.44 521.02 1828.97 628.50 1901.39 641.41
00003021 00000054 1573.73 155.07 406.42 642.94 1842.64 402.15 1937.55 420.94 1961.47 518.28 1822.32 622.65 1896.40 639.70
00003022 00000055 1572.51 168.50 403.44 632.61 1839.80 399.28 1936.42 420.43 1956.34 519.16 1806.69 619.67 1886.44 638.62
00003023 00000056 1568.75 166.28 404.30 634.05 1838.86 400.90 1933.56 420.32 1954.44 519.91 1803.36 617.77 1884.80 635.44
00003024 00000057 1569.52 164.62 403.85 624.69 1836.40 401.01 1933.57 419.70 1953.34 516.89 1806.32 613.83 1887.84 630.84
00003025 00000058 1569.13 160.86 406.50 625.93 1835.85 401.23 1934.99 419.26 1954.99 517.49 1807.21 614.88 1889.33 631.52
00003026 00000059 1572.86 166.55 400.95 616.33 1835.60 402.65 1933.24 418.98 1954.36 517.48 1813.36 616.71 1892.81 631.37
00003027 00000060 1572.43 170.54 397.53 616.52 1834.60 403.38 1926.34 413.99 1954.59 518.46 1816.86 621.65 1891.23 631.60
00003028 00000061 1572.72 171.67 399.95 615.81 1835.76 404.29 1929.08 413.94 1956.27 519.68 1818.55 623.67 1893.30 632.73
00003029 00000062 1572.30 167.58 401.80 622.57 1838.21 403.99 1931.72 416.50 1955.01 521.30 1818.30 624.58 1892.31 635.81
00003030 00000063 1569.69 164.95 404.72 626.41 1836.58 403.62 1932.14 419.82 1955.45 521.90 1815.43 624.29 1890.94 638.56
00003031 00000064 1568.18 158.82 410.77 636.71 1839.67 401.62 1935.03 421.14 1956.73 520.83 1807.71 619.22 1885.52 637.07
00003032 00000065 1567.48 161.32 410.91 635.78 1840.04 401.83 1933.24 421.95 1956.40 521.22 1800.71 617.52 1878.99 636.40
00003033 00000066 1568.65 164.57 407.19 630.82 1837.27 402.78 1933.86 422.72 1953.34 520.89 1803.19 617.07 1884.58 635.14
00003034 00000067 1569.80 165.41 403.87 617.58 1832.12 403.81 1935.56 423.83 1950.11 521.63 1799.65 612.61 1887.09 630.61
00003035 00000068 1569.04 170.48 402.53 606.28 1830.67 404.62 1933.96 421.09 1947.96 519.45 1805.00 613.66 1891.04 628.23
00003036 00000069 1569.05 168.34 405.33 610.83 1829.33 405.61 1935.89 422.30 1948.33 519.23 1801.72 612.39 1890.92 627.56
00003037 00000070 1566.74 162.12 407.79 616.16 1830.77 404.76 1934.70 423.98 1949.80 517.14 1802.49 609.54 1888.99 627.42
00003038 00000071 1560.67 165.13 411.65 621.26 1826.39 399.76 1930.86 421.73 1947.46 511.79 1800.67 609.60 1886.95 629.80
00003039 00000072 1560.60 160.31 407.35 632.18 1828.61 395.15 1928.25 422.05 1946.18 508.73 1793.27 606.10 1876.91 630.53
00003040 00000073 1558.62 167.37 410.06 636.86 1821.95 391.89 1927.73 422.11 1943.51 510.94 1782.49 612.86 1870.60 638.93
00003041 00000074 1555.76 168.30 414.48 637.85 1816.46 388.20 1926.77 425.27 1939.43 506.46 1775.15 607.46 1868.26 639.14
00003042 00000075 1557.21 160.08 413.86 629.31 1816.00 389.33 1925.76 429.66 1937.07 510.03 1772.27 600.10 1872.47 631.23
00003043 00000076 1555.46 157.12 418.22 619.33 1812.12 391.57 1927.15 435.35 1932.51 507.33 1784.02 596.21 1879.96 628.99
00003044 00000077 1555.67 156.32 416.86 620.02 1814.10 392.41 1926.83 434.13 1932.70 508.55 1787.51 597.25 1881.31 628.22
00003045 00000078 1554.47 162.28 413.86 620.09 1815.58 393.98 1927.55 426.31 1939.93 503.21 1797.99 600.71 1886.85 628.88
00003046 00000079 1557.43 159.51 409.75 623.36 1816.75 394.74 1924.91 427.38 1940.62 505.59 1797.05 603.14 1883.21 631.60
00003047 00000080 1559.49 151.37 407.61 625.65 1813.40 396.11 1920.57 432.73 1933.76 513.88 1789.28 604.67 1879.54 631.59
00003048 00000081 1555.68 154.41 407.36 625.77 1811.13 399.81 1920.48 428.44 1937.55 507.63 1797.56 602.40 1885.31 628.19
00003049 00000082 1556.61 157.30 404.97 623.62 1811.71 401.75 1920.76 429.21 1935.17 510.63 1801.40 607.00 1886.67 631.12
00003050 00000083 1556.62 155.42 403.28 629.09 1813.45 403.60 1919.21 430.18 1934.92 514.82 1798.84 608.58 1881.83 632.11
00003051 00000084 1555.80 156.21 406.25 627.68 1811.69 401.78 1921.44 429.36 1934.44 514.34 1798.68 608.83 1884.06 633.06
00003052 00000085 1555.80 158.28 402.54 622.71 1811.71 402.53 1917.33 428.29 1934.20 512.43 1801.34 607.63 1882.87 630.23
00003053 00000086 1555.46 161.78 400.21 616.45 1811.34 403.01 1915.11 426.90 1933.12 510.87 1801.88 606.14 1883.30 627.17
00003054 00000087 1553.72 160.23 402.30 617.60 1811.01 402.32 1914.65 426.20 1933.21 509.15 1803.14 605.63 1883.28 626.53
00003055 00000088 1553.57 159.22 405.06 620.41 1811.55 401.95 1916.06 426.46 1934.29 509.50 1802.32 606.35 1883.40 627.76
00003056 00000089 1552.83 160.13 406.76 624.01 1811.39 400.47 1915.40 427.21 1935.44 508.32 1798.84 606.15 1880.87 629.54
00003057 00000090 1553.42 158.13 406.22 628.03 1813.01 400.45 1915.70 426.23 1937.25 508.66 1796.86 606.41 1878.31 629.30
00003058 00000091 1552.40 156.83 407.07 629.35 1813.12 400.78 1915.09 425.68 1937.72 509.91 1797.53 607.04 1879.11 629.09
00003059 00000092 1551.52 158.44 405.93 627.76 1811.94 401.97 1914.22 428.42 1936.05 511.75 1797.45 607.33 1879.44 630.42
00003060 00000093 1550.32 162.34 406.34 624.23 1809.65 404.43 1913.33 426.67 1933.65 513.37 1796.07 611.20 1878.92 630.50
00003061 00000094 1551.32 168.18 406.29 614.80 1808.66 402.92 1913.43 427.12 1930.54 512.83 1791.87 611.10 1875.93 631.44
00003062 00000095 1550.76 165.33 407.01 616.10 1805.93 403.52 1913.48 428.94 1927.80 513.92 1790.37 610.24 1876.80 631.58
00003063 00000096 1550.04 164.81 404.73 616.54 1806.40 401.25 1911.45 428.88 1928.24 511.80 1789.53 607.29 1874.18 630.42
00003064 00000097 1546.08 162.05 407.53 620.97 1803.73 397.37 1907.66 432.59 1925.26 515.94 1781.16 612.75 1868.81 638.13
00003065 00000098 1545.19 160.66 406.13 623.92 1803.57 396.83 1904.16 429.91 1925.70 515.09 1778.76 612.90 1866.02 637.09
00003066 00000099 1544.90 165.65 404.72 621.31 1802.64 396.44 1902.44 429.58 1925.85 515.41 1779.58 613.49 1866.58 637.79
00003067 00000100 1544.45 166.77 406.66 619.81 1802.99 399.36 1906.70 428.33 1929.73 510.61 1787.92 610.26 1872.21 634.04
00003068 00000101 1544.65 165.10 406.74 619.20 1802.50 396.07 1905.02 433.91 1925.49 516.84 1784.68 613.74 1870.37 641.24
00003069 00000102 1543.24 166.80 404.46 615.90 1804.31 401.27 1905.77 428.63 1929.87 512.61 1794.78 612.39 1875.36 634.49
00003070 00000103 1542.75 168.02 404.96 617.24 1802.09 400.84 1905.73 430.49 1929.06 512.63 1791.53 611.76 1874.39 635.79
00003071 00000104 1540.70 160.55 409.62 625.22 1800.52 400.20 1905.34 430.44 1927.83 511.81 1789.05 610.82 1872.44 635.34
00003072 00000105 1542.43 161.91 408.64 621.91 1799.98 397.43 1903.62 437.16 1923.09 514.52 1781.16 610.89 1868.05 640.29
CROP_BBOX: 996 0 2229 1120
