Video ID: 	E0encwKB9wY
H: 	1080
W: 	1920
FPS: 	29.97002997002997

FRAME INDEX X0 Y0 W H [Landmarks (5 Points)]

00005510 00000000 612.21 197.11 426.68 633.36 730.25 422.92 944.27 422.19 857.05 565.48 767.62 680.61 913.84 678.29
00005511 DELETE   611.52 196.84 427.19 634.44 730.63 422.01 945.91 421.99 858.15 565.92 767.64 680.58 914.75 678.87
00005512 00000002 611.44 194.83 428.49 635.41 731.41 426.90 947.67 427.44 860.53 568.50 766.61 681.47 919.03 680.04
00005513 DELETE   606.44 180.09 434.18 643.92 732.19 432.63 944.27 431.80 858.97 573.16 761.82 675.89 922.08 676.10
00005514 00000004 603.96 182.51 434.04 639.21 731.24 431.65 943.91 431.48 858.39 573.60 760.00 673.88 920.62 674.95
00005515 00000005 600.26 184.20 435.19 636.21 728.90 429.12 942.26 427.91 858.12 571.19 760.21 673.10 920.01 673.48
00005516 DELETE   600.20 184.62 435.18 635.85 728.94 429.20 942.10 428.10 858.08 571.23 760.19 672.99 919.87 673.45
00005517 00000007 598.98 179.99 434.10 642.26 726.20 425.53 937.60 426.78 852.59 566.33 755.86 670.68 914.57 673.01
00005518 00000008 596.81 182.75 433.21 643.34 724.89 424.35 935.82 426.92 851.20 565.13 755.47 673.26 910.29 676.75
00005519 00000009 592.75 185.07 433.08 638.22 722.44 422.77 933.93 426.95 847.27 562.37 751.41 669.88 906.01 674.75
00005520 00000010 590.79 181.22 433.90 641.64 720.23 421.45 932.39 425.08 845.77 561.40 748.69 670.31 902.03 674.86
00005521 00000011 590.43 181.60 434.33 640.86 719.88 421.31 932.22 424.72 845.22 561.52 748.56 670.16 901.78 674.56
00005522 00000012 585.30 187.45 434.76 633.78 715.91 420.97 931.02 424.43 843.09 562.13 743.20 668.59 899.73 673.19
00005523 00000013 578.96 193.38 438.71 620.25 710.33 422.03 931.83 423.25 840.78 569.65 737.75 672.77 897.41 672.20
00005524 00000014 576.32 197.26 436.42 616.09 708.92 422.51 927.97 424.70 839.28 571.21 736.45 671.87 893.32 672.02
00005525 DELETE   572.49 199.78 433.73 615.99 704.57 426.14 922.47 427.68 834.43 572.69 732.43 674.35 889.50 674.10
00005526 00000016 572.17 198.97 433.45 616.97 704.95 426.31 922.29 427.61 836.08 572.36 732.78 674.47 889.87 674.08
00005527 00000017 571.56 202.87 430.58 619.69 702.41 431.16 919.48 431.68 831.85 574.61 727.94 678.80 889.05 677.40
00005528 00000018 567.59 204.01 431.44 622.96 700.50 434.58 916.14 434.47 829.47 576.76 728.86 684.19 888.30 681.87
00005529 00000019 565.30 203.93 432.17 622.61 697.59 435.88 913.84 434.37 827.73 577.72 729.11 686.52 886.90 682.71
00005530 00000020 562.74 198.59 432.43 627.54 694.71 435.53 910.50 434.53 823.94 577.10 727.48 687.19 883.29 683.60
00005531 DELETE   562.75 199.22 432.23 625.82 694.60 435.64 909.57 433.83 824.13 577.02 728.38 687.38 883.38 683.11
00005532 00000022 559.82 201.83 433.14 626.16 691.54 433.66 906.35 430.82 820.71 576.21 727.25 687.91 879.65 682.85
00005533 00000023 556.87 204.87 436.04 620.21 689.48 431.46 904.95 429.66 819.69 573.95 724.33 682.42 878.15 678.29
00005534 00000024 555.39 202.82 438.89 621.83 687.93 430.04 904.56 429.85 819.14 573.72 721.24 679.83 877.28 677.09
00005535 00000025 555.72 205.06 437.90 620.86 688.17 430.72 905.05 429.60 819.09 574.09 723.29 683.28 876.43 679.70
00005536 DELETE   556.17 203.68 437.45 622.22 688.45 430.06 904.61 429.33 819.22 574.40 723.02 682.27 876.21 679.04
00005537 00000027 556.56 205.62 435.83 622.37 689.23 431.67 904.89 430.15 819.39 575.53 724.63 686.09 876.05 682.21
00005538 DELETE   558.55 201.88 434.18 624.30 689.56 433.68 905.96 431.61 818.83 577.04 725.18 687.79 877.26 683.45
00005539 00000029 559.29 204.03 435.12 616.83 689.53 434.56 907.49 432.62 819.27 577.90 724.98 685.88 880.32 681.48
00005540 00000030 559.13 200.66 435.99 620.21 690.22 434.88 908.48 433.30 820.33 578.21 726.29 685.63 881.97 681.36
00005541 DELETE   558.82 200.73 436.42 620.26 690.31 434.99 908.32 433.33 820.84 578.30 726.41 685.73 881.84 681.41
00005542 DELETE   560.28 198.47 434.36 623.73 692.07 435.60 909.33 434.30 821.93 578.65 727.08 687.00 881.61 682.95
00005543 00000033 558.92 196.83 437.36 628.71 692.82 435.65 909.64 435.15 823.35 578.42 728.08 688.03 880.35 684.70
00005544 00000034 558.95 199.67 436.92 630.27 693.88 435.41 910.10 435.03 824.23 578.55 728.24 688.96 880.22 686.00
00005545 00000035 560.88 199.95 434.96 634.53 695.05 434.99 910.27 433.74 824.31 577.79 728.74 690.88 879.52 687.48
00005546 00000036 561.42 198.53 434.48 635.44 695.39 435.29 910.22 434.17 824.17 577.38 728.80 690.99 879.50 687.68
00005547 00000037 561.89 197.59 434.96 636.69 696.22 435.44 912.06 434.72 825.00 577.63 729.34 691.30 880.23 688.36
00005548 DELETE   561.05 198.06 436.47 635.06 696.54 434.30 913.63 433.86 826.72 577.62 729.20 689.44 882.65 686.53
00005549 DELETE   562.26 198.53 437.10 629.29 697.65 434.26 915.42 433.11 828.54 576.50 729.25 684.44 887.26 680.98
00005550 00000040 564.57 193.81 437.63 628.43 698.82 433.56 918.51 433.55 830.61 577.46 726.68 678.51 891.21 676.57
00005551 DELETE   564.62 196.18 437.16 626.79 698.67 433.28 917.97 433.15 830.49 576.92 726.40 678.02 891.97 675.97
00005552 DELETE   565.72 197.79 438.52 622.62 699.89 432.07 920.96 430.32 833.74 575.46 728.71 677.19 894.68 673.99
00005553 00000043 568.64 195.98 436.47 625.01 702.97 432.87 922.78 430.92 836.07 577.20 731.84 679.43 894.60 676.11
00005554 00000044 570.21 196.38 436.00 635.77 707.70 429.84 926.34 428.48 841.61 577.73 736.01 684.67 896.21 681.71
00005555 DELETE   576.08 183.83 436.68 653.29 712.72 426.04 930.41 429.20 847.02 571.01 736.40 676.79 896.40 681.23
00005556 00000046 575.51 183.76 437.54 654.68 712.62 425.54 930.16 428.81 846.71 570.56 735.71 676.85 896.49 681.40
00005557 00000047 576.81 185.35 436.34 646.65 713.59 424.43 932.03 427.62 848.26 569.14 738.23 674.97 898.08 679.46
00005558 00000048 578.98 185.02 435.19 637.54 714.77 423.87 934.14 427.08 848.62 568.63 737.23 670.13 898.65 674.78
00005559 00000049 573.25 193.70 440.89 621.60 711.80 423.26 931.77 422.53 845.70 572.72 739.29 673.92 897.98 671.90
00005560 00000050 577.22 177.14 435.47 640.44 715.89 426.07 933.66 429.93 846.10 567.24 737.63 667.36 894.10 672.56
00005561 00000051 577.07 178.29 435.40 639.53 715.39 426.29 933.40 429.75 846.15 567.01 737.56 667.80 894.22 672.69
00005562 DELETE   569.54 189.27 441.00 625.85 708.32 424.93 929.38 424.47 842.92 571.54 737.18 674.85 895.72 672.97
00005563 00000053 567.67 186.44 443.84 628.51 705.02 420.91 929.74 422.00 840.94 570.25 730.65 670.35 895.90 669.95
00005564 00000054 565.58 187.51 444.33 630.71 703.67 422.62 926.03 422.81 839.63 569.83 729.61 671.15 894.29 670.11
00005565 00000055 566.98 190.12 440.11 629.74 703.87 424.71 924.86 423.93 839.44 571.23 731.36 674.22 893.72 672.17
00005566 00000056 567.61 192.48 439.56 627.68 704.57 424.63 925.43 423.58 840.22 571.99 732.30 674.17 894.59 671.89
00005567 DELETE   566.97 191.92 439.54 627.96 703.61 426.79 923.19 424.75 839.00 572.34 732.88 675.30 894.16 672.17
00005568 DELETE   566.84 194.34 438.32 625.79 701.95 427.85 921.40 425.18 837.00 572.19 732.54 676.53 893.31 672.83
00005569 00000059 564.97 196.95 436.67 628.53 701.08 428.41 918.73 426.99 834.69 573.03 732.61 681.41 889.59 678.38
00005570 DELETE   563.73 196.40 438.01 628.01 698.52 428.31 918.62 426.39 832.68 573.14 729.61 679.78 890.28 676.33
00005571 00000061 564.64 197.55 436.71 626.71 698.59 428.24 918.20 426.46 832.11 572.57 729.31 679.22 889.63 675.97
00005572 00000062 561.25 194.78 439.12 628.17 696.70 427.81 916.66 425.66 830.76 571.43 727.66 677.01 890.25 673.24
00005573 00000063 560.08 195.40 440.05 627.80 696.13 427.75 916.15 426.71 830.25 571.94 727.20 676.12 889.58 673.27
00005574 00000064 558.40 194.93 441.63 631.56 695.59 426.15 914.70 425.86 829.41 569.91 727.10 675.91 888.29 673.46
00005575 DELETE   558.38 193.22 439.62 633.00 695.49 425.52 912.27 425.41 828.24 568.84 727.38 676.25 884.95 673.88
00005576 00000066 556.14 195.29 442.23 631.23 694.65 425.42 912.13 425.45 828.35 568.42 727.53 675.90 885.04 673.55
00005577 00000067 556.31 192.69 442.58 635.59 693.28 426.61 911.35 425.71 826.38 570.18 726.20 677.19 885.42 674.02
00005578 00000068 554.67 197.76 443.62 627.82 690.48 427.38 910.71 424.95 826.07 570.50 724.24 675.92 887.66 671.50
00005579 00000069 554.74 195.67 443.61 629.79 690.70 427.40 910.62 426.03 825.49 570.56 722.84 675.30 887.02 671.84
00005580 00000070 555.06 194.27 443.24 634.33 691.07 427.04 910.37 425.82 825.43 570.78 723.20 677.05 886.09 673.64
00005581 00000071 555.52 194.58 442.78 634.06 691.26 427.51 910.40 426.38 825.56 570.94 723.22 677.25 886.07 673.94
00005582 00000072 553.74 190.37 444.65 641.63 689.96 429.18 909.31 429.26 823.35 571.16 719.82 678.11 886.14 675.76
00005583 DELETE   554.43 192.29 442.66 638.05 685.22 430.86 902.73 431.29 812.31 571.24 715.35 678.59 879.27 676.31
00005584 00000074 546.44 186.50 446.93 642.27 675.70 426.97 896.16 430.04 803.18 570.67 705.67 677.41 870.32 677.04
00005585 00000075 542.89 183.32 445.09 645.70 665.27 423.09 887.73 429.05 790.99 568.31 692.86 677.05 857.60 679.16
00005586 00000076 542.83 183.15 444.67 645.80 665.19 423.10 887.57 429.07 790.91 568.17 692.76 676.99 857.70 679.09
00005587 00000077 539.66 191.82 442.77 636.14 656.62 417.20 880.03 425.49 776.25 564.95 680.57 673.86 844.50 678.38
00005588 00000078 532.15 190.39 447.93 635.91 647.70 417.16 869.20 428.76 759.84 565.39 665.98 666.69 837.34 676.63
00005589 DELETE   529.83 191.92 448.65 634.63 644.98 414.84 867.62 429.72 754.32 566.09 659.78 664.76 832.22 677.38
00005590 DELETE   529.90 192.78 448.41 633.97 645.22 414.36 866.98 431.07 752.18 565.70 657.78 664.34 829.56 678.42
00005591 00000081 530.22 190.83 447.27 636.71 645.69 413.97 867.05 431.15 751.78 565.24 657.95 664.53 829.08 678.97
00005592 00000082 532.99 184.41 446.68 640.58 646.48 413.70 868.17 430.25 754.23 563.85 658.72 664.69 830.31 678.50
00005593 DELETE   532.75 189.94 449.73 635.62 647.40 412.40 869.90 430.55 754.12 564.03 657.81 663.08 830.10 678.32
00005594 00000084 533.53 191.57 449.52 634.21 647.46 411.54 870.76 430.51 754.33 564.74 657.30 663.79 829.56 679.81
00005595 DELETE   534.45 186.70 449.26 637.19 648.67 411.69 871.88 432.22 753.41 565.92 657.83 664.14 828.55 681.36
00005596 00000086 535.78 184.01 447.72 640.00 648.88 410.79 872.84 431.91 753.47 565.71 657.37 664.36 828.98 682.02
00005597 00000087 535.16 184.14 448.52 641.23 648.95 410.84 873.42 432.35 754.65 565.92 656.77 664.99 829.07 683.08
00005598 00000088 537.51 177.86 445.59 648.06 649.75 410.81 874.76 433.75 755.16 567.22 656.31 666.54 829.11 685.63
00005599 00000089 535.86 181.50 446.73 644.41 649.33 412.33 874.33 434.01 755.70 567.76 657.94 667.62 829.42 685.95
00005600 00000090 534.77 184.98 449.34 643.64 650.56 413.30 874.33 436.75 756.98 567.81 656.07 666.99 827.24 686.81
00005601 00000091 534.76 184.37 449.45 644.60 650.19 413.42 874.38 436.50 757.03 567.77 655.98 667.34 827.88 686.84
00005602 00000092 535.79 182.54 449.07 647.24 651.23 415.15 874.42 438.42 757.16 569.15 658.49 669.58 827.88 689.18
00005603 00000093 534.01 188.65 451.59 643.80 650.16 416.32 875.56 439.85 757.04 571.30 656.81 672.02 827.32 692.01
00005604 00000094 535.43 197.57 450.73 636.01 650.70 413.77 882.42 436.18 759.97 569.33 658.72 678.71 828.43 695.45
00005605 00000095 533.21 191.63 453.70 647.85 648.66 419.49 875.53 443.42 756.18 578.69 656.03 677.92 827.17 698.28
00005606 00000096 535.35 197.46 451.43 639.28 650.46 414.20 882.56 436.36 760.19 571.51 658.67 680.92 828.07 697.60
00005607 00000097 534.63 202.24 452.13 638.10 649.81 415.47 881.47 436.88 759.06 574.05 658.15 683.34 827.28 699.56
00005608 00000098 534.76 193.99 451.81 645.72 650.24 416.70 882.09 439.01 760.15 575.63 657.59 683.88 828.42 700.82
00005609 00000099 533.62 200.18 452.57 639.72 649.30 415.81 881.38 437.80 759.04 574.09 657.53 683.71 828.03 700.45
00005610 00000100 533.32 198.33 452.52 640.45 649.06 414.61 881.02 435.55 759.15 572.30 658.07 682.62 827.83 698.43
00005611 00000101 531.18 191.94 455.84 649.90 645.89 418.54 875.16 441.87 754.97 579.19 654.81 680.18 826.68 700.18
00005612 00000102 528.90 188.56 457.48 652.32 645.64 417.41 875.46 441.51 754.32 576.85 653.53 678.79 824.81 699.45
00005613 00000103 528.57 188.15 456.39 649.38 645.51 415.95 875.08 440.70 754.50 573.85 652.92 675.91 824.04 697.02
00005614 00000104 526.80 193.03 456.85 643.49 645.32 415.04 873.55 439.95 753.88 572.74 652.08 674.52 821.85 695.91
00005615 00000105 524.91 191.37 458.34 644.10 645.23 414.03 873.66 439.98 753.79 572.66 650.89 672.70 821.39 694.98
00005616 00000106 524.86 191.01 458.32 645.39 644.99 413.63 873.45 439.74 753.54 571.64 650.83 672.39 821.89 694.66
00005617 00000107 523.36 186.82 458.36 648.16 645.07 413.04 873.21 440.62 753.00 572.65 648.27 669.39 820.88 692.85
00005618 00000108 522.82 186.45 456.28 649.24 644.48 414.08 871.95 440.54 752.73 573.43 648.16 670.59 820.03 693.06
00005619 00000109 522.39 184.88 456.00 654.40 643.15 415.83 871.02 442.72 750.21 575.45 645.61 673.03 818.46 695.78
00005620 00000110 520.78 190.41 454.55 653.63 641.49 417.54 869.95 444.71 748.12 578.80 643.15 676.84 816.25 699.97
00005621 00000111 520.64 191.42 455.41 652.71 641.14 417.14 869.90 444.26 747.74 579.07 643.33 677.04 816.20 700.17
00005622 00000112 518.29 191.40 456.31 657.34 640.50 419.94 869.42 447.10 746.35 583.00 640.44 679.43 814.98 702.65
00005623 00000113 516.48 193.48 456.78 658.66 639.79 421.56 867.47 449.43 745.33 586.21 637.86 682.04 811.21 705.97
00005624 00000114 512.03 198.49 457.60 654.04 637.47 421.57 865.04 449.07 743.30 586.68 637.28 682.41 808.11 706.05
00005625 00000115 508.92 202.28 457.29 648.98 634.97 422.60 862.89 448.20 741.92 586.67 636.34 682.52 806.44 704.82
00005626 00000116 508.47 201.59 458.14 651.11 635.57 422.46 863.16 448.28 742.84 586.03 636.43 682.42 806.85 704.90
00005627 00000117 506.18 198.65 458.26 651.38 634.67 422.81 862.00 448.42 742.15 585.08 634.40 680.52 804.65 702.85
00005628 00000118 505.95 196.03 455.47 652.48 633.87 422.37 860.85 448.07 741.37 582.74 634.17 679.49 803.87 701.83
00005629 00000119 504.89 196.58 454.81 648.87 632.50 421.74 860.13 447.67 740.25 580.10 633.34 677.96 802.74 700.53
00005630 00000120 503.98 197.80 454.90 647.00 631.03 421.06 859.71 446.99 738.68 578.21 632.05 677.45 801.66 700.12
00005631 00000121 504.43 197.85 454.24 646.29 631.08 421.18 859.46 446.96 738.02 578.26 632.11 677.10 801.48 699.66
00005632 00000122 503.11 197.22 454.51 646.92 630.18 421.51 858.60 446.78 738.14 576.84 631.88 677.26 800.43 699.46
00005633 00000123 502.54 199.13 454.90 644.85 629.13 421.46 858.61 445.94 737.46 576.42 631.46 677.63 800.50 699.28
00005634 00000124 502.18 201.12 454.84 642.06 628.62 421.65 857.50 445.62 737.31 576.97 631.50 677.65 799.66 698.96
00005635 00000125 501.87 200.96 455.12 642.07 628.71 421.86 857.83 446.17 736.65 577.22 630.68 677.42 799.85 698.97
00005636 00000126 501.72 201.08 455.20 642.04 628.70 421.94 857.84 446.20 736.78 577.24 630.71 677.45 799.84 698.99
00005637 00000127 502.85 200.84 454.71 641.87 628.83 421.82 858.74 446.66 735.94 577.59 629.71 676.92 799.93 698.92
00005638 00000128 503.25 199.49 453.67 643.17 628.50 421.45 858.11 446.51 735.41 577.42 629.30 676.64 799.54 698.78
00005639 00000129 503.27 199.89 454.06 642.52 628.75 422.56 857.65 447.45 735.94 577.23 629.48 676.98 798.74 698.96
00005640 00000130 502.95 199.84 454.61 642.47 627.54 422.29 857.55 447.37 734.85 577.84 628.43 677.20 798.49 699.33
00005641 00000131 502.97 199.83 454.63 642.52 627.54 422.28 857.54 447.37 734.86 577.85 628.43 677.21 798.48 699.36
00005642 00000132 503.84 199.47 454.26 641.37 626.46 422.34 857.44 447.26 734.57 577.98 627.64 676.94 798.55 698.94
00005643 00000133 501.22 200.28 455.37 642.60 626.86 423.33 856.80 449.40 735.08 578.84 626.16 676.77 797.22 699.69
00005644 00000134 500.93 197.59 454.05 647.36 625.46 425.09 856.00 451.89 734.16 582.38 623.72 679.50 796.04 702.91
00005645 00000135 499.49 199.89 455.53 651.23 623.70 427.21 855.23 454.82 730.52 588.70 620.27 683.02 794.91 707.10
00005646 00000136 499.49 199.72 455.50 651.52 623.71 427.12 855.22 454.71 730.49 588.71 620.29 683.00 794.88 707.08
00005647 00000137 496.05 202.49 458.30 652.40 617.92 429.09 850.42 457.38 721.17 590.42 614.12 687.77 786.62 712.62
00005648 00000138 487.09 209.95 467.23 641.86 604.66 427.56 842.62 463.66 711.07 598.95 608.07 686.28 783.81 717.37
00005649 00000139 483.67 197.18 464.98 651.27 604.70 431.05 834.66 462.54 700.06 590.79 601.31 692.46 773.10 716.24
00005650 00000140 479.80 203.65 463.07 645.86 596.85 431.90 827.21 467.43 688.81 591.76 590.74 693.31 764.43 720.73
00005651 00000141 479.57 204.25 463.22 644.12 596.72 432.68 826.91 467.59 688.62 591.71 590.72 693.02 765.00 719.95
00005652 00000142 476.88 206.46 461.47 644.86 592.29 433.40 822.41 470.26 682.55 594.02 584.94 693.56 760.86 722.35
00005653 00000143 474.43 206.76 460.54 644.03 589.41 433.31 818.43 470.13 678.13 595.05 582.69 693.40 757.66 722.41
00005654 00000144 473.20 206.09 460.81 643.60 587.80 432.53 817.86 470.29 676.55 594.60 581.18 692.37 756.47 722.24
00005655 00000145 472.67 206.62 460.69 642.83 587.30 431.20 817.31 468.52 676.94 593.96 580.44 690.50 756.85 720.08
00005656 00000146 472.75 206.96 460.71 642.14 587.03 431.32 817.11 468.36 676.73 594.05 580.25 690.54 756.99 719.88
00005657 00000147 472.90 202.71 461.04 645.28 587.36 429.53 817.94 466.05 677.05 593.38 580.77 689.09 757.91 717.98
00005658 00000148 472.68 198.12 459.98 657.51 583.42 426.11 812.51 465.07 672.60 596.56 577.71 686.56 756.47 717.67
00005659 00000149 472.26 195.94 460.09 658.39 582.22 425.85 811.03 464.17 672.67 595.84 577.21 686.29 755.38 716.92
00005660 00000150 471.05 198.89 461.17 655.75 581.34 425.53 810.59 463.03 672.37 595.43 577.23 686.32 755.41 716.34
00005661 00000151 469.73 197.99 462.91 657.48 581.40 424.17 811.62 462.83 672.54 595.55 577.18 686.30 755.27 717.20
00005662 00000152 470.01 198.09 461.56 657.81 580.94 424.05 811.09 462.08 672.18 595.27 576.64 686.18 756.28 716.57
00005663 00000153 469.85 196.50 462.32 658.01 581.50 424.84 811.80 461.94 673.80 594.51 577.83 684.20 759.45 713.71
00005664 00000154 467.83 199.82 464.47 655.22 580.79 425.49 810.80 461.57 674.86 594.84 578.61 680.58 764.31 709.02
00005665 00000155 465.70 201.62 462.07 645.89 584.65 438.17 810.22 467.35 681.56 592.57 579.42 672.76 771.26 696.08
CROP_BBOX: 208 0 1346 1046
