Video ID: 	qGNKtE8ByoI
H: 	1080
W: 	1920
FPS: 	23.976023976023978

FRAME INDEX X0 Y0 W H [Landmarks (5 Points)]

00034357 00000000 1041.43 111.28 441.91 654.67 1258.54 370.53 1440.48 373.19 1418.61 471.15 1281.64 599.24 1435.03 600.04
00034358 DELETE   1055.27 114.22 435.06 651.78 1277.44 365.20 1454.93 375.22 1435.88 472.13 1291.15 596.38 1441.10 604.61
00034359 00000002 1057.79 107.93 437.88 656.53 1286.36 356.63 1461.49 373.78 1443.99 465.12 1294.02 589.45 1442.33 604.19
00034360 00000003 1058.32 99.47 439.63 660.19 1291.83 352.75 1464.22 374.75 1448.69 462.79 1298.68 585.22 1442.41 603.53
00034361 00000004 1053.83 98.21 441.65 655.25 1291.18 352.69 1464.27 380.14 1445.32 461.83 1296.31 581.80 1437.95 604.12
00034362 00000005 1049.95 88.93 451.25 669.33 1277.64 348.41 1458.50 381.37 1424.14 466.67 1281.53 578.05 1429.68 604.86
00034363 00000006 1046.93 89.53 455.16 668.86 1278.35 346.55 1459.01 385.55 1419.22 466.25 1277.35 576.06 1422.62 607.91
00034364 00000007 1048.41 91.89 456.43 667.71 1280.37 346.66 1461.34 388.15 1421.21 467.16 1276.58 575.65 1422.85 609.76
00034365 00000008 1052.03 95.33 455.12 663.40 1289.29 347.18 1468.57 390.17 1435.61 466.52 1284.39 573.21 1431.99 608.77
00034366 00000009 1062.64 97.99 451.71 659.24 1304.47 348.51 1476.31 388.08 1450.68 464.26 1298.61 572.04 1440.86 605.61
00034367 DELETE   1081.24 104.89 445.66 653.28 1323.24 343.68 1492.61 395.05 1463.98 466.57 1309.13 564.95 1457.44 608.01
00034368 00000011 1094.68 113.08 437.35 655.20 1344.10 354.31 1500.27 405.69 1487.18 459.78 1326.16 565.63 1466.13 607.02
00034369 DELETE   1106.43 120.89 437.06 645.50 1365.79 355.78 1518.19 403.50 1504.61 466.74 1338.25 567.54 1477.96 607.12
00034370 DELETE   1115.81 118.13 435.39 642.53 1381.16 353.40 1531.54 406.10 1522.37 463.49 1354.42 563.01 1490.32 606.14
00034371 00000014 1128.20 116.78 429.64 640.18 1393.22 353.97 1537.88 400.81 1535.52 465.41 1370.15 565.09 1500.23 603.46
00034372 00000015 1136.16 117.21 429.97 643.24 1404.84 357.06 1545.21 397.16 1550.20 470.93 1383.33 570.68 1509.78 603.62
00034373 00000016 1149.37 118.71 424.88 643.11 1400.04 353.57 1550.20 398.47 1540.12 478.53 1384.44 574.23 1516.92 613.94
00034374 00000017 1157.73 119.00 423.21 653.64 1405.97 353.38 1552.75 401.56 1544.33 483.25 1384.83 575.36 1516.87 617.97
00034375 00000018 1158.94 117.19 426.47 662.05 1410.53 353.06 1555.18 400.02 1548.70 486.14 1382.98 576.75 1515.53 618.75
00034376 DELETE   1159.29 117.26 423.70 660.49 1408.18 353.31 1553.16 400.05 1545.11 485.71 1380.56 576.71 1512.44 618.62
00034377 DELETE   1150.95 115.98 427.38 659.17 1404.49 353.99 1550.11 400.14 1541.18 484.82 1379.55 575.29 1512.49 616.64
00034378 00000021 1139.83 125.42 429.62 648.26 1409.14 363.23 1543.34 397.91 1547.47 485.12 1377.06 579.39 1503.19 608.34
00034379 00000022 1131.72 118.29 428.00 649.80 1395.96 361.04 1538.35 399.86 1538.01 476.41 1365.64 575.58 1496.79 608.33
00034380 00000023 1111.10 112.80 436.06 650.00 1377.46 351.46 1525.42 399.04 1520.74 460.44 1355.70 566.62 1486.57 605.47
00034381 00000024 1089.72 105.29 440.40 648.55 1343.94 343.06 1499.82 395.50 1491.10 445.61 1337.13 553.24 1474.25 595.23
00034382 00000025 1062.06 81.59 447.14 662.72 1309.06 336.24 1475.92 371.56 1458.59 440.21 1311.54 555.69 1449.59 583.90
00034383 00000026 1042.66 80.44 443.54 654.30 1279.23 330.00 1454.73 363.84 1439.57 424.99 1284.78 548.69 1438.93 576.07
00034384 00000027 1027.21 73.71 444.93 651.83 1244.42 324.29 1423.62 347.08 1397.85 410.26 1256.45 539.95 1416.89 557.85
00034385 00000028 1001.22 72.57 452.69 644.05 1210.41 322.55 1399.17 339.55 1367.14 411.10 1236.53 540.43 1398.32 553.09
00034386 00000029 987.14 68.27 459.21 649.09 1185.63 322.73 1377.85 330.95 1341.34 396.75 1219.89 538.64 1386.77 544.27
00034387 00000030 978.61 70.72 454.13 641.91 1170.22 326.12 1365.04 331.68 1330.99 396.77 1209.71 543.17 1378.64 546.05
00034388 00000031 977.61 71.74 453.70 643.19 1164.29 325.27 1361.17 328.26 1325.69 395.29 1205.11 543.36 1377.93 544.21
00034389 00000032 977.67 73.84 454.52 646.67 1164.15 326.05 1361.34 325.27 1324.93 401.14 1206.25 548.35 1377.78 546.15
00034390 00000033 980.86 78.72 454.53 649.19 1166.94 333.71 1364.63 331.23 1327.70 409.88 1204.90 553.67 1378.30 550.45
00034391 00000034 986.57 87.14 454.46 649.67 1165.19 343.37 1361.85 338.20 1315.04 425.66 1201.23 559.68 1377.69 555.33
00034392 00000035 987.53 90.26 456.51 653.11 1163.79 348.39 1365.21 340.59 1314.75 433.09 1201.84 568.90 1379.39 562.60
00034393 00000036 988.85 95.96 452.35 650.14 1158.51 357.50 1358.07 342.34 1308.41 441.59 1201.56 576.68 1376.88 565.04
00034394 00000037 982.24 109.05 456.92 640.83 1154.15 364.23 1357.05 338.81 1312.76 448.52 1207.45 594.30 1375.18 570.83
00034395 00000038 979.04 120.56 454.72 646.88 1142.16 373.68 1347.83 350.31 1296.39 463.90 1196.96 610.37 1364.30 588.31
00034396 00000039 963.74 121.10 460.54 660.16 1122.16 378.33 1335.79 356.79 1274.83 474.39 1175.88 618.66 1350.82 598.04
00034397 00000040 955.12 121.57 460.11 666.22 1110.76 383.03 1321.25 365.21 1257.71 477.95 1159.49 618.00 1335.05 600.35
00034398 00000041 948.02 120.59 462.07 667.40 1101.60 381.99 1312.74 364.15 1248.13 473.34 1149.36 615.09 1329.86 597.66
00034399 00000042 936.99 119.25 467.55 662.02 1091.38 381.52 1303.34 356.94 1235.40 472.41 1143.12 610.96 1321.83 590.84
00034400 00000043 931.07 113.12 468.91 661.86 1088.69 376.45 1297.27 353.26 1230.68 462.98 1141.44 604.27 1316.68 585.06
00034401 00000044 927.59 106.41 466.36 658.52 1084.30 369.69 1289.14 347.66 1223.50 451.07 1135.34 592.70 1310.80 574.81
00034402 00000045 922.18 98.50 465.36 658.21 1075.27 363.15 1282.88 340.37 1213.62 444.47 1121.82 584.94 1302.84 567.14
00034403 00000046 919.76 95.06 463.08 650.62 1071.63 354.00 1279.35 336.54 1206.51 438.96 1113.53 575.96 1293.73 562.26
00034404 00000047 917.72 88.00 459.85 649.81 1065.72 349.51 1277.27 334.43 1198.60 438.05 1103.37 568.80 1291.30 556.66
00034405 00000048 909.59 86.36 467.12 651.54 1056.62 354.59 1270.93 332.17 1195.54 441.15 1102.16 576.03 1288.76 556.51
00034406 00000049 906.00 90.32 469.72 656.71 1050.26 361.37 1264.96 337.07 1188.17 448.23 1098.66 586.68 1282.54 565.40
00034407 00000050 905.62 99.19 468.67 665.58 1045.43 368.06 1262.02 337.92 1186.42 452.97 1095.66 599.17 1279.14 571.18
00034408 00000051 903.76 104.03 470.37 666.36 1042.83 372.04 1260.12 342.77 1181.93 456.46 1091.03 600.97 1278.39 574.01
00034409 00000052 907.79 108.49 468.64 660.05 1043.08 374.64 1261.82 343.73 1181.59 456.63 1092.04 602.13 1282.77 573.70
00034410 00000053 916.76 100.09 460.41 663.41 1046.41 367.86 1265.00 340.36 1179.32 449.82 1088.40 589.89 1289.12 567.35
00034411 00000054 924.07 92.24 461.41 658.95 1057.28 358.40 1271.58 334.73 1187.21 443.75 1098.06 580.47 1293.04 561.82
00034412 00000055 934.74 91.21 461.97 649.17 1075.71 345.67 1287.52 331.37 1205.59 430.66 1109.17 566.47 1301.13 555.40
00034413 00000056 947.26 83.18 460.12 651.98 1088.71 334.96 1304.28 326.27 1223.92 421.34 1116.44 555.26 1313.81 548.84
00034414 00000057 955.88 75.53 461.90 661.75 1100.37 327.30 1316.63 325.63 1235.06 413.13 1121.88 550.05 1322.68 548.90
00034415 00000058 965.72 75.36 463.79 656.02 1109.40 329.63 1328.12 327.62 1242.40 414.23 1131.28 550.76 1331.68 548.30
00034416 00000059 976.83 73.84 461.43 655.17 1123.10 334.38 1340.44 330.31 1257.33 426.04 1148.29 558.10 1341.84 554.37
00034417 00000060 984.67 88.37 463.79 644.40 1134.06 344.76 1350.32 332.76 1271.42 433.53 1165.98 567.78 1352.43 555.79
00034418 00000061 992.77 93.37 460.56 646.14 1145.63 350.70 1355.07 341.73 1277.54 442.64 1178.23 572.08 1360.74 565.48
00034419 00000062 1001.92 104.10 462.56 643.88 1152.72 358.79 1366.90 348.83 1286.82 453.58 1188.31 583.73 1371.93 576.15
00034420 00000063 1009.32 106.46 464.23 639.92 1158.82 366.20 1376.22 352.59 1294.89 459.34 1196.13 588.38 1383.45 577.49
00034421 00000064 1016.66 107.73 464.66 647.94 1167.37 366.04 1380.85 355.98 1300.98 458.67 1201.63 589.13 1387.05 580.83
00034422 00000065 1028.74 111.88 461.98 657.03 1175.49 361.19 1390.71 350.35 1311.26 451.83 1210.70 594.76 1393.87 582.59
00034423 00000066 1031.55 112.47 464.51 654.24 1178.81 354.89 1395.09 343.67 1315.64 448.15 1215.22 591.25 1399.10 579.06
00034424 00000067 1034.15 108.47 465.21 655.33 1182.67 351.52 1398.97 338.92 1320.35 443.75 1220.50 588.27 1401.94 574.86
00034425 00000068 1032.63 105.38 465.10 656.82 1183.00 349.12 1397.67 334.83 1322.32 442.42 1224.73 587.51 1401.83 572.49
00034426 00000069 1023.97 99.86 467.62 663.05 1179.09 348.68 1393.71 333.33 1321.46 438.03 1224.29 586.89 1401.81 570.48
00034427 00000070 1014.58 94.15 468.27 658.81 1168.21 355.22 1377.98 340.73 1307.46 443.16 1211.40 583.12 1392.56 570.96
00034428 00000071 1002.69 95.61 469.87 661.41 1153.03 360.39 1364.04 338.57 1292.12 444.24 1200.86 589.29 1383.25 571.99
00034429 00000072 993.49 95.79 467.28 663.76 1135.44 370.50 1343.24 339.27 1270.30 448.13 1186.70 593.78 1369.07 569.34
00034430 00000073 984.23 96.28 468.32 668.36 1120.63 373.39 1331.05 342.35 1250.48 451.86 1171.32 599.33 1353.27 574.31
00034431 00000074 973.06 98.11 474.81 666.85 1105.41 377.04 1319.54 344.21 1236.52 455.05 1162.53 602.79 1342.98 574.43
00034432 00000075 964.37 100.38 479.47 658.32 1098.70 373.52 1314.19 339.64 1232.88 450.60 1157.95 597.21 1340.84 567.81
00034433 00000076 965.46 96.14 474.57 653.94 1098.75 369.41 1314.00 334.96 1234.62 444.19 1155.75 589.57 1342.57 559.75
00034434 00000077 969.35 95.26 470.02 643.99 1101.63 365.05 1318.26 333.16 1235.80 439.59 1155.56 584.54 1341.86 556.84
00034435 00000078 972.61 90.85 469.65 635.91 1110.68 357.77 1324.48 331.18 1245.60 431.22 1163.50 575.63 1343.76 552.25
00034436 00000079 975.18 86.21 469.62 637.20 1118.79 350.81 1333.28 327.33 1256.59 425.53 1170.48 570.41 1351.66 549.72
00034437 00000080 979.47 86.69 469.89 637.87 1125.30 351.49 1338.28 327.09 1264.88 425.72 1181.90 574.08 1357.31 552.63
00034438 00000081 982.68 89.20 469.22 639.28 1128.80 355.01 1340.43 329.47 1268.03 429.04 1184.93 577.12 1359.94 554.73
00034439 00000082 986.92 94.35 460.49 642.13 1127.34 359.99 1338.41 333.84 1260.00 433.38 1176.01 576.16 1359.53 555.38
00034440 00000083 985.91 99.67 461.09 646.22 1121.68 371.23 1336.61 342.47 1254.11 445.75 1168.66 587.04 1356.14 564.32
00034441 00000084 980.11 108.23 467.14 659.79 1114.38 378.83 1330.25 351.80 1242.90 453.55 1157.49 599.55 1347.16 577.51
00034442 00000085 972.00 117.96 471.44 660.09 1100.26 384.06 1321.19 352.20 1232.62 457.72 1149.86 612.21 1337.81 584.49
00034443 00000086 963.59 126.74 470.55 652.89 1079.52 384.18 1298.98 357.32 1203.76 465.26 1129.33 615.59 1316.24 591.77
00034444 00000087 953.48 113.49 475.93 680.23 1058.28 392.35 1271.66 359.54 1162.08 478.30 1102.01 623.47 1286.25 596.11
00034445 00000088 948.15 127.23 472.36 672.56 1038.83 397.83 1260.90 367.25 1141.34 487.63 1080.03 634.76 1270.88 608.97
00034446 00000089 942.65 136.42 475.66 664.52 1030.14 412.33 1238.73 379.65 1121.07 500.92 1079.28 643.95 1242.44 616.45
00034447 00000090 935.60 136.82 484.65 667.71 1024.64 421.44 1226.91 384.94 1108.90 513.15 1069.80 646.16 1236.11 616.62
00034448 00000091 934.05 143.35 485.94 664.42 1021.26 424.41 1228.20 391.12 1108.63 524.90 1062.72 648.79 1238.07 621.84
00034449 00000092 936.05 147.90 484.86 662.57 1023.55 428.18 1234.44 396.56 1114.49 532.93 1066.80 651.33 1245.00 625.27
00034450 00000093 941.19 157.90 478.12 655.32 1029.77 424.55 1245.05 396.24 1126.27 530.33 1074.73 652.21 1260.49 628.37
00034451 00000094 945.92 156.74 485.02 662.33 1037.33 422.25 1253.23 392.75 1135.33 528.36 1085.63 655.31 1269.38 630.90
00034452 00000095 949.75 155.64 483.49 662.19 1042.50 420.09 1256.78 392.38 1141.73 527.65 1089.48 653.26 1272.94 630.02
00034453 00000096 953.82 149.09 488.42 673.33 1047.15 425.62 1254.88 396.59 1135.74 529.71 1086.53 651.07 1265.51 626.58
00034454 00000097 951.66 147.32 488.43 675.24 1042.41 427.70 1251.74 396.68 1130.70 531.09 1081.33 651.34 1264.52 625.50
00034455 00000098 947.99 157.08 487.04 664.59 1036.46 429.51 1246.84 397.61 1125.95 533.90 1079.54 653.42 1262.23 626.39
00034456 00000099 944.04 159.00 485.47 671.75 1031.42 433.85 1239.00 399.38 1119.98 535.75 1076.91 659.20 1256.84 629.56
00034457 00000100 940.54 159.41 487.23 675.53 1029.21 432.50 1234.95 396.84 1117.77 534.93 1078.02 660.96 1254.46 630.56
00034458 00000101 937.92 156.87 488.53 676.52 1028.41 429.40 1232.09 393.47 1117.24 533.87 1079.09 659.01 1253.48 628.36
00034459 00000102 940.97 150.79 489.33 678.07 1032.13 425.56 1237.96 388.41 1121.58 526.18 1080.56 654.57 1259.32 622.81
00034460 00000103 943.31 154.37 482.23 666.97 1036.17 418.41 1248.28 383.00 1133.02 512.18 1081.48 648.82 1269.78 619.70
00034461 00000104 955.25 149.90 476.46 661.38 1050.30 406.54 1261.02 378.55 1147.87 501.59 1090.94 638.08 1277.82 614.63
00034462 00000105 970.52 135.29 469.99 665.75 1065.41 397.26 1278.31 377.46 1164.98 490.93 1102.49 628.57 1288.43 611.76
00034463 00000106 991.10 119.26 474.05 663.82 1089.86 391.20 1302.05 369.45 1185.72 472.74 1123.47 617.82 1298.87 599.29
00034464 00000107 1010.67 120.83 468.60 652.40 1112.34 386.98 1328.51 372.41 1209.06 468.27 1137.90 609.42 1320.43 596.43
00034465 00000108 1018.64 118.14 468.94 666.17 1131.95 374.88 1350.86 368.56 1232.57 471.91 1145.97 610.13 1335.08 605.13
00034466 00000109 1041.84 128.37 454.01 652.65 1151.89 371.41 1372.81 377.58 1260.34 470.62 1164.92 607.78 1355.12 612.16
00034467 00000110 1049.35 133.12 459.50 643.99 1162.64 374.08 1385.81 385.19 1271.10 477.20 1179.84 609.76 1364.67 617.70
00034468 00000111 1057.30 131.37 464.73 644.71 1179.49 376.90 1397.55 392.86 1283.13 487.72 1191.59 609.75 1369.92 621.34
00034469 00000112 1067.64 124.08 462.01 661.95 1194.69 384.56 1411.13 396.34 1296.93 488.92 1196.45 614.26 1375.11 624.32
00034470 00000113 1074.99 131.90 465.91 661.63 1200.91 386.83 1418.93 396.20 1302.75 493.93 1203.82 618.46 1385.81 626.70
00034471 00000114 1078.30 133.99 470.26 663.91 1203.38 391.46 1420.96 396.85 1304.05 493.84 1208.23 621.17 1391.75 625.94
00034472 00000115 1078.35 136.52 470.39 659.43 1202.88 392.40 1420.00 397.19 1302.47 493.28 1207.03 620.62 1391.39 624.83
00034473 00000116 1073.11 136.12 469.84 659.73 1198.63 392.75 1414.15 398.66 1298.64 491.86 1202.31 620.89 1383.92 625.99
00034474 00000117 1062.60 135.63 464.61 656.20 1179.68 391.25 1398.60 400.78 1279.29 492.88 1190.18 618.60 1376.90 624.86
00034475 00000118 1051.66 141.03 464.79 656.73 1163.64 391.44 1382.81 396.61 1264.38 490.53 1177.73 623.05 1366.82 625.74
00034476 00000119 1044.28 143.48 462.62 655.40 1152.97 391.77 1369.32 397.08 1250.68 491.34 1163.79 624.82 1352.08 627.88
00034477 00000120 1031.25 141.05 465.08 656.67 1142.34 393.98 1359.92 399.21 1241.46 497.85 1149.12 620.90 1345.18 624.37
00034478 00000121 1014.89 138.92 468.36 657.27 1128.73 396.02 1348.96 401.55 1230.63 502.69 1132.62 620.64 1331.07 624.51
00034479 00000122 1003.05 139.15 475.90 652.90 1109.96 405.46 1328.19 399.55 1210.34 497.85 1128.21 625.80 1316.22 620.09
00034480 00000123 995.25 140.82 473.87 649.11 1100.63 400.56 1318.07 391.82 1200.08 497.17 1126.24 629.27 1304.36 621.52
00034481 00000124 989.06 136.03 466.99 656.60 1095.31 388.71 1317.04 385.17 1197.67 488.37 1118.75 625.85 1303.77 621.08
CROP_BBOX: 707 0 1781 988
