Video ID: 	kGg_6BGIHuM
H: 	1080
W: 	1920
FPS: 	25.0

FRAME INDEX X0 Y0 W H [Landmarks (5 Points)]

00016924 00000000 519.20 274.57 348.57 479.89 612.59 459.62 781.22 467.18 693.51 571.77 626.32 642.96 753.54 649.19
00016925 00000001 515.34 279.12 372.26 507.43 625.40 473.53 795.34 483.75 718.78 595.52 646.07 672.85 763.48 682.22
00016926 00000002 529.33 285.51 370.60 504.00 639.49 476.99 813.47 485.87 731.70 597.90 659.48 671.50 784.61 679.37
00016927 00000003 545.87 299.32 356.95 492.62 651.39 480.98 818.55 493.29 736.73 602.28 657.24 667.78 790.63 678.72
00016928 00000004 548.78 295.65 356.00 487.24 654.25 472.39 822.65 487.70 739.80 595.11 653.62 661.17 791.33 674.72
00016929 00000005 548.44 281.40 353.74 483.25 654.51 454.97 825.52 473.31 741.02 577.40 654.08 645.28 791.26 661.58
00016930 00000006 547.73 260.86 358.27 490.55 656.90 439.01 827.07 456.43 741.25 560.81 658.06 630.76 795.26 647.27
00016931 00000007 548.91 246.62 357.20 490.27 658.97 425.77 827.52 443.82 741.94 538.59 661.74 613.28 794.35 628.82
00016932 00000008 545.14 233.15 358.11 494.49 656.38 414.37 821.03 427.81 743.36 521.07 664.58 601.84 795.46 613.52
00016933 00000009 543.52 221.69 358.79 495.73 648.93 403.27 823.77 413.03 741.59 511.68 665.96 594.61 800.85 603.69
00016934 00000010 537.73 209.83 361.19 494.53 643.79 394.39 819.91 408.87 739.67 503.32 666.35 586.06 798.55 598.50
00016935 00000011 534.54 201.38 362.79 502.33 640.26 388.97 819.65 402.76 738.46 496.77 664.19 584.65 800.57 596.52
00016936 00000012 532.96 197.06 353.83 497.39 634.87 385.61 811.22 396.36 728.88 490.84 655.43 579.02 791.96 588.91
00016937 00000013 528.14 196.67 356.22 499.10 634.35 382.73 807.26 390.54 731.34 484.47 654.82 574.01 789.01 581.29
00016938 00000014 526.63 190.08 355.39 500.64 631.73 379.70 805.16 384.19 731.52 480.82 655.66 573.40 789.63 577.52
00016939 00000015 525.39 184.71 355.28 502.81 631.16 378.93 804.49 380.82 733.79 477.95 656.48 571.23 793.08 572.99
00016940 00000016 526.50 183.42 356.00 502.30 632.86 380.94 804.63 379.43 737.53 473.77 659.57 569.05 797.43 567.98
00016941 DELETE   531.66 185.00 353.23 498.10 639.24 389.07 802.94 384.67 742.57 471.85 664.31 565.33 800.74 562.48
00016942 DELETE   535.91 179.57 351.29 499.06 644.77 388.84 807.09 383.45 749.04 467.17 670.62 562.16 807.00 558.90
00016943 00000019 539.12 174.95 352.62 498.25 647.18 382.97 815.46 371.86 757.55 460.95 678.54 560.71 818.29 552.34
00016944 00000020 537.76 174.11 353.35 497.49 645.32 377.68 816.72 364.53 757.82 457.17 680.35 560.40 820.17 550.05
00016945 00000021 536.67 172.92 353.58 498.71 643.70 375.81 815.72 362.20 756.29 456.51 678.38 559.72 819.35 549.09
00016946 00000022 536.49 173.78 353.47 497.56 644.58 376.46 816.48 360.50 758.80 455.65 681.02 560.61 821.70 548.03
00016947 00000023 536.95 173.30 353.60 498.44 645.74 376.46 818.42 358.92 761.34 456.68 682.55 561.63 824.09 547.78
00016948 00000024 537.00 173.46 353.48 498.23 645.32 375.64 817.44 358.47 760.35 456.61 682.61 561.41 823.19 547.92
00016949 00000025 536.30 173.12 354.27 500.84 645.40 375.45 817.15 357.86 760.38 456.99 683.43 563.94 821.25 549.88
00016950 00000026 537.31 172.39 354.00 501.46 647.56 376.02 819.70 356.15 765.08 455.49 688.35 565.99 825.15 549.82
00016951 00000027 537.84 171.43 353.99 501.19 647.79 375.85 822.41 354.11 767.17 455.02 688.69 564.84 830.16 547.22
00016952 00000028 536.77 171.10 353.58 502.56 646.58 376.92 820.22 354.81 765.90 455.24 687.29 565.02 828.62 547.09
00016953 00000029 534.62 172.64 355.46 504.95 645.90 378.55 816.77 354.62 764.97 456.43 687.77 567.21 826.19 547.58
00016954 00000030 532.40 173.59 357.34 505.72 645.97 378.80 815.87 353.88 765.80 455.82 689.12 568.46 825.16 548.03
00016955 00000031 531.13 173.43 356.69 505.04 644.78 379.57 813.35 353.38 765.18 454.34 690.00 568.40 824.51 546.68
00016956 00000032 528.78 172.42 356.57 504.12 642.16 379.84 813.28 353.40 764.71 454.79 688.80 568.44 826.19 546.32
00016957 00000033 527.77 171.80 356.81 504.78 641.13 380.64 811.30 353.53 763.39 454.37 688.49 568.52 825.11 545.87
00016958 00000034 525.12 173.20 360.44 508.54 641.65 379.82 810.68 352.99 764.25 451.78 689.85 569.90 823.27 547.28
00016959 00000035 523.23 174.00 362.33 509.28 641.72 379.15 807.83 352.40 763.66 450.18 690.48 568.31 820.52 545.91
00016960 00000036 522.67 172.60 361.69 509.35 640.09 380.10 806.24 352.11 761.74 452.12 689.24 568.27 820.49 544.94
00016961 00000037 518.45 174.33 363.56 507.02 637.23 379.59 803.81 351.88 759.18 453.18 685.70 567.16 818.70 544.07
00016962 00000038 516.14 174.95 363.60 504.07 636.38 379.35 802.70 352.52 758.05 454.41 681.56 563.91 816.91 541.83
00016963 00000039 512.99 174.40 364.82 505.14 633.38 380.08 799.89 352.89 755.96 454.95 678.95 564.62 815.36 542.17
00016964 00000040 512.65 173.10 364.37 507.38 631.65 380.90 798.31 352.48 753.98 456.36 678.77 566.00 815.22 542.42
00016965 00000041 511.14 172.04 364.88 509.46 629.84 381.69 796.89 353.22 752.81 457.00 677.92 567.21 815.08 543.50
00016966 00000042 508.97 173.35 364.90 509.01 627.99 383.48 793.47 354.94 750.84 459.27 676.18 568.83 811.72 545.22
00016967 00000043 510.01 175.85 361.12 506.43 630.14 393.86 788.84 366.29 747.52 461.50 676.81 569.22 808.00 546.73
00016968 00000044 509.93 176.56 360.87 505.76 631.10 394.50 787.50 364.84 748.58 461.44 679.55 569.40 807.61 545.34
00016969 00000045 509.51 174.84 362.60 508.16 629.22 392.31 790.19 360.13 750.85 458.96 680.45 569.94 812.86 543.37
00016970 00000046 508.67 174.14 363.88 508.30 628.56 387.91 791.17 355.83 751.62 457.55 681.50 569.48 813.65 542.73
00016971 00000047 507.87 174.18 362.53 507.80 627.67 385.28 790.83 353.51 751.67 460.15 681.93 571.41 811.61 544.96
00016972 00000048 507.97 176.47 361.62 507.99 627.07 384.38 789.76 353.54 749.68 462.74 681.25 572.93 808.79 547.56
00016973 00000049 507.91 178.56 360.75 506.70 626.38 384.61 788.99 353.72 748.54 464.91 681.12 574.59 807.44 549.20
00016974 00000050 509.31 178.12 361.22 510.03 628.17 384.51 790.23 353.12 751.32 466.82 685.98 577.11 810.08 550.98
00016975 00000051 508.99 178.75 361.86 509.15 627.16 386.23 791.31 353.51 752.29 468.03 685.88 578.50 812.99 551.05
00016976 00000052 508.46 179.08 362.21 507.45 626.65 386.94 791.31 353.88 751.50 468.49 684.00 577.98 812.19 550.37
00016977 00000053 509.64 179.73 362.16 508.96 627.17 387.06 791.13 354.20 750.70 468.21 684.46 577.93 812.37 550.48
00016978 00000054 509.88 180.45 361.86 508.44 627.65 385.99 790.38 354.18 749.37 468.29 683.09 576.45 809.99 550.05
00016979 00000055 509.23 181.51 362.72 507.61 627.40 385.84 789.34 354.15 748.01 467.12 681.61 575.16 809.40 549.05
00016980 00000056 508.71 182.52 363.79 506.53 626.88 386.22 789.31 353.88 747.89 467.20 681.65 575.07 810.17 548.35
00016981 00000057 508.94 183.17 362.84 505.27 626.26 386.84 789.12 355.00 746.73 468.23 678.85 574.15 809.70 547.91
00016982 00000058 507.49 183.13 364.17 504.50 626.20 386.97 788.96 354.56 747.33 467.88 678.03 573.55 809.04 546.99
00016983 00000059 507.88 182.07 363.54 505.82 625.87 387.11 788.73 353.95 747.35 467.43 677.84 572.89 810.09 545.76
00016984 00000060 506.84 182.49 364.48 506.71 625.26 386.10 788.53 353.81 746.86 466.98 677.68 572.35 810.24 545.91
00016985 00000061 504.87 182.04 365.70 508.72 624.37 385.48 787.60 353.68 746.34 465.68 677.90 573.54 809.14 547.35
00016986 00000062 503.71 182.72 366.03 508.16 624.01 385.10 787.14 353.60 745.88 465.81 677.44 573.52 808.54 547.63
00016987 00000063 503.53 182.32 365.56 507.96 623.93 385.16 786.83 353.54 745.20 465.88 677.04 573.76 807.78 547.86
00016988 00000064 504.48 181.24 364.66 507.93 622.86 386.30 786.46 353.05 745.39 466.96 677.29 575.06 808.35 547.77
00016989 00000065 502.70 180.45 364.63 507.18 621.29 386.83 786.77 353.51 744.59 467.99 675.41 576.54 807.23 549.18
00016990 00000066 501.92 181.89 365.23 504.51 620.79 386.91 786.25 353.37 744.28 468.03 675.97 576.56 806.95 549.04
00016991 00000067 501.66 181.04 365.72 505.15 620.43 387.66 786.06 354.09 744.03 468.11 675.23 576.30 807.24 548.75
00016992 00000068 501.56 181.27 365.09 503.87 620.18 387.70 786.01 353.75 744.17 467.99 674.63 576.13 807.27 548.32
00016993 00000069 500.59 181.03 365.93 503.81 619.99 387.38 785.68 353.16 744.11 467.51 674.09 575.39 807.19 547.40
00016994 00000070 500.37 180.74 365.49 503.22 619.14 386.81 785.12 352.57 743.06 467.26 673.29 574.86 806.83 546.83
00016995 00000071 500.16 180.97 365.84 503.42 619.55 386.53 785.38 352.12 743.41 466.78 673.64 575.19 806.26 547.08
00016996 00000072 500.54 180.23 364.07 505.47 620.89 385.11 785.10 351.35 744.38 467.60 676.40 577.17 803.91 549.64
00016997 00000073 500.16 180.45 365.26 505.23 620.12 385.54 785.89 351.48 744.33 467.20 677.03 577.71 806.23 549.65
00016998 00000074 499.62 180.03 365.51 504.69 619.93 385.15 785.92 350.23 745.02 466.72 677.48 577.70 806.34 548.91
00016999 00000075 499.48 180.16 365.67 504.82 619.46 385.72 785.42 350.64 744.23 466.98 676.96 577.91 806.19 549.01
00017000 00000076 499.49 181.13 364.86 505.09 620.29 384.70 785.52 351.57 743.94 466.71 676.79 577.57 804.44 550.44
00017001 00000077 499.89 179.98 363.38 506.63 620.53 384.84 784.28 352.62 742.78 467.84 675.87 577.31 802.01 551.16
00017002 00000078 501.77 182.02 360.16 504.25 622.86 395.50 781.40 361.30 742.33 468.16 675.27 576.94 801.09 549.65
00017003 00000079 503.06 182.28 361.21 505.68 624.89 398.21 780.40 365.27 742.19 468.14 677.44 576.17 801.49 550.01
00017004 00000080 503.78 181.76 360.07 506.24 624.61 394.81 781.92 360.97 744.02 466.68 679.07 576.25 803.47 549.18
00017005 00000081 503.11 179.65 360.79 506.79 623.62 390.74 784.63 356.09 745.47 466.76 679.40 576.30 805.94 548.20
00017006 00000082 501.27 178.56 364.56 506.22 622.40 388.29 786.30 352.80 746.88 466.01 678.66 575.59 808.42 546.49
00017007 00000083 500.90 177.38 365.51 506.36 622.87 386.81 786.42 351.23 748.21 465.45 678.48 574.32 808.28 545.26
00017008 00000084 501.47 176.56 364.75 505.89 622.48 385.88 786.01 350.58 747.81 464.10 678.26 573.86 807.91 544.87
00017009 00000085 501.27 174.84 365.40 504.90 622.68 385.10 785.49 349.11 747.89 461.04 678.62 572.44 807.99 542.73
00017010 00000086 500.83 173.96 364.99 504.16 622.46 384.80 784.57 348.72 747.56 458.75 678.86 571.25 807.64 541.41
00017011 00000087 500.72 173.13 365.41 506.02 621.68 384.37 784.27 348.93 746.57 458.56 677.34 570.72 807.63 541.44
00017012 00000088 501.13 172.64 364.91 505.21 622.20 383.76 784.24 348.26 746.79 457.80 678.02 570.11 807.34 540.80
00017013 00000089 500.97 173.66 365.03 504.97 621.84 383.77 784.61 348.56 746.66 458.35 677.16 570.39 807.26 541.32
00017014 00000090 500.63 173.38 365.05 505.07 621.79 383.88 784.59 348.60 746.77 458.39 676.87 570.36 807.35 541.26
00017015 00000091 500.52 172.66 365.16 506.38 621.54 383.85 784.53 348.83 746.32 458.49 676.02 570.19 807.27 541.33
00017016 00000092 500.52 173.06 364.93 505.81 621.62 383.67 784.80 348.64 746.50 458.55 676.24 570.22 807.10 541.32
00017017 00000093 500.30 173.37 365.18 505.56 621.78 383.97 784.55 349.02 746.60 458.68 676.40 570.35 806.88 541.59
00017018 00000094 500.80 172.66 364.51 506.21 621.79 383.77 784.66 348.86 746.52 458.27 676.17 570.25 806.96 541.56
00017019 00000095 501.39 172.61 364.20 506.27 621.84 383.34 784.56 347.89 746.17 457.62 677.79 570.81 807.07 541.61
00017020 00000096 501.39 172.91 363.16 507.07 622.27 382.27 784.46 347.69 746.28 458.22 678.13 571.80 805.67 543.49
00017021 00000097 500.83 173.60 362.94 509.38 622.70 381.53 784.14 347.66 746.89 458.90 678.54 572.41 804.99 544.90
00017022 00000098 500.85 174.03 362.82 508.80 623.20 381.86 783.76 348.47 746.74 458.65 678.95 572.28 804.47 545.22
00017023 00000099 500.79 174.79 363.49 509.60 623.08 382.07 783.65 348.66 746.49 459.15 679.36 572.76 804.95 545.70
00017024 00000100 499.86 176.52 363.86 508.80 622.16 382.49 783.52 348.78 745.78 460.04 678.61 573.62 804.71 546.27
00017025 00000101 498.49 177.54 365.59 506.51 621.76 382.77 782.10 348.90 744.52 459.19 678.33 572.99 803.60 545.51
00017026 00000102 497.90 176.95 365.32 507.22 620.75 383.03 781.56 348.48 743.69 458.80 677.32 573.13 803.20 545.10
00017027 00000103 497.84 177.45 364.86 506.78 620.93 382.84 781.83 348.42 744.04 458.87 676.55 572.93 802.87 545.11
00017028 00000104 497.77 177.00 364.83 507.22 620.81 382.99 781.86 348.30 744.23 459.08 676.56 573.08 803.33 545.04
00017029 00000105 497.11 176.64 365.05 507.92 620.58 382.76 781.50 348.58 743.87 458.56 675.79 572.58 802.88 544.97
00017030 00000106 496.00 177.08 365.59 506.36 619.45 382.83 780.92 348.25 742.73 458.85 675.26 573.07 802.43 545.06
00017031 00000107 495.22 177.69 365.51 505.21 618.86 382.74 780.51 348.45 742.37 459.95 674.04 573.50 801.00 545.72
00017032 00000108 495.06 176.95 365.56 504.12 618.45 382.97 780.63 348.60 741.92 459.60 673.37 573.39 800.81 545.46
00017033 00000109 494.84 176.83 366.27 502.64 618.42 383.17 781.00 349.07 741.97 459.41 673.16 573.04 800.89 545.25
00017034 00000110 493.86 177.60 367.10 500.78 617.74 383.30 779.92 348.55 741.47 458.33 673.04 572.88 800.30 544.48
CROP_BBOX: 211 0 1125 922
