Video ID: 	dD2u0dwj26g
H: 	1080
W: 	1920
FPS: 	30.0

FRAME INDEX X0 Y0 W H [Landmarks (5 Points)]

00014038 00000000 725.17 226.75 397.99 516.51 813.09 408.36 999.76 412.12 875.92 488.30 814.30 602.80 979.96 607.30
00014039 00000001 723.30 226.10 399.67 517.53 813.58 412.24 1000.35 414.32 878.91 491.18 818.12 605.38 980.95 607.91
00014040 DELETE   730.18 227.13 399.44 514.15 825.72 408.20 1019.16 413.90 900.91 488.69 828.83 602.96 994.18 608.73
00014041 DELETE   744.32 220.50 392.05 515.46 847.25 406.46 1041.44 411.17 935.01 489.86 856.28 604.52 1013.71 608.33
00014042 DELETE   749.08 215.76 403.36 523.79 869.75 402.09 1066.85 412.64 969.14 485.42 890.49 598.35 1047.30 607.11
00014043 00000005 763.46 223.54 402.48 535.57 891.05 395.99 1081.13 402.96 995.42 486.00 908.91 602.33 1048.24 607.10
00014044 00000006 766.96 224.92 402.19 530.99 899.48 396.75 1091.04 409.39 1005.39 478.82 914.72 601.74 1055.34 610.92
00014045 00000007 762.37 203.21 408.47 550.53 899.35 390.14 1102.12 418.83 1006.87 479.69 905.32 593.06 1071.98 617.48
00014046 00000008 762.60 205.19 408.09 543.23 897.87 389.13 1101.11 418.98 1003.72 478.28 903.01 589.54 1071.32 614.82
00014047 00000009 759.53 207.19 410.46 544.22 893.87 387.42 1098.91 420.01 996.87 479.55 895.52 589.55 1065.87 616.77
00014048 00000010 758.27 211.48 411.43 543.73 892.67 388.76 1097.04 421.32 993.71 481.95 891.24 592.37 1060.09 619.33
00014049 00000011 767.35 228.32 399.53 524.20 895.07 395.88 1086.28 420.46 987.74 487.02 891.73 595.36 1046.88 615.30
00014050 00000012 767.16 228.15 396.86 522.79 896.03 396.22 1083.64 422.90 985.06 490.34 885.15 594.60 1043.70 616.58
00014051 00000013 766.34 228.38 397.33 520.71 894.82 395.83 1081.25 422.90 982.35 489.89 880.82 593.52 1042.34 615.90
00014052 00000014 766.38 226.00 397.21 522.81 893.82 394.16 1080.09 420.51 980.74 488.52 879.15 592.70 1040.95 614.59
00014053 00000015 764.79 226.68 397.75 522.04 892.40 392.66 1078.87 417.95 979.05 488.74 877.99 592.63 1040.46 613.49
00014054 00000016 756.18 218.06 405.64 524.62 881.93 383.77 1085.77 414.73 978.06 479.08 876.61 587.73 1047.94 613.53
00014055 00000017 754.87 217.86 405.54 518.41 880.27 385.95 1083.91 412.96 976.70 477.09 879.04 587.09 1046.58 609.44
00014056 00000018 760.05 222.88 401.83 514.41 885.87 390.99 1076.08 410.09 976.20 482.34 885.12 591.71 1037.93 606.58
00014057 00000019 759.66 223.62 400.74 514.91 885.28 389.73 1073.73 407.56 975.05 481.33 885.62 592.94 1032.46 606.92
00014058 00000020 756.94 223.61 402.49 516.83 884.00 388.11 1072.32 404.64 976.28 481.36 886.29 594.00 1029.02 606.86
00014059 00000021 757.05 225.23 401.97 515.88 883.44 387.01 1070.80 401.27 977.48 480.86 890.10 593.57 1028.73 604.66
00014060 00000022 756.18 226.10 403.44 512.91 883.43 389.57 1071.00 403.70 978.41 481.22 890.73 593.32 1027.72 604.29
00014061 00000023 758.30 230.32 401.75 509.86 884.63 392.08 1071.22 405.73 978.93 483.92 891.72 593.42 1028.08 604.13
00014062 00000024 760.43 233.89 400.94 512.05 887.15 393.33 1073.73 407.90 982.07 483.65 893.68 594.91 1029.84 606.44
00014063 00000025 760.79 233.48 401.36 514.69 888.20 392.82 1074.54 408.27 983.64 483.56 894.27 594.77 1030.42 607.00
00014064 00000026 760.37 235.45 402.95 519.40 886.40 389.89 1072.97 403.94 981.38 482.69 894.81 596.94 1029.32 607.91
00014065 00000027 759.28 235.30 403.32 518.23 886.02 389.41 1072.19 405.70 979.18 482.93 889.95 593.99 1029.71 606.67
00014066 00000028 759.60 232.73 399.66 518.17 884.67 389.53 1070.43 406.38 976.67 484.96 884.21 593.64 1029.96 607.08
00014067 00000029 758.33 227.56 398.49 515.10 880.72 393.18 1067.32 407.79 971.86 486.10 880.94 592.02 1033.07 603.60
00014068 00000030 755.92 223.89 397.32 510.66 874.54 396.92 1061.88 407.70 966.87 485.48 876.53 592.13 1031.62 601.30
00014069 00000031 755.10 226.33 395.37 505.54 869.65 398.58 1056.76 407.15 960.82 483.74 872.51 593.40 1026.96 600.53
00014070 00000032 755.16 227.93 393.20 503.78 867.39 399.70 1053.12 408.39 957.57 484.37 870.32 595.49 1022.44 602.51
00014071 00000033 753.21 227.39 394.60 514.38 866.14 398.51 1052.34 407.06 958.12 485.13 872.37 599.52 1022.13 605.79
00014072 00000034 750.01 231.16 396.94 517.06 865.45 394.36 1054.28 410.37 960.74 477.07 868.31 598.91 1023.70 612.35
00014073 00000035 755.11 229.59 385.92 514.97 860.39 400.46 1051.92 406.87 949.84 479.92 869.72 608.09 1018.73 613.54
00014074 00000036 748.71 230.31 396.32 516.26 861.18 395.11 1052.33 412.20 958.74 478.04 863.95 599.43 1022.32 613.89
00014075 00000037 753.50 228.63 384.76 508.36 857.24 401.01 1048.61 407.31 945.07 481.11 866.38 604.82 1017.25 610.15
00014076 00000038 751.94 226.26 386.10 510.27 854.45 400.77 1046.25 407.96 940.78 482.10 862.11 605.17 1013.23 611.44
00014077 00000039 749.40 224.51 388.71 521.83 850.65 401.87 1044.71 407.95 937.41 483.24 858.46 609.06 1013.07 614.37
00014078 00000040 748.29 226.52 390.76 534.05 849.91 401.50 1042.38 407.06 935.10 484.45 854.95 610.83 1010.64 616.17
00014079 00000041 748.55 227.96 390.03 540.33 848.52 400.91 1042.17 405.71 934.53 484.66 852.21 614.02 1010.00 619.12
00014080 00000042 748.42 227.81 389.74 540.40 848.08 401.11 1041.76 405.21 934.58 484.93 852.44 613.86 1010.81 618.32
00014081 00000043 748.06 226.97 391.21 538.46 848.46 401.52 1041.66 405.93 935.00 486.06 853.87 611.52 1013.08 615.83
00014082 00000044 748.17 224.92 390.99 534.18 847.27 402.69 1041.55 406.77 933.65 487.49 854.03 611.11 1013.41 615.33
00014083 00000045 747.66 222.29 391.47 534.04 844.99 403.44 1040.79 406.38 931.35 486.63 853.27 610.76 1013.10 614.13
00014084 00000046 747.22 220.54 390.63 531.33 842.52 403.70 1037.94 406.37 926.62 486.32 850.69 610.65 1008.63 613.84
00014085 00000047 746.51 219.18 390.69 531.65 839.73 406.82 1035.76 407.77 922.91 485.57 848.39 612.71 1007.35 614.68
00014086 00000048 746.44 220.20 390.37 529.98 839.15 408.68 1034.73 409.53 921.93 486.10 848.24 613.22 1007.53 615.14
00014087 00000049 746.98 221.39 389.82 527.39 838.71 410.38 1034.23 410.50 921.48 487.90 849.18 614.54 1007.82 615.54
00014088 00000050 747.43 223.02 389.49 525.40 837.84 412.87 1033.38 411.56 921.03 491.27 851.19 617.93 1009.36 617.36
00014089 00000051 746.60 223.36 389.13 524.53 835.57 413.66 1031.20 412.24 917.55 493.95 850.57 619.26 1006.95 618.29
00014090 00000052 744.19 224.72 389.95 519.54 831.36 414.88 1024.97 413.29 911.99 496.51 847.04 618.80 1001.10 617.56
00014091 00000053 741.97 225.73 390.81 517.35 822.26 420.16 1012.86 415.69 896.71 496.95 837.09 618.65 993.42 615.62
00014092 00000054 738.17 230.57 392.40 514.14 812.65 421.58 1000.35 419.40 878.17 501.08 823.99 617.02 981.10 615.84
00014093 00000055 730.75 234.90 396.22 514.10 803.68 423.09 987.04 421.82 860.92 503.86 814.15 616.51 965.82 616.01
00014094 00000056 726.36 237.38 397.33 510.84 796.29 424.53 977.04 421.65 850.65 505.34 807.50 615.57 954.57 614.51
00014095 00000057 724.88 237.42 396.08 509.83 792.10 424.61 971.45 421.32 844.69 506.06 803.35 615.86 949.43 614.50
00014096 00000058 724.82 237.53 396.27 510.33 792.42 424.53 971.91 421.34 845.27 506.06 803.39 615.52 949.65 614.32
00014097 00000059 726.24 238.21 397.97 508.56 796.22 423.94 977.13 421.13 850.91 505.79 807.43 614.67 954.35 613.64
00014098 00000060 730.92 235.73 397.80 509.03 802.58 422.82 984.88 420.52 859.77 503.70 813.81 614.37 962.84 613.06
00014099 00000061 736.25 233.58 395.11 509.49 810.82 421.21 995.22 419.78 872.52 500.39 820.85 612.65 974.45 611.97
00014100 00000062 741.63 230.06 392.19 512.10 821.43 418.39 1008.82 418.18 890.19 496.65 831.40 612.85 986.47 613.42
00014101 00000063 746.04 231.11 390.80 510.65 830.71 415.29 1020.76 417.50 904.39 497.58 844.82 615.00 996.98 616.73
00014102 00000064 752.19 233.66 386.94 506.67 839.46 416.50 1028.58 416.52 914.57 494.46 854.12 616.44 1003.93 616.83
00014103 00000065 753.09 234.57 387.32 508.54 840.25 415.70 1030.16 415.91 914.70 493.49 853.76 617.96 1002.80 619.08
00014104 00000066 751.58 233.76 387.01 510.00 835.45 412.10 1025.87 414.98 905.69 494.71 845.46 618.44 993.58 621.60
00014105 00000067 747.58 233.14 386.80 515.87 828.47 413.15 1016.15 413.91 893.69 493.26 835.20 616.76 982.65 618.63
00014106 00000068 742.44 235.92 387.52 518.70 819.59 415.66 1005.80 415.02 879.21 493.53 824.44 617.49 975.89 618.79
00014107 00000069 742.01 235.52 387.04 527.40 818.68 413.79 1002.10 410.42 875.34 489.34 822.84 617.74 971.52 617.74
00014108 00000070 741.78 230.31 387.74 528.62 819.34 414.19 1005.88 411.33 879.85 489.88 825.32 617.87 977.21 618.03
00014109 00000071 745.06 225.76 387.53 521.91 826.29 413.81 1016.01 412.23 893.43 487.40 831.69 613.88 987.74 614.43
00014110 DELETE   746.05 228.51 389.58 514.95 835.87 413.74 1026.81 414.26 909.25 489.75 844.56 614.79 998.55 615.52
00014111 DELETE   749.21 228.87 390.64 514.97 846.40 416.12 1039.35 416.35 930.00 492.79 859.59 618.43 1012.75 618.37
00014112 DELETE   752.44 227.14 400.79 517.44 862.61 419.00 1056.47 419.68 959.22 505.06 879.39 616.01 1029.36 615.47
00014113 00000075 761.06 226.29 404.42 515.73 884.05 420.78 1078.00 421.98 988.80 506.51 908.56 616.84 1054.44 615.66
00014114 00000076 770.96 225.86 399.29 518.98 908.18 414.57 1097.77 422.64 1019.65 499.99 928.60 614.23 1073.21 618.25
00014115 00000077 784.13 224.16 390.87 522.51 926.21 415.93 1113.05 427.05 1044.50 498.02 946.33 614.72 1092.46 622.11
00014116 00000078 790.42 228.37 387.15 514.60 935.63 414.19 1119.25 428.03 1056.11 498.86 955.66 611.01 1098.43 620.76
00014117 00000079 792.24 229.80 386.14 511.97 940.23 411.91 1121.13 428.71 1061.83 496.74 960.57 608.25 1099.94 620.54
00014118 00000080 791.86 230.16 386.73 511.45 941.40 411.57 1121.83 431.28 1063.36 495.45 960.92 606.47 1100.00 621.18
00014119 00000081 792.06 230.60 385.71 510.23 941.52 410.10 1121.43 431.84 1062.86 494.06 959.98 605.00 1098.36 621.37
00014120 00000082 791.66 230.34 385.93 509.07 940.95 408.11 1121.22 431.73 1061.06 492.74 958.19 603.47 1096.26 621.21
00014121 00000083 790.54 229.34 386.28 509.49 939.87 406.01 1119.98 430.94 1059.70 491.75 956.21 602.62 1094.12 621.44
00014122 00000084 789.06 230.20 386.96 509.74 937.83 404.91 1118.04 430.41 1057.06 490.85 952.43 602.00 1091.62 621.37
00014123 00000085 788.73 229.67 386.38 509.97 936.80 403.60 1118.16 430.35 1055.69 490.25 949.69 602.06 1089.97 622.50
00014124 00000086 788.27 228.08 386.63 511.10 935.67 401.53 1118.13 429.03 1053.59 490.19 947.04 602.47 1087.32 623.46
00014125 00000087 788.49 228.27 386.95 511.04 935.87 399.90 1117.48 428.91 1053.06 487.42 945.94 601.11 1084.88 623.32
00014126 00000088 787.54 226.95 387.26 511.28 935.44 398.91 1118.36 427.75 1052.62 487.66 944.77 599.92 1085.53 621.99
00014127 00000089 786.47 228.96 387.90 509.81 934.91 398.31 1119.14 427.02 1051.42 488.61 942.41 599.94 1084.44 621.78
00014128 00000090 785.22 229.50 389.06 510.56 932.31 398.61 1115.92 425.59 1045.82 488.94 938.75 600.17 1079.91 620.79
00014129 00000091 783.60 229.71 390.50 511.42 929.20 399.78 1113.83 426.12 1041.47 489.14 934.84 600.42 1077.49 620.68
00014130 00000092 782.49 230.14 391.84 511.34 926.94 399.46 1111.47 423.67 1037.51 489.23 932.90 600.89 1073.96 619.32
00014131 00000093 781.70 230.69 391.81 510.73 925.69 400.48 1110.30 423.99 1036.18 489.11 932.48 601.79 1073.58 619.49
00014132 00000094 781.58 230.81 391.64 510.92 925.65 400.65 1110.14 423.63 1035.88 489.80 932.37 601.69 1073.59 619.00
00014133 00000095 780.54 229.55 392.05 511.89 925.68 401.32 1110.81 423.91 1036.94 491.37 933.03 601.30 1076.69 618.15
00014134 00000096 780.16 230.97 392.44 511.96 925.65 401.83 1109.46 424.44 1036.01 491.13 932.25 599.47 1076.97 616.52
00014135 00000097 779.64 230.83 392.66 511.99 925.41 401.92 1108.98 424.42 1036.27 491.23 932.14 598.79 1077.79 615.80
00014136 00000098 779.75 231.63 392.90 512.50 925.03 402.69 1108.42 424.85 1034.94 491.30 931.16 598.41 1077.73 615.27
00014137 00000099 779.20 232.86 393.55 510.97 924.20 402.54 1107.96 424.09 1033.65 492.31 930.68 599.02 1076.43 615.28
00014138 00000100 779.06 232.36 392.96 511.69 923.39 402.97 1107.23 424.18 1033.05 492.30 929.86 599.31 1076.29 615.36
00014139 00000101 778.91 232.39 392.79 511.40 923.21 403.63 1106.96 424.21 1032.87 492.94 929.63 599.64 1076.20 615.18
00014140 00000102 778.80 232.84 392.45 509.83 923.17 404.10 1107.18 424.67 1033.24 493.58 929.44 599.71 1076.91 615.27
00014141 00000103 778.79 233.08 392.29 509.83 922.76 404.67 1106.66 424.22 1032.93 494.34 929.81 600.95 1076.64 615.66
00014142 00000104 778.88 232.15 391.72 510.31 922.32 404.52 1106.26 423.23 1032.56 494.83 930.35 602.38 1075.74 616.33
00014143 00000105 778.51 232.10 391.59 509.01 921.61 404.68 1105.05 422.22 1031.43 494.49 931.23 603.37 1074.69 616.13
00014144 00000106 777.53 232.12 392.19 508.24 919.89 405.61 1103.33 422.27 1029.30 494.86 930.26 604.74 1072.49 616.64
00014145 00000107 777.02 231.50 393.92 507.79 916.88 404.24 1100.10 420.64 1023.84 493.03 927.09 604.67 1065.55 616.52
00014146 00000108 771.48 224.30 398.87 513.75 908.97 401.90 1096.79 416.55 1017.85 486.27 923.47 603.08 1064.10 613.04
00014147 DELETE   760.10 209.63 406.21 522.86 889.24 395.81 1089.81 406.89 997.39 477.63 912.91 594.55 1065.27 603.96
00014148 00000110 749.81 210.85 403.01 503.66 859.44 385.63 1056.07 380.99 954.03 449.88 883.59 576.39 1041.73 572.30
00014149 DELETE   737.24 204.20 397.55 494.00 828.98 381.18 1016.82 368.14 906.78 434.25 852.50 569.65 1009.47 559.17
00014150 DELETE   719.06 197.48 402.35 499.17 804.29 377.56 983.27 352.46 871.38 415.90 826.51 563.19 973.17 544.40
00014151 00000113 709.10 195.84 400.04 503.81 787.96 379.13 965.31 348.86 855.92 412.16 813.42 569.64 955.91 546.24
00014152 DELETE   706.93 200.37 400.78 499.46 782.65 383.14 960.60 350.57 850.23 420.81 810.69 573.80 954.13 547.61
00014153 DELETE   708.22 209.18 404.46 499.11 782.95 395.01 962.72 361.38 850.60 437.68 815.98 585.46 962.70 558.11
00014154 DELETE   709.32 211.78 404.01 511.40 782.42 403.62 966.43 370.27 857.21 457.46 823.30 597.98 973.88 570.64
00014155 00000117 707.14 218.19 409.31 519.43 780.71 411.17 969.28 375.81 860.19 474.17 826.39 607.52 980.45 578.12
00014156 00000118 710.71 228.08 403.64 513.04 784.04 417.24 966.31 378.68 856.99 480.85 822.53 611.95 970.40 581.30
00014157 00000119 711.44 227.47 402.34 512.63 782.29 416.17 965.60 379.24 853.41 478.03 814.46 605.12 972.59 575.54
00014158 00000120 714.16 226.89 402.00 505.18 783.79 410.49 965.97 376.58 851.90 468.38 812.50 596.24 972.83 569.30
00014159 00000121 714.96 227.23 405.93 503.99 785.18 406.39 964.00 371.59 848.83 458.99 814.90 591.02 968.11 564.42
00014160 00000122 718.92 228.14 403.07 507.33 792.23 407.26 967.30 372.90 854.35 460.27 821.69 594.24 969.89 567.81
00014161 00000123 721.11 227.62 404.36 514.21 793.23 415.04 976.37 373.90 864.15 462.20 829.46 605.90 985.09 573.40
00014162 00000124 730.61 230.88 397.90 512.60 801.85 419.29 988.39 378.99 879.10 475.85 840.96 614.50 996.44 582.04
00014163 00000125 735.03 230.45 395.21 510.68 805.26 427.08 991.86 385.61 884.91 483.51 845.60 621.68 1004.17 587.87
00014164 00000126 735.39 230.46 397.61 514.22 807.92 430.04 996.08 392.05 890.92 488.56 848.78 626.00 1008.61 594.61
00014165 00000127 735.69 233.27 398.98 515.14 808.33 431.74 996.80 393.82 891.04 489.41 849.60 627.43 1011.40 596.03
00014166 00000128 735.41 232.67 400.16 517.99 805.75 432.37 995.05 392.43 886.21 489.08 845.62 626.28 1012.84 593.46
CROP_BBOX: 530 0 1375 920
