Video ID: 	g1EcQaWtP0E
H: 	1080
W: 	1920
FPS: 	23.976023976023978

FRAME INDEX X0 Y0 W H [Landmarks (5 Points)]

00030930 00000000 745.02 112.02 355.90 526.21 861.92 322.72 1029.44 330.06 966.62 411.62 873.83 505.98 1013.87 513.72
00030931 00000001 745.60 112.10 354.82 520.98 860.35 323.16 1029.48 331.19 964.08 413.77 872.23 507.38 1011.78 515.66
00030932 00000002 745.23 112.13 353.91 520.80 857.97 323.48 1027.35 331.26 960.82 415.71 872.14 510.21 1008.66 518.27
00030933 00000003 743.22 111.67 353.74 523.55 855.78 322.82 1025.20 329.74 958.96 415.67 871.70 512.34 1005.81 519.60
00030934 00000004 741.33 111.35 354.11 529.69 854.40 322.94 1022.38 329.24 957.22 416.21 870.99 515.18 1002.61 522.14
00030935 00000005 740.61 110.79 352.54 527.40 852.61 324.02 1022.29 330.54 956.82 415.90 869.28 513.57 1005.22 520.45
00030936 00000006 739.80 111.05 352.78 529.42 851.62 325.39 1022.89 331.75 956.63 417.42 868.24 515.84 1005.43 522.62
00030937 00000007 738.52 110.95 354.33 533.37 850.72 326.60 1023.62 332.78 955.89 418.43 866.42 519.20 1004.25 526.04
00030938 00000008 737.79 111.38 355.02 535.76 850.97 326.87 1022.60 333.51 956.27 418.57 866.15 521.47 1001.23 528.90
00030939 00000009 737.10 110.23 356.19 539.86 850.85 327.24 1020.67 333.69 955.50 418.12 866.47 521.73 999.31 529.07
00030940 00000010 736.00 111.95 353.33 539.95 846.47 337.02 1013.48 344.47 944.14 420.31 860.32 520.14 996.35 527.92
00030941 DELETE   726.89 111.47 351.32 537.07 832.87 342.81 998.30 352.61 924.53 421.71 847.34 518.51 981.53 528.07
00030942 DELETE   716.29 112.14 355.83 538.54 817.09 340.73 987.42 351.34 906.17 420.18 832.49 520.35 968.01 530.79
00030943 00000013 707.11 112.78 356.28 531.19 803.17 341.23 974.11 351.87 889.10 420.03 816.13 517.15 956.65 526.96
00030944 00000014 710.16 111.97 351.85 517.18 791.95 342.39 970.84 342.68 875.77 424.24 808.01 518.67 957.70 520.60
00030945 00000015 708.05 110.23 351.34 516.28 789.13 342.46 968.63 341.55 874.28 423.71 806.88 517.71 957.46 518.79
00030946 00000016 706.74 109.64 352.83 518.22 787.86 344.94 968.09 342.75 874.98 425.41 808.26 519.89 960.02 519.59
00030947 00000017 705.13 111.03 354.50 531.42 786.77 346.02 965.96 340.64 874.19 425.32 808.33 525.72 961.34 522.80
00030948 00000018 702.44 112.47 355.26 550.00 786.99 343.00 963.57 335.23 875.26 421.42 807.19 531.23 960.31 527.46
00030949 00000019 696.83 112.18 357.46 554.21 784.33 345.18 959.78 336.80 873.44 424.25 805.86 532.73 959.47 528.35
00030950 00000020 693.37 114.40 358.31 544.93 780.72 350.19 956.18 341.73 869.05 429.88 804.52 533.58 956.23 528.54
00030951 00000021 690.28 112.41 360.19 531.20 778.10 352.06 954.27 344.20 866.81 432.40 803.80 530.85 952.95 526.12
00030952 00000022 692.28 108.18 358.43 523.02 781.11 349.42 957.28 340.97 874.04 424.75 807.71 522.06 958.04 516.25
00030953 DELETE   695.19 102.63 352.42 517.52 788.89 336.31 963.70 332.39 882.51 413.23 808.46 510.29 957.62 509.10
00030954 DELETE   701.13 97.90 347.19 510.84 796.93 327.58 970.59 323.81 893.80 398.35 814.51 499.00 964.05 498.70
00030955 DELETE   703.58 95.50 345.21 509.96 799.82 317.05 972.54 312.29 897.66 383.17 817.87 490.05 965.88 488.97
00030956 00000026 703.28 93.62 344.08 511.60 798.60 309.52 972.57 305.59 898.14 375.74 816.63 486.34 963.88 485.97
00030957 00000027 696.92 93.06 348.44 518.03 795.05 310.12 968.49 308.29 894.52 382.56 810.63 487.61 959.07 488.79
00030958 00000028 691.46 91.57 352.67 524.77 790.46 312.05 965.35 311.39 888.59 388.52 805.05 491.32 955.67 492.89
00030959 00000029 689.66 92.02 354.35 529.97 789.03 312.11 963.69 311.76 886.57 388.80 802.77 494.94 953.14 496.55
00030960 00000030 690.25 92.76 355.56 534.99 791.78 308.33 961.87 306.93 888.46 385.31 807.23 498.11 949.85 498.38
00030961 00000031 692.09 92.92 354.30 531.75 792.75 308.78 963.74 307.45 889.11 386.90 807.09 498.04 950.72 498.75
00030962 00000032 693.75 95.49 354.17 530.32 794.43 312.00 966.23 311.73 890.57 393.95 807.95 500.76 952.49 502.61
00030963 00000033 695.32 98.46 353.55 528.88 793.94 314.60 969.23 314.56 890.21 398.53 807.20 504.58 954.26 506.70
00030964 00000034 697.87 99.16 352.78 529.19 795.64 315.02 972.96 314.86 893.15 399.19 808.59 504.57 958.86 506.84
00030965 00000035 702.14 97.72 349.88 529.44 801.12 313.95 977.68 314.21 901.17 399.07 814.01 502.12 964.09 504.91
00030966 00000036 705.79 97.54 348.51 528.19 805.80 313.74 981.95 313.49 907.04 399.01 818.69 500.89 968.39 503.33
00030967 00000037 707.05 97.20 348.45 525.31 809.26 313.69 985.48 313.87 911.32 397.79 822.39 499.83 970.44 502.70
00030968 00000038 707.68 98.21 349.40 522.58 813.38 313.02 990.06 315.60 917.30 398.43 825.35 498.63 973.43 503.40
00030969 00000039 708.69 99.95 349.82 517.21 819.37 312.37 993.67 316.72 925.46 396.08 831.54 495.94 976.92 501.88
00030970 00000040 702.61 97.24 356.30 525.18 833.04 306.09 993.05 315.48 940.10 389.74 846.24 493.27 974.21 501.78
00030971 00000041 710.55 95.96 356.30 523.24 843.51 300.68 998.02 308.24 949.12 380.55 861.61 487.90 980.57 494.57
00030972 00000042 718.64 91.58 358.24 531.26 853.48 293.76 1011.15 306.35 960.90 373.93 869.13 486.74 988.63 497.57
00030973 00000043 725.39 90.60 355.91 530.22 855.48 292.64 1021.96 307.85 967.26 372.93 867.08 481.02 1002.97 494.09
00030974 00000044 729.47 91.45 356.21 537.76 858.63 289.24 1021.94 307.76 963.80 367.25 863.72 482.08 995.04 498.41
00030975 00000045 733.43 95.16 355.13 537.37 859.52 289.81 1024.23 307.18 962.36 368.80 863.06 485.39 996.31 501.18
00030976 00000046 734.53 97.36 358.68 530.67 862.20 296.39 1025.97 315.27 965.98 376.42 865.05 486.29 998.56 503.33
00030977 00000047 740.28 100.16 359.14 526.08 866.34 304.31 1030.89 319.74 972.48 383.53 874.12 493.62 1006.00 507.99
00030978 00000048 748.18 108.72 357.91 528.02 874.19 313.93 1042.46 329.33 981.98 395.75 876.59 500.88 1018.54 516.15
00030979 00000049 754.76 118.18 362.00 533.11 881.19 319.33 1052.56 336.52 989.26 410.28 879.76 511.65 1024.54 529.20
00030980 00000050 762.64 127.35 361.22 544.25 887.20 327.01 1054.97 343.35 993.89 414.00 882.15 519.26 1028.16 536.16
00030981 00000051 765.86 127.07 360.45 547.64 888.75 326.24 1057.25 342.34 994.72 411.89 884.77 521.54 1030.44 538.02
00030982 00000052 766.50 124.03 361.69 546.38 888.48 324.21 1059.04 339.06 994.20 409.56 890.09 524.08 1029.99 539.03
00030983 00000053 765.67 124.76 361.82 542.00 884.65 329.88 1057.78 342.66 990.20 415.70 891.75 525.50 1033.59 538.09
00030984 00000054 763.47 129.69 361.76 541.51 880.99 336.68 1055.46 349.63 986.19 425.17 888.19 529.68 1033.27 542.30
00030985 00000055 758.90 128.71 362.43 544.03 875.02 338.16 1051.72 350.80 980.38 427.21 881.42 530.56 1031.48 543.01
00030986 00000056 754.52 127.79 362.74 539.80 872.01 337.16 1046.40 350.32 977.11 425.32 879.22 530.97 1022.57 544.24
00030987 00000057 747.21 124.18 365.34 530.85 864.70 338.07 1043.69 350.24 971.53 429.16 875.33 528.64 1021.20 541.17
00030988 00000058 744.24 122.87 364.86 529.21 861.37 341.23 1040.69 352.52 968.02 433.14 874.24 529.65 1018.24 541.24
00030989 00000059 740.17 122.44 364.77 530.44 856.62 343.97 1035.98 353.45 962.08 438.92 869.99 531.47 1014.24 541.45
00030990 00000060 732.34 121.54 364.07 537.81 846.75 353.09 1022.43 360.54 946.27 447.57 857.86 535.42 1001.48 543.15
00030991 DELETE   720.42 129.42 358.89 531.91 826.79 363.42 995.57 375.76 914.55 452.15 837.80 535.05 973.95 546.52
00030992 DELETE   707.27 141.83 359.93 533.18 798.52 375.82 970.41 378.07 882.59 460.92 808.05 547.21 952.53 549.28
00030993 DELETE   693.90 150.38 358.16 521.95 778.53 368.82 948.50 371.65 855.82 467.94 789.11 550.49 925.37 554.48
00030994 00000064 689.70 148.91 352.75 520.48 768.21 373.58 938.07 376.62 841.59 470.58 781.56 545.80 925.21 549.21
00030995 00000065 681.22 147.61 355.38 517.25 761.74 371.86 931.47 373.32 835.38 467.82 777.47 543.43 921.24 545.39
00030996 00000066 678.11 141.71 354.64 522.43 756.37 372.02 925.69 371.81 831.68 466.50 775.11 543.42 919.35 543.75
00030997 00000067 674.69 135.03 355.67 527.98 752.13 369.31 922.04 368.18 824.95 463.02 771.69 542.24 915.59 542.03
00030998 00000068 670.40 132.46 354.73 531.94 746.15 366.39 917.74 366.13 819.16 460.80 766.04 541.05 912.02 541.44
00030999 00000069 667.15 129.51 353.19 534.41 741.45 364.44 913.41 365.77 814.31 458.51 762.25 539.33 908.47 540.97
00031000 00000070 664.50 127.98 351.74 534.59 738.03 362.39 909.20 364.14 810.57 456.24 759.61 537.33 905.00 539.36
00031001 00000071 662.45 127.61 352.42 531.46 735.57 361.88 906.36 363.35 807.13 455.11 756.71 535.08 902.45 536.81
00031002 00000072 660.26 127.04 352.64 528.42 732.43 360.65 905.35 361.88 804.18 453.11 754.15 533.55 901.34 534.91
00031003 00000073 658.36 124.65 353.45 527.56 730.43 359.58 904.71 361.17 803.04 449.50 751.02 530.88 900.31 532.50
00031004 00000074 657.42 122.80 353.38 527.49 729.23 356.14 904.02 357.06 802.37 444.59 750.07 529.16 898.97 530.63
00031005 00000075 657.85 118.01 354.61 534.98 731.78 351.65 904.32 352.06 804.66 436.51 753.83 528.21 896.86 529.92
00031006 00000076 659.41 114.89 354.66 537.56 735.01 345.93 905.45 345.63 807.55 429.91 755.90 525.24 897.35 526.77
00031007 00000077 661.50 111.80 354.33 539.64 736.48 341.49 905.80 340.70 809.32 424.08 757.74 521.48 898.79 522.58
00031008 00000078 662.01 108.76 354.60 541.32 736.73 336.83 906.62 333.33 811.31 417.57 758.40 520.52 897.87 519.67
00031009 00000079 662.60 106.88 354.80 542.00 737.57 333.56 905.80 329.40 812.23 413.96 759.00 518.17 897.34 516.80
00031010 00000080 662.00 104.83 356.25 542.52 738.90 331.34 903.96 328.11 813.50 412.39 759.38 513.17 897.52 512.12
00031011 00000081 662.04 106.79 354.89 534.88 738.16 331.92 904.26 329.44 812.94 413.75 757.01 509.28 898.76 508.49
00031012 00000082 662.63 107.87 355.05 532.11 738.08 333.13 904.93 330.29 812.93 414.47 757.37 508.66 900.22 507.50
00031013 00000083 660.70 107.71 356.79 534.91 738.95 332.35 902.83 329.46 813.49 412.71 758.87 508.87 897.11 507.83
00031014 00000084 657.74 107.27 358.28 541.41 735.36 335.61 903.06 331.96 810.90 414.77 756.57 509.71 902.49 507.77
00031015 00000085 655.43 110.16 358.17 539.76 734.87 339.45 901.71 339.95 809.30 420.36 755.12 511.26 900.42 512.45
00031016 00000086 652.88 112.54 358.43 539.94 733.51 347.17 901.64 351.44 808.61 432.70 754.73 519.36 896.73 523.60
00031017 00000087 652.88 116.68 356.88 541.08 730.67 354.64 902.76 357.70 806.28 442.65 753.85 529.20 897.08 532.38
00031018 00000088 653.59 120.81 354.25 533.10 732.62 356.50 902.45 358.39 809.91 444.05 758.50 534.15 893.57 536.79
00031019 00000089 653.64 119.78 355.92 528.18 734.66 354.53 903.74 354.90 814.16 439.86 761.84 532.31 893.98 533.96
00031020 00000090 653.90 119.07 357.10 528.93 733.21 355.57 904.89 354.70 813.28 439.62 759.97 531.29 897.98 531.62
00031021 00000091 652.70 122.13 358.55 528.08 732.67 358.54 906.08 358.82 813.40 444.30 758.31 532.52 900.14 533.35
00031022 00000092 651.67 124.22 357.64 528.01 731.11 361.99 906.50 362.46 811.64 450.21 756.37 535.48 901.19 536.05
00031023 00000093 649.61 125.39 357.58 531.19 729.23 363.88 906.03 364.59 810.44 452.86 753.21 536.99 900.66 537.67
00031024 00000094 649.65 124.15 355.97 538.01 730.57 364.65 906.07 364.94 812.91 453.58 756.08 540.35 901.21 540.75
00031025 00000095 653.57 123.12 356.69 540.51 740.81 362.38 912.04 364.97 826.01 449.29 767.85 537.90 907.20 540.40
00031026 DELETE   661.71 120.70 356.14 539.26 755.53 360.92 925.31 358.91 845.69 443.79 783.45 535.41 925.58 533.87
00031027 DELETE   672.68 113.71 358.38 538.76 773.10 352.42 949.67 344.17 875.25 436.14 800.96 531.90 951.44 525.55
00031028 DELETE   683.53 109.97 358.50 537.15 791.36 348.01 966.82 337.50 903.37 429.73 824.71 531.06 971.09 523.15
00031029 00000099 690.09 106.93 358.44 540.74 800.43 341.73 976.96 331.60 917.50 426.09 834.38 531.49 980.44 524.00
00031030 00000100 692.63 107.10 358.37 539.63 803.69 339.34 980.47 331.09 920.09 424.57 836.03 529.75 981.04 523.77
00031031 00000101 692.57 107.92 358.09 538.55 804.72 339.87 980.94 332.47 921.56 426.58 836.78 530.87 980.26 525.66
00031032 00000102 692.50 109.23 359.15 537.00 805.09 339.89 981.13 332.85 921.77 427.42 837.17 530.84 979.80 525.79
00031033 00000103 693.23 109.27 359.52 533.64 806.65 340.15 982.25 331.28 923.33 428.24 840.49 530.07 982.06 523.16
00031034 00000104 694.80 109.28 357.95 530.48 807.58 341.32 981.61 331.32 923.00 428.47 840.74 527.88 982.37 520.04
00031035 00000105 694.61 109.40 358.38 528.51 808.27 341.15 983.40 331.48 925.00 429.11 840.82 527.37 983.60 519.80
00031036 00000106 694.73 111.95 359.89 525.67 809.15 341.39 984.02 331.03 926.25 429.87 841.71 527.89 983.99 519.91
00031037 00000107 694.39 114.32 361.51 524.68 808.77 342.28 985.21 333.66 925.29 432.08 839.96 528.88 983.37 522.29
00031038 00000108 695.97 115.39 361.49 526.09 809.84 341.96 986.31 334.81 925.58 432.84 839.23 528.95 983.33 523.72
00031039 00000109 698.04 115.45 359.35 529.26 812.70 339.66 987.34 333.54 928.77 431.24 840.45 527.45 984.36 523.33
00031040 00000110 699.61 114.03 357.94 533.39 815.60 336.93 988.69 330.40 931.35 426.48 842.19 526.31 985.44 522.13
00031041 00000111 701.16 111.83 355.83 535.25 816.45 335.71 988.54 329.31 931.51 425.89 842.47 525.12 984.75 521.08
00031042 00000112 700.53 113.36 356.01 536.26 817.22 336.48 986.71 329.73 932.58 428.21 843.68 526.33 983.14 521.88
00031043 00000113 698.77 115.51 356.95 537.66 815.67 338.78 984.57 333.19 930.73 432.53 842.47 530.15 979.87 526.54
00031044 00000114 698.29 116.95 357.45 538.05 815.49 339.39 984.75 333.76 930.74 432.72 842.07 530.57 980.44 526.84
00031045 00000115 698.36 114.59 357.71 531.65 816.43 339.37 986.97 334.12 931.63 431.28 841.54 525.65 982.48 522.28
00031046 00000116 699.68 113.51 356.95 524.60 816.35 339.11 990.00 332.88 932.12 429.61 842.52 523.58 985.69 519.44
00031047 00000117 699.24 114.84 358.36 523.58 816.95 340.13 992.26 334.31 933.62 429.11 843.55 524.69 987.95 520.89
00031048 00000118 699.19 116.82 359.87 524.13 817.31 342.55 992.56 336.82 933.72 432.90 843.08 526.31 987.76 522.49
00031049 00000119 699.60 118.56 360.23 523.13 816.92 343.69 992.66 337.90 933.34 436.22 842.68 527.59 987.63 523.70
00031050 00000120 701.80 119.49 359.01 523.45 818.38 343.97 993.70 338.74 934.28 437.89 842.98 527.37 988.34 524.05
00031051 00000121 703.26 118.87 357.84 523.11 818.96 342.40 995.29 338.41 934.11 437.39 841.51 525.47 989.43 523.46
00031052 00000122 704.43 118.24 357.57 524.69 820.01 340.86 996.99 337.59 934.30 435.41 842.08 524.75 990.79 523.35
00031053 00000123 706.35 119.04 355.33 532.98 821.83 340.31 995.43 337.76 935.62 435.77 842.39 527.66 988.96 526.71
00031054 00000124 698.40 112.21 356.13 548.50 820.25 340.30 992.71 340.52 935.71 436.14 843.78 531.62 987.09 532.53
00031055 00000125 698.00 113.53 356.52 549.44 820.50 341.92 992.41 342.00 936.34 438.11 843.77 533.26 986.96 533.97
00031056 00000126 698.26 114.46 356.00 545.85 821.18 342.95 993.17 342.13 937.57 438.39 845.38 533.74 987.78 533.81
00031057 00000127 698.07 115.38 356.20 539.93 821.68 342.60 994.07 341.24 938.34 437.30 846.49 531.86 988.58 531.57
00031058 00000128 704.43 119.15 356.03 528.82 821.12 342.25 995.98 338.51 936.99 438.57 843.21 528.59 989.29 526.59
00031059 00000129 702.18 117.06 357.01 527.08 820.19 340.38 996.48 338.09 936.38 435.49 842.54 527.21 988.24 526.49
00031060 00000130 700.53 114.22 358.19 527.76 820.21 339.30 996.49 337.45 936.26 433.66 841.44 525.30 987.11 525.05
00031061 00000131 698.38 115.73 359.06 525.53 818.50 338.92 994.19 337.74 934.53 433.74 839.64 524.52 984.24 524.65
00031062 00000132 698.31 117.45 359.81 529.50 817.37 339.34 991.12 338.69 932.84 435.95 838.23 527.41 980.40 527.86
00031063 00000133 698.97 121.26 358.48 542.58 816.75 340.14 987.23 340.72 931.20 437.47 836.22 533.23 977.87 534.87
00031064 00000134 701.32 123.10 355.42 543.38 817.34 338.50 987.93 340.35 931.45 434.07 834.77 533.03 977.46 536.00
00031065 00000135 701.20 115.43 353.56 534.07 819.78 332.69 990.98 335.91 934.47 426.31 835.65 521.11 979.36 525.28
00031066 00000136 702.05 105.53 351.63 529.46 821.79 329.77 994.22 330.55 937.01 421.19 837.24 512.12 985.92 514.55
00031067 00000137 703.55 103.27 348.25 524.45 821.84 327.22 994.06 327.99 937.05 418.92 836.56 508.24 983.44 511.17
00031068 00000138 703.38 104.01 348.00 523.84 820.54 326.06 992.80 328.16 934.60 419.43 834.01 507.53 981.78 511.63
00031069 00000139 703.04 103.07 348.40 525.79 819.74 323.48 991.88 326.47 932.86 416.94 832.32 504.88 981.34 509.56
00031070 00000140 704.80 101.03 346.34 526.65 819.67 320.24 991.14 322.14 932.31 413.16 831.87 502.47 980.41 506.40
00031071 00000141 705.34 98.11 346.99 528.66 820.23 314.43 991.97 317.17 933.49 407.88 831.75 499.18 979.82 503.76
00031072 00000142 704.89 96.94 347.31 529.65 820.89 311.44 991.79 315.94 933.04 403.31 829.86 496.20 977.54 502.32
00031073 00000143 704.57 96.18 348.29 534.17 821.30 310.70 990.23 315.62 932.21 402.66 830.26 497.26 975.68 503.47
00031074 00000144 703.37 95.54 348.78 533.85 819.11 313.27 988.99 317.30 929.41 405.42 829.66 499.43 974.62 504.80
CROP_BBOX: 380 0 1286 859
