Video ID: 	nmnkSnvgw04
H: 	1080
W: 	1920
FPS: 	25.0

FRAME INDEX X0 Y0 W H [Landmarks (5 Points)]

00065270 00000000 853.85 130.29 500.45 628.33 939.27 383.58 1144.33 388.51 1008.22 530.21 970.77 621.59 1112.13 627.03
00065271 00000001 849.69 130.51 500.72 629.63 929.76 387.65 1136.50 390.37 997.50 529.76 961.90 626.22 1106.43 629.80
00065272 00000002 847.10 132.83 498.74 631.07 925.06 388.69 1134.08 390.42 993.20 529.00 956.31 626.73 1104.83 629.65
00065273 00000003 844.35 135.12 496.45 631.97 923.84 385.99 1131.77 387.66 991.75 525.85 955.97 626.40 1101.89 629.34
00065274 00000004 842.18 136.18 495.58 628.44 920.52 386.46 1129.20 388.22 989.39 528.43 954.18 625.38 1101.55 628.28
00065275 00000005 838.85 133.56 494.71 634.47 917.35 389.00 1125.54 390.60 985.73 532.49 952.01 628.18 1100.09 630.80
00065276 00000006 833.17 133.24 495.91 641.82 913.10 392.66 1119.11 395.72 979.01 538.30 951.22 635.98 1095.92 639.13
00065277 00000007 830.16 142.20 494.69 636.64 906.89 394.93 1114.92 397.75 973.54 543.44 948.82 642.19 1092.75 644.68
00065278 00000008 827.22 143.45 493.71 632.36 902.81 396.43 1111.90 399.15 970.58 545.06 946.64 642.75 1091.79 644.76
00065279 00000009 826.08 145.83 493.29 627.67 903.17 397.64 1113.55 400.00 973.00 546.28 947.16 641.38 1093.66 643.05
00065280 00000010 829.97 149.75 493.91 621.10 912.26 400.08 1120.22 401.87 982.24 548.29 955.02 641.01 1098.22 642.79
00065281 00000011 831.12 155.77 499.61 617.08 920.72 404.37 1132.19 402.54 998.74 548.89 964.89 643.15 1112.78 641.94
00065282 00000012 832.48 152.57 502.37 630.84 934.53 409.47 1141.02 401.18 1022.06 548.23 976.70 639.83 1126.27 633.60
00065283 00000013 837.60 157.79 502.27 625.16 947.16 414.53 1159.26 403.34 1037.57 551.29 988.98 648.05 1143.90 638.92
00065284 00000014 841.56 151.15 504.00 632.72 959.56 416.07 1172.84 401.13 1057.08 548.42 1000.89 646.73 1158.69 634.87
00065285 00000015 845.73 154.12 504.33 627.54 967.49 418.75 1181.77 400.35 1070.35 548.72 1014.40 647.40 1171.63 632.66
00065286 00000016 848.99 148.87 507.08 628.18 975.09 423.05 1189.52 399.68 1082.01 545.78 1025.82 646.36 1184.00 627.31
00065287 00000017 855.07 149.05 505.44 624.30 986.47 423.84 1203.36 398.41 1099.60 543.70 1038.77 643.54 1198.35 622.69
00065288 DELETE   864.55 158.29 500.14 606.18 995.88 416.28 1214.31 397.12 1114.48 534.87 1052.22 636.02 1212.49 619.88
00065289 00000019 871.37 162.72 499.10 614.71 1006.68 413.29 1221.58 392.84 1127.81 531.50 1063.50 638.11 1220.92 621.10
00065290 00000020 877.25 159.15 497.08 616.81 1015.97 409.90 1231.70 391.71 1138.60 528.02 1068.88 635.04 1227.35 619.55
00065291 00000021 880.97 160.60 496.54 607.64 1021.33 409.14 1238.65 391.81 1145.85 528.27 1072.99 631.02 1234.08 615.81
00065292 00000022 884.78 147.94 498.47 626.27 1031.11 415.18 1243.19 390.89 1151.52 529.34 1075.61 636.48 1238.16 616.73
00065293 00000023 887.68 147.43 499.43 629.37 1034.45 415.82 1247.01 390.75 1155.42 531.02 1078.86 638.73 1243.30 618.23
00065294 00000024 889.42 145.53 499.01 631.23 1036.75 415.97 1248.95 391.52 1157.22 531.77 1080.40 637.21 1245.27 617.19
00065295 00000025 891.45 145.66 498.59 630.84 1038.32 415.79 1250.16 391.26 1158.28 532.35 1082.90 635.80 1247.78 615.74
00065296 00000026 894.02 147.76 498.95 629.80 1040.00 415.18 1252.45 390.06 1160.14 531.46 1086.03 635.36 1250.74 614.78
00065297 00000027 897.04 149.84 497.39 625.38 1040.13 412.69 1252.33 388.32 1159.45 529.32 1088.28 633.62 1250.79 613.61
00065298 00000028 898.45 149.65 498.20 627.45 1040.73 410.83 1253.17 387.32 1159.32 529.12 1089.42 634.39 1250.52 615.04
00065299 00000029 899.39 148.59 497.71 631.06 1041.40 408.34 1253.64 385.74 1159.75 526.30 1090.07 635.08 1250.33 616.37
00065300 00000030 898.89 148.16 498.06 631.30 1040.62 406.52 1253.35 383.59 1160.02 524.92 1090.57 634.25 1250.54 615.24
00065301 00000031 899.77 145.02 496.18 633.05 1040.87 404.88 1253.26 382.19 1160.15 521.45 1091.27 632.61 1250.41 613.90
00065302 00000032 900.79 140.90 493.85 630.35 1041.04 403.27 1253.48 380.76 1160.94 519.63 1093.11 630.27 1250.01 611.97
00065303 00000033 902.52 148.45 493.88 624.24 1043.19 400.94 1256.83 379.91 1163.06 517.70 1094.40 629.58 1251.76 612.39
00065304 00000034 903.67 149.07 494.14 628.03 1046.78 400.30 1259.15 380.06 1167.38 515.79 1098.72 629.75 1255.22 613.11
00065305 00000035 905.54 147.51 495.04 632.30 1049.80 398.83 1261.42 379.04 1170.91 515.52 1102.87 630.17 1257.14 614.00
00065306 00000036 905.80 143.86 498.04 634.07 1050.57 393.86 1263.70 378.86 1173.66 509.50 1102.80 626.53 1259.11 612.75
00065307 00000037 906.99 144.08 498.41 634.66 1052.57 392.13 1265.63 378.08 1175.74 508.80 1104.58 626.42 1259.49 613.41
00065308 00000038 908.37 143.23 497.68 637.23 1055.20 391.78 1265.76 377.18 1178.67 508.64 1107.20 626.90 1260.39 613.60
00065309 00000039 908.98 143.80 498.91 638.64 1055.68 391.93 1266.97 377.51 1179.15 509.37 1107.32 627.58 1261.30 614.50
00065310 00000040 910.05 145.69 497.94 634.03 1057.50 397.45 1266.24 383.21 1178.47 508.90 1106.97 625.94 1260.81 613.13
00065311 DELETE   912.92 144.18 493.93 628.18 1061.16 408.94 1265.80 393.07 1177.56 507.48 1106.03 624.72 1258.50 611.35
00065312 00000042 912.81 144.47 493.17 622.98 1056.48 407.58 1266.60 386.04 1175.27 513.99 1107.93 627.25 1258.63 610.21
00065313 00000043 912.48 142.47 494.94 620.88 1054.72 403.77 1266.75 382.54 1174.42 515.26 1106.67 626.39 1260.19 609.55
00065314 00000044 912.86 143.08 495.35 619.93 1054.04 399.67 1267.60 379.66 1173.46 515.36 1105.45 624.67 1259.82 608.88
00065315 00000045 913.00 144.62 495.94 623.61 1053.81 397.27 1267.06 377.66 1173.38 515.17 1105.68 625.62 1260.45 610.03
00065316 00000046 911.83 144.83 498.08 622.90 1052.81 396.64 1266.90 377.29 1172.67 514.55 1105.66 625.69 1259.87 610.23
00065317 00000047 910.68 143.99 497.88 619.87 1051.88 396.31 1267.05 376.91 1172.39 512.10 1103.12 620.53 1261.68 604.94
00065318 00000048 910.05 143.63 499.04 619.52 1051.59 397.53 1267.55 377.82 1172.30 511.98 1101.30 617.30 1263.90 601.31
00065319 00000049 909.69 143.54 499.90 622.03 1051.38 396.25 1266.78 376.91 1171.70 511.76 1101.50 618.16 1261.86 602.50
00065320 00000050 910.60 144.57 499.40 624.48 1052.49 395.43 1265.81 376.21 1172.14 512.83 1104.48 622.18 1260.01 606.69
00065321 00000051 908.70 137.74 502.63 644.04 1052.60 389.35 1266.73 375.23 1174.57 507.68 1102.38 626.50 1260.77 613.16
00065322 00000052 908.71 140.30 502.66 644.83 1051.93 391.45 1266.08 376.69 1174.00 509.20 1102.23 627.96 1262.63 614.30
00065323 00000053 909.47 144.60 503.78 634.51 1050.98 393.03 1268.82 378.11 1173.32 510.83 1102.37 626.95 1264.32 612.89
00065324 00000054 911.83 146.17 498.47 622.07 1051.60 399.46 1267.02 377.90 1172.56 517.71 1105.50 628.05 1261.42 610.72
00065325 00000055 912.04 145.32 498.99 622.47 1051.90 398.34 1267.54 377.49 1172.86 516.76 1105.33 626.62 1262.24 609.77
00065326 00000056 912.68 142.05 499.04 624.17 1052.28 397.10 1267.87 376.26 1173.22 515.85 1106.12 626.05 1262.38 609.29
00065327 00000057 912.91 142.28 499.61 625.14 1052.35 397.03 1268.54 376.25 1173.45 516.40 1106.43 626.82 1263.15 610.10
00065328 00000058 914.11 142.22 498.15 624.54 1052.84 397.81 1269.03 376.68 1173.95 516.61 1107.35 627.77 1263.49 610.82
00065329 00000059 914.20 144.97 498.14 623.17 1053.70 398.64 1270.16 377.52 1175.25 517.16 1106.82 626.80 1265.40 609.80
00065330 00000060 914.69 147.65 499.66 624.03 1054.57 399.76 1272.01 378.38 1176.37 518.43 1105.90 626.01 1268.90 608.64
00065331 00000061 914.06 148.99 500.63 623.47 1055.37 399.26 1272.94 379.06 1176.97 516.72 1104.42 622.94 1268.78 606.49
00065332 00000062 913.95 148.02 501.41 624.42 1055.65 399.56 1273.70 379.69 1177.31 515.34 1102.82 618.77 1270.76 602.46
00065333 00000063 913.04 145.68 501.39 626.59 1055.36 398.36 1273.54 379.36 1176.93 513.69 1101.28 616.00 1270.53 600.29
00065334 00000064 913.18 141.67 499.96 628.58 1055.14 396.42 1273.34 377.90 1176.85 513.58 1100.43 615.23 1268.98 600.10
00065335 00000065 912.69 141.49 499.48 627.95 1054.03 396.29 1271.83 377.87 1175.24 514.05 1099.78 615.57 1266.64 600.62
00065336 00000066 911.82 142.31 499.94 626.55 1051.84 396.64 1269.52 377.79 1173.13 513.23 1099.25 614.91 1266.86 599.35
00065337 00000067 911.77 141.64 499.94 624.88 1050.89 395.91 1267.95 376.80 1171.59 512.60 1099.87 614.57 1265.41 598.82
00065338 00000068 911.06 137.77 499.84 628.79 1050.31 395.01 1266.95 376.31 1170.70 512.45 1099.89 614.81 1264.17 599.47
00065339 00000069 911.63 138.53 499.56 627.93 1050.47 394.29 1266.80 375.83 1170.46 511.62 1101.14 615.08 1264.06 599.88
00065340 00000070 910.92 137.34 500.72 625.47 1050.57 393.91 1266.46 375.77 1169.88 509.61 1100.49 613.14 1262.25 598.27
00065341 00000071 911.03 136.53 500.55 624.01 1051.17 394.04 1265.53 376.53 1168.91 508.80 1100.16 611.51 1259.70 597.30
00065342 00000072 911.48 135.63 499.94 626.19 1051.75 392.91 1265.25 376.48 1168.73 509.19 1100.69 612.96 1258.19 599.71
00065343 00000073 911.29 136.66 498.47 624.88 1051.99 392.78 1264.69 376.40 1169.01 508.54 1100.75 613.79 1257.20 600.56
00065344 00000074 910.16 136.59 497.08 628.04 1050.34 392.27 1262.88 374.32 1169.02 508.01 1099.87 616.12 1258.43 601.61
00065345 00000075 910.78 141.77 496.77 626.72 1053.42 388.80 1260.64 374.43 1169.25 503.66 1104.24 616.62 1253.31 605.25
00065346 00000076 910.63 141.15 495.45 630.91 1053.66 387.58 1258.51 374.45 1167.37 500.21 1101.14 613.98 1251.07 603.60
00065347 00000077 910.19 138.69 494.44 625.44 1050.31 388.75 1258.93 372.75 1166.05 500.80 1097.35 612.94 1253.21 600.16
00065348 00000078 908.90 136.97 494.04 621.96 1047.13 390.12 1257.18 372.61 1162.19 500.99 1094.71 610.26 1252.15 596.20
00065349 00000079 906.74 130.89 494.97 628.08 1042.43 388.98 1254.31 372.28 1156.63 503.21 1090.14 612.09 1247.58 598.83
00065350 00000080 903.47 122.80 497.05 641.07 1037.88 386.24 1249.93 373.28 1148.51 502.19 1082.76 612.37 1238.75 602.13
00065351 00000081 899.07 121.33 493.56 637.71 1031.71 384.46 1243.89 374.64 1139.26 502.99 1073.31 609.60 1225.52 602.00
00065352 DELETE   892.08 116.71 497.26 639.06 1019.08 379.96 1226.32 372.76 1118.05 502.62 1060.52 608.16 1202.56 602.96
00065353 DELETE   882.79 115.74 501.44 633.81 997.93 377.53 1204.92 374.90 1085.51 500.37 1032.48 599.47 1177.51 597.66
00065354 00000084 876.17 110.63 500.07 631.61 981.12 370.64 1184.32 374.63 1059.45 504.54 1011.15 597.08 1152.91 600.80
00065355 00000085 874.18 120.22 489.04 614.48 967.40 365.65 1175.77 370.15 1040.53 494.39 987.79 591.30 1141.83 596.11
00065356 00000086 873.36 126.91 481.81 612.31 961.02 367.34 1166.92 372.60 1032.41 499.60 982.98 595.34 1131.05 601.20
00065357 00000087 873.19 125.95 487.33 620.09 959.86 374.51 1154.68 380.76 1023.83 506.33 982.57 599.26 1118.46 605.51
00065358 00000088 870.18 128.41 488.53 625.07 958.33 374.23 1152.47 379.29 1021.30 505.08 982.41 603.01 1116.81 608.40
00065359 00000089 865.50 127.28 490.54 619.77 955.34 373.13 1153.11 377.64 1023.06 505.21 979.05 596.61 1119.88 601.43
00065360 00000090 863.29 126.64 490.75 612.38 952.48 369.69 1151.89 374.24 1022.41 503.21 975.37 589.01 1121.84 593.75
00065361 00000091 863.04 121.94 491.30 617.97 949.93 368.19 1149.25 372.47 1017.84 500.15 974.04 590.17 1120.09 594.59
00065362 00000092 864.67 124.46 490.65 626.77 951.76 370.14 1145.45 372.55 1015.21 498.79 979.36 599.95 1111.45 602.89
00065363 00000093 865.19 127.40 492.31 628.19 951.07 371.24 1147.06 374.33 1015.57 505.38 979.64 604.90 1114.08 608.63
00065364 00000094 863.75 136.83 493.16 617.02 953.85 381.08 1152.04 380.54 1019.64 511.70 978.22 607.29 1120.13 608.60
00065365 00000095 863.54 138.02 492.96 620.47 950.29 388.47 1150.61 390.15 1016.80 524.77 975.94 614.98 1121.23 617.82
00065366 00000096 865.50 146.68 494.84 611.31 949.77 391.06 1154.82 401.28 1020.11 536.70 976.92 622.09 1122.34 631.61
00065367 00000097 865.55 147.76 495.26 612.07 954.34 390.10 1159.10 399.99 1027.03 535.65 981.69 621.33 1126.58 630.56
00065368 00000098 866.47 138.29 494.79 643.82 965.14 388.53 1161.36 386.26 1032.79 518.03 992.70 623.19 1129.79 622.59
00065369 00000099 868.89 136.78 496.33 637.87 964.81 386.53 1165.69 393.11 1035.86 523.05 992.96 623.31 1133.18 629.73
00065370 00000100 871.55 136.31 496.66 630.57 966.67 388.05 1169.09 393.67 1040.06 525.10 996.48 620.98 1139.48 626.39
00065371 00000101 873.72 132.84 495.51 630.62 972.36 391.35 1174.84 397.42 1047.27 527.56 1000.21 620.13 1144.91 625.96
00065372 00000102 873.44 121.53 500.11 639.42 980.22 390.33 1189.50 396.67 1062.95 532.39 1009.45 619.22 1160.46 625.37
00065373 00000103 881.37 124.58 496.54 642.84 994.00 397.08 1206.51 394.63 1086.17 532.52 1024.21 622.17 1186.50 621.15
00065374 00000104 887.89 131.90 494.35 641.95 1008.44 398.06 1220.57 393.68 1106.67 532.17 1039.77 625.36 1202.58 622.42
00065375 00000105 893.58 135.95 492.33 646.26 1018.02 394.25 1228.48 392.42 1115.00 527.42 1046.93 626.84 1205.12 625.98
00065376 00000106 895.45 138.73 493.09 645.22 1023.32 391.00 1234.70 388.42 1122.52 524.21 1051.18 624.47 1210.72 622.87
00065377 00000107 897.24 133.45 493.57 646.15 1027.69 387.41 1239.86 383.75 1129.16 518.40 1056.31 619.97 1215.08 617.49
00065378 00000108 899.78 124.53 494.11 644.01 1029.80 384.51 1245.46 379.33 1134.10 513.55 1060.06 615.17 1219.86 611.60
00065379 00000109 900.99 120.29 494.09 633.94 1031.98 384.52 1249.29 378.43 1137.66 510.79 1064.43 611.40 1220.99 607.32
00065380 00000110 902.36 122.64 495.10 631.20 1032.62 382.41 1250.50 375.96 1138.73 507.05 1065.77 608.72 1223.91 604.20
00065381 00000111 903.61 122.21 495.91 634.30 1033.85 381.61 1250.75 375.61 1139.35 507.98 1067.82 608.70 1225.07 604.59
00065382 00000112 904.73 123.41 495.11 638.06 1034.36 380.34 1250.63 375.11 1139.40 507.31 1069.94 612.65 1223.40 609.29
00065383 00000113 904.09 121.09 495.20 640.39 1033.81 381.79 1252.32 375.62 1140.13 507.58 1064.88 610.70 1226.77 606.44
00065384 00000114 904.47 120.28 494.85 640.54 1034.64 380.56 1252.80 374.75 1141.20 506.57 1065.21 610.17 1227.34 606.26
00065385 00000115 904.89 126.56 495.10 635.31 1037.00 378.47 1252.61 373.24 1143.36 504.08 1069.53 609.62 1227.06 606.31
00065386 00000116 906.74 125.21 493.69 638.11 1038.80 377.76 1253.12 372.14 1146.13 504.33 1071.95 612.02 1229.89 608.56
00065387 00000117 906.81 125.22 493.32 637.61 1041.34 377.11 1254.67 372.21 1149.02 502.34 1073.60 611.70 1229.88 608.94
00065388 00000118 907.24 125.14 494.82 641.86 1044.31 377.59 1256.56 373.47 1152.35 501.71 1076.34 613.35 1232.17 611.14
00065389 00000119 907.75 127.03 494.53 641.27 1045.88 377.61 1257.36 373.49 1154.18 500.42 1077.61 613.36 1232.65 611.09
00065390 00000120 907.75 127.79 495.76 643.34 1046.80 377.79 1258.37 373.80 1155.39 500.74 1078.24 613.04 1234.44 610.73
00065391 00000121 907.81 130.96 497.83 646.12 1047.36 378.54 1259.16 373.50 1156.95 501.03 1082.03 616.25 1237.81 612.88
00065392 00000122 907.54 129.25 500.11 652.06 1049.05 378.73 1261.66 374.20 1159.01 500.05 1082.49 617.41 1239.77 614.36
00065393 00000123 909.69 129.94 497.91 651.90 1052.69 387.34 1262.21 382.33 1160.74 497.70 1083.08 615.77 1241.92 612.12
00065394 00000124 910.98 132.04 496.23 638.33 1053.85 388.18 1264.43 381.68 1163.50 497.20 1085.07 610.77 1245.43 606.02
00065395 00000125 912.83 126.46 494.52 638.33 1056.80 386.39 1268.16 379.13 1167.43 498.14 1086.47 606.57 1247.63 601.44
00065396 00000126 917.93 125.58 497.06 633.63 1061.09 385.10 1275.57 374.15 1176.18 498.23 1095.58 603.96 1261.17 595.64
00065397 00000127 922.16 134.31 497.83 621.62 1067.60 384.01 1285.69 372.05 1186.77 500.98 1102.82 602.99 1270.24 594.06
00065398 00000128 926.04 136.52 501.29 624.61 1074.88 382.73 1295.10 371.70 1196.13 499.85 1110.42 605.96 1279.14 597.46
00065399 00000129 935.90 138.87 496.33 625.56 1086.44 380.36 1300.37 378.10 1208.45 494.18 1121.12 604.34 1282.12 600.23
00065400 00000130 939.39 135.30 496.41 632.23 1094.42 380.76 1308.49 379.52 1219.34 498.37 1130.05 607.59 1289.26 604.46
00065401 00000131 944.07 134.21 493.65 635.15 1099.50 381.76 1314.51 380.24 1226.43 504.52 1134.90 612.36 1295.43 609.29
00065402 00000132 947.78 144.24 491.47 631.29 1104.90 385.26 1318.38 379.97 1233.68 507.44 1141.10 618.75 1302.83 612.88
00065403 00000133 952.23 149.62 490.08 632.21 1109.23 388.95 1319.94 381.72 1236.22 509.25 1147.41 625.06 1306.26 617.99
00065404 00000134 953.40 148.84 490.61 634.19 1112.00 391.21 1323.25 381.53 1240.72 512.66 1152.92 627.87 1311.92 618.71
00065405 00000135 954.96 152.90 490.97 626.94 1114.09 394.29 1325.36 382.14 1244.77 512.92 1159.14 627.20 1318.18 615.87
00065406 00000136 956.71 155.84 489.47 622.08 1115.16 396.60 1326.15 383.10 1246.16 514.47 1160.75 627.20 1320.20 614.89
00065407 00000137 958.43 156.69 488.22 619.29 1115.90 396.71 1327.66 383.54 1246.94 514.59 1162.10 628.01 1320.77 615.92
00065408 00000138 958.54 153.34 487.57 620.69 1116.27 395.20 1328.77 381.98 1248.47 513.85 1163.22 627.98 1320.34 615.80
00065409 00000139 958.43 153.21 487.92 621.31 1116.72 395.13 1328.68 381.83 1248.60 513.95 1164.06 628.79 1319.83 616.52
00065410 00000140 958.25 152.88 487.88 618.79 1116.84 394.05 1329.43 381.15 1249.24 513.53 1164.71 627.74 1319.92 615.78
00065411 00000141 957.83 152.12 487.41 615.22 1115.52 393.00 1328.87 381.38 1247.44 512.99 1163.04 625.88 1318.32 614.90
00065412 00000142 957.18 153.39 487.37 612.84 1113.59 394.36 1327.07 383.16 1245.58 512.12 1160.37 624.55 1317.67 613.92
00065413 00000143 955.18 155.56 488.02 609.64 1111.99 394.47 1325.56 383.05 1244.07 512.25 1159.02 624.07 1316.11 613.27
00065414 00000144 954.34 154.69 488.55 611.50 1110.98 394.28 1323.45 383.40 1241.96 512.21 1158.39 624.34 1313.07 613.85
00065415 00000145 952.79 153.82 489.79 615.53 1109.68 393.36 1321.84 383.13 1240.06 512.71 1157.39 625.17 1310.99 615.14
00065416 00000146 951.92 154.31 490.14 616.31 1109.11 392.95 1320.76 383.01 1239.20 512.14 1156.58 624.84 1310.34 615.12
00065417 00000147 951.55 154.31 490.02 618.12 1108.38 393.24 1319.86 383.09 1238.51 512.01 1156.14 625.59 1309.85 615.66
00065418 00000148 951.27 153.01 490.07 620.50 1107.94 392.68 1319.01 382.62 1238.12 512.50 1155.64 626.31 1308.41 616.44
00065419 00000149 951.25 154.20 490.07 620.05 1107.83 393.44 1319.11 383.31 1237.73 513.47 1155.56 627.21 1308.14 617.36
00065420 00000150 950.36 154.50 490.97 622.95 1108.30 393.83 1318.46 383.31 1237.64 514.04 1156.07 628.16 1308.51 617.94
00065421 00000151 948.96 152.96 492.38 630.28 1108.09 393.84 1318.57 383.40 1237.98 514.58 1153.33 630.15 1307.95 620.22
00065422 00000152 949.62 152.13 490.29 634.29 1107.74 393.72 1316.35 385.27 1235.70 513.06 1147.45 629.80 1305.82 621.88
00065423 00000153 949.37 154.98 490.85 625.59 1104.79 394.28 1316.32 387.24 1231.53 514.53 1140.26 624.82 1304.62 618.41
00065424 00000154 950.40 157.08 490.51 607.54 1100.92 395.87 1316.19 390.24 1226.23 513.15 1137.51 616.35 1304.61 611.02
00065425 00000155 950.56 156.13 490.18 609.17 1099.77 396.80 1313.82 391.08 1223.65 512.20 1136.71 617.31 1302.33 611.80
00065426 00000156 948.39 156.13 491.96 621.46 1100.50 395.67 1311.87 390.51 1223.38 513.90 1135.87 621.94 1297.49 617.00
00065427 00000157 948.04 156.80 491.92 619.40 1096.98 395.87 1310.24 391.42 1218.74 513.62 1134.43 622.01 1294.23 617.64
00065428 00000158 945.93 160.02 492.71 616.09 1093.22 397.33 1307.24 393.29 1213.60 515.14 1130.44 622.24 1290.57 618.43
00065429 00000159 943.62 158.97 491.41 619.95 1086.67 397.93 1298.08 393.16 1204.94 515.43 1125.05 622.24 1285.05 617.76
00065430 00000160 935.07 152.93 496.12 634.29 1075.18 394.65 1286.10 390.62 1189.61 518.66 1112.53 623.95 1271.89 619.98
00065431 DELETE   922.81 138.96 502.43 652.98 1058.47 392.10 1274.39 389.32 1171.32 524.14 1096.63 633.10 1253.23 630.21
00065432 DELETE   913.61 136.62 502.93 653.65 1042.57 398.01 1259.06 394.64 1144.86 532.85 1071.14 633.30 1234.28 631.04
00065433 00000163 908.43 137.61 499.79 653.05 1029.71 396.36 1243.08 401.35 1120.62 536.01 1050.17 631.28 1212.45 635.64
00065434 DELETE   898.33 140.46 501.60 649.02 1018.26 391.43 1229.04 400.70 1104.14 532.76 1038.65 623.86 1195.44 630.83
