Video ID: 	VMTAWy8CGKU
H: 	1080
W: 	1920
FPS: 	25.0

FRAME INDEX X0 Y0 W H [Landmarks (5 Points)]

00001765 00000000 752.87 129.14 494.87 711.85 835.99 404.00 1067.06 398.93 920.36 530.59 861.43 665.60 1037.93 662.17
00001766 00000001 755.35 129.86 504.22 708.55 843.06 403.14 1079.37 401.03 925.55 529.30 862.25 668.29 1036.70 668.03
00001767 00000002 759.12 138.24 506.91 700.62 847.83 399.86 1076.03 403.83 918.69 526.23 856.11 664.86 1025.48 671.00
00001768 00000003 762.71 140.50 506.54 702.56 852.00 397.94 1071.66 411.01 907.19 523.52 844.97 660.41 1001.25 674.79
00001769 00000004 767.53 138.16 507.11 719.95 857.87 392.21 1074.33 415.63 903.83 521.98 839.19 661.17 995.57 684.46
00001770 DELETE   776.31 138.67 504.05 732.58 871.12 391.38 1086.48 416.44 920.39 527.21 852.82 665.49 1013.47 689.91
00001771 DELETE   794.14 141.21 489.99 723.73 885.13 394.56 1113.46 415.91 954.30 532.81 874.65 672.02 1045.44 693.16
00001772 00000007 804.49 137.71 485.88 718.09 893.85 396.14 1135.53 415.09 980.54 536.75 894.28 669.20 1079.52 687.53
00001773 00000008 803.70 134.20 482.92 724.31 903.92 394.71 1142.75 417.84 993.42 540.06 896.32 664.72 1092.60 684.48
00001774 00000009 794.56 132.60 489.67 725.47 896.61 395.70 1134.10 415.35 988.09 542.39 895.97 667.66 1089.27 684.65
00001775 00000010 784.91 128.55 491.77 721.62 882.55 396.37 1124.80 410.83 973.71 536.88 887.16 665.02 1078.74 678.84
00001776 00000011 776.76 118.52 497.96 717.71 876.31 388.11 1119.73 399.47 966.29 524.43 883.07 657.27 1066.10 668.48
00001777 00000012 770.50 113.22 494.39 711.90 872.12 376.01 1112.99 399.76 963.16 514.52 878.07 640.69 1059.28 661.81
00001778 00000013 767.22 110.47 484.87 711.46 873.00 367.52 1114.04 394.35 963.13 511.58 871.33 641.90 1053.71 663.91
00001779 00000014 761.50 124.37 502.03 717.68 878.87 378.64 1114.83 400.54 963.69 508.95 875.50 645.75 1049.41 666.73
00001780 00000015 763.60 127.46 502.50 739.70 878.76 380.28 1116.91 402.40 961.57 513.00 873.97 665.53 1048.30 686.85
00001781 00000016 764.85 127.32 503.57 730.61 875.47 384.67 1116.85 402.96 963.50 513.85 874.68 665.24 1054.56 683.28
00001782 00000017 768.17 124.97 502.92 725.82 873.96 385.86 1116.46 403.00 961.23 517.69 876.55 664.47 1059.65 681.25
00001783 00000018 770.50 118.30 499.62 735.50 861.92 387.62 1113.48 403.32 950.04 530.82 862.90 664.24 1061.79 678.99
00001784 00000019 764.55 126.56 509.37 733.50 872.87 384.12 1109.84 407.76 951.00 522.80 866.10 658.32 1057.75 679.89
00001785 00000020 761.92 122.85 510.39 740.85 867.49 383.37 1106.89 410.35 944.12 520.38 855.71 654.75 1061.66 678.59
00001786 00000021 761.87 119.56 506.33 744.77 868.16 382.75 1107.66 410.55 942.41 518.91 853.10 650.55 1070.63 674.46
00001787 00000022 762.63 119.66 500.93 745.06 867.68 384.25 1109.25 409.54 945.29 522.84 854.58 650.78 1077.74 672.24
00001788 00000023 766.24 118.56 495.67 741.41 859.46 389.41 1109.31 403.57 946.60 529.53 855.79 657.76 1077.05 670.54
00001789 00000024 766.39 126.71 492.89 720.75 858.31 391.45 1107.32 408.00 956.22 533.73 865.67 652.03 1081.94 665.84
00001790 00000025 765.49 130.07 492.44 712.44 858.19 395.31 1106.62 409.94 958.16 536.78 867.94 653.18 1081.77 665.26
00001791 00000026 765.65 133.04 490.60 704.66 857.24 398.11 1106.73 410.81 959.03 538.32 869.38 654.00 1083.13 664.25
00001792 00000027 764.90 135.64 492.83 704.84 856.56 399.55 1106.05 411.89 957.05 540.78 870.06 657.79 1081.33 667.74
00001793 00000028 764.83 132.21 494.46 716.07 851.51 404.88 1100.15 412.92 944.82 544.71 862.74 667.84 1074.75 675.53
00001794 00000029 764.32 134.14 493.31 721.17 849.75 406.84 1099.77 414.30 942.08 545.58 861.09 671.73 1075.23 678.79
00001795 00000030 763.81 136.47 494.02 719.32 848.12 409.90 1099.08 416.73 941.39 548.80 859.52 673.93 1077.15 680.36
00001796 00000031 764.77 139.83 492.88 716.38 847.69 411.09 1099.57 418.35 941.70 550.82 858.67 675.11 1078.77 681.87
00001797 00000032 765.60 144.83 491.81 717.26 847.68 414.81 1100.66 421.11 942.98 553.69 859.83 678.49 1082.99 684.14
00001798 00000033 767.25 147.09 491.03 733.05 850.07 417.68 1102.10 421.18 944.41 554.26 863.96 684.27 1088.16 687.53
00001799 00000034 771.71 148.68 491.76 748.01 853.85 418.07 1104.60 422.28 947.22 557.01 869.95 691.27 1085.92 695.62
00001800 00000035 774.20 148.62 493.15 743.64 859.45 419.75 1106.00 426.37 952.96 561.24 877.75 694.17 1073.84 701.29
00001801 00000036 771.56 157.28 500.93 734.23 874.68 417.54 1110.17 424.29 966.50 560.18 885.73 696.31 1064.70 703.58
00001802 00000037 774.25 158.15 497.91 741.21 877.62 417.88 1112.18 425.04 968.31 559.68 889.79 702.90 1059.34 710.92
00001803 00000038 776.62 159.51 494.57 734.05 878.52 422.82 1113.09 429.42 971.04 563.68 893.66 704.20 1059.57 711.74
00001804 00000039 777.66 167.56 495.95 715.11 876.04 428.56 1116.00 436.74 972.00 568.04 887.01 698.94 1069.13 707.49
00001805 00000040 781.83 170.95 493.47 706.48 876.60 432.08 1117.72 440.37 971.38 571.27 888.66 700.04 1071.06 708.66
00001806 00000041 783.26 170.41 488.79 711.05 877.52 434.29 1117.08 442.13 970.10 573.03 891.03 704.67 1069.93 713.00
00001807 00000042 784.24 172.21 487.55 716.52 880.91 434.42 1118.46 444.03 970.20 574.59 890.43 702.84 1071.45 712.57
00001808 00000043 783.43 171.31 488.64 725.40 880.10 439.68 1115.94 448.15 966.42 576.06 887.16 703.57 1082.20 711.61
00001809 00000044 779.41 174.10 495.54 727.76 876.68 440.25 1113.14 449.04 962.30 580.39 882.21 701.43 1089.18 709.18
00001810 00000045 775.46 175.10 496.00 733.91 871.02 443.60 1109.39 449.86 955.90 584.13 876.73 703.89 1094.21 709.24
00001811 00000046 774.00 172.53 494.89 738.84 866.60 445.09 1105.36 450.75 951.33 591.14 874.66 704.99 1095.47 709.75
00001812 00000047 768.90 173.67 496.52 736.00 860.65 448.00 1102.62 452.33 949.22 596.87 869.86 706.81 1094.90 710.40
00001813 00000048 766.88 178.49 496.12 725.22 848.99 452.36 1097.15 455.06 948.38 601.06 872.79 711.32 1090.57 712.98
00001814 00000049 756.72 173.83 496.52 732.33 847.84 456.55 1083.36 455.77 942.12 597.88 866.85 717.58 1065.96 717.33
00001815 DELETE   750.53 178.55 494.37 730.90 834.48 455.28 1070.73 454.49 926.50 599.32 857.71 725.61 1049.16 726.20
00001816 00000051 742.57 180.21 497.51 740.26 826.68 452.80 1064.92 453.74 916.99 600.34 848.62 730.97 1038.12 733.82
00001817 00000052 734.37 179.80 496.36 746.93 818.20 455.97 1058.22 452.62 909.14 600.29 842.99 737.99 1036.53 737.05
00001818 00000053 726.42 180.02 498.54 738.90 811.75 458.69 1053.20 454.73 904.98 604.37 838.59 733.95 1035.20 731.77
00001819 00000054 717.26 182.10 503.29 732.39 804.35 458.09 1048.74 454.39 900.44 607.79 832.87 730.45 1035.47 727.87
00001820 00000055 709.51 181.05 505.68 727.11 799.95 456.87 1043.57 450.79 897.72 603.32 830.45 727.71 1029.74 723.16
00001821 00000056 706.13 174.17 507.64 727.97 800.05 453.11 1040.85 444.53 895.84 587.90 828.84 719.82 1025.52 712.98
00001822 00000057 701.87 171.35 504.35 727.57 794.12 442.92 1034.37 434.37 887.47 574.94 823.30 711.66 1019.51 704.53
00001823 00000058 698.32 166.27 503.32 735.67 789.32 437.14 1027.05 426.93 880.57 569.24 817.74 710.46 1012.14 702.21
00001824 00000059 697.04 161.93 503.98 745.20 788.50 433.86 1023.88 421.44 876.71 560.41 817.79 711.07 1010.13 700.85
00001825 00000060 695.86 158.99 501.65 754.01 789.31 428.54 1025.43 415.34 878.38 551.03 818.27 711.41 1009.32 700.47
00001826 00000061 694.74 158.33 503.59 747.84 790.16 427.79 1027.35 411.55 882.40 544.08 819.71 707.84 1011.66 694.19
00001827 00000062 698.87 157.99 500.62 726.80 791.84 429.49 1030.04 413.48 887.51 544.94 821.85 696.93 1015.55 683.27
00001828 00000063 701.27 158.90 497.58 715.64 792.64 429.88 1032.56 414.07 891.71 544.47 821.08 689.32 1023.61 675.77
00001829 00000064 708.01 150.80 490.79 715.94 785.84 432.29 1030.17 411.32 885.40 544.45 821.27 691.88 1022.71 674.69
00001830 00000065 709.17 151.08 488.79 715.02 787.89 431.86 1033.27 412.12 888.61 544.72 822.08 691.13 1026.59 674.80
00001831 00000066 704.55 157.13 498.62 734.99 800.98 428.44 1039.69 416.95 897.16 548.50 822.91 691.16 1032.83 681.01
00001832 00000067 707.03 164.37 494.07 728.57 805.46 446.68 1041.26 437.03 897.15 556.82 822.69 697.77 1034.33 689.34
00001833 DELETE   717.17 165.43 488.82 723.47 799.27 451.25 1043.98 442.38 903.63 578.16 819.90 705.96 1034.96 698.66
00001834 00000069 717.41 170.20 487.55 718.83 797.63 453.18 1039.88 450.25 901.17 589.93 817.76 712.35 1023.36 710.26
00001835 00000070 703.00 176.06 500.71 722.43 792.68 458.20 1036.25 454.59 893.81 601.36 816.60 719.01 1022.60 716.63
00001836 00000071 700.18 179.09 502.24 732.05 787.89 461.07 1035.01 456.17 890.55 610.04 812.62 726.48 1023.62 723.13
00001837 00000072 696.65 185.77 502.08 740.96 786.70 470.51 1032.87 464.73 887.78 619.16 816.34 742.41 1011.12 738.71
00001838 00000073 694.47 195.38 498.62 746.77 781.58 473.76 1030.98 468.86 884.80 622.36 809.63 752.24 1013.46 749.33
00001839 00000074 694.53 196.63 499.05 735.76 781.83 474.91 1031.89 470.47 887.47 625.27 813.15 750.52 1014.44 747.79
00001840 00000075 697.81 190.69 498.28 728.46 788.53 471.77 1036.62 468.44 892.67 622.97 817.16 736.11 1022.84 733.83
00001841 00000076 701.83 188.85 499.64 719.48 793.41 467.03 1041.63 465.39 898.01 619.41 820.91 728.10 1030.01 727.01
00001842 00000077 703.63 187.84 501.07 721.18 798.78 466.39 1046.24 465.70 902.75 620.43 823.94 725.08 1037.92 724.41
00001843 00000078 705.63 188.77 503.45 716.18 805.69 468.40 1052.13 469.05 910.02 622.70 830.32 727.00 1041.27 727.33
00001844 00000079 714.06 191.52 498.52 724.10 808.50 470.87 1054.45 470.86 917.89 627.97 833.20 732.44 1048.04 732.21
00001845 00000080 720.18 193.37 495.87 724.90 813.90 471.47 1058.18 471.93 920.92 630.18 836.89 730.84 1053.69 730.72
00001846 00000081 719.91 193.74 498.17 721.50 817.10 473.46 1062.26 470.79 921.38 625.31 838.40 727.58 1064.66 724.07
00001847 00000082 722.48 192.66 498.34 720.04 819.61 471.91 1062.76 468.90 923.45 621.93 838.96 722.90 1066.91 718.97
00001848 00000083 727.65 190.64 493.71 718.22 820.42 466.96 1062.11 466.59 925.31 618.48 842.27 720.28 1059.85 719.09
00001849 00000084 721.94 186.84 496.43 720.56 815.19 464.69 1056.87 463.81 915.81 613.13 833.28 714.40 1058.06 712.61
00001850 00000085 722.99 178.74 494.25 730.27 813.55 456.22 1054.44 457.88 914.61 611.20 832.48 714.57 1047.71 715.32
00001851 00000086 719.12 182.19 498.12 721.25 808.25 456.73 1050.74 456.84 904.38 607.40 826.52 713.88 1043.94 714.08
00001852 00000087 718.36 179.10 498.51 724.38 805.14 455.02 1046.32 455.09 898.63 605.73 823.84 714.33 1037.43 714.79
00001853 00000088 716.26 176.57 497.57 738.01 805.87 461.68 1041.81 460.50 896.01 600.88 824.58 720.66 1033.21 719.97
00001854 00000089 714.21 180.89 488.32 749.04 809.61 466.16 1040.10 463.26 897.76 602.80 825.02 724.39 1035.59 722.17
00001855 00000090 710.49 180.15 492.96 754.17 804.10 460.03 1037.94 457.73 892.14 600.51 819.78 728.34 1026.33 727.03
00001856 00000091 706.85 174.69 499.57 750.95 791.58 458.71 1031.39 455.42 882.40 604.74 816.55 731.77 1011.87 730.21
00001857 00000092 700.32 178.62 505.69 733.26 786.08 460.82 1028.59 454.96 881.51 608.79 812.32 728.93 1012.62 725.17
00001858 00000093 693.54 181.36 508.43 729.40 777.70 462.48 1022.90 454.01 874.54 615.50 807.64 733.87 1009.77 727.86
00001859 00000094 687.46 192.21 507.50 710.54 769.09 468.55 1013.69 458.20 871.78 625.56 815.05 740.93 1000.11 732.64
00001860 00000095 675.11 189.13 514.75 724.22 760.89 480.65 995.78 457.72 862.59 624.29 812.99 749.68 995.44 730.62
00001861 00000096 657.20 192.91 526.67 732.84 749.11 489.31 985.10 460.64 852.19 634.02 811.53 761.63 991.01 737.61
00001862 00000097 639.11 212.88 533.22 724.10 736.07 496.48 975.87 463.23 847.95 644.71 811.01 769.82 989.61 740.72
00001863 00000098 642.65 214.35 532.06 720.45 733.61 504.73 963.19 469.43 835.78 648.96 809.66 768.79 991.27 738.18
00001864 00000099 642.12 227.51 526.14 697.30 726.11 505.62 960.03 470.25 835.14 650.26 804.02 765.80 983.82 737.43
00001865 00000100 641.15 211.04 530.63 707.06 725.64 497.90 957.49 464.67 824.11 641.79 796.23 757.91 981.36 729.08
00001866 00000101 641.87 208.49 524.20 714.87 725.16 492.55 962.49 458.15 830.46 633.72 795.21 755.43 985.15 725.15
00001867 00000102 642.57 205.19 527.67 733.25 728.84 484.96 967.70 451.59 833.54 626.98 796.46 754.90 989.20 725.06
00001868 DELETE   646.40 196.01 517.63 752.02 733.18 483.83 972.79 450.29 838.85 626.17 796.86 761.80 998.28 731.60
00001869 00000104 647.25 189.04 522.55 761.32 734.72 479.72 970.10 448.64 831.23 620.98 792.26 761.88 993.14 734.68
00001870 00000105 643.58 189.62 520.72 745.58 732.52 480.01 969.30 451.60 831.69 623.12 791.56 760.30 980.82 735.92
00001871 00000106 642.88 191.15 519.36 727.81 732.40 479.69 973.06 455.84 834.66 626.39 788.06 750.71 981.20 730.12
00001872 00000107 643.33 190.42 519.33 725.31 733.23 483.04 978.83 458.49 840.82 629.71 787.00 749.01 989.02 727.77
00001873 00000108 646.29 192.80 520.43 723.90 738.73 486.73 983.26 460.38 849.58 634.34 797.27 752.47 996.08 729.62
00001874 00000109 653.82 200.05 509.68 716.92 740.47 488.51 986.34 458.89 859.93 637.93 803.71 754.85 1005.30 730.67
00001875 DELETE   661.03 187.46 507.41 728.66 752.49 483.25 997.25 455.32 864.85 624.47 801.32 747.73 1018.96 723.03
00001876 00000111 671.67 182.92 500.14 726.40 760.78 473.19 1002.70 447.37 873.65 618.47 807.25 739.22 1021.59 716.63
00001877 00000112 685.41 183.50 489.74 711.26 763.18 468.30 1008.97 448.23 876.87 622.72 810.48 736.14 1015.35 719.20
00001878 00000113 678.38 173.44 499.54 724.57 767.33 461.61 1006.50 443.92 877.75 613.72 811.56 726.51 1010.48 710.96
00001879 00000114 679.58 173.79 502.21 724.82 765.50 460.76 1003.51 447.17 871.95 614.20 807.87 728.49 1000.52 716.80
00001880 00000115 683.85 181.19 499.61 714.16 764.55 460.85 1014.99 451.99 873.13 622.54 808.78 735.87 999.69 728.79
00001881 00000116 689.44 184.82 502.55 715.34 770.92 461.38 1022.17 456.89 878.45 623.50 810.27 736.52 1001.64 733.55
00001882 00000117 693.87 187.09 502.18 713.77 774.37 461.33 1026.61 457.48 882.65 622.92 812.88 735.71 1007.04 733.04
00001883 00000118 697.47 184.86 501.20 712.20 778.66 458.42 1026.31 454.24 884.61 617.09 818.69 730.99 1009.46 728.04
00001884 00000119 695.91 176.42 513.60 720.42 782.73 455.54 1028.94 445.31 887.36 607.66 822.93 732.94 1012.01 725.64
00001885 00000120 698.29 171.58 512.62 722.23 788.80 453.38 1034.32 443.83 892.87 604.24 829.80 731.66 1010.74 725.00
00001886 00000121 702.27 171.44 509.57 735.29 796.74 452.69 1040.29 447.00 897.82 606.28 832.97 731.81 1015.70 728.35
00001887 00000122 712.20 172.47 502.81 756.83 803.37 455.59 1046.16 448.18 901.31 606.35 835.94 743.03 1028.92 737.94
00001888 00000123 717.39 172.21 497.61 767.00 808.22 456.32 1049.28 449.46 903.89 606.94 836.28 742.78 1040.45 737.82
00001889 00000124 722.56 176.30 493.56 762.95 812.01 457.42 1053.16 451.35 908.54 607.49 837.83 740.55 1043.35 736.24
00001890 00000125 724.22 180.04 493.77 746.57 814.76 457.03 1055.45 452.52 912.82 607.48 841.77 734.20 1039.96 731.38
00001891 00000126 727.18 177.86 494.98 731.06 814.51 454.03 1059.34 455.24 918.71 610.82 840.77 727.01 1034.59 729.03
00001892 00000127 726.35 180.20 501.28 717.36 820.54 455.03 1061.95 455.18 921.03 607.74 848.94 721.85 1041.42 722.64
00001893 00000128 732.04 180.01 496.32 714.85 821.94 453.10 1066.56 454.38 928.05 607.91 854.10 723.15 1042.42 724.91
00001894 00000129 738.23 181.57 490.32 716.30 827.87 455.03 1071.28 455.20 934.96 609.93 856.65 725.65 1048.27 726.40
00001895 00000130 743.11 184.51 490.88 718.08 831.41 457.15 1074.93 457.64 936.03 615.41 859.77 730.10 1051.38 731.23
00001896 00000131 748.34 183.62 494.91 722.33 834.29 460.97 1074.98 456.65 934.92 616.07 865.00 732.51 1059.67 729.26
00001897 00000132 751.61 184.71 495.25 723.97 837.16 463.30 1078.35 462.47 935.05 618.53 862.97 733.09 1060.76 732.66
00001898 00000133 755.36 185.09 492.71 722.85 840.41 466.40 1080.45 466.54 937.25 619.75 862.91 734.05 1061.10 734.60
00001899 00000134 753.27 193.39 496.95 706.25 837.26 465.76 1084.07 473.13 936.03 625.29 862.94 726.62 1061.33 732.70
00001900 00000135 752.96 193.23 497.69 706.03 836.31 464.65 1081.77 474.72 932.21 626.32 860.37 725.06 1057.82 733.38
00001901 00000136 748.48 194.03 499.06 706.79 834.51 477.66 1079.36 487.25 927.52 628.97 857.09 728.22 1055.44 735.95
00001902 00000137 751.47 197.22 487.53 706.35 828.96 485.83 1063.30 492.52 915.42 630.68 845.62 735.92 1040.13 742.38
00001903 00000138 740.40 199.35 495.64 705.54 813.82 478.59 1053.05 488.11 897.42 634.36 832.37 736.02 1026.34 745.32
00001904 00000139 724.61 195.74 499.55 717.26 795.67 474.30 1037.60 482.39 880.12 636.82 817.55 738.48 1017.68 746.71
00001905 00000140 714.64 196.72 510.57 732.96 789.53 474.59 1028.55 480.14 868.41 637.76 811.84 742.01 1015.96 747.42
00001906 00000141 711.54 194.74 507.47 748.95 787.21 476.34 1028.22 478.37 866.75 638.55 810.04 749.79 1021.83 751.68
00001907 00000142 709.60 193.89 507.38 742.67 787.22 473.56 1031.10 475.04 872.29 637.82 811.25 744.77 1025.45 746.24
00001908 00000143 708.69 192.22 499.65 735.39 788.66 472.60 1035.30 473.90 882.13 634.78 815.99 745.17 1022.63 746.98
00001909 00000144 707.24 190.12 498.95 727.23 792.13 469.53 1041.58 472.62 891.65 633.62 819.84 745.34 1015.06 749.33
00001910 00000145 702.23 188.94 502.84 729.65 792.44 468.52 1045.06 470.53 896.88 632.45 821.10 744.73 1019.89 747.58
00001911 00000146 700.11 190.88 504.06 722.54 790.43 468.47 1043.41 468.36 897.62 631.08 821.07 743.85 1020.58 744.90
00001912 00000147 693.37 191.83 500.82 719.20 781.08 465.43 1036.17 464.01 895.29 631.05 817.00 742.13 1014.81 741.27
00001913 00000148 688.89 185.55 500.83 723.71 771.97 463.13 1026.19 461.25 882.62 630.22 808.15 739.85 1005.21 738.85
00001914 00000149 680.62 181.38 498.72 730.27 763.81 467.72 1004.11 458.57 867.13 625.09 800.32 742.15 990.22 734.89
00001915 00000150 664.69 186.70 498.63 731.30 744.03 471.06 987.12 463.38 844.46 629.76 781.41 751.31 968.36 746.24
00001916 00000151 642.93 195.52 504.08 729.71 725.42 477.60 967.01 472.00 820.13 640.62 765.17 755.27 946.01 752.28
00001917 DELETE   632.45 218.43 512.95 717.20 725.24 494.27 968.04 488.28 825.43 657.88 768.64 764.46 954.84 760.12
00001918 00000153 646.64 231.06 498.42 710.80 726.94 501.17 974.44 492.71 838.93 675.44 769.82 773.15 970.42 766.57
00001919 00000154 645.71 231.72 497.91 709.03 728.57 506.25 976.31 493.97 846.45 681.17 776.40 774.32 978.53 764.62
00001920 00000155 642.40 228.83 501.49 709.55 727.56 505.54 976.20 490.91 847.78 676.71 779.08 775.47 978.21 763.96
00001921 00000156 640.35 227.93 498.72 706.23 723.41 501.72 971.33 487.85 842.35 671.06 774.76 774.43 969.02 763.55
00001922 00000157 643.43 222.92 492.62 705.02 726.63 494.84 971.71 485.62 841.04 663.40 772.72 768.74 957.41 762.03
00001923 00000158 646.58 214.62 493.82 715.43 731.69 486.40 976.56 480.15 845.19 655.45 775.32 766.63 953.36 762.76
00001924 00000159 647.89 198.08 499.55 738.67 743.39 485.40 979.73 473.04 850.42 642.94 795.08 765.40 964.36 756.18
00001925 00000160 662.09 193.54 499.76 751.60 747.13 475.94 987.88 465.60 848.39 636.19 786.28 757.33 985.02 748.97
00001926 00000161 668.61 188.40 499.73 750.18 754.03 469.56 991.77 460.86 848.84 626.05 784.79 743.47 995.89 735.42
00001927 00000162 676.43 186.30 493.65 746.11 756.95 465.83 995.05 459.23 849.57 620.82 782.73 734.72 1000.86 728.22
00001928 00000163 679.04 181.38 496.46 746.87 759.82 462.45 998.34 455.12 852.08 616.66 783.88 727.44 1006.99 720.09
00001929 00000164 680.85 176.15 503.18 747.52 764.73 457.75 1003.31 449.73 858.40 610.18 787.94 721.52 1008.98 713.69
00001930 00000165 683.40 171.93 506.09 739.78 770.28 453.28 1008.31 446.32 865.91 604.09 795.68 712.66 1012.49 705.72
00001931 00000166 691.18 171.36 501.52 738.53 777.51 452.29 1016.45 442.02 867.38 593.07 801.56 710.98 1022.05 702.14
00001932 00000167 696.02 168.33 505.28 750.26 783.33 448.46 1022.94 434.87 873.05 584.77 812.16 714.52 1032.97 702.24
00001933 00000168 702.56 166.21 504.96 753.48 789.67 442.62 1029.80 427.76 882.67 578.99 818.29 709.39 1040.74 695.71
