Video ID: 	6x7JkNRKhFU
H: 	1080
W: 	1920
FPS: 	23.976023976023978

FRAME INDEX X0 Y0 W H [Landmarks (5 Points)]

00004446 00000000 308.01 102.35 501.84 703.75 531.44 373.08 746.05 376.83 701.33 500.83 564.51 631.16 733.88 633.78
00004447 00000001 307.96 105.13 502.60 703.59 532.17 373.87 747.34 379.71 701.84 503.37 564.32 633.38 733.69 637.75
00004448 00000002 309.37 104.93 501.46 704.37 534.11 374.22 748.20 381.36 702.58 503.63 565.38 633.32 734.09 638.71
00004449 00000003 311.77 105.28 499.82 697.25 534.46 375.45 749.34 379.97 703.42 502.17 568.86 631.27 736.53 634.43
00004450 00000004 314.02 105.74 499.16 691.88 538.02 377.24 749.94 377.01 707.10 502.30 579.50 631.19 741.61 630.32
00004451 00000005 318.34 105.51 498.66 691.42 547.39 380.26 756.39 380.97 715.39 505.97 587.07 633.25 746.48 633.00
00004452 DELETE   321.43 101.86 505.31 694.72 555.10 384.15 771.25 384.10 725.74 510.94 586.07 633.24 751.87 632.98
00004453 00000007 328.61 106.73 504.85 696.66 574.79 380.09 778.98 378.47 744.98 508.70 596.11 630.52 759.44 627.57
00004454 00000008 338.71 106.02 497.02 706.19 588.77 375.10 785.50 376.23 760.41 505.91 606.27 635.07 767.27 634.92
00004455 00000009 340.06 111.57 497.77 703.04 590.49 378.38 783.08 380.89 757.14 511.12 605.07 637.79 764.80 639.15
00004456 00000010 335.43 109.24 505.00 706.91 583.55 384.74 782.27 387.96 750.68 514.92 594.72 640.12 759.17 642.36
00004457 00000011 336.20 112.72 504.26 701.11 580.39 385.65 780.43 386.71 747.25 513.34 594.44 639.50 759.65 639.94
00004458 00000012 335.57 112.00 501.37 705.86 579.90 385.89 780.96 387.06 748.84 516.96 593.39 644.04 760.12 644.48
00004459 00000013 331.84 116.69 503.84 708.31 574.05 390.26 777.71 392.16 743.45 522.51 589.33 650.82 759.00 651.71
00004460 00000014 329.61 123.34 506.48 713.47 568.12 394.07 774.95 397.25 737.14 531.60 578.57 658.19 753.34 660.44
00004461 00000015 330.62 129.52 504.20 712.70 568.08 400.36 772.59 403.36 735.65 538.01 577.10 661.47 752.47 664.11
00004462 00000016 329.64 134.64 503.20 705.31 565.04 404.61 771.35 406.74 732.74 542.29 576.05 663.49 751.23 665.66
00004463 00000017 327.66 134.11 501.82 699.27 560.95 403.74 767.31 405.40 727.63 539.70 573.48 658.82 749.24 660.37
00004464 00000018 324.58 126.53 503.01 700.11 557.70 400.83 763.18 403.52 722.44 536.42 572.74 654.04 746.70 655.87
00004465 00000019 325.35 127.56 499.99 700.74 555.82 400.87 761.34 403.15 719.87 537.70 573.16 655.47 746.29 656.81
00004466 00000020 325.29 137.34 496.47 696.05 550.53 407.78 757.74 408.54 714.55 544.78 573.21 663.47 744.91 663.54
00004467 00000021 319.96 137.52 496.56 693.27 545.79 410.13 754.11 411.16 709.56 547.35 572.74 664.79 742.85 664.69
00004468 00000022 319.76 136.57 495.43 695.05 543.29 409.11 751.14 409.45 706.94 545.49 572.65 665.11 741.98 664.36
00004469 00000023 320.01 136.13 494.90 698.01 543.47 406.44 748.67 408.24 703.28 544.28 572.02 665.47 736.76 666.18
00004470 00000024 320.40 135.04 493.16 699.90 543.51 407.97 747.29 408.28 703.23 544.31 569.94 664.80 735.16 664.50
00004471 00000025 318.80 135.80 494.70 698.51 540.06 409.30 748.26 409.90 701.29 546.93 563.09 664.44 733.33 664.54
00004472 00000026 317.39 134.52 495.62 700.01 539.28 409.61 747.95 410.12 701.08 547.60 560.41 664.07 732.70 664.10
00004473 00000027 318.40 135.91 496.12 697.16 540.05 410.08 749.45 409.77 702.77 547.38 561.45 663.10 735.10 662.45
00004474 00000028 319.49 136.70 496.15 693.62 540.56 409.22 749.79 408.23 703.60 546.14 563.13 660.91 736.70 659.68
00004475 00000029 318.92 135.53 496.87 694.69 540.39 407.16 749.21 407.83 702.73 544.05 561.19 658.82 735.66 658.90
00004476 00000030 317.93 134.06 496.33 694.14 540.12 403.75 747.25 405.81 700.95 542.36 560.14 655.31 733.59 656.46
00004477 00000031 315.14 132.10 497.21 694.68 538.38 400.17 745.99 402.57 699.44 540.39 557.13 654.15 730.82 655.48
00004478 00000032 314.57 131.92 496.85 693.33 537.77 399.74 745.22 402.28 698.21 540.81 555.72 653.35 729.18 654.77
00004479 00000033 312.77 130.39 498.68 694.09 537.72 398.71 744.70 400.82 698.84 540.11 555.04 652.65 728.66 653.75
00004480 00000034 313.12 127.81 497.86 695.32 535.12 397.45 745.51 399.25 697.44 539.02 553.74 651.88 729.15 652.58
00004481 00000035 311.07 125.90 499.12 697.23 533.87 396.05 745.04 398.75 695.78 538.17 550.53 649.83 727.27 651.39
00004482 00000036 310.05 125.67 499.62 697.82 531.98 394.58 744.70 398.43 693.85 536.99 547.54 648.94 726.01 651.43
00004483 00000037 310.10 126.28 498.32 702.38 532.39 393.41 742.94 398.54 693.46 536.63 548.37 653.41 723.96 656.85
00004484 00000038 312.53 125.10 496.83 705.73 535.67 390.20 742.26 397.37 692.89 532.62 556.80 654.39 724.29 658.93
00004485 00000039 312.45 123.58 497.47 705.35 536.62 389.55 743.28 396.98 694.00 531.07 559.89 653.63 726.47 658.19
00004486 00000040 314.30 124.26 496.24 702.60 536.77 389.17 743.94 397.89 692.69 530.03 560.11 652.50 726.94 658.14
00004487 00000041 314.95 116.97 497.67 701.77 528.28 398.19 753.36 399.12 695.68 525.90 559.30 651.70 733.50 652.30
00004488 00000042 316.40 117.39 494.78 699.89 523.79 398.97 754.92 401.40 690.56 525.74 548.62 649.56 731.72 651.62
00004489 00000043 315.11 117.90 493.80 696.31 525.86 394.79 750.18 395.66 692.52 524.17 552.77 645.65 730.26 646.62
00004490 00000044 314.44 121.21 497.65 692.24 531.34 388.73 744.77 394.03 689.85 524.47 553.68 643.94 727.42 646.66
00004491 00000045 314.65 122.14 498.45 691.10 536.30 388.03 746.35 394.35 694.69 523.71 561.35 643.40 731.19 646.86
00004492 00000046 317.73 123.15 496.73 696.21 536.97 392.89 747.93 397.73 696.42 528.09 564.43 650.90 733.53 653.28
00004493 00000047 317.68 127.93 495.72 698.67 533.69 398.91 745.34 402.44 691.67 540.63 560.70 658.62 731.30 660.22
00004494 00000048 318.40 136.45 494.87 698.31 531.86 406.26 744.01 412.34 687.94 547.43 556.89 665.28 728.09 669.30
00004495 00000049 318.75 143.00 494.77 699.76 530.52 414.00 744.85 416.44 687.02 556.17 554.83 672.83 726.42 674.53
00004496 00000050 317.92 149.57 498.56 695.96 527.73 424.49 749.41 423.26 690.50 562.51 553.89 681.02 730.89 679.80
00004497 00000051 317.69 161.22 499.80 700.51 522.80 431.38 749.53 429.02 689.10 572.23 544.02 689.44 728.76 687.79
00004498 00000052 316.06 169.86 501.36 703.09 521.81 438.71 751.90 436.40 692.08 577.60 543.29 696.21 730.98 694.59
00004499 00000053 314.00 174.47 500.31 701.95 520.63 444.03 750.38 439.00 692.65 582.89 542.63 701.24 728.90 697.49
00004500 00000054 311.22 176.60 498.31 700.73 517.25 447.79 747.01 441.13 689.25 585.84 540.36 702.47 725.96 697.50
00004501 00000055 309.59 170.84 497.27 703.98 514.68 444.78 743.28 437.98 687.16 577.94 543.54 698.66 729.78 692.97
00004502 00000056 307.32 165.24 497.27 708.36 511.48 441.43 741.24 435.54 683.84 573.92 542.13 696.86 728.78 691.58
00004503 00000057 305.47 167.09 497.24 711.60 510.95 444.92 740.58 439.22 681.64 579.10 543.04 702.58 724.53 697.43
00004504 00000058 303.48 171.92 498.94 713.06 509.41 451.65 740.15 447.09 677.50 592.10 540.64 712.86 718.02 708.84
00004505 00000059 305.02 176.59 497.17 717.84 509.16 452.80 737.48 450.61 675.35 592.48 542.95 719.78 715.90 717.68
00004506 00000060 304.92 177.62 499.97 728.45 514.17 448.49 732.71 453.44 672.32 598.90 545.26 730.16 711.01 732.58
00004507 00000061 307.10 175.92 498.34 723.18 514.23 447.30 735.91 449.93 673.75 599.49 549.24 728.19 714.99 728.37
00004508 00000062 310.13 177.97 496.29 708.90 511.27 451.99 742.31 445.97 679.80 590.01 551.79 718.53 723.53 713.19
00004509 00000063 310.73 178.07 497.34 710.72 513.94 451.36 742.78 445.71 681.08 590.44 550.62 716.63 723.26 711.72
00004510 00000064 312.62 181.00 497.02 710.32 516.67 450.61 744.20 446.79 683.37 588.31 552.35 717.04 723.70 713.79
00004511 00000065 314.46 181.45 497.13 708.88 519.06 448.82 745.95 444.29 687.00 586.62 555.04 714.71 727.64 710.98
00004512 00000066 312.50 179.59 500.20 708.12 525.18 440.81 738.61 441.85 683.82 584.71 553.05 708.71 724.18 707.52
00004513 00000067 313.83 169.62 496.34 712.42 518.16 439.99 742.31 435.66 686.75 571.56 552.81 700.63 731.12 696.71
00004514 00000068 313.10 161.19 494.88 707.01 515.80 435.13 738.71 429.23 684.08 563.60 552.07 691.21 731.84 685.78
00004515 00000069 309.12 156.06 494.93 707.05 513.30 433.68 733.07 426.60 679.67 559.07 552.14 687.17 729.36 680.52
00004516 00000070 302.21 145.50 496.05 710.10 508.94 428.19 725.49 420.37 674.24 552.27 548.89 679.22 724.63 671.72
00004517 00000071 289.54 157.17 500.09 695.22 496.75 420.32 716.76 406.32 663.63 544.86 538.76 675.20 718.61 661.84
00004518 00000072 286.92 155.43 496.15 694.61 486.42 421.86 710.51 405.93 652.15 545.03 524.46 670.81 713.06 655.69
00004519 00000073 279.44 156.53 497.14 694.93 479.15 424.59 704.22 406.80 647.20 546.96 512.74 668.80 706.90 652.14
00004520 00000074 275.66 157.07 500.11 693.54 475.53 424.71 702.79 407.47 645.07 546.73 506.61 666.54 705.50 650.29
00004521 00000075 275.58 158.68 499.47 693.30 475.36 427.36 704.05 407.92 647.45 550.81 502.66 668.16 705.96 650.52
00004522 00000076 277.15 161.21 498.55 690.91 476.22 432.29 703.87 409.11 649.16 554.63 502.82 668.94 707.57 648.61
00004523 00000077 278.40 163.65 497.77 689.59 477.53 434.34 705.09 409.86 651.30 557.50 501.56 670.78 707.41 649.76
00004524 00000078 279.06 163.90 497.62 689.83 479.42 434.09 707.12 408.84 654.87 557.34 503.17 671.38 708.90 649.91
00004525 00000079 279.80 164.45 497.18 689.23 481.80 432.99 708.47 408.05 657.34 556.30 506.20 672.19 709.19 651.09
00004526 00000080 281.51 164.24 496.22 689.22 482.76 432.86 709.27 408.97 657.81 556.59 507.97 672.58 710.29 652.33
00004527 00000081 283.58 164.44 495.55 688.66 484.01 431.34 710.94 409.47 658.28 556.19 507.55 671.68 710.43 653.28
00004528 00000082 284.44 163.82 494.07 688.81 485.15 429.78 711.76 409.68 658.83 555.77 508.50 670.86 710.59 653.86
00004529 00000083 284.47 164.05 495.32 687.41 486.52 428.01 713.65 408.73 660.42 554.81 511.31 671.16 712.35 654.77
00004530 00000084 286.33 164.14 496.07 686.86 488.81 427.79 715.58 408.81 662.05 555.39 512.72 671.33 713.61 655.43
00004531 00000085 286.87 163.51 496.87 688.83 489.55 428.47 716.99 408.96 663.50 556.40 514.38 673.12 715.92 656.91
00004532 00000086 287.61 161.09 501.20 693.77 496.34 431.98 719.97 415.49 669.68 558.02 516.03 673.79 714.27 660.77
00004533 DELETE   285.87 159.85 505.19 701.58 500.19 433.47 722.37 415.40 675.71 559.09 516.88 677.96 711.83 664.17
00004534 00000088 296.75 150.66 495.58 710.27 508.01 431.79 723.89 424.96 678.49 552.67 524.45 674.69 716.88 669.51
00004535 00000089 304.82 148.74 494.66 707.15 512.79 428.13 732.89 423.26 683.47 554.47 529.47 673.23 724.17 669.56
00004536 00000090 314.04 151.03 495.62 700.11 525.14 424.96 744.12 415.41 700.69 551.07 544.80 673.50 736.08 666.19
00004537 00000091 323.64 145.80 493.51 704.46 543.46 421.15 753.65 412.90 717.05 548.52 558.55 672.04 742.52 666.01
00004538 00000092 329.76 149.58 491.59 697.39 551.52 418.67 757.40 411.17 723.01 545.84 568.13 669.67 747.69 664.24
00004539 00000093 327.09 145.13 493.61 696.02 549.34 414.94 757.92 410.62 719.33 543.47 565.07 665.54 745.55 662.40
00004540 00000094 324.37 141.77 492.99 698.72 542.53 411.16 752.40 410.41 708.43 541.69 556.32 660.38 737.90 660.09
00004541 00000095 322.03 141.60 493.36 701.74 538.74 406.31 749.13 411.73 700.23 541.16 551.87 659.11 732.88 663.48
00004542 00000096 322.38 139.36 494.16 697.75 545.08 404.79 752.59 409.20 708.63 538.15 559.20 657.10 736.18 660.61
00004543 00000097 329.60 135.05 493.65 689.46 559.05 404.41 761.93 405.20 723.56 534.86 580.83 654.60 749.24 654.83
00004544 00000098 334.23 133.30 492.35 687.76 563.91 402.89 765.08 400.59 729.05 531.21 589.55 653.87 754.57 651.21
00004545 00000099 336.85 131.74 486.71 688.35 559.13 402.58 762.47 403.03 721.47 530.91 584.94 653.58 751.50 653.12
00004546 00000100 323.75 134.80 492.24 688.19 541.73 406.64 750.92 409.98 701.82 536.81 565.59 655.91 736.36 657.94
00004547 00000101 312.69 137.73 497.61 682.54 528.49 407.78 744.38 416.56 685.52 539.21 549.19 652.83 723.57 659.40
00004548 DELETE   315.32 131.60 500.19 685.75 539.93 400.49 751.30 408.54 699.17 534.77 557.08 650.00 727.59 656.19
00004549 00000103 329.92 131.12 493.99 683.91 567.49 394.71 765.94 402.64 727.75 528.18 582.68 645.59 742.65 651.48
00004550 00000104 341.25 127.55 494.14 687.77 583.37 390.08 780.24 394.46 746.81 525.38 599.99 644.63 758.86 647.27
00004551 00000105 342.79 130.26 493.36 685.05 579.48 391.29 778.48 393.51 743.75 524.85 594.73 644.46 757.91 645.51
00004552 00000106 334.89 135.19 494.98 682.69 569.15 394.17 771.81 401.28 732.54 531.12 580.92 648.11 747.12 653.77
00004553 00000107 330.63 137.09 497.92 686.15 567.53 393.54 769.82 403.21 729.81 532.97 577.77 649.23 744.56 657.10
00004554 00000108 330.38 134.46 502.45 692.57 573.46 393.81 774.58 403.76 739.01 531.33 582.31 651.31 748.92 659.52
00004555 00000109 332.89 132.33 501.48 693.05 575.10 391.45 774.77 399.73 740.66 527.66 584.16 648.97 750.88 655.71
00004556 00000110 328.65 131.66 500.08 687.08 569.35 387.99 770.97 400.05 731.73 527.86 579.69 643.90 746.00 653.44
00004557 00000111 324.49 130.13 494.24 685.56 560.79 387.96 759.25 402.68 717.15 528.74 572.38 642.24 735.00 653.45
00004558 00000112 320.76 129.51 494.93 684.62 557.74 388.97 754.98 404.71 713.53 527.93 571.89 641.55 732.09 653.34
00004559 00000113 320.78 125.30 494.14 685.81 561.28 387.32 757.03 402.26 718.85 521.78 576.37 635.28 736.99 646.16
00004560 00000114 315.91 117.74 498.69 696.57 558.06 379.26 752.78 397.62 715.19 513.92 570.21 631.63 730.60 645.42
00004561 00000115 310.46 114.52 497.11 701.37 546.41 371.21 740.24 390.42 698.27 505.01 564.04 628.46 721.52 642.60
00004562 00000116 304.81 109.34 495.66 705.52 522.42 375.09 741.41 387.19 686.20 503.76 553.39 635.59 721.01 645.20
00004563 00000117 303.75 111.39 494.60 699.78 516.46 376.59 738.93 387.19 681.10 505.11 550.63 637.16 719.20 645.36
00004564 00000118 311.53 112.54 489.82 695.45 526.24 379.41 741.44 385.51 689.89 504.03 565.94 637.26 726.66 641.60
00004565 00000119 315.45 117.22 490.51 694.73 544.90 381.88 742.08 392.72 699.42 511.81 571.57 634.49 729.74 641.40
00004566 00000120 314.09 117.65 492.41 706.88 546.38 381.60 742.19 396.23 700.23 517.08 570.12 643.05 726.11 653.34
00004567 00000121 310.05 122.32 496.48 701.20 540.43 384.76 742.48 399.69 695.63 522.78 561.77 645.43 723.37 656.29
00004568 00000122 315.68 126.71 492.33 692.16 544.27 387.43 743.79 399.50 698.56 523.37 571.38 646.50 727.17 654.89
00004569 00000123 326.82 124.26 485.43 686.52 561.07 389.35 754.60 399.10 718.37 522.38 588.02 644.09 740.24 650.29
00004570 00000124 336.38 121.26 486.94 693.15 568.47 385.17 766.37 393.79 727.99 514.68 597.58 644.06 752.87 649.47
00004571 00000125 333.78 119.90 493.55 699.37 567.63 385.35 769.51 395.20 728.23 517.90 594.28 646.98 753.35 653.52
00004572 00000126 331.87 123.91 493.92 696.75 561.46 387.18 766.25 399.91 720.72 522.08 584.65 647.72 749.32 656.62
00004573 00000127 327.33 128.46 499.32 694.29 559.39 392.21 760.11 407.75 714.36 523.34 579.69 649.60 741.00 661.33
00004574 00000128 330.05 134.77 496.41 692.08 558.85 402.03 762.81 413.35 716.37 525.11 580.38 653.52 745.83 661.96
00004575 DELETE   338.15 135.51 495.44 688.06 571.24 399.69 773.33 408.06 731.98 527.71 593.86 653.98 755.73 660.36
00004576 00000130 345.83 135.25 493.70 685.85 577.67 399.23 779.47 401.51 740.61 528.19 602.91 653.84 764.46 655.15
00004577 00000131 345.62 133.80 494.36 685.72 572.97 399.01 777.65 397.87 736.49 527.95 602.58 653.53 765.73 651.70
00004578 00000132 340.21 134.86 494.17 683.57 562.80 400.36 769.92 402.46 724.11 528.80 590.31 651.34 758.46 652.10
00004579 00000133 337.14 137.22 492.11 680.57 555.33 400.40 761.72 403.95 714.45 527.44 582.78 650.75 751.22 652.63
00004580 00000134 337.81 135.81 491.30 681.12 556.67 399.79 763.05 403.25 717.10 526.04 583.19 650.11 752.30 651.91
00004581 00000135 339.69 134.62 495.12 687.74 565.08 397.86 770.86 401.48 727.64 527.25 589.79 651.46 758.41 653.59
00004582 00000136 339.32 137.26 496.71 688.75 567.02 403.04 772.50 405.79 730.45 534.79 586.71 655.51 757.48 657.59
00004583 00000137 334.76 143.62 494.92 682.92 557.68 405.94 764.63 408.77 718.95 538.83 576.49 655.95 749.38 658.36
00004584 00000138 325.86 145.87 495.14 684.94 545.08 407.82 756.31 414.20 702.64 546.88 560.60 658.64 735.29 664.02
00004585 00000139 318.21 149.32 495.77 680.75 535.64 409.59 748.61 419.48 691.67 549.75 548.48 657.42 724.48 665.77
00004586 00000140 316.20 150.27 497.17 683.13 539.23 409.46 747.66 419.05 694.90 550.75 550.41 657.86 723.11 666.14
00004587 00000141 318.31 149.59 498.97 692.40 549.35 407.34 752.74 413.88 710.09 548.42 560.95 662.80 731.13 668.77
00004588 00000142 317.29 143.32 499.50 702.59 549.94 404.62 752.10 410.37 714.05 543.47 558.53 661.39 732.77 666.80
00004589 00000143 311.70 135.40 500.85 712.39 537.82 398.98 744.49 410.06 699.62 539.92 539.13 657.35 720.84 667.02
00004590 00000144 307.08 132.06 500.86 712.17 524.27 397.08 739.75 411.38 682.43 535.56 527.13 653.58 715.68 665.39
00004591 00000145 317.55 131.66 494.84 708.34 537.86 396.13 744.61 407.44 693.92 534.75 548.06 652.14 725.57 660.86
00004592 00000146 329.81 133.89 490.93 702.07 552.46 401.22 754.63 407.27 713.54 533.30 567.88 655.15 740.89 659.75
00004593 00000147 329.43 138.78 495.78 694.06 554.14 405.89 760.28 407.22 717.89 537.78 573.91 658.22 747.60 659.20
00004594 00000148 331.80 144.03 489.38 689.96 547.06 409.45 754.18 410.70 705.34 544.49 568.79 661.68 740.03 662.61
00004595 00000149 328.66 145.74 491.52 692.36 542.92 414.57 752.50 412.58 703.62 549.57 565.43 667.25 738.40 665.64
00004596 00000150 331.22 146.28 491.27 692.25 548.09 416.70 755.20 411.37 710.60 549.64 572.95 671.15 742.98 666.97
00004597 00000151 330.74 146.83 490.69 691.29 546.36 416.91 754.09 411.44 709.47 548.60 572.60 671.01 742.61 666.66
00004598 00000152 328.29 145.87 488.03 689.74 536.12 417.83 749.32 413.10 699.93 549.28 562.64 669.78 739.94 665.73
00004599 00000153 327.15 145.76 488.50 687.92 532.34 414.80 746.31 411.97 694.70 546.38 561.31 667.17 738.21 664.25
00004600 00000154 330.99 143.10 487.17 689.66 536.21 414.65 749.17 409.76 698.60 544.41 567.54 666.06 744.45 661.10
00004601 00000155 330.91 142.12 491.34 690.45 541.55 413.15 752.89 407.55 705.38 541.97 574.24 665.70 749.31 660.16
00004602 00000156 330.65 141.33 491.66 695.34 541.39 409.76 750.68 408.24 701.04 540.44 571.77 666.39 742.30 664.32
00004603 00000157 330.80 139.39 489.82 702.38 536.25 409.25 747.19 408.53 694.00 542.27 563.50 669.15 735.95 667.81
00004604 00000158 330.23 141.88 490.72 696.78 534.65 409.07 748.33 410.83 692.19 544.09 559.14 666.17 735.31 666.97
00004605 00000159 334.59 141.20 491.43 692.07 544.68 407.64 755.78 408.78 702.91 540.81 568.77 661.94 743.46 662.29
00004606 00000160 339.17 137.40 492.06 693.14 552.71 405.70 763.65 405.93 715.67 535.37 577.98 659.60 753.66 659.20
00004607 00000161 336.39 136.08 496.54 701.11 553.55 402.32 763.82 406.71 715.77 533.34 575.34 660.59 751.10 663.67
00004608 DELETE   333.93 137.10 494.79 708.93 545.96 412.19 760.08 414.75 707.82 538.45 562.74 668.40 743.18 670.60
00004609 00000163 333.41 139.40 497.33 707.43 545.39 412.48 760.60 415.39 706.12 540.66 559.45 668.86 741.05 671.60
00004610 00000164 336.08 138.28 495.76 703.62 546.91 408.40 761.92 411.74 708.56 538.38 564.76 666.51 745.30 669.23
00004611 00000165 340.69 139.07 494.75 694.94 549.54 407.59 766.28 407.36 712.76 538.62 571.94 663.26 754.55 662.70
00004612 00000166 342.21 137.27 494.68 690.59 549.11 406.28 766.62 405.08 711.40 535.35 576.77 659.72 758.39 657.87
00004613 00000167 341.79 136.77 493.18 686.65 547.25 405.76 765.21 404.54 709.29 533.05 575.41 656.63 757.05 654.79
00004614 00000168 342.19 136.87 492.86 682.16 545.25 404.88 763.83 404.26 705.80 533.20 573.77 654.59 754.66 653.20
00004615 00000169 346.26 135.78 491.86 681.02 552.03 404.71 769.08 404.15 713.60 531.55 579.42 652.86 760.46 651.68
00004616 00000170 353.55 132.96 489.42 683.99 561.16 403.27 775.99 397.19 723.68 533.55 591.92 654.10 768.55 648.19
