Video ID: 	b_OWmE4BWeI
H: 	2026
W: 	3840
FPS: 	23.976023976023978

FRAME INDEX X0 Y0 W H [Landmarks (5 Points)]

00007588 00000000 1151.11 241.75 679.90 1001.00 1439.76 676.02 1710.08 607.62 1692.47 796.67 1543.41 1022.71 1771.70 964.36
00007589 00000001 1162.25 238.41 667.68 979.99 1429.01 668.86 1710.84 601.58 1688.49 795.65 1567.46 1012.31 1778.84 956.30
00007590 00000002 1163.15 254.74 677.71 962.08 1436.30 671.77 1719.25 607.04 1698.13 798.63 1577.01 1012.42 1784.45 957.98
00007591 DELETE   1162.46 263.88 689.67 961.49 1449.38 688.94 1725.18 626.03 1705.78 806.76 1583.88 1015.88 1790.35 962.69
00007592 DELETE   1167.61 288.98 689.01 943.39 1469.01 707.83 1739.48 645.44 1723.12 823.31 1589.26 1025.66 1790.20 974.50
00007593 DELETE   1183.55 281.03 680.50 961.50 1480.17 728.41 1747.62 654.58 1731.74 841.39 1599.61 1046.91 1798.84 986.40
00007594 00000006 1199.38 289.76 689.96 973.56 1479.99 724.39 1749.69 643.64 1740.51 832.75 1622.48 1058.12 1821.50 989.34
00007595 00000007 1208.42 304.50 692.11 964.08 1480.02 728.14 1762.59 642.29 1742.63 843.33 1620.19 1069.26 1827.32 995.86
00007596 00000008 1224.88 307.96 680.77 961.07 1485.56 733.60 1772.07 643.46 1750.06 847.82 1625.91 1075.13 1838.90 998.58
00007597 00000009 1236.88 294.78 677.11 974.73 1496.16 737.02 1782.78 643.29 1757.55 849.55 1631.70 1077.79 1846.39 998.49
00007598 00000010 1241.53 294.89 687.80 971.09 1506.47 735.99 1795.94 637.44 1768.38 849.65 1638.01 1076.42 1858.67 992.16
00007599 00000011 1248.87 288.62 689.83 980.89 1514.36 733.82 1805.58 638.24 1777.29 849.95 1639.09 1074.00 1866.23 992.09
00007600 00000012 1252.95 310.90 694.60 967.69 1526.83 730.28 1815.84 639.23 1787.27 850.92 1641.01 1073.50 1872.12 995.49
00007601 00000013 1255.93 309.41 698.82 970.89 1534.98 729.52 1826.60 640.79 1798.54 848.03 1646.35 1073.93 1882.74 997.92
00007602 00000014 1268.23 317.64 699.14 969.11 1545.47 730.52 1838.17 646.65 1808.99 848.78 1654.44 1073.76 1894.43 1001.91
00007603 DELETE   1273.80 308.55 711.03 988.46 1558.08 722.22 1850.54 661.37 1818.69 848.36 1678.85 1064.25 1907.09 1014.80
00007604 00000016 1297.45 311.76 701.40 996.40 1577.92 721.59 1869.55 670.06 1832.13 861.76 1696.23 1073.50 1910.28 1030.70
00007605 00000017 1312.08 320.65 696.50 1006.13 1596.64 726.91 1886.07 675.15 1852.20 871.47 1709.60 1083.81 1927.84 1039.27
00007606 00000018 1315.35 304.66 702.63 1032.99 1605.37 725.91 1888.95 679.64 1860.13 871.55 1710.53 1082.86 1932.32 1042.27
00007607 00000019 1320.04 298.49 687.01 1014.81 1618.80 729.78 1890.90 689.52 1865.53 871.64 1719.63 1075.93 1921.61 1041.91
00007608 00000020 1308.87 296.85 694.19 1013.99 1610.19 743.19 1879.77 708.08 1852.30 865.32 1707.68 1068.80 1913.26 1039.49
00007609 00000021 1301.64 316.10 695.02 997.31 1593.25 750.24 1874.76 709.90 1840.98 872.84 1699.57 1079.39 1911.30 1046.63
00007610 00000022 1299.00 333.89 693.38 980.71 1588.43 753.42 1875.26 708.03 1840.95 882.83 1697.85 1089.51 1911.91 1053.31
00007611 00000023 1297.23 338.30 689.87 995.58 1585.54 750.45 1877.52 709.01 1837.60 897.80 1680.45 1096.68 1902.82 1064.60
00007612 00000024 1294.64 336.28 691.09 1011.38 1573.99 754.28 1870.69 709.06 1828.45 902.00 1667.75 1101.94 1900.53 1067.35
00007613 00000025 1291.76 346.43 690.89 1002.32 1583.20 761.30 1872.29 711.70 1839.09 901.15 1649.32 1103.79 1902.51 1062.84
00007614 00000026 1287.24 336.03 696.55 991.97 1569.65 746.91 1863.01 699.57 1824.88 888.10 1675.43 1091.54 1902.17 1054.54
00007615 00000027 1283.40 339.59 703.43 978.37 1568.62 745.67 1860.82 697.54 1825.81 879.80 1682.12 1081.41 1909.73 1042.41
00007616 00000028 1286.00 341.97 690.45 982.68 1589.03 756.56 1863.91 696.14 1847.37 879.66 1671.02 1095.27 1907.52 1045.19
00007617 00000029 1283.75 336.37 687.03 980.98 1583.69 751.40 1863.96 696.97 1843.76 874.72 1666.54 1091.32 1905.69 1046.10
00007618 00000030 1281.16 313.56 686.01 991.62 1580.01 744.15 1864.33 693.43 1843.93 867.28 1662.39 1082.74 1904.09 1040.34
00007619 00000031 1276.70 312.16 688.90 991.56 1578.22 737.29 1858.86 688.22 1840.63 859.63 1664.85 1080.34 1901.28 1038.87
00007620 00000032 1274.29 312.11 684.76 1002.15 1572.08 735.89 1850.09 684.20 1833.66 858.17 1657.14 1080.53 1897.28 1036.69
00007621 00000033 1270.39 322.26 685.20 991.27 1566.99 736.37 1850.25 684.83 1828.44 860.57 1650.05 1081.31 1895.40 1036.69
00007622 00000034 1267.75 323.42 687.49 980.25 1557.27 737.22 1846.72 681.05 1821.70 861.39 1645.53 1081.34 1891.97 1032.34
00007623 00000035 1261.67 316.98 683.26 985.00 1550.71 736.19 1837.73 678.18 1814.71 861.15 1646.09 1083.17 1887.19 1032.46
00007624 00000036 1257.71 317.40 680.19 986.61 1545.18 738.42 1831.03 679.51 1809.78 860.64 1641.47 1082.53 1883.77 1030.93
00007625 00000037 1251.61 314.67 682.71 988.05 1537.39 738.98 1826.00 676.65 1803.98 859.87 1638.87 1083.04 1880.70 1028.38
00007626 00000038 1250.89 315.09 681.30 986.28 1532.02 740.34 1823.70 674.96 1800.39 860.99 1636.67 1083.46 1879.05 1026.21
00007627 00000039 1249.92 325.46 681.13 975.18 1535.00 746.93 1825.17 683.71 1801.35 864.54 1636.21 1084.27 1879.31 1028.91
00007628 00000040 1253.34 324.93 675.17 972.87 1543.40 759.03 1828.39 702.78 1802.07 863.77 1634.30 1082.05 1877.17 1033.59
00007629 00000041 1253.86 322.86 676.87 979.39 1547.87 757.64 1831.31 703.19 1806.33 865.02 1635.42 1083.48 1878.77 1036.39
00007630 00000042 1255.66 326.00 681.51 985.94 1549.55 750.82 1833.82 694.74 1810.53 863.19 1637.57 1086.10 1884.15 1037.23
00007631 00000043 1259.54 331.61 683.84 984.55 1555.27 741.25 1836.05 687.40 1815.73 862.78 1642.24 1087.02 1883.95 1040.03
00007632 00000044 1266.02 332.49 686.53 982.05 1562.89 735.91 1845.07 684.89 1821.13 861.74 1651.22 1087.14 1889.89 1042.33
00007633 00000045 1269.14 323.59 685.45 988.59 1569.10 733.10 1847.23 687.66 1827.33 858.96 1655.35 1083.11 1890.08 1043.55
00007634 00000046 1273.97 323.03 686.14 987.52 1576.02 730.24 1855.26 689.57 1834.38 858.06 1658.83 1079.81 1894.20 1044.92
00007635 00000047 1277.92 319.77 690.54 990.49 1585.90 722.48 1863.34 687.93 1846.70 852.79 1665.02 1072.81 1900.58 1043.04
00007636 00000048 1285.01 323.28 689.57 983.28 1596.13 715.68 1877.95 687.14 1855.56 850.94 1668.04 1067.75 1907.73 1042.41
00007637 00000049 1283.53 323.18 697.92 978.24 1588.73 692.91 1873.35 677.81 1843.42 835.71 1691.36 1047.91 1913.88 1034.36
00007638 00000050 1287.24 323.82 703.34 981.19 1595.48 695.08 1876.81 683.87 1846.68 833.36 1690.64 1042.39 1912.42 1032.49
00007639 00000051 1285.60 322.13 706.87 988.00 1600.88 706.89 1883.95 703.68 1846.85 835.90 1680.13 1038.26 1905.12 1035.92
00007640 00000052 1290.09 315.69 708.38 1001.98 1602.51 694.42 1890.40 694.71 1850.06 836.92 1674.25 1037.06 1903.97 1037.27
00007641 00000053 1298.86 304.49 702.23 993.34 1606.35 690.21 1895.69 690.95 1852.42 836.19 1685.27 1037.72 1908.80 1037.43
00007642 00000054 1299.27 302.07 706.80 994.97 1610.60 689.91 1897.27 689.30 1857.60 836.97 1693.81 1037.39 1915.94 1034.98
00007643 00000055 1301.76 303.08 704.35 998.04 1610.51 682.98 1894.96 681.64 1856.38 835.29 1701.47 1040.96 1915.95 1036.98
00007644 00000056 1300.13 295.65 702.15 1003.00 1605.60 680.92 1889.82 677.87 1852.89 832.35 1699.67 1039.46 1913.02 1034.63
00007645 00000057 1299.33 299.05 699.94 997.62 1602.21 675.68 1886.07 670.43 1849.88 827.93 1700.32 1038.80 1912.06 1032.26
00007646 00000058 1296.83 307.50 698.07 990.90 1598.95 673.88 1886.40 667.31 1850.95 827.72 1693.13 1037.71 1913.07 1030.62
00007647 00000059 1289.79 312.80 702.15 965.78 1599.15 685.39 1879.17 676.48 1844.24 824.01 1699.18 1028.17 1912.21 1018.55
00007648 00000060 1288.73 305.25 704.08 969.09 1599.11 682.89 1880.24 676.46 1846.13 814.61 1702.50 1023.74 1915.84 1015.53
00007649 00000061 1289.91 302.17 699.45 969.59 1601.30 671.59 1874.23 665.33 1847.48 808.92 1708.44 1020.34 1913.97 1012.44
00007650 00000062 1294.75 306.30 694.45 962.17 1602.90 667.97 1875.37 662.76 1850.04 810.10 1710.76 1019.33 1915.13 1011.79
00007651 00000063 1295.87 305.57 698.19 967.33 1601.84 670.99 1876.16 660.53 1849.89 815.18 1712.39 1025.47 1917.52 1013.42
00007652 00000064 1295.09 303.66 697.04 983.12 1602.81 675.06 1879.13 664.09 1848.28 823.39 1704.79 1031.75 1913.84 1020.24
00007653 00000065 1290.16 303.66 700.32 994.02 1603.00 679.69 1881.39 671.91 1852.55 829.87 1699.28 1039.08 1913.08 1030.81
00007654 00000066 1289.17 316.35 698.64 996.10 1602.28 682.87 1883.27 679.13 1853.81 834.36 1689.39 1041.44 1910.81 1037.28
00007655 00000067 1288.22 320.11 697.63 998.61 1598.20 688.03 1880.90 684.76 1849.14 838.03 1681.56 1043.62 1907.21 1040.46
00007656 00000068 1297.88 327.42 685.81 999.97 1611.16 706.44 1892.28 695.63 1867.98 844.06 1662.28 1057.62 1909.85 1048.03
00007657 00000069 1295.82 322.52 682.42 998.61 1603.84 713.68 1885.10 697.24 1859.16 846.85 1657.51 1059.70 1904.91 1045.60
00007658 00000070 1292.76 324.09 681.16 985.41 1598.54 713.30 1881.58 693.39 1853.58 849.12 1653.09 1057.52 1902.18 1040.70
00007659 00000071 1280.36 320.61 688.81 989.38 1587.63 716.69 1870.47 695.76 1844.38 848.83 1648.59 1062.10 1895.90 1043.73
00007660 00000072 1277.44 313.48 683.92 992.59 1580.35 725.18 1860.96 697.86 1836.15 853.95 1642.47 1067.05 1888.41 1043.92
00007661 DELETE   1267.01 318.93 683.80 986.53 1577.73 736.42 1857.97 712.20 1827.25 855.13 1634.73 1067.04 1879.36 1046.16
00007662 DELETE   1259.61 306.41 675.26 998.40 1566.64 752.48 1845.90 722.72 1812.40 863.66 1622.68 1072.99 1868.13 1048.24
00007663 00000075 1251.08 323.09 676.97 979.51 1552.58 759.48 1839.30 725.21 1799.56 872.82 1616.01 1078.66 1861.95 1049.33
00007664 00000076 1241.63 323.43 681.52 990.31 1538.06 756.32 1827.94 717.86 1786.35 882.66 1605.05 1083.74 1850.32 1049.97
00007665 00000077 1233.72 337.96 688.11 985.11 1527.53 757.46 1818.92 722.02 1771.45 897.32 1597.16 1091.57 1839.17 1060.06
00007666 00000078 1227.50 342.08 690.01 982.92 1518.39 759.24 1807.66 727.53 1759.45 906.88 1591.94 1094.18 1826.91 1066.49
00007667 00000079 1224.33 331.90 688.71 982.66 1504.01 758.32 1798.98 725.57 1743.98 905.40 1589.78 1094.91 1819.41 1066.39
00007668 00000080 1221.69 330.30 688.31 980.80 1495.80 756.17 1791.59 722.81 1734.70 904.13 1588.37 1095.20 1814.64 1066.23
00007669 00000081 1216.03 330.94 690.50 983.18 1490.80 761.78 1781.75 724.86 1729.89 907.64 1591.90 1100.91 1810.93 1069.06
00007670 00000082 1207.73 338.31 696.48 988.04 1485.03 762.31 1775.94 724.47 1722.75 918.50 1587.47 1109.76 1803.08 1077.08
00007671 00000083 1204.68 348.54 696.60 986.31 1476.78 765.72 1771.84 731.27 1712.04 928.95 1577.11 1119.35 1794.05 1089.81
00007672 00000084 1201.93 349.28 695.09 997.43 1472.14 769.40 1762.95 734.56 1705.33 936.53 1569.25 1123.53 1787.46 1093.88
00007673 00000085 1197.48 340.51 695.94 1009.59 1470.23 768.75 1758.16 731.35 1703.54 935.96 1565.03 1122.29 1783.50 1090.73
00007674 00000086 1198.70 341.88 692.92 1002.94 1467.74 768.34 1756.18 732.02 1701.49 934.52 1563.71 1120.63 1781.51 1090.18
00007675 00000087 1197.98 342.49 692.40 997.94 1468.55 768.50 1758.89 734.07 1702.81 934.54 1566.14 1122.04 1781.18 1093.30
00007676 00000088 1200.61 343.88 689.62 995.51 1470.38 770.55 1760.22 737.26 1703.77 936.76 1564.68 1121.81 1779.41 1094.28
00007677 00000089 1202.82 336.85 690.94 999.37 1469.49 771.47 1760.83 737.30 1705.15 931.78 1563.24 1116.37 1783.13 1087.93
00007678 00000090 1202.17 339.28 693.38 1001.69 1470.62 773.54 1760.61 737.87 1706.35 932.30 1563.94 1117.46 1784.51 1087.54
00007679 00000091 1201.01 344.84 693.15 1004.73 1472.52 772.84 1760.92 738.69 1708.88 931.17 1565.86 1120.81 1786.00 1091.63
00007680 00000092 1201.93 346.74 688.12 1004.96 1473.33 771.76 1759.96 736.94 1710.37 927.73 1567.26 1123.62 1783.34 1094.55
00007681 00000093 1202.24 342.78 689.57 1004.66 1471.81 771.79 1764.83 736.88 1716.44 920.78 1573.40 1122.75 1793.49 1093.22
00007682 00000094 1203.22 344.83 691.68 1022.83 1472.00 777.77 1767.80 742.08 1719.34 925.87 1569.02 1131.97 1800.07 1101.12
00007683 00000095 1203.36 343.12 690.07 1039.45 1477.82 782.86 1770.60 754.17 1722.14 931.49 1563.96 1139.40 1795.02 1114.30
00007684 00000096 1204.91 346.91 686.07 1035.65 1486.31 813.13 1773.34 784.55 1726.12 938.93 1562.55 1144.42 1793.14 1119.92
00007685 00000097 1218.10 350.30 676.45 1041.34 1494.71 820.10 1778.47 789.64 1730.06 948.96 1564.93 1153.25 1799.07 1126.97
00007686 00000098 1225.15 380.12 692.97 1021.44 1499.41 805.11 1793.74 776.52 1742.57 949.21 1578.28 1162.12 1803.82 1135.60
00007687 00000099 1232.05 389.74 689.47 1013.16 1499.00 806.64 1798.45 778.56 1737.22 964.25 1574.12 1169.30 1799.89 1144.00
00007688 00000100 1230.56 391.28 685.50 1004.90 1494.50 812.05 1797.20 791.45 1725.80 980.17 1561.59 1170.50 1781.53 1152.96
00007689 DELETE   1230.11 410.52 682.11 1008.96 1494.72 822.99 1789.59 811.41 1710.23 999.37 1547.53 1173.70 1770.19 1163.91
00007690 00000102 1236.67 412.98 673.73 1002.80 1489.12 833.18 1793.21 821.88 1708.90 1025.46 1541.80 1199.45 1754.92 1190.99
00007691 00000103 1229.99 407.87 673.41 964.33 1480.03 866.27 1797.66 844.24 1702.14 1057.28 1547.77 1208.68 1768.32 1192.21
00007692 00000104 1219.48 419.23 683.49 967.46 1476.81 866.56 1792.55 853.48 1691.05 1063.82 1532.61 1204.71 1749.45 1196.01
00007693 00000105 1219.08 410.15 687.49 1001.92 1475.01 873.75 1790.01 862.32 1688.01 1071.70 1532.79 1217.47 1754.79 1209.72
00007694 00000106 1220.21 414.63 684.33 996.93 1473.61 876.63 1789.48 865.27 1685.90 1076.48 1532.21 1220.90 1755.31 1213.00
00007695 00000107 1222.09 415.88 680.92 1014.00 1478.77 880.31 1787.04 870.54 1687.52 1080.45 1533.21 1225.81 1756.25 1218.64
00007696 00000108 1228.79 418.82 684.51 1014.05 1483.72 869.33 1779.12 863.13 1683.09 1074.34 1524.88 1224.60 1735.29 1220.25
00007697 00000109 1227.96 415.87 681.50 1017.11 1490.14 872.63 1779.66 865.29 1689.30 1080.27 1529.78 1228.08 1733.08 1222.97
00007698 00000110 1221.42 413.26 684.38 1029.86 1491.05 881.01 1774.27 875.77 1691.06 1075.79 1522.87 1226.58 1727.88 1224.16
00007699 00000111 1218.01 412.31 685.29 1022.79 1485.59 880.18 1772.65 871.46 1687.46 1074.32 1523.60 1226.82 1729.49 1221.32
00007700 00000112 1213.08 410.62 669.87 994.39 1477.73 890.44 1781.94 874.14 1691.60 1076.03 1535.29 1222.87 1748.93 1210.04
00007701 00000113 1208.57 417.46 666.30 966.16 1472.28 888.97 1780.32 866.53 1690.14 1071.74 1538.52 1219.58 1749.44 1201.46
00007702 00000114 1202.24 408.53 668.46 976.33 1466.21 884.74 1773.22 862.45 1685.29 1067.28 1537.18 1218.27 1745.90 1200.54
00007703 00000115 1199.23 406.18 668.71 991.32 1462.85 885.27 1767.32 863.35 1679.98 1069.86 1536.09 1218.78 1744.90 1201.58
00007704 00000116 1192.66 399.15 675.77 1027.06 1462.01 888.25 1762.93 869.37 1676.91 1070.45 1527.73 1218.29 1747.18 1203.17
00007705 00000117 1193.09 396.87 677.29 1040.89 1462.74 891.82 1763.84 872.73 1679.00 1072.61 1526.55 1220.82 1751.94 1205.24
00007706 00000118 1193.21 398.43 682.46 1049.09 1460.24 873.31 1746.71 855.20 1667.98 1062.86 1526.36 1225.58 1730.70 1211.71
00007707 00000119 1196.22 403.99 672.09 1017.98 1463.82 893.96 1766.37 874.08 1681.27 1068.79 1526.22 1214.95 1750.01 1199.11
00007708 00000120 1209.66 405.45 663.80 1017.39 1478.22 904.30 1786.78 889.25 1699.24 1072.74 1517.09 1211.49 1760.60 1203.45
00007709 00000121 1216.08 401.54 664.14 1010.03 1485.30 896.86 1775.38 873.49 1693.38 1063.80 1532.98 1204.52 1756.63 1186.15
00007710 DELETE   1227.72 408.31 665.90 1004.41 1493.21 897.38 1789.03 866.01 1705.39 1065.82 1543.48 1209.37 1774.27 1184.06
00007711 00000123 1235.05 395.73 675.45 1013.74 1502.00 860.29 1799.42 843.46 1719.42 1053.04 1553.86 1201.22 1775.21 1189.47
00007712 00000124 1246.32 390.75 673.57 1018.37 1516.08 853.26 1814.60 840.87 1737.10 1047.72 1564.46 1198.76 1787.64 1190.60
00007713 00000125 1256.35 399.84 657.99 1016.11 1525.44 882.99 1819.87 850.20 1745.88 1063.21 1568.27 1211.44 1804.67 1184.36
00007714 00000126 1259.84 401.50 662.10 1015.16 1534.72 884.09 1827.30 852.35 1754.05 1066.99 1573.50 1212.71 1807.87 1186.62
00007715 00000127 1265.42 391.62 665.55 1027.83 1542.52 882.27 1833.92 853.50 1756.76 1071.14 1577.37 1215.46 1810.42 1191.85
00007716 00000128 1267.89 390.76 666.86 1030.89 1548.69 880.85 1840.09 855.17 1762.39 1071.58 1578.55 1215.44 1812.22 1194.32
00007717 00000129 1273.83 393.89 666.40 1026.78 1550.85 879.95 1847.53 858.95 1762.06 1073.82 1578.04 1215.32 1815.90 1197.88
00007718 00000130 1270.75 389.73 670.37 1030.41 1546.38 879.55 1846.08 861.51 1755.70 1074.46 1572.06 1213.82 1812.36 1199.01
00007719 00000131 1273.12 394.18 670.95 1022.74 1541.24 875.06 1846.44 860.90 1750.17 1072.58 1566.82 1211.37 1810.14 1199.99
00007720 00000132 1280.33 380.30 672.34 1040.83 1547.73 862.71 1849.52 859.09 1752.97 1065.79 1572.24 1207.67 1811.10 1204.39
00007721 00000133 1291.21 371.94 673.13 1051.05 1556.05 852.72 1857.81 851.61 1766.95 1056.02 1586.26 1206.24 1825.74 1204.50
00007722 DELETE   1291.02 371.92 681.29 1049.22 1576.60 819.98 1877.05 843.64 1788.34 1026.08 1599.98 1172.40 1822.41 1196.04
00007723 DELETE   1296.20 363.70 682.64 1052.32 1589.69 818.92 1891.14 842.27 1806.51 1021.73 1620.62 1175.10 1839.58 1196.98
00007724 DELETE   1303.48 364.17 682.24 1048.54 1605.89 822.69 1905.02 845.32 1822.87 1023.67 1636.97 1177.24 1853.16 1196.94
00007725 00000137 1313.20 370.99 678.05 1046.21 1619.22 831.90 1910.27 849.75 1836.02 1029.42 1648.82 1180.92 1863.60 1195.81
00007726 00000138 1317.30 370.35 677.60 1049.64 1622.32 832.36 1912.96 848.66 1837.84 1030.64 1651.90 1184.71 1865.17 1198.43
00007727 00000139 1316.77 369.80 678.85 1050.53 1622.95 830.82 1914.25 849.00 1839.45 1029.56 1651.36 1184.36 1864.06 1199.75
00007728 00000140 1310.43 369.60 682.06 1052.50 1623.32 826.65 1914.10 848.35 1841.79 1026.12 1646.34 1182.14 1858.38 1200.53
00007729 00000141 1308.83 361.47 681.16 1058.05 1622.48 818.85 1912.26 844.82 1837.99 1020.29 1639.38 1176.92 1850.53 1199.36
00007730 00000142 1306.28 357.56 682.56 1059.88 1622.13 813.50 1911.34 843.88 1836.78 1018.60 1634.65 1171.54 1846.98 1197.68
00007731 00000143 1302.07 350.80 683.41 1063.28 1616.57 814.04 1904.36 846.63 1830.34 1014.37 1631.42 1169.02 1841.64 1197.21
00007732 00000144 1304.09 340.03 679.11 1070.64 1604.41 823.48 1894.22 851.54 1818.17 1007.77 1623.11 1164.23 1837.84 1188.96
00007733 00000145 1300.15 346.27 677.84 1064.91 1602.67 828.00 1891.24 858.26 1815.97 1007.49 1616.33 1162.36 1832.91 1189.39
00007734 00000146 1296.79 342.92 677.06 1070.03 1593.04 825.41 1883.20 854.48 1804.76 1003.89 1606.17 1163.68 1822.40 1190.56
00007735 00000147 1293.02 343.60 677.35 1067.12 1586.74 820.96 1878.01 850.32 1795.57 1002.29 1596.79 1159.15 1816.50 1186.49
00007736 00000148 1299.71 361.02 671.66 1059.76 1578.35 836.53 1873.14 851.81 1789.90 1023.48 1581.14 1177.87 1824.97 1191.94
00007737 00000149 1294.74 351.64 671.66 1065.23 1569.31 829.33 1870.22 845.28 1784.34 1018.70 1573.51 1172.54 1822.56 1187.67
00007738 00000150 1288.68 347.79 669.41 1068.65 1559.77 829.14 1864.71 844.43 1777.94 1013.21 1568.71 1175.03 1817.78 1189.51
00007739 00000151 1286.21 351.51 668.75 1066.31 1553.38 824.41 1858.72 843.47 1766.63 1014.63 1560.61 1176.15 1808.01 1194.10
00007740 00000152 1282.76 364.94 669.89 1056.85 1550.52 823.09 1853.50 842.02 1762.00 1021.47 1558.18 1178.65 1804.23 1196.62
00007741 00000153 1280.16 379.70 667.74 1030.90 1548.02 824.67 1853.30 843.73 1759.75 1024.72 1558.03 1176.27 1802.75 1194.69
00007742 00000154 1278.63 367.26 667.62 1027.81 1551.40 822.53 1850.24 833.90 1761.22 1017.13 1573.94 1172.66 1808.78 1184.08
00007743 00000155 1282.67 357.20 667.63 1042.90 1565.51 822.18 1857.39 823.47 1780.49 1016.79 1591.57 1176.26 1823.22 1178.71
00007744 00000156 1281.91 360.63 672.21 1033.98 1577.28 823.66 1868.57 815.55 1801.97 1016.11 1614.26 1183.50 1840.89 1177.87
00007745 00000157 1285.39 371.26 671.72 1020.74 1600.07 829.94 1882.32 816.16 1829.37 1013.79 1639.27 1187.22 1855.75 1176.05
00007746 DELETE   1288.78 362.33 659.42 1017.84 1618.59 821.47 1885.64 813.78 1838.36 1008.74 1664.32 1170.83 1853.61 1166.28
