Video ID: 	J3vWA9BR40w
H: 	1080
W: 	1920
FPS: 	25.0

FRAME INDEX X0 Y0 W H [Landmarks (5 Points)]

00257701 00000000 848.35 181.83 438.62 587.38 894.53 424.22 1069.21 399.72 928.23 508.52 921.63 628.55 1063.38 609.00
00257702 00000001 852.82 179.06 438.96 586.50 900.71 423.76 1074.99 398.28 934.55 506.21 927.99 624.68 1071.19 604.13
00257703 00000002 855.79 175.43 437.92 585.33 904.99 422.59 1079.23 397.71 939.41 504.26 931.50 620.92 1076.99 600.77
00257704 DELETE   858.03 172.80 439.11 585.56 907.82 421.91 1086.15 396.78 945.54 502.05 933.18 617.04 1086.28 596.61
00257705 00000004 859.65 172.88 441.11 584.53 908.84 422.44 1089.94 395.13 949.89 499.05 934.84 615.15 1091.67 592.62
00257706 DELETE   863.69 174.88 437.04 578.19 904.79 420.26 1091.35 390.58 954.28 494.45 935.88 614.71 1096.48 590.44
00257707 00000006 864.54 167.81 437.25 581.97 905.38 416.40 1093.74 386.85 954.84 490.03 935.30 610.89 1099.03 586.73
00257708 00000007 864.08 148.72 439.36 607.84 914.42 411.52 1096.16 381.93 955.91 484.60 936.71 606.11 1101.12 580.30
00257709 00000008 864.31 152.35 442.72 605.47 915.93 406.56 1100.44 379.75 955.76 484.07 936.60 604.98 1103.98 581.40
00257710 00000009 866.29 152.54 441.25 605.83 916.26 405.39 1103.42 377.90 957.31 484.14 937.82 605.94 1107.71 581.74
00257711 00000010 868.53 148.67 440.77 610.93 918.81 403.79 1105.53 378.80 958.18 484.83 938.93 606.10 1107.68 583.88
00257712 00000011 871.52 145.35 439.88 611.87 920.01 401.98 1104.69 375.90 957.22 482.55 940.18 606.25 1105.00 583.23
00257713 00000012 872.34 139.54 439.70 615.72 920.04 399.90 1103.41 373.95 956.11 479.03 938.47 605.37 1100.28 582.68
00257714 00000013 872.55 138.73 437.48 612.59 919.29 398.05 1101.57 371.69 956.29 477.94 938.78 604.12 1098.95 581.15
00257715 00000014 873.13 136.08 434.79 614.48 919.70 397.46 1102.12 370.48 957.00 477.04 939.76 602.20 1101.79 578.66
00257716 00000015 873.09 140.75 435.14 611.48 922.84 399.57 1105.49 371.82 961.63 477.99 944.35 602.04 1106.71 577.83
00257717 00000016 874.71 149.17 433.89 602.42 925.46 402.80 1109.80 375.02 966.63 481.05 946.82 604.79 1108.29 580.63
00257718 00000017 876.57 150.95 432.99 598.15 928.93 404.42 1112.96 376.73 971.76 481.65 951.22 604.56 1111.10 580.55
00257719 00000018 878.72 149.07 432.08 599.47 931.43 405.30 1117.19 376.03 976.65 480.87 954.20 603.70 1115.90 578.55
00257720 00000019 881.26 154.90 430.66 592.04 935.07 405.22 1121.93 377.17 981.01 479.52 956.83 602.59 1119.31 578.52
00257721 00000020 884.41 155.76 428.38 582.74 934.32 412.81 1115.98 383.86 981.41 479.70 961.83 601.09 1121.23 577.47
00257722 00000021 886.86 165.14 424.61 569.45 933.31 405.83 1121.02 380.64 988.52 481.37 960.44 601.52 1119.20 581.34
00257723 00000022 888.45 157.00 422.88 574.53 933.97 399.37 1124.35 375.27 991.11 481.49 962.58 599.45 1123.33 580.38
00257724 00000023 894.43 148.70 419.65 584.85 941.73 402.27 1122.74 376.00 989.03 476.39 968.04 595.63 1129.58 574.27
00257725 00000024 896.22 145.91 417.91 592.25 946.85 395.70 1130.49 370.74 992.06 475.57 967.03 590.78 1130.14 569.46
00257726 00000025 897.35 142.45 414.66 594.69 946.99 393.54 1131.06 368.43 992.98 474.65 967.13 589.41 1131.07 568.01
00257727 00000026 896.88 143.59 414.94 592.95 946.85 393.27 1130.70 367.52 992.98 474.68 967.25 588.74 1131.44 566.65
00257728 00000027 895.78 148.20 414.54 587.19 946.16 394.14 1130.27 368.68 993.56 474.97 966.95 588.30 1131.28 566.47
00257729 00000028 890.19 154.35 417.63 575.42 934.54 389.69 1123.29 363.94 991.86 477.53 967.42 592.54 1128.70 572.05
00257730 00000029 892.81 144.41 416.97 597.02 944.48 393.57 1128.66 367.79 990.47 476.52 965.81 591.53 1129.38 569.44
00257731 00000030 891.19 150.38 417.59 592.60 944.75 399.27 1124.66 373.54 989.18 479.35 966.58 593.34 1127.88 571.12
00257732 00000031 888.14 153.19 419.65 591.36 943.62 407.73 1121.52 380.07 991.00 479.28 965.91 595.47 1126.77 571.46
00257733 00000032 887.69 157.75 420.33 585.00 937.88 412.71 1112.26 384.96 983.20 485.36 969.08 596.12 1128.64 572.67
00257734 00000033 883.83 163.04 420.40 584.91 935.28 415.52 1109.97 387.81 981.50 491.11 967.68 597.18 1129.44 573.43
00257735 00000034 875.34 168.89 421.45 581.06 928.09 409.02 1102.29 383.84 976.92 497.06 963.98 601.10 1126.67 578.37
00257736 00000035 870.75 174.40 420.73 577.77 924.34 410.69 1093.86 387.00 971.09 502.28 960.14 599.74 1121.76 578.14
00257737 00000036 866.48 174.44 420.10 577.02 918.29 411.31 1085.90 387.05 963.09 505.95 956.70 602.22 1117.00 580.12
00257738 00000037 864.22 182.40 418.50 568.04 914.27 412.99 1079.47 389.24 956.03 508.34 953.76 603.40 1111.93 581.51
00257739 00000038 862.47 186.24 416.30 566.04 911.84 416.05 1075.35 391.81 952.33 509.54 951.25 605.64 1107.71 583.32
00257740 00000039 860.66 184.63 414.16 569.27 908.73 417.52 1070.11 393.91 947.38 511.40 948.42 608.49 1101.34 586.78
00257741 00000040 858.50 187.21 412.70 568.32 904.12 420.08 1065.59 394.29 941.36 512.60 944.63 612.06 1097.29 588.56
00257742 00000041 855.89 189.86 411.85 566.74 899.65 422.19 1059.15 396.85 934.46 514.47 939.62 614.08 1090.16 590.91
00257743 00000042 853.38 197.61 409.64 560.15 896.79 425.28 1054.29 400.08 929.10 515.94 935.11 615.63 1084.42 592.44
00257744 00000043 849.75 191.39 409.85 564.35 889.03 428.39 1050.57 404.09 925.46 514.72 926.31 611.66 1074.72 591.02
00257745 00000044 846.04 198.10 409.25 558.58 884.60 429.56 1044.35 407.42 919.34 516.09 921.07 612.09 1066.42 593.31
00257746 00000045 844.11 197.82 407.74 560.86 880.67 434.81 1039.23 410.58 914.11 516.56 916.03 613.24 1063.15 592.56
00257747 00000046 840.93 195.07 405.79 565.27 877.38 438.26 1032.95 412.71 908.80 516.67 911.44 615.41 1057.42 593.74
00257748 00000047 836.50 200.66 408.14 559.19 874.07 439.81 1029.22 412.79 906.82 516.40 909.93 616.55 1054.62 593.57
00257749 00000048 831.07 207.14 410.07 550.28 869.42 439.63 1027.04 413.55 906.31 518.00 905.21 614.08 1052.67 591.71
00257750 00000049 828.85 215.91 407.07 536.52 869.72 432.73 1030.13 407.48 910.19 519.64 904.70 616.05 1052.04 592.55
00257751 00000050 825.38 210.36 404.25 534.85 864.23 429.12 1024.01 405.31 903.97 516.90 901.75 610.42 1049.67 588.40
00257752 00000051 821.50 202.67 404.06 537.33 858.77 424.74 1018.27 398.86 897.65 509.48 897.75 607.18 1044.35 583.83
00257753 00000052 816.48 201.78 402.82 533.93 851.54 415.58 1013.81 392.49 891.84 504.12 890.58 600.46 1041.10 580.00
00257754 00000053 812.91 194.07 398.13 534.53 844.26 413.42 1007.30 385.81 884.95 499.48 882.50 597.09 1035.49 574.21
00257755 00000054 809.98 191.78 398.83 532.86 838.83 413.21 1002.65 380.72 880.45 493.15 877.82 596.04 1030.30 570.17
00257756 00000055 810.78 178.58 394.18 543.77 837.97 412.07 999.10 379.22 877.04 489.86 877.44 593.04 1027.83 567.26
00257757 00000056 805.87 173.56 397.17 548.44 845.76 408.57 997.61 377.31 876.17 481.95 880.21 585.66 1028.50 558.24
00257758 00000057 808.33 182.99 395.28 532.38 835.07 413.66 997.11 377.00 874.45 483.31 874.00 589.57 1024.43 561.32
00257759 DELETE   807.44 176.16 391.98 537.37 849.31 403.58 999.33 372.37 877.95 475.37 880.49 578.52 1026.51 551.34
00257760 00000059 815.51 170.15 388.99 540.03 838.66 399.80 997.32 363.38 872.35 476.24 878.55 582.60 1026.28 554.68
00257761 00000060 818.40 166.35 387.09 542.55 839.41 400.70 997.16 361.51 871.74 473.39 879.78 582.67 1026.88 552.59
00257762 00000061 818.29 166.90 386.98 541.05 840.05 400.29 997.23 360.77 871.84 472.63 881.82 581.97 1027.63 551.52
00257763 00000062 817.56 169.51 387.55 538.12 839.62 401.55 996.15 360.50 871.78 472.25 882.62 582.92 1027.59 551.30
00257764 00000063 811.41 170.90 387.40 537.55 849.69 401.35 999.29 363.87 874.25 470.38 884.43 579.16 1027.40 546.82
00257765 00000064 814.03 176.04 387.47 532.36 834.36 403.21 992.98 359.28 868.80 474.53 881.88 586.14 1028.11 552.24
00257766 00000065 807.09 169.57 387.53 540.87 844.41 403.87 996.96 360.69 872.34 470.39 883.36 580.14 1030.77 542.76
00257767 00000066 810.18 173.68 383.16 526.96 839.79 407.41 992.24 362.35 868.65 470.41 880.14 571.66 1025.86 532.73
00257768 00000067 805.58 166.63 385.97 536.26 838.45 406.97 991.04 361.23 868.91 470.45 880.07 569.79 1028.81 529.91
00257769 00000068 804.65 166.11 390.66 540.65 838.34 407.54 989.77 360.22 867.44 470.26 880.15 572.26 1028.02 531.20
00257770 00000069 798.32 177.60 388.73 535.68 839.87 408.83 991.28 360.14 874.00 475.88 888.51 582.75 1035.89 540.31
00257771 00000070 797.76 187.14 390.69 533.93 843.57 417.13 990.68 367.59 883.19 484.39 894.79 586.30 1042.27 543.20
00257772 00000071 799.05 179.38 392.17 548.49 843.83 424.80 995.21 371.52 888.10 487.72 896.59 589.21 1050.39 542.63
00257773 00000072 804.60 188.77 390.65 541.85 847.81 424.55 997.37 371.81 891.10 491.48 900.81 592.06 1053.59 546.03
00257774 00000073 810.21 184.24 390.54 545.93 850.41 424.64 1000.20 370.34 893.01 495.77 906.96 594.63 1060.45 546.96
00257775 00000074 812.36 182.77 393.17 548.01 852.64 422.18 1005.23 369.37 897.48 496.74 909.07 594.37 1065.28 547.92
00257776 00000075 814.78 181.30 393.21 551.22 846.27 415.73 1010.43 369.40 900.84 497.54 900.93 593.84 1069.29 553.86
00257777 00000076 817.69 176.70 394.15 557.48 849.69 417.03 1013.70 368.61 904.52 497.60 903.52 596.66 1072.54 554.78
00257778 00000077 821.09 180.54 395.94 552.40 854.63 416.52 1018.46 369.42 911.32 499.60 907.09 595.60 1076.27 554.88
00257779 00000078 824.50 180.77 399.76 553.09 859.37 420.37 1023.54 371.25 916.44 501.76 911.19 598.15 1079.75 555.83
00257780 00000079 826.23 182.56 402.97 550.91 863.13 423.64 1030.05 372.25 922.29 502.96 914.93 600.34 1085.30 556.16
00257781 00000080 827.35 189.40 404.96 542.54 865.26 422.49 1034.13 372.72 926.40 504.48 916.29 599.89 1087.73 556.94
00257782 00000081 826.32 183.07 407.86 551.20 866.59 424.35 1035.21 374.86 927.14 506.90 918.11 600.79 1089.47 557.85
00257783 00000082 827.90 183.62 406.83 551.71 868.96 425.23 1037.94 376.75 929.15 508.25 917.87 599.75 1091.60 557.55
00257784 00000083 834.01 190.02 402.21 542.57 874.92 431.15 1041.50 378.54 934.78 509.47 922.48 602.80 1096.78 557.35
00257785 00000084 836.65 190.07 402.38 542.70 878.02 432.80 1043.74 378.05 939.45 510.39 928.18 604.75 1101.28 557.40
00257786 00000085 838.18 197.74 405.38 536.62 880.73 435.08 1047.75 378.39 944.70 511.65 932.01 607.60 1104.97 558.38
00257787 00000086 839.60 195.02 406.21 543.57 884.93 437.27 1050.22 379.47 947.38 512.09 937.73 609.99 1109.48 559.62
00257788 00000087 843.10 202.86 403.82 537.20 889.88 437.89 1051.66 383.26 950.93 515.07 942.32 611.43 1109.38 563.14
00257789 00000088 840.59 198.15 403.45 540.13 887.23 437.81 1046.75 387.00 938.05 516.94 946.03 610.49 1103.51 565.29
00257790 00000089 843.79 198.02 401.42 540.96 888.94 437.09 1046.84 387.25 939.83 519.39 948.94 611.10 1105.92 566.68
00257791 00000090 844.38 196.65 402.16 543.59 889.25 436.79 1047.34 387.54 940.37 519.58 948.87 611.12 1106.09 567.14
00257792 00000091 843.54 198.46 403.03 542.32 888.61 437.43 1047.18 387.22 939.63 519.32 948.95 612.02 1106.08 567.09
00257793 00000092 842.73 195.11 404.74 547.39 888.02 437.46 1046.46 388.28 938.46 520.52 947.83 612.76 1104.93 568.65
00257794 00000093 841.64 192.96 406.60 551.48 887.85 438.02 1046.69 389.82 938.90 520.95 946.87 612.55 1104.74 569.20
00257795 00000094 842.39 194.44 405.18 551.17 887.89 438.49 1046.34 392.33 937.40 522.79 945.04 612.54 1102.96 570.94
00257796 00000095 840.61 190.31 407.25 559.83 886.70 437.84 1046.38 395.80 936.50 526.05 942.18 612.65 1102.81 574.50
00257797 00000096 840.30 193.31 406.51 557.57 886.30 437.57 1046.88 396.98 936.03 527.64 941.22 613.10 1103.16 576.15
00257798 00000097 838.53 198.49 405.90 551.02 885.36 437.88 1047.34 399.23 936.32 529.94 938.79 612.77 1102.39 577.49
00257799 00000098 838.26 204.56 404.88 546.05 885.07 437.15 1047.58 400.56 936.20 532.40 938.20 613.58 1102.00 580.01
00257800 00000099 838.79 208.34 404.28 542.43 885.02 437.52 1047.93 401.75 935.96 533.22 937.70 614.62 1101.16 581.76
00257801 00000100 839.85 208.01 404.12 543.40 886.34 438.55 1048.00 402.61 937.08 532.73 939.27 616.22 1100.31 583.43
00257802 00000101 842.40 210.00 401.76 538.46 887.16 434.98 1048.43 399.27 936.47 530.33 941.11 615.59 1099.51 582.97
00257803 00000102 844.46 208.53 401.40 540.42 887.98 432.39 1049.96 396.21 935.72 527.21 941.18 616.47 1098.18 583.59
00257804 00000103 846.36 208.66 399.64 540.73 889.07 432.84 1051.85 395.52 937.76 525.82 941.79 617.00 1098.80 583.36
00257805 00000104 847.93 206.70 398.41 541.62 890.07 432.93 1053.08 395.06 938.76 525.38 942.49 618.09 1099.12 584.12
00257806 00000105 849.30 205.19 397.15 545.32 891.12 433.63 1054.62 396.45 940.21 525.35 941.60 619.79 1097.37 586.78
00257807 00000106 848.18 207.38 398.24 545.91 892.67 434.92 1054.81 398.13 941.85 525.84 942.82 621.77 1096.86 589.23
00257808 00000107 852.09 215.56 397.09 541.68 898.28 438.35 1055.67 405.32 942.93 528.51 945.30 623.82 1094.70 594.59
CROP_BBOX: 548 0 1564 1006
