Video ID: 	IvAtrT9XKqY
H: 	1080
W: 	1920
FPS: 	25.0

FRAME INDEX X0 Y0 W H [Landmarks (5 Points)]

00002238 00000000 913.74 132.22 578.85 811.64 1031.39 428.71 1298.63 465.35 1099.70 579.62 1007.03 721.19 1225.33 753.75
00002239 DELETE   910.77 131.03 581.45 818.74 1028.56 431.67 1291.83 467.31 1097.06 582.93 1007.32 722.22 1219.08 754.49
00002240 00000002 901.55 134.24 583.86 819.54 1017.22 435.21 1279.94 462.91 1086.69 587.62 1005.60 730.27 1209.50 756.22
00002241 00000003 897.05 136.10 583.28 822.56 1008.10 438.11 1266.28 455.84 1073.01 588.26 1004.40 740.42 1198.75 758.42
00002242 00000004 889.41 134.37 580.03 824.37 998.48 438.34 1257.55 454.07 1066.70 589.37 996.56 741.40 1194.44 757.66
00002243 00000005 885.62 135.72 580.23 821.58 993.33 437.65 1252.22 456.47 1060.47 590.52 988.44 738.98 1191.00 757.74
00002244 00000006 883.47 134.96 578.11 816.06 986.43 438.78 1248.28 459.27 1056.19 592.10 981.13 737.56 1190.20 757.56
00002245 00000007 879.19 136.42 582.40 815.02 982.70 441.26 1244.20 459.23 1052.72 593.35 980.53 738.03 1188.02 755.83
00002246 00000008 869.38 135.20 586.96 811.38 976.18 436.60 1235.00 452.44 1045.04 591.13 977.66 735.32 1178.55 751.24
00002247 00000009 864.51 130.87 591.14 815.08 965.53 434.55 1222.19 448.25 1029.90 588.39 967.88 736.58 1168.21 750.88
00002248 00000010 862.44 132.70 582.02 807.32 957.71 436.12 1210.91 447.34 1020.18 591.69 964.19 735.90 1163.74 747.96
00002249 00000011 862.00 133.51 584.15 811.76 951.01 441.13 1202.48 449.82 1009.76 596.30 959.50 736.96 1166.75 746.25
00002250 00000012 861.64 135.67 583.63 814.36 950.26 446.40 1199.18 448.83 1009.54 598.18 964.40 742.21 1172.41 745.92
00002251 00000013 859.88 140.77 583.09 811.06 955.36 451.70 1200.21 451.18 1020.00 603.21 974.96 745.04 1179.21 745.97
00002252 00000014 863.43 146.52 581.35 807.82 956.33 458.44 1200.04 455.37 1021.55 610.10 979.34 751.52 1185.25 750.11
00002253 00000015 864.99 159.60 581.06 794.30 957.79 463.62 1200.63 460.71 1023.64 618.15 983.73 754.62 1190.06 753.21
00002254 00000016 864.45 167.70 584.16 788.69 957.15 469.08 1199.37 464.76 1024.82 625.71 987.74 758.07 1195.67 754.97
00002255 00000017 862.97 170.30 588.51 787.26 953.52 474.55 1200.70 464.77 1029.92 633.71 994.05 765.35 1204.50 757.49
00002256 00000018 864.90 173.23 585.01 774.31 951.31 476.77 1200.84 465.18 1030.04 633.88 993.65 766.43 1197.92 757.42
00002257 00000019 863.36 173.66 587.31 773.35 950.78 475.56 1200.52 462.41 1030.60 632.52 995.70 768.10 1194.26 758.06
00002258 00000020 863.43 172.34 588.00 770.64 953.14 474.31 1200.75 459.12 1032.68 628.05 999.38 768.03 1190.99 756.79
00002259 00000021 864.60 170.90 587.20 770.96 952.65 474.66 1198.69 458.96 1029.17 625.94 997.25 767.22 1188.43 755.56
00002260 00000022 864.86 170.83 586.07 768.61 951.38 473.67 1196.98 457.88 1027.59 623.94 995.85 766.04 1187.60 754.27
00002261 00000023 865.48 166.13 584.10 767.07 950.59 471.54 1196.24 454.07 1027.47 620.92 996.42 765.01 1184.64 752.23
00002262 00000024 864.74 164.29 586.68 768.12 949.95 471.27 1195.56 452.74 1026.57 620.09 996.10 765.75 1182.83 752.33
00002263 00000025 863.37 168.01 582.08 768.65 945.21 471.50 1198.42 451.69 1024.35 614.28 992.25 766.88 1186.23 751.87
00002264 00000026 864.57 168.38 579.45 768.65 945.62 471.26 1197.75 449.39 1023.58 611.56 992.51 766.03 1186.97 749.28
00002265 00000027 862.11 163.99 581.12 771.38 944.92 464.75 1196.09 444.66 1022.70 607.96 991.07 758.70 1187.32 743.47
00002266 00000028 862.28 153.39 586.38 777.76 950.59 459.91 1187.82 440.49 1020.99 603.90 994.00 748.81 1183.61 734.57
00002267 00000029 863.56 148.59 583.43 780.68 951.63 455.21 1187.75 433.81 1022.58 596.92 996.56 744.22 1183.53 728.57
00002268 00000030 865.68 146.19 578.55 778.31 952.60 453.16 1186.98 430.71 1022.16 591.06 995.78 738.05 1184.92 721.74
00002269 00000031 867.45 146.66 574.46 775.40 952.42 451.27 1185.87 428.84 1020.88 588.70 994.65 733.43 1186.62 717.13
00002270 00000032 868.04 148.11 572.75 772.96 952.78 451.15 1185.48 428.27 1021.42 587.97 995.20 731.86 1189.58 715.07
00002271 00000033 865.50 147.85 575.14 767.21 948.55 445.73 1189.60 426.90 1022.00 588.73 995.10 731.73 1194.97 716.62
00002272 00000034 867.58 148.37 572.83 757.37 947.76 445.28 1189.13 427.97 1021.81 591.10 993.93 727.63 1197.66 713.59
00002273 00000035 868.65 148.38 572.74 755.20 947.79 444.67 1189.33 428.52 1021.11 590.97 993.24 725.35 1200.14 712.00
00002274 00000036 868.61 148.99 573.21 758.98 948.65 445.11 1189.72 429.10 1021.42 591.25 992.98 724.07 1203.28 710.77
00002275 00000037 866.83 152.26 573.56 766.58 949.10 449.61 1189.70 431.50 1023.03 595.55 995.38 730.76 1205.90 715.70
00002276 00000038 866.13 155.90 574.17 760.89 947.63 449.92 1190.00 433.60 1022.88 598.80 993.30 729.97 1205.05 716.39
00002277 00000039 866.05 156.00 574.13 757.72 945.97 451.85 1188.26 435.83 1018.90 599.07 990.12 729.83 1202.75 716.62
00002278 00000040 865.02 156.94 576.62 758.12 944.41 454.26 1186.56 437.42 1016.22 599.00 988.60 731.66 1199.72 717.95
00002279 00000041 863.67 157.46 575.70 757.94 943.62 455.35 1184.53 438.32 1014.58 598.62 987.12 732.32 1197.48 718.48
00002280 00000042 860.39 155.16 577.77 768.96 942.23 455.25 1182.53 436.23 1013.41 598.69 987.56 733.83 1200.54 718.26
00002281 00000043 859.11 152.92 580.03 778.63 940.76 453.24 1177.33 432.19 1009.61 596.83 988.92 734.45 1203.28 716.64
00002282 00000044 855.21 148.40 581.85 775.03 935.53 445.34 1173.35 422.70 1001.99 588.49 984.46 731.73 1197.44 712.53
00002283 00000045 853.18 147.07 584.46 771.25 931.66 446.56 1168.70 421.90 997.09 589.94 984.11 732.73 1192.15 711.89
00002284 00000046 855.41 151.57 581.57 765.24 931.49 449.44 1173.81 432.66 1000.01 606.71 984.60 738.17 1189.62 724.44
00002285 00000047 861.74 161.80 580.83 772.42 940.93 452.60 1184.03 442.15 1013.49 619.22 996.34 739.74 1195.87 729.98
00002286 00000048 870.57 165.22 584.91 770.01 946.21 459.36 1191.21 437.96 1020.18 617.07 1002.91 751.67 1208.80 733.80
00002287 00000049 873.81 158.22 583.57 781.43 954.17 459.90 1195.91 434.69 1031.07 613.31 1013.99 750.54 1220.02 728.76
00002288 00000050 876.13 156.98 580.81 776.02 956.99 454.32 1199.66 430.07 1035.45 606.16 1014.08 741.64 1222.67 720.75
00002289 00000051 878.72 159.11 573.10 758.95 958.52 445.81 1201.43 426.89 1036.77 601.72 1013.22 730.66 1218.01 714.68
00002290 00000052 878.12 155.11 573.69 763.08 957.93 443.88 1201.16 426.43 1036.03 601.84 1010.98 727.89 1218.29 713.11
00002291 00000053 875.16 159.27 573.55 764.27 955.80 449.14 1197.89 427.23 1034.94 603.20 1011.21 733.41 1218.83 714.78
00002292 00000054 869.02 159.63 581.43 774.21 951.54 456.69 1193.82 429.10 1031.54 603.74 1010.56 742.75 1218.98 719.22
00002293 00000055 862.35 163.16 584.09 773.22 946.86 461.06 1188.67 430.72 1028.21 605.30 1006.17 746.59 1216.45 720.89
00002294 00000056 858.81 170.40 584.50 761.02 938.38 464.86 1183.95 438.68 1020.08 617.45 1000.76 741.94 1215.99 717.85
00002295 00000057 857.70 170.77 583.30 761.20 934.89 475.68 1174.11 446.50 1008.51 620.12 994.27 749.32 1208.13 724.30
00002296 00000058 851.40 178.78 585.62 758.48 926.90 474.65 1170.94 451.75 1000.88 627.17 986.81 745.67 1202.16 724.55
00002297 00000059 850.82 176.59 586.27 766.99 924.38 472.75 1164.46 454.04 990.53 628.93 974.60 743.35 1189.44 725.45
00002298 00000060 847.14 178.34 586.36 767.40 920.88 473.43 1161.02 455.48 986.61 631.09 970.69 746.03 1185.09 728.90
00002299 00000061 844.54 178.09 583.97 766.09 917.85 473.10 1157.78 455.46 983.45 630.03 967.04 745.78 1182.15 728.85
00002300 00000062 842.08 177.91 584.24 765.38 915.17 472.67 1153.84 454.73 979.12 628.33 965.51 748.17 1177.22 731.10
00002301 00000063 839.16 175.05 583.70 765.28 911.91 473.66 1152.36 454.84 975.64 626.53 961.63 750.79 1172.94 733.18
00002302 00000064 835.80 174.92 584.37 768.81 909.80 473.92 1150.52 455.33 974.85 629.02 960.38 753.63 1170.23 736.40
00002303 00000065 832.70 176.22 588.39 768.77 907.12 476.49 1150.21 456.50 974.24 631.60 962.39 759.38 1168.65 741.22
00002304 00000066 829.23 178.23 588.57 768.30 903.46 479.35 1152.58 458.55 975.33 635.23 960.16 765.56 1164.98 747.52
00002305 00000067 826.85 177.66 588.46 772.39 902.40 480.70 1152.91 458.41 977.33 639.14 960.98 772.05 1161.41 753.17
00002306 00000068 826.26 180.88 589.41 770.75 903.34 482.18 1153.55 458.58 979.54 640.63 964.17 772.55 1166.14 752.32
00002307 00000069 826.56 183.85 591.42 772.49 904.88 482.51 1152.51 458.30 978.51 637.50 964.80 773.16 1170.70 751.79
00002308 00000070 830.41 183.60 589.84 771.06 908.03 479.18 1152.45 458.38 977.57 634.91 963.72 764.23 1175.77 744.82
00002309 00000071 834.57 187.74 585.63 765.95 911.90 477.00 1155.57 458.19 981.29 635.19 965.25 759.83 1177.86 742.10
00002310 00000072 836.26 186.74 588.34 765.04 915.22 478.70 1159.62 460.11 986.29 636.89 969.11 759.86 1179.92 742.45
00002311 00000073 840.64 190.20 587.75 760.77 917.69 480.07 1161.87 462.30 988.50 638.96 970.27 758.24 1181.09 741.63
00002312 00000074 841.26 191.55 587.84 760.47 918.81 481.63 1163.47 464.00 990.70 640.38 971.19 757.75 1184.06 741.24
00002313 00000075 841.61 193.13 588.22 763.03 918.85 482.82 1163.06 465.18 989.68 641.26 971.23 759.22 1185.22 742.54
00002314 00000076 840.89 192.85 589.47 769.55 918.86 481.94 1162.14 464.52 987.87 640.66 971.40 761.32 1185.27 744.71
00002315 00000077 839.44 190.54 590.66 775.24 918.28 480.37 1160.42 462.06 986.08 638.15 971.08 761.14 1185.15 743.72
00002316 00000078 839.83 186.85 587.97 769.87 917.84 478.56 1160.73 460.08 987.01 636.85 971.48 759.26 1184.49 741.78
00002317 00000079 840.83 186.76 587.38 759.68 917.79 477.39 1162.33 459.88 988.30 637.47 972.35 756.73 1184.66 740.10
00002318 00000080 841.21 184.63 587.06 758.02 918.68 476.42 1163.43 459.18 989.62 636.27 973.82 756.30 1182.58 740.11
00002319 00000081 839.03 181.17 587.72 764.51 917.46 477.99 1164.88 457.10 990.99 632.87 977.14 766.75 1175.79 748.53
00002320 00000082 838.35 175.53 583.04 770.09 917.72 477.28 1164.84 455.64 994.27 632.27 978.23 770.25 1169.09 752.05
00002321 00000083 837.82 177.12 579.02 766.55 920.60 480.89 1172.70 465.19 999.42 631.29 974.90 771.82 1169.48 758.16
00002322 00000084 838.45 178.43 576.76 770.54 922.02 483.47 1171.75 466.06 1000.02 630.99 976.67 774.13 1172.52 758.66
00002323 00000085 839.46 180.41 584.06 771.63 921.72 481.97 1174.71 464.97 1002.12 635.81 979.50 774.51 1179.31 759.27
00002324 00000086 844.67 183.61 590.38 779.41 923.43 485.23 1173.46 465.27 998.07 640.71 978.56 776.07 1181.69 758.78
00002325 00000087 844.64 196.26 589.14 769.89 924.92 491.97 1176.73 467.47 1005.60 645.33 982.17 781.12 1192.73 760.41
00002326 00000088 845.88 202.51 589.74 759.05 925.66 493.54 1180.63 469.34 1009.01 652.38 986.08 786.10 1192.53 766.08
00002327 00000089 845.61 204.28 587.84 763.84 927.06 494.80 1182.64 470.15 1012.94 654.64 987.79 786.75 1192.84 766.58
00002328 00000090 844.52 203.69 589.68 770.72 927.78 494.80 1182.75 469.86 1013.31 654.52 990.28 791.06 1192.28 770.77
00002329 00000091 844.04 206.26 590.31 767.72 925.07 497.31 1179.98 468.49 1008.79 651.49 989.05 794.40 1195.13 770.19
00002330 00000092 844.94 207.32 588.66 762.24 925.44 497.94 1177.85 466.50 1009.59 647.83 990.47 787.22 1203.99 760.06
00002331 00000093 846.26 205.23 588.87 761.03 926.63 496.87 1178.02 467.08 1010.10 648.18 991.11 784.55 1202.15 758.89
00002332 00000094 846.89 204.51 586.99 749.44 926.95 495.24 1177.90 468.68 1009.82 648.77 989.31 778.58 1198.23 755.90
00002333 00000095 848.49 192.89 588.69 764.04 929.06 487.94 1177.71 470.00 1004.50 648.01 983.01 771.87 1189.11 755.69
00002334 00000096 849.31 192.73 587.11 761.88 929.28 486.97 1177.22 469.19 1004.94 647.06 982.59 770.14 1188.25 754.09
00002335 00000097 849.74 190.53 585.96 759.17 929.72 484.86 1178.06 468.39 1004.97 645.32 982.18 766.61 1187.97 751.70
00002336 00000098 849.19 187.19 584.74 759.56 929.23 482.88 1177.89 467.63 1003.50 642.06 979.39 762.82 1186.93 748.93
00002337 00000099 850.46 181.87 582.08 767.69 928.37 479.65 1176.25 463.41 1001.35 637.99 978.04 760.26 1186.86 745.44
00002338 00000100 848.98 176.92 584.62 771.39 925.62 476.86 1175.79 461.52 998.37 637.97 974.70 757.51 1186.36 743.27
00002339 00000101 847.55 173.17 584.18 774.29 923.45 473.64 1174.11 459.55 995.89 636.71 971.74 753.73 1183.93 740.48
00002340 00000102 841.43 170.52 582.21 778.77 923.15 470.24 1176.89 459.90 1001.82 632.16 971.84 755.77 1180.79 746.37
00002341 00000103 843.32 172.36 577.92 776.40 923.83 471.43 1177.87 460.00 1003.09 632.82 972.96 758.26 1182.82 747.68
00002342 00000104 848.22 177.78 584.51 775.39 925.08 478.06 1177.18 463.03 997.74 636.05 973.63 763.07 1182.40 749.36
00002343 00000105 847.20 190.79 583.37 757.57 926.94 483.64 1179.46 463.86 1007.93 639.38 981.72 770.09 1188.31 754.19
00002344 00000106 847.73 196.28 588.20 757.22 927.30 489.17 1183.11 468.88 1010.83 648.90 985.25 778.39 1191.88 761.87
00002345 00000107 851.02 203.01 586.08 757.84 929.55 494.43 1185.90 473.48 1015.22 659.52 991.27 783.58 1200.96 765.67
00002346 00000108 851.03 207.12 588.56 755.18 932.19 496.21 1187.91 474.62 1020.01 660.59 996.70 787.00 1201.23 768.63
00002347 00000109 853.00 201.96 588.35 759.45 933.57 494.44 1188.16 472.13 1019.59 656.52 996.27 785.01 1200.59 766.35
00002348 00000110 851.61 195.73 589.32 762.67 933.22 491.54 1188.32 467.93 1018.52 646.98 994.13 783.40 1194.81 764.18
00002349 00000111 847.22 188.60 590.34 769.89 931.69 486.94 1185.32 462.61 1016.33 640.44 993.88 783.18 1188.61 763.85
00002350 00000112 843.75 183.47 591.06 780.34 926.33 484.59 1179.61 459.41 1007.59 637.59 989.39 786.85 1182.15 766.86
00002351 00000113 840.40 183.85 579.97 778.00 918.87 478.33 1170.84 464.56 992.75 646.46 978.65 789.75 1165.77 777.62
00002352 00000114 835.50 188.89 588.58 782.22 909.00 488.49 1152.94 475.23 969.92 654.73 967.28 791.56 1148.90 780.46
00002353 00000115 821.37 200.93 597.43 763.52 895.55 489.61 1135.68 478.83 954.49 660.78 958.89 790.87 1141.91 782.22
00002354 00000116 824.73 211.84 589.00 754.64 892.78 493.30 1136.06 480.70 950.68 657.65 950.96 786.64 1141.11 775.30
00002355 00000117 825.01 207.15 589.75 754.59 890.55 490.83 1134.98 477.73 948.61 654.44 947.23 779.17 1144.32 767.20
00002356 00000118 825.96 203.99 589.67 754.68 890.77 489.10 1133.84 475.83 949.04 652.67 945.74 774.72 1145.32 762.48
00002357 00000119 825.20 200.54 589.49 753.72 890.07 487.23 1132.32 475.04 948.48 652.55 945.11 768.97 1148.01 757.41
00002358 00000120 821.55 200.35 587.76 751.33 885.64 482.14 1127.35 474.39 941.50 649.61 938.61 762.98 1143.33 755.18
00002359 00000121 816.10 201.27 588.97 752.53 877.82 482.30 1110.36 470.78 924.99 644.28 935.25 761.61 1138.46 750.20
00002360 00000122 807.31 205.03 590.75 755.42 870.14 483.03 1095.13 471.97 908.69 643.06 930.00 761.03 1132.44 749.38
00002361 00000123 805.01 204.66 586.36 754.28 867.47 481.73 1091.40 473.02 904.09 641.89 923.79 758.36 1126.95 748.69
00002362 00000124 804.10 203.26 589.04 755.17 868.99 483.79 1096.96 471.11 912.09 639.55 925.09 760.97 1130.10 748.21
00002363 00000125 804.82 201.86 591.65 755.76 870.26 485.53 1102.17 468.89 918.46 636.82 926.35 762.32 1133.91 746.51
00002364 00000126 803.40 200.51 588.68 754.90 868.77 484.06 1099.07 469.07 915.91 638.84 925.10 761.96 1127.59 747.95
00002365 00000127 801.35 198.60 583.46 752.83 864.66 479.17 1093.68 468.40 907.95 637.68 919.51 761.03 1113.18 751.60
00002366 00000128 801.84 195.50 581.49 752.43 865.47 480.76 1095.33 469.45 909.45 634.71 918.51 764.29 1105.52 755.15
00002367 00000129 804.88 202.54 581.63 747.06 870.34 493.20 1100.26 477.50 917.74 635.53 923.36 773.92 1103.22 761.19
00002368 00000130 807.39 208.19 584.60 746.90 873.59 496.65 1105.50 479.77 922.46 639.39 926.64 781.08 1103.70 767.50
00002369 00000131 806.85 206.01 585.22 747.59 873.19 491.72 1108.25 481.10 921.95 643.91 924.94 786.92 1091.09 779.11
00002370 00000132 800.73 197.28 588.58 760.18 866.61 490.49 1095.37 479.18 905.00 649.54 910.48 789.09 1076.94 781.69
00002371 00000133 794.42 197.95 588.81 765.37 862.46 488.23 1086.41 477.96 893.44 648.24 903.29 791.24 1068.44 784.29
00002372 00000134 794.53 198.14 590.71 768.38 861.96 492.24 1086.29 479.63 894.54 649.40 904.91 793.96 1072.26 784.97
00002373 00000135 792.64 201.14 593.83 764.93 861.78 494.15 1088.95 479.13 899.59 647.13 908.02 794.09 1077.30 783.16
00002374 00000136 790.84 206.14 590.60 763.96 859.73 496.40 1083.54 481.10 896.93 651.29 908.39 794.16 1083.41 782.59
00002375 00000137 790.19 213.07 584.13 762.62 851.32 498.30 1084.61 481.14 892.15 650.63 907.10 797.83 1086.98 783.61
00002376 00000138 790.29 215.67 587.40 767.48 853.82 497.49 1087.66 478.22 897.18 647.60 912.75 796.29 1100.81 779.80
00002377 00000139 793.89 208.56 591.05 772.36 860.22 499.99 1101.54 473.05 913.90 642.57 918.89 795.40 1116.44 772.97
00002378 00000140 796.25 205.79 591.90 766.76 863.12 500.55 1106.43 469.89 921.65 640.51 922.41 789.71 1126.42 763.68
00002379 00000141 795.82 201.23 593.02 768.32 867.89 493.24 1099.06 470.94 918.98 639.31 924.05 783.66 1120.37 765.14
00002380 00000142 794.67 197.03 587.87 765.82 861.37 490.50 1105.93 467.00 918.11 632.85 913.46 786.00 1102.89 767.81
00002381 00000143 797.66 192.58 587.49 763.18 866.87 487.15 1101.90 466.79 920.55 632.56 915.96 777.60 1104.62 761.80
00002382 00000144 794.18 182.39 601.88 782.86 873.02 485.55 1111.54 458.68 934.65 628.53 930.19 783.63 1116.49 762.34
00002383 00000145 803.40 184.74 593.77 777.04 879.29 484.25 1115.59 457.81 939.98 623.69 934.83 781.00 1122.29 759.95
00002384 00000146 805.43 183.50 590.65 772.47 880.29 481.44 1116.81 457.83 938.56 619.58 930.90 774.58 1119.68 755.94
00002385 00000147 807.84 178.82 583.71 763.11 879.91 477.48 1114.01 453.70 937.80 613.75 930.28 767.16 1115.57 748.57
00002386 00000148 811.16 175.12 578.50 765.71 876.70 474.61 1120.04 451.60 936.90 608.95 922.53 763.49 1119.24 745.50
00002387 00000149 813.02 175.58 578.36 760.73 878.95 473.62 1122.82 449.23 941.13 608.35 925.35 760.49 1123.69 741.22
00002388 00000150 815.08 172.33 577.85 760.82 880.86 472.52 1124.41 446.99 943.33 606.92 927.45 757.83 1125.76 737.60
00002389 00000151 814.73 167.81 577.18 761.58 880.66 469.17 1124.58 445.51 942.43 604.89 925.85 754.09 1123.26 735.68
00002390 00000152 813.08 165.32 574.21 761.13 880.05 465.20 1124.26 443.89 941.73 601.50 924.46 751.96 1117.36 735.88
00002391 00000153 810.29 163.02 578.54 763.13 880.22 460.08 1125.08 437.32 944.36 595.91 927.04 754.95 1108.44 737.91
00002392 00000154 809.03 158.39 580.62 765.72 881.23 456.55 1125.51 432.00 946.54 590.30 929.34 756.21 1101.51 737.96
00002393 00000155 808.47 154.46 578.09 761.62 882.20 452.57 1124.79 427.45 949.92 585.30 931.43 750.45 1100.41 731.69
00002394 00000156 808.08 152.74 577.84 758.64 881.56 450.54 1121.92 423.02 948.56 580.07 931.57 745.37 1100.58 724.50
00002395 00000157 809.12 152.07 576.22 756.04 881.17 448.39 1121.31 422.31 946.49 577.69 928.53 741.22 1100.18 721.51
00002396 00000158 810.46 151.61 574.39 755.42 879.20 448.92 1121.84 422.75 945.03 580.00 926.12 741.36 1104.24 721.44
00002397 00000159 813.37 152.50 573.12 754.73 880.23 449.18 1124.43 424.65 946.24 584.41 926.17 740.29 1110.01 721.72
00002398 00000160 814.38 154.44 574.50 756.60 881.47 450.99 1127.95 425.77 949.53 585.50 927.20 744.09 1110.59 725.05
00002399 00000161 811.92 157.95 581.58 759.86 890.74 455.88 1124.88 424.48 955.45 584.78 941.73 745.07 1112.21 722.44
00002400 00000162 815.95 161.06 577.59 758.31 892.43 455.88 1127.38 427.15 955.23 584.96 939.46 743.34 1116.14 722.64
00002401 00000163 819.76 162.57 573.20 759.81 893.62 456.51 1127.74 427.73 954.83 582.20 938.72 742.84 1120.69 721.87
00002402 00000164 821.37 160.55 569.71 763.61 894.48 455.11 1127.34 428.02 954.54 580.62 938.01 739.49 1124.28 719.70
00002403 00000165 823.29 160.07 567.00 760.49 894.26 454.85 1128.97 427.48 954.88 577.72 935.58 736.58 1124.21 716.77
00002404 00000166 824.08 160.41 566.64 757.43 894.72 454.56 1129.54 427.32 954.80 577.19 935.11 734.93 1123.46 715.31
CROP_BBOX: 564 0 1806 1080
