Video ID: 	2FpqrcYv68g
H: 	1080
W: 	1920
FPS: 	59.94005994005994

FRAME INDEX X0 Y0 W H [Landmarks (5 Points)]

00015498 00000000 771.75 269.58 413.29 606.11 947.77 518.42 1120.04 482.28 1113.65 600.05 1002.72 738.46 1147.92 707.61
00015499 00000001 772.89 266.84 414.52 607.17 954.03 517.87 1123.37 481.76 1120.91 599.98 1008.31 738.11 1151.01 707.80
00015500 DELETE   778.46 264.03 410.73 607.23 960.84 518.15 1127.83 482.20 1127.26 600.62 1015.36 737.93 1154.41 708.21
00015501 DELETE   781.05 264.78 410.58 604.89 964.60 518.66 1132.51 485.44 1129.69 602.55 1018.13 738.65 1156.29 711.04
00015502 00000004 784.51 262.45 409.60 604.71 968.64 518.18 1136.99 487.36 1132.17 604.48 1021.36 739.27 1157.57 713.55
00015503 00000005 785.50 262.15 409.60 603.04 970.48 518.79 1139.16 490.34 1131.94 605.83 1021.84 738.36 1158.04 714.46
00015504 00000006 787.16 259.74 409.21 602.63 970.46 517.26 1142.23 491.18 1131.76 607.80 1021.74 738.36 1158.39 716.29
00015505 00000007 788.28 262.35 410.12 598.13 971.00 518.09 1144.02 492.96 1131.62 609.10 1021.43 738.46 1158.73 717.12
00015506 00000008 791.02 264.35 409.06 595.94 972.43 517.58 1146.22 495.79 1131.13 609.77 1021.71 737.70 1159.05 719.08
00015507 00000009 792.95 266.01 409.23 594.73 973.16 517.93 1147.14 496.63 1130.69 610.62 1020.78 737.70 1158.72 719.53
00015508 00000010 792.90 264.92 410.23 597.99 972.07 517.52 1147.22 498.85 1128.72 610.36 1020.30 738.46 1158.46 722.31
00015509 00000011 793.45 266.09 411.30 599.69 972.54 517.69 1147.97 500.11 1128.70 610.62 1020.51 739.86 1158.62 724.60
00015510 00000012 793.69 267.04 411.86 605.30 971.18 518.27 1146.66 503.32 1125.44 609.20 1020.60 742.85 1156.88 729.75
00015511 00000013 794.20 268.43 412.49 608.75 970.36 518.19 1146.11 505.01 1123.20 609.76 1019.82 746.78 1153.98 735.39
00015512 00000014 791.97 263.34 413.04 623.06 960.47 519.76 1143.52 501.86 1107.00 618.54 1018.66 749.39 1152.31 736.35
00015513 00000015 793.34 274.84 414.74 604.53 966.85 521.90 1148.34 509.77 1117.86 616.59 1015.84 750.59 1151.65 739.65
00015514 00000016 792.93 277.51 417.23 604.52 964.76 528.89 1148.13 514.44 1114.13 623.23 1014.42 754.03 1151.28 740.79
00015515 00000017 791.60 281.65 419.71 601.89 963.93 532.58 1149.60 518.65 1111.32 628.94 1012.51 756.10 1150.71 743.12
00015516 00000018 792.48 289.44 419.49 593.90 962.63 536.74 1151.13 526.37 1109.18 633.73 1008.60 757.29 1150.47 747.26
00015517 00000019 793.02 293.19 419.15 591.44 964.00 540.55 1151.96 531.78 1107.92 640.36 1008.60 759.91 1148.86 751.12
00015518 00000020 791.83 298.55 420.12 587.28 962.34 543.12 1151.76 536.24 1104.15 646.47 1005.55 762.56 1146.08 755.28
00015519 00000021 791.52 300.60 419.13 587.54 962.46 544.21 1152.49 537.38 1104.05 651.87 1004.06 765.89 1143.94 758.75
00015520 00000022 790.29 300.75 419.03 587.38 960.17 544.19 1152.43 536.90 1102.72 654.90 1000.69 765.92 1143.37 758.18
00015521 00000023 790.07 299.99 419.11 588.00 959.44 543.28 1152.48 536.49 1101.94 653.42 1000.15 765.46 1143.15 758.14
00015522 00000024 787.72 298.39 419.71 590.20 957.21 541.50 1149.19 537.10 1098.07 652.62 995.91 763.84 1138.26 758.57
00015523 00000025 786.64 296.02 420.35 594.54 955.55 540.81 1147.19 536.78 1096.10 651.02 993.02 762.88 1136.33 758.06
00015524 00000026 785.01 295.55 420.82 595.96 953.52 539.55 1144.11 536.83 1093.24 649.65 990.49 762.31 1132.25 758.64
00015525 00000027 785.23 292.77 420.30 598.86 952.10 538.47 1143.67 535.90 1092.77 647.82 989.12 762.35 1131.55 758.98
00015526 00000028 783.69 294.72 421.48 596.23 950.33 537.56 1142.31 535.90 1090.49 646.54 986.27 760.16 1130.35 757.40
00015527 00000029 783.37 294.23 421.13 595.66 949.92 537.36 1142.73 534.67 1090.93 645.74 986.27 759.72 1131.06 756.05
00015528 00000030 783.17 293.41 421.03 594.41 949.26 536.30 1142.64 534.94 1089.84 643.54 983.73 756.63 1130.51 754.01
00015529 00000031 782.36 293.96 421.12 593.92 948.44 535.30 1141.76 534.00 1089.15 642.21 982.16 755.36 1130.37 752.78
00015530 00000032 782.03 292.68 419.98 593.82 947.87 534.97 1141.31 532.92 1089.47 641.09 981.94 754.72 1130.85 751.55
00015531 00000033 781.94 292.91 419.29 593.29 947.54 533.73 1141.52 531.89 1089.42 639.96 981.70 753.94 1130.57 750.93
00015532 00000034 781.25 292.18 417.27 593.03 945.68 534.14 1140.44 531.48 1088.53 638.94 980.53 753.49 1130.99 749.86
00015533 00000035 780.10 292.65 417.28 593.49 945.23 534.74 1139.22 531.64 1088.08 638.44 981.02 753.63 1130.90 749.63
00015534 00000036 778.95 291.78 417.04 595.46 942.64 535.96 1136.95 530.33 1086.28 639.09 980.10 754.85 1130.75 748.73
00015535 00000037 777.36 292.46 417.29 596.81 941.03 536.06 1135.15 529.11 1084.82 639.55 979.56 755.67 1130.07 748.40
00015536 00000038 774.68 293.34 418.44 596.97 937.30 536.71 1131.43 528.71 1080.98 639.60 977.15 756.07 1127.69 747.73
00015537 00000039 771.88 294.62 420.52 596.78 934.97 537.77 1129.29 528.91 1078.05 639.94 975.47 756.23 1126.68 747.03
00015538 00000040 769.10 294.81 420.46 600.49 931.19 538.24 1123.13 528.49 1073.36 640.52 972.49 755.96 1123.78 746.02
00015539 00000041 767.68 295.31 421.20 601.14 929.07 539.79 1120.41 529.20 1071.07 640.52 970.97 756.34 1122.55 745.81
00015540 00000042 765.04 295.39 421.01 603.63 925.04 539.11 1117.37 529.04 1068.15 639.62 966.37 756.53 1120.36 746.51
00015541 00000043 762.28 294.95 421.85 605.52 922.47 539.35 1115.67 529.87 1066.51 639.48 963.40 755.88 1118.86 746.30
00015542 00000044 759.08 296.32 421.42 603.95 917.98 538.61 1111.95 529.30 1062.13 640.21 959.81 755.62 1114.45 746.10
00015543 00000045 757.14 298.14 422.16 600.88 914.78 539.53 1110.09 528.76 1059.15 642.21 957.17 756.05 1112.81 745.30
00015544 00000046 754.21 298.77 423.21 600.54 912.29 539.02 1107.57 530.10 1055.27 644.64 953.77 756.91 1106.80 747.82
00015545 00000047 752.29 300.28 423.67 598.96 910.73 539.65 1105.42 530.94 1053.82 644.34 951.74 756.16 1105.42 747.33
00015546 00000048 750.62 300.30 424.33 598.74 908.11 539.69 1103.37 531.25 1049.56 646.01 948.34 756.15 1102.23 747.65
00015547 00000049 749.27 300.54 424.51 597.41 906.72 539.78 1101.12 531.33 1047.18 645.93 946.85 755.90 1099.70 747.52
00015548 00000050 748.97 301.06 424.62 595.18 904.66 538.69 1100.64 529.39 1045.24 645.05 946.18 755.43 1099.77 746.30
00015549 00000051 748.36 301.93 425.00 593.31 902.93 538.35 1099.79 528.42 1043.00 644.11 944.02 754.67 1098.84 745.05
00015550 00000052 748.10 298.14 425.06 595.40 901.64 536.50 1099.89 526.85 1041.46 640.82 943.28 752.76 1099.08 743.05
00015551 00000053 747.38 297.69 425.86 594.64 901.18 536.00 1098.65 525.46 1040.84 638.44 943.22 751.28 1098.96 740.85
00015552 00000054 748.05 296.21 425.43 594.30 901.00 533.78 1098.29 522.29 1040.40 634.88 943.59 749.52 1098.78 738.26
00015553 00000055 748.27 295.39 425.41 594.09 900.76 532.57 1096.68 519.69 1039.14 632.28 945.06 748.85 1098.27 736.44
00015554 00000056 748.92 294.52 425.38 594.28 900.51 531.57 1096.51 516.41 1039.88 628.94 946.54 748.52 1100.17 734.08
00015555 00000057 748.79 296.01 425.78 592.64 899.46 531.36 1096.08 514.84 1040.03 628.36 946.81 748.51 1101.47 732.89
00015556 00000058 748.94 293.25 425.35 594.28 899.32 531.86 1094.81 513.57 1040.15 627.16 948.33 747.95 1102.37 730.82
00015557 00000059 748.83 292.82 425.56 594.36 898.64 530.93 1093.71 511.89 1039.94 625.61 948.23 747.44 1102.30 729.58
00015558 00000060 747.30 290.51 425.23 595.17 897.64 530.84 1091.63 510.85 1038.94 624.94 947.81 746.18 1101.06 727.54
00015559 00000061 747.03 288.96 425.71 596.38 897.02 530.95 1090.66 509.14 1039.05 624.16 948.07 745.84 1102.05 725.65
00015560 00000062 745.50 288.44 425.83 595.84 895.93 531.53 1088.23 508.33 1037.71 623.02 947.47 744.76 1101.16 723.71
00015561 00000063 745.43 288.64 425.22 595.30 894.96 531.44 1087.92 508.39 1037.10 622.93 946.72 744.93 1101.35 723.98
00015562 00000064 744.54 288.44 425.10 594.83 894.19 531.74 1086.11 508.79 1035.25 622.82 945.92 744.83 1099.29 724.14
00015563 00000065 743.35 289.20 424.96 593.78 892.85 531.72 1084.55 509.68 1033.61 622.90 944.75 744.83 1098.10 724.90
00015564 00000066 741.23 288.68 423.68 593.33 890.95 530.94 1080.97 509.95 1030.32 622.05 942.95 744.45 1093.76 725.57
00015565 00000067 739.32 287.52 424.05 594.37 889.31 529.61 1080.22 510.07 1028.71 622.31 940.09 744.21 1091.39 726.64
00015566 00000068 735.67 286.19 423.68 594.50 886.64 527.01 1077.45 510.55 1025.03 620.76 935.62 741.77 1086.36 726.71
00015567 00000069 731.90 279.92 425.84 595.75 885.05 530.51 1080.35 508.59 1024.04 625.35 933.26 740.07 1087.16 723.22
00015568 00000070 730.69 279.32 423.65 594.66 883.17 527.22 1074.60 508.62 1017.81 620.83 930.22 737.32 1079.39 723.43
00015569 00000071 729.95 277.30 424.78 596.22 881.19 525.80 1073.07 508.48 1014.41 618.83 926.62 734.61 1077.45 721.79
00015570 00000072 728.06 271.86 426.84 600.32 879.27 523.26 1071.77 507.52 1011.64 616.13 923.35 731.68 1075.65 720.17
00015571 00000073 727.09 271.41 427.87 599.52 877.43 521.71 1072.31 507.24 1010.15 613.95 920.38 729.41 1076.35 718.81
00015572 00000074 727.44 270.29 427.85 599.89 876.00 520.27 1071.73 506.14 1007.75 613.15 917.68 727.94 1075.19 717.63
00015573 00000075 727.98 270.33 427.12 599.52 875.42 518.83 1071.45 505.67 1007.19 613.13 916.47 727.20 1074.54 717.70
00015574 00000076 727.55 269.38 428.03 600.09 875.04 518.60 1071.88 505.52 1006.11 613.08 915.77 727.08 1074.31 717.65
00015575 00000077 727.84 268.48 427.23 602.58 874.86 518.75 1071.19 506.16 1005.63 613.60 914.76 727.48 1073.33 718.52
00015576 00000078 727.70 271.66 427.24 601.66 875.12 518.99 1070.09 506.75 1003.93 617.28 916.01 730.37 1070.40 721.92
00015577 00000079 727.37 272.62 426.40 603.08 875.18 520.06 1067.95 508.68 1001.93 618.10 915.79 732.08 1066.05 724.57
00015578 00000080 726.91 275.79 427.16 603.27 874.16 521.01 1068.69 509.42 1000.83 622.00 915.74 736.14 1065.78 728.34
00015579 00000081 727.00 278.37 427.92 604.03 873.98 522.94 1069.51 510.12 1001.37 623.87 917.41 739.32 1067.41 730.44
00015580 00000082 728.59 279.75 426.36 606.86 876.51 523.46 1070.07 510.65 1004.12 624.71 919.67 741.76 1067.73 732.98
00015581 00000083 732.34 283.52 424.43 607.85 876.35 517.56 1069.91 511.43 1006.65 621.80 917.37 741.99 1064.49 735.63
00015582 00000084 735.00 283.76 423.30 608.19 880.24 518.43 1071.83 511.38 1011.03 620.90 921.72 742.58 1068.15 735.43
00015583 00000085 737.27 282.75 422.27 609.21 882.02 520.65 1073.42 511.40 1013.84 620.39 923.92 743.16 1073.15 733.98
00015584 00000086 738.62 283.25 423.99 609.59 884.51 521.88 1075.03 511.38 1017.12 620.10 926.27 743.87 1076.42 733.74
00015585 00000087 739.89 283.53 422.41 608.45 886.68 522.31 1076.79 510.92 1020.11 621.10 928.86 745.24 1077.32 734.39
00015586 00000088 740.17 285.70 423.61 605.71 887.09 522.81 1080.68 510.86 1023.57 622.27 930.01 745.48 1082.90 734.11
00015587 00000089 740.28 287.02 423.93 603.22 887.87 524.59 1081.77 511.95 1024.80 622.26 931.30 745.62 1084.19 733.75
00015588 00000090 740.06 289.77 425.14 598.93 888.66 527.55 1083.46 513.92 1026.76 623.86 932.89 746.74 1087.06 734.14
00015589 00000091 739.95 291.20 424.77 597.17 889.82 528.46 1084.52 514.63 1028.47 624.88 934.35 747.82 1087.43 735.14
00015590 00000092 739.79 290.53 425.02 597.19 889.42 530.43 1083.83 515.01 1028.86 625.72 935.84 748.41 1088.87 734.36
00015591 00000093 739.50 290.95 424.21 596.77 888.72 529.59 1082.30 513.51 1028.28 624.55 935.99 748.52 1088.29 733.97
00015592 00000094 738.01 289.86 424.08 595.60 887.18 528.35 1081.15 511.06 1027.48 623.02 936.70 748.22 1088.25 732.65
00015593 00000095 735.80 282.37 425.18 596.59 887.57 531.90 1083.91 508.00 1029.29 626.67 937.42 745.39 1091.60 726.93
00015594 00000096 735.54 278.34 424.21 596.54 887.72 530.49 1082.51 506.33 1027.86 624.21 938.33 742.57 1090.39 723.96
00015595 00000097 735.26 278.39 424.01 594.17 887.79 529.75 1082.44 505.73 1027.83 623.06 938.32 740.41 1090.53 721.91
00015596 00000098 735.66 275.28 423.41 595.92 888.08 529.50 1082.59 504.88 1028.15 622.22 939.65 739.37 1092.36 720.17
00015597 00000099 736.53 275.46 422.41 595.97 888.52 530.31 1082.87 504.88 1028.40 622.65 940.81 739.67 1093.27 719.69
00015598 00000100 743.65 281.09 419.21 595.74 892.46 527.31 1079.88 503.01 1032.67 616.88 949.64 743.54 1095.57 721.67
00015599 00000101 746.66 282.31 420.52 596.55 895.15 529.23 1082.58 502.27 1036.76 618.39 956.18 747.26 1101.00 723.01
00015600 00000102 751.67 281.94 421.75 598.59 901.75 530.88 1091.16 499.86 1046.66 620.24 966.00 750.26 1112.14 721.82
00015601 DELETE   758.77 284.69 415.87 595.87 909.47 533.15 1095.26 499.10 1055.96 620.22 976.54 751.28 1119.52 720.45
00015602 00000104 766.89 286.16 413.16 594.04 919.17 537.57 1105.11 499.75 1071.74 616.96 992.01 753.84 1135.93 719.34
00015603 00000105 774.22 289.01 407.90 587.90 929.81 544.48 1109.93 501.55 1084.94 616.90 1005.69 755.55 1146.35 717.39
00015604 00000106 780.50 292.15 408.31 583.69 943.56 551.33 1121.61 505.86 1100.90 621.80 1016.41 758.63 1158.44 719.02
00015605 00000107 784.07 298.19 406.71 580.28 949.93 556.78 1122.93 507.20 1108.01 627.20 1022.23 762.10 1162.28 719.24
00015606 00000108 786.30 301.98 406.74 580.39 956.11 560.28 1122.94 510.45 1115.34 631.19 1028.41 765.42 1162.62 722.53
00015607 00000109 787.37 305.04 406.82 580.48 959.10 562.62 1122.64 511.25 1118.58 633.16 1030.01 767.29 1163.03 723.27
00015608 00000110 787.23 308.16 407.71 579.60 960.91 562.37 1123.92 512.82 1121.50 635.75 1031.61 768.34 1163.37 725.78
00015609 00000111 787.09 308.47 407.73 580.78 960.83 563.47 1125.62 513.73 1122.14 637.53 1030.03 769.66 1163.59 726.81
00015610 00000112 785.81 309.45 407.74 581.40 961.13 564.38 1126.66 517.00 1120.34 640.40 1028.79 770.76 1161.61 729.76
00015611 00000113 785.20 308.20 406.81 584.07 960.05 566.05 1127.52 518.01 1118.54 643.67 1025.78 773.27 1158.99 731.85
00015612 00000114 783.59 310.40 405.58 585.53 957.93 566.87 1128.78 520.55 1115.96 648.56 1020.36 776.78 1154.55 736.94
00015613 00000115 782.25 310.13 405.50 588.14 956.76 567.98 1128.64 521.69 1115.13 651.55 1016.85 778.48 1151.92 738.93
00015614 00000116 779.10 312.43 406.66 589.67 953.29 568.27 1128.54 525.81 1110.65 656.83 1011.88 781.82 1147.60 745.39
00015615 00000117 776.77 311.25 407.29 593.44 951.14 568.93 1128.70 526.90 1109.09 659.19 1007.98 783.49 1145.71 747.58
00015616 00000118 774.90 313.12 408.16 594.13 946.88 569.31 1128.34 530.07 1103.40 661.49 1001.32 784.55 1142.14 750.90
00015617 00000119 773.98 312.72 408.94 595.76 944.65 567.67 1127.78 531.30 1099.47 663.35 998.41 784.32 1140.41 753.05
00015618 00000120 773.70 313.31 408.94 595.50 940.95 567.40 1125.16 535.12 1090.50 664.57 994.59 783.96 1136.39 756.00
00015619 00000121 771.53 313.19 410.60 599.30 938.64 566.01 1124.40 535.20 1089.37 665.96 991.62 785.35 1134.72 758.63
00015620 00000122 771.85 313.79 410.51 599.96 936.82 568.07 1122.96 540.02 1083.65 668.84 988.89 787.16 1132.13 762.57
00015621 00000123 771.23 314.05 411.14 600.49 936.58 569.11 1121.28 541.75 1082.32 670.31 988.38 788.32 1130.68 764.26
00015622 00000124 774.29 323.37 408.72 587.69 936.73 570.91 1121.67 540.09 1086.30 668.79 984.43 790.27 1125.92 762.93
00015623 00000125 775.39 324.49 408.53 586.78 937.20 572.75 1122.29 542.17 1086.39 671.45 985.71 791.86 1127.44 764.51
00015624 00000126 775.55 325.88 409.12 587.41 935.77 575.25 1123.36 542.75 1087.21 674.57 986.06 794.76 1130.06 765.69
00015625 00000127 775.78 326.91 408.93 587.17 934.90 576.64 1123.00 543.74 1085.92 676.18 986.64 796.51 1131.50 766.89
00015626 00000128 774.42 331.60 410.21 583.39 932.78 578.20 1121.22 547.04 1082.52 680.99 985.05 798.24 1129.60 770.12
00015627 00000129 774.51 336.04 410.70 580.58 932.48 579.30 1120.40 548.64 1080.40 683.92 983.94 799.46 1127.51 771.84
00015628 00000130 772.43 339.08 413.56 581.54 931.01 580.70 1120.16 552.31 1077.88 688.27 981.92 801.64 1126.68 775.68
00015629 00000131 771.93 338.78 413.47 582.75 930.71 581.03 1119.42 554.05 1076.47 690.26 981.39 802.89 1124.46 778.07
00015630 00000132 772.24 339.97 412.66 581.32 930.27 580.01 1119.36 555.21 1074.83 691.55 980.19 803.29 1121.41 780.33
00015631 00000133 771.41 340.23 413.29 580.83 930.34 579.64 1119.03 555.33 1075.01 691.66 980.61 804.34 1119.98 781.63
00015632 00000134 771.39 339.98 413.92 580.70 930.66 578.22 1120.19 555.18 1075.95 691.34 978.97 803.27 1120.04 781.85
00015633 00000135 771.99 339.99 413.81 580.47 930.13 577.96 1120.09 554.95 1075.67 691.24 979.42 803.64 1120.02 782.19
00015634 00000136 772.42 340.08 414.30 581.31 930.20 578.02 1120.67 555.38 1075.64 690.98 979.61 803.67 1120.69 782.50
00015635 00000137 772.86 339.97 414.08 581.03 930.93 578.88 1120.98 556.16 1076.14 691.66 980.65 804.49 1120.94 783.19
00015636 00000138 773.52 342.20 414.12 581.08 931.29 580.02 1121.97 559.29 1075.28 693.65 978.87 806.31 1119.42 786.71
00015637 00000139 773.73 343.84 413.74 581.88 931.22 580.33 1122.06 561.63 1074.04 694.09 978.49 807.08 1118.29 789.09
00015638 00000140 773.96 343.27 413.13 583.74 930.96 580.98 1121.80 563.53 1071.81 696.57 978.19 810.10 1115.05 792.96
00015639 00000141 773.82 343.78 413.00 584.76 931.53 580.83 1121.77 564.50 1071.94 697.37 978.14 811.13 1113.48 794.91
00015640 00000142 774.24 345.82 413.15 583.76 932.60 579.74 1121.88 564.89 1071.95 697.41 979.49 811.57 1111.77 796.55
00015641 00000143 774.55 344.32 413.32 585.54 933.03 578.67 1121.98 564.03 1071.68 696.71 979.49 811.41 1111.00 796.61
00015642 00000144 775.60 339.75 412.27 588.58 935.47 576.03 1121.57 561.15 1073.47 693.11 982.67 808.56 1110.69 793.57
00015643 00000145 775.01 336.67 414.19 590.39 935.30 573.07 1121.70 556.53 1074.96 688.56 984.08 806.29 1112.76 789.93
00015644 00000146 774.82 335.37 415.02 591.01 935.43 569.83 1122.14 552.02 1076.94 682.50 983.17 802.18 1114.94 784.92
00015645 00000147 774.70 330.64 415.60 595.27 934.02 568.39 1121.28 549.56 1076.50 677.41 982.54 799.85 1116.23 781.71
00015646 00000148 775.09 325.59 415.97 598.25 933.90 565.98 1121.39 545.43 1076.93 671.76 982.85 796.20 1117.07 776.70
00015647 00000149 773.50 314.69 419.07 611.18 935.98 565.55 1123.37 548.44 1071.96 674.01 984.37 794.93 1122.99 779.17
00015648 00000150 775.09 311.10 417.78 610.14 936.20 562.74 1122.58 546.14 1071.02 670.41 984.41 790.56 1122.52 775.14
00015649 00000151 775.06 310.74 417.77 608.57 935.85 561.08 1122.54 545.10 1070.60 668.73 983.81 788.54 1122.16 773.60
00015650 00000152 773.45 309.44 419.51 607.66 935.07 559.71 1122.13 543.57 1069.92 666.66 981.99 784.71 1122.51 769.53
00015651 00000153 774.19 311.10 418.52 605.11 935.21 559.37 1122.16 544.19 1069.56 666.90 981.78 784.73 1122.03 770.39
00015652 00000154 771.30 311.73 420.94 606.35 933.01 560.35 1120.63 545.15 1067.83 667.79 977.30 783.34 1120.83 768.99
00015653 00000155 771.51 312.92 420.40 606.21 932.81 561.89 1120.46 545.90 1067.93 668.61 976.97 784.81 1120.47 770.00
00015654 00000156 770.26 315.69 419.79 604.52 932.75 563.06 1119.70 547.72 1067.40 672.23 976.02 786.87 1117.78 772.69
00015655 00000157 769.95 316.72 420.34 604.21 932.70 563.71 1120.16 548.66 1067.30 672.88 974.61 787.03 1117.71 773.20
00015656 00000158 769.62 319.07 420.03 601.42 931.96 564.31 1120.05 550.30 1066.59 673.44 972.71 786.74 1116.32 773.90
00015657 00000159 769.48 319.38 420.25 601.39 931.53 564.96 1120.38 549.56 1067.47 673.92 972.39 786.97 1117.94 773.03
00015658 00000160 769.15 318.35 420.39 600.76 930.65 564.62 1120.53 549.13 1067.03 673.94 971.46 785.86 1118.32 771.81
00015659 00000161 769.22 317.96 420.36 599.47 930.80 563.89 1120.88 548.41 1067.25 672.89 971.57 784.67 1118.72 770.62
00015660 00000162 770.08 317.51 419.58 596.78 930.19 562.59 1120.67 547.66 1066.38 671.04 972.02 782.57 1119.15 768.95
00015661 00000163 770.33 316.40 419.26 596.29 929.51 561.42 1121.05 546.68 1065.89 669.54 971.28 781.07 1119.65 767.63
00015662 00000164 770.52 314.01 419.04 595.78 929.43 559.49 1120.11 544.46 1065.60 666.49 972.19 778.07 1120.03 764.20
00015663 00000165 772.10 313.60 417.84 593.20 929.86 558.73 1120.87 543.57 1065.52 665.21 973.52 776.95 1120.20 763.00
