Video ID: 	DaaM6TKW5k4
H: 	1440
W: 	2560
FPS: 	25.0

FRAME INDEX X0 Y0 W H [Landmarks (5 Points)]

00003450 00000000 1029.36 183.83 651.49 1027.83 1474.58 617.29 1611.92 606.32 1701.26 791.69 1523.00 987.53 1603.33 982.42
00003451 00000001 1049.54 176.63 661.06 1038.89 1493.03 623.26 1644.37 614.00 1726.59 790.01 1544.24 993.69 1637.99 989.30
00003452 00000002 1077.16 166.86 654.77 1053.37 1519.68 608.13 1648.98 590.16 1749.46 766.45 1585.09 971.82 1677.29 958.81
00003453 00000003 1100.37 131.94 655.63 1063.03 1529.11 574.99 1646.72 555.52 1754.13 712.58 1609.35 936.53 1685.13 925.83
00003454 00000004 1097.21 119.99 661.78 1051.28 1522.54 541.35 1636.84 522.66 1759.42 681.37 1610.16 910.38 1691.47 899.78
00003455 00000005 1089.36 117.76 661.37 1042.02 1515.39 534.53 1625.39 510.44 1750.28 672.16 1601.01 898.23 1682.76 883.23
00003456 00000006 1083.90 121.05 660.36 1041.38 1514.61 546.75 1616.67 517.24 1744.54 687.61 1590.42 904.12 1669.71 884.68
00003457 00000007 1076.64 131.04 653.33 1046.96 1505.87 575.71 1621.90 544.11 1730.88 719.37 1577.96 932.17 1660.90 910.77
00003458 00000008 1056.63 134.59 655.51 1049.54 1495.51 594.34 1631.14 567.24 1728.22 748.90 1557.94 953.04 1653.15 933.13
00003459 00000009 1047.07 142.34 663.39 1062.13 1469.55 602.69 1662.06 584.62 1717.70 776.85 1518.56 975.04 1652.42 962.60
00003460 00000010 1039.22 141.64 665.41 1068.23 1453.08 607.23 1661.94 593.15 1704.01 783.23 1497.35 982.78 1641.64 974.64
00003461 00000011 1029.55 145.56 658.50 1069.73 1434.74 608.38 1656.17 594.55 1685.44 792.39 1475.55 987.73 1630.23 979.16
00003462 00000012 1014.91 142.04 666.69 1068.54 1420.52 609.72 1647.43 592.32 1672.74 795.39 1457.44 985.05 1619.66 972.86
00003463 00000013 1013.73 146.11 666.76 1065.89 1421.65 606.00 1645.89 592.05 1674.24 795.94 1451.28 985.28 1612.33 976.71
00003464 00000014 1013.83 153.49 664.74 1051.36 1435.37 608.60 1647.07 596.68 1681.86 798.76 1460.82 982.62 1608.18 975.76
00003465 00000015 1023.19 158.36 657.43 1048.88 1446.56 610.78 1645.43 605.81 1685.62 800.13 1468.04 981.65 1607.35 980.39
00003466 00000016 1030.97 154.78 651.07 1055.06 1464.97 621.32 1647.07 614.09 1700.19 807.04 1483.84 987.21 1606.93 985.04
00003467 00000017 1038.33 162.82 647.92 1050.53 1477.55 628.13 1646.67 618.89 1709.85 809.33 1495.67 993.56 1605.56 990.46
00003468 00000018 1031.99 164.08 651.22 1055.39 1470.64 632.52 1642.95 620.53 1705.51 812.60 1492.61 998.88 1604.92 992.84
00003469 DELETE   1025.96 162.16 647.40 1063.07 1451.16 634.61 1630.04 620.35 1686.05 812.19 1482.85 1000.54 1606.65 992.75
00003470 DELETE   1010.72 158.66 647.44 1057.82 1410.32 638.75 1601.30 602.55 1656.14 796.47 1474.24 1000.16 1609.54 972.42
00003471 DELETE   1018.05 169.09 644.30 1020.21 1367.63 635.00 1595.90 587.31 1616.10 777.33 1460.87 990.16 1620.89 952.28
00003472 00000022 983.79 150.12 659.31 1044.05 1346.47 624.88 1579.28 577.29 1602.77 769.16 1443.03 989.02 1610.11 950.39
00003473 00000023 974.04 148.63 660.33 1040.13 1318.31 630.77 1568.06 580.38 1576.56 766.62 1427.96 993.64 1603.64 951.68
00003474 00000024 947.77 147.22 666.18 1050.36 1292.49 639.19 1548.55 586.47 1554.74 773.10 1397.75 996.78 1576.67 952.05
00003475 00000025 937.27 156.32 671.67 1036.21 1272.80 633.53 1528.16 593.24 1520.10 786.01 1366.95 1000.91 1544.29 968.77
00003476 00000026 942.59 159.71 661.73 1020.07 1262.17 631.91 1530.68 589.80 1520.17 770.35 1371.54 989.14 1556.43 952.21
00003477 00000027 953.49 148.35 656.36 1042.31 1275.31 619.24 1534.26 579.49 1527.27 751.91 1375.22 976.54 1563.79 941.72
00003478 00000028 965.91 142.08 655.29 1049.68 1291.26 619.97 1550.38 579.92 1543.20 754.47 1378.39 974.25 1573.07 940.32
00003479 00000029 971.88 155.49 660.46 1049.73 1320.53 625.67 1569.84 586.10 1579.33 776.13 1400.57 988.27 1587.37 955.69
00003480 00000030 995.47 165.80 652.61 1039.78 1357.07 635.29 1593.73 596.63 1618.67 794.98 1449.21 1007.57 1614.39 976.65
00003481 00000031 1038.58 153.03 639.12 1068.69 1397.47 653.35 1625.31 611.83 1640.26 816.69 1455.35 1016.53 1617.34 985.13
00003482 00000032 1026.14 165.41 650.66 1069.84 1413.57 662.11 1633.66 632.64 1652.05 845.45 1443.81 1028.72 1589.72 1007.17
00003483 00000033 1012.04 200.05 659.98 1043.94 1407.33 678.06 1637.07 661.24 1643.15 873.04 1423.93 1045.70 1579.42 1035.40
00003484 00000034 999.88 230.78 665.22 1017.36 1381.18 711.70 1623.87 685.80 1610.54 903.80 1403.77 1072.26 1566.47 1054.30
00003485 00000035 1003.64 249.86 659.72 997.39 1368.60 721.52 1623.36 697.13 1598.86 925.11 1392.83 1088.26 1560.63 1071.53
00003486 00000036 998.53 246.05 657.98 1001.29 1366.30 718.62 1617.92 691.38 1597.33 920.06 1395.38 1086.37 1560.23 1067.07
00003487 00000037 986.07 231.32 661.81 1005.21 1364.23 706.38 1609.16 675.17 1599.90 904.56 1390.55 1070.84 1552.01 1048.51
00003488 00000038 979.16 207.32 658.61 1030.41 1369.31 687.32 1606.47 670.14 1604.43 890.63 1375.14 1050.19 1539.19 1039.43
00003489 00000039 972.68 194.15 663.67 1043.92 1369.92 680.12 1598.93 652.21 1616.52 873.42 1378.92 1036.40 1546.49 1018.39
00003490 00000040 978.36 188.25 658.21 1031.18 1377.32 678.21 1600.08 638.54 1629.88 860.15 1402.96 1032.59 1559.93 1004.66
00003491 00000041 990.01 198.54 655.78 1027.73 1375.53 690.64 1603.62 642.47 1628.99 869.31 1423.32 1051.53 1577.91 1015.68
00003492 DELETE   987.81 229.60 654.69 1002.71 1371.98 707.78 1601.28 662.16 1614.41 889.34 1420.75 1070.75 1569.54 1036.63
00003493 DELETE   1014.68 276.51 622.86 958.09 1341.88 741.60 1596.74 696.33 1567.04 924.38 1382.85 1093.58 1544.76 1060.00
00003494 00000044 980.01 296.68 646.98 946.36 1313.92 767.93 1590.00 712.26 1557.88 956.94 1354.72 1118.05 1530.08 1076.55
00003495 00000045 959.84 303.40 664.46 940.55 1297.45 768.33 1579.81 721.31 1545.96 956.05 1340.00 1117.99 1524.27 1082.10
00003496 00000046 963.90 273.04 660.88 972.13 1295.75 731.92 1579.17 703.62 1538.74 918.00 1344.01 1097.37 1531.80 1075.34
00003497 00000047 969.11 227.88 659.68 1006.67 1301.43 696.43 1578.74 678.22 1536.93 870.87 1363.02 1065.52 1551.20 1050.32
00003498 00000048 963.48 204.31 675.36 1027.69 1305.09 668.15 1582.62 645.43 1557.31 846.33 1363.58 1046.54 1555.03 1027.94
00003499 00000049 966.35 195.42 672.75 1030.37 1309.70 664.94 1586.78 643.90 1563.12 840.65 1372.27 1040.40 1564.74 1022.75
00003500 00000050 980.32 208.43 672.68 1028.74 1329.54 680.50 1602.81 651.78 1588.77 863.25 1393.92 1059.43 1578.20 1035.91
00003501 00000051 996.92 232.34 665.82 1009.37 1350.78 704.25 1615.50 676.68 1592.79 890.88 1403.81 1076.65 1581.56 1055.12
00003502 00000052 1024.59 244.97 645.88 1003.86 1353.44 718.99 1624.06 692.65 1581.51 912.45 1389.47 1087.49 1571.77 1067.60
00003503 00000053 1005.60 244.83 657.99 1013.22 1348.64 715.38 1617.27 694.57 1581.88 908.66 1380.22 1086.27 1564.31 1070.84
00003504 00000054 986.77 241.52 671.28 1011.18 1345.86 699.57 1610.46 689.97 1578.08 895.54 1363.50 1065.61 1552.39 1059.26
00003505 00000055 982.34 230.04 671.30 1007.57 1340.96 693.87 1607.51 682.69 1578.36 887.78 1358.97 1052.27 1553.68 1044.23
00003506 00000056 977.32 230.20 672.36 1004.78 1343.65 698.52 1607.27 680.31 1583.21 889.22 1363.14 1053.70 1553.73 1040.23
00003507 00000057 980.47 232.68 669.51 1008.30 1354.65 709.81 1609.62 675.71 1598.67 905.66 1381.74 1071.76 1555.79 1047.16
00003508 00000058 981.81 248.20 675.81 995.52 1356.67 726.29 1612.91 688.98 1599.61 920.60 1388.21 1086.64 1558.30 1059.59
00003509 00000059 978.28 260.75 674.78 994.68 1347.62 746.65 1609.88 702.84 1590.87 942.76 1370.14 1102.96 1540.89 1071.47
00003510 00000060 966.21 264.20 678.78 994.14 1341.35 740.52 1604.68 707.92 1581.36 941.90 1352.98 1099.48 1526.44 1076.85
00003511 00000061 959.04 252.39 677.57 1018.76 1339.32 727.98 1602.62 707.66 1577.24 931.89 1340.69 1088.49 1523.25 1075.10
00003512 00000062 959.96 245.75 670.29 1023.05 1342.55 715.99 1594.63 701.85 1575.51 919.20 1339.03 1073.71 1518.04 1065.45
00003513 00000063 979.17 254.80 654.87 1005.10 1360.86 710.44 1598.32 718.79 1575.71 924.21 1344.68 1058.92 1514.68 1068.45
00003514 00000064 981.37 227.67 661.41 1030.15 1375.45 698.26 1609.28 707.82 1592.00 903.98 1352.03 1045.17 1524.24 1055.26
00003515 00000065 994.30 224.36 646.35 1038.14 1391.24 693.03 1615.58 714.72 1602.45 895.75 1363.13 1041.13 1529.69 1061.30
00003516 00000066 1000.35 226.86 647.45 1022.35 1400.27 700.69 1625.56 715.23 1615.72 901.01 1394.51 1050.21 1552.03 1063.90
00003517 00000067 995.12 230.00 656.16 1014.54 1405.20 703.94 1625.43 711.16 1623.59 909.39 1408.96 1057.52 1558.39 1064.67
00003518 00000068 996.88 233.43 659.19 1016.76 1418.16 704.07 1622.73 709.09 1636.26 907.06 1422.19 1057.55 1559.36 1063.32
00003519 00000069 998.74 226.05 657.51 1018.41 1427.10 709.88 1612.69 705.24 1641.77 900.20 1427.41 1052.19 1551.00 1051.17
00003520 00000070 1002.85 219.73 647.56 1018.36 1431.02 705.28 1613.20 701.79 1646.07 894.48 1424.22 1045.43 1547.81 1045.81
00003521 00000071 1005.38 206.78 644.97 1025.29 1433.91 694.84 1610.12 695.42 1648.09 884.37 1423.19 1036.46 1543.56 1040.32
00003522 00000072 1001.42 197.20 649.50 1031.34 1435.35 692.47 1608.85 690.36 1650.91 881.36 1424.38 1033.19 1541.79 1035.25
00003523 00000073 1000.42 189.98 651.39 1041.31 1438.81 690.96 1609.16 691.72 1653.15 878.42 1425.01 1030.44 1540.88 1034.81
00003524 00000074 999.49 184.92 650.99 1044.84 1439.18 689.56 1614.26 691.98 1654.33 878.95 1424.47 1027.86 1544.68 1033.64
00003525 00000075 1005.13 183.70 646.80 1041.73 1440.99 687.22 1616.96 688.48 1654.56 876.35 1427.58 1024.39 1547.70 1029.20
00003526 00000076 1009.34 176.62 647.40 1048.31 1446.11 680.72 1622.21 682.25 1659.28 871.42 1432.37 1020.65 1550.87 1025.54
00003527 00000077 1017.36 175.92 650.02 1042.60 1454.87 673.91 1631.32 670.95 1669.55 868.45 1444.03 1018.41 1561.40 1019.66
00003528 00000078 1027.88 167.51 653.83 1052.08 1467.08 663.78 1644.81 663.88 1680.76 860.23 1456.12 1014.15 1574.91 1017.97
00003529 DELETE   1038.99 163.61 658.39 1048.68 1485.58 654.04 1663.04 647.94 1705.91 846.19 1482.23 1007.48 1598.72 1006.90
00003530 00000080 1061.11 174.89 655.51 1031.03 1519.48 668.07 1645.13 654.99 1729.79 841.54 1529.20 1001.52 1612.50 993.92
00003531 00000081 1094.59 204.02 632.49 993.88 1543.22 683.52 1641.32 670.98 1731.79 845.75 1547.95 990.47 1612.45 984.15
00003532 00000082 1087.18 218.34 632.82 988.00 1540.15 689.43 1635.76 673.93 1726.62 854.27 1541.68 1011.32 1592.91 1003.23
00003533 00000083 1099.45 227.81 629.45 1001.07 1550.22 694.89 1633.31 677.12 1725.28 870.29 1526.03 1021.16 1572.29 1012.33
00003534 00000084 1106.08 231.00 630.43 1010.08 1553.76 703.30 1646.46 684.63 1726.94 887.91 1519.96 1036.42 1572.79 1027.46
00003535 00000085 1097.28 234.88 640.41 1007.40 1550.44 707.91 1647.08 683.14 1727.08 892.57 1516.48 1039.06 1569.89 1025.41
00003536 00000086 1098.94 235.16 634.12 1009.72 1549.69 699.10 1647.67 686.19 1726.05 883.89 1526.52 1032.12 1580.09 1027.27
00003537 00000087 1096.86 214.63 633.93 1011.19 1545.38 689.46 1652.10 670.43 1727.58 870.82 1543.87 1030.70 1597.18 1019.86
00003538 00000088 1099.61 206.22 635.72 1021.37 1549.30 674.99 1659.53 656.64 1738.75 852.38 1561.33 1023.30 1616.54 1012.27
00003539 00000089 1100.34 191.99 637.78 1028.66 1549.08 672.60 1656.40 652.42 1739.54 842.66 1568.03 1019.02 1619.27 1006.33
00003540 00000090 1100.33 197.93 631.89 1025.99 1544.71 675.70 1646.20 657.84 1731.90 843.89 1563.61 1020.22 1612.96 1009.26
00003541 00000091 1080.21 193.21 634.99 1015.95 1528.35 679.70 1637.84 659.28 1725.55 844.04 1550.26 1014.69 1606.97 1002.37
00003542 00000092 1054.32 194.45 648.81 1011.20 1495.24 676.54 1636.67 660.30 1710.01 853.56 1505.86 1013.41 1595.74 1002.86
00003543 00000093 1043.87 183.94 651.48 1034.07 1484.31 658.92 1652.93 654.15 1699.96 851.10 1468.84 1007.22 1578.49 1008.52
00003544 00000094 1037.46 170.05 644.07 1041.80 1471.81 652.01 1639.09 648.00 1687.75 841.06 1463.93 1000.68 1573.77 1002.00
00003545 00000095 1034.88 158.23 649.89 1056.15 1475.37 642.07 1643.98 636.47 1695.63 832.60 1472.59 995.81 1584.85 995.44
00003546 00000096 1034.20 152.47 654.17 1059.86 1474.16 630.41 1654.01 630.85 1698.01 824.57 1472.43 990.10 1594.14 994.54
00003547 00000097 1036.34 156.11 656.15 1058.35 1479.06 632.48 1659.47 637.61 1701.82 831.37 1470.49 994.44 1591.73 1002.71
00003548 00000098 1040.95 175.72 651.32 1038.88 1479.61 643.83 1650.60 646.70 1694.74 846.13 1461.85 1003.13 1573.34 1010.47
00003549 00000099 1041.25 183.19 651.05 1040.68 1481.89 668.16 1644.35 668.10 1686.50 874.51 1448.70 1017.82 1554.38 1023.41
00003550 00000100 1044.76 200.80 650.61 1030.29 1482.52 678.45 1632.38 693.50 1675.35 890.32 1441.95 1026.66 1539.39 1042.88
00003551 00000101 1048.66 208.01 654.12 1039.40 1494.16 687.80 1633.77 703.36 1677.45 899.03 1443.92 1034.33 1533.76 1050.88
00003552 00000102 1062.15 204.34 651.46 1043.71 1511.28 693.34 1639.56 708.13 1686.69 904.68 1452.89 1034.48 1532.08 1050.99
00003553 00000103 1072.40 196.20 642.58 1057.60 1524.79 693.78 1635.68 710.68 1688.23 900.11 1461.57 1027.36 1531.76 1045.36
00003554 00000104 1073.83 186.54 641.68 1069.04 1535.32 689.68 1637.15 704.02 1699.28 898.25 1472.11 1024.23 1537.33 1040.61
00003555 00000105 1085.42 191.80 632.56 1055.30 1544.85 687.14 1635.75 698.99 1704.56 895.89 1480.76 1020.02 1538.80 1035.14
00003556 00000106 1102.97 207.40 617.91 1030.54 1550.72 686.08 1632.31 697.60 1700.12 893.40 1483.08 1014.03 1533.85 1029.38
00003557 00000107 1104.05 193.74 616.82 1045.22 1556.61 678.94 1630.40 693.27 1703.46 888.48 1488.09 1009.57 1533.15 1027.13
00003558 00000108 1110.62 199.68 610.63 1042.94 1563.20 675.06 1628.75 694.07 1704.55 882.45 1491.08 1004.49 1533.23 1025.74
00003559 00000109 1113.07 201.84 607.69 1033.66 1565.02 671.84 1626.62 687.62 1707.45 875.52 1497.91 999.67 1538.16 1018.39
00003560 00000110 1111.45 195.00 604.81 1028.95 1560.80 667.73 1623.12 683.06 1703.86 865.87 1502.26 992.52 1541.68 1010.50
00003561 00000111 1110.55 188.98 602.54 1034.35 1559.58 663.84 1618.10 680.69 1702.81 859.58 1502.19 988.21 1540.54 1007.31
00003562 00000112 1111.00 192.65 601.32 1030.63 1562.09 663.69 1616.54 679.87 1704.38 857.43 1504.10 986.86 1540.63 1005.41
00003563 00000113 1109.82 190.06 604.13 1032.32 1563.86 662.69 1616.39 678.53 1705.45 857.16 1506.61 986.47 1541.28 1004.64
00003564 00000114 1114.87 190.28 602.56 1032.42 1564.58 662.56 1620.46 677.15 1708.07 860.41 1504.66 987.52 1541.93 1004.92
00003565 00000115 1117.32 195.30 602.76 1028.87 1567.36 663.01 1621.91 676.42 1710.79 863.49 1505.34 987.07 1543.17 1003.81
00003566 00000116 1117.34 193.18 606.44 1034.67 1570.51 662.50 1629.43 675.46 1717.70 865.65 1505.97 989.70 1545.48 1006.08
00003567 00000117 1119.62 196.06 608.07 1025.47 1570.95 664.97 1637.19 676.91 1718.87 862.20 1513.95 988.60 1554.86 1003.56
00003568 00000118 1124.24 202.79 608.14 1021.91 1576.30 664.13 1638.81 677.32 1722.46 863.26 1516.00 988.38 1558.45 1004.28
00003569 00000119 1130.72 199.03 607.02 1026.12 1580.62 664.09 1648.27 678.01 1727.33 862.43 1520.63 986.98 1566.37 1003.33
00003570 00000120 1138.25 207.63 604.60 1014.74 1583.21 661.52 1654.90 673.85 1730.26 857.65 1528.40 986.46 1574.74 1001.19
00003571 00000121 1138.36 198.63 609.20 1014.38 1585.81 660.89 1656.91 666.91 1736.21 849.93 1548.60 987.51 1589.08 995.62
00003572 00000122 1146.88 207.28 603.09 993.80 1584.32 664.40 1661.09 670.01 1736.31 842.71 1567.19 988.14 1609.38 995.29
00003573 00000123 1149.98 206.19 602.40 999.62 1585.93 665.68 1664.07 670.62 1742.11 841.96 1577.52 993.04 1620.10 999.79
00003574 00000124 1154.43 206.12 597.61 999.57 1588.22 662.64 1670.17 668.32 1745.64 841.90 1575.02 993.15 1620.76 1000.54
00003575 00000125 1159.37 207.81 593.15 999.27 1590.98 658.82 1672.05 666.84 1747.82 839.20 1573.88 989.45 1620.11 998.86
00003576 00000126 1159.42 205.00 595.13 1007.55 1592.08 656.45 1674.01 666.35 1751.22 839.29 1573.38 990.37 1621.68 1001.34
00003577 00000127 1158.37 199.58 595.46 1010.70 1593.65 655.51 1672.30 664.14 1754.16 840.10 1572.22 988.83 1620.26 999.06
00003578 00000128 1160.75 195.27 596.35 1019.05 1598.11 653.04 1668.14 658.25 1758.30 839.18 1572.51 987.61 1613.75 995.14
00003579 00000129 1158.98 195.46 601.82 1014.03 1597.63 647.44 1670.96 652.76 1764.45 836.04 1566.73 982.70 1612.14 990.83
00003580 00000130 1150.34 195.60 611.60 1017.12 1590.16 645.31 1673.49 652.38 1766.00 831.10 1567.37 985.41 1619.67 994.56
00003581 00000131 1142.47 194.62 618.43 1019.76 1584.09 643.20 1676.63 652.68 1763.29 830.76 1564.21 986.02 1623.14 997.55
00003582 00000132 1120.33 189.83 636.82 1030.16 1571.38 643.72 1681.75 658.77 1760.41 838.74 1550.67 990.10 1622.94 1006.38
00003583 00000133 1105.37 176.49 647.53 1042.87 1553.97 643.80 1683.24 653.12 1744.69 841.22 1538.02 995.64 1617.21 1006.58
00003584 00000134 1102.84 171.03 644.13 1043.02 1536.46 644.42 1683.63 657.59 1733.54 837.29 1525.94 989.20 1626.15 1002.44
00003585 00000135 1088.25 166.16 643.84 1049.32 1508.38 645.47 1687.57 654.56 1729.57 834.50 1519.95 1001.08 1645.38 1009.06
00003586 00000136 1085.23 164.70 637.19 1047.40 1494.29 646.86 1686.82 659.65 1714.67 836.48 1509.40 999.22 1642.34 1009.42
00003587 00000137 1058.79 153.67 653.96 1065.46 1466.49 633.49 1687.07 653.11 1686.45 841.52 1468.82 1005.66 1622.04 1025.63
00003588 00000138 1049.99 159.67 654.44 1055.06 1445.21 634.93 1671.55 656.55 1663.99 841.62 1452.54 1007.13 1607.79 1028.02
00003589 00000139 1048.73 169.00 644.25 1053.25 1437.97 638.56 1665.28 666.12 1653.71 842.53 1440.30 1006.31 1599.82 1031.93
00003590 00000140 1044.28 163.81 647.76 1058.34 1434.28 639.59 1659.67 666.59 1649.71 844.54 1433.62 1006.82 1592.66 1031.94
00003591 00000141 1041.52 162.23 652.62 1064.25 1433.96 642.13 1658.23 668.86 1651.35 847.72 1432.45 1010.27 1591.35 1035.18
00003592 00000142 1051.34 166.25 653.01 1068.73 1442.84 644.80 1669.42 665.02 1665.11 853.16 1439.88 1018.18 1601.89 1039.06
00003593 00000143 1059.59 183.35 652.61 1056.50 1462.57 651.46 1681.70 679.46 1687.88 855.38 1465.61 1015.10 1627.85 1038.88
00003594 00000144 1071.65 165.57 657.10 1063.12 1485.06 651.66 1699.16 664.03 1723.88 851.31 1495.56 1016.83 1652.67 1028.46
00003595 00000145 1089.70 170.58 662.50 1054.29 1503.13 650.19 1707.82 654.60 1737.31 843.71 1523.80 1015.57 1670.60 1020.71
00003596 DELETE   1112.41 163.84 652.35 1057.66 1523.51 647.32 1720.25 643.18 1751.61 840.90 1537.02 1011.29 1676.01 1011.33
00003597 00000147 1121.54 157.67 654.62 1060.19 1541.54 636.19 1734.03 636.55 1765.87 830.84 1551.55 1000.53 1687.56 1004.65
00003598 00000148 1121.51 152.81 661.37 1053.87 1562.78 624.97 1746.72 630.40 1789.68 823.34 1564.94 989.72 1685.94 997.67
00003599 00000149 1122.26 147.19 657.18 1057.56 1573.28 619.77 1741.63 627.64 1796.90 811.73 1573.33 978.47 1685.90 988.52
00003600 00000150 1132.34 154.56 645.36 1040.09 1578.07 634.20 1721.57 636.72 1780.68 814.90 1568.60 968.59 1665.70 976.28
00003601 00000151 1121.07 146.73 652.69 1045.00 1582.01 632.04 1705.88 626.18 1782.40 808.78 1569.77 963.42 1652.54 964.63
00003602 00000152 1120.29 147.12 652.39 1046.27 1579.84 622.02 1702.82 613.05 1781.30 800.97 1566.59 959.47 1649.81 958.88
00003603 00000153 1124.10 156.00 637.91 1020.33 1587.18 610.96 1692.83 610.55 1788.15 784.65 1575.63 942.99 1647.92 946.66
00003604 00000154 1123.59 133.24 640.74 1051.71 1583.46 606.32 1675.35 603.62 1772.11 777.32 1575.59 941.05 1638.61 944.50
00003605 00000155 1121.90 133.16 637.56 1044.81 1579.40 600.17 1666.57 591.86 1768.29 765.16 1596.39 940.92 1652.05 939.26
00003606 00000156 1124.67 123.03 633.23 1055.48 1580.92 593.66 1664.13 587.44 1769.84 755.81 1605.68 936.15 1658.31 935.95
00003607 00000157 1127.51 120.45 628.56 1052.55 1581.10 587.79 1663.30 586.16 1766.38 751.81 1604.84 929.90 1656.72 933.36
00003608 00000158 1125.62 110.07 632.13 1076.38 1582.39 576.81 1665.70 583.04 1767.78 748.97 1596.01 928.48 1650.58 938.14
00003609 00000159 1136.18 115.20 615.55 1059.45 1584.67 572.12 1672.19 583.50 1768.42 747.67 1578.49 915.82 1643.55 928.80
