Video ID: 	318Yw3opry0
H: 	2160
W: 	3840
FPS: 	59.94006309148265

FRAME INDEX X0 Y0 W H [Landmarks (5 Points)]

00001532 00000000 1592.81 360.03 572.24 863.41 1970.57 717.86 2094.92 734.88 2140.99 881.47 1954.53 1019.04 2041.34 1031.17
00001533 00000001 1596.17 358.86 569.25 861.26 1974.14 718.69 2093.52 736.78 2141.94 884.04 1955.54 1017.72 2039.62 1030.96
00001534 00000002 1598.49 362.24 569.30 856.89 1975.10 720.56 2094.76 737.31 2143.55 884.74 1955.12 1017.08 2039.92 1029.58
00001535 00000003 1603.32 365.11 566.93 854.03 1977.49 720.84 2096.12 737.68 2145.52 885.95 1957.83 1017.08 2042.32 1029.76
00001536 00000004 1604.33 366.43 566.90 852.45 1980.86 722.34 2094.92 740.18 2147.04 887.94 1959.00 1016.11 2041.43 1029.88
00001537 00000005 1607.34 368.30 564.28 848.36 1981.15 724.84 2095.52 743.03 2146.81 889.00 1961.13 1016.42 2043.75 1030.32
00001538 00000006 1607.93 367.51 563.72 847.79 1980.66 726.10 2095.08 744.13 2145.34 890.80 1961.10 1016.89 2043.41 1030.55
00001539 00000007 1605.50 368.04 566.12 845.11 1980.66 726.61 2094.41 744.05 2145.13 891.29 1960.52 1017.37 2041.98 1030.47
00001540 00000008 1603.45 367.54 566.69 843.97 1979.87 724.95 2092.17 741.47 2144.59 891.41 1959.44 1016.39 2039.82 1029.01
00001541 00000009 1602.99 365.25 566.01 844.66 1978.10 723.74 2092.11 740.56 2143.87 891.41 1958.14 1016.20 2039.48 1028.98
00001542 00000010 1603.44 368.85 563.56 839.77 1974.63 722.03 2094.18 740.32 2142.57 890.50 1956.27 1017.08 2040.90 1030.43
00001543 00000011 1603.10 365.52 562.50 838.74 1972.06 722.80 2094.05 739.21 2141.32 888.94 1956.98 1015.91 2042.62 1028.10
00001544 00000012 1600.02 358.64 563.57 846.08 1968.40 722.52 2092.73 737.66 2139.55 887.23 1953.38 1014.16 2041.39 1025.94
00001545 00000013 1599.67 358.14 563.26 844.27 1964.22 722.59 2093.51 735.24 2136.62 884.55 1951.38 1012.94 2042.56 1022.86
00001546 00000014 1596.21 358.32 565.78 842.98 1959.83 722.96 2093.38 733.38 2135.95 883.53 1945.36 1009.99 2041.52 1019.19
00001547 00000015 1596.92 356.35 559.53 841.34 1964.37 709.48 2096.14 722.12 2135.08 874.18 1949.32 1008.75 2047.47 1019.25
00001548 00000016 1592.59 358.85 560.60 837.56 1958.45 710.05 2093.50 722.92 2129.52 872.81 1939.68 1005.51 2040.47 1016.45
00001549 00000017 1586.93 362.61 564.34 834.46 1953.32 708.07 2090.93 723.43 2123.23 870.90 1935.75 1004.70 2037.05 1016.47
00001550 00000018 1580.78 364.62 563.99 836.19 1947.20 706.66 2084.65 723.94 2118.23 870.48 1927.29 1001.99 2029.67 1015.37
00001551 00000019 1574.67 363.46 566.84 841.82 1942.86 707.45 2080.83 728.18 2114.43 869.43 1921.34 1000.42 2024.28 1016.41
00001552 DELETE   1567.06 353.23 571.47 861.82 1935.44 707.24 2075.71 728.68 2110.41 871.14 1912.15 1001.97 2016.53 1018.73
00001553 00000021 1560.27 364.64 574.74 860.55 1927.19 703.23 2070.69 726.88 2103.47 871.81 1903.12 1004.17 2007.42 1021.83
00001554 00000022 1552.88 370.96 579.96 856.71 1919.20 701.98 2070.22 726.00 2096.42 870.47 1896.48 1003.53 2005.80 1021.05
00001555 00000023 1548.10 370.19 582.21 857.90 1908.94 699.65 2068.51 723.22 2090.73 870.23 1888.69 1005.18 2002.11 1021.96
00001556 00000024 1536.27 369.44 592.07 857.18 1902.58 699.53 2066.14 722.30 2086.17 871.40 1878.48 1005.28 1995.97 1021.99
00001557 00000025 1538.95 366.45 581.95 864.20 1906.06 706.92 2054.54 721.83 2082.35 876.10 1881.09 1015.35 1992.13 1027.26
00001558 00000026 1536.21 371.58 581.28 857.54 1900.71 705.75 2052.24 719.63 2077.19 875.29 1871.69 1013.91 1985.56 1025.50
00001559 00000027 1522.54 369.08 593.94 862.29 1886.87 702.72 2055.15 724.97 2072.73 871.21 1858.28 1003.26 1979.66 1020.67
00001560 00000028 1523.39 366.51 590.44 860.58 1878.91 704.05 2052.59 724.75 2067.79 869.66 1852.41 1003.86 1977.78 1020.10
00001561 00000029 1520.58 365.02 591.73 855.91 1875.35 701.72 2051.40 725.52 2063.09 869.62 1851.11 1001.96 1976.72 1020.06
00001562 00000030 1516.16 363.62 591.97 858.02 1870.99 701.03 2047.39 724.50 2060.54 868.92 1844.67 999.77 1973.54 1018.40
00001563 00000031 1513.79 368.96 590.65 852.31 1868.15 701.79 2045.11 724.32 2057.52 867.83 1839.07 997.71 1970.38 1016.28
00001564 00000032 1514.53 371.12 583.66 845.00 1865.60 700.45 2041.06 721.57 2054.17 866.69 1837.81 996.96 1968.41 1014.39
00001565 00000033 1514.19 371.12 579.63 841.67 1860.83 699.46 2040.21 722.86 2050.35 867.04 1833.71 996.12 1968.45 1015.39
00001566 00000034 1514.80 366.69 577.05 840.74 1856.98 697.35 2039.17 719.82 2047.86 866.74 1832.39 993.52 1969.41 1012.39
00001567 00000035 1517.84 370.88 570.96 823.61 1857.48 688.98 2038.26 711.54 2039.23 856.32 1835.52 993.43 1973.45 1010.84
00001568 00000036 1514.60 361.36 569.95 827.47 1852.67 686.91 2035.51 711.31 2034.77 854.52 1835.13 990.92 1972.72 1009.14
00001569 00000037 1512.74 358.20 571.46 823.59 1851.46 684.79 2033.24 709.08 2031.69 852.55 1837.16 986.70 1971.12 1004.49
00001570 00000038 1510.82 359.63 573.14 815.39 1846.17 684.11 2033.91 707.53 2026.95 851.32 1834.51 983.01 1972.77 999.87
00001571 00000039 1509.59 360.57 575.71 812.37 1841.55 681.83 2033.70 705.35 2020.77 848.79 1832.42 980.24 1971.65 996.71
00001572 00000040 1508.38 361.59 574.74 806.30 1837.45 680.76 2031.46 704.44 2016.21 844.89 1829.11 974.46 1972.44 991.39
00001573 00000041 1507.10 360.85 575.73 804.83 1835.89 677.40 2030.54 702.87 2013.84 843.15 1826.32 970.80 1969.87 988.98
00001574 00000042 1502.09 357.50 578.61 812.09 1834.30 675.89 2029.34 703.21 2013.92 840.20 1823.21 970.44 1968.78 990.23
00001575 00000043 1502.33 353.74 578.64 816.88 1833.66 671.43 2027.77 700.89 2014.17 837.83 1818.50 966.73 1964.09 988.46
00001576 00000044 1500.34 351.86 581.87 823.19 1834.95 667.75 2026.23 700.47 2015.01 837.97 1813.28 967.13 1957.11 991.68
00001577 00000045 1501.03 349.55 580.65 837.41 1834.36 663.78 2025.78 698.33 2016.28 833.56 1811.75 969.75 1956.20 995.63
00001578 00000046 1499.80 347.26 582.75 853.33 1839.97 660.81 2025.17 697.38 2021.23 831.57 1815.84 973.46 1952.95 1000.65
00001579 00000047 1500.42 347.53 582.49 856.53 1840.79 661.26 2025.69 697.13 2022.34 833.29 1816.52 977.38 1953.00 1003.87
00001580 00000048 1497.87 348.39 584.83 857.68 1842.17 662.34 2025.14 696.08 2025.51 834.42 1818.33 978.21 1954.13 1003.16
00001581 00000049 1501.24 353.61 581.99 850.27 1845.02 664.13 2026.38 696.09 2029.29 836.00 1820.98 978.70 1955.48 1002.38
00001582 00000050 1504.58 354.26 579.23 843.96 1846.83 666.48 2027.00 697.13 2030.47 838.85 1822.53 980.02 1955.27 1002.86
00001583 00000051 1506.48 349.72 577.02 845.37 1847.25 669.20 2028.96 697.87 2032.25 841.11 1823.95 981.38 1958.45 1003.00
00001584 00000052 1508.72 352.23 573.14 843.25 1849.18 669.85 2029.36 697.45 2033.60 842.06 1826.38 981.22 1960.69 1002.19
00001585 00000053 1504.61 354.73 578.04 840.14 1850.07 668.96 2028.83 696.82 2035.06 842.26 1825.64 981.07 1959.77 1002.31
00001586 00000054 1508.11 348.40 574.62 849.38 1851.60 672.19 2028.58 697.51 2037.39 843.06 1826.48 983.56 1959.89 1003.36
00001587 00000055 1513.61 351.32 568.75 847.16 1855.28 674.84 2028.37 697.56 2040.43 844.56 1828.58 984.26 1959.44 1002.71
00001588 00000056 1513.81 350.78 567.02 845.47 1855.16 676.43 2027.95 698.98 2041.58 845.29 1830.40 983.79 1962.62 1002.30
00001589 00000057 1517.20 349.76 562.25 841.17 1857.92 677.58 2027.89 699.88 2042.48 844.91 1833.19 982.40 1964.36 1000.87
00001590 00000058 1522.42 353.96 555.55 834.01 1859.74 678.36 2028.89 700.16 2045.67 844.31 1832.31 980.71 1966.77 999.45
00001591 00000059 1520.84 352.66 557.81 835.34 1861.34 679.12 2030.02 701.08 2048.44 844.30 1832.15 980.66 1967.10 999.88
00001592 00000060 1522.34 355.01 556.36 834.41 1863.84 678.61 2028.84 701.60 2050.72 843.34 1831.90 980.32 1966.00 1000.59
00001593 00000061 1523.42 354.95 556.40 837.41 1865.06 677.68 2029.03 700.00 2050.52 844.84 1830.18 981.11 1963.38 1001.14
00001594 00000062 1519.64 349.93 562.53 848.67 1868.21 677.28 2028.38 699.73 2052.02 846.32 1831.04 982.69 1960.09 1002.93
00001595 00000063 1520.02 351.36 562.70 850.74 1871.43 676.87 2025.94 697.48 2054.06 847.63 1834.19 984.62 1957.76 1003.54
00001596 00000064 1521.29 355.97 560.22 843.28 1870.72 677.47 2025.72 697.28 2053.77 849.39 1837.24 986.23 1960.86 1004.00
00001597 00000065 1523.93 350.96 560.79 842.46 1874.62 680.63 2028.00 700.63 2053.90 851.70 1841.24 988.71 1962.22 1006.38
00001598 00000066 1521.37 354.81 560.80 838.10 1871.04 691.72 2023.79 711.10 2056.62 861.29 1841.07 987.58 1961.18 1004.97
00001599 00000067 1522.38 356.70 560.09 832.00 1874.36 697.40 2021.21 712.71 2057.74 861.57 1851.60 988.03 1961.32 1002.08
00001600 00000068 1523.94 359.74 558.82 823.64 1875.10 698.17 2020.73 712.54 2057.98 861.85 1856.04 988.43 1964.26 1001.54
00001601 00000069 1525.20 358.90 558.30 827.55 1876.30 702.42 2020.46 714.30 2059.32 862.89 1862.79 991.13 1966.32 1002.23
00001602 00000070 1524.11 364.99 561.32 823.95 1878.16 704.01 2021.49 714.00 2062.46 864.66 1866.26 994.23 1967.78 1003.70
00001603 00000071 1522.57 367.92 561.91 822.79 1878.03 705.80 2021.32 714.48 2061.33 865.53 1870.12 998.21 1969.59 1006.05
00001604 00000072 1522.83 367.56 562.37 829.66 1878.87 706.78 2020.68 716.58 2062.09 866.64 1866.06 998.57 1965.46 1007.80
00001605 00000073 1523.08 369.07 564.36 832.56 1879.64 706.40 2022.38 718.39 2062.25 867.44 1863.92 999.51 1963.75 1010.15
00001606 00000074 1521.86 369.81 566.92 838.60 1879.47 705.94 2023.21 718.23 2062.26 868.09 1860.79 1002.03 1962.11 1012.86
00001607 00000075 1520.38 367.06 568.99 839.82 1879.82 705.25 2024.04 718.58 2062.20 869.42 1858.62 1002.78 1959.89 1014.30
00001608 00000076 1518.00 363.73 571.78 845.17 1880.44 705.23 2022.97 718.44 2062.56 870.63 1856.04 1002.32 1956.59 1014.38
00001609 00000077 1518.73 367.39 569.57 841.76 1881.25 705.70 2020.74 718.42 2060.86 871.64 1853.75 1002.43 1951.97 1014.38
00001610 00000078 1517.65 366.39 570.16 845.10 1880.43 704.98 2019.80 718.18 2059.16 871.44 1852.75 1002.39 1950.75 1014.61
00001611 00000079 1521.84 369.12 567.49 835.73 1885.24 695.60 2021.46 712.83 2055.46 865.77 1852.65 1001.47 1953.82 1016.68
00001612 00000080 1519.09 370.02 572.33 841.57 1885.46 697.92 2023.25 716.27 2054.85 866.76 1847.27 1002.17 1950.40 1018.53
00001613 00000081 1514.29 363.94 576.59 857.02 1884.65 704.01 2021.93 720.53 2056.57 867.45 1842.90 1003.80 1947.88 1019.73
00001614 00000082 1512.19 361.24 576.56 866.04 1883.54 707.56 2018.81 721.47 2057.05 869.19 1840.15 1007.08 1944.93 1021.51
00001615 00000083 1512.99 368.48 573.25 862.40 1883.25 708.62 2013.62 720.85 2057.52 869.93 1840.84 1008.01 1941.64 1021.32
00001616 00000084 1510.98 368.54 575.20 866.03 1881.80 710.21 2011.34 722.00 2056.96 871.41 1840.53 1010.69 1939.78 1023.51
00001617 00000085 1509.33 369.27 576.45 869.14 1880.01 712.33 2012.50 725.53 2055.54 871.00 1839.93 1010.91 1941.10 1024.59
00001618 00000086 1508.88 371.02 575.89 868.86 1877.63 714.42 2012.42 728.11 2054.06 870.46 1839.60 1012.26 1941.95 1025.84
00001619 00000087 1508.88 366.50 573.10 874.11 1876.32 716.93 2009.57 729.23 2052.86 871.99 1837.04 1013.28 1939.08 1026.18
00001620 00000088 1508.22 369.02 570.35 871.39 1873.15 718.19 2007.77 730.85 2050.13 873.42 1835.72 1013.07 1938.67 1026.11
00001621 00000089 1507.47 371.34 569.98 866.12 1870.04 720.63 2006.95 736.08 2047.84 873.53 1835.19 1013.03 1940.11 1027.57
00001622 00000090 1507.15 367.57 567.69 869.60 1868.43 721.86 2004.19 736.66 2045.74 877.55 1833.10 1014.40 1937.22 1028.61
00001623 00000091 1508.44 375.22 565.69 856.55 1866.29 722.89 2006.56 739.36 2043.40 879.38 1833.46 1012.98 1939.86 1028.00
00001624 00000092 1507.09 373.69 566.19 859.34 1863.85 724.79 2006.52 742.16 2040.70 881.52 1830.75 1015.34 1938.92 1030.82
00001625 00000093 1507.66 380.30 566.81 849.85 1862.81 727.54 2008.84 743.77 2038.93 886.79 1828.26 1017.25 1938.13 1031.90
00001626 00000094 1509.65 378.96 564.85 848.97 1863.93 728.20 2007.35 746.14 2035.18 889.34 1829.08 1016.60 1935.92 1032.47
00001627 00000095 1511.45 382.81 562.27 839.89 1864.32 728.17 2007.93 746.34 2034.34 889.78 1828.99 1014.77 1935.17 1030.80
00001628 00000096 1513.60 385.34 560.34 835.64 1866.03 727.34 2009.89 745.64 2035.12 891.41 1828.50 1014.84 1934.53 1031.14
00001629 00000097 1514.13 385.21 559.88 836.76 1864.87 726.87 2010.76 744.80 2034.64 891.59 1827.87 1015.56 1935.36 1031.47
00001630 00000098 1514.42 383.25 558.56 844.01 1866.52 725.95 2010.33 743.70 2036.15 891.21 1826.04 1014.53 1933.74 1030.99
00001631 00000099 1511.70 382.27 560.65 845.47 1864.65 725.99 2011.05 743.88 2036.21 891.17 1824.17 1014.04 1935.00 1030.65
00001632 00000100 1510.62 380.76 560.87 851.54 1863.52 725.69 2009.98 746.18 2035.40 890.36 1820.01 1012.24 1932.54 1031.25
00001633 00000101 1511.24 382.40 559.33 847.35 1861.64 726.37 2006.37 746.47 2033.47 893.29 1819.75 1015.05 1928.73 1033.36
00001634 00000102 1511.25 386.29 557.71 839.97 1860.45 726.72 2006.86 746.44 2030.06 894.07 1821.44 1012.92 1930.97 1030.79
00001635 00000103 1513.55 381.35 552.97 843.11 1858.70 726.07 2008.13 744.16 2029.88 892.51 1822.88 1010.17 1936.57 1027.18
00001636 00000104 1513.28 379.78 551.39 840.45 1855.08 724.57 2007.20 742.17 2028.78 888.85 1823.91 1008.36 1939.02 1024.81
00001637 00000105 1510.27 369.72 553.69 851.44 1850.39 719.18 2003.32 742.12 2026.27 884.36 1822.58 1007.83 1938.62 1027.57
00001638 00000106 1501.94 372.73 562.26 849.24 1846.17 716.95 2001.31 744.70 2022.44 879.85 1818.91 1009.21 1934.03 1031.05
00001639 00000107 1498.01 368.96 563.79 856.29 1842.29 714.99 1998.78 746.36 2018.21 877.06 1803.41 1004.14 1925.17 1029.93
00001640 00000108 1488.33 363.04 574.63 865.98 1838.21 715.94 1998.19 744.42 2017.97 876.08 1795.75 1003.90 1921.18 1028.37
CROP_BBOX: 1189 0 2582 1493
