Video ID: 	6jdfX3moidE
H: 	1080
W: 	1920
FPS: 	25.0

FRAME INDEX X0 Y0 W H [Landmarks (5 Points)]

00000545 00000000 608.70 156.99 427.71 554.52 657.46 405.51 814.66 370.36 688.67 465.94 691.50 585.63 820.18 557.39
00000546 00000001 600.96 157.94 424.71 563.11 645.72 410.87 802.37 377.70 675.52 479.85 681.95 601.39 809.35 574.96
00000547 00000002 587.47 157.67 429.88 574.71 633.34 420.63 792.40 390.05 665.65 496.03 673.58 613.64 797.61 589.05
00000548 DELETE   577.35 155.02 430.31 590.84 626.23 431.25 777.36 411.91 648.78 514.43 662.83 623.06 773.50 607.19
00000549 DELETE   571.27 170.90 421.21 584.88 620.19 437.05 768.98 427.91 644.02 528.20 652.80 632.45 757.65 625.07
00000550 00000005 558.71 191.82 414.35 588.03 608.25 454.40 762.00 446.62 633.56 549.71 636.79 658.55 742.54 652.31
00000551 00000006 549.20 188.79 418.62 606.06 592.42 473.55 738.11 465.47 621.48 570.96 627.61 673.08 732.22 666.15
00000552 DELETE   529.35 215.81 433.22 597.72 582.49 481.68 732.29 476.13 611.54 590.30 623.04 683.65 734.20 678.13
00000553 00000008 523.05 218.83 437.01 603.34 579.60 493.98 728.52 482.77 616.84 598.60 629.81 691.85 741.93 681.61
00000554 00000009 516.63 219.30 441.20 600.82 577.47 497.05 733.21 480.82 629.36 597.49 634.06 690.37 755.52 675.78
00000555 00000010 510.57 208.00 440.38 599.83 576.74 490.19 735.17 464.55 634.06 584.32 639.42 683.79 764.36 661.60
00000556 00000011 507.89 188.23 439.91 605.51 568.66 473.85 727.40 449.01 621.44 563.89 627.21 664.09 753.56 642.59
00000557 00000012 508.80 177.88 435.29 602.90 566.18 459.19 719.13 430.87 609.97 541.99 622.78 643.39 746.85 618.67
00000558 00000013 511.07 174.85 432.62 593.95 563.55 455.33 711.06 418.59 602.61 524.53 619.26 637.84 740.05 606.67
00000559 00000014 513.21 172.25 431.74 592.87 563.83 456.78 711.30 418.98 603.21 525.72 619.94 636.25 742.81 604.07
00000560 00000015 516.26 181.17 437.36 583.38 569.91 455.38 722.66 425.92 615.93 534.15 625.71 634.76 751.52 609.59
00000561 00000016 530.33 186.30 432.64 577.82 583.22 451.97 736.63 428.27 629.49 538.04 634.61 632.37 762.03 612.06
00000562 00000017 548.41 175.55 428.66 590.94 598.29 448.00 750.09 417.51 640.33 529.56 649.86 633.59 776.80 607.72
00000563 DELETE   559.23 184.35 427.48 571.51 615.77 437.22 768.69 412.93 656.59 525.11 667.58 624.67 790.67 603.10
00000564 00000019 566.70 172.09 433.02 572.12 620.20 430.06 777.74 403.59 661.52 519.27 670.56 618.11 799.40 595.31
00000565 DELETE   583.09 173.31 434.24 565.68 634.60 427.67 789.10 403.02 668.99 512.53 676.69 611.99 803.61 591.23
00000566 00000021 603.01 167.32 432.31 574.70 653.82 415.06 807.41 408.44 676.14 505.57 677.56 603.27 806.48 597.31
00000567 DELETE   623.68 167.36 418.66 573.48 672.90 401.59 828.85 422.23 686.05 513.18 679.11 593.19 816.12 609.54
00000568 DELETE   643.79 162.70 422.50 586.28 701.82 399.82 859.28 436.36 711.41 522.44 702.56 593.93 833.90 622.45
00000569 00000024 653.30 166.28 430.56 588.91 718.19 399.48 883.23 441.91 731.13 523.93 713.84 594.55 850.86 628.08
00000570 00000025 662.52 168.27 430.72 577.37 724.72 398.27 893.46 431.51 741.54 519.23 723.84 593.36 862.32 619.72
00000571 00000026 666.87 156.63 432.73 582.25 725.67 389.14 896.70 414.71 749.62 506.59 731.11 586.70 867.92 607.60
00000572 00000027 666.28 145.68 431.31 577.55 722.21 378.01 895.93 396.84 748.97 490.50 725.50 575.72 869.93 592.32
00000573 00000028 663.40 155.49 427.47 561.53 721.97 380.46 888.32 391.62 741.47 478.62 724.24 570.49 867.19 579.84
00000574 00000029 656.25 157.00 422.63 553.60 709.23 379.47 880.35 386.93 731.94 479.11 714.11 575.12 856.14 581.30
00000575 00000030 645.28 155.93 421.16 561.63 693.34 389.47 864.53 394.09 721.31 483.25 702.90 585.22 839.66 587.49
00000576 00000031 630.26 153.80 427.28 581.56 687.25 401.42 849.75 413.98 703.96 505.89 695.12 595.30 826.55 605.23
00000577 00000032 625.23 153.44 426.90 589.97 684.60 406.68 847.85 419.86 705.23 513.77 695.29 602.79 827.67 612.77
00000578 00000033 621.44 156.50 431.75 578.76 679.31 398.99 847.48 407.44 703.75 504.60 691.83 595.55 828.84 602.25
00000579 00000034 616.92 144.83 431.09 575.74 670.07 392.50 847.02 388.60 704.25 488.04 685.77 586.88 832.75 584.23
00000580 00000035 615.43 153.33 426.60 552.43 672.29 391.78 839.15 381.33 709.88 473.59 691.20 574.60 832.56 566.49
00000581 00000036 608.37 149.17 427.07 553.11 665.75 391.52 830.02 374.29 705.85 467.44 689.10 571.15 827.19 557.36
00000582 00000037 603.35 151.53 427.43 549.51 657.99 398.02 820.05 372.13 698.22 466.02 686.01 575.50 822.29 554.72
00000583 00000038 603.10 154.76 426.05 550.64 658.58 406.87 816.22 377.25 696.31 467.66 687.89 579.45 821.95 555.54
00000584 00000039 603.86 156.56 426.95 551.32 658.57 408.21 815.02 377.41 695.28 467.71 690.10 580.87 821.95 555.87
00000585 00000040 605.51 154.90 428.23 548.85 649.49 397.58 813.86 367.86 684.72 469.83 685.05 580.82 814.17 558.24
00000586 00000041 609.74 145.84 424.81 553.13 658.34 397.00 809.21 366.60 689.78 456.40 689.16 572.95 808.01 547.54
00000587 00000042 616.68 132.31 425.12 558.98 664.21 386.54 816.84 360.48 694.48 447.75 689.92 564.55 810.18 543.19
00000588 00000043 625.73 132.98 418.52 555.05 671.62 382.19 826.23 356.42 703.17 440.24 696.28 560.70 820.84 539.48
00000589 00000044 632.46 136.99 423.14 551.20 687.27 376.85 846.05 354.91 715.76 440.89 708.96 557.36 835.88 539.11
00000590 00000045 644.50 139.53 427.19 549.98 698.78 373.60 860.40 356.19 725.31 442.37 718.25 556.25 845.27 541.66
00000591 00000046 652.63 140.74 426.46 551.84 708.26 373.57 867.13 358.21 733.04 440.13 727.18 557.17 849.71 543.93
00000592 00000047 660.87 144.82 428.83 549.25 714.89 373.01 875.77 358.41 742.45 442.49 733.99 559.91 856.01 547.33
00000593 00000048 666.37 159.25 429.70 540.92 726.78 375.37 887.74 360.57 754.17 447.07 743.45 563.66 874.29 552.02
00000594 00000049 669.80 156.05 431.09 553.00 728.78 382.24 893.84 367.18 759.17 457.08 746.69 570.90 879.57 559.16
00000595 00000050 673.15 145.35 429.17 561.30 733.25 380.56 897.40 374.85 766.12 464.60 747.55 568.08 883.31 564.00
00000596 00000051 676.20 150.26 426.50 558.71 736.87 382.95 900.14 379.10 768.82 467.09 748.86 568.35 885.25 565.69
00000597 00000052 676.36 153.01 427.74 558.69 739.60 383.70 903.22 378.39 774.06 466.75 753.37 568.91 888.97 564.95
00000598 00000053 679.14 152.52 426.16 560.21 742.06 385.25 906.48 378.64 777.96 467.23 757.06 570.24 892.48 565.33
00000599 00000054 682.13 156.69 424.37 555.44 743.93 385.12 908.74 380.53 778.96 470.24 758.22 570.70 896.39 567.43
00000600 00000055 688.85 138.83 419.97 575.75 743.62 372.52 915.54 378.13 777.51 476.53 757.47 573.12 895.52 576.21
00000601 00000056 687.83 136.27 421.89 578.13 744.14 372.33 918.68 378.21 780.81 475.41 757.07 571.81 897.98 575.29
00000602 00000057 686.77 139.64 423.10 575.83 743.92 373.07 920.27 377.05 783.02 474.79 757.83 572.06 901.38 573.66
00000603 00000058 686.26 143.70 423.53 573.50 743.46 374.91 921.29 377.16 785.13 475.75 758.91 574.49 903.34 574.61
00000604 00000059 683.32 141.44 426.49 575.69 742.29 376.84 921.58 378.88 787.82 476.07 759.23 577.10 903.26 576.94
00000605 00000060 680.95 159.45 429.42 555.21 740.61 378.85 920.51 378.82 785.99 476.81 755.88 575.61 902.43 576.55
00000606 00000061 680.90 154.98 428.72 557.18 740.22 377.60 920.86 377.74 785.03 474.56 754.27 575.03 901.42 576.39
00000607 00000062 681.87 155.69 426.89 553.78 748.34 381.54 918.49 377.31 789.42 464.44 761.43 567.76 904.70 564.90
00000608 00000063 685.93 138.58 423.98 570.13 751.83 364.87 925.87 373.07 789.82 464.14 760.21 564.86 897.61 570.59
00000609 00000064 686.06 137.64 423.86 569.76 751.94 360.83 925.85 370.78 787.55 460.51 757.86 561.88 893.87 569.32
00000610 00000065 686.00 137.29 424.29 569.78 751.03 360.54 925.67 370.71 786.15 459.28 756.43 561.30 892.24 568.95
00000611 00000066 681.54 137.15 425.91 569.18 741.66 363.73 914.40 373.11 779.56 461.03 748.56 562.25 884.38 570.11
00000612 00000067 680.93 130.72 426.44 575.64 740.99 363.47 911.95 372.60 777.20 460.53 747.91 561.92 882.66 569.66
00000613 00000068 680.83 127.47 426.40 578.58 741.09 363.70 911.30 372.97 777.12 460.87 747.67 561.63 881.69 569.46
00000614 00000069 679.17 126.99 427.95 580.01 739.46 364.44 910.76 373.52 776.71 461.99 746.76 562.34 882.18 569.93
00000615 00000070 676.49 132.36 429.63 578.00 737.34 367.21 908.31 376.19 774.64 464.80 745.08 565.12 879.79 572.43
00000616 00000071 673.17 149.45 430.05 568.67 734.36 368.82 910.12 381.09 770.68 475.32 741.05 570.35 882.90 581.94
00000617 00000072 668.59 154.26 427.63 572.40 734.22 381.65 899.72 388.09 762.73 476.18 740.78 574.17 880.37 579.93
00000618 00000073 667.41 155.87 429.52 580.84 729.17 387.95 895.21 391.98 754.05 482.01 739.07 584.28 875.89 587.66
00000619 00000074 666.95 154.20 430.13 583.49 729.22 389.28 894.53 393.78 753.13 483.39 739.35 584.21 875.21 587.93
00000620 00000075 667.11 161.58 432.06 575.01 726.10 383.70 897.56 392.41 756.86 488.17 735.40 586.10 874.76 594.29
00000621 00000076 667.85 158.74 428.93 573.80 728.84 386.78 895.18 390.59 755.02 481.35 738.93 580.04 879.46 583.30
00000622 00000077 667.84 164.38 430.46 567.74 725.98 381.48 897.30 389.64 758.83 487.13 736.34 582.10 876.90 589.94
00000623 00000078 668.30 162.75 429.34 568.79 725.97 381.61 896.65 389.17 758.67 487.16 736.22 581.52 877.38 588.88
00000624 00000079 667.67 163.04 429.36 568.31 725.41 382.31 896.50 389.52 757.81 486.78 735.57 581.43 877.61 588.50
00000625 00000080 666.94 162.10 424.50 568.01 727.15 388.58 892.35 390.34 753.18 482.70 737.84 579.17 879.18 580.80
00000626 00000081 667.32 163.99 428.62 570.91 723.92 384.21 894.58 390.51 755.72 489.20 735.30 584.14 876.87 590.21
00000627 00000082 667.05 161.79 426.06 572.64 727.11 389.49 892.24 391.25 751.66 483.38 737.56 581.57 879.20 583.09
00000628 00000083 666.66 160.09 426.86 576.15 726.74 389.52 892.81 391.26 751.40 482.98 737.39 582.28 879.57 583.75
00000629 00000084 665.78 167.19 430.47 570.47 723.54 384.25 893.80 390.64 754.68 489.23 735.67 585.55 876.59 591.39
00000630 00000085 666.83 167.95 425.13 566.26 726.09 391.21 891.81 391.92 750.17 484.13 736.84 582.87 878.32 583.68
00000631 00000086 666.49 167.13 428.54 568.95 723.81 385.02 892.46 391.77 753.61 489.40 735.72 584.23 875.50 590.27
00000632 00000087 666.61 165.14 428.94 570.93 724.70 385.42 894.09 391.64 754.80 488.94 735.95 584.76 876.08 590.41
00000633 00000088 667.04 161.87 427.43 574.57 727.96 390.93 893.66 392.62 753.20 483.80 739.83 583.83 878.83 585.28
00000634 00000089 667.14 158.65 428.85 578.43 727.87 390.80 893.84 393.22 752.81 484.41 739.78 583.53 879.27 585.47
00000635 00000090 666.72 159.76 430.14 576.48 727.59 389.09 893.58 391.57 753.45 484.54 740.96 583.08 880.07 585.10
00000636 00000091 665.15 167.41 432.00 568.29 725.33 385.30 896.39 391.57 757.00 488.63 737.78 584.13 877.49 589.81
00000637 00000092 665.76 167.51 428.72 563.89 727.72 388.88 892.25 391.66 752.02 484.35 739.30 580.14 879.16 582.57
00000638 00000093 666.49 168.51 428.92 562.54 722.32 376.63 894.59 387.52 755.01 489.65 734.67 577.80 877.64 587.70
00000639 00000094 667.94 169.97 427.01 559.15 721.74 375.66 892.49 384.47 754.37 488.17 734.54 578.00 876.02 586.57
00000640 00000095 667.11 165.93 429.05 562.05 721.55 373.36 891.94 382.02 753.26 485.78 734.27 576.69 875.11 585.20
00000641 00000096 667.25 168.31 428.94 560.20 721.50 373.45 892.05 381.44 753.45 485.57 734.52 577.69 874.89 585.72
00000642 00000097 666.33 168.18 431.34 561.97 720.74 373.12 891.30 380.99 751.58 485.92 733.57 578.51 874.33 586.44
00000643 00000098 665.78 170.99 431.06 559.03 719.93 372.76 890.90 379.74 752.63 485.56 733.75 578.48 874.10 585.79
00000644 00000099 665.02 169.98 429.41 559.69 718.78 372.96 889.47 378.43 752.66 484.88 733.90 578.49 874.89 584.60
00000645 00000100 665.10 168.09 428.55 561.09 718.46 373.41 888.49 377.76 752.14 484.40 734.21 578.85 874.86 584.05
00000646 00000101 664.94 170.98 429.31 558.05 717.65 373.71 888.40 377.33 751.78 484.47 733.65 579.29 875.17 584.03
00000647 00000102 663.25 166.43 429.39 564.34 716.37 375.04 886.79 378.55 751.41 485.61 732.90 580.44 874.06 584.87
00000648 00000103 662.88 166.42 427.63 565.39 715.74 375.38 884.69 377.94 750.49 485.04 731.97 580.98 872.79 584.63
00000649 00000104 662.61 168.07 426.83 562.67 714.66 374.99 883.50 377.25 749.53 484.24 731.22 580.57 871.99 584.12
00000650 00000105 660.03 169.28 424.82 553.61 718.64 378.24 884.04 375.93 745.05 478.58 730.95 577.42 870.74 576.05
00000651 00000106 660.21 174.01 423.85 543.26 717.79 375.99 884.69 373.10 744.81 475.44 729.04 576.39 869.92 574.56
00000652 00000107 665.30 174.39 422.40 541.08 713.59 371.12 885.14 370.00 750.69 474.71 729.98 575.01 871.34 577.16
00000653 00000108 664.33 177.14 424.24 536.76 715.83 369.92 886.08 367.73 752.73 470.61 731.37 572.37 872.26 573.79
00000654 00000109 656.25 168.27 430.50 544.82 719.77 375.21 887.12 365.69 751.78 465.84 735.64 572.24 874.47 565.26
00000655 00000110 653.63 166.15 437.49 544.40 721.53 372.85 893.88 360.87 762.60 460.16 742.51 568.61 881.27 559.41
00000656 00000111 657.94 149.29 438.61 554.07 722.36 362.82 901.43 354.23 777.83 456.92 744.75 561.25 885.50 553.97
00000657 00000112 659.40 142.56 437.54 552.30 727.84 359.55 910.15 349.75 787.21 448.70 749.95 557.05 891.62 549.04
00000658 00000113 661.11 143.43 434.14 546.34 730.55 359.69 913.51 344.91 796.18 442.83 756.39 553.91 900.59 541.45
00000659 00000114 661.84 146.29 431.85 543.62 731.08 359.49 914.73 340.26 800.33 438.99 761.98 555.54 907.39 539.35
00000660 00000115 661.19 146.79 431.52 541.89 729.56 357.65 916.52 334.41 803.56 436.53 767.18 558.78 914.23 538.98
00000661 00000116 658.59 144.32 431.22 540.77 731.32 357.76 916.58 332.38 806.95 432.57 776.04 555.91 915.42 534.15
00000662 00000117 652.49 144.07 434.53 539.87 728.84 358.15 914.76 329.83 809.96 432.49 776.72 555.93 919.58 531.55
00000663 00000118 644.93 133.71 439.99 541.39 732.75 357.97 918.44 332.95 812.94 432.58 776.34 545.31 924.22 523.88
00000664 00000119 642.56 135.98 439.40 534.80 727.93 357.44 916.28 328.12 809.16 429.97 773.45 544.31 925.59 519.27
00000665 00000120 640.53 131.86 435.96 536.41 723.52 354.93 912.89 324.54 805.39 428.76 770.05 543.58 923.58 517.95
00000666 00000121 634.66 139.07 441.50 527.97 716.09 353.34 911.02 320.34 798.96 424.55 764.10 543.84 923.31 515.94
00000667 00000122 629.74 139.17 445.85 529.33 711.74 350.43 908.43 317.72 794.24 421.69 760.41 544.17 919.68 516.41
00000668 00000123 629.25 136.22 444.17 529.50 710.69 348.04 904.69 316.40 790.80 419.05 757.55 541.90 913.83 515.20
00000669 00000124 628.53 140.63 442.76 519.91 709.94 343.89 902.87 315.38 788.08 416.84 753.97 538.34 909.08 514.45
00000670 00000125 633.78 143.47 435.28 511.56 708.95 339.53 898.46 310.96 780.91 417.33 748.72 533.74 894.45 509.39
00000671 00000126 636.42 138.40 438.00 520.21 714.34 338.10 904.61 314.81 782.92 410.51 747.45 532.91 898.99 513.91
00000672 00000127 640.93 134.16 441.52 534.73 714.60 342.35 901.81 316.66 783.76 410.81 752.13 540.10 888.41 518.60
00000673 00000128 646.86 141.03 441.28 536.39 722.11 344.06 908.41 317.62 790.49 408.46 758.04 542.79 892.27 520.85
00000674 00000129 656.41 137.16 437.39 541.55 728.26 339.94 914.39 316.03 794.76 407.30 763.85 541.56 895.92 521.87
00000675 00000130 663.30 130.83 433.21 541.48 733.44 337.22 918.00 314.97 796.83 405.45 766.04 538.13 897.53 520.11
00000676 00000131 667.84 133.80 433.10 530.02 737.03 335.99 921.07 316.06 797.76 406.26 764.96 532.99 901.99 517.18
00000677 00000132 667.22 134.62 432.52 522.28 736.68 325.02 927.25 306.85 801.80 404.59 766.94 529.47 908.22 514.97
00000678 00000133 673.71 128.42 431.38 523.46 740.51 332.93 921.37 314.76 794.61 405.16 765.26 522.93 905.59 508.49
00000679 00000134 677.94 129.18 430.24 519.83 742.00 331.09 922.27 314.25 792.81 403.81 763.30 521.21 905.76 507.94
00000680 00000135 683.88 115.56 429.57 529.56 744.31 327.42 924.65 312.39 790.75 401.41 763.32 519.26 906.97 507.31
00000681 00000136 690.03 117.51 426.20 531.14 747.42 325.82 925.78 312.59 790.13 401.36 764.10 519.68 906.99 509.23
00000682 00000137 696.45 120.99 419.07 528.64 754.99 322.56 930.17 312.99 793.87 402.26 766.76 519.25 905.74 512.11
00000683 00000138 701.99 118.74 418.45 533.58 759.13 322.10 933.29 312.91 795.81 400.71 769.74 520.16 905.85 513.45
00000684 00000139 704.58 123.16 418.41 529.00 762.29 321.82 934.56 313.04 797.87 401.08 772.10 520.13 905.26 513.88
00000685 00000140 706.93 123.07 416.86 528.45 764.82 314.22 943.25 309.39 803.56 403.01 769.41 522.15 912.77 519.32
00000686 00000141 707.61 120.75 414.37 525.98 762.99 315.69 941.82 310.62 800.20 402.93 764.14 523.19 908.94 519.88
00000687 00000142 704.42 114.41 412.00 530.29 753.08 321.96 923.58 313.27 781.10 396.81 753.86 518.31 894.08 512.32
00000688 00000143 699.95 119.38 408.53 526.23 751.11 324.07 904.50 319.96 759.37 393.32 745.88 509.40 866.96 507.53
00000689 00000144 696.46 106.26 405.91 538.05 742.55 319.73 889.93 328.11 735.07 397.67 730.91 506.61 853.98 514.32
00000690 00000145 695.69 103.11 403.96 547.75 740.80 319.73 883.51 337.20 726.29 404.55 726.97 506.65 844.39 521.34
00000691 00000146 697.33 113.98 401.09 547.75 737.61 323.96 882.82 348.22 721.37 418.91 726.21 519.72 842.33 539.35
00000692 00000147 697.51 130.42 401.24 548.43 740.31 328.88 887.23 362.64 726.31 436.89 729.78 532.68 843.50 559.71
00000693 00000148 696.93 156.42 401.95 540.60 739.39 338.04 883.87 378.51 726.85 456.25 731.23 545.20 841.74 576.67
00000694 00000149 704.64 151.77 403.07 563.09 750.17 350.74 889.40 394.04 724.15 469.47 738.93 559.24 847.45 595.17
00000695 00000150 703.29 147.42 407.55 585.59 752.63 358.50 890.94 404.65 723.80 476.38 740.46 566.45 847.88 603.97
00000696 00000151 708.09 158.91 403.59 576.21 761.50 361.13 898.20 417.09 731.70 486.84 746.39 567.70 855.13 612.82
00000697 00000152 711.75 159.19 406.29 576.46 768.11 364.10 906.86 425.05 738.17 493.72 751.79 568.06 864.96 616.85
00000698 00000153 715.86 162.01 407.98 566.72 773.49 366.75 909.98 429.23 751.80 498.46 754.53 562.08 868.94 613.10
00000699 00000154 724.42 162.60 405.45 570.56 777.23 371.90 915.33 433.69 757.74 505.45 759.79 569.83 873.49 620.04
00000700 00000155 727.54 171.09 406.95 565.39 780.88 378.64 917.57 439.30 762.72 511.93 766.03 576.53 876.31 625.41
00000701 00000156 721.62 173.43 411.32 575.27 783.44 383.65 925.83 449.13 758.18 511.39 765.52 582.40 874.79 634.52
00000702 00000157 721.06 178.65 415.54 579.16 782.18 391.04 926.41 460.83 758.44 526.41 766.00 590.13 876.79 645.61
00000703 00000158 723.16 172.14 416.61 591.17 782.00 399.39 925.60 466.39 759.52 533.34 768.66 597.51 880.99 650.47
00000704 00000159 722.63 173.64 413.85 587.70 783.05 398.38 925.47 466.86 759.77 531.90 767.92 594.88 878.91 649.12
00000705 00000160 723.27 173.65 412.88 581.40 784.29 389.83 924.39 459.35 756.26 522.61 766.12 587.18 873.37 642.61
00000706 00000161 736.33 175.03 402.69 562.73 785.77 384.53 917.58 444.26 767.87 516.37 770.68 582.64 873.89 630.38
00000707 00000162 731.82 175.84 410.29 567.57 786.09 378.20 929.18 440.18 760.50 502.94 770.22 579.36 877.00 628.40
00000708 00000163 740.81 181.10 401.82 555.03 788.89 383.91 922.42 441.14 773.06 518.59 779.30 584.22 882.43 629.37
00000709 00000164 728.84 179.03 411.10 571.19 786.04 384.63 926.92 450.16 760.44 514.55 770.20 584.31 877.41 636.10
00000710 00000165 723.03 168.45 411.28 588.88 780.77 392.14 921.04 458.52 754.50 524.88 764.59 592.31 871.18 645.16
00000711 00000166 720.72 168.29 411.55 592.67 779.31 396.71 917.70 459.91 752.34 525.93 763.92 596.18 869.25 646.68
00000712 00000167 720.94 162.19 405.34 596.81 775.23 393.07 914.58 453.74 747.73 520.86 759.07 597.72 862.70 646.62
00000713 00000168 728.57 173.93 393.15 570.80 773.13 387.87 903.06 447.47 750.80 519.84 754.11 595.58 849.83 643.77
00000714 00000169 719.33 169.49 400.80 582.95 776.32 381.80 911.82 447.47 745.21 512.13 754.93 592.61 850.56 645.47
00000715 00000170 716.06 174.09 397.63 584.51 769.38 390.50 907.26 453.97 743.73 521.18 751.12 597.61 851.87 649.23
