Video ID: 	_mMwdPu9qD8
H: 	1080
W: 	1920
FPS: 	30.0

FRAME INDEX X0 Y0 W H [Landmarks (5 Points)]

00045119 00000000 787.03 158.95 383.95 509.76 901.94 378.44 1073.70 373.96 997.24 469.06 920.05 552.46 1062.59 548.77
00045120 00000001 790.76 163.48 382.72 516.45 905.47 384.25 1079.66 382.08 1002.75 475.17 920.43 557.01 1070.48 555.66
00045121 00000002 791.52 167.23 383.38 517.84 903.78 387.49 1079.67 384.32 1000.90 478.81 920.57 562.64 1070.83 560.30
00045122 00000003 791.93 170.16 383.97 518.68 905.04 389.89 1081.41 386.26 1003.34 482.76 922.19 564.83 1074.30 562.34
00045123 00000004 794.87 172.09 384.11 517.97 907.31 391.70 1083.92 389.12 1004.61 483.59 923.09 565.03 1076.73 563.42
00045124 00000005 797.29 171.35 386.87 523.22 910.92 393.82 1086.05 392.96 1007.62 485.86 925.89 565.80 1079.89 565.40
00045125 00000006 797.19 171.25 387.17 523.40 911.09 393.88 1086.03 393.17 1007.79 485.70 926.01 565.78 1079.70 565.48
00045126 00000007 799.63 171.78 386.02 522.20 913.08 398.36 1086.78 399.69 1008.55 485.63 927.33 566.25 1081.84 567.55
00045127 00000008 801.80 168.83 386.42 525.19 914.00 397.74 1088.12 399.01 1009.54 484.44 929.02 566.84 1083.53 567.81
00045128 00000009 802.80 165.31 388.96 528.53 914.47 395.25 1090.72 393.28 1012.45 481.53 931.43 567.43 1087.64 565.60
00045129 00000010 808.31 159.49 387.70 528.41 917.52 390.41 1095.49 384.90 1018.50 477.51 937.58 568.23 1091.33 563.60
00045130 00000011 813.67 157.54 384.24 529.17 921.74 390.16 1097.69 381.41 1023.50 474.91 944.37 567.52 1096.21 560.56
00045131 00000012 813.66 157.51 384.22 529.08 921.81 390.19 1097.65 381.34 1023.60 474.83 944.53 567.42 1096.25 560.43
00045132 00000013 816.69 157.10 383.29 528.66 926.92 388.95 1099.19 379.58 1029.85 472.29 952.06 565.65 1100.38 558.20
00045133 DELETE   819.89 157.39 382.43 530.64 936.15 386.81 1101.01 378.99 1037.29 466.71 963.10 567.29 1098.90 561.25
00045134 00000015 822.27 157.50 384.23 531.18 938.94 388.57 1104.98 378.47 1041.07 462.96 969.77 568.56 1105.79 560.24
00045135 00000016 822.29 157.21 384.06 531.28 938.90 388.76 1104.87 378.70 1040.88 462.99 969.72 568.52 1105.67 560.28
00045136 00000017 827.52 153.43 393.82 543.23 949.87 386.42 1118.63 373.03 1051.96 462.55 984.93 565.54 1111.64 556.40
00045137 00000018 827.87 153.20 393.12 543.09 949.97 386.58 1118.58 373.24 1052.06 462.46 984.93 565.68 1111.53 556.58
00045138 00000019 827.49 151.56 394.37 548.23 949.12 386.08 1118.01 372.32 1051.98 462.73 984.89 566.94 1112.88 557.33
00045139 00000020 822.35 140.77 394.80 555.04 949.18 381.86 1121.59 370.71 1050.03 462.77 984.03 561.80 1117.64 554.34
00045140 00000021 822.89 137.33 394.86 560.04 945.94 383.35 1118.27 370.64 1046.77 462.46 981.95 562.89 1116.82 554.23
00045141 00000022 821.83 137.20 396.09 560.83 943.73 384.23 1116.97 370.89 1044.94 463.84 980.73 563.18 1116.68 554.01
00045142 00000023 820.36 139.16 398.21 557.47 941.98 386.54 1116.45 372.91 1042.69 465.85 979.20 562.98 1116.61 553.41
00045143 00000024 820.11 139.16 398.16 557.77 942.07 386.41 1116.41 372.89 1042.76 465.63 979.21 562.88 1116.55 553.40
00045144 00000025 818.70 149.14 395.26 541.72 934.11 391.82 1105.59 372.19 1043.01 467.26 972.86 574.31 1113.78 558.05
00045145 00000026 817.51 151.69 396.49 541.14 932.93 394.02 1104.30 373.22 1041.80 467.66 972.73 576.33 1113.37 559.28
00045146 00000027 817.42 153.03 396.99 540.67 932.92 394.84 1104.11 375.75 1040.11 471.87 972.37 579.01 1111.03 563.05
00045147 00000028 815.08 155.50 398.91 541.56 930.31 397.86 1103.26 377.31 1036.78 480.40 972.60 584.66 1110.90 566.79
00045148 00000029 813.90 160.35 401.56 545.55 929.59 403.29 1100.51 383.57 1035.29 487.13 973.24 589.89 1109.24 573.02
00045149 00000030 813.93 159.88 402.02 546.21 929.69 403.28 1100.67 383.76 1035.25 486.73 973.25 589.60 1109.52 572.89
00045150 00000031 813.15 159.91 402.86 550.45 929.13 407.54 1099.34 388.16 1034.17 488.93 973.11 592.11 1109.00 575.82
00045151 00000032 809.36 166.83 407.96 551.35 928.50 413.20 1101.20 396.08 1034.33 495.09 972.07 598.07 1109.28 583.27
00045152 00000033 807.29 167.84 410.31 552.67 926.34 418.29 1102.82 400.53 1032.46 501.80 970.92 604.53 1109.59 588.70
00045153 00000034 804.46 169.06 413.20 552.15 923.77 421.59 1101.98 401.77 1030.67 507.94 969.80 607.58 1109.96 589.73
00045154 00000035 802.21 172.45 414.93 550.23 920.74 423.36 1100.00 402.90 1026.87 509.69 967.14 607.85 1109.76 589.34
00045155 00000036 802.46 172.43 414.74 549.92 920.62 423.20 1099.91 402.72 1026.78 510.06 966.99 607.88 1109.60 589.34
00045156 00000037 801.90 174.13 415.32 547.99 918.43 424.48 1097.97 402.97 1023.55 513.41 965.95 609.41 1108.15 590.08
00045157 00000038 802.20 175.35 416.34 548.69 917.93 425.61 1098.97 404.01 1023.27 514.81 965.13 609.74 1110.40 590.36
00045158 00000039 802.03 174.44 417.12 549.60 917.42 425.69 1098.28 403.46 1022.65 515.50 964.61 609.13 1110.40 589.24
00045159 00000040 802.47 174.39 419.61 553.19 918.02 425.33 1098.31 402.95 1022.58 516.14 965.52 609.54 1111.38 589.48
00045160 00000041 802.28 172.59 421.88 556.95 917.43 424.32 1098.11 401.72 1021.77 515.30 964.40 608.31 1111.81 587.94
00045161 00000042 802.05 173.16 421.93 556.06 917.01 424.25 1097.70 401.39 1021.43 515.09 964.52 608.34 1111.63 587.76
00045162 00000043 802.39 173.94 422.70 555.67 916.41 424.44 1097.23 401.23 1019.92 513.88 963.60 607.59 1111.70 586.73
00045163 00000044 801.13 172.84 425.83 556.58 915.28 424.38 1096.49 400.91 1018.04 513.84 962.12 607.42 1110.26 586.25
00045164 00000045 801.04 172.55 426.67 557.53 914.88 426.23 1095.62 402.74 1016.68 513.31 962.02 607.99 1109.97 586.81
00045165 00000046 800.56 169.55 428.34 561.95 914.43 425.99 1094.70 402.17 1015.88 513.44 961.80 607.65 1109.90 586.14
00045166 00000047 799.26 167.56 430.01 563.48 912.52 426.33 1093.37 402.54 1013.71 512.79 959.27 606.89 1108.56 585.25
00045167 00000048 799.44 167.71 429.96 563.15 912.56 426.33 1093.25 402.60 1013.47 512.70 959.33 606.81 1108.41 585.24
00045168 00000049 797.88 168.33 431.95 562.33 910.16 425.94 1091.61 401.68 1010.87 512.63 957.16 606.66 1106.91 584.62
00045169 00000050 796.90 165.70 433.02 565.32 909.15 425.61 1091.18 401.44 1010.05 511.33 956.74 607.19 1106.37 584.99
00045170 00000051 796.60 166.55 434.36 564.95 908.69 424.10 1090.43 399.11 1009.24 510.75 957.32 606.77 1106.04 583.84
00045171 00000052 795.71 166.12 435.79 565.94 907.47 424.14 1089.49 398.55 1008.11 510.34 956.49 606.63 1105.79 583.20
00045172 00000053 793.04 164.11 437.88 569.12 904.85 422.87 1087.22 396.07 1005.57 509.06 955.19 607.34 1103.76 582.74
00045173 00000054 793.14 164.19 438.06 569.07 904.93 423.04 1087.26 395.98 1005.74 509.10 955.50 607.27 1104.16 582.46
00045174 00000055 790.84 164.99 440.00 569.68 902.99 422.91 1086.08 394.90 1004.04 507.78 953.55 607.04 1103.04 581.46
00045175 00000056 786.85 165.37 441.62 569.15 898.58 422.55 1081.91 392.95 999.74 506.05 950.51 608.31 1098.67 581.53
00045176 00000057 784.01 164.12 441.71 571.79 895.13 423.78 1078.83 393.17 997.01 504.22 949.40 610.73 1097.14 583.36
00045177 00000058 778.65 163.51 442.95 575.05 891.18 423.83 1072.52 395.52 991.11 505.77 946.09 610.27 1093.18 584.67
00045178 00000059 774.36 167.23 443.44 571.76 886.21 425.25 1065.89 396.79 984.44 507.65 942.81 610.41 1089.34 584.66
00045179 00000060 774.21 167.21 443.66 571.89 886.13 425.26 1065.90 396.77 984.36 507.51 942.80 610.49 1089.25 584.70
00045180 00000061 771.24 171.55 445.27 568.92 883.80 426.39 1061.78 397.31 981.11 509.57 941.12 611.11 1085.81 584.97
00045181 00000062 767.83 171.64 445.01 569.20 878.71 426.54 1056.11 395.45 975.52 509.52 937.36 611.77 1081.87 584.21
00045182 00000063 763.79 170.41 446.21 574.36 875.64 430.95 1050.91 396.96 972.42 512.56 935.98 614.74 1079.29 585.06
00045183 00000064 764.02 171.85 446.05 575.66 873.03 435.50 1047.74 397.68 968.54 515.04 934.70 617.59 1079.83 584.82
00045184 00000065 761.94 176.06 449.36 571.92 869.66 435.94 1044.50 397.32 964.36 517.86 932.88 618.63 1077.40 585.48
00045185 00000066 761.72 175.72 449.22 572.37 869.63 436.10 1044.31 397.38 964.59 517.76 933.00 618.78 1077.52 585.50
00045186 00000067 758.91 176.80 450.91 574.33 863.13 437.81 1038.89 395.27 958.15 518.96 928.18 620.93 1076.82 584.56
00045187 00000068 754.86 181.05 453.07 570.52 856.47 439.39 1031.39 394.56 948.91 521.21 924.32 624.17 1070.93 586.34
00045188 00000069 752.33 178.52 456.46 573.93 852.48 440.39 1026.88 393.51 943.99 523.48 922.94 626.42 1069.05 586.84
00045189 00000070 750.05 176.28 460.22 578.65 850.91 442.79 1025.39 395.50 942.28 526.12 923.18 629.03 1068.47 589.31
00045190 00000071 748.14 177.48 463.84 577.75 848.70 442.42 1024.16 394.37 939.91 527.25 922.39 629.38 1068.45 589.00
00045191 00000072 748.23 177.08 464.05 578.33 848.81 442.58 1024.05 394.50 939.89 527.29 922.43 629.41 1068.34 588.99
00045192 00000073 749.04 177.57 467.03 579.17 848.27 445.14 1023.21 396.00 937.88 528.32 922.99 630.82 1069.34 589.29
00045193 00000074 748.87 176.11 470.69 578.44 847.79 446.17 1023.86 394.84 937.81 527.38 923.36 630.28 1071.21 586.94
00045194 00000075 747.61 176.32 473.47 577.10 847.02 447.71 1023.93 397.38 936.34 528.03 922.81 629.97 1070.26 587.37
00045195 00000076 747.63 176.78 473.50 576.51 846.89 447.71 1023.94 397.41 936.21 528.18 922.67 629.99 1070.24 587.42
00045196 00000077 748.95 176.71 475.65 577.30 847.28 451.41 1022.00 399.21 932.15 526.97 922.84 630.05 1068.26 585.81
00045197 00000078 749.69 176.53 474.67 577.78 847.59 451.88 1022.01 399.53 932.29 526.96 922.95 630.08 1068.27 585.80
00045198 00000079 749.67 176.28 476.34 578.98 845.23 449.33 1020.32 394.42 930.94 527.35 922.95 631.30 1069.71 584.79
00045199 00000080 749.90 176.19 475.82 579.96 846.71 449.72 1019.70 395.21 932.26 527.52 925.06 631.81 1070.06 585.44
00045200 00000081 749.29 175.21 477.08 582.11 847.64 450.01 1020.68 395.33 934.26 528.66 926.85 632.23 1072.28 585.66
00045201 00000082 748.78 175.61 477.69 581.77 846.39 450.83 1019.73 394.23 933.49 528.75 926.25 633.54 1072.34 585.39
00045202 00000083 746.62 172.35 479.68 585.67 844.87 452.34 1017.34 393.07 932.33 529.33 926.80 635.46 1071.61 585.53
00045203 00000084 746.38 172.21 479.72 585.95 844.65 452.13 1017.30 392.90 932.22 529.50 926.78 635.41 1071.75 585.57
00045204 00000085 744.52 171.06 482.63 585.05 843.82 451.65 1016.68 391.63 931.69 528.90 926.92 633.95 1072.02 583.50
00045205 00000086 740.52 171.28 485.46 583.88 841.70 452.45 1014.52 390.93 930.57 531.03 926.98 634.72 1071.57 583.01
00045206 00000087 739.00 170.01 486.59 587.93 841.90 454.54 1012.96 390.38 932.16 530.72 929.56 633.86 1074.27 579.70
00045207 00000088 738.46 171.43 489.36 587.70 843.36 455.70 1013.17 390.19 933.72 530.25 932.02 633.15 1075.96 577.52
00045208 00000089 738.68 171.50 488.98 587.73 843.27 455.55 1013.23 390.12 933.66 530.26 931.81 633.19 1075.99 577.57
00045209 00000090 737.77 171.50 491.15 586.62 843.07 457.85 1014.00 388.38 935.23 529.83 933.79 633.48 1080.01 574.50
00045210 00000091 737.10 172.33 496.67 587.12 843.19 459.10 1015.34 389.01 935.57 530.07 934.60 634.56 1080.81 574.94
00045211 00000092 734.71 170.76 495.69 589.81 841.50 461.24 1012.20 389.17 934.86 530.10 934.19 636.54 1079.50 575.19
00045212 00000093 733.52 169.85 498.15 592.35 840.37 464.01 1010.99 390.94 933.59 532.37 934.91 639.14 1080.03 576.95
00045213 00000094 731.14 166.58 499.80 597.60 840.56 465.68 1010.14 392.41 934.67 535.40 937.07 642.43 1080.53 580.37
00045214 00000095 728.73 174.68 501.71 592.98 838.20 470.73 1008.39 395.54 932.81 544.54 938.22 650.10 1079.08 586.99
00045215 00000096 728.79 175.28 501.52 592.24 838.30 470.49 1008.66 395.76 933.02 544.64 937.92 649.99 1078.89 587.27
00045216 00000097 728.07 183.43 503.72 585.99 836.64 474.34 1008.13 397.22 932.41 551.31 939.00 654.42 1079.73 589.95
00045217 00000098 727.60 185.41 503.81 589.52 837.06 479.24 1006.76 398.93 934.65 557.20 943.53 659.14 1083.44 592.08
00045218 00000099 726.84 187.25 504.21 589.38 837.62 481.78 1006.59 399.86 936.27 558.23 945.31 661.38 1083.90 592.99
00045219 00000100 727.59 192.05 502.00 586.42 838.61 485.85 1005.89 402.38 937.20 560.86 948.39 665.18 1084.15 595.52
00045220 00000101 727.90 192.58 502.10 586.01 839.38 486.17 1006.76 401.48 938.99 562.69 950.82 665.57 1086.57 594.91
00045221 00000102 727.94 191.84 502.12 586.78 839.69 486.28 1006.66 401.60 939.18 562.37 951.09 665.49 1086.36 594.83
00045222 00000103 728.37 192.36 503.39 587.49 840.51 486.50 1008.48 401.30 941.03 562.92 953.44 666.63 1088.82 595.51
00045223 00000104 727.07 187.32 505.09 592.42 841.17 486.69 1009.14 400.65 942.59 561.90 955.71 666.83 1090.52 595.07
00045224 00000105 727.31 184.82 505.06 595.18 841.15 485.86 1009.82 398.82 943.44 560.08 956.02 666.80 1091.50 594.34
00045225 00000106 728.27 184.77 507.03 593.71 842.67 485.59 1011.40 399.75 944.06 560.19 957.45 666.28 1091.37 594.83
00045226 00000107 728.32 185.99 510.29 595.43 843.88 485.90 1013.75 399.77 946.94 561.67 960.45 667.66 1094.28 596.13
00045227 00000108 728.77 185.45 509.98 595.90 844.17 485.68 1013.73 399.93 946.81 561.45 960.51 667.26 1094.22 596.03
00045228 00000109 728.30 184.67 514.63 598.76 845.02 485.80 1015.64 399.09 948.70 561.53 962.29 666.56 1097.89 594.54
00045229 00000110 727.94 185.89 519.78 600.47 847.99 486.27 1019.98 399.67 953.32 561.32 965.93 666.70 1103.07 594.68
00045230 00000111 732.69 179.39 523.25 611.85 844.54 490.47 1028.16 399.86 953.67 559.98 961.51 677.54 1111.71 600.41
00045231 DELETE   733.91 180.46 526.88 612.38 848.23 489.31 1032.02 401.17 956.33 561.50 964.20 678.05 1112.47 603.11
00045232 DELETE   732.93 180.18 528.06 611.96 853.15 489.80 1037.52 402.46 965.71 564.32 970.75 678.42 1118.70 604.33
00045233 00000114 733.35 179.96 527.56 612.54 853.70 489.76 1037.56 402.74 966.20 564.36 971.35 678.34 1118.77 604.51
00045234 00000115 740.17 179.35 530.97 611.92 862.98 491.97 1045.58 401.31 975.49 562.53 984.32 678.81 1129.04 602.04
00045235 00000116 745.30 176.40 531.42 610.18 870.14 488.88 1054.23 400.16 983.94 559.13 992.71 676.81 1135.72 601.91
00045236 00000117 749.50 169.74 530.54 614.01 876.12 486.52 1061.78 398.33 991.97 554.39 997.57 674.80 1141.63 600.46
00045237 00000118 753.46 173.16 533.84 610.32 883.69 482.96 1069.77 395.73 1000.60 551.97 1003.13 670.77 1149.03 597.66
00045238 00000119 754.05 169.16 537.74 616.65 891.61 482.66 1073.29 394.46 1009.43 549.43 1012.20 668.02 1155.26 594.38
00045239 00000120 754.29 169.56 537.59 616.27 891.48 482.60 1073.35 394.25 1009.28 549.21 1012.16 668.17 1155.27 594.44
00045240 00000121 761.51 172.91 535.77 611.96 901.92 482.86 1079.33 393.02 1020.25 545.94 1024.99 666.60 1163.99 592.01
00045241 00000122 766.15 168.12 535.10 619.81 907.95 484.20 1085.72 389.55 1028.82 544.63 1031.96 667.73 1173.49 589.82
00045242 00000123 772.72 167.96 534.28 619.68 916.66 482.55 1098.31 387.60 1042.57 547.26 1039.44 667.89 1184.47 589.84
00045243 DELETE   780.47 163.07 540.50 626.99 927.24 480.63 1108.81 385.43 1054.58 542.77 1050.77 666.98 1193.65 588.30
00045244 00000125 784.28 159.41 543.29 626.89 933.05 476.77 1118.49 383.85 1062.34 540.67 1057.31 666.27 1198.70 589.01
00045245 00000126 785.02 158.81 542.28 627.26 933.15 476.61 1118.43 383.61 1062.15 540.96 1057.18 666.04 1198.76 588.78
00045246 00000127 791.90 152.55 547.11 633.75 941.53 474.87 1134.39 384.87 1074.43 536.36 1062.05 666.47 1216.99 589.69
00045247 DELETE   799.31 147.57 550.23 635.15 950.59 471.27 1139.96 378.81 1083.17 530.78 1072.92 661.87 1224.95 583.58
00045248 00000129 804.15 146.85 552.71 633.78 957.80 472.12 1145.09 375.21 1092.78 526.82 1082.75 659.10 1234.26 577.63
00045249 DELETE   808.89 146.20 548.41 634.61 964.52 469.25 1151.23 374.32 1100.03 524.46 1086.54 656.74 1238.48 577.27
00045250 00000131 815.48 142.50 552.22 642.60 972.89 467.19 1161.81 370.84 1111.27 521.50 1094.41 658.23 1249.04 578.19
00045251 00000132 815.30 142.39 551.99 642.55 972.82 467.16 1161.68 370.95 1111.25 521.21 1094.27 658.14 1248.62 578.21
00045252 00000133 822.11 141.78 547.15 640.53 978.82 465.71 1164.89 364.82 1117.33 517.15 1101.53 656.46 1252.95 573.58
00045253 00000134 828.59 141.98 545.88 639.87 984.13 463.94 1171.55 361.87 1123.05 516.32 1106.34 655.40 1258.83 571.81
00045254 00000135 832.69 141.24 548.91 642.10 992.70 462.43 1179.43 362.91 1130.30 514.78 1113.37 654.05 1262.74 572.65
00045255 00000136 832.63 141.13 548.83 642.48 992.73 462.52 1179.42 363.03 1130.41 514.86 1113.41 654.29 1262.66 572.96
00045256 00000137 844.65 143.33 542.75 639.39 1003.21 464.53 1194.69 361.01 1146.80 512.15 1123.19 656.72 1274.91 572.00
00045257 00000138 845.11 143.69 542.18 638.79 1003.21 464.59 1194.54 360.85 1146.71 512.16 1123.58 656.99 1274.85 572.16
00045258 00000139 852.13 147.42 538.50 633.54 1008.56 464.65 1200.24 361.32 1153.80 512.19 1129.39 656.66 1281.22 571.75
00045259 00000140 855.45 145.90 539.97 635.13 1013.77 465.75 1205.96 360.88 1159.66 511.29 1134.36 655.16 1286.30 568.62
00045260 00000141 860.10 131.66 542.82 651.49 1024.36 454.12 1221.49 360.65 1175.13 510.97 1142.96 655.92 1303.32 576.32
00045261 00000142 863.68 125.37 547.40 656.42 1028.98 454.85 1226.76 358.43 1180.82 507.02 1148.53 655.38 1308.70 573.74
00045262 00000143 866.15 129.78 540.83 664.16 1029.02 443.25 1230.20 350.30 1185.15 503.10 1157.01 656.08 1309.76 578.54
00045263 00000144 866.07 130.27 540.42 664.13 1029.15 443.45 1229.88 350.26 1185.40 502.94 1157.52 656.17 1309.67 578.44
00045264 00000145 865.29 120.56 554.48 665.88 1030.46 451.01 1231.40 354.14 1184.97 502.76 1154.32 657.98 1314.14 575.87
00045265 00000146 867.07 120.99 554.84 670.42 1031.37 450.02 1235.15 353.72 1187.03 503.03 1153.19 659.63 1317.23 578.29
00045266 00000147 869.31 126.38 552.25 666.22 1033.16 451.51 1236.55 358.27 1187.87 506.10 1152.92 659.46 1316.24 581.43
00045267 00000148 871.07 129.71 546.57 657.82 1035.28 454.84 1236.79 362.16 1189.05 509.25 1153.54 658.71 1314.10 581.61
00045268 00000149 871.96 128.83 546.29 659.71 1032.91 456.24 1235.52 364.33 1185.47 514.10 1150.51 661.07 1312.93 584.34
00045269 00000150 871.91 128.66 545.75 660.73 1033.01 456.15 1235.62 364.46 1185.71 514.12 1150.61 661.63 1312.96 585.15
00045270 00000151 868.57 130.54 548.51 663.47 1028.46 460.31 1232.32 371.02 1179.15 523.06 1144.89 665.81 1309.14 591.06
00045271 00000152 868.08 139.40 549.32 660.06 1023.24 462.58 1230.51 375.81 1173.83 530.28 1140.07 670.68 1307.22 597.97
00045272 00000153 864.77 138.10 554.50 668.89 1019.25 464.99 1230.24 380.09 1168.43 536.47 1135.10 675.01 1304.65 603.48
00045273 00000154 863.59 141.67 555.80 667.64 1019.87 467.68 1231.46 384.45 1168.79 539.50 1134.49 676.67 1305.14 606.67
00045274 00000155 863.61 140.74 556.30 668.07 1020.66 465.67 1232.92 383.36 1171.27 540.12 1135.46 675.49 1306.96 606.18
00045275 00000156 864.03 141.58 556.10 667.45 1020.77 465.66 1232.78 383.53 1171.07 539.92 1135.86 675.64 1306.66 606.51
00045276 00000157 868.01 142.61 554.14 661.98 1024.99 466.23 1238.22 381.86 1177.96 539.15 1141.36 676.38 1311.83 605.72
00045277 00000158 874.92 142.32 550.63 663.14 1031.92 466.39 1241.62 378.93 1185.36 537.87 1149.85 676.35 1319.43 603.76
00045278 00000159 881.25 143.91 552.35 665.74 1038.58 467.62 1247.23 378.62 1192.59 537.37 1157.53 678.38 1326.55 605.05
00045279 00000160 888.96 143.33 553.61 668.60 1047.27 468.60 1254.50 377.12 1200.54 535.04 1165.65 680.50 1331.31 605.79
00045280 00000161 893.06 146.76 552.93 667.22 1052.75 470.17 1258.14 379.86 1205.21 538.16 1172.26 682.90 1333.69 609.25
00045281 00000162 893.30 145.95 552.32 667.89 1052.78 470.59 1257.71 379.77 1205.19 538.03 1172.65 683.30 1333.46 609.26
00045282 00000163 893.58 146.50 552.81 668.61 1053.72 469.64 1260.26 378.55 1207.88 537.65 1175.28 685.53 1335.71 611.36
00045283 00000164 894.83 151.25 558.37 674.25 1056.06 467.90 1263.66 380.82 1210.39 540.39 1176.85 688.51 1338.33 617.30
00045284 00000165 896.61 151.53 558.77 674.60 1057.14 467.93 1266.16 379.91 1212.59 537.95 1177.70 688.42 1341.25 616.50
00045285 00000166 900.20 154.13 556.04 675.92 1061.88 467.62 1269.73 381.67 1217.57 537.39 1181.99 689.99 1343.69 619.91
