Video ID: 	iwHVtTFVhxs
H: 	1080
W: 	1920
FPS: 	23.976023976023978

FRAME INDEX X0 Y0 W H [Landmarks (5 Points)]

00001580 00000000 907.52 148.04 396.14 568.15 1067.77 352.26 1253.16 386.20 1182.21 456.48 1059.13 559.59 1208.39 587.50
00001581 00000001 905.99 150.18 397.44 565.23 1064.04 352.08 1251.73 385.13 1177.59 456.25 1056.55 559.44 1207.62 586.39
00001582 00000002 905.35 150.53 398.28 565.74 1063.95 353.08 1251.45 386.10 1177.18 456.80 1056.88 559.72 1207.25 586.51
00001583 00000003 905.03 151.58 398.22 564.67 1063.90 354.45 1250.47 386.47 1177.45 457.63 1059.52 560.37 1207.95 586.14
00001584 00000004 904.04 150.88 398.47 566.60 1062.37 354.98 1251.06 387.79 1176.91 458.47 1058.48 560.42 1209.52 586.78
00001585 00000005 903.82 152.83 397.21 562.56 1060.19 355.83 1250.72 389.05 1174.73 458.38 1056.91 560.18 1209.46 586.77
00001586 00000006 901.98 154.86 398.31 560.60 1057.62 356.30 1249.37 389.85 1172.33 457.91 1053.50 559.55 1208.78 586.39
00001587 00000007 901.04 152.82 397.16 562.71 1054.66 355.95 1247.18 389.09 1169.47 457.74 1051.06 559.03 1207.53 585.61
00001588 00000008 897.00 153.80 398.74 561.25 1050.75 356.99 1241.30 388.61 1165.37 457.99 1048.89 556.75 1205.69 582.04
00001589 00000009 898.63 147.49 390.99 558.39 1041.43 360.29 1232.38 386.82 1161.41 459.79 1039.80 556.77 1206.20 579.14
00001590 00000010 895.45 145.77 390.49 556.48 1036.42 362.26 1227.64 385.58 1158.23 460.46 1036.92 553.65 1207.03 573.29
00001591 00000011 893.63 147.72 390.14 552.35 1034.40 362.01 1224.75 384.98 1154.28 461.76 1033.63 551.35 1204.20 570.83
00001592 00000012 890.59 146.33 389.90 558.36 1031.12 362.18 1219.00 383.48 1150.43 461.34 1032.26 553.31 1200.16 571.01
00001593 00000013 887.98 144.21 388.89 559.73 1025.06 360.91 1213.40 381.48 1144.97 459.13 1029.99 555.80 1194.54 572.96
00001594 DELETE   882.83 145.18 392.03 555.75 1019.53 356.63 1210.32 376.57 1140.38 450.89 1025.84 549.72 1195.39 565.74
00001595 00000015 879.14 136.54 392.73 558.66 1016.59 350.32 1209.85 372.85 1138.80 442.22 1022.58 544.18 1194.19 562.02
00001596 DELETE   881.31 129.63 391.14 557.87 1016.81 348.35 1212.52 371.46 1140.05 440.02 1024.97 542.86 1196.38 561.21
00001597 00000017 885.19 130.13 388.35 559.61 1023.71 347.68 1216.86 370.33 1149.97 442.07 1030.88 545.10 1198.20 563.50
00001598 DELETE   891.76 135.34 385.51 557.07 1032.79 350.73 1226.21 372.87 1162.59 440.04 1039.48 546.89 1207.40 565.08
00001599 DELETE   895.35 136.26 387.97 562.04 1046.38 349.97 1236.63 372.43 1178.23 443.13 1051.59 550.78 1214.93 569.63
00001600 00000020 888.57 135.23 399.55 570.90 1049.93 346.30 1244.85 371.22 1179.01 443.36 1058.80 548.82 1220.58 570.27
00001601 00000021 889.23 134.34 398.66 570.85 1048.03 345.97 1245.61 372.26 1176.60 443.15 1055.61 549.08 1220.47 571.57
00001602 00000022 897.07 138.69 385.36 558.46 1036.98 355.45 1228.88 373.91 1163.48 447.15 1043.62 553.82 1209.50 569.33
00001603 DELETE   892.38 140.76 384.33 556.69 1025.77 357.30 1217.41 375.39 1149.16 450.37 1032.85 554.64 1199.24 570.23
00001604 DELETE   886.52 141.11 387.17 557.57 1016.12 356.94 1209.53 375.71 1133.86 453.43 1022.08 555.82 1188.98 571.74
00001605 DELETE   880.53 142.99 389.60 555.00 1006.33 356.02 1202.61 374.34 1120.97 452.98 1010.83 555.97 1178.99 572.00
00001606 00000026 876.78 145.08 389.09 554.29 999.23 354.28 1194.38 370.99 1109.47 451.52 1007.18 559.60 1168.18 573.66
00001607 00000027 875.39 147.70 388.96 552.76 998.24 354.93 1192.24 370.83 1107.23 453.13 1007.45 560.71 1166.72 573.77
00001608 00000028 877.66 145.69 388.29 554.33 1003.16 355.88 1197.33 371.53 1115.00 454.63 1012.24 561.30 1172.49 574.23
00001609 00000029 879.31 143.31 389.16 559.06 1008.03 356.17 1200.79 372.50 1123.13 455.29 1015.58 559.99 1178.09 573.67
00001610 00000030 879.87 143.67 389.78 558.09 1007.80 355.80 1201.04 371.35 1122.29 453.89 1015.08 559.04 1178.44 572.14
00001611 00000031 878.53 140.95 388.37 558.08 1003.68 352.04 1200.19 367.78 1118.06 449.87 1011.71 557.88 1175.77 571.20
00001612 00000032 877.18 143.58 387.48 553.49 998.99 350.44 1196.06 367.58 1109.98 445.43 1005.89 555.73 1169.86 570.31
00001613 00000033 876.66 143.42 388.11 553.42 997.70 348.91 1196.66 366.52 1108.90 442.66 1004.02 554.86 1170.22 569.97
00001614 00000034 877.26 140.12 388.00 556.13 1000.54 350.06 1198.44 367.46 1114.05 445.49 1007.00 554.71 1173.47 569.81
00001615 00000035 878.42 140.73 389.55 558.32 1004.92 352.34 1200.90 367.85 1120.42 449.28 1012.10 556.63 1178.02 569.94
00001616 00000036 878.48 141.16 390.60 559.36 1005.91 353.89 1200.91 368.57 1121.64 451.75 1013.30 557.70 1179.31 570.12
00001617 00000037 876.99 140.76 389.02 560.47 1004.41 353.88 1200.23 368.89 1120.45 451.38 1012.88 559.48 1177.91 572.02
00001618 00000038 876.03 140.79 387.50 559.20 1001.24 353.96 1198.02 369.07 1115.87 450.88 1009.96 560.29 1174.31 572.88
00001619 00000039 876.10 139.86 385.76 560.63 999.91 353.89 1196.66 368.71 1113.88 449.63 1009.27 560.43 1173.26 572.86
00001620 00000040 874.92 138.19 387.73 561.75 1000.37 352.89 1197.95 367.82 1116.12 448.62 1009.62 559.76 1174.48 572.28
00001621 00000041 874.55 136.20 388.75 563.74 1000.80 351.81 1199.16 367.06 1117.23 447.10 1010.37 558.94 1175.70 571.59
00001622 00000042 872.90 137.18 389.06 564.65 998.79 352.44 1196.22 367.11 1114.03 448.25 1009.18 560.82 1172.48 572.93
00001623 00000043 868.74 142.19 391.33 563.69 994.63 355.17 1190.89 369.82 1106.01 453.62 1005.50 563.56 1166.89 575.12
00001624 00000044 866.74 145.54 390.30 562.66 989.58 356.81 1187.57 372.54 1098.56 455.88 999.75 566.19 1161.86 578.82
00001625 00000045 865.25 150.09 388.70 561.87 986.08 358.85 1184.12 375.96 1094.09 456.48 995.69 568.48 1156.90 582.40
00001626 00000046 863.96 151.80 389.16 562.48 984.52 360.99 1183.16 378.83 1091.68 457.56 993.27 570.11 1155.22 584.57
00001627 00000047 861.70 152.28 389.33 561.89 983.64 361.56 1181.26 379.59 1091.68 457.61 993.07 570.02 1154.39 584.51
00001628 00000048 862.51 150.27 389.12 564.02 984.01 362.82 1181.23 380.58 1092.45 457.14 993.94 568.72 1156.40 583.26
00001629 00000049 863.03 148.67 388.29 566.41 985.40 364.60 1179.41 382.56 1092.09 458.21 994.46 566.88 1156.08 582.00
00001630 00000050 862.07 149.11 389.53 565.78 984.58 363.01 1178.00 380.81 1091.15 456.22 993.86 564.84 1155.07 579.48
00001631 00000051 860.03 151.03 390.17 563.15 980.15 361.73 1175.19 380.57 1086.16 453.75 987.60 562.13 1152.52 577.69
00001632 00000052 858.66 150.42 389.80 562.27 974.74 361.12 1170.24 379.61 1078.67 452.17 983.22 560.72 1148.90 575.82
00001633 00000053 857.41 151.96 390.51 559.44 971.52 360.70 1166.98 378.48 1073.50 451.58 980.52 560.63 1145.40 575.03
00001634 00000054 856.83 151.75 391.36 559.11 973.96 358.31 1169.08 375.95 1077.57 450.14 984.36 559.89 1146.95 574.05
00001635 00000055 858.45 152.10 391.45 557.75 981.60 355.62 1175.60 372.69 1088.42 449.57 993.20 560.21 1151.84 573.43
00001636 00000056 861.40 148.15 391.04 560.80 986.82 354.15 1180.06 369.76 1095.73 449.33 999.11 560.17 1157.69 571.95
00001637 00000057 863.24 147.71 389.93 560.23 988.37 353.83 1180.07 368.73 1096.53 448.99 1000.16 560.18 1157.41 571.54
00001638 00000058 862.62 150.67 388.72 558.13 984.68 353.81 1178.70 372.32 1089.86 448.04 992.54 559.75 1152.72 574.30
00001639 00000059 860.57 153.82 390.05 558.17 979.66 354.54 1174.94 375.98 1080.79 448.13 982.47 558.30 1146.89 575.54
00001640 00000060 861.03 153.90 389.93 553.58 979.88 354.31 1175.38 376.42 1081.11 448.96 981.75 555.94 1147.57 574.00
00001641 00000061 863.61 150.69 390.50 557.09 985.60 354.45 1182.34 375.02 1091.75 449.65 990.26 557.33 1156.22 574.02
00001642 DELETE   869.31 149.71 390.32 556.37 996.46 356.64 1189.80 373.34 1106.23 456.22 1003.91 560.92 1164.78 574.10
00001643 00000063 873.92 147.32 390.08 559.04 1002.25 359.99 1195.41 376.01 1113.65 460.53 1008.29 563.76 1170.68 576.98
00001644 00000064 872.51 148.86 390.97 559.43 1000.04 360.29 1193.14 377.19 1108.77 461.50 1005.38 565.34 1166.01 579.16
00001645 00000065 868.46 153.61 391.67 559.01 993.39 358.46 1188.24 376.46 1099.60 458.87 999.63 567.08 1158.95 581.54
00001646 00000066 867.37 156.37 389.35 556.41 989.90 358.00 1184.81 376.77 1094.32 457.77 996.09 567.29 1154.76 582.36
00001647 00000067 867.98 155.28 390.46 558.71 991.22 359.80 1187.27 376.83 1096.88 459.87 999.23 569.13 1159.19 582.70
00001648 00000068 869.40 150.99 391.88 563.61 995.80 361.79 1190.62 378.20 1104.41 462.43 1003.69 570.22 1163.50 583.50
00001649 00000069 870.57 151.30 392.36 562.81 997.32 363.12 1192.05 379.49 1106.20 464.27 1005.43 571.23 1165.09 584.55
00001650 00000070 869.31 152.47 391.76 562.02 995.24 361.53 1189.51 378.29 1102.99 462.47 1002.72 569.69 1162.16 583.27
00001651 00000071 867.99 155.15 390.52 559.89 991.02 360.66 1185.73 377.60 1095.83 460.12 998.96 569.41 1158.23 582.98
00001652 00000072 867.19 153.80 389.91 561.91 989.89 360.51 1183.99 378.02 1094.33 459.19 997.49 569.45 1155.67 583.58
00001653 00000073 867.58 155.33 391.13 560.68 992.46 361.68 1186.55 378.32 1098.71 461.00 1000.61 569.63 1159.80 583.06
00001654 00000074 870.14 152.43 390.86 557.60 996.63 362.30 1191.35 379.47 1105.25 462.79 1004.04 568.32 1164.41 582.36
00001655 00000075 874.05 149.90 390.15 557.23 1000.94 364.34 1194.93 380.05 1111.38 463.44 1006.80 565.27 1171.66 578.56
00001656 00000076 874.39 150.88 389.88 554.57 999.80 363.76 1194.87 379.32 1109.64 463.28 1006.64 564.29 1172.21 577.16
00001657 00000077 869.80 152.65 392.48 552.83 994.10 359.76 1189.62 377.86 1101.89 460.96 1001.43 562.74 1164.21 577.22
00001658 00000078 866.44 156.15 391.81 553.86 987.78 358.27 1183.85 377.81 1092.76 457.42 993.79 563.30 1156.16 578.95
00001659 00000079 865.89 154.75 391.01 557.66 986.87 358.40 1182.94 378.00 1090.93 457.08 992.45 564.93 1154.02 580.61
00001660 00000080 867.09 153.21 392.06 558.55 990.18 359.42 1185.24 376.47 1096.15 458.80 999.41 566.73 1158.54 579.94
00001661 00000081 870.97 150.77 392.21 559.18 996.95 361.97 1190.41 378.78 1104.88 462.59 1005.60 567.83 1163.94 581.28
00001662 00000082 873.02 150.82 392.20 557.92 998.40 364.63 1192.24 380.46 1106.67 464.53 1007.01 568.58 1167.22 581.43
00001663 00000083 870.57 151.61 392.74 557.23 996.10 362.02 1189.37 379.51 1103.15 462.83 1004.65 566.80 1162.92 580.78
00001664 00000084 868.86 156.12 392.19 552.27 991.85 361.49 1186.04 380.37 1096.31 462.14 1000.74 566.78 1158.05 581.76
00001665 00000085 869.89 156.14 392.66 550.06 993.51 362.67 1188.66 382.25 1099.87 463.95 1001.10 565.13 1161.36 581.07
00001666 00000086 874.62 152.17 393.99 554.10 1000.47 367.55 1196.94 384.24 1111.97 467.83 1007.62 565.79 1174.85 580.26
00001667 00000087 878.18 151.97 392.00 552.92 1009.59 368.62 1200.89 387.23 1124.71 470.37 1014.95 563.78 1179.43 579.74
00001668 00000088 878.95 150.75 391.82 552.92 1010.83 370.37 1201.47 389.96 1126.47 470.12 1015.76 562.82 1180.04 579.80
00001669 DELETE   875.91 155.72 393.75 548.56 1004.69 372.54 1197.27 390.90 1115.55 471.07 1006.72 562.56 1174.49 579.05
00001670 DELETE   871.18 156.23 392.80 547.30 992.79 370.42 1186.57 390.74 1099.49 466.72 998.43 563.26 1163.50 580.58
00001671 00000091 867.02 159.66 392.34 547.09 986.25 368.08 1180.60 390.48 1088.96 462.53 991.55 563.27 1154.31 581.89
00001672 00000092 867.06 158.88 391.11 548.20 984.88 367.50 1179.49 389.11 1088.18 463.41 992.07 565.25 1153.36 583.03
00001673 00000093 868.20 158.63 392.24 549.34 988.24 367.64 1183.23 387.96 1093.76 465.84 997.20 567.32 1158.49 584.10
00001674 00000094 869.96 158.68 391.56 548.24 990.84 366.99 1185.50 386.75 1096.75 467.31 999.84 567.26 1160.78 583.61
00001675 00000095 869.21 160.72 391.77 546.96 988.38 366.11 1182.80 386.11 1092.39 464.80 997.16 567.35 1155.71 583.86
00001676 00000096 866.42 162.07 391.76 546.97 982.27 366.62 1179.34 387.61 1085.02 464.41 988.61 567.88 1150.74 585.18
00001677 00000097 865.24 158.32 390.81 547.39 978.16 365.11 1176.53 386.12 1080.03 463.29 984.28 565.95 1148.37 583.25
00001678 00000098 864.63 156.67 391.61 549.65 978.58 364.18 1176.71 384.43 1081.25 462.25 986.60 564.90 1149.66 581.45
00001679 00000099 866.48 156.62 391.33 551.53 983.66 364.22 1179.48 382.97 1087.84 461.54 994.32 566.79 1153.26 581.95
00001680 00000100 868.54 160.04 392.18 546.30 986.83 364.84 1182.68 382.56 1092.12 463.06 999.41 568.02 1156.53 582.24
00001681 00000101 867.86 157.23 391.48 550.26 984.67 364.22 1181.28 382.23 1089.31 461.08 995.93 567.90 1154.44 582.45
00001682 00000102 864.82 156.92 391.16 550.84 978.35 365.81 1175.75 383.82 1081.23 461.71 987.96 568.34 1148.18 583.01
00001683 00000103 860.65 158.63 392.45 549.10 971.85 366.43 1169.11 383.56 1073.92 461.50 983.40 567.79 1143.90 581.49
00001684 00000104 858.39 161.10 391.99 546.02 969.08 367.11 1166.23 384.16 1071.20 461.27 981.46 567.44 1143.03 581.23
00001685 00000105 858.83 157.63 392.37 547.39 971.62 365.85 1168.12 382.39 1074.94 460.89 985.99 567.07 1145.29 580.23
00001686 00000106 860.88 155.97 393.00 551.13 979.03 364.30 1173.43 380.65 1084.68 459.64 992.80 566.06 1150.63 579.19
00001687 DELETE   863.46 153.27 395.91 553.43 988.14 361.76 1178.64 375.99 1095.61 457.38 1005.05 566.52 1154.16 577.18
00001688 00000108 867.53 151.89 397.83 553.76 997.16 361.42 1184.83 373.03 1107.06 458.58 1017.31 568.95 1160.98 577.54
00001689 00000109 868.45 150.13 398.08 555.87 1000.10 359.11 1187.15 372.22 1111.15 456.12 1018.55 567.54 1162.20 577.37
00001690 00000110 865.33 152.63 398.16 553.14 996.24 357.60 1178.88 368.92 1103.44 450.90 1018.18 566.26 1150.32 574.71
00001691 DELETE   859.29 153.70 399.70 549.61 986.11 354.40 1170.77 365.64 1090.20 443.07 1009.59 561.81 1140.14 569.61
00001692 00000112 855.17 153.55 400.29 546.11 979.09 350.88 1166.27 364.93 1080.13 438.74 997.36 556.83 1131.49 567.03
00001693 00000113 856.36 151.39 397.92 543.37 980.11 347.17 1170.60 362.16 1083.93 437.93 997.76 553.52 1136.34 564.75
00001694 DELETE   863.94 145.09 392.26 544.16 988.72 347.77 1184.27 363.96 1098.81 439.06 1003.61 551.20 1158.86 563.17
00001695 DELETE   870.63 143.86 392.16 548.36 1001.95 351.91 1195.84 368.01 1118.57 442.68 1013.97 550.57 1175.73 562.89
00001696 00000116 876.29 141.17 392.79 556.02 1011.12 354.98 1200.35 369.24 1130.54 447.56 1025.06 552.92 1184.66 563.62
00001697 DELETE   878.12 143.54 390.88 548.55 1008.64 354.81 1198.51 370.26 1123.61 449.98 1020.77 554.30 1177.85 566.26
00001698 DELETE   875.10 148.85 392.83 545.29 997.44 355.32 1191.20 370.95 1105.87 449.91 1007.61 556.08 1165.67 568.51
CROP_BBOX: 562 0 1605 953
