Video ID: 	kGrOm64bIQk
H: 	2160
W: 	3840
FPS: 	23.976023976023978

FRAME INDEX X0 Y0 W H [Landmarks (5 Points)]

00004111 00000000 887.18 353.96 675.96 886.64 1101.08 710.98 1414.82 696.40 1283.63 896.92 1160.85 1036.86 1386.61 1021.24
00004112 00000001 883.76 348.49 673.44 884.95 1099.87 709.20 1412.89 695.93 1285.66 897.52 1154.60 1026.39 1386.93 1011.80
00004113 00000002 881.89 344.58 670.98 879.95 1104.98 706.28 1411.55 693.83 1287.09 894.77 1140.88 1010.21 1387.96 998.85
00004114 00000003 877.80 338.76 670.65 880.59 1104.20 701.28 1410.33 689.55 1288.99 891.36 1129.92 1000.11 1386.48 990.73
00004115 00000004 872.06 332.81 671.10 881.68 1101.66 699.44 1407.07 687.78 1287.97 886.14 1127.36 995.79 1383.15 986.34
00004116 00000005 864.77 329.05 673.84 880.15 1095.92 695.80 1403.23 684.43 1285.23 879.12 1126.86 997.48 1379.90 987.42
00004117 00000006 866.59 329.75 668.75 873.23 1089.75 696.84 1400.86 678.49 1277.18 876.54 1129.54 1002.89 1375.40 988.86
00004118 00000007 859.21 325.26 667.36 879.25 1089.34 694.11 1396.98 679.44 1283.06 868.36 1135.23 1006.91 1370.17 991.18
00004119 00000008 861.25 324.74 662.31 878.00 1093.16 693.87 1397.27 675.67 1282.55 868.31 1134.97 1001.08 1373.98 986.99
00004120 00000009 860.76 321.31 660.48 879.47 1098.60 689.24 1399.42 673.92 1288.90 861.42 1138.54 996.27 1377.33 984.08
00004121 00000010 859.83 313.26 659.11 885.56 1102.81 685.24 1400.30 668.70 1295.56 854.29 1144.84 994.60 1379.41 981.43
00004122 00000011 858.03 309.11 661.13 886.24 1104.51 681.09 1401.63 664.20 1299.36 848.55 1147.99 990.77 1381.45 977.18
00004123 00000012 854.89 303.12 661.99 887.65 1102.39 677.51 1400.17 659.81 1300.05 842.83 1146.67 986.75 1382.74 972.39
00004124 00000013 851.26 298.34 661.24 890.06 1098.81 675.07 1397.00 657.47 1297.59 838.37 1143.19 984.90 1380.02 970.78
00004125 00000014 846.77 297.75 659.94 891.83 1095.50 673.52 1392.62 657.83 1292.74 837.64 1138.32 984.02 1373.51 971.50
00004126 00000015 844.02 301.49 659.79 888.99 1091.06 674.00 1389.09 657.71 1289.41 838.46 1132.07 983.47 1370.53 970.63
00004127 00000016 841.70 301.77 662.00 888.07 1088.90 674.06 1388.21 659.20 1287.35 838.79 1128.23 982.72 1368.85 971.05
00004128 DELETE   841.91 297.16 657.26 891.06 1090.46 678.77 1388.48 667.05 1286.75 837.34 1126.53 981.93 1366.32 973.48
00004129 00000018 841.37 296.21 657.78 889.77 1091.92 680.30 1387.37 667.97 1287.37 832.68 1126.61 980.42 1364.88 972.27
00004130 00000019 838.09 294.62 663.00 895.53 1087.60 660.68 1392.75 649.12 1290.19 832.68 1131.95 985.71 1366.14 973.11
00004131 00000020 843.24 290.55 657.73 892.26 1088.77 657.40 1389.32 640.85 1290.88 829.61 1134.38 978.22 1374.43 964.27
00004132 00000021 848.65 292.67 654.95 886.67 1094.75 652.91 1394.30 634.42 1299.76 827.85 1146.78 977.42 1382.20 961.27
00004133 00000022 855.07 294.64 652.35 881.04 1100.94 649.67 1399.02 629.57 1306.30 827.44 1157.81 979.28 1386.20 961.72
00004134 00000023 862.31 294.56 649.26 875.24 1107.40 647.10 1405.01 625.61 1313.18 826.18 1165.53 975.77 1392.37 957.08
00004135 00000024 866.30 293.48 649.64 867.22 1112.46 643.28 1410.30 621.13 1318.03 825.53 1173.87 971.01 1396.02 951.65
00004136 00000025 870.87 292.89 650.45 871.74 1114.75 641.08 1412.78 620.86 1318.87 824.30 1170.55 965.89 1400.59 948.01
00004137 00000026 873.78 293.23 653.00 877.84 1115.60 637.87 1413.84 621.49 1316.65 821.74 1171.28 967.30 1400.48 952.32
00004138 00000027 878.62 293.23 653.20 882.06 1117.12 636.37 1416.51 622.69 1315.43 822.81 1171.87 970.15 1398.81 957.40
00004139 00000028 879.45 293.18 657.90 884.53 1118.56 637.46 1420.23 623.43 1318.29 826.48 1167.95 967.83 1403.20 955.35
00004140 00000029 879.37 293.94 660.18 889.42 1118.81 636.47 1419.69 624.57 1316.83 826.42 1165.11 966.72 1402.01 956.11
00004141 00000030 875.97 292.40 664.88 899.85 1116.34 635.32 1418.90 625.28 1316.19 826.01 1159.31 965.46 1401.20 956.78
00004142 00000031 875.38 287.86 662.73 903.27 1113.15 633.03 1415.57 624.08 1312.09 825.73 1155.07 963.66 1398.66 955.48
00004143 00000032 871.78 282.44 660.17 901.79 1108.91 633.89 1412.38 623.88 1308.77 823.74 1151.56 963.17 1397.12 953.83
00004144 00000033 866.45 280.95 658.98 902.48 1103.02 635.24 1407.41 623.36 1305.18 822.91 1147.61 963.11 1393.82 952.30
00004145 00000034 859.32 282.42 660.62 896.36 1095.97 634.15 1403.16 622.48 1297.07 820.25 1143.67 961.97 1387.99 950.90
00004146 00000035 851.71 272.12 664.54 906.86 1091.05 635.08 1398.60 616.74 1288.87 821.00 1134.70 959.99 1381.72 944.83
00004147 00000036 844.43 274.15 664.92 906.84 1084.27 634.45 1390.75 615.90 1281.03 819.62 1128.55 960.05 1374.20 944.60
00004148 00000037 836.54 267.25 664.24 914.14 1082.47 635.53 1385.23 617.20 1278.45 816.79 1128.56 959.12 1366.31 944.00
00004149 00000038 840.16 277.55 657.01 898.04 1079.92 635.28 1378.52 619.78 1280.72 814.27 1135.75 960.21 1369.91 945.46
00004150 00000039 833.72 271.48 658.53 904.38 1076.46 638.96 1375.04 623.48 1280.14 812.79 1123.49 954.59 1366.04 940.84
00004151 DELETE   825.44 270.64 662.74 918.60 1066.01 632.22 1382.13 623.01 1275.86 805.08 1111.24 965.65 1351.00 956.32
00004152 DELETE   817.62 264.23 663.21 931.95 1048.97 625.47 1364.04 619.23 1250.46 792.78 1092.64 962.73 1329.37 957.56
00004153 DELETE   813.90 241.47 662.72 936.53 1042.25 616.94 1345.72 609.79 1229.65 774.81 1080.62 951.93 1314.27 947.34
00004154 00000043 810.63 240.08 666.18 913.03 1031.28 607.16 1335.06 594.52 1218.04 761.98 1080.56 936.70 1308.17 927.13
00004155 00000044 810.37 228.14 666.57 908.48 1029.81 602.78 1334.42 586.98 1221.06 756.77 1085.39 929.70 1314.53 917.12
00004156 00000045 813.25 223.56 660.94 904.00 1037.55 601.73 1340.71 584.39 1233.39 757.84 1087.22 926.60 1326.71 912.66
00004157 00000046 813.38 224.74 662.02 897.15 1047.71 597.99 1348.01 582.02 1245.82 754.64 1094.67 920.80 1334.91 907.89
00004158 00000047 814.34 223.63 664.65 894.96 1054.34 593.58 1354.07 578.31 1255.53 752.52 1100.48 916.75 1340.74 904.17
00004159 00000048 816.52 223.56 663.94 899.29 1058.58 591.23 1357.51 575.11 1261.68 748.11 1111.12 922.41 1341.10 909.22
00004160 00000049 817.59 226.01 662.89 910.58 1059.85 592.60 1356.36 576.16 1262.30 746.42 1113.40 927.77 1340.44 914.52
00004161 00000050 818.32 227.27 662.16 931.04 1058.23 596.76 1353.99 580.41 1257.78 752.70 1106.56 932.60 1340.11 919.29
00004162 00000051 817.10 230.15 663.74 936.94 1055.82 600.56 1353.71 584.87 1255.23 757.82 1099.69 934.72 1341.17 922.01
00004163 00000052 817.42 229.73 663.80 936.65 1053.44 603.01 1352.74 586.98 1251.15 762.36 1097.06 936.84 1340.67 923.77
00004164 00000053 817.86 229.62 664.15 932.12 1051.46 603.28 1352.04 586.93 1247.77 762.39 1096.37 937.07 1338.85 923.80
00004165 00000054 820.57 234.13 662.93 907.63 1051.00 603.60 1353.20 587.12 1246.60 763.50 1097.74 934.73 1337.66 921.51
00004166 00000055 824.98 227.75 650.69 901.89 1055.80 603.84 1362.32 589.52 1250.18 770.46 1107.68 932.79 1341.52 917.55
00004167 00000056 831.14 228.84 651.31 895.20 1064.46 605.84 1368.97 587.69 1262.18 767.41 1120.73 930.09 1352.76 911.48
00004168 00000057 837.63 226.75 651.48 894.26 1076.05 607.27 1376.46 586.04 1277.09 763.83 1136.75 929.12 1363.60 908.39
00004169 00000058 843.10 229.56 648.51 900.26 1086.32 608.07 1380.00 585.51 1290.92 761.02 1157.24 935.54 1369.08 913.80
00004170 00000059 843.64 228.16 645.39 921.20 1085.03 605.76 1379.04 585.83 1286.88 756.54 1161.06 943.62 1360.26 923.37
00004171 00000060 834.53 226.08 650.95 932.23 1073.26 601.47 1373.61 585.15 1272.22 758.48 1143.53 946.38 1345.01 928.45
00004172 00000061 829.83 236.93 656.55 916.12 1056.16 602.63 1364.22 586.61 1254.40 760.79 1123.74 946.06 1331.14 931.67
00004173 00000062 826.92 237.76 658.45 911.56 1050.29 602.80 1362.32 584.17 1249.79 762.43 1120.26 945.49 1332.37 928.90
00004174 00000063 827.14 222.76 654.41 923.84 1059.92 601.70 1364.93 580.18 1259.00 760.98 1135.24 943.74 1343.12 921.67
00004175 00000064 828.59 219.01 655.59 918.91 1066.08 604.01 1369.10 580.38 1269.07 756.95 1140.32 939.78 1354.87 916.92
00004176 00000065 827.92 217.24 660.20 913.35 1069.47 605.87 1370.47 580.59 1273.10 756.85 1141.62 933.96 1362.79 910.37
00004177 00000066 830.25 219.77 660.84 912.48 1069.26 610.29 1370.63 581.78 1273.05 760.58 1142.93 933.37 1369.10 906.96
00004178 00000067 832.09 220.96 661.65 920.97 1068.21 613.12 1370.38 584.24 1271.33 763.91 1141.08 937.90 1369.08 911.00
00004179 00000068 834.91 224.39 661.97 929.78 1068.14 614.14 1371.59 586.61 1270.31 767.95 1138.95 945.01 1366.86 918.79
00004180 00000069 837.24 228.19 664.72 934.39 1068.56 614.27 1373.41 589.05 1269.02 768.29 1139.91 949.33 1362.50 924.92
00004181 00000070 840.49 232.10 669.18 937.08 1073.78 624.06 1374.09 600.20 1269.66 767.07 1132.39 948.73 1367.29 930.53
00004182 00000071 845.72 232.72 669.98 940.85 1078.70 629.17 1377.55 607.39 1272.10 767.99 1132.49 948.83 1370.45 932.88
00004183 00000072 849.73 231.61 672.23 943.71 1082.56 629.29 1382.97 609.23 1277.31 769.48 1134.56 950.72 1374.35 936.11
00004184 00000073 853.83 236.06 673.59 937.56 1085.63 629.08 1388.57 610.63 1282.28 772.08 1137.25 951.57 1378.07 938.22
00004185 00000074 854.36 234.66 672.87 940.92 1090.77 638.19 1389.46 618.57 1288.12 776.41 1141.10 954.15 1382.93 940.44
00004186 00000075 855.63 240.59 670.18 939.04 1093.22 645.21 1390.71 621.71 1293.18 785.12 1144.85 961.33 1387.56 944.50
00004187 00000076 853.15 249.12 672.74 933.93 1092.95 648.66 1393.15 625.16 1296.22 789.54 1146.40 968.44 1389.71 951.55
00004188 00000077 851.34 255.04 673.37 929.49 1091.64 652.14 1393.92 629.34 1296.82 791.35 1145.32 972.71 1390.59 956.49
00004189 00000078 850.16 258.78 674.06 924.71 1090.60 654.72 1393.03 632.51 1295.92 795.18 1140.70 971.49 1392.61 955.48
00004190 00000079 846.42 259.52 677.14 925.44 1088.98 656.97 1392.26 634.62 1295.33 797.96 1138.69 970.44 1393.64 954.08
00004191 00000080 845.15 263.78 677.80 923.19 1087.13 660.15 1390.92 636.87 1293.31 800.41 1139.34 974.00 1392.87 956.90
00004192 00000081 846.09 271.64 680.30 917.21 1082.50 661.82 1389.70 640.55 1290.50 801.92 1140.97 979.00 1389.41 962.13
00004193 00000082 845.23 276.09 681.77 917.84 1080.56 664.90 1389.14 643.56 1287.28 804.73 1141.42 983.84 1385.64 966.96
00004194 00000083 844.55 275.86 684.36 920.84 1081.05 669.65 1390.25 648.43 1286.04 808.13 1144.75 988.49 1384.14 971.70
00004195 00000084 843.99 277.07 689.06 923.72 1081.94 671.50 1390.26 650.23 1284.97 810.35 1146.56 989.70 1383.69 972.98
00004196 00000085 849.28 279.63 686.25 921.67 1083.16 671.79 1392.03 649.91 1285.06 810.94 1149.10 990.58 1385.10 973.50
00004197 00000086 853.19 279.23 684.45 922.39 1086.30 670.91 1394.45 649.12 1288.36 810.09 1151.50 990.53 1387.90 973.49
00004198 00000087 858.50 279.19 680.28 919.40 1089.63 669.25 1397.09 648.52 1291.15 808.78 1152.36 988.95 1389.83 972.79
00004199 00000088 866.84 277.46 674.14 917.00 1094.75 668.23 1403.18 647.13 1297.44 806.90 1158.30 989.97 1394.52 973.51
00004200 DELETE   873.18 275.72 672.22 914.85 1099.78 669.59 1407.57 645.84 1302.65 806.00 1163.14 989.57 1399.06 971.53
00004201 00000090 877.47 271.90 668.11 916.16 1109.08 671.83 1410.02 647.19 1308.39 806.88 1171.23 989.11 1399.61 970.97
00004202 00000091 880.91 273.17 667.40 912.67 1108.20 664.71 1413.84 638.68 1309.58 805.69 1173.25 989.93 1401.26 970.51
00004203 00000092 881.42 266.25 668.09 923.83 1102.95 659.37 1418.95 632.71 1308.08 807.61 1177.50 991.94 1401.37 970.49
00004204 00000093 882.70 259.27 668.08 927.50 1103.82 652.37 1419.38 624.70 1310.19 805.66 1179.35 988.67 1402.62 966.09
00004205 00000094 882.63 251.75 670.21 931.33 1104.77 648.24 1419.56 620.41 1311.13 800.47 1181.04 984.34 1403.50 961.92
00004206 00000095 881.99 249.63 672.27 930.09 1104.44 645.15 1418.79 617.96 1310.73 798.34 1179.35 981.10 1402.14 959.18
00004207 00000096 882.01 248.92 668.05 924.19 1108.77 646.78 1415.53 620.27 1309.46 798.66 1169.77 978.43 1404.49 959.44
00004208 00000097 880.15 248.55 667.42 926.10 1104.86 646.69 1411.71 618.35 1305.46 800.78 1167.53 979.76 1402.08 959.17
00004209 00000098 877.64 247.44 667.30 929.94 1102.18 646.19 1410.18 618.30 1303.81 802.10 1164.88 981.76 1400.05 961.45
00004210 00000099 875.36 248.73 667.14 930.91 1099.38 646.33 1406.52 618.40 1300.51 803.38 1162.26 981.60 1396.21 961.03
00004211 00000100 873.17 251.19 666.96 929.11 1095.89 646.84 1403.30 618.56 1296.70 802.27 1159.61 981.23 1393.41 960.35
00004212 00000101 870.62 252.20 668.02 929.15 1093.96 646.04 1400.74 617.43 1294.10 802.64 1157.33 980.43 1391.29 959.13
00004213 00000102 870.50 255.22 669.55 925.23 1093.27 637.53 1402.25 611.37 1292.86 804.49 1156.41 980.24 1388.80 960.45
00004214 00000103 869.72 257.98 668.60 920.92 1092.30 636.28 1401.46 610.56 1291.84 805.98 1155.52 981.07 1386.81 961.53
00004215 00000104 867.82 258.26 669.58 920.95 1091.19 636.17 1400.88 611.27 1290.51 806.53 1153.11 980.10 1385.49 961.15
00004216 00000105 867.76 260.14 668.84 914.88 1090.07 635.40 1401.17 612.44 1288.85 806.98 1148.96 977.32 1385.06 959.77
00004217 00000106 866.29 262.27 670.84 909.08 1088.78 636.65 1401.12 614.53 1288.55 809.32 1142.08 972.53 1389.24 955.32
00004218 00000107 865.34 260.78 673.73 909.79 1091.78 642.52 1399.02 624.97 1286.31 808.64 1138.63 965.37 1385.66 951.96
00004219 00000108 862.39 258.61 679.10 911.98 1093.21 647.89 1400.40 634.10 1286.41 804.41 1131.20 957.40 1387.90 947.49
00004220 DELETE   866.82 266.71 678.26 901.57 1097.42 646.89 1405.83 641.90 1294.01 802.07 1121.11 947.27 1393.33 944.70
00004221 DELETE   875.19 260.06 672.47 900.86 1116.44 643.60 1420.77 639.61 1311.79 796.81 1131.73 942.26 1406.20 940.44
00004222 DELETE   881.80 254.68 671.74 906.32 1131.36 637.38 1435.16 628.13 1334.54 796.49 1149.88 944.72 1423.00 938.63
00004223 00000112 884.37 247.52 674.70 923.11 1136.79 625.80 1439.86 617.78 1343.92 796.90 1161.53 950.16 1425.74 944.57
00004224 00000113 884.72 250.72 675.61 918.08 1139.97 617.47 1441.80 610.67 1346.39 797.03 1166.50 949.05 1424.29 944.19
00004225 00000114 884.03 251.48 676.02 909.47 1140.37 616.54 1441.89 606.91 1346.87 799.02 1169.45 946.92 1424.19 939.60
00004226 00000115 884.89 253.65 676.88 902.41 1141.40 617.43 1443.25 605.58 1348.14 800.99 1170.50 944.76 1427.17 935.49
00004227 00000116 883.67 256.05 678.04 898.23 1139.37 617.71 1441.90 606.80 1344.80 801.86 1167.49 943.72 1425.89 935.03
00004228 00000117 881.88 255.60 677.69 897.12 1133.55 617.64 1436.83 607.37 1336.24 803.11 1161.00 942.50 1420.23 934.19
00004229 00000118 881.24 254.22 677.40 895.81 1127.33 617.69 1432.20 605.98 1328.20 802.23 1156.41 940.70 1416.76 931.22
00004230 00000119 882.23 254.12 675.60 897.22 1124.84 621.08 1428.71 607.79 1326.02 801.77 1155.76 940.66 1417.88 929.62
00004231 00000120 881.92 252.49 676.79 899.44 1125.21 623.92 1429.10 608.76 1328.38 801.71 1157.65 941.96 1421.12 929.47
00004232 00000121 881.82 252.53 676.95 899.81 1125.61 623.98 1429.80 608.58 1329.65 801.53 1157.64 941.64 1422.43 928.95
00004233 00000122 880.02 251.81 675.82 900.62 1123.37 625.19 1426.74 609.28 1325.72 802.90 1162.19 945.83 1418.14 932.71
00004234 00000123 880.03 251.74 670.53 908.06 1120.29 627.08 1422.71 611.51 1320.73 803.84 1162.49 953.11 1411.05 940.51
00004235 00000124 877.45 252.72 671.23 919.65 1117.42 628.08 1422.21 615.63 1319.73 801.75 1156.22 959.17 1408.99 949.64
00004236 00000125 877.81 258.88 669.68 911.90 1115.20 629.99 1420.40 617.68 1318.91 801.41 1149.09 954.36 1413.04 944.79
00004237 00000126 878.72 257.90 670.51 901.51 1113.53 631.10 1420.64 616.41 1318.13 801.76 1141.81 944.74 1415.00 933.39
00004238 00000127 878.61 259.09 671.93 897.11 1109.65 631.86 1418.93 615.82 1314.52 802.35 1132.97 938.53 1415.99 926.13
00004239 00000128 877.11 257.94 673.09 900.62 1105.29 633.51 1415.32 615.04 1309.67 804.11 1126.87 935.63 1413.23 921.43
00004240 00000129 876.01 258.80 672.15 900.36 1102.71 634.87 1413.11 615.18 1307.50 805.25 1122.57 933.69 1411.52 918.67
00004241 00000130 875.87 258.28 671.53 901.13 1102.43 635.69 1413.20 615.63 1306.78 806.48 1120.52 932.31 1411.35 917.03
00004242 00000131 875.36 259.81 670.89 901.21 1108.51 641.81 1419.50 627.87 1310.77 803.91 1118.41 931.64 1413.98 921.46
00004243 00000132 878.53 264.05 669.51 897.83 1114.60 647.75 1425.80 637.64 1318.45 801.63 1117.07 930.39 1417.04 924.29
00004244 00000133 881.03 255.76 666.93 915.37 1112.67 644.71 1429.84 637.20 1317.48 807.72 1109.36 928.58 1419.42 924.20
00004245 00000134 882.52 247.49 669.68 933.44 1113.65 639.06 1434.25 635.27 1318.15 808.94 1105.48 927.98 1421.36 926.50
00004246 00000135 886.58 246.62 669.59 945.60 1119.61 635.11 1435.03 636.29 1318.89 810.41 1108.76 927.88 1419.36 930.38
00004247 00000136 890.05 243.92 669.98 945.62 1125.50 632.03 1439.30 635.61 1324.87 810.91 1112.49 927.01 1420.20 931.74
00004248 00000137 894.04 243.59 669.65 936.96 1133.83 629.80 1447.39 635.98 1333.43 809.31 1119.99 923.34 1425.09 930.01
00004249 00000138 898.42 249.19 669.78 927.83 1141.24 628.43 1454.29 637.09 1342.30 806.76 1125.93 921.98 1429.08 930.87
00004250 00000139 902.42 250.87 669.61 926.72 1145.88 627.03 1457.30 636.59 1346.05 805.85 1130.84 922.26 1429.95 932.06
00004251 00000140 904.36 252.34 669.52 923.76 1146.74 626.44 1457.39 635.34 1344.66 806.48 1135.17 922.57 1430.14 931.42
00004252 00000141 907.21 255.48 669.35 919.91 1148.23 627.36 1457.68 635.24 1344.31 807.92 1140.75 925.09 1430.58 932.80
00004253 00000142 909.85 258.67 671.36 915.60 1152.59 628.53 1461.68 636.20 1349.40 807.80 1147.47 927.17 1434.84 934.57
00004254 00000143 916.40 260.79 668.85 913.93 1159.14 629.75 1467.45 638.43 1357.56 807.10 1154.37 927.81 1442.17 935.96
00004255 00000144 919.61 262.04 669.14 911.60 1162.31 630.75 1471.87 638.86 1362.41 807.27 1158.91 929.35 1448.11 936.89
00004256 00000145 922.88 262.69 667.86 909.85 1163.10 632.05 1473.60 640.27 1363.38 808.66 1159.93 931.80 1450.82 939.44
00004257 00000146 922.86 261.54 668.40 910.64 1163.43 631.85 1473.81 640.31 1363.43 808.10 1161.57 932.64 1450.58 940.34
00004258 00000147 924.63 261.78 667.62 907.05 1166.07 629.61 1474.63 637.77 1364.57 806.64 1167.58 931.98 1449.59 939.15
00004259 00000148 926.33 261.62 667.54 902.57 1171.95 629.11 1478.95 634.86 1373.37 804.97 1178.78 932.96 1455.47 937.94
00004260 00000149 928.32 259.91 667.68 902.83 1176.71 627.81 1481.63 634.61 1378.81 803.55 1183.76 933.50 1457.66 939.43
00004261 00000150 927.83 260.47 665.05 901.79 1173.79 627.95 1478.62 634.03 1375.44 803.82 1180.82 934.07 1453.58 939.72
00004262 00000151 918.21 259.88 667.75 905.73 1165.97 628.40 1469.17 633.67 1363.77 801.96 1174.59 935.86 1441.60 941.24
00004263 00000152 909.84 249.93 671.05 918.43 1156.12 624.31 1460.12 628.00 1352.39 801.01 1165.91 933.51 1433.01 937.27
00004264 00000153 906.98 239.42 669.49 921.67 1152.13 629.13 1454.81 630.77 1346.42 799.89 1158.96 925.99 1429.67 928.00
00004265 00000154 906.30 243.74 674.13 917.15 1154.47 642.31 1456.84 642.20 1348.54 800.47 1155.11 920.74 1431.77 922.45
00004266 00000155 910.15 243.87 672.84 918.00 1162.02 641.82 1460.83 645.24 1354.35 798.63 1158.09 916.81 1432.34 921.91
00004267 00000156 910.74 247.50 675.53 912.06 1171.89 636.96 1468.30 645.97 1363.92 794.34 1165.98 915.72 1432.55 925.52
00004268 00000157 918.25 254.07 667.90 905.44 1182.45 628.58 1474.09 644.70 1372.50 788.80 1180.67 918.57 1434.51 932.90
00004269 00000158 929.41 254.88 656.51 911.09 1189.69 623.07 1478.04 638.97 1381.75 788.44 1187.92 920.92 1442.64 934.99
00004270 00000159 933.16 253.01 653.00 916.62 1186.34 623.26 1479.20 633.64 1386.80 793.84 1185.36 923.69 1451.69 933.49
00004271 00000160 928.53 254.07 652.73 914.33 1175.68 627.29 1472.14 628.47 1383.16 797.73 1174.51 923.32 1452.63 926.57
00004272 00000161 919.29 249.72 657.22 919.27 1163.29 628.88 1465.08 627.67 1372.95 799.85 1157.34 919.96 1448.28 921.67
CROP_BBOX: 463 0 2022 1553
