Video ID: 	JcKSwn2F9tk
H: 	1080
W: 	1920
FPS: 	25.0

FRAME INDEX X0 Y0 W H [Landmarks (5 Points)]

00005755 00000000 503.30 174.30 386.35 610.27 597.24 434.69 764.76 448.15 669.66 557.90 607.94 631.51 751.40 642.63
00005756 DELETE   498.29 173.35 387.75 612.81 593.81 437.77 764.24 452.75 666.92 560.09 603.81 635.13 747.74 647.28
00005757 00000002 491.84 184.71 388.37 609.57 589.80 448.69 755.87 455.84 671.46 568.22 602.99 646.72 741.60 652.08
00005758 00000003 488.03 189.29 389.60 607.89 584.82 451.70 752.76 458.11 668.91 571.88 598.95 652.87 737.25 657.84
00005759 00000004 485.27 186.15 394.02 606.87 581.16 449.60 753.69 460.42 655.65 570.88 592.00 644.71 736.54 654.47
00005760 00000005 482.25 196.89 391.06 605.63 580.07 454.96 749.71 462.34 666.26 579.46 592.87 656.32 735.19 662.07
00005761 00000006 481.71 189.75 393.26 609.06 577.47 454.36 752.35 467.12 654.06 577.65 584.85 647.31 733.82 658.68
00005762 00000007 480.09 201.94 390.97 608.13 577.93 461.52 748.28 470.27 662.58 585.71 588.77 661.10 733.71 668.11
00005763 00000008 479.70 206.00 392.13 608.56 578.63 465.82 748.90 474.58 663.08 590.25 587.96 665.87 733.65 672.95
00005764 00000009 479.96 210.66 393.28 608.04 579.30 469.07 749.81 477.90 663.90 594.29 589.29 672.06 730.42 679.63
00005765 00000010 482.28 214.93 392.68 604.61 580.65 471.80 750.08 480.49 664.25 598.31 590.54 676.21 730.01 683.82
00005766 00000011 484.04 217.67 393.76 603.11 581.66 473.40 752.04 482.88 663.57 601.75 591.34 680.68 730.48 688.95
00005767 00000012 487.82 219.03 393.70 604.54 584.87 476.28 754.34 485.54 664.69 602.60 593.93 682.03 734.42 689.99
00005768 00000013 490.20 221.55 392.64 605.56 588.11 478.34 755.53 487.95 665.75 603.64 597.89 682.31 738.10 690.30
00005769 00000014 493.77 222.88 390.55 606.90 592.52 482.15 758.00 493.32 668.87 606.15 601.64 684.01 741.34 693.14
00005770 00000015 494.68 223.66 390.87 607.21 595.35 484.27 761.98 497.33 672.50 609.02 605.10 685.91 741.89 696.54
00005771 00000016 499.86 227.44 387.52 603.00 598.74 487.93 764.54 501.72 673.17 613.03 607.50 685.95 745.63 697.35
00005772 00000017 500.60 230.07 388.63 600.67 599.30 490.32 768.16 505.26 673.71 615.65 608.60 688.09 747.89 700.39
00005773 00000018 501.91 233.80 387.90 599.46 600.59 492.10 768.96 508.39 673.53 617.84 607.92 687.38 749.53 700.81
00005774 00000019 502.51 233.85 387.51 597.53 600.21 491.95 769.06 507.77 672.96 618.21 607.77 687.36 749.48 700.38
00005775 00000020 502.63 231.14 386.85 597.04 601.09 489.59 768.61 504.11 674.92 614.62 609.94 686.33 748.82 698.38
00005776 00000021 501.53 227.69 387.30 600.57 600.92 487.79 766.45 500.54 676.34 611.84 610.79 684.74 748.87 695.28
00005777 00000022 502.09 225.71 386.24 601.76 600.38 485.33 765.54 497.37 674.83 608.45 610.60 683.82 747.56 693.81
00005778 00000023 501.18 223.91 386.99 604.91 599.34 484.35 764.88 495.98 674.32 608.20 609.94 684.10 748.05 693.66
00005779 00000024 502.15 224.95 385.72 603.12 599.22 484.34 763.56 495.65 673.49 607.63 609.77 683.60 747.77 692.97
00005780 00000025 501.69 223.97 385.94 603.64 599.17 483.52 763.01 495.06 673.36 606.77 609.64 683.35 746.80 693.00
00005781 00000026 500.92 224.65 387.94 601.27 597.86 482.27 763.07 493.10 672.76 606.02 608.03 682.11 747.19 691.27
00005782 00000027 499.72 223.16 388.99 601.84 597.77 479.20 762.28 489.83 672.86 603.98 607.52 680.16 747.69 689.08
00005783 00000028 499.56 223.03 389.61 599.42 597.61 477.62 762.18 486.59 673.21 601.75 608.10 678.92 747.89 686.52
00005784 00000029 501.84 222.11 388.49 598.13 599.99 477.12 762.74 485.78 675.55 599.62 611.05 677.27 749.85 684.72
00005785 00000030 503.41 221.24 389.43 599.64 601.56 477.46 765.28 485.79 677.39 600.42 612.96 677.78 752.70 685.02
00005786 00000031 507.19 222.12 388.32 597.32 605.25 478.10 768.39 487.24 680.45 600.96 616.06 676.56 756.06 684.50
00005787 00000032 510.78 221.39 388.67 596.98 607.97 480.36 772.08 488.62 681.63 603.39 619.19 676.66 761.28 683.95
00005788 00000033 512.97 220.96 393.37 594.66 609.98 481.90 777.72 488.73 685.35 604.90 622.44 676.66 767.88 682.67
00005789 00000034 516.14 220.86 395.99 596.70 615.17 482.24 783.96 489.88 690.22 607.15 628.83 679.24 772.09 685.44
00005790 00000035 521.07 220.46 395.87 599.38 621.91 484.22 790.26 492.67 697.24 611.09 636.41 681.94 777.45 688.53
00005791 00000036 527.30 221.78 393.84 600.54 627.67 487.02 796.65 496.38 705.74 613.14 642.83 684.01 784.26 691.32
00005792 00000037 538.75 219.50 393.73 604.76 635.14 482.68 814.04 497.93 719.50 607.92 643.00 681.85 789.80 694.83
00005793 00000038 546.43 220.81 391.05 600.72 642.21 484.08 819.46 496.26 725.85 609.72 650.60 683.28 799.39 693.56
00005794 00000039 553.84 221.94 391.33 598.92 650.20 484.21 824.53 494.93 732.27 609.04 658.32 684.10 804.92 693.11
00005795 00000040 560.47 226.16 392.41 597.75 657.87 483.89 829.37 494.31 736.79 610.24 666.02 685.00 808.73 693.83
00005796 00000041 565.16 226.75 390.91 599.56 664.06 485.90 832.15 497.34 741.13 611.24 674.14 685.02 813.94 694.25
00005797 00000042 571.80 228.08 388.93 596.12 669.35 487.38 838.12 498.82 745.84 611.21 679.69 684.24 820.83 693.52
00005798 00000043 576.52 230.65 388.33 593.79 672.71 488.86 840.67 499.93 746.82 613.82 682.19 684.47 825.08 693.38
00005799 00000044 581.50 229.68 387.27 594.37 676.59 492.43 844.74 503.08 749.85 615.49 688.36 686.46 831.55 694.85
00005800 00000045 584.89 233.13 386.99 591.13 678.42 493.62 846.71 502.33 752.30 617.64 693.39 688.37 836.20 695.25
00005801 00000046 587.02 234.10 389.61 590.92 681.88 496.16 849.93 504.60 755.28 620.52 698.02 689.57 839.91 696.22
00005802 00000047 587.15 237.28 392.13 591.07 684.10 497.12 852.73 506.63 757.43 623.60 699.10 690.85 841.98 698.35
00005803 00000048 588.18 236.72 394.34 595.81 685.87 499.33 855.60 510.35 759.19 627.52 699.43 692.82 843.88 701.27
00005804 00000049 588.69 244.08 392.79 598.87 687.17 502.23 854.36 514.40 759.80 633.22 698.56 696.49 842.81 705.88
00005805 00000050 591.20 249.59 390.21 600.46 687.27 506.72 852.21 520.97 757.15 637.35 697.22 702.69 837.98 714.13
00005806 00000051 590.51 250.94 389.80 604.08 686.59 509.23 851.00 525.11 756.18 641.01 695.11 705.02 836.37 717.81
00005807 00000052 589.42 251.07 389.48 609.20 683.30 510.61 848.54 526.83 752.40 644.65 692.23 709.55 832.75 722.65
00005808 00000053 587.01 249.79 389.77 613.55 679.65 508.09 846.04 524.20 748.98 643.42 689.20 711.39 829.58 724.58
00005809 00000054 582.88 247.74 391.58 618.01 675.33 507.12 845.21 522.39 747.27 643.17 687.69 712.24 831.48 724.37
00005810 00000055 581.41 245.42 389.43 621.01 671.34 504.06 843.33 520.72 742.18 639.78 682.73 710.81 828.81 724.06
00005811 00000056 576.23 240.99 391.41 623.03 668.57 502.80 841.71 518.95 740.20 636.16 678.46 708.22 824.61 721.07
00005812 00000057 575.80 241.56 388.55 619.63 666.46 501.97 838.70 519.60 737.53 636.39 676.83 708.56 818.97 722.84
00005813 00000058 572.73 241.47 388.52 618.49 663.83 501.63 835.94 518.83 735.23 635.24 674.37 707.34 816.03 721.35
00005814 00000059 568.61 241.53 389.44 614.09 661.97 499.52 833.38 516.85 732.09 632.38 671.29 705.25 810.74 719.59
00005815 00000060 566.23 239.78 389.54 612.70 659.47 498.06 828.89 515.79 728.83 630.33 668.99 704.18 805.82 718.79
00005816 00000061 562.89 235.21 390.21 614.51 657.09 495.48 825.59 511.63 728.36 625.72 666.41 701.71 803.03 715.16
00005817 00000062 561.97 233.09 389.22 612.03 655.54 492.61 824.27 509.48 727.94 623.06 662.93 699.44 799.28 713.63
00005818 00000063 558.38 230.54 391.85 610.03 653.18 492.08 824.63 508.29 728.12 621.29 660.61 696.40 799.88 710.05
00005819 00000064 555.19 227.24 392.95 614.13 650.55 489.32 823.95 504.03 727.29 618.50 660.65 697.22 799.25 709.79
00005820 00000065 553.99 220.90 392.46 621.89 649.04 486.47 821.66 497.77 728.85 612.62 661.69 696.48 801.68 706.03
00005821 00000066 548.78 215.33 394.50 620.94 644.44 479.98 819.50 487.04 729.25 605.86 661.02 693.11 801.12 699.24
00005822 00000067 544.67 213.43 392.34 610.18 640.61 475.31 817.40 481.36 730.32 601.38 657.52 686.63 798.09 692.23
00005823 00000068 540.19 208.03 390.98 609.96 642.34 470.40 814.04 475.56 734.58 596.47 663.42 681.96 793.60 687.40
00005824 00000069 538.04 203.83 389.98 614.50 642.34 471.33 811.58 472.96 737.99 595.38 667.86 682.10 797.05 684.48
00005825 00000070 526.88 212.14 393.01 603.50 635.58 476.89 807.67 471.68 729.87 604.95 668.45 688.52 801.89 683.40
00005826 00000071 522.16 211.59 393.06 606.45 631.09 483.56 802.46 473.77 728.83 608.08 666.65 691.78 800.66 683.12
00005827 00000072 515.02 220.04 394.96 603.19 628.54 492.72 798.55 481.05 729.03 611.75 666.05 698.70 798.15 688.41
00005828 00000073 510.03 226.39 395.40 611.86 629.01 497.98 797.72 487.27 730.60 619.15 663.42 706.17 796.17 696.32
00005829 00000074 506.02 235.13 396.08 614.29 623.34 510.92 792.83 494.65 727.07 627.20 658.48 713.55 798.68 699.32
00005830 00000075 501.93 236.19 395.58 605.33 616.83 512.15 788.48 491.45 723.02 623.83 656.35 712.53 797.13 694.71
00005831 00000076 498.30 230.93 394.61 605.86 615.70 507.06 785.58 486.16 722.13 617.34 653.56 706.96 793.52 689.48
00005832 00000077 496.84 231.11 393.88 600.62 614.39 505.62 779.30 486.54 717.47 615.74 653.01 704.09 787.21 688.46
00005833 00000078 492.75 234.20 393.98 598.32 611.65 508.77 777.37 491.28 714.62 620.47 651.87 706.36 784.55 691.86
00005834 00000079 491.35 237.70 392.82 605.12 607.45 516.09 773.07 497.11 710.75 627.02 650.20 713.39 784.06 697.18
00005835 00000080 490.46 245.26 392.38 604.14 606.89 520.68 773.93 502.25 710.83 635.43 648.55 717.33 784.78 701.67
00005836 00000081 490.16 247.62 392.27 606.57 603.93 524.12 771.29 506.18 707.60 638.45 646.99 721.69 783.87 706.49
00005837 00000082 489.74 246.43 392.82 602.56 602.73 522.15 769.72 503.80 705.38 637.05 647.60 719.68 781.37 704.12
00005838 00000083 490.37 240.30 392.66 600.49 602.82 515.74 767.86 496.79 705.45 626.85 648.07 712.90 780.00 696.89
00005839 00000084 491.50 233.49 390.10 597.89 604.99 507.17 767.77 489.01 707.50 617.65 649.43 706.14 778.23 691.39
00005840 00000085 492.51 223.95 390.45 607.18 607.95 497.27 771.79 477.22 712.59 607.78 650.40 701.31 781.31 685.13
00005841 00000086 494.43 222.14 391.40 608.10 609.98 492.87 775.63 472.15 715.95 605.87 652.56 698.66 784.46 681.85
00005842 00000087 494.53 223.34 394.64 605.81 611.45 492.90 779.06 472.65 717.28 605.78 654.06 699.30 786.39 682.58
00005843 00000088 499.78 223.02 391.04 603.95 615.19 494.48 781.82 475.35 719.19 607.02 657.20 700.15 788.29 684.07
00005844 00000089 502.14 222.05 392.51 604.01 616.62 494.34 785.07 475.22 721.83 608.45 658.53 699.58 790.17 683.71
00005845 00000090 506.16 220.30 393.21 605.62 621.13 492.08 790.59 473.07 726.36 607.37 661.21 698.50 794.10 682.47
00005846 00000091 507.80 217.60 393.48 607.46 625.83 488.31 795.00 468.41 732.06 607.67 671.39 701.46 797.70 684.49
00005847 00000092 513.81 212.39 391.81 613.28 630.86 485.17 798.22 466.03 734.17 607.28 678.02 703.53 800.03 687.33
00005848 00000093 517.60 210.50 392.07 612.97 631.98 485.23 800.08 464.36 735.32 604.16 678.04 701.51 803.50 684.08
00005849 00000094 521.68 210.13 392.00 608.86 635.39 484.92 803.05 464.61 737.35 603.66 680.62 697.96 805.94 680.69
00005850 00000095 524.78 209.75 392.50 606.59 638.37 483.85 807.65 463.81 742.04 603.36 681.97 694.75 810.31 677.78
00005851 00000096 533.70 203.29 392.23 615.10 645.70 481.57 812.24 467.86 751.97 599.19 685.72 686.35 818.91 675.66
00005852 00000097 534.61 204.35 392.24 612.51 645.19 482.06 813.13 469.12 750.87 600.82 684.31 686.19 818.78 676.10
00005853 00000098 536.07 205.10 391.60 613.20 645.62 483.24 812.90 468.99 752.07 600.73 686.10 685.73 822.99 674.32
00005854 00000099 538.68 207.83 392.19 609.45 649.62 483.62 815.95 469.38 756.76 600.84 689.79 684.69 827.83 673.07
00005855 00000100 542.34 211.40 393.22 607.29 656.89 485.21 822.10 469.54 764.39 598.32 698.83 684.30 834.76 671.67
00005856 00000101 548.42 213.72 387.69 603.17 664.42 484.31 826.13 467.27 771.90 596.96 705.44 684.31 837.87 670.65
00005857 00000102 546.12 212.60 389.89 600.10 663.60 478.16 828.11 460.57 773.38 591.16 702.60 678.35 838.83 663.69
00005858 00000103 540.78 194.20 394.23 605.28 654.80 472.18 829.79 452.37 763.20 578.30 693.45 659.67 840.95 644.05
00005859 00000104 538.24 183.34 390.14 607.64 650.05 459.41 822.25 441.08 759.97 566.95 690.32 649.68 839.61 634.94
00005860 00000105 538.99 175.52 388.64 607.01 650.94 452.00 822.76 434.29 761.45 561.87 691.31 643.14 840.37 628.84
00005861 00000106 542.11 178.01 388.84 607.28 656.60 451.86 826.62 432.66 767.15 561.10 697.25 643.30 845.24 627.82
00005862 00000107 542.33 181.62 390.32 609.39 658.02 456.09 828.62 436.91 768.87 566.01 698.99 649.57 845.47 634.24
00005863 00000108 538.79 186.55 390.68 605.55 654.33 462.43 827.37 441.40 765.94 571.51 693.15 650.82 842.95 634.08
00005864 00000109 539.23 187.25 388.38 600.83 653.48 462.78 826.23 442.59 764.64 572.69 693.63 650.09 841.69 634.16
00005865 00000110 539.65 187.00 388.84 597.28 657.14 460.01 829.22 439.73 768.47 571.71 697.63 648.81 842.28 632.89
00005866 00000111 540.34 183.53 389.52 598.81 659.67 456.93 831.82 437.14 771.28 569.43 700.63 647.96 844.66 632.37
00005867 00000112 539.98 182.85 388.31 595.53 658.23 454.77 829.51 435.59 769.02 567.30 698.78 643.65 843.73 628.45
00005868 00000113 539.03 178.68 386.68 599.51 655.55 452.82 825.36 433.42 766.46 565.83 696.04 641.50 842.07 625.98
00005869 00000114 539.22 176.23 386.56 601.47 655.20 452.05 825.22 432.72 766.03 564.59 695.25 640.92 842.02 625.40
00005870 00000115 539.60 178.38 386.56 595.89 656.34 452.92 826.71 433.31 767.25 565.07 697.72 641.54 843.01 625.81
00005871 00000116 541.39 180.27 385.62 595.32 659.17 454.06 829.06 436.68 768.38 566.38 698.90 644.29 840.67 630.61
00005872 00000117 542.24 181.23 386.43 594.19 661.66 453.90 831.66 437.06 770.16 566.44 700.82 644.69 841.44 631.48
00005873 00000118 542.99 180.42 385.66 596.83 662.13 453.46 831.79 435.91 771.64 565.56 701.12 645.54 841.41 631.93
00005874 00000119 543.06 177.07 387.22 603.11 662.27 449.86 831.34 433.87 771.44 561.92 704.86 648.44 840.13 636.32
00005875 00000120 543.37 170.55 388.45 609.20 661.18 445.78 827.69 431.33 769.68 557.67 708.62 650.22 836.97 639.09
00005876 00000121 543.75 167.98 389.92 609.64 662.63 442.37 829.18 426.25 771.76 554.84 711.64 648.22 840.20 635.64
00005877 00000122 545.92 169.36 388.40 610.05 665.89 445.38 830.95 426.79 776.06 554.38 717.72 650.42 843.49 635.79
00005878 00000123 546.68 173.29 389.41 607.91 668.18 447.58 833.69 428.60 778.35 556.82 717.54 650.68 845.37 635.78
00005879 00000124 547.01 176.96 389.94 607.72 669.66 449.54 838.23 428.87 782.43 561.44 713.92 650.46 851.05 633.92
00005880 00000125 546.48 182.24 390.08 602.06 669.19 454.79 840.06 433.07 783.22 566.29 713.34 652.82 852.01 635.43
00005881 00000126 546.12 187.83 388.79 603.66 668.37 465.12 836.78 443.77 779.45 575.11 709.72 657.70 848.94 640.75
00005882 00000127 545.36 203.69 386.80 591.14 667.17 478.60 837.63 453.96 778.17 589.54 708.18 662.88 849.05 643.07
00005883 00000128 547.18 215.87 380.46 589.83 666.30 486.88 828.28 462.31 780.08 601.36 712.93 682.70 846.18 663.54
00005884 00000129 547.21 217.13 378.80 590.84 665.79 487.86 828.50 461.86 781.32 601.91 718.02 686.80 848.27 666.80
00005885 00000130 541.95 204.26 383.51 595.23 664.31 480.21 830.79 450.16 781.29 586.29 724.03 671.42 852.53 647.31
00005886 00000131 540.93 181.14 381.05 606.13 664.71 457.98 825.52 435.28 779.74 561.06 720.16 655.01 846.48 636.83
00005887 00000132 535.59 167.80 387.53 600.69 662.67 440.26 823.21 417.72 779.03 543.83 715.83 637.11 846.78 618.87
00005888 00000133 532.02 154.90 391.88 598.56 663.34 430.46 819.57 406.04 779.73 529.05 714.23 624.13 844.89 604.60
00005889 00000134 532.78 153.11 389.97 600.08 665.55 429.32 818.47 405.08 780.60 528.48 714.10 622.45 843.32 603.28
00005890 00000135 530.70 155.30 391.76 603.64 665.02 432.16 820.37 407.89 782.84 532.07 715.97 628.06 847.13 608.14
00005891 00000136 531.07 169.40 393.14 599.63 662.71 442.61 822.81 416.64 781.71 547.94 713.75 635.49 850.11 614.40
00005892 00000137 533.02 179.26 387.51 601.03 661.73 454.14 826.81 426.99 782.83 561.67 714.11 647.15 852.15 625.32
00005893 00000138 530.73 187.09 387.16 599.06 661.87 462.82 827.10 434.32 781.39 566.38 715.49 653.39 847.75 630.66
00005894 00000139 530.79 185.82 385.49 602.77 663.52 461.25 825.95 433.69 782.90 564.55 719.32 654.82 848.20 632.83
00005895 00000140 533.12 180.23 384.71 605.83 663.52 454.06 824.02 429.24 781.37 557.44 720.78 651.98 848.34 632.09
00005896 00000141 533.16 178.45 385.84 605.70 663.59 451.83 824.64 425.67 783.40 555.11 720.77 649.05 851.04 628.07
00005897 00000142 534.00 177.81 386.31 604.20 663.40 453.65 827.22 426.86 785.07 558.08 718.84 648.73 853.11 627.17
00005898 00000143 532.83 180.73 386.11 613.39 662.08 461.92 826.88 435.86 782.11 564.17 714.92 655.58 848.62 634.65
00005899 00000144 531.25 185.09 386.06 618.25 657.27 467.05 822.09 439.88 776.99 564.97 711.94 661.34 846.27 639.55
00005900 00000145 521.92 190.56 390.36 601.22 653.06 467.84 819.68 434.68 773.44 566.29 704.44 669.98 834.69 642.03
00005901 00000146 527.75 177.48 387.06 605.90 654.38 452.33 818.79 429.51 773.06 555.26 705.44 645.80 843.96 627.40
00005902 00000147 526.97 170.66 392.19 598.81 655.20 441.30 817.72 416.80 773.78 541.57 705.13 635.80 844.23 616.01
00005903 00000148 527.40 164.86 393.29 596.60 656.65 435.91 817.45 411.02 774.88 536.35 707.71 631.23 844.62 610.98
00005904 00000149 531.16 169.95 390.41 601.60 658.43 444.21 820.15 419.53 776.85 547.53 706.85 634.60 847.91 614.49
00005905 00000150 534.32 183.73 386.33 607.94 663.25 464.57 827.65 438.75 780.81 567.18 711.68 652.28 848.72 631.60
00005906 00000151 538.39 215.24 385.79 601.36 667.89 489.53 826.92 465.43 784.37 603.01 712.91 685.37 850.09 665.35
00005907 00000152 545.23 238.99 380.92 596.15 674.69 518.11 836.75 490.84 792.56 629.06 719.21 706.16 858.39 683.43
00005908 00000153 543.76 267.11 386.31 587.71 676.79 538.97 845.55 510.22 794.73 644.96 716.98 723.09 859.87 699.70
00005909 00000154 544.20 270.61 386.70 587.51 678.35 541.14 846.67 511.03 797.30 644.82 718.86 724.67 862.09 700.10
00005910 00000155 543.66 260.20 383.42 582.48 677.89 526.53 844.82 498.89 797.55 636.38 717.38 712.59 862.03 690.13
00005911 DELETE   543.57 236.28 384.39 581.21 678.70 506.39 837.54 481.44 791.33 615.12 717.63 693.13 853.78 672.88
00005912 00000157 543.40 227.68 381.50 580.76 676.17 492.66 834.44 467.83 790.34 605.68 715.55 681.36 851.63 661.04
00005913 00000158 544.44 219.49 379.38 588.32 674.32 489.27 833.53 462.42 791.31 598.25 714.79 678.19 852.57 656.37
00005914 00000159 544.60 225.28 380.82 590.21 677.35 493.67 834.81 468.75 793.17 606.61 717.41 684.75 854.49 664.05
00005915 00000160 545.10 236.00 383.38 584.05 681.66 506.04 838.63 481.07 793.63 614.70 719.78 693.37 854.40 672.96
00005916 00000161 546.97 244.05 381.34 584.94 681.59 516.85 841.62 490.57 795.90 626.60 719.50 701.45 858.13 679.49
00005917 00000162 546.24 250.63 380.90 581.69 680.76 519.66 840.92 492.45 795.84 629.00 719.33 703.62 858.49 681.18
00005918 00000163 546.58 239.32 381.17 585.48 680.04 513.68 837.97 486.83 794.04 621.40 720.55 698.74 856.85 676.61
00005919 00000164 544.59 236.60 381.81 580.51 679.24 506.04 837.05 480.03 792.30 614.15 716.49 690.64 854.01 669.69
00005920 00000165 544.04 232.16 382.41 583.21 680.40 500.35 836.09 473.91 793.67 610.70 718.90 688.08 853.87 666.73
00005921 00000166 543.07 231.00 384.14 588.14 680.98 500.77 837.57 474.34 795.77 610.52 720.67 691.58 854.61 670.18
00005922 00000167 544.74 234.10 383.90 586.39 680.83 503.90 837.25 477.74 793.46 612.61 720.11 693.60 853.34 672.54
00005923 00000168 545.42 234.44 383.20 583.43 681.84 502.78 838.03 476.36 794.77 611.53 721.84 692.85 853.47 671.74
00005924 00000169 548.58 231.32 381.39 583.65 684.41 495.49 838.01 468.94 796.44 607.06 726.60 690.31 853.85 668.46
00005925 00000170 550.92 224.56 381.05 588.40 682.37 490.24 840.19 461.88 799.43 599.73 725.60 685.36 857.86 662.34
