Video ID: 	ehmJF1LX12E
H: 	1080
W: 	1920
FPS: 	25.0

FRAME INDEX X0 Y0 W H [Landmarks (5 Points)]

00008560 00000000 1170.68 184.04 345.37 528.51 1225.00 409.89 1372.69 403.04 1273.81 489.58 1247.06 591.68 1366.82 588.65
00008561 00000001 1175.39 180.58 343.87 529.46 1229.47 409.84 1377.53 406.95 1276.33 491.96 1249.32 591.24 1368.82 591.27
00008562 00000002 1177.08 175.06 345.16 530.62 1231.26 406.31 1378.12 405.80 1277.36 488.44 1250.08 588.43 1368.97 589.95
00008563 00000003 1179.08 172.40 344.76 525.51 1231.47 398.21 1379.73 398.39 1275.76 481.35 1247.97 582.13 1369.40 584.31
00008564 DELETE   1177.02 167.89 345.47 520.73 1229.46 390.89 1376.49 390.72 1273.23 470.31 1245.76 572.96 1363.38 575.32
00008565 00000005 1176.54 167.93 343.43 515.82 1226.41 385.81 1371.25 385.65 1269.00 461.65 1243.64 565.25 1356.49 567.88
00008566 00000006 1174.47 162.66 344.44 525.23 1227.52 389.57 1371.36 390.14 1266.15 465.94 1240.17 562.43 1350.77 565.32
00008567 00000007 1177.29 167.03 342.09 526.59 1229.62 385.81 1374.95 385.14 1271.82 460.70 1245.87 571.77 1359.01 574.20
00008568 DELETE   1178.15 167.57 343.17 530.91 1230.35 388.91 1379.11 387.05 1275.06 466.54 1246.65 577.78 1363.73 579.14
00008569 00000009 1175.33 163.82 347.87 535.28 1230.14 390.32 1382.25 389.89 1278.25 471.22 1247.00 578.72 1368.70 580.81
00008570 00000010 1174.27 163.13 351.39 531.04 1229.08 393.03 1384.73 393.85 1279.87 475.51 1244.85 577.62 1372.73 580.21
00008571 00000011 1174.73 165.99 351.28 528.00 1230.02 395.00 1385.58 396.41 1280.63 476.78 1244.62 577.99 1373.97 580.95
00008572 00000012 1175.58 165.53 349.68 528.88 1230.70 394.29 1385.08 396.37 1280.78 477.97 1245.73 578.96 1372.43 582.57
00008573 00000013 1176.64 165.24 347.83 527.88 1230.86 393.08 1383.73 395.39 1281.08 477.86 1246.92 577.44 1370.91 581.37
00008574 00000014 1176.65 164.50 347.34 527.14 1230.80 390.85 1381.96 393.17 1280.15 476.26 1247.26 577.29 1367.10 581.47
00008575 00000015 1176.66 163.63 346.57 524.74 1230.54 388.66 1381.36 390.52 1279.75 472.60 1246.41 574.30 1366.06 578.18
00008576 00000016 1175.35 162.26 348.35 525.12 1229.02 387.27 1381.03 388.37 1279.25 468.10 1245.92 572.40 1365.50 575.60
00008577 00000017 1175.89 162.56 348.22 522.17 1227.61 386.59 1380.00 386.17 1277.03 465.04 1244.78 569.70 1365.61 571.65
00008578 00000018 1171.12 156.36 349.29 529.33 1226.55 389.03 1379.57 390.21 1272.12 467.79 1240.99 564.45 1358.81 567.49
00008579 00000019 1169.26 156.58 350.10 529.21 1224.80 389.43 1377.70 388.92 1270.63 466.83 1240.31 564.89 1358.12 566.56
00008580 00000020 1169.17 157.98 348.84 528.56 1224.25 390.46 1376.95 389.72 1269.73 467.10 1239.30 566.11 1356.58 567.65
00008581 00000021 1167.72 157.95 348.24 532.40 1223.19 390.90 1375.92 390.66 1269.20 467.32 1238.61 569.30 1354.87 571.34
00008582 00000022 1166.07 156.14 347.15 538.21 1221.69 390.27 1372.98 390.11 1268.06 467.38 1236.81 572.76 1349.98 575.03
00008583 00000023 1164.02 152.79 347.36 540.46 1220.51 388.14 1372.89 387.40 1268.31 464.49 1236.01 571.77 1349.18 573.56
00008584 00000024 1162.83 145.86 347.06 544.14 1220.13 383.16 1371.62 383.94 1270.48 461.71 1235.79 566.30 1348.66 569.18
00008585 00000025 1160.30 141.51 349.59 544.24 1219.89 376.56 1370.58 377.69 1269.99 457.17 1234.10 559.23 1348.12 562.14
00008586 00000026 1159.81 146.93 348.44 535.29 1227.69 373.08 1379.15 368.61 1271.36 437.79 1237.17 559.69 1348.06 556.03
00008587 00000027 1159.50 142.79 347.80 535.12 1227.01 370.28 1378.50 365.38 1270.68 435.18 1237.00 556.04 1348.10 552.10
00008588 00000028 1159.34 140.67 346.10 534.10 1227.67 368.75 1378.05 363.24 1270.75 432.25 1237.94 554.35 1347.93 549.91
00008589 00000029 1160.48 142.78 344.61 531.26 1227.06 368.83 1377.80 362.91 1270.88 432.81 1238.45 554.30 1349.45 549.42
00008590 00000030 1161.59 143.34 345.18 533.10 1227.74 369.97 1379.06 364.23 1272.10 435.58 1240.10 556.09 1352.40 551.23
00008591 00000031 1161.44 135.96 346.61 544.42 1219.83 373.15 1374.16 370.54 1272.22 449.56 1235.30 554.59 1354.68 554.72
00008592 00000032 1158.09 140.90 351.09 542.61 1217.16 375.76 1372.32 372.50 1271.26 455.91 1235.47 558.29 1355.44 557.49
00008593 00000033 1159.06 142.19 349.97 542.63 1216.88 377.50 1370.34 374.49 1269.20 458.63 1235.90 559.72 1354.59 559.02
00008594 00000034 1157.59 143.01 351.06 541.75 1215.95 378.20 1370.70 374.65 1269.06 458.56 1235.06 558.88 1356.14 557.59
00008595 00000035 1156.98 141.90 352.06 542.24 1215.83 377.35 1372.02 373.85 1270.05 457.56 1234.83 558.11 1357.34 556.84
00008596 00000036 1158.13 141.13 350.62 542.32 1216.79 376.83 1372.52 372.23 1271.17 455.51 1235.63 557.64 1357.74 555.66
00008597 00000037 1160.00 139.45 348.27 546.22 1218.34 376.08 1372.50 370.90 1272.81 454.52 1237.61 558.80 1357.64 556.65
00008598 00000038 1161.99 138.27 346.69 550.42 1219.64 374.78 1372.33 369.28 1272.92 453.62 1238.77 559.33 1357.86 557.11
00008599 00000039 1162.61 138.21 345.81 551.55 1220.25 374.26 1373.29 368.34 1273.74 453.18 1239.39 559.88 1358.50 557.50
00008600 00000040 1163.20 137.40 345.75 553.70 1220.83 374.06 1373.40 368.72 1273.85 453.47 1239.52 560.07 1358.35 558.21
00008601 00000041 1163.84 138.50 345.34 553.00 1220.85 374.38 1373.06 368.66 1273.71 453.94 1240.29 560.94 1358.46 558.85
00008602 00000042 1163.61 138.50 345.79 554.28 1221.20 374.56 1372.95 369.07 1274.53 454.65 1241.27 561.59 1358.89 559.66
00008603 00000043 1162.78 140.71 347.46 552.38 1221.26 375.48 1372.34 370.54 1274.19 456.04 1241.71 561.86 1358.55 560.26
00008604 00000044 1162.63 140.47 348.24 554.31 1221.43 375.71 1372.21 371.38 1274.28 457.87 1242.48 562.75 1359.10 561.59
00008605 00000045 1162.01 142.46 348.40 552.74 1221.43 376.65 1372.58 372.20 1275.20 458.29 1243.10 563.30 1359.96 562.02
00008606 00000046 1162.00 141.98 348.50 553.15 1221.39 376.51 1372.43 372.20 1274.98 458.53 1243.01 563.18 1359.72 562.02
00008607 00000047 1161.47 142.28 349.12 552.25 1220.79 376.63 1372.85 371.73 1274.85 458.14 1242.81 562.95 1360.70 561.24
00008608 00000048 1160.42 140.38 349.96 552.11 1218.83 379.64 1371.93 372.77 1273.86 457.04 1241.30 562.58 1361.01 559.10
00008609 00000049 1158.93 141.60 352.90 545.03 1217.31 381.63 1373.00 374.77 1272.83 458.76 1239.77 559.86 1363.35 555.90
00008610 00000050 1155.68 143.57 355.87 537.66 1215.53 382.51 1372.32 375.37 1272.01 458.78 1238.97 557.24 1363.73 552.58
00008611 00000051 1155.88 142.70 355.30 537.83 1215.64 382.99 1371.00 376.85 1271.85 459.23 1238.56 557.58 1360.89 553.74
00008612 00000052 1156.75 144.50 354.34 539.73 1216.23 384.72 1368.79 377.72 1271.33 460.65 1240.29 560.05 1360.07 555.75
00008613 00000053 1158.76 145.10 352.80 540.67 1216.51 384.44 1368.76 377.68 1270.61 461.61 1240.92 562.66 1359.25 558.72
00008614 00000054 1158.27 144.72 351.69 542.01 1217.09 382.67 1368.03 376.65 1270.85 460.17 1240.42 563.02 1355.99 559.93
00008615 00000055 1158.21 143.63 351.71 541.01 1217.24 381.63 1368.66 374.84 1271.98 458.65 1241.45 561.76 1357.12 558.00
00008616 00000056 1158.20 144.10 351.90 540.91 1217.32 382.36 1368.64 375.13 1271.96 459.08 1242.01 561.13 1358.71 556.93
00008617 00000057 1158.27 143.89 350.89 544.94 1217.07 382.25 1367.25 376.06 1271.00 460.49 1241.10 563.74 1356.16 560.55
00008618 00000058 1159.74 144.91 350.00 548.28 1217.13 383.02 1366.26 376.48 1269.66 461.51 1241.08 566.00 1356.54 562.61
00008619 00000059 1155.62 144.39 354.50 540.77 1214.92 383.03 1369.52 377.56 1269.58 461.03 1237.30 561.87 1357.83 558.84
00008620 00000060 1154.06 142.87 353.96 535.82 1213.93 379.87 1369.26 376.53 1267.96 458.52 1233.43 554.88 1356.25 553.29
00008621 00000061 1155.14 142.06 351.61 532.10 1215.26 371.99 1372.31 370.51 1270.41 453.64 1232.90 550.67 1355.65 550.82
00008622 00000062 1156.06 139.92 351.48 529.43 1216.45 369.38 1375.75 367.51 1273.90 450.38 1235.45 547.58 1359.22 547.51
00008623 00000063 1158.23 138.33 350.42 531.02 1220.12 369.44 1378.91 365.89 1278.95 450.07 1240.66 546.79 1365.15 545.45
00008624 00000064 1157.88 141.82 351.59 529.61 1218.91 373.22 1377.21 365.84 1279.20 453.98 1244.13 549.87 1368.16 545.06
00008625 00000065 1154.42 144.36 354.07 532.36 1217.08 378.19 1373.55 369.06 1278.37 458.07 1245.15 555.29 1367.58 548.92
00008626 00000066 1148.13 151.59 356.30 536.62 1211.63 383.48 1365.67 372.22 1272.61 462.41 1241.86 563.56 1361.97 555.57
00008627 00000067 1145.37 157.20 352.48 532.72 1204.50 385.41 1360.53 376.06 1263.37 465.56 1232.54 568.64 1350.89 562.22
00008628 00000068 1139.33 160.77 352.16 530.83 1199.02 384.99 1353.75 372.94 1253.00 469.31 1227.46 574.88 1347.59 565.54
00008629 00000069 1130.16 158.94 354.93 537.66 1189.10 388.31 1344.55 374.28 1242.60 471.44 1222.39 578.00 1342.93 566.85
00008630 00000070 1124.19 161.83 356.21 537.88 1181.52 391.29 1339.15 375.82 1237.28 476.48 1218.14 582.00 1340.23 569.70
00008631 00000071 1127.75 163.00 353.94 531.44 1180.66 396.76 1335.51 384.02 1239.54 486.24 1214.18 579.85 1341.61 570.57
00008632 00000072 1127.10 164.42 351.49 529.01 1180.18 396.58 1335.07 386.34 1240.33 488.15 1214.12 580.85 1340.57 573.55
00008633 00000073 1127.16 161.51 350.19 529.19 1179.73 395.33 1334.66 385.60 1239.51 487.13 1212.79 579.20 1339.40 572.23
00008634 00000074 1126.09 158.49 351.29 529.08 1178.89 393.88 1335.63 383.60 1239.63 484.16 1211.01 577.55 1339.70 570.24
00008635 00000075 1126.51 157.80 350.74 526.64 1179.73 391.16 1336.18 380.49 1241.24 480.34 1209.58 573.06 1339.31 565.74
00008636 00000076 1127.58 154.36 349.29 527.44 1181.20 389.07 1337.92 378.70 1244.44 476.83 1211.72 571.04 1340.94 563.97
00008637 00000077 1129.55 152.37 348.94 528.02 1182.65 383.22 1342.85 372.46 1247.89 470.30 1213.73 568.61 1344.45 561.30
00008638 00000078 1129.69 150.97 348.13 523.05 1183.18 377.04 1342.31 363.23 1251.65 462.54 1218.64 563.71 1344.65 553.94
00008639 00000079 1122.16 153.05 353.21 521.06 1184.57 372.02 1338.92 355.16 1241.09 448.30 1220.25 554.92 1335.25 542.03
00008640 DELETE   1126.96 150.08 347.26 524.26 1186.01 371.29 1339.11 361.40 1243.35 454.86 1215.44 554.75 1332.48 549.10
00008641 00000081 1121.71 150.38 349.25 529.43 1179.96 373.78 1336.03 364.31 1238.46 457.68 1211.66 558.40 1332.00 552.88
00008642 00000082 1116.49 149.52 350.52 531.54 1173.92 376.67 1330.64 367.56 1233.19 461.34 1207.22 560.18 1327.94 554.56
00008643 00000083 1114.13 154.31 351.15 523.52 1172.25 378.62 1327.24 367.58 1232.25 461.11 1206.27 558.73 1326.53 551.25
00008644 00000084 1114.33 157.72 349.30 517.49 1170.50 380.61 1324.45 368.43 1229.45 462.09 1204.54 557.38 1325.34 548.79
00008645 00000085 1114.14 157.49 347.95 518.42 1169.40 381.70 1322.69 369.05 1228.26 463.69 1203.88 557.76 1324.36 548.75
00008646 00000086 1112.90 154.33 348.42 522.54 1167.58 381.95 1321.38 370.51 1226.12 465.20 1201.71 558.06 1322.97 550.04
00008647 DELETE   1110.89 154.49 348.79 523.14 1165.86 381.99 1320.18 370.21 1224.96 465.28 1200.82 558.96 1322.06 550.75
00008648 DELETE   1108.30 153.55 348.20 524.53 1163.03 381.98 1317.29 369.18 1222.60 464.75 1199.01 558.96 1320.53 549.99
00008649 00000089 1103.52 153.44 350.15 525.62 1157.90 383.11 1311.99 370.05 1216.28 465.67 1194.32 559.64 1316.05 550.20
00008650 00000090 1100.82 155.00 350.22 526.08 1152.73 385.22 1305.19 370.45 1208.84 466.31 1189.32 561.28 1309.86 550.61
00008651 00000091 1098.41 155.75 351.23 527.48 1151.38 384.89 1303.49 371.95 1205.55 466.75 1184.90 561.32 1305.37 552.25
00008652 00000092 1096.24 150.91 351.12 533.71 1151.38 382.89 1303.33 370.37 1206.74 463.18 1184.04 562.52 1301.42 554.14
00008653 00000093 1094.73 145.98 348.69 538.55 1151.54 379.77 1302.16 367.90 1206.71 459.66 1182.53 562.56 1296.86 555.07
00008654 00000094 1090.21 144.12 350.86 540.83 1149.54 379.72 1300.96 368.25 1206.03 459.65 1180.05 561.99 1295.70 554.53
00008655 00000095 1085.57 147.08 352.77 537.70 1144.59 381.66 1299.59 370.23 1201.04 460.32 1173.71 562.92 1294.41 555.19
00008656 00000096 1083.79 149.06 353.36 533.69 1142.39 382.03 1296.70 370.11 1197.93 462.37 1172.20 560.39 1293.93 552.09
00008657 00000097 1082.65 151.50 354.13 526.38 1140.89 382.80 1296.22 369.37 1197.69 461.30 1173.40 556.78 1297.39 546.83
00008658 00000098 1082.02 148.69 353.62 529.15 1140.29 381.78 1296.28 368.87 1196.96 459.62 1171.76 556.35 1296.39 546.90
00008659 00000099 1080.82 152.44 353.78 535.72 1139.74 382.43 1294.87 369.20 1195.26 460.90 1169.06 560.72 1294.56 551.25
00008660 00000100 1080.22 155.30 352.72 545.99 1138.89 382.27 1289.15 368.07 1191.78 461.59 1169.18 567.74 1290.03 557.96
00008661 00000101 1080.66 158.63 350.41 543.41 1137.30 380.06 1294.20 361.43 1186.14 457.90 1167.31 574.71 1293.86 559.65
00008662 00000102 1079.49 156.99 350.94 549.65 1135.98 379.09 1292.86 360.14 1184.40 456.66 1168.23 575.22 1294.85 559.65
00008663 00000103 1078.78 157.77 349.92 548.73 1136.30 376.78 1293.05 359.49 1185.29 454.31 1166.19 573.68 1292.74 559.54
00008664 00000104 1076.14 156.47 348.88 543.18 1134.19 374.91 1290.79 358.62 1184.22 453.32 1161.87 569.67 1288.75 556.65
00008665 00000105 1074.28 157.80 346.56 534.79 1130.94 371.52 1287.65 356.12 1181.71 450.16 1156.59 563.88 1286.25 551.75
00008666 00000106 1073.33 156.57 346.29 532.56 1128.52 370.69 1286.16 354.68 1179.62 449.80 1153.91 561.92 1285.17 549.29
00008667 00000107 1071.91 156.27 348.68 530.69 1128.22 372.67 1285.64 356.70 1179.73 452.13 1154.00 561.41 1284.40 548.82
00008668 00000108 1071.97 155.21 349.28 528.74 1127.79 372.74 1286.15 355.99 1179.30 451.42 1153.28 560.50 1284.67 547.32
00008669 00000109 1073.18 146.83 345.20 528.61 1127.53 369.78 1286.93 361.11 1184.39 449.97 1151.51 551.37 1279.84 545.56
00008670 00000110 1072.68 144.90 345.79 523.61 1129.65 367.71 1287.94 359.25 1187.96 445.32 1153.40 549.08 1277.33 543.57
00008671 00000111 1073.24 144.21 347.17 519.45 1130.17 364.82 1288.74 357.98 1187.80 443.11 1153.08 544.79 1277.72 540.59
00008672 00000112 1073.90 143.12 348.15 518.42 1132.05 364.76 1289.75 358.90 1189.88 442.38 1154.46 542.26 1278.94 538.84
00008673 00000113 1074.38 141.41 350.09 521.45 1134.02 364.41 1291.99 359.96 1192.52 444.04 1156.03 541.95 1281.15 539.55
00008674 00000114 1077.37 142.16 350.13 523.40 1135.88 364.65 1293.76 360.42 1193.89 447.13 1158.43 543.77 1283.24 541.50
00008675 00000115 1080.59 143.45 351.39 524.83 1138.63 367.30 1294.90 363.10 1196.29 451.40 1161.80 546.01 1285.16 543.57
00008676 00000116 1083.41 143.07 350.84 528.30 1142.13 370.46 1296.80 365.50 1198.21 452.80 1165.56 548.41 1286.97 545.60
00008677 00000117 1084.56 141.38 350.93 529.97 1143.10 370.48 1297.84 365.78 1198.82 453.10 1166.64 548.94 1288.03 546.37
00008678 00000118 1086.65 141.62 350.01 528.86 1145.43 369.57 1299.81 364.92 1201.22 451.30 1168.73 547.90 1289.26 545.62
00008679 00000119 1089.85 140.97 349.23 530.20 1147.79 369.94 1300.78 365.21 1202.03 451.11 1170.74 546.78 1291.21 544.58
00008680 00000120 1092.69 141.38 347.91 532.51 1151.10 370.75 1302.50 364.95 1204.13 451.60 1173.53 548.17 1292.22 545.32
00008681 00000121 1092.22 140.13 348.82 540.75 1149.67 372.07 1305.15 364.78 1203.48 454.24 1173.34 554.68 1295.95 550.68
00008682 00000122 1091.27 138.56 350.50 540.43 1150.93 368.76 1307.24 362.87 1205.24 450.91 1172.92 551.27 1296.76 548.44
00008683 00000123 1091.36 136.80 350.56 533.06 1151.77 363.63 1308.37 358.45 1205.41 442.11 1170.38 543.10 1294.42 541.11
00008684 00000124 1090.15 132.85 350.94 528.87 1150.59 360.50 1308.24 353.60 1204.34 430.15 1168.74 537.39 1293.87 534.24
00008685 00000125 1093.13 130.30 348.18 527.54 1151.07 358.59 1307.40 352.49 1201.75 427.17 1167.38 534.34 1292.16 532.03
00008686 00000126 1096.02 132.17 345.68 527.10 1153.11 359.28 1307.68 352.54 1201.05 428.08 1168.54 535.00 1291.91 532.36
00008687 00000127 1097.17 132.03 346.09 528.59 1154.43 360.16 1308.52 353.72 1201.25 428.58 1169.72 536.41 1292.42 533.95
00008688 00000128 1099.45 135.17 345.04 522.40 1155.58 359.74 1309.72 355.11 1201.19 430.71 1169.49 533.60 1294.14 532.51
00008689 00000129 1102.88 136.32 343.45 520.97 1156.70 359.72 1310.48 356.83 1202.23 436.52 1170.76 533.73 1294.60 534.02
00008690 00000130 1104.32 141.21 343.53 521.17 1158.12 361.43 1312.07 358.21 1206.57 443.50 1175.29 537.76 1297.27 537.67
00008691 00000131 1103.62 143.17 346.11 525.59 1160.44 365.28 1313.84 361.57 1212.12 447.77 1180.59 544.06 1299.94 543.34
00008692 00000132 1105.21 144.62 346.82 526.37 1160.50 367.66 1314.34 363.55 1210.41 451.95 1181.09 546.14 1301.62 544.96
00008693 00000133 1104.57 145.56 347.70 523.89 1159.80 367.95 1314.69 362.49 1210.61 450.09 1180.90 545.56 1302.99 543.14
00008694 00000134 1101.51 143.05 350.86 523.18 1159.27 366.18 1314.67 361.77 1210.71 446.70 1180.06 541.94 1302.74 540.29
00008695 00000135 1100.79 142.93 353.08 520.29 1157.86 364.34 1314.16 359.88 1207.76 444.29 1177.94 538.25 1303.64 536.46
00008696 00000136 1101.62 143.28 352.61 520.24 1158.16 364.31 1313.63 359.29 1207.91 444.36 1179.14 538.10 1304.73 535.83
00008697 00000137 1104.23 144.42 351.18 518.85 1160.52 364.96 1315.04 360.25 1210.93 445.69 1181.92 538.39 1306.23 536.38
00008698 00000138 1108.41 144.98 348.52 518.77 1163.16 364.74 1316.71 358.48 1214.19 444.90 1186.10 541.35 1306.39 538.58
00008699 00000139 1112.63 144.89 348.16 518.62 1167.44 363.06 1321.20 356.96 1219.12 444.89 1190.70 542.79 1308.71 540.57
00008700 00000140 1117.40 146.01 348.20 518.66 1172.31 363.19 1325.69 357.04 1224.52 447.58 1195.80 544.71 1313.87 542.62
00008701 00000141 1121.18 145.57 346.69 527.56 1177.29 368.28 1330.70 361.94 1230.49 448.28 1200.34 549.26 1319.74 546.64
00008702 DELETE   1123.92 150.18 350.73 528.51 1182.97 374.68 1337.35 366.41 1236.02 448.57 1205.89 552.68 1330.06 548.16
00008703 DELETE   1125.53 156.59 354.01 529.34 1184.70 378.26 1343.49 362.38 1237.61 448.57 1215.27 560.83 1337.93 548.32
00008704 00000144 1131.93 152.77 352.22 531.35 1192.15 379.92 1351.20 364.34 1244.57 451.19 1218.45 561.70 1344.21 549.51
00008705 00000145 1135.87 152.57 351.38 528.36 1197.63 377.81 1355.95 364.59 1249.78 450.93 1220.92 559.44 1346.45 549.29
00008706 00000146 1137.91 149.59 349.41 531.50 1199.43 374.23 1359.09 363.79 1251.18 450.49 1220.72 558.30 1347.38 550.45
00008707 00000147 1136.37 149.96 351.73 533.68 1198.57 376.90 1357.22 364.87 1250.07 449.73 1221.18 559.42 1346.14 550.23
00008708 00000148 1134.65 154.24 351.42 533.34 1196.75 380.61 1354.82 368.12 1247.82 450.74 1220.24 562.42 1344.54 552.82
00008709 00000149 1134.43 152.11 349.72 538.87 1196.02 382.98 1354.98 371.46 1246.49 454.90 1219.53 565.67 1343.46 556.83
00008710 00000150 1135.27 151.96 348.50 541.22 1195.97 383.71 1353.82 374.34 1246.15 461.29 1218.51 568.48 1342.80 561.52
00008711 00000151 1133.61 154.14 349.42 540.96 1195.67 383.26 1353.32 377.15 1245.81 463.99 1217.49 569.28 1341.38 564.86
00008712 00000152 1133.29 155.01 349.67 539.40 1194.95 383.69 1352.68 378.81 1244.16 466.18 1215.43 568.45 1341.63 564.91
00008713 00000153 1133.69 154.70 347.99 537.36 1194.57 384.18 1351.15 379.50 1242.21 466.89 1214.27 567.86 1339.57 564.55
00008714 00000154 1133.50 154.70 347.79 536.54 1195.10 383.28 1351.78 379.28 1242.44 465.25 1214.54 567.06 1337.48 564.41
00008715 00000155 1131.74 153.96 347.67 536.99 1193.65 383.25 1350.88 377.94 1242.99 464.71 1214.87 567.54 1336.35 563.96
00008716 00000156 1129.95 154.99 348.31 535.99 1192.79 381.33 1349.65 375.94 1243.52 463.12 1215.17 566.63 1335.66 562.98
00008717 00000157 1127.73 152.84 350.01 537.11 1190.31 379.97 1348.32 373.39 1242.24 462.49 1214.57 565.81 1335.26 561.20
00008718 00000158 1127.42 154.33 349.45 534.39 1188.13 379.75 1346.12 372.23 1240.27 462.24 1212.84 565.45 1333.40 560.28
00008719 00000159 1130.65 146.63 346.48 536.49 1185.18 381.06 1344.57 374.59 1247.47 464.55 1209.48 565.21 1340.52 561.56
00008720 00000160 1127.29 147.59 348.60 534.24 1182.41 382.66 1342.34 376.61 1244.78 466.53 1206.05 564.89 1338.92 561.49
00008721 00000161 1124.39 148.76 350.45 533.89 1179.68 385.34 1338.79 379.22 1241.17 467.44 1203.47 565.43 1337.11 561.79
00008722 00000162 1121.79 150.22 350.76 533.91 1176.59 388.85 1335.46 381.38 1237.67 469.39 1201.22 567.44 1336.21 562.66
