Video ID: 	ioZKlIXwMa0
H: 	1080
W: 	1080
FPS: 	25.0

FRAME INDEX X0 Y0 W H [Landmarks (5 Points)]

00003516 00000000 411.61 140.55 359.01 531.18 503.45 346.20 656.00 335.78 580.48 423.37 531.84 531.22 650.51 522.46
00003517 00000001 412.33 137.42 354.88 526.59 504.47 343.85 658.93 331.82 585.12 416.75 531.64 524.59 658.02 514.46
00003518 00000002 406.81 125.47 361.91 529.39 501.26 332.56 656.45 317.95 581.06 404.80 530.07 515.16 656.07 503.24
00003519 00000003 404.71 119.99 364.44 532.45 498.85 325.24 652.14 311.30 576.20 398.04 527.43 509.44 652.50 498.44
00003520 00000004 401.22 119.83 367.05 535.97 495.71 324.75 649.58 310.45 572.36 397.54 523.60 510.97 648.82 499.52
00003521 00000005 399.39 122.80 368.84 545.14 492.60 329.75 648.90 314.14 569.83 401.76 521.77 521.06 646.29 508.50
00003522 00000006 392.18 130.82 371.25 541.48 482.42 336.47 650.41 319.22 568.63 413.63 519.49 531.83 650.70 516.71
00003523 00000007 389.71 134.05 374.94 545.71 480.45 341.94 648.89 326.08 567.79 423.02 517.77 538.37 650.01 524.49
00003524 00000008 393.10 139.00 376.64 546.40 485.85 346.17 646.11 331.75 563.37 429.42 517.82 540.88 643.06 528.28
00003525 00000009 392.64 141.29 379.00 550.39 484.26 350.59 645.79 335.67 562.11 434.41 516.45 546.31 644.28 533.24
00003526 00000010 391.88 143.54 383.64 561.84 484.01 357.38 647.39 342.50 562.44 442.26 520.53 554.17 648.32 539.99
00003527 00000011 392.64 146.18 381.83 566.38 481.35 362.78 646.87 347.84 560.77 449.03 515.47 557.85 653.72 543.31
00003528 00000012 393.37 148.48 380.46 569.62 479.39 369.00 646.57 354.10 556.32 455.44 512.26 563.69 654.56 549.27
00003529 00000013 387.73 159.07 380.01 563.19 474.66 377.13 641.93 362.51 551.74 462.70 497.89 569.92 646.67 556.18
00003530 DELETE   378.81 165.85 383.62 559.01 468.16 384.18 635.59 370.66 544.64 468.94 490.41 573.96 640.64 561.22
00003531 DELETE   371.87 172.10 382.76 551.57 458.42 389.99 626.13 373.86 535.27 473.01 483.61 575.01 634.75 560.06
00003532 00000016 366.85 172.38 381.47 542.69 446.26 394.41 615.92 377.58 522.84 476.68 473.55 574.88 624.02 559.58
00003533 00000017 361.34 177.42 377.05 541.42 444.75 395.04 609.29 376.34 518.60 473.48 469.77 573.47 619.29 556.73
00003534 00000018 355.88 181.71 376.74 534.79 438.37 395.85 601.30 375.59 512.01 473.80 465.99 573.56 612.53 555.76
00003535 00000019 353.91 178.61 376.88 534.91 430.55 397.15 595.79 375.16 504.44 475.77 461.89 575.10 609.40 555.31
00003536 00000020 355.11 175.22 370.90 544.35 433.82 394.74 597.65 373.97 512.41 476.42 465.08 576.92 614.29 558.91
00003537 00000021 356.48 184.41 371.03 529.38 431.22 398.55 593.92 376.36 503.82 478.96 464.99 578.38 608.14 558.44
00003538 00000022 358.42 188.93 367.77 524.99 432.42 399.41 594.04 377.76 504.97 480.37 467.40 579.89 607.21 560.53
00003539 00000023 358.33 191.72 366.86 523.25 433.15 400.19 594.20 379.29 505.80 482.70 469.16 581.98 606.23 563.22
00003540 00000024 358.35 193.87 365.05 520.96 433.41 400.84 593.48 380.01 505.96 484.40 470.70 583.03 604.96 564.52
00003541 00000025 358.77 195.78 363.71 516.66 434.28 401.14 592.96 381.06 506.38 484.03 471.92 582.24 601.83 564.67
00003542 00000026 357.82 194.04 358.21 520.24 435.77 400.74 593.31 380.57 514.00 482.13 471.31 580.85 607.37 563.63
00003543 00000027 358.44 193.64 359.98 506.01 430.94 400.68 589.79 379.19 503.31 476.77 465.73 575.03 598.82 556.24
00003544 00000028 358.76 192.39 358.95 503.92 431.03 399.09 587.35 377.19 500.95 471.36 464.05 569.24 596.06 550.24
00003545 00000029 358.94 191.50 357.60 505.88 429.32 397.26 585.42 374.84 496.85 467.48 460.88 566.48 594.75 547.00
00003546 00000030 358.29 190.60 358.29 505.99 428.63 394.12 582.74 372.01 494.31 464.64 459.52 561.89 592.77 542.62
00003547 00000031 357.77 186.63 359.62 509.91 427.33 392.44 581.38 368.49 492.64 460.53 457.73 558.02 595.44 536.83
00003548 00000032 357.61 182.46 361.11 508.02 426.45 388.72 580.95 363.00 492.71 456.02 456.49 552.25 598.33 529.65
00003549 00000033 358.43 177.90 361.21 505.99 425.63 383.50 580.24 357.55 492.92 452.45 454.26 546.25 599.88 523.59
00003550 00000034 358.39 172.90 362.55 507.15 427.83 377.89 580.44 352.87 493.14 446.41 455.59 540.58 599.47 518.80
00003551 00000035 358.26 170.31 363.67 509.52 427.96 374.05 581.58 349.46 493.58 442.30 453.71 537.23 601.18 515.81
00003552 00000036 358.20 168.10 364.13 512.40 427.53 372.97 581.98 347.08 493.50 438.84 452.39 536.24 602.68 513.64
00003553 00000037 358.21 168.74 365.04 513.20 427.27 373.42 582.36 347.08 493.26 439.11 452.44 537.16 603.16 514.19
00003554 00000038 357.10 168.97 366.91 515.52 428.37 374.16 583.24 349.90 494.25 442.80 453.06 538.93 602.59 517.69
00003555 00000039 357.55 171.00 366.73 518.83 427.88 376.91 583.30 353.12 493.67 447.33 451.86 542.04 603.46 521.11
00003556 00000040 357.80 172.37 367.16 520.68 427.76 380.30 584.72 356.01 494.18 450.77 451.79 545.63 604.72 524.27
00003557 00000041 356.80 174.67 368.03 521.69 427.83 383.95 585.40 360.17 495.06 453.70 451.67 548.88 604.55 527.86
00003558 00000042 356.40 179.89 367.19 521.63 428.10 387.74 585.75 365.12 494.67 456.75 450.07 552.57 602.81 532.31
00003559 00000043 357.38 183.90 365.50 519.10 429.07 393.12 586.95 371.25 494.98 461.42 450.87 557.88 602.01 538.10
00003560 00000044 357.85 187.13 364.77 517.38 429.37 396.66 588.03 375.94 496.83 465.68 450.18 559.76 603.33 540.74
00003561 00000045 358.25 187.84 363.59 517.00 430.01 396.77 589.16 377.08 498.22 467.00 450.13 560.01 604.08 541.85
00003562 00000046 358.20 186.11 364.63 518.87 431.36 395.28 590.57 376.81 499.85 467.00 451.87 560.30 602.70 543.37
00003563 00000047 358.42 185.84 365.14 520.39 433.20 393.00 592.15 374.93 501.64 465.99 454.75 561.31 601.95 544.85
00003564 00000048 360.28 183.72 363.82 522.86 435.31 390.77 594.77 374.28 503.53 465.37 457.60 562.93 600.84 548.09
00003565 00000049 360.48 183.42 364.22 526.20 436.59 390.11 596.33 375.08 504.79 466.30 458.84 565.00 600.35 551.48
00003566 00000050 361.27 183.85 363.66 523.02 437.74 391.76 598.02 378.26 507.24 470.53 463.53 569.67 598.41 557.74
00003567 00000051 360.71 185.75 363.40 519.95 436.59 394.72 597.16 381.26 507.20 475.49 463.44 573.57 596.81 561.91
00003568 00000052 360.40 189.32 362.85 514.90 435.24 397.25 597.78 384.84 507.79 481.34 464.53 576.91 595.29 566.22
00003569 00000053 359.41 191.15 363.43 519.69 433.88 399.39 597.22 385.69 506.80 483.84 463.65 580.78 595.98 569.00
00003570 00000054 356.35 193.91 368.40 526.51 438.42 399.00 596.23 382.50 509.29 482.36 465.42 577.42 601.28 563.26
00003571 00000055 356.18 193.46 368.88 529.93 438.03 398.93 596.62 381.95 509.76 482.23 461.13 575.08 607.03 560.21
00003572 00000056 357.56 193.76 369.76 529.84 439.76 397.63 598.98 381.69 511.27 479.36 460.64 572.87 609.42 558.79
00003573 00000057 360.75 191.78 367.52 529.76 442.19 397.15 600.19 381.94 512.65 477.79 461.80 571.01 611.42 557.41
00003574 00000058 363.05 191.42 365.64 529.79 444.51 397.71 602.46 382.39 515.11 476.54 463.45 569.94 614.45 556.09
00003575 00000059 366.18 191.99 364.59 527.61 446.90 398.15 605.11 383.62 517.69 477.34 464.37 569.59 616.23 556.49
00003576 00000060 368.63 192.79 363.18 526.45 448.24 398.11 606.53 384.12 518.95 477.51 464.59 569.35 617.57 556.80
00003577 00000061 369.90 192.13 361.13 523.53 444.84 400.13 604.34 385.83 515.09 475.93 462.98 568.41 614.96 554.83
00003578 00000062 370.17 190.96 360.41 521.53 444.60 399.32 603.56 385.88 514.58 475.19 462.02 566.32 612.70 553.60
00003579 00000063 370.55 190.77 359.44 519.00 444.01 399.01 602.74 385.27 513.52 474.77 462.23 565.48 611.98 552.51
00003580 00000064 369.94 190.26 359.44 518.11 443.66 398.48 601.96 384.39 513.20 474.29 462.81 565.33 610.98 552.13
00003581 00000065 370.16 189.51 358.17 518.14 443.11 398.33 601.72 383.72 512.53 474.11 463.10 566.57 609.67 553.04
00003582 00000066 369.20 188.66 359.25 518.83 442.58 396.97 601.13 383.42 511.08 474.97 465.47 570.18 604.89 557.92
00003583 00000067 366.75 187.37 360.78 514.21 441.52 396.01 600.33 383.30 511.06 474.66 467.44 570.90 601.19 559.61
00003584 00000068 365.25 186.91 361.79 513.51 440.73 394.97 598.99 381.96 510.23 472.91 467.08 569.43 599.93 557.93
00003585 00000069 364.84 186.31 361.24 515.85 440.18 394.21 598.97 381.10 509.24 471.29 466.08 569.47 599.64 557.87
00003586 00000070 363.53 186.99 361.49 520.65 441.04 392.77 597.65 379.31 508.53 468.96 466.85 568.66 598.87 556.78
00003587 00000071 363.47 187.14 359.84 519.98 439.87 392.84 597.18 378.80 507.10 468.31 465.63 568.68 598.91 556.29
00003588 00000072 361.78 188.16 359.76 521.75 438.20 392.74 596.69 378.91 505.77 469.24 465.39 571.82 596.70 559.76
00003589 00000073 361.71 188.92 358.28 525.64 437.91 391.73 595.45 378.63 504.78 469.90 465.85 577.26 590.16 566.26
00003590 00000074 356.97 189.99 364.12 529.30 441.99 389.82 593.40 376.23 508.37 470.24 470.80 577.80 588.67 565.96
00003591 00000075 356.47 190.28 364.49 530.92 441.43 389.89 592.39 375.81 507.12 469.13 470.61 579.40 587.96 567.07
00003592 00000076 356.06 190.20 364.70 530.60 441.13 388.50 592.32 374.42 507.14 467.25 470.71 579.61 586.73 567.24
00003593 00000077 355.78 188.96 365.95 528.84 440.57 386.62 594.13 372.58 507.30 464.59 469.91 577.56 586.30 565.25
00003594 00000078 360.42 185.67 360.58 527.74 437.24 386.90 593.81 374.54 501.58 463.47 465.60 577.99 580.32 567.97
00003595 00000079 360.33 184.90 360.70 525.01 437.51 386.69 593.54 374.72 501.21 463.81 466.37 577.43 579.01 567.71
00003596 00000080 360.71 185.59 360.39 524.56 437.25 386.70 593.85 375.19 501.28 464.92 466.24 578.32 579.06 569.01
00003597 00000081 361.09 187.51 359.69 523.58 437.58 388.09 593.25 376.57 501.41 468.19 467.87 579.43 580.53 570.12
00003598 00000082 361.12 188.86 360.56 520.67 436.82 392.07 593.55 379.67 501.85 473.55 468.83 583.19 581.61 573.21
00003599 00000083 361.68 191.49 361.44 511.76 433.59 398.62 595.08 384.82 502.95 484.02 469.22 587.82 585.33 576.60
00003600 00000084 361.72 198.15 362.17 510.16 432.94 403.25 595.25 388.95 503.12 492.30 468.84 593.14 586.61 581.47
00003601 00000085 357.62 201.30 368.08 520.29 439.53 407.52 592.75 391.00 507.73 492.31 472.70 594.55 587.92 580.87
00003602 00000086 355.09 206.37 371.21 524.80 439.24 409.84 593.12 394.06 508.12 496.69 471.74 598.42 590.46 585.38
00003603 00000087 355.14 207.54 371.26 524.55 438.98 411.59 593.51 396.25 507.93 499.35 470.25 599.39 591.58 586.78
00003604 00000088 354.51 206.96 371.24 524.43 437.84 412.27 593.06 396.46 507.81 500.44 470.52 599.15 593.10 586.07
00003605 00000089 354.54 207.01 370.50 522.44 436.27 413.00 593.47 397.29 506.60 501.05 466.71 597.01 594.73 584.06
00003606 00000090 354.61 208.23 369.32 517.61 434.39 414.12 593.22 398.91 504.72 501.84 460.28 592.33 595.47 579.66
00003607 00000091 355.47 207.21 367.33 513.77 434.56 413.28 592.26 397.53 504.30 499.23 459.26 587.40 596.75 574.08
00003608 00000092 355.80 205.81 366.88 514.27 434.66 411.32 593.02 395.18 504.88 495.28 458.26 585.30 596.95 571.71
00003609 00000093 356.26 203.65 367.23 516.03 435.76 409.70 594.83 393.89 506.63 494.62 458.62 584.18 598.39 570.81
00003610 00000094 358.39 202.71 364.42 519.18 433.43 411.14 595.97 395.34 507.82 497.59 460.76 587.24 604.17 572.54
00003611 00000095 355.50 205.80 368.09 515.47 436.26 412.59 595.97 396.21 509.05 496.76 460.89 587.70 600.93 573.72
00003612 00000096 353.52 211.63 360.98 512.87 431.08 413.08 593.69 397.62 508.68 497.04 460.16 590.53 603.62 576.55
00003613 00000097 351.41 209.43 360.85 513.79 428.50 411.96 590.72 394.79 506.47 493.23 458.73 589.31 601.94 573.92
00003614 00000098 350.34 203.84 359.96 518.33 426.82 407.27 590.21 390.94 504.99 486.77 455.20 585.11 600.57 570.35
00003615 00000099 346.05 198.81 362.76 521.47 424.64 401.60 589.29 385.61 505.60 481.35 452.55 579.41 600.63 565.11
00003616 00000100 342.50 195.93 364.08 523.09 423.06 400.03 587.76 383.86 505.15 475.99 449.57 575.13 600.99 560.87
00003617 00000101 340.45 193.43 364.48 524.14 422.13 397.61 584.92 381.14 502.79 472.07 447.22 571.99 599.82 557.33
00003618 00000102 338.71 192.04 364.58 524.69 421.51 395.53 582.73 379.87 501.21 469.55 445.31 568.72 597.92 554.63
00003619 00000103 336.00 188.20 366.05 526.43 420.38 391.83 580.50 376.69 498.35 464.62 443.70 565.28 594.05 551.35
00003620 00000104 336.06 184.68 364.48 525.62 420.28 388.22 578.87 372.86 496.76 458.15 442.20 559.96 591.41 545.57
00003621 00000105 335.86 180.42 363.91 525.96 419.78 385.56 578.87 369.26 497.46 453.86 441.83 556.14 593.25 540.61
00003622 00000106 335.03 178.13 363.29 526.39 418.93 382.59 577.31 366.12 497.50 452.03 442.13 554.13 592.10 538.30
00003623 00000107 333.55 178.69 363.04 525.40 417.15 382.18 574.98 365.24 495.33 452.22 440.74 553.75 590.73 537.55
00003624 00000108 331.13 179.17 361.94 527.68 415.48 383.36 571.55 366.22 492.62 453.43 438.52 554.99 587.40 538.92
00003625 00000109 329.98 181.01 361.75 525.73 414.11 383.29 569.88 367.16 490.51 454.61 436.70 555.62 584.64 540.45
00003626 00000110 329.92 182.90 362.32 523.99 414.09 384.39 569.65 369.07 490.12 456.42 436.27 557.02 583.59 542.57
00003627 00000111 330.08 185.44 361.98 520.92 414.53 385.17 570.60 370.61 490.79 458.02 436.20 557.86 583.22 544.11
00003628 00000112 331.17 184.88 360.91 521.82 415.90 385.67 572.77 372.24 492.40 457.75 435.77 557.72 583.73 544.97
00003629 00000113 331.68 183.74 359.91 523.35 416.22 384.71 574.17 371.53 493.15 456.56 436.10 558.45 583.75 545.99
00003630 00000114 331.78 182.23 359.34 523.42 415.97 382.69 574.48 369.54 493.14 454.09 437.22 558.28 582.21 545.95
00003631 00000115 337.35 174.22 356.55 518.03 415.98 380.58 572.98 365.28 484.94 451.01 433.79 556.34 570.59 543.26
00003632 00000116 335.36 174.95 351.37 506.15 411.64 374.28 570.25 359.86 484.84 445.94 435.25 551.71 572.36 539.80
00003633 00000117 334.08 167.16 359.61 518.07 415.24 369.54 570.73 354.50 483.03 438.06 435.88 547.77 567.55 535.00
00003634 00000118 334.17 164.41 359.60 524.05 414.95 366.42 569.37 350.61 481.92 432.87 436.40 547.22 567.23 533.64
00003635 00000119 332.03 167.36 355.82 512.74 410.56 366.31 570.61 351.99 484.76 434.78 432.97 545.37 572.22 533.47
00003636 00000120 332.63 168.49 354.20 509.31 411.14 368.49 570.57 354.78 484.99 435.94 432.39 544.61 572.21 533.14
00003637 00000121 332.29 172.68 356.85 515.16 413.89 371.37 574.57 357.17 492.60 435.95 438.38 551.36 574.64 538.67
00003638 00000122 332.06 175.98 359.33 523.01 417.08 371.31 575.64 358.36 494.03 439.19 439.84 552.75 576.44 540.64
00003639 00000123 332.29 173.48 361.09 528.69 416.99 372.31 576.91 358.19 494.70 439.39 439.23 552.47 581.18 539.05
00003640 00000124 331.56 172.99 361.31 530.63 418.70 369.00 575.30 354.70 493.55 434.49 439.50 549.19 580.68 535.74
00003641 00000125 331.21 171.23 362.40 532.91 419.38 362.12 574.66 348.25 491.88 423.28 440.49 544.51 579.69 531.44
00003642 00000126 328.95 163.27 362.89 540.56 418.64 353.05 571.71 337.91 488.76 408.87 441.55 540.76 575.76 526.54
00003643 00000127 328.16 157.37 361.51 545.50 418.65 345.17 571.31 332.66 484.13 396.85 437.94 535.71 569.82 523.67
00003644 00000128 336.60 151.09 357.68 538.62 422.99 338.96 572.97 330.15 478.79 401.54 433.78 527.51 563.86 520.16
00003645 00000129 337.50 150.38 356.34 535.13 422.88 337.90 573.38 328.43 479.50 398.94 434.38 524.98 563.14 517.14
00003646 00000130 332.69 147.07 357.00 528.08 418.37 337.77 572.32 330.59 483.52 397.20 431.55 521.70 565.83 515.55
00003647 00000131 333.67 150.14 358.15 519.97 417.91 340.60 573.97 332.93 483.25 399.04 431.49 520.71 570.65 513.73
00003648 00000132 335.12 152.97 357.31 512.20 416.34 344.96 575.46 336.57 484.89 404.83 433.44 522.55 572.61 514.95
00003649 00000133 335.12 154.69 356.40 510.81 416.50 348.26 576.82 340.39 488.30 412.79 432.68 525.05 573.09 518.25
00003650 00000134 336.46 158.08 354.67 510.39 417.50 352.71 577.39 344.77 489.60 420.66 433.33 529.59 574.22 522.88
00003651 00000135 338.83 164.47 352.84 508.95 416.74 359.99 576.86 351.45 488.77 431.98 434.68 537.46 574.75 530.27
00003652 00000136 336.86 171.23 356.35 519.15 417.09 371.64 578.61 359.00 494.71 443.51 440.25 552.24 579.22 540.63
00003653 00000137 336.90 176.27 356.40 528.19 418.15 381.54 579.21 370.97 493.13 458.71 441.97 567.68 577.83 558.07
00003654 00000138 337.17 188.13 359.45 530.39 425.09 393.53 579.53 384.99 494.73 476.06 446.55 578.55 572.94 571.08
00003655 00000139 338.48 197.04 362.22 530.65 421.87 404.54 577.21 393.40 491.36 489.66 445.62 590.96 571.58 581.55
00003656 00000140 332.88 207.82 363.14 520.46 410.62 411.14 573.95 398.36 489.74 501.76 443.17 598.86 573.20 588.66
00003657 00000141 330.94 210.34 362.93 521.02 408.26 415.48 571.60 402.14 487.40 507.48 441.97 603.79 571.75 593.12
00003658 00000142 330.56 212.70 362.72 519.87 407.74 417.01 570.71 403.70 486.40 508.39 440.85 604.70 570.39 594.14
00003659 00000143 329.38 211.43 363.67 522.24 406.99 416.68 570.27 403.63 485.91 508.57 439.66 604.69 569.83 594.33
00003660 00000144 328.49 211.86 363.94 520.30 406.55 415.88 569.70 402.91 485.52 507.59 439.89 603.52 569.36 593.23
00003661 00000145 327.71 211.80 364.25 519.13 406.15 415.29 569.42 402.03 485.59 506.88 440.14 602.90 569.95 592.30
00003662 00000146 327.38 211.18 364.74 520.32 405.99 415.12 569.13 401.52 485.45 506.56 439.88 602.92 569.93 592.06
00003663 00000147 327.88 210.35 364.50 520.91 406.82 416.11 569.21 402.45 486.43 506.70 440.36 602.70 570.51 591.78
00003664 00000148 329.36 207.35 366.12 531.83 413.37 423.98 569.66 409.21 487.53 504.35 443.60 609.15 567.69 596.49
00003665 00000149 330.72 206.60 364.83 528.43 413.41 427.33 569.99 413.13 486.60 505.26 441.68 608.59 567.72 596.31
00003666 00000150 333.12 207.03 362.32 517.31 412.30 422.99 569.58 409.05 486.15 504.51 441.07 601.51 569.82 589.29
CROP_BBOX: 65 0 993 915
