Video ID: 	ww364p1GQdg
H: 	2160
W: 	3840
FPS: 	24.0

FRAME INDEX X0 Y0 W H [Landmarks (5 Points)]

00006005 00000000 1457.66 306.63 833.59 1190.74 1727.87 722.41 2109.02 738.40 1949.54 964.71 1737.76 1151.14 2076.33 1163.54
00006006 00000001 1456.33 304.41 840.80 1186.03 1727.44 724.42 2113.60 739.71 1953.51 967.19 1740.70 1150.12 2081.63 1161.59
00006007 00000002 1460.14 306.54 839.97 1174.59 1727.63 723.22 2112.26 735.42 1954.38 967.07 1747.47 1148.93 2083.29 1157.47
00006008 00000003 1462.95 304.03 835.54 1177.47 1727.47 727.07 2113.34 736.76 1954.70 971.21 1752.06 1153.57 2084.85 1159.85
00006009 00000004 1464.60 305.38 832.58 1170.79 1729.35 729.89 2112.96 738.99 1954.44 974.25 1759.54 1158.49 2080.65 1163.62
00006010 00000005 1463.17 305.63 826.88 1168.43 1726.29 732.46 2108.52 738.31 1954.23 973.13 1765.53 1163.40 2079.24 1165.76
00006011 00000006 1465.15 305.83 829.91 1169.49 1731.67 730.82 2108.43 736.73 1955.18 974.73 1772.33 1163.19 2077.50 1165.13
00006012 00000007 1466.91 299.69 826.61 1176.08 1737.54 733.42 2104.95 742.75 1957.99 976.30 1773.94 1161.90 2073.26 1166.81
00006013 00000008 1466.53 300.06 826.63 1175.40 1737.98 743.90 2095.93 755.05 1952.03 973.81 1769.91 1160.98 2064.00 1167.79
00006014 00000009 1456.29 300.85 830.02 1168.80 1727.08 747.70 2087.18 753.78 1946.58 970.17 1765.34 1162.04 2059.52 1164.59
00006015 00000010 1451.60 290.17 825.08 1170.39 1714.88 743.62 2076.79 744.84 1936.66 963.45 1765.59 1163.72 2050.95 1161.45
00006016 00000011 1447.50 282.24 824.06 1175.28 1703.82 733.88 2067.61 733.60 1926.74 954.95 1760.98 1162.54 2040.09 1159.13
00006017 00000012 1446.52 283.99 804.69 1152.49 1685.43 727.79 2050.45 722.60 1910.20 944.11 1752.76 1157.54 2027.13 1150.63
00006018 00000013 1432.16 285.76 806.13 1146.15 1648.24 724.46 2027.46 718.53 1857.84 932.46 1712.01 1151.58 2009.30 1142.71
00006019 DELETE   1403.80 305.81 810.04 1138.13 1607.11 723.97 1983.32 715.96 1801.87 928.67 1665.18 1145.62 1973.02 1136.70
00006020 00000015 1386.32 313.07 807.11 1141.63 1574.95 715.18 1951.62 709.68 1751.61 920.15 1621.69 1139.81 1938.36 1133.51
00006021 00000016 1366.66 311.86 811.07 1142.89 1546.21 714.32 1922.30 705.87 1728.90 923.85 1613.28 1140.25 1914.84 1131.77
00006022 00000017 1354.25 298.24 814.33 1156.69 1534.02 733.48 1905.62 696.91 1710.77 926.46 1607.58 1155.17 1916.09 1122.09
00006023 00000018 1341.39 306.23 813.30 1150.44 1523.66 736.71 1891.13 692.91 1706.33 931.95 1610.17 1163.29 1905.50 1123.61
00006024 00000019 1330.98 301.58 811.50 1157.22 1516.43 737.95 1879.81 691.34 1698.44 937.03 1608.23 1172.02 1886.37 1130.56
00006025 00000020 1325.56 299.93 811.85 1148.31 1509.05 742.56 1870.13 696.46 1691.28 937.57 1600.62 1167.66 1882.70 1126.29
00006026 00000021 1324.78 302.98 811.28 1146.98 1507.00 741.89 1867.43 697.19 1687.50 936.67 1596.14 1164.55 1880.69 1124.52
00006027 00000022 1320.13 306.49 811.88 1156.19 1509.92 739.20 1864.30 695.62 1689.53 937.81 1600.14 1171.55 1869.07 1132.88
00006028 00000023 1325.24 310.05 804.34 1162.91 1516.29 744.91 1862.49 701.60 1689.77 946.28 1604.45 1179.64 1866.58 1140.92
00006029 00000024 1324.74 311.52 806.92 1164.10 1521.59 749.63 1863.93 705.61 1694.69 949.20 1610.05 1181.93 1871.40 1141.86
00006030 00000025 1322.14 306.49 813.86 1165.92 1519.67 749.99 1872.08 704.86 1701.52 946.63 1615.26 1182.94 1880.78 1141.74
00006031 00000026 1328.34 299.51 819.44 1153.93 1515.09 752.15 1887.25 702.03 1708.42 948.60 1612.11 1178.42 1906.95 1132.99
00006032 00000027 1333.98 302.39 821.45 1152.39 1520.14 747.65 1899.14 701.86 1715.37 950.00 1612.99 1175.39 1916.95 1133.84
00006033 00000028 1338.43 301.94 820.26 1155.47 1527.42 744.37 1905.05 702.95 1722.64 949.40 1615.88 1173.14 1919.56 1135.16
00006034 00000029 1350.27 313.40 815.46 1151.34 1533.72 726.45 1909.67 704.91 1734.64 941.64 1625.53 1160.73 1910.98 1142.18
00006035 00000030 1348.13 314.57 818.15 1157.63 1538.13 730.20 1909.84 705.81 1740.87 940.38 1635.36 1164.50 1913.81 1143.30
00006036 00000031 1348.37 315.17 817.20 1155.16 1539.20 731.18 1909.74 706.89 1742.22 938.05 1636.58 1165.60 1909.40 1144.97
00006037 00000032 1349.88 315.34 817.38 1149.79 1538.91 731.66 1912.04 707.81 1741.84 937.52 1635.59 1164.52 1911.11 1144.17
00006038 00000033 1350.60 316.41 815.91 1146.14 1539.83 730.89 1912.82 709.82 1740.57 934.96 1631.51 1160.13 1910.62 1142.30
00006039 00000034 1350.26 317.21 817.64 1142.66 1537.31 734.14 1913.53 713.12 1736.79 936.42 1624.27 1160.26 1912.55 1142.65
00006040 00000035 1350.47 314.05 815.31 1143.55 1535.64 737.31 1913.89 715.97 1735.66 941.86 1617.64 1160.18 1916.93 1142.19
00006041 00000036 1342.60 309.15 820.07 1142.32 1531.03 748.41 1909.56 708.20 1728.69 944.17 1612.36 1164.92 1927.71 1128.45
00006042 00000037 1341.31 307.70 821.65 1141.40 1529.17 749.10 1908.45 709.46 1727.73 945.50 1609.61 1161.47 1930.54 1125.74
00006043 00000038 1343.88 308.71 820.35 1136.62 1533.09 746.52 1910.94 708.85 1732.48 943.64 1609.57 1155.76 1934.43 1122.07
00006044 00000039 1341.08 311.08 830.65 1144.45 1538.70 744.17 1915.91 706.17 1742.33 939.42 1616.33 1155.50 1940.17 1120.63
00006045 00000040 1351.34 317.59 822.12 1140.73 1545.20 733.90 1925.21 710.82 1747.99 930.50 1619.48 1147.80 1935.90 1127.15
00006046 00000041 1352.70 316.56 827.23 1156.28 1556.30 727.14 1926.24 709.16 1757.06 925.54 1628.13 1143.98 1937.13 1127.36
00006047 00000042 1355.37 316.25 829.92 1161.83 1563.59 729.87 1933.64 714.77 1765.07 927.57 1629.26 1144.48 1951.67 1129.46
00006048 00000043 1362.25 309.83 826.20 1169.87 1578.79 736.56 1939.51 727.31 1780.40 929.65 1631.86 1135.56 1962.32 1125.42
00006049 00000044 1372.19 313.18 816.94 1160.38 1589.65 734.59 1953.02 729.67 1790.60 934.16 1637.69 1129.59 1971.26 1123.17
00006050 00000045 1380.41 312.43 815.37 1160.67 1597.68 731.82 1962.77 730.08 1798.30 944.37 1643.56 1134.54 1973.99 1130.76
00006051 00000046 1389.37 300.15 815.65 1188.90 1608.60 732.96 1979.21 734.08 1815.74 955.53 1654.88 1154.41 1980.63 1152.84
00006052 00000047 1395.80 305.92 818.05 1189.12 1612.59 741.47 1992.79 740.07 1825.17 970.13 1663.30 1172.01 1986.04 1168.36
00006053 00000048 1401.01 314.15 821.26 1170.69 1616.44 744.03 1995.98 739.44 1826.71 977.83 1676.52 1182.94 1977.89 1177.03
00006054 00000049 1403.87 314.54 825.36 1170.19 1620.41 743.36 2004.14 737.27 1833.83 980.22 1689.66 1190.69 1984.36 1182.96
00006055 00000050 1407.98 310.01 830.26 1169.43 1631.29 745.93 2008.06 740.81 1843.56 979.96 1700.27 1186.19 1991.75 1178.30
00006056 00000051 1411.82 306.49 833.71 1174.54 1640.82 744.10 2019.44 747.31 1848.53 975.88 1693.48 1177.04 1997.85 1175.94
00006057 00000052 1420.72 300.99 829.96 1182.44 1651.42 746.30 2032.22 753.37 1858.26 977.40 1695.47 1181.95 2005.17 1184.42
00006058 00000053 1421.58 304.61 833.35 1186.91 1664.90 749.35 2038.08 759.38 1870.72 983.66 1697.86 1176.61 2009.63 1182.02
00006059 00000054 1427.26 308.87 832.90 1183.28 1677.89 748.93 2044.66 760.31 1882.80 987.44 1706.56 1173.97 2013.01 1181.43
00006060 00000055 1431.43 308.22 828.58 1179.41 1681.26 746.42 2046.45 757.98 1887.42 986.34 1713.32 1173.88 2014.17 1181.27
00006061 00000056 1438.77 305.82 822.25 1173.30 1682.85 735.93 2050.74 747.15 1889.51 973.79 1722.86 1171.70 2015.06 1178.47
00006062 00000057 1443.18 305.87 817.66 1166.76 1683.74 725.57 2051.44 736.54 1889.80 966.77 1725.36 1164.55 2012.08 1170.79
00006063 00000058 1445.41 300.32 821.19 1160.63 1683.90 721.40 2053.78 732.97 1890.65 957.15 1726.21 1158.35 2010.63 1165.59
00006064 00000059 1444.13 297.59 824.51 1154.44 1684.31 719.48 2061.16 734.04 1893.12 954.80 1718.83 1145.35 2021.66 1155.10
00006065 00000060 1447.35 300.57 822.45 1154.16 1692.64 718.19 2062.13 733.35 1899.37 954.88 1724.93 1142.77 2020.18 1153.36
00006066 00000061 1447.66 305.64 825.05 1167.38 1699.61 713.65 2067.63 733.54 1903.85 956.52 1720.77 1144.43 2021.42 1159.02
00006067 00000062 1449.74 304.82 826.44 1165.26 1706.73 711.28 2075.42 732.78 1911.98 950.05 1725.29 1142.92 2024.28 1159.12
00006068 00000063 1452.57 297.92 824.65 1156.37 1703.86 713.24 2076.20 726.20 1916.79 941.12 1736.92 1144.59 2031.23 1153.12
00006069 00000064 1457.63 293.25 824.95 1149.92 1707.48 716.00 2079.37 724.48 1923.24 940.21 1746.87 1145.26 2036.74 1150.13
00006070 00000065 1460.16 293.67 821.79 1153.58 1709.03 718.15 2080.22 724.37 1923.99 938.66 1751.41 1147.99 2040.34 1150.61
00006071 00000066 1458.64 298.47 826.37 1157.51 1708.60 718.58 2077.89 725.58 1920.58 943.06 1753.51 1154.08 2034.45 1157.32
00006072 00000067 1458.71 299.25 824.56 1161.65 1711.06 720.42 2076.67 728.08 1920.90 947.21 1756.85 1158.20 2032.90 1162.03
00006073 00000068 1457.34 300.26 825.44 1163.27 1709.18 722.35 2076.68 729.13 1920.40 948.40 1755.94 1160.53 2033.59 1163.64
00006074 00000069 1458.03 300.46 826.52 1163.43 1710.96 723.42 2076.10 729.51 1920.53 949.84 1756.91 1160.08 2033.72 1162.60
00006075 00000070 1458.41 299.55 825.93 1164.07 1710.60 728.52 2077.00 734.21 1920.89 951.52 1756.03 1161.57 2040.33 1163.71
00006076 00000071 1466.18 296.90 817.37 1164.60 1720.02 743.63 2079.53 753.38 1925.02 959.25 1757.00 1162.05 2047.90 1168.37
00006077 00000072 1466.16 295.65 819.79 1167.95 1720.53 746.06 2083.92 757.72 1926.12 964.91 1757.53 1166.79 2049.43 1174.78
00006078 00000073 1465.93 296.68 819.38 1168.27 1713.70 748.87 2084.22 758.70 1923.13 970.05 1756.30 1173.27 2052.60 1179.32
00006079 00000074 1464.41 299.94 825.39 1166.74 1714.60 750.67 2087.53 760.30 1927.12 974.48 1756.89 1177.38 2051.34 1183.54
00006080 00000075 1464.35 305.47 826.12 1164.16 1719.19 754.14 2087.97 762.99 1932.60 980.53 1762.08 1179.67 2053.33 1185.36
00006081 00000076 1465.37 307.67 828.92 1167.47 1720.42 751.96 2090.48 761.87 1929.76 982.05 1763.68 1183.99 2048.26 1190.43
00006082 00000077 1467.20 307.13 827.98 1172.96 1721.93 754.27 2090.65 763.43 1930.13 986.22 1766.53 1188.53 2048.11 1194.34
00006083 00000078 1465.55 308.94 826.50 1170.78 1721.66 754.18 2088.73 764.23 1929.97 987.86 1767.44 1189.70 2044.03 1196.47
00006084 00000079 1463.37 309.66 830.29 1171.70 1722.02 752.95 2087.97 763.85 1930.50 987.62 1767.27 1189.85 2040.85 1197.23
00006085 00000080 1462.91 308.28 831.52 1172.78 1723.64 751.15 2087.02 763.29 1930.73 988.00 1768.02 1189.40 2036.36 1197.88
00006086 00000081 1461.87 309.17 830.28 1171.18 1725.01 748.08 2087.56 759.03 1934.27 988.29 1773.43 1189.69 2038.12 1197.14
00006087 00000082 1463.79 310.66 828.85 1171.60 1727.22 746.22 2090.68 758.16 1936.28 987.48 1774.44 1189.76 2039.62 1198.03
00006088 00000083 1464.20 308.74 822.84 1165.60 1725.64 747.40 2093.56 757.70 1937.61 989.09 1775.43 1188.19 2046.54 1194.83
00006089 00000084 1463.47 309.63 823.31 1156.76 1721.81 745.56 2093.59 756.50 1937.54 985.40 1769.34 1179.04 2049.77 1186.02
00006090 00000085 1461.54 307.48 831.30 1158.72 1721.19 743.79 2094.80 754.86 1936.77 983.22 1762.86 1170.64 2054.15 1177.78
00006091 00000086 1457.15 307.94 837.64 1161.05 1721.39 745.79 2087.99 756.77 1935.27 981.28 1759.59 1166.44 2050.22 1173.52
00006092 00000087 1456.21 311.40 838.98 1162.10 1723.29 744.96 2088.80 758.74 1937.56 982.01 1755.60 1164.85 2049.83 1174.42
00006093 00000088 1460.55 310.08 832.75 1172.84 1725.53 746.96 2091.76 763.63 1934.69 984.24 1754.13 1174.66 2046.87 1187.09
00006094 00000089 1460.17 312.85 827.97 1183.66 1728.29 750.65 2088.68 766.83 1933.78 989.65 1757.99 1185.14 2043.41 1196.92
00006095 00000090 1458.44 311.99 828.03 1174.15 1719.24 756.30 2091.58 765.37 1934.84 988.50 1766.58 1192.52 2050.28 1198.34
00006096 00000091 1458.09 308.85 828.10 1174.24 1717.17 758.41 2092.00 766.62 1935.27 991.59 1770.72 1197.76 2051.92 1202.65
00006097 00000092 1458.15 309.56 827.92 1177.68 1715.21 757.88 2093.52 765.48 1936.27 993.33 1772.44 1202.32 2056.02 1206.54
00006098 00000093 1460.40 308.46 828.30 1179.42 1718.96 759.04 2094.94 765.37 1938.50 993.32 1775.53 1202.02 2057.68 1205.32
00006099 00000094 1461.14 311.68 828.01 1176.32 1719.34 759.81 2094.76 766.13 1938.63 994.97 1775.90 1201.25 2057.96 1204.60
00006100 00000095 1461.17 310.99 830.27 1173.30 1721.65 758.00 2095.51 764.77 1939.84 992.37 1776.44 1196.82 2056.53 1200.63
00006101 00000096 1463.41 308.31 828.50 1179.44 1725.49 755.84 2094.45 765.14 1939.55 990.43 1773.48 1191.08 2054.64 1196.79
00006102 00000097 1466.15 309.52 828.64 1178.29 1734.96 761.43 2093.25 774.56 1943.15 988.60 1774.08 1186.02 2053.91 1195.27
00006103 00000098 1467.88 309.54 826.98 1174.78 1737.21 761.04 2097.40 773.54 1948.33 988.04 1773.29 1183.22 2059.45 1191.99
00006104 00000099 1469.05 309.33 827.00 1169.82 1736.10 755.23 2104.44 768.30 1952.52 985.22 1766.02 1173.42 2071.50 1183.31
00006105 00000100 1469.07 310.22 831.69 1169.42 1735.91 748.15 2106.25 761.00 1950.37 980.34 1761.97 1165.35 2073.73 1174.46
00006106 00000101 1473.70 307.48 831.33 1174.70 1740.76 741.25 2110.94 757.18 1952.68 975.71 1761.46 1162.01 2074.04 1173.85
00006107 00000102 1478.08 306.02 834.77 1178.70 1745.90 736.17 2115.84 754.60 1955.51 973.99 1762.89 1158.22 2077.21 1172.21
00006108 00000103 1483.18 304.86 833.42 1179.76 1741.48 726.69 2119.07 756.79 1950.64 976.94 1763.12 1154.98 2068.14 1179.21
00006109 00000104 1485.93 305.07 836.43 1184.61 1748.13 723.88 2126.84 753.48 1961.12 976.82 1765.79 1153.65 2080.16 1176.90
00006110 00000105 1488.58 308.69 836.01 1180.15 1755.89 723.78 2135.31 750.14 1974.02 974.53 1772.58 1154.08 2087.74 1174.89
00006111 00000106 1495.02 309.02 833.76 1178.04 1764.87 727.70 2142.34 756.31 1982.62 972.52 1775.69 1150.81 2098.01 1173.34
00006112 00000107 1496.79 307.02 839.68 1185.01 1773.08 730.78 2152.77 762.93 1993.29 973.20 1779.33 1149.72 2108.65 1174.66
00006113 00000108 1502.39 304.02 839.00 1189.09 1782.88 732.69 2162.16 767.29 2006.54 973.15 1785.40 1150.68 2117.16 1177.72
00006114 00000109 1507.09 303.38 839.09 1190.67 1788.94 735.43 2166.64 772.28 2010.59 981.02 1790.22 1149.37 2119.92 1178.25
00006115 00000110 1507.47 303.42 845.11 1189.67 1792.85 742.78 2171.71 781.23 2013.45 989.54 1792.77 1152.40 2123.38 1183.43
00006116 00000111 1504.97 309.76 841.47 1187.96 1791.58 761.25 2167.85 795.07 2015.30 999.36 1788.91 1160.98 2129.54 1188.90
00006117 00000112 1499.30 312.08 847.09 1201.99 1788.99 771.05 2157.82 802.63 2010.31 1007.77 1779.14 1172.98 2119.41 1199.05
00006118 00000113 1494.18 317.57 846.82 1215.93 1770.28 779.71 2141.32 810.90 1980.71 1022.84 1754.40 1191.05 2097.80 1216.47
00006119 00000114 1477.64 326.36 850.90 1209.51 1731.09 785.07 2112.05 814.08 1922.16 1034.51 1720.40 1196.24 2064.82 1219.40
00006120 00000115 1460.76 327.14 856.34 1221.35 1678.98 781.08 2077.01 808.23 1858.45 1039.56 1671.46 1203.14 2028.00 1225.25
00006121 00000116 1443.03 328.27 840.30 1228.45 1655.19 775.05 2036.11 812.21 1806.07 1041.85 1639.29 1193.77 2000.68 1223.48
00006122 00000117 1431.71 337.35 842.88 1226.60 1637.26 768.03 2019.49 810.78 1780.55 1044.16 1616.26 1196.11 1978.01 1230.57
00006123 00000118 1425.27 338.33 843.06 1233.74 1635.24 772.19 2016.29 818.15 1777.64 1049.44 1611.84 1202.02 1970.88 1239.27
00006124 00000119 1420.23 341.51 848.11 1235.42 1636.11 774.76 2025.15 818.97 1786.97 1052.26 1614.32 1208.38 1976.87 1244.12
00006125 00000120 1423.22 338.44 842.84 1227.42 1639.96 774.64 2025.03 813.47 1798.47 1049.37 1623.41 1206.46 1982.87 1238.17
00006126 00000121 1420.81 335.62 844.35 1228.73 1639.21 773.25 2027.44 808.24 1803.64 1044.69 1630.06 1210.23 1985.57 1238.02
00006127 00000122 1432.30 360.32 835.37 1197.23 1636.40 783.11 2035.66 812.04 1815.22 1058.74 1642.39 1213.32 1982.40 1235.71
00006128 00000123 1419.88 335.38 846.16 1229.46 1640.78 776.32 2027.97 808.67 1807.37 1042.99 1637.92 1213.21 1988.27 1238.57
00006129 00000124 1420.68 337.53 847.04 1230.08 1641.00 776.47 2029.40 809.49 1807.95 1044.20 1637.64 1215.02 1988.44 1240.90
00006130 00000125 1428.97 357.90 841.07 1203.16 1636.40 785.46 2038.39 813.02 1818.86 1060.65 1646.30 1219.35 1984.05 1239.63
00006131 00000126 1420.18 337.15 850.10 1229.18 1640.75 778.92 2034.09 811.37 1810.26 1045.49 1640.06 1217.61 1991.25 1243.17
00006132 00000127 1428.63 364.06 848.27 1204.93 1638.39 789.20 2044.57 817.40 1822.54 1068.53 1647.99 1223.19 1991.56 1243.98
00006133 00000128 1430.17 364.08 851.10 1203.80 1641.36 790.63 2045.90 816.83 1826.17 1067.03 1653.54 1224.66 1994.55 1243.73
00006134 00000129 1427.05 341.69 852.30 1236.05 1649.81 778.77 2046.34 809.63 1821.64 1050.14 1652.11 1224.78 2003.06 1248.03
00006135 00000130 1434.95 343.06 847.02 1229.79 1654.05 780.09 2048.52 810.36 1823.40 1049.67 1657.07 1220.81 2007.95 1244.28
00006136 00000131 1437.12 366.51 851.17 1202.11 1651.02 788.72 2056.17 813.52 1838.35 1062.04 1666.50 1220.89 2008.46 1238.29
00006137 00000132 1436.17 339.83 848.10 1236.41 1665.53 779.40 2055.84 808.05 1841.57 1042.60 1669.38 1218.49 2017.25 1240.40
00006138 00000133 1440.94 357.71 852.90 1224.67 1668.11 783.13 2063.82 807.93 1856.85 1055.57 1679.00 1217.92 2013.76 1235.20
00006139 00000134 1435.20 362.44 866.80 1240.51 1680.70 784.47 2069.59 809.53 1872.97 1059.93 1689.28 1223.30 2022.88 1240.11
00006140 00000135 1437.06 362.28 861.24 1226.56 1687.38 788.85 2078.97 807.29 1899.07 1059.87 1704.34 1224.87 2038.31 1236.78
00006141 00000136 1439.37 353.85 863.43 1209.14 1699.94 784.13 2090.37 794.97 1927.29 1056.86 1734.87 1234.55 2044.07 1240.26
00006142 00000137 1440.92 346.28 863.92 1203.74 1705.33 790.05 2097.49 792.46 1941.78 1053.30 1754.63 1245.95 2048.34 1244.64
00006143 00000138 1453.31 337.70 850.74 1211.42 1715.33 785.66 2102.85 793.26 1943.34 1052.66 1768.61 1243.20 2054.71 1251.72
00006144 00000139 1446.04 341.49 848.46 1192.77 1715.11 800.81 2102.54 798.66 1948.42 1057.21 1777.00 1247.66 2079.97 1242.57
00006145 00000140 1454.57 354.84 848.36 1181.34 1716.96 809.58 2110.33 811.77 1944.91 1069.84 1757.32 1238.49 2083.28 1241.86
00006146 00000141 1452.59 358.18 851.30 1202.21 1712.41 821.45 2106.06 825.31 1936.97 1076.27 1747.26 1246.82 2078.70 1251.76
00006147 00000142 1437.26 367.76 872.06 1226.74 1699.35 825.91 2093.77 826.15 1935.82 1095.34 1736.89 1261.38 2067.15 1258.18
00006148 00000143 1440.51 366.64 864.18 1231.19 1699.47 826.83 2093.36 828.71 1933.38 1097.09 1735.85 1265.66 2064.80 1264.14
00006149 00000144 1439.27 370.77 863.93 1230.47 1695.77 824.52 2089.68 826.98 1926.84 1098.60 1731.43 1266.89 2058.31 1265.38
00006150 00000145 1434.85 374.70 871.23 1232.36 1693.36 821.78 2084.38 826.19 1921.82 1090.92 1726.41 1259.08 2056.91 1258.98
00006151 00000146 1433.58 367.39 874.90 1248.31 1696.79 811.52 2086.18 822.10 1920.92 1083.74 1721.04 1247.93 2057.04 1252.96
00006152 00000147 1437.09 359.93 868.70 1231.15 1688.79 804.25 2083.48 810.12 1916.02 1071.68 1717.29 1233.29 2061.23 1233.87
00006153 00000148 1434.90 330.90 853.85 1227.61 1697.14 797.57 2073.66 802.04 1914.05 1050.36 1716.09 1211.47 2066.03 1213.79
00006154 00000149 1425.50 318.38 861.22 1229.44 1693.98 784.28 2067.43 793.07 1905.77 1034.58 1707.08 1193.46 2056.09 1199.30
00006155 00000150 1421.12 318.30 859.50 1213.34 1691.41 773.38 2058.71 783.90 1900.65 1017.47 1709.27 1183.17 2046.66 1189.60
00006156 00000151 1417.41 316.78 853.00 1203.79 1679.63 760.72 2043.81 762.93 1887.99 998.49 1712.53 1182.50 2030.79 1181.25
00006157 00000152 1422.65 312.04 833.12 1188.19 1661.35 747.80 2036.98 743.10 1873.87 981.29 1704.60 1175.48 2029.06 1168.78
00006158 00000153 1421.58 314.48 823.46 1155.67 1642.07 733.83 2024.32 729.51 1853.74 960.46 1690.58 1156.12 2017.81 1150.12
00006159 00000154 1417.38 317.22 817.82 1133.42 1639.11 714.49 2012.15 707.58 1847.42 935.70 1693.47 1137.84 2000.13 1129.74
00006160 00000155 1413.30 321.89 811.51 1111.49 1626.47 702.92 1994.35 686.52 1831.23 907.90 1690.72 1123.13 1992.28 1106.93
00006161 00000156 1404.23 320.31 810.67 1093.88 1611.70 698.38 1977.64 673.22 1815.15 895.27 1686.12 1108.87 1983.54 1084.83
00006162 00000157 1395.02 320.85 810.23 1076.08 1601.00 694.52 1970.91 668.08 1801.77 889.36 1674.45 1100.10 1974.77 1075.09
