Video ID: 	hq2OFLDh3iI
H: 	1620
W: 	3840
FPS: 	25.0

FRAME INDEX X0 Y0 W H [Landmarks (5 Points)]

00036619 00000000 1022.48 281.23 498.72 709.53 1186.04 555.75 1398.56 563.33 1301.91 687.91 1197.27 801.95 1369.22 809.54
00036620 00000001 1029.52 279.67 496.89 706.51 1190.94 555.70 1406.79 564.52 1309.87 692.04 1203.95 807.09 1374.05 815.44
00036621 00000002 1033.85 279.73 496.20 703.56 1193.98 559.58 1410.63 567.67 1315.48 696.43 1209.24 812.33 1377.03 820.02
00036622 00000003 1034.16 281.18 497.56 708.09 1198.00 566.79 1414.58 576.72 1320.37 707.14 1210.28 821.79 1377.08 830.98
00036623 00000004 1037.80 290.99 497.24 710.75 1200.03 575.39 1416.82 583.96 1323.10 718.40 1210.72 832.55 1381.59 840.95
00036624 DELETE   1037.31 298.18 499.19 718.31 1204.72 589.22 1417.03 599.25 1324.60 740.12 1212.57 844.36 1381.75 854.07
00036625 DELETE   1039.90 312.69 503.19 711.94 1210.41 606.46 1427.71 620.61 1328.39 764.69 1218.63 858.21 1386.59 868.97
00036626 00000007 1044.32 321.67 500.12 718.56 1210.92 613.21 1426.01 618.85 1331.57 773.73 1225.42 871.84 1388.18 876.65
00036627 00000008 1042.58 315.21 505.59 728.39 1215.20 607.70 1430.48 615.05 1337.31 764.95 1226.19 864.58 1393.75 870.63
00036628 00000009 1040.48 308.16 507.88 729.14 1215.22 594.50 1431.40 603.52 1336.84 745.96 1224.70 852.67 1395.47 860.81
00036629 00000010 1041.75 296.19 504.01 733.26 1218.14 584.86 1429.23 592.84 1339.29 737.53 1226.00 840.56 1397.66 847.40
00036630 00000011 1039.23 289.29 505.40 733.10 1216.66 577.69 1428.08 587.50 1338.13 727.60 1222.04 833.43 1394.18 842.16
00036631 00000012 1036.89 289.62 503.16 728.77 1214.67 571.97 1426.11 582.52 1337.57 720.18 1219.53 829.69 1390.92 838.95
00036632 00000013 1032.78 284.87 513.33 737.30 1212.97 554.80 1434.17 582.18 1343.01 711.62 1216.55 825.20 1390.71 850.71
00036633 00000014 1031.00 282.85 505.15 727.10 1208.46 566.74 1421.06 576.64 1331.14 706.21 1216.03 818.79 1387.38 827.33
00036634 00000015 1025.91 286.36 512.03 738.55 1205.78 553.45 1428.30 579.45 1336.98 703.42 1208.10 821.39 1385.68 845.81
00036635 00000016 1026.14 284.40 501.91 725.65 1200.03 568.13 1414.29 575.97 1324.46 708.68 1208.96 823.27 1380.39 830.60
00036636 00000017 1025.68 284.99 498.47 722.62 1197.05 569.57 1410.89 575.52 1322.09 707.60 1207.34 823.77 1378.23 829.91
00036637 00000018 1020.93 282.76 498.98 724.05 1192.13 569.97 1406.11 575.40 1315.89 704.49 1204.86 824.09 1372.38 829.99
00036638 00000019 1016.38 285.66 500.50 727.33 1189.12 571.05 1403.08 576.30 1312.42 705.71 1201.05 824.93 1370.92 830.70
00036639 00000020 1014.46 288.65 497.68 725.73 1185.32 573.47 1397.64 576.44 1308.42 708.57 1197.41 825.01 1370.88 828.82
00036640 00000021 1010.07 286.39 496.52 722.35 1178.68 575.63 1392.06 576.33 1302.77 711.50 1192.14 823.04 1368.84 824.93
00036641 00000022 1008.33 288.25 493.83 720.65 1175.64 576.62 1387.52 575.86 1300.11 712.83 1191.83 824.45 1367.24 824.80
00036642 00000023 1003.12 285.54 496.99 725.54 1170.35 576.74 1384.05 576.46 1300.26 716.56 1190.43 833.64 1366.73 832.27
00036643 00000024 998.74 287.83 498.67 724.50 1167.53 578.97 1382.02 577.32 1299.50 718.98 1190.96 836.93 1365.45 834.39
00036644 00000025 997.63 290.25 496.97 723.63 1166.43 583.57 1380.65 578.84 1298.18 723.38 1189.35 832.80 1367.83 828.82
00036645 00000026 994.98 291.25 495.67 718.53 1162.86 584.40 1378.57 581.00 1298.48 728.33 1185.58 840.63 1366.15 836.29
00036646 00000027 995.33 296.63 491.86 725.97 1163.03 591.46 1375.50 581.53 1296.51 728.73 1187.65 842.53 1359.56 835.44
00036647 00000028 995.34 296.82 487.56 725.20 1160.49 596.38 1371.54 584.88 1294.39 734.28 1183.94 843.63 1358.42 835.41
00036648 00000029 995.65 300.39 483.64 722.66 1157.22 597.90 1368.04 587.43 1289.14 739.57 1180.55 845.54 1355.41 837.99
00036649 00000030 995.93 302.42 481.50 719.31 1155.50 599.10 1365.38 589.00 1286.22 739.86 1179.78 846.64 1352.50 839.45
00036650 00000031 996.63 302.50 479.32 716.22 1153.59 599.44 1364.15 588.28 1285.24 740.42 1179.51 847.99 1351.46 840.13
00036651 00000032 994.72 300.70 481.07 712.93 1151.44 598.61 1362.98 586.85 1282.96 737.86 1178.88 845.76 1350.21 837.30
00036652 00000033 993.44 297.68 482.40 714.83 1151.13 596.59 1363.81 584.31 1284.51 734.54 1178.10 844.60 1351.19 835.87
00036653 00000034 992.76 296.42 482.19 716.85 1150.55 592.92 1362.33 580.80 1283.68 731.20 1177.53 840.75 1350.27 831.94
00036654 00000035 992.16 294.01 484.36 715.12 1149.34 589.61 1362.56 576.91 1282.59 726.56 1178.47 838.84 1349.73 829.41
00036655 00000036 991.72 290.86 486.58 718.75 1149.51 587.30 1364.10 574.43 1283.81 726.44 1179.85 839.80 1351.55 830.03
00036656 00000037 990.68 291.96 487.75 714.39 1151.11 584.29 1366.81 570.71 1286.91 721.56 1183.97 839.52 1353.75 829.09
00036657 00000038 992.43 282.84 487.97 725.19 1154.27 577.52 1368.83 565.49 1288.36 709.56 1184.30 831.48 1355.55 822.41
00036658 00000039 985.27 283.68 497.07 718.90 1156.11 564.42 1372.97 554.17 1299.99 690.66 1192.64 822.61 1354.63 814.41
00036659 00000040 987.93 262.42 495.21 728.68 1157.90 561.09 1367.89 550.67 1291.10 678.42 1191.64 806.94 1355.84 799.17
00036660 00000041 986.86 265.95 496.72 716.83 1161.48 552.36 1377.04 546.28 1302.13 673.66 1196.57 803.96 1354.79 799.86
00036661 00000042 989.32 260.32 499.28 721.12 1168.27 547.56 1384.50 544.44 1308.25 670.77 1202.06 802.87 1359.53 801.18
00036662 00000043 997.65 260.22 492.93 718.73 1175.53 561.27 1385.91 556.47 1311.03 677.07 1201.60 804.38 1371.55 801.09
00036663 00000044 1000.61 269.45 490.89 713.12 1176.02 566.18 1388.69 562.78 1310.88 690.08 1199.64 808.64 1372.26 806.48
00036664 00000045 1001.25 271.82 490.53 716.03 1172.01 572.90 1387.44 570.25 1306.51 703.07 1194.14 820.27 1368.15 818.73
00036665 00000046 1000.43 277.02 494.32 724.03 1173.30 576.20 1388.30 575.74 1304.92 711.23 1192.28 826.78 1366.54 826.93
00036666 00000047 1000.45 281.88 496.92 724.54 1177.69 579.03 1390.66 581.35 1307.02 714.14 1192.97 828.49 1366.77 831.23
00036667 00000048 1003.55 285.77 497.43 719.54 1183.69 575.99 1393.96 579.30 1310.90 712.64 1195.62 823.90 1367.59 827.65
00036668 00000049 1009.37 275.23 497.81 723.25 1191.92 568.98 1403.91 573.60 1322.32 707.07 1200.51 815.82 1376.05 820.56
00036669 00000050 1020.26 272.07 495.91 712.33 1197.95 561.79 1408.80 567.63 1326.76 696.28 1207.13 802.99 1384.85 808.26
00036670 00000051 1023.50 268.60 499.77 710.03 1203.99 554.41 1417.84 564.17 1334.58 683.56 1209.10 793.99 1393.91 802.90
00036671 00000052 1029.66 264.23 498.82 708.13 1209.42 550.15 1425.26 561.48 1340.90 680.82 1215.11 791.44 1398.72 801.42
00036672 00000053 1029.39 263.45 501.40 705.08 1217.65 544.90 1431.58 553.87 1349.85 672.95 1223.67 786.51 1401.89 796.45
00036673 00000054 1033.70 254.73 500.08 717.49 1220.57 543.03 1433.85 548.35 1353.86 668.92 1236.13 790.48 1404.49 796.65
00036674 00000055 1037.24 255.39 497.51 717.09 1225.00 543.76 1437.12 547.68 1358.96 667.50 1245.16 793.35 1406.57 797.90
00036675 00000056 1039.18 261.73 504.54 716.78 1231.59 543.69 1443.68 552.79 1363.59 670.86 1251.70 796.23 1410.80 803.68
00036676 00000057 1039.98 267.95 507.37 737.21 1239.44 546.28 1449.57 560.90 1369.19 680.19 1248.58 805.82 1413.82 817.65
00036677 00000058 1053.79 282.87 500.05 741.37 1244.69 541.72 1458.33 574.52 1373.76 693.04 1238.45 809.84 1416.99 839.74
00036678 00000059 1051.20 291.86 503.75 743.00 1248.59 547.97 1461.92 584.88 1375.01 701.44 1238.35 817.79 1415.00 851.61
00036679 00000060 1044.40 286.78 511.46 739.90 1245.47 563.97 1458.38 586.69 1371.55 707.63 1240.25 825.04 1409.29 844.00
00036680 00000061 1050.80 289.26 505.47 731.05 1248.70 570.39 1462.26 594.25 1375.81 719.82 1241.30 826.36 1414.64 847.01
00036681 00000062 1053.12 289.47 504.85 730.48 1249.46 572.29 1463.22 596.02 1375.39 724.45 1242.87 829.62 1414.39 850.07
00036682 00000063 1052.62 288.42 505.80 725.49 1249.68 572.29 1463.82 596.01 1375.77 722.50 1244.04 828.45 1414.49 848.99
00036683 00000064 1053.93 289.33 504.49 724.92 1250.40 571.69 1464.68 595.65 1377.41 722.81 1244.68 829.73 1415.32 850.35
00036684 00000065 1052.37 289.75 505.82 724.29 1250.14 570.86 1464.23 595.66 1376.70 721.90 1244.28 829.27 1413.99 850.43
00036685 00000066 1051.39 290.72 506.34 727.19 1250.56 571.56 1463.66 597.87 1376.31 723.75 1242.24 828.93 1412.89 851.49
00036686 00000067 1048.47 291.91 507.75 728.85 1247.43 574.10 1461.65 599.12 1373.74 729.28 1239.49 829.12 1413.90 850.28
00036687 00000068 1043.34 294.24 510.02 729.78 1244.67 576.18 1453.87 596.77 1369.49 732.79 1237.94 836.07 1405.98 853.07
00036688 00000069 1039.68 295.23 511.20 729.22 1243.05 581.06 1453.77 601.68 1370.36 736.45 1236.75 839.42 1407.06 856.53
00036689 00000070 1039.34 298.00 509.09 727.30 1240.28 583.43 1452.31 603.82 1368.36 737.27 1234.90 841.40 1405.83 858.31
00036690 00000071 1039.49 298.25 507.96 727.80 1240.02 585.77 1451.50 605.41 1368.16 738.97 1235.23 842.36 1406.14 858.68
00036691 00000072 1039.36 297.72 506.74 727.50 1239.17 586.98 1451.16 606.19 1367.86 740.84 1234.57 842.79 1407.02 858.67
00036692 00000073 1039.81 299.04 505.13 726.33 1238.27 588.48 1450.07 607.40 1367.72 742.46 1233.66 843.27 1407.70 858.91
00036693 00000074 1038.56 299.57 506.99 730.79 1239.19 588.40 1449.84 607.69 1368.07 742.71 1233.80 843.55 1407.70 859.47
00036694 00000075 1038.39 298.73 507.95 731.85 1240.17 588.27 1450.92 607.29 1369.64 742.01 1235.77 844.60 1407.84 860.33
00036695 00000076 1037.48 299.36 508.96 726.10 1240.45 588.48 1451.33 607.20 1369.57 742.53 1236.36 843.50 1407.65 858.97
00036696 00000077 1038.83 300.58 509.24 723.20 1240.34 588.37 1452.20 607.25 1368.92 741.59 1236.84 844.02 1406.61 859.79
00036697 00000078 1038.11 300.51 510.13 725.06 1239.77 588.60 1451.51 606.99 1368.23 741.72 1236.16 843.54 1406.60 858.86
00036698 00000079 1038.32 300.72 507.68 728.36 1238.50 588.95 1449.60 608.36 1366.55 742.06 1231.03 840.72 1407.63 856.85
00036699 00000080 1038.09 299.92 507.56 729.56 1236.42 589.67 1448.23 609.24 1363.62 742.13 1229.93 842.00 1405.73 858.26
00036700 00000081 1037.16 297.30 504.85 735.43 1228.62 588.80 1440.30 608.88 1353.72 739.60 1222.82 842.24 1398.57 859.30
00036701 DELETE   1036.49 295.03 512.31 748.93 1229.19 566.98 1443.78 600.65 1355.84 726.94 1223.40 836.08 1398.54 867.19
00036702 DELETE   1042.09 283.91 505.44 749.60 1232.82 555.94 1451.57 588.76 1367.21 705.16 1235.58 832.44 1405.01 862.78
00036703 00000084 1038.19 279.20 510.13 731.66 1240.25 556.78 1448.48 573.01 1367.59 687.70 1246.54 808.16 1412.15 821.59
00036704 00000085 1042.24 273.80 501.84 719.64 1238.54 550.10 1449.60 567.86 1367.59 685.75 1238.24 797.21 1416.07 812.90
00036705 00000086 1041.96 268.54 504.31 712.02 1238.74 543.70 1452.95 563.02 1372.45 681.61 1238.66 793.90 1417.37 810.68
00036706 00000087 1044.43 266.24 501.41 701.85 1243.78 542.47 1453.59 556.70 1378.94 673.39 1248.69 790.08 1414.20 803.22
00036707 00000088 1042.16 264.13 510.97 711.59 1244.12 542.36 1454.58 557.99 1379.54 675.20 1253.51 795.22 1416.19 807.81
00036708 00000089 1041.81 273.93 507.46 718.60 1243.89 550.86 1453.35 567.93 1373.49 689.37 1242.61 795.08 1421.86 809.95
00036709 00000090 1048.53 284.42 506.91 738.12 1242.53 550.65 1461.70 584.39 1375.64 701.56 1237.32 813.01 1420.98 844.03
00036710 00000091 1051.15 291.74 508.73 744.30 1248.47 560.99 1465.65 597.91 1380.47 716.26 1240.37 826.78 1418.57 861.12
00036711 00000092 1054.18 299.34 509.54 748.15 1254.18 566.76 1469.81 601.98 1383.56 725.91 1242.46 830.14 1425.67 863.65
00036712 00000093 1060.72 295.96 505.57 750.85 1257.82 564.67 1473.84 598.54 1388.38 722.34 1247.36 829.20 1432.18 861.63
00036713 00000094 1061.47 295.86 505.29 757.30 1259.38 559.30 1473.37 592.42 1389.91 713.11 1249.39 829.95 1431.22 861.59
00036714 00000095 1064.31 296.06 505.22 766.85 1265.94 556.73 1477.36 589.78 1396.97 712.47 1254.64 834.57 1432.72 866.10
00036715 00000096 1064.80 301.22 505.55 762.96 1267.78 558.81 1479.75 590.33 1399.79 715.43 1256.64 838.83 1432.30 869.21
00036716 00000097 1062.63 286.56 501.39 734.81 1254.72 572.64 1472.55 591.00 1389.51 718.08 1261.89 839.98 1426.08 855.36
00036717 00000098 1061.09 287.02 502.32 738.36 1254.34 572.83 1471.95 591.24 1387.82 721.03 1259.97 841.61 1425.60 857.12
00036718 00000099 1058.57 286.08 500.04 731.19 1252.33 571.14 1467.77 590.40 1385.34 718.28 1255.61 836.66 1420.84 852.85
00036719 00000100 1053.55 283.52 503.93 730.31 1249.33 571.14 1466.22 591.73 1381.23 719.19 1251.27 835.37 1417.35 852.74
00036720 00000101 1042.97 289.51 512.10 734.25 1246.37 571.14 1460.12 590.08 1377.30 717.30 1246.50 836.48 1411.79 852.29
00036721 00000102 1038.67 293.41 510.29 739.53 1243.87 575.40 1453.79 593.64 1374.50 725.42 1240.52 836.25 1413.00 851.38
00036722 00000103 1035.05 293.37 512.00 741.16 1239.40 576.74 1450.44 593.15 1369.74 725.25 1237.96 836.76 1412.62 850.38
00036723 00000104 1033.93 293.93 509.26 732.63 1234.31 576.64 1444.75 593.43 1362.47 722.49 1232.39 832.18 1407.28 846.28
00036724 00000105 1033.26 292.46 509.10 734.74 1229.52 576.71 1440.13 592.27 1356.41 721.71 1231.87 835.62 1400.29 848.83
00036725 00000106 1037.20 296.73 514.10 751.01 1234.84 563.81 1451.19 597.80 1366.15 724.90 1227.93 836.97 1403.26 868.64
00036726 00000107 1038.30 291.43 512.45 739.54 1234.81 574.81 1447.60 594.92 1360.11 729.21 1231.95 839.68 1400.77 856.58
CROP_BBOX: 561 0 1909 1382
