Video ID: 	VUGhF15YsKs
H: 	1080
W: 	1920
FPS: 	25.0

FRAME INDEX X0 Y0 W H [Landmarks (5 Points)]

00001649 00000000 754.63 174.01 368.28 552.87 922.44 422.87 1070.88 391.30 1066.68 489.69 963.98 591.77 1095.68 566.62
00001650 00000001 755.85 178.61 366.31 551.04 923.14 425.20 1072.29 393.07 1067.61 495.51 961.47 594.87 1094.88 569.45
00001651 00000002 756.31 181.28 364.50 549.56 925.13 427.43 1073.80 395.50 1068.43 498.71 961.28 596.19 1093.54 571.05
00001652 00000003 756.66 181.73 366.25 548.45 924.82 426.29 1072.61 393.33 1068.73 497.23 963.30 595.28 1095.22 569.17
00001653 00000004 761.31 179.99 367.34 548.47 928.20 425.92 1075.82 391.99 1072.16 493.54 964.48 593.37 1095.58 566.72
00001654 00000005 763.10 177.81 366.09 551.40 928.86 426.52 1076.83 392.91 1072.81 492.91 964.83 593.41 1096.75 566.86
00001655 DELETE   767.48 176.84 366.62 555.11 934.70 429.00 1081.86 393.50 1081.41 492.60 967.37 594.98 1100.00 567.16
00001656 00000007 767.39 178.83 366.32 553.81 935.52 430.02 1082.62 394.31 1082.74 494.29 968.17 597.02 1100.41 568.98
00001657 00000008 767.67 173.82 368.29 556.42 936.82 427.58 1083.70 393.69 1082.84 489.07 969.94 593.59 1101.26 566.96
00001658 00000009 769.49 168.58 368.96 557.29 935.75 423.28 1082.38 387.18 1081.98 482.40 971.50 588.68 1103.01 560.19
00001659 00000010 770.83 162.84 368.03 560.10 936.22 417.33 1081.73 381.17 1081.32 478.47 972.94 585.12 1103.11 556.64
00001660 00000011 767.48 161.30 368.89 561.78 936.09 415.22 1081.73 378.80 1083.46 480.53 968.96 584.50 1100.91 556.51
00001661 DELETE   767.48 161.39 368.90 561.73 936.03 415.23 1081.68 378.78 1083.44 480.53 968.91 584.48 1100.92 556.47
00001662 00000013 769.53 157.52 366.21 562.40 935.98 414.48 1080.23 376.25 1082.32 480.46 969.72 583.63 1100.41 554.28
00001663 00000014 768.98 155.94 366.37 559.21 933.46 409.42 1079.36 372.90 1079.19 475.60 971.95 579.15 1102.89 550.68
00001664 00000015 765.76 151.79 366.62 561.07 930.23 405.87 1075.88 371.09 1074.15 473.40 969.03 575.14 1100.14 548.07
00001665 00000016 766.36 149.82 367.17 562.91 931.83 404.78 1076.44 369.18 1076.60 471.52 970.33 574.62 1101.92 546.99
00001666 00000017 767.18 146.91 367.29 566.34 933.32 405.18 1078.58 367.80 1079.84 472.46 971.73 576.30 1104.00 547.50
00001667 00000018 767.67 150.72 368.14 563.18 933.65 407.34 1079.92 370.44 1079.19 474.97 973.03 579.49 1102.80 550.97
00001668 00000019 763.99 152.71 370.38 565.14 931.71 409.65 1076.67 372.23 1077.51 478.63 971.99 582.49 1100.67 553.48
00001669 00000020 766.65 154.03 369.03 561.69 932.64 409.84 1078.01 371.61 1079.19 476.14 972.95 581.01 1102.88 551.38
00001670 00000021 765.01 155.44 368.68 559.78 930.54 410.87 1074.41 373.22 1075.23 475.76 970.78 578.82 1100.94 549.71
00001671 00000022 766.60 158.49 369.28 557.61 933.03 413.30 1077.68 374.77 1078.93 475.44 972.72 580.22 1103.25 550.28
00001672 00000023 764.37 159.01 369.07 559.55 933.18 414.04 1074.84 375.25 1077.69 478.11 971.57 582.39 1099.09 552.47
00001673 00000024 766.86 160.75 367.58 559.18 933.69 416.67 1076.40 376.99 1079.46 478.78 971.58 584.78 1099.63 554.22
00001674 00000025 766.91 160.28 366.55 562.33 933.37 414.86 1075.86 378.32 1076.98 479.02 971.14 584.26 1099.52 555.82
00001675 00000026 767.18 162.25 365.60 558.84 932.76 413.05 1074.09 377.81 1075.37 477.43 970.63 582.49 1097.98 555.08
00001676 00000027 765.80 162.09 364.82 558.81 929.80 408.78 1072.34 377.85 1069.12 476.80 971.11 581.23 1097.33 556.82
00001677 00000028 763.73 166.10 364.76 557.02 927.71 411.08 1070.47 380.74 1066.82 479.66 970.77 584.17 1096.52 560.08
00001678 00000029 763.18 174.76 363.09 553.20 924.50 415.28 1067.34 384.71 1062.90 484.79 966.77 587.45 1095.61 562.93
00001679 00000030 761.42 178.89 359.64 550.13 923.42 418.72 1066.74 390.56 1060.08 489.20 964.14 589.16 1092.92 566.67
00001680 00000031 759.39 185.54 358.84 544.52 919.84 422.57 1065.89 393.71 1057.27 494.65 961.38 593.78 1091.82 570.77
00001681 00000032 757.17 190.30 360.61 539.77 920.57 429.20 1067.31 399.16 1059.25 495.44 961.69 595.73 1091.79 571.92
00001682 DELETE   756.42 185.15 359.74 541.49 920.87 429.40 1066.63 400.82 1057.84 490.62 961.61 592.93 1089.29 570.50
00001683 00000034 756.21 182.66 359.26 543.90 919.88 425.96 1064.53 396.83 1056.96 489.94 960.76 591.72 1087.61 569.01
00001684 00000035 757.87 185.61 358.89 542.63 919.40 427.12 1065.53 398.38 1056.36 494.52 961.26 594.80 1089.30 572.03
00001685 00000036 757.87 185.61 358.89 542.63 919.40 427.12 1065.53 398.38 1056.36 494.52 961.26 594.80 1089.30 572.03
00001686 00000037 758.10 191.94 356.71 539.70 918.10 428.30 1063.93 398.52 1055.57 497.73 960.11 597.27 1089.33 573.82
00001687 00000038 759.12 193.51 357.59 537.52 918.72 428.64 1064.28 398.53 1056.45 497.79 961.79 597.29 1090.77 573.42
00001688 00000039 758.32 189.52 358.49 539.69 919.08 425.52 1062.47 396.45 1054.78 493.88 962.78 594.41 1089.06 571.38
00001689 00000040 760.27 186.17 359.84 540.45 921.02 419.39 1071.29 387.67 1061.66 487.18 950.73 594.53 1085.81 570.72
00001690 00000041 759.37 183.18 359.44 542.75 917.53 420.02 1068.65 386.23 1057.90 485.79 948.32 592.96 1084.50 567.34
00001691 00000042 756.01 181.93 360.34 544.90 914.92 422.95 1066.05 389.00 1054.10 488.00 945.43 594.31 1080.05 567.97
00001692 00000043 751.70 179.99 362.85 547.19 912.98 422.70 1065.07 387.22 1053.42 486.03 942.46 593.27 1078.43 565.74
00001693 00000044 753.16 181.30 360.11 543.52 910.44 419.74 1063.81 388.31 1049.92 480.70 942.31 590.47 1081.18 565.27
00001694 00000045 750.49 180.41 359.79 538.80 910.49 420.82 1065.11 386.45 1053.58 480.98 941.94 590.59 1085.12 564.01
00001695 00000046 746.77 178.83 360.55 535.87 908.16 419.16 1063.04 382.89 1053.35 480.01 940.85 588.79 1083.14 560.74
00001696 00000047 748.52 177.45 360.33 536.65 908.09 418.48 1062.75 380.43 1053.31 478.88 940.26 587.20 1083.39 557.82
00001697 00000048 751.50 177.86 359.46 540.29 910.05 420.62 1064.39 382.06 1055.70 480.07 940.34 588.86 1085.06 559.43
00001698 00000049 752.10 180.10 360.21 541.63 911.54 422.75 1063.86 386.19 1054.69 483.00 941.12 590.97 1084.01 562.83
00001699 00000050 753.56 180.94 359.48 542.04 914.68 420.56 1067.04 386.56 1056.91 485.09 944.06 592.93 1084.46 566.92
00001700 00000051 753.91 180.12 357.77 541.08 915.01 420.08 1067.00 386.34 1057.75 483.32 944.78 591.84 1084.88 566.19
00001701 00000052 756.31 180.32 356.29 539.04 917.10 418.53 1068.45 383.84 1058.56 483.68 948.05 591.02 1086.39 564.58
00001702 00000053 757.31 179.60 356.92 539.60 919.16 418.68 1070.14 384.07 1059.11 484.49 949.95 591.02 1087.56 564.65
00001703 00000054 758.47 181.87 358.26 539.92 921.21 421.26 1070.88 385.57 1060.36 487.93 952.41 593.24 1088.63 565.77
00001704 00000055 757.45 183.38 360.38 541.55 922.05 422.09 1065.35 392.47 1060.56 489.25 966.15 591.02 1091.35 567.67
00001705 00000056 756.82 180.37 358.78 541.75 918.48 419.58 1063.19 389.87 1056.86 486.38 962.96 588.56 1089.32 565.36
00001706 00000057 759.03 179.01 358.17 542.22 920.38 419.21 1071.92 384.04 1060.21 486.00 951.89 591.83 1090.13 564.72
00001707 00000058 757.47 179.61 357.78 540.08 918.78 417.62 1071.41 383.99 1060.25 483.64 948.23 589.12 1088.72 563.54
00001708 00000059 753.19 178.88 359.56 543.50 914.49 419.46 1068.85 386.47 1058.16 483.68 944.21 592.28 1086.50 566.90
00001709 DELETE   753.18 178.82 359.58 543.66 914.55 419.46 1068.85 386.49 1058.27 483.65 944.23 592.29 1086.53 566.93
00001710 00000061 752.41 178.76 359.39 545.15 913.94 422.40 1067.78 389.04 1057.02 486.96 942.67 594.26 1084.45 568.59
00001711 00000062 747.76 179.05 363.53 548.75 909.38 423.39 1064.09 390.10 1054.14 485.38 938.77 594.68 1082.91 568.80
00001712 00000063 744.15 174.11 362.64 552.20 905.71 422.76 1062.38 389.67 1051.94 483.02 934.90 592.80 1080.58 566.86
00001713 DELETE   740.88 173.37 363.96 552.77 902.62 424.13 1059.94 389.06 1049.75 484.14 932.30 593.39 1078.74 565.75
00001714 00000065 741.20 174.13 364.66 554.76 902.32 425.18 1059.71 389.11 1049.52 485.06 931.52 594.79 1079.21 566.39
00001715 00000066 738.21 176.78 373.74 559.37 902.31 427.28 1060.18 391.76 1049.93 489.40 929.97 598.86 1078.54 571.26
00001716 00000067 742.68 190.37 375.37 550.47 899.70 429.01 1058.18 392.62 1049.39 500.49 943.54 603.26 1092.61 575.21
00001717 00000068 741.67 196.94 368.43 541.47 897.07 423.86 1051.39 391.55 1044.06 499.41 940.14 603.15 1081.25 578.01
00001718 00000069 745.48 193.14 367.68 547.36 912.56 425.96 1065.00 395.43 1059.90 490.25 939.73 602.54 1080.50 579.35
00001719 DELETE   388.49 83.83 252.54 352.51
00001720 00000071 389.66 84.23 252.58 352.46
00001721 00000072 390.83 84.62 252.62 352.41
00001722 00000073 392.01 85.01 252.66 352.36
00001723 00000074 393.18 85.40 252.70 352.31
00001724 00000075 394.35 85.80 252.74 352.25
00001725 00000076 394.94 86.03 252.81 352.43
00001726 00000077 395.53 86.27 252.89 352.61
00001727 00000078 396.12 86.50 252.96 352.79
00001728 00000079 396.71 86.73 253.03 352.97
00001729 00000080 397.30 86.97 253.11 353.15
00001730 00000081 396.68 85.94 253.25 353.48
00001731 00000082 396.05 84.91 253.40 353.81
00001732 00000083 395.43 83.87 253.54 354.14
00001733 00000084 745.57 168.35 366.77 565.21 908.66 403.60 1063.62 377.91 1057.79 472.14 931.75 585.86 1080.52 566.97
00001734 00000085 744.97 166.99 367.21 566.17 908.74 403.49 1063.09 377.94 1057.57 472.13 932.48 586.19 1079.93 567.32
00001735 00000086 744.60 164.77 366.83 574.07 904.42 400.37 1061.13 377.42 1055.06 469.01 933.01 589.45 1081.15 572.13
00001736 00000087 741.08 161.94 367.23 580.54 901.22 398.55 1059.27 380.54 1053.95 468.29 928.88 588.94 1079.78 575.45
00001737 00000088 736.74 159.28 372.89 580.67 903.26 402.60 1063.03 387.51 1052.72 467.57 929.92 588.61 1080.37 577.05
00001738 00000089 730.45 161.95 378.65 578.33 893.67 405.03 1054.80 389.38 1039.47 465.40 920.97 587.79 1073.63 575.83
00001739 00000090 724.82 168.99 373.32 581.85 880.14 405.91 1041.14 392.27 1022.79 469.32 910.54 592.82 1062.48 581.94
00001740 00000091 723.54 171.33 367.69 584.55 869.24 407.44 1029.41 394.43 1006.93 474.21 903.56 597.30 1053.19 587.07
00001741 00000092 717.51 174.77 366.24 584.37 856.13 407.77 1017.14 392.23 991.15 479.08 895.17 602.58 1042.06 590.04
00001742 00000093 715.39 183.02 363.38 581.00 848.71 413.27 1008.14 396.38 980.86 485.61 890.23 608.83 1034.57 594.23
00001743 00000094 382.00 83.12 255.73 359.93
00001744 00000095 380.17 84.28 255.77 360.12
00001745 00000096 377.48 84.86 255.37 359.51
00001746 00000097 374.80 85.44 254.98 358.90
00001747 00000098 372.11 86.03 254.58 358.29
00001748 00000099 369.42 86.61 254.18 357.68
00001749 00000100 366.74 87.19 253.78 357.07
00001750 00000101 365.48 86.83 253.24 355.96
00001751 00000102 364.22 86.47 252.70 354.86
00001752 00000103 362.96 86.11 252.17 353.76
00001753 00000104 361.70 85.75 251.63 352.65
00001754 00000105 360.44 85.39 251.09 351.55
00001755 00000106 359.03 84.49 250.67 351.13
00001756 00000107 357.62 83.59 250.24 350.71
00001757 00000108 356.21 82.70 249.82 350.29
00001758 00000109 354.80 81.80 249.40 349.87
00001759 00000110 353.40 80.90 248.98 349.45
00001760 00000111 351.28 79.44 248.64 349.18
00001761 00000112 349.17 77.99 248.31 348.92
00001762 00000113 347.05 76.54 247.97 348.65
00001763 00000114 344.93 75.08 247.63 348.38
00001764 00000115 342.82 73.63 247.29 348.12
00001765 00000116 340.27 72.41 247.16 347.33
00001766 00000117 337.72 71.19 247.03 346.55
00001767 00000118 335.17 69.96 246.90 345.77
00001768 00000119 628.35 172.81 331.39 489.63 776.90 360.51 918.84 363.22 895.50 422.56 801.10 530.41 924.19 532.99
00001769 00000120 330.07 67.52 246.64 344.21
CROP_BBOX: 459 0 1470 963
