Video ID: 	zY82O-Bsc4s
H: 	1080
W: 	1920
FPS: 	23.976023976023978

FRAME INDEX X0 Y0 W H [Landmarks (5 Points)]

00001132 00000000 703.96 147.15 457.69 603.73 949.73 331.28 1124.69 331.28 1121.90 467.33 969.83 584.53 1102.48 584.21
00001133 00000001 711.54 148.76 454.91 601.90 958.29 333.63 1129.61 330.03 1127.52 468.78 977.91 584.94 1108.82 581.81
00001134 00000002 719.13 149.98 454.67 597.76 964.67 332.87 1135.91 327.35 1132.45 468.67 982.89 583.88 1113.87 579.51
00001135 DELETE   720.66 146.71 457.34 599.47 970.09 331.14 1142.49 326.81 1139.17 467.49 983.94 581.52 1117.75 578.29
00001136 DELETE   721.82 160.63 460.65 583.69 974.44 326.90 1145.08 324.79 1146.79 464.77 987.47 576.02 1122.07 575.24
00001137 00000005 722.75 153.40 459.08 595.01 976.74 324.73 1144.92 323.79 1148.29 463.72 983.26 575.11 1119.48 575.26
00001138 00000006 724.44 153.51 458.78 592.87 978.74 322.33 1146.27 320.86 1151.38 461.81 986.15 574.36 1120.98 574.37
00001139 00000007 725.55 152.33 459.29 591.36 978.63 320.71 1148.35 317.61 1151.94 459.53 992.40 576.06 1125.37 574.43
00001140 00000008 726.60 147.14 458.25 593.86 978.24 320.47 1149.09 314.47 1151.62 458.58 992.83 576.67 1125.73 572.52
00001141 00000009 726.39 146.91 456.68 593.99 978.87 320.17 1146.42 314.13 1151.93 458.02 992.88 576.39 1123.14 572.29
00001142 00000010 725.74 145.43 454.46 597.28 979.22 319.33 1142.51 313.96 1150.82 455.94 993.42 577.32 1119.92 573.94
00001143 DELETE   724.35 145.19 454.03 600.88 978.93 317.47 1138.59 314.13 1152.06 453.30 988.66 575.92 1115.38 574.50
00001144 00000012 721.04 146.54 455.09 603.12 977.19 316.15 1133.06 311.43 1152.59 452.53 981.12 573.51 1109.17 571.44
00001145 DELETE   720.62 141.33 454.05 610.00 975.64 315.94 1130.03 310.35 1151.49 449.97 983.50 574.96 1107.03 571.79
00001146 DELETE   718.79 142.86 455.70 608.02 972.80 317.30 1128.27 312.76 1147.97 450.46 983.45 575.47 1105.56 572.90
00001147 DELETE   715.33 140.50 456.46 610.71 966.49 317.59 1124.44 312.98 1140.36 448.91 984.08 576.88 1104.81 573.42
00001148 00000016 710.30 141.53 455.65 611.23 957.32 317.94 1118.85 310.95 1132.89 447.75 985.55 579.78 1106.18 573.82
00001149 DELETE   707.88 135.68 448.99 617.20 946.49 316.49 1114.43 310.96 1126.22 449.03 982.41 582.25 1103.75 577.15
00001150 DELETE   701.59 124.07 454.61 631.68 938.08 318.58 1111.33 311.98 1120.31 449.30 975.55 584.34 1103.72 578.06
00001151 DELETE   702.15 120.13 450.64 632.83 930.50 324.59 1108.77 316.47 1117.09 450.27 965.33 584.24 1100.21 577.23
00001152 00000020 698.96 126.47 450.06 624.00 928.39 325.27 1108.63 319.52 1113.78 452.60 962.73 582.94 1100.23 577.84
00001153 00000021 702.18 125.41 448.51 623.62 932.85 326.93 1109.48 320.63 1114.20 454.03 966.52 583.83 1100.33 578.34
00001154 00000022 705.44 127.93 449.02 624.86 937.43 327.31 1111.43 321.58 1116.21 455.57 969.58 584.51 1102.10 579.45
00001155 00000023 706.47 122.52 451.61 629.05 944.74 328.21 1118.33 320.87 1121.80 455.77 978.60 583.15 1108.73 576.28
00001156 DELETE   708.87 113.50 452.70 632.48 954.70 334.68 1127.66 331.26 1122.72 457.61 981.52 581.78 1110.99 577.61
00001157 DELETE   714.10 124.41 454.53 619.27 958.54 335.58 1131.73 331.13 1125.59 458.20 985.19 581.64 1116.50 576.38
00001158 00000026 715.87 136.95 459.40 615.49 961.11 329.80 1136.75 327.94 1134.15 462.31 975.21 582.17 1115.84 580.34
00001159 00000027 720.33 142.48 456.60 609.66 967.39 328.50 1137.61 323.06 1139.49 460.57 975.13 577.59 1116.35 573.76
00001160 DELETE   722.77 148.54 461.18 599.65 972.43 324.19 1146.15 318.80 1145.63 463.78 979.12 574.19 1122.05 570.61
00001161 00000029 725.17 148.74 463.59 597.97 974.85 320.75 1150.23 314.78 1149.70 462.57 986.35 575.42 1125.85 571.45
00001162 00000030 729.78 145.06 459.89 598.32 977.56 318.89 1153.84 312.86 1154.95 461.97 989.87 575.59 1128.98 571.77
00001163 00000031 729.94 148.08 458.62 603.56 984.13 318.60 1153.52 315.69 1159.29 463.01 992.47 578.80 1126.39 577.66
00001164 DELETE   730.96 153.11 459.83 602.20 985.49 318.63 1152.92 314.97 1161.10 465.21 989.19 578.84 1124.53 577.51
00001165 00000033 730.36 145.67 460.30 612.20 986.14 319.60 1153.48 317.29 1160.60 464.62 985.95 576.72 1125.18 576.23
00001166 DELETE   729.82 141.55 460.61 611.49 984.29 324.38 1153.87 322.63 1158.76 464.40 986.69 575.48 1126.69 574.91
00001167 DELETE   732.64 141.31 456.65 601.45 984.43 322.96 1151.64 319.59 1157.89 459.18 993.30 574.23 1127.18 572.16
00001168 00000036 730.92 132.55 457.72 605.02 979.74 315.04 1150.17 311.82 1152.53 450.39 994.72 572.61 1126.71 570.31
00001169 00000037 729.70 137.11 455.44 596.31 976.24 310.05 1146.29 307.26 1150.28 443.87 995.31 567.61 1126.67 565.47
00001170 00000038 726.22 126.26 454.93 606.34 976.30 306.19 1141.22 305.45 1147.10 436.33 995.28 562.45 1121.15 561.87
00001171 00000039 725.88 118.92 450.82 612.00 976.83 304.33 1137.31 304.28 1144.56 432.08 994.25 557.71 1117.78 557.73
00001172 00000040 719.93 121.21 454.23 608.46 975.18 302.44 1132.52 300.54 1143.66 431.73 994.31 557.36 1112.88 556.01
00001173 00000041 716.59 122.69 454.02 606.31 972.55 303.28 1130.27 303.87 1140.03 432.51 994.10 557.78 1111.42 558.22
00001174 00000042 715.03 122.61 452.41 605.59 971.96 303.80 1127.07 306.24 1138.94 432.55 992.40 558.59 1107.20 560.74
00001175 DELETE   710.85 127.13 451.59 602.48 965.57 305.29 1125.92 310.40 1133.05 435.14 986.64 559.79 1105.18 563.77
00001176 DELETE   707.00 124.42 450.71 607.49 962.18 304.26 1120.53 311.56 1128.65 436.36 975.53 557.73 1095.66 563.94
00001177 DELETE   709.07 125.77 442.94 603.77 958.29 301.37 1116.56 309.87 1125.75 434.40 966.70 552.96 1090.24 560.58
00001178 00000046 706.92 123.44 443.02 603.37 957.20 299.85 1112.18 308.33 1123.25 429.86 964.84 545.42 1089.57 553.29
00001179 DELETE   705.85 120.53 441.81 605.47 956.58 298.12 1108.16 307.07 1122.93 427.44 963.09 541.94 1086.68 550.49
00001180 00000048 703.16 120.25 444.50 612.72 952.72 296.93 1107.53 307.07 1118.82 428.39 959.15 545.56 1084.65 554.81
00001181 00000049 699.36 116.44 447.28 621.08 946.51 296.90 1104.93 305.72 1113.47 429.15 952.85 548.57 1082.64 556.69
00001182 00000050 686.88 109.74 450.49 627.44 929.24 309.11 1093.82 309.21 1100.67 433.40 938.16 551.24 1078.09 551.73
00001183 DELETE   678.56 121.78 453.07 614.10 909.86 308.99 1086.97 305.32 1082.93 437.86 928.63 557.16 1074.95 553.53
00001184 DELETE   663.72 126.35 457.13 612.54 888.77 311.94 1074.43 303.43 1059.74 437.02 914.03 562.61 1064.58 554.59
00001185 DELETE   661.74 124.37 456.45 616.36 875.81 315.69 1064.90 306.18 1041.75 439.41 904.78 565.68 1058.59 555.96
00001186 00000054 653.92 128.88 459.43 612.06 866.75 317.11 1057.21 307.19 1034.62 443.33 899.09 568.31 1051.29 558.43
00001187 00000055 649.59 131.86 461.49 609.63 864.87 317.14 1056.21 307.34 1035.10 445.10 896.92 569.51 1048.80 560.14
00001188 00000056 651.34 131.05 460.29 609.79 868.04 317.24 1058.10 307.09 1037.07 445.88 900.63 569.35 1051.25 559.48
00001189 00000057 658.73 123.61 455.97 618.39 875.31 317.76 1062.89 306.14 1041.68 443.29 908.97 572.28 1055.82 560.54
00001190 00000058 659.96 126.97 455.99 621.20 886.55 316.15 1069.97 305.72 1056.75 443.62 911.97 574.51 1059.14 565.32
00001191 00000059 666.62 131.21 451.71 612.82 892.51 313.04 1073.43 303.30 1064.86 443.41 921.60 575.49 1063.99 567.26
00001192 00000060 671.05 132.58 452.53 607.74 898.54 312.00 1079.10 304.62 1072.03 443.55 929.55 572.81 1070.76 565.95
00001193 00000061 677.56 125.43 447.90 612.05 907.67 310.38 1085.12 304.16 1081.53 442.40 939.23 572.79 1076.13 566.49
00001194 00000062 680.03 124.76 446.26 612.45 913.67 310.31 1087.15 305.83 1089.93 439.43 950.37 573.15 1080.75 567.57
00001195 DELETE   679.85 114.28 447.37 624.01 918.30 308.60 1088.00 306.08 1093.13 437.05 953.24 572.53 1079.96 568.72
00001196 00000064 680.24 115.21 450.91 625.12 921.52 306.67 1090.19 305.37 1096.14 436.06 949.62 569.50 1078.86 567.38
00001197 00000065 679.86 117.86 454.27 625.30 920.41 306.83 1088.55 302.49 1096.59 434.22 941.68 565.43 1076.90 561.89
00001198 00000066 679.96 116.88 454.99 626.92 918.59 306.96 1086.94 303.02 1094.22 432.57 936.86 562.44 1076.36 559.35
00001199 00000067 678.94 110.36 455.05 633.22 920.62 305.46 1087.09 304.01 1095.50 430.36 936.62 559.69 1075.28 558.84
00001200 00000068 679.32 112.51 454.36 628.86 921.97 303.29 1088.33 304.53 1096.51 429.07 937.37 557.83 1074.31 559.13
00001201 00000069 678.76 110.62 454.11 628.82 923.10 302.59 1088.46 304.43 1097.72 428.93 938.86 557.04 1073.59 558.83
00001202 00000070 681.22 107.60 452.39 628.77 925.37 303.11 1092.10 304.82 1099.69 430.27 940.66 556.78 1075.91 558.58
00001203 00000071 683.10 106.98 451.17 627.66 927.95 302.99 1093.82 304.48 1102.11 429.81 945.13 556.79 1079.18 558.23
00001204 00000072 684.49 103.91 452.18 629.21 931.24 304.06 1096.12 305.07 1105.74 429.46 950.96 557.51 1082.45 558.09
00001205 DELETE   682.17 108.46 453.76 624.28 932.38 304.19 1095.42 302.59 1110.51 429.68 955.88 560.83 1083.75 559.26
00001206 DELETE   686.32 109.49 450.43 625.68 935.02 306.09 1097.26 306.36 1113.16 429.47 958.66 561.41 1086.66 561.12
00001207 00000075 690.67 112.58 457.36 627.44 946.51 297.77 1105.93 306.32 1120.97 432.78 965.49 559.38 1087.71 567.02
00001208 00000076 694.67 111.02 455.20 629.56 948.30 299.40 1105.50 305.29 1124.82 432.52 967.67 560.69 1088.37 566.21
00001209 00000077 694.68 112.50 456.25 629.02 952.00 300.12 1106.00 304.54 1127.62 433.97 970.54 561.89 1087.75 566.31
00001210 00000078 695.28 116.64 455.98 624.70 953.27 303.09 1105.96 305.09 1128.03 435.16 973.20 562.84 1088.27 565.16
00001211 00000079 695.89 118.09 455.25 622.81 954.47 303.24 1105.47 304.35 1128.98 435.22 975.06 562.56 1087.83 564.18
00001212 00000080 694.32 118.70 457.08 622.81 954.73 302.53 1104.70 302.97 1130.68 434.94 973.82 562.23 1086.50 563.43
00001213 00000081 696.08 122.56 455.67 618.50 953.60 301.04 1103.44 302.06 1128.53 434.00 970.79 560.51 1085.39 562.31
00001214 00000082 696.94 122.32 454.27 620.11 950.76 298.00 1101.77 300.56 1127.56 432.91 963.08 558.55 1082.25 561.83
00001215 00000083 698.47 121.28 451.13 618.60 949.80 295.53 1101.44 298.37 1125.80 430.70 959.09 553.95 1080.93 557.78
00001216 00000084 697.63 122.25 449.48 613.44 950.76 295.01 1101.30 300.03 1122.88 428.64 958.31 548.19 1079.97 553.62
00001217 00000085 697.89 117.50 448.79 613.60 954.01 296.26 1103.45 301.42 1123.67 426.60 961.99 545.95 1082.22 551.58
00001218 DELETE   698.03 118.58 450.09 610.88 955.51 297.99 1101.37 300.32 1126.94 425.39 968.56 545.66 1084.81 548.96
00001219 00000087 699.23 112.37 449.49 614.14 960.06 299.42 1105.39 298.34 1130.20 426.20 979.63 547.70 1091.72 548.01
00001220 00000088 701.99 112.33 448.74 610.93 962.89 300.02 1107.80 295.14 1134.70 425.90 989.57 549.58 1098.60 546.36
00001221 00000089 705.84 112.50 448.22 610.79 963.68 301.51 1109.41 292.30 1136.32 426.87 991.71 552.37 1101.51 545.49
00001222 00000090 706.75 111.70 447.29 614.38 965.88 301.43 1111.51 294.78 1137.60 429.23 992.07 555.77 1100.73 551.05
00001223 00000091 706.95 111.55 448.68 619.11 966.54 301.95 1112.44 294.69 1138.77 431.02 986.67 557.65 1096.99 552.73
00001224 00000092 705.36 115.91 448.59 615.38 961.34 301.96 1110.58 295.53 1133.47 430.82 979.44 554.86 1094.74 550.37
00001225 00000093 697.72 107.33 452.82 624.33 955.68 305.58 1107.00 301.78 1128.87 429.72 975.12 554.41 1094.13 552.24
00001226 00000094 695.37 98.17 452.59 633.42 946.96 306.91 1102.68 304.23 1118.86 428.47 969.15 555.42 1093.20 554.08
00001227 00000095 692.60 103.13 445.92 628.04 933.06 314.28 1093.94 303.06 1111.99 429.13 961.51 561.65 1088.68 551.81
00001228 00000096 692.06 103.14 447.45 630.04 931.06 314.07 1093.85 301.55 1110.99 429.82 960.53 563.45 1088.63 552.38
00001229 00000097 694.25 104.44 445.33 627.35 932.92 315.48 1094.95 303.58 1113.07 429.12 963.86 563.86 1090.61 553.29
00001230 00000098 699.90 104.62 448.66 627.87 943.91 306.49 1102.96 305.22 1117.46 428.82 971.54 557.23 1094.56 556.68
00001231 00000099 699.35 108.17 450.49 624.69 945.07 303.74 1104.33 302.66 1119.41 428.43 972.28 556.81 1095.49 556.41
00001232 00000100 701.21 106.54 450.09 626.13 948.29 304.82 1107.60 300.50 1122.85 429.35 977.65 557.62 1100.58 554.40
00001233 00000101 704.94 102.19 448.42 630.63 950.99 307.97 1110.94 301.96 1124.86 429.40 981.95 557.65 1106.03 552.74
00001234 00000102 708.07 102.08 450.57 630.58 954.00 309.68 1116.49 299.30 1127.54 431.13 986.58 560.93 1112.48 552.10
00001235 DELETE   709.43 105.71 454.65 628.49 962.71 306.99 1118.30 293.58 1137.19 429.42 993.13 564.25 1112.01 553.28
00001236 DELETE   718.35 110.55 449.98 625.09 965.92 307.15 1125.89 298.57 1135.05 433.42 999.05 569.85 1116.66 561.92
00001237 00000105 721.65 112.18 450.45 623.67 969.33 309.81 1129.59 303.65 1137.46 433.47 996.53 567.59 1118.58 561.94
00001238 00000106 721.63 120.34 455.56 621.05 969.03 308.54 1130.86 299.91 1141.36 433.34 988.57 564.08 1120.59 557.04
00001239 00000107 724.05 128.31 452.28 618.07 969.87 307.85 1131.94 301.36 1144.16 437.13 980.89 564.57 1116.51 559.91
00001240 00000108 724.47 128.31 453.73 622.32 968.64 309.02 1131.98 300.97 1142.85 439.41 975.54 564.31 1115.36 558.54
00001241 00000109 725.01 125.13 452.74 629.61 969.00 310.02 1133.21 303.01 1143.91 441.69 976.12 567.82 1116.05 562.71
00001242 00000110 725.07 121.84 454.23 627.49 969.37 310.49 1139.25 304.33 1142.87 442.32 984.22 569.68 1122.66 564.65
00001243 00000111 726.66 114.79 455.20 630.90 968.71 311.14 1144.82 301.79 1143.75 442.18 988.32 568.78 1130.07 560.56
00001244 00000112 730.80 112.07 451.11 631.54 969.83 308.69 1144.51 300.33 1145.46 439.81 992.65 568.89 1131.07 561.51
00001245 00000113 734.05 109.98 448.39 629.83 972.21 309.44 1144.62 299.68 1148.35 438.12 996.27 569.30 1131.32 561.21
00001246 00000114 735.13 112.08 447.98 627.11 972.47 310.63 1143.87 300.80 1148.67 438.47 995.92 569.11 1130.33 561.11
00001247 00000115 734.78 114.92 448.32 621.95 972.32 311.00 1144.56 302.32 1147.91 438.08 996.71 568.21 1130.86 561.04
00001248 00000116 733.19 114.69 448.88 620.82 971.13 311.92 1144.51 302.53 1147.13 437.94 993.31 567.53 1129.75 559.99
00001249 00000117 732.49 112.02 448.37 621.60 971.67 311.20 1144.60 304.04 1146.13 437.37 992.26 564.71 1128.98 559.00
00001250 00000118 730.97 115.55 448.27 614.84 970.79 309.45 1143.21 302.87 1144.87 435.29 992.11 562.13 1127.79 556.67
00001251 00000119 729.90 115.62 448.71 613.88 969.94 309.12 1142.41 301.33 1144.73 434.66 990.27 560.74 1126.88 554.46
00001252 00000120 729.15 117.87 449.60 611.94 969.01 309.90 1142.87 301.85 1143.16 437.13 989.36 561.59 1126.34 555.10
00001253 00000121 728.44 127.36 450.65 603.88 965.61 313.27 1143.42 304.59 1141.00 440.53 987.09 564.52 1127.59 557.37
00001254 00000122 726.46 131.97 452.81 601.43 961.96 314.48 1142.48 305.71 1139.08 442.29 985.29 565.61 1128.43 558.13
00001255 00000123 715.42 126.42 457.45 605.06 955.75 312.81 1132.24 304.70 1131.09 437.72 983.18 561.78 1122.69 554.76
00001256 DELETE   702.81 121.09 454.82 603.70 938.27 310.21 1112.49 303.36 1117.41 428.92 976.58 557.27 1113.37 550.98
00001257 DELETE   689.68 111.53 451.11 612.63 912.89 315.56 1087.71 299.46 1092.88 427.55 952.45 561.34 1094.27 546.09
00001258 00000126 684.91 117.75 451.74 605.21 895.98 317.70 1083.54 297.67 1073.05 434.08 938.51 566.00 1088.31 547.59
00001259 00000127 682.93 120.18 450.39 610.67 890.54 320.77 1078.78 300.43 1063.90 439.93 935.92 575.06 1083.23 556.34
00001260 00000128 681.19 126.17 453.74 612.02 889.34 323.65 1079.58 303.90 1066.72 445.54 935.89 581.39 1084.45 563.27
00001261 00000129 685.81 125.39 450.57 609.20 893.02 322.17 1082.40 302.27 1069.74 444.82 939.63 580.27 1087.35 561.91
00001262 00000130 685.69 126.10 450.31 604.53 897.12 319.81 1084.49 302.85 1074.31 440.18 941.51 575.53 1088.52 559.52
00001263 00000131 686.40 124.94 452.04 607.50 900.90 318.41 1086.91 302.64 1078.07 439.08 944.44 574.83 1090.43 559.58
00001264 00000132 688.57 128.36 454.18 608.96 905.57 321.44 1091.27 304.26 1085.81 443.60 940.86 573.87 1092.92 558.35
00001265 DELETE   694.27 139.00 454.86 603.80 915.35 318.76 1101.01 315.34 1096.24 442.94 943.94 571.08 1095.18 568.20
00001266 DELETE   700.14 140.50 452.00 602.94 924.91 318.62 1105.49 316.67 1106.76 445.08 950.54 571.58 1096.34 570.05
00001267 00000135 702.91 137.01 454.96 604.76 931.69 316.57 1111.42 314.69 1112.15 440.20 965.45 568.51 1107.01 566.11
00001268 00000136 709.49 131.52 456.98 608.37 937.84 319.50 1117.30 312.02 1115.03 439.75 975.52 568.80 1117.38 561.34
00001269 00000137 714.86 135.66 460.77 605.70 941.70 320.39 1124.98 309.28 1118.99 442.78 982.26 573.71 1125.60 563.19
00001270 00000138 720.27 140.75 460.17 602.38 945.32 326.42 1129.51 310.57 1123.28 446.97 986.73 579.09 1131.29 564.75
00001271 00000139 731.09 134.16 453.40 610.34 952.97 325.84 1140.34 312.19 1133.30 446.45 996.45 585.76 1138.23 572.73
00001272 00000140 740.06 131.39 447.65 611.29 962.72 325.21 1146.16 314.14 1139.74 448.13 1004.58 586.30 1142.57 575.54
00001273 00000141 744.56 139.22 444.97 599.81 965.70 326.91 1147.47 313.48 1144.53 449.05 1008.89 584.36 1148.42 571.93
00001274 00000142 746.74 133.91 443.79 608.27 969.02 327.95 1149.50 313.14 1147.54 452.48 1009.21 586.73 1149.88 573.44
00001275 00000143 748.12 141.97 444.34 607.25 970.58 331.64 1150.14 318.87 1148.24 456.36 1009.89 590.07 1151.55 578.18
00001276 00000144 749.63 144.83 442.64 610.93 972.20 336.21 1150.30 322.20 1151.65 460.92 1008.69 593.54 1151.50 581.03
00001277 00000145 750.00 148.37 442.89 612.28 973.64 339.17 1149.08 326.67 1151.24 463.16 1006.17 594.04 1148.47 582.89
00001278 00000146 746.92 141.65 443.54 620.88 974.90 350.96 1148.70 336.77 1152.33 468.56 1002.44 595.48 1143.52 582.85
00001279 DELETE   746.18 139.89 443.83 624.49 975.29 358.29 1145.65 347.24 1147.29 470.80 996.44 597.16 1135.43 587.44
00001280 00000148 742.96 139.87 445.42 630.56 972.31 356.22 1142.89 346.63 1145.69 469.07 993.84 598.56 1132.76 589.95
00001281 00000149 739.93 147.56 453.04 631.29 974.08 352.57 1141.15 347.74 1141.58 469.86 991.09 599.55 1125.28 595.68
00001282 00000150 740.75 151.25 454.28 627.20 971.63 352.42 1142.85 344.61 1137.56 473.70 987.30 598.00 1128.21 591.67
00001283 00000151 741.11 152.53 453.09 626.31 970.96 353.16 1143.63 345.52 1136.70 475.62 985.04 597.79 1128.69 591.62
00001284 00000152 741.30 161.48 451.55 617.91 967.20 352.34 1143.90 344.80 1132.26 478.41 980.54 598.65 1126.35 592.66
00001285 00000153 740.51 166.61 449.91 611.94 965.98 353.97 1142.27 348.76 1130.16 479.96 978.08 598.88 1122.58 594.84
00001286 00000154 740.11 161.31 450.03 617.46 966.53 355.44 1143.18 350.87 1130.87 482.12 978.04 599.98 1122.80 596.53
00001287 00000155 740.37 163.36 450.13 615.48 965.98 356.97 1144.35 351.69 1131.35 484.40 977.81 601.61 1123.75 597.68
00001288 00000156 740.49 165.19 449.96 613.63 965.20 357.27 1144.73 351.60 1131.09 485.30 977.04 602.53 1124.36 598.33
00001289 00000157 741.57 162.21 449.44 617.83 964.85 358.27 1145.53 353.15 1131.52 486.94 976.22 603.84 1124.42 600.11
00001290 00000158 739.80 168.90 449.74 612.17 964.19 358.71 1145.03 355.02 1131.59 489.27 974.40 605.51 1122.02 603.03
00001291 00000159 738.75 169.09 451.25 613.57 963.29 358.04 1145.20 354.91 1131.15 490.17 973.13 606.50 1121.45 604.56
00001292 00000160 738.88 167.06 451.48 615.80 963.16 358.65 1145.18 355.52 1130.46 491.09 971.74 606.52 1120.49 604.71
00001293 00000161 738.78 165.11 452.60 618.30 963.31 359.13 1146.08 356.72 1130.15 491.02 972.73 607.31 1121.66 605.94
00001294 00000162 738.70 167.71 452.60 615.98 963.88 359.29 1146.46 357.90 1130.88 492.05 973.12 607.52 1121.91 606.88
00001295 DELETE   737.75 159.07 454.02 624.55 965.88 360.16 1147.92 361.10 1133.54 492.76 974.43 606.30 1121.76 607.70
00001296 DELETE   738.36 156.21 453.62 627.22 967.65 360.73 1149.54 362.19 1135.11 494.49 973.52 606.14 1121.73 608.23
00001297 00000165 739.60 160.06 452.71 623.59 966.40 360.48 1149.96 360.79 1134.40 495.13 973.45 607.46 1123.02 608.36
00001298 00000166 740.07 157.88 452.67 625.59 966.14 361.69 1150.19 361.30 1133.53 495.25 974.35 607.62 1123.97 607.88
