Video ID: 	kmb02SBmE1I
H: 	1080
W: 	1920
FPS: 	25.0

FRAME INDEX X0 Y0 W H [Landmarks (5 Points)]

00021881 00000000 504.67 180.15 443.08 648.63 694.94 449.46 875.79 476.34 809.63 583.40 674.06 652.71 828.51 676.61
00021882 DELETE   507.51 181.56 440.69 645.32 696.27 454.52 874.52 479.51 809.13 588.46 673.85 653.03 827.35 675.61
00021883 00000002 510.05 190.37 436.50 637.15 694.69 470.13 871.13 482.78 806.02 597.83 674.76 657.81 827.02 670.54
00021884 00000003 508.67 196.22 436.50 639.96 690.89 472.73 868.66 486.38 800.49 599.74 671.41 661.79 824.40 675.38
00021885 DELETE   505.95 196.98 438.32 648.33 689.79 473.15 867.83 487.52 800.71 603.99 668.52 661.97 826.23 676.38
00021886 00000005 505.10 195.17 439.34 655.03 688.39 472.89 867.79 489.11 799.65 605.31 666.40 664.53 825.17 680.42
00021887 00000006 504.43 198.90 438.96 650.22 686.70 472.90 866.02 487.86 798.51 603.17 669.77 669.22 822.59 683.77
00021888 00000007 503.26 199.11 437.57 645.93 684.48 472.01 864.18 486.61 797.52 600.34 671.28 670.15 821.49 684.27
00021889 00000008 502.32 201.81 435.04 637.97 681.53 472.56 861.94 484.39 796.75 599.04 672.41 671.10 821.34 683.05
00021890 00000009 501.73 204.35 432.65 631.87 678.44 473.25 858.75 482.04 793.22 600.04 671.52 672.52 817.86 682.35
00021891 00000010 500.43 208.43 430.24 632.62 675.77 473.26 856.71 480.94 791.84 599.33 670.46 677.24 814.77 686.44
00021892 00000011 500.01 206.16 429.90 636.23 672.94 474.84 857.23 481.67 791.58 600.84 671.12 683.17 813.49 691.54
00021893 00000012 500.08 202.10 427.79 635.86 672.81 479.07 857.37 486.08 791.46 604.90 670.47 684.01 811.49 692.57
00021894 00000013 498.22 207.59 428.05 631.89 670.24 480.83 856.19 487.93 789.40 606.98 668.35 685.92 810.71 694.55
00021895 00000014 497.91 208.59 427.37 632.04 668.42 481.97 855.04 487.81 787.48 608.00 667.44 686.29 811.08 693.98
00021896 00000015 498.29 207.60 424.82 630.42 667.69 482.55 854.11 486.34 788.84 605.86 668.74 684.86 813.55 690.93
00021897 00000016 497.75 206.26 424.64 630.18 667.58 480.74 854.13 483.97 789.75 604.22 669.12 682.92 815.79 688.38
00021898 00000017 496.30 203.13 425.19 629.83 667.50 479.20 853.16 481.77 790.54 602.14 670.16 680.35 817.74 685.11
00021899 00000018 495.88 200.97 425.57 633.24 666.83 479.00 853.36 481.07 790.80 600.56 670.93 681.03 818.95 685.26
00021900 00000019 495.75 199.67 426.41 637.64 668.75 480.47 854.53 482.34 791.93 602.61 672.15 682.08 819.57 686.16
00021901 00000020 497.63 204.81 427.15 633.76 670.50 482.31 856.62 484.77 792.50 604.47 673.27 683.75 819.59 688.31
00021902 00000021 499.09 208.02 429.17 632.96 674.20 484.48 860.64 487.30 795.83 606.22 676.49 687.04 821.79 691.81
00021903 00000022 502.62 203.65 429.71 636.55 676.52 486.01 863.65 488.29 799.42 608.06 680.33 689.36 825.00 693.34
00021904 00000023 504.11 204.04 430.70 635.34 678.96 485.39 866.10 488.27 802.18 607.12 682.46 689.39 827.02 693.73
00021905 00000024 506.37 201.47 431.47 635.17 680.79 483.69 868.22 487.61 803.44 604.92 684.04 687.24 828.76 692.19
00021906 00000025 507.38 201.66 432.59 624.24 682.68 479.18 869.28 484.36 804.30 600.19 685.91 681.07 829.33 687.01
00021907 00000026 505.01 202.44 435.18 624.96 683.51 472.47 868.67 480.48 803.72 595.12 686.15 677.45 828.75 685.66
00021908 00000027 507.39 195.53 433.54 628.92 684.96 468.42 868.85 477.57 802.91 593.09 685.47 674.92 826.24 684.18
00021909 00000028 509.14 200.86 432.70 620.87 685.71 466.19 870.44 476.57 803.02 592.46 685.36 674.00 825.78 684.50
00021910 00000029 509.77 199.36 435.89 625.30 688.67 464.53 873.11 476.66 805.24 591.81 686.59 674.62 826.12 686.43
00021911 00000030 511.62 197.63 437.79 626.36 689.40 464.45 876.91 477.54 806.74 591.77 686.68 675.40 829.58 687.64
00021912 00000031 511.23 201.95 440.29 625.22 690.71 464.92 878.62 478.95 809.13 593.43 687.18 677.36 830.28 690.37
00021913 00000032 511.77 198.93 440.58 628.38 691.61 464.55 879.28 479.52 809.32 593.57 687.62 677.49 830.07 691.23
00021914 00000033 511.79 197.60 440.56 628.92 692.14 464.07 879.25 480.10 808.82 593.49 687.31 676.95 828.74 691.48
00021915 00000034 511.73 196.96 439.86 627.33 691.65 463.70 879.24 479.51 808.29 592.98 686.90 675.68 828.92 690.12
00021916 00000035 511.63 195.58 440.13 629.26 692.10 462.86 879.16 478.77 808.58 592.34 687.75 674.52 829.76 688.97
00021917 00000036 511.97 194.18 439.53 629.70 692.13 462.50 879.21 478.68 808.33 591.49 685.96 672.45 829.77 687.05
00021918 00000037 511.82 195.85 439.94 627.60 692.34 461.78 878.71 479.04 808.01 591.13 684.39 671.57 828.04 687.26
00021919 00000038 510.67 193.70 441.57 638.75 691.62 460.01 879.02 480.08 808.98 591.90 678.99 672.77 827.70 690.78
00021920 00000039 508.92 195.52 443.04 639.51 690.66 460.67 878.99 480.94 808.26 593.15 676.49 672.69 827.19 690.99
00021921 00000040 508.24 195.28 443.90 639.11 690.70 461.84 878.63 481.90 808.16 594.05 677.40 673.09 827.14 691.27
00021922 00000041 508.22 196.92 444.34 640.26 690.73 463.81 878.56 481.95 808.96 595.62 679.99 675.64 829.06 692.09
00021923 00000042 510.51 202.94 442.67 626.47 692.01 467.51 880.57 483.58 809.50 597.83 685.49 677.67 829.86 692.30
00021924 00000043 510.95 202.67 442.80 630.52 693.59 469.81 880.70 485.11 811.01 600.17 686.33 678.17 832.23 692.04
00021925 00000044 511.08 205.92 442.78 627.55 693.02 471.88 880.49 486.51 811.57 601.37 686.44 679.02 833.32 692.45
00021926 00000045 512.58 203.82 443.32 630.69 697.21 472.34 882.98 487.34 815.03 603.33 690.02 680.12 834.83 693.63
00021927 00000046 515.31 206.68 444.37 624.63 702.17 470.94 887.33 486.69 819.49 604.44 693.64 682.33 835.73 696.50
00021928 00000047 517.04 206.35 444.36 624.89 705.68 470.63 888.93 486.12 823.15 602.89 698.01 683.07 837.62 696.95
00021929 00000048 518.27 206.86 444.98 624.90 707.31 470.03 890.24 486.73 823.78 602.71 698.30 682.30 838.12 697.31
00021930 00000049 520.34 207.05 445.84 624.50 707.70 471.27 891.77 488.45 823.74 604.71 698.11 682.89 839.78 698.14
00021931 00000050 522.65 206.31 444.46 623.24 709.55 472.79 892.89 490.80 824.11 607.35 697.35 682.52 838.92 698.46
00021932 00000051 524.84 208.47 445.83 621.52 711.42 474.63 894.87 493.72 824.54 610.48 698.91 684.56 840.20 701.25
00021933 00000052 525.83 211.16 446.28 620.51 714.02 476.41 897.47 494.88 828.32 612.27 701.36 687.26 842.64 703.43
00021934 00000053 528.78 203.02 446.37 631.12 717.09 476.77 900.66 496.24 830.99 614.81 703.76 689.07 845.72 705.93
00021935 00000054 530.09 202.28 446.66 635.31 719.42 476.61 902.16 496.06 833.00 614.21 706.18 689.34 847.67 706.05
00021936 00000055 531.29 204.37 445.70 631.91 719.60 476.21 903.08 495.50 833.27 614.14 707.13 689.91 848.24 706.54
00021937 00000056 531.63 205.70 444.86 628.96 719.54 476.20 903.22 495.11 833.60 613.94 707.32 689.91 848.09 706.31
00021938 00000057 531.38 205.17 444.87 627.88 719.03 476.12 901.90 496.04 832.44 613.79 705.85 687.67 847.04 704.88
00021939 00000058 529.04 201.75 446.76 631.77 717.61 475.54 900.21 495.29 830.81 613.03 704.34 686.60 845.65 703.60
00021940 00000059 526.90 202.12 447.75 632.91 715.56 476.03 897.94 495.45 828.39 613.58 701.40 685.81 843.92 702.64
00021941 00000060 525.75 206.37 447.14 629.37 714.11 475.60 897.16 495.16 826.91 613.06 700.08 685.89 843.07 702.86
00021942 00000061 524.64 208.31 447.44 628.43 714.55 475.29 896.91 495.36 827.35 613.05 699.85 685.92 842.42 703.35
00021943 00000062 524.65 208.14 447.00 629.05 713.82 475.53 896.05 495.63 826.31 612.91 699.02 685.78 841.91 703.27
00021944 00000063 525.23 207.19 446.51 626.72 713.18 476.41 894.96 495.88 824.72 613.71 698.83 684.79 841.12 701.72
00021945 00000064 526.18 207.95 445.82 626.70 713.25 476.80 894.86 495.95 825.33 613.30 700.55 686.08 842.35 702.71
00021946 00000065 526.67 206.48 445.08 627.45 714.06 476.65 895.42 496.20 826.44 612.45 701.82 686.63 842.23 703.59
00021947 00000066 526.25 206.15 445.39 628.17 714.72 476.51 896.43 496.27 827.94 612.01 702.57 687.21 842.57 704.38
00021948 00000067 527.73 206.70 444.89 628.88 715.37 476.57 898.77 495.49 830.19 611.21 704.42 689.03 845.65 705.45
00021949 00000068 528.31 205.46 443.89 631.46 715.22 476.07 897.98 495.01 829.92 609.70 706.53 690.20 846.30 706.48
00021950 00000069 529.55 207.36 446.22 632.33 718.13 474.40 900.41 495.60 831.07 610.87 706.81 688.88 847.64 706.82
00021951 00000070 531.89 200.83 451.01 635.76 723.83 471.57 905.62 498.87 835.34 613.11 704.66 684.15 847.74 707.44
00021952 00000071 541.78 204.61 444.52 628.12 721.21 462.74 910.60 493.19 832.76 610.73 698.99 678.84 843.82 706.65
00021953 DELETE   546.66 206.80 442.28 620.28 723.88 460.24 911.80 491.75 833.50 607.74 700.16 674.23 844.28 703.20
00021954 00000073 546.69 204.27 442.57 621.80 723.13 458.58 910.74 490.59 831.66 605.84 699.92 671.85 845.00 701.10
00021955 00000074 544.97 204.24 443.40 618.96 721.97 456.87 909.58 489.08 830.43 601.65 699.22 669.85 844.24 699.14
00021956 00000075 539.82 200.59 446.06 624.69 718.63 455.69 907.49 487.79 828.13 598.64 695.00 669.58 843.05 698.68
00021957 00000076 537.03 192.83 448.09 633.11 715.12 455.01 904.72 486.14 823.56 598.61 692.42 670.42 840.55 698.53
00021958 00000077 530.14 195.77 449.61 635.73 716.08 460.03 897.98 490.01 825.47 600.08 696.35 673.75 839.69 699.41
00021959 00000078 526.07 194.03 452.93 646.65 715.52 458.46 896.66 487.38 825.10 597.77 695.96 674.05 840.07 698.68
00021960 00000079 526.71 195.34 451.58 642.06 716.68 457.16 895.88 485.54 825.10 596.30 699.70 673.80 838.34 698.01
00021961 00000080 526.53 193.65 451.71 642.65 715.78 456.50 895.77 484.59 824.68 596.08 698.65 673.16 838.57 697.12
00021962 00000081 525.82 188.54 452.02 645.11 714.67 454.74 895.85 483.58 824.18 594.73 696.99 671.16 838.16 695.64
00021963 00000082 525.58 188.78 451.31 645.03 713.79 454.52 895.41 483.72 823.77 594.31 695.86 670.26 838.86 695.04
00021964 00000083 530.90 183.60 447.29 645.66 711.82 450.07 900.37 482.79 821.02 594.44 688.49 665.55 839.36 694.41
00021965 00000084 529.86 182.55 448.44 646.08 712.16 451.90 900.59 482.84 821.87 595.18 689.54 665.81 840.72 693.15
00021966 00000085 531.44 187.69 448.57 640.49 712.21 453.48 901.06 482.96 821.99 597.30 691.17 666.38 842.65 692.74
00021967 00000086 532.18 191.53 448.65 636.80 712.75 455.38 902.55 483.65 823.97 598.40 693.47 668.72 844.52 694.12
00021968 00000087 533.71 188.26 446.99 640.42 712.79 456.63 902.92 484.79 823.78 599.86 692.55 669.06 844.75 694.32
00021969 00000088 533.27 189.68 447.35 639.18 712.99 457.50 902.95 485.66 823.67 600.96 692.23 669.52 844.14 694.93
00021970 00000089 528.25 193.13 449.81 637.06 715.74 462.05 897.56 486.66 827.10 600.16 700.10 673.73 844.06 694.65
00021971 00000090 526.51 195.07 450.09 634.95 715.16 460.03 897.03 484.46 827.70 597.34 701.52 673.11 844.07 693.88
00021972 DELETE   525.65 192.88 448.70 635.81 713.70 457.75 896.16 482.99 826.39 594.69 701.14 671.82 842.92 693.05
00021973 00000092 524.11 190.79 446.82 638.78 710.61 457.89 893.70 483.06 823.45 593.99 698.11 672.64 840.58 693.95
00021974 00000093 520.67 200.34 446.54 628.56 707.39 462.07 889.78 484.19 819.58 597.15 696.79 674.99 836.77 694.18
00021975 00000094 519.25 202.03 444.06 630.38 702.82 465.93 887.65 487.89 816.57 598.43 692.61 678.29 834.71 697.48
00021976 00000095 518.05 200.09 442.51 633.87 700.87 468.19 884.86 488.93 815.15 601.26 690.47 678.92 832.86 697.28
00021977 00000096 517.60 196.05 443.17 636.48 701.47 466.43 885.45 488.64 815.43 599.06 689.54 676.55 832.44 695.99
00021978 00000097 518.36 198.76 444.56 629.93 703.68 463.28 887.82 486.36 817.55 594.98 692.73 673.72 835.52 693.67
00021979 00000098 519.39 193.10 446.14 633.74 705.13 458.58 889.20 482.47 817.55 594.09 693.41 670.89 836.10 691.32
00021980 00000099 520.36 193.93 445.07 633.86 705.86 455.93 889.39 481.36 817.67 592.88 691.22 668.21 835.83 690.06
00021981 00000100 520.39 191.52 445.17 641.77 706.48 452.56 887.67 480.05 817.74 591.16 689.97 666.42 834.81 690.12
00021982 DELETE   518.65 193.68 446.87 642.07 707.43 448.80 888.88 478.05 818.75 587.09 689.29 664.83 833.82 690.05
00021983 00000102 520.61 190.97 447.34 646.02 708.22 447.17 890.69 477.08 820.78 583.63 689.57 662.25 836.82 687.94
00021984 00000103 521.81 184.23 447.16 653.94 711.82 445.80 894.33 477.26 825.07 582.39 690.26 660.82 839.93 687.64
00021985 00000104 524.14 185.87 445.97 650.97 714.77 445.96 896.08 476.18 828.22 582.17 694.34 660.84 843.32 686.59
00021986 00000105 532.53 179.00 441.21 656.26 719.40 444.73 902.48 477.11 829.13 583.67 693.08 658.90 842.42 687.39
00021987 00000106 534.90 180.95 441.06 652.52 720.35 445.66 903.96 476.89 831.18 583.94 696.08 660.06 844.53 687.81
00021988 00000107 534.10 179.68 442.67 651.85 721.23 446.09 905.06 476.66 833.53 583.59 698.05 660.26 847.52 687.36
00021989 00000108 535.93 181.71 442.74 646.64 721.56 446.84 906.61 476.21 834.41 584.93 699.14 659.93 849.90 686.15
00021990 00000109 538.44 179.18 441.94 648.47 722.04 447.55 907.46 476.77 834.50 585.50 698.87 659.49 850.68 685.69
00021991 00000110 538.60 181.09 443.09 645.87 722.57 448.43 907.91 477.74 833.99 586.93 699.81 660.34 849.46 686.71
00021992 00000111 538.89 181.95 442.97 644.23 721.26 449.19 907.22 477.79 832.67 587.81 699.79 660.79 849.81 686.54
00021993 00000112 538.72 181.00 442.13 643.70 719.43 449.55 905.81 478.44 829.73 590.07 696.58 660.35 847.52 686.39
00021994 00000113 538.01 184.91 441.11 637.89 717.21 449.37 903.10 477.51 826.79 590.59 694.70 659.69 845.35 685.24
00021995 00000114 536.93 185.24 441.47 638.36 716.44 449.44 901.48 478.04 824.52 590.83 693.30 658.37 844.18 684.29
00021996 00000115 535.22 186.29 441.95 640.17 716.40 449.42 900.08 478.62 823.12 591.28 691.70 656.96 843.50 683.43
00021997 00000116 535.12 184.35 441.17 643.48 716.92 449.63 899.49 478.97 823.02 590.99 691.32 656.03 842.98 682.54
00021998 00000117 534.68 184.74 441.24 643.25 717.27 449.09 899.94 478.61 823.76 590.03 691.62 656.22 843.00 682.87
00021999 00000118 535.60 185.09 441.09 642.57 717.86 448.87 900.69 478.46 823.69 590.58 690.71 654.88 843.42 681.71
00022000 00000119 535.74 185.71 441.46 641.24 718.97 448.77 901.46 479.25 824.26 591.99 690.46 653.26 843.68 680.99
00022001 00000120 535.67 185.75 442.59 640.98 719.13 449.81 902.27 480.04 824.34 593.18 690.53 652.95 844.71 680.45
00022002 00000121 537.10 187.86 441.42 639.16 720.56 450.68 903.54 480.74 826.18 593.64 691.74 652.35 846.61 679.77
00022003 00000122 538.45 187.37 440.89 641.40 721.48 450.58 903.55 480.91 826.44 593.73 691.71 651.75 846.83 679.41
00022004 00000123 538.11 189.87 440.93 638.69 723.42 450.20 904.37 480.04 828.68 594.48 691.51 649.79 847.75 677.29
00022005 00000124 537.25 194.35 441.73 634.16 725.78 448.87 903.76 478.83 830.04 593.71 691.48 645.33 848.76 673.17
00022006 00000125 537.74 197.31 441.66 632.25 728.01 448.27 905.06 476.71 834.55 593.59 693.34 644.16 852.28 671.01
00022007 00000126 539.84 204.79 440.29 627.32 730.50 452.31 905.44 479.33 836.93 595.79 696.43 645.05 853.85 671.17
00022008 00000127 537.50 203.51 440.68 628.84 730.48 455.60 905.33 478.93 839.88 598.57 697.01 647.35 855.18 670.55
00022009 00000128 534.44 205.86 442.00 626.82 729.31 457.69 903.36 480.63 838.70 600.63 695.08 646.93 853.51 669.93
00022010 00000129 531.62 203.25 442.47 629.17 726.01 458.16 900.94 482.86 834.94 601.47 691.18 647.66 850.82 671.93
00022011 00000130 530.78 210.14 442.44 622.31 725.60 456.53 899.72 482.21 834.32 599.56 689.81 646.54 848.81 671.96
00022012 00000131 530.54 207.15 442.51 625.94 725.47 455.10 899.76 481.49 834.18 598.84 688.81 645.99 848.75 671.85
00022013 00000132 531.45 207.32 442.89 624.69 725.88 454.13 900.37 481.53 833.68 598.42 689.26 645.61 848.55 672.25
00022014 00000133 527.29 206.14 443.12 628.54 728.90 458.60 898.69 483.64 840.87 597.21 697.05 651.06 852.00 673.30
00022015 00000134 527.13 206.36 444.69 631.27 730.15 459.47 900.19 483.30 843.29 598.66 698.68 653.53 853.99 674.62
00022016 00000135 536.95 205.22 441.04 635.54 729.73 456.46 905.05 480.36 839.22 600.12 696.08 652.86 853.51 676.53
00022017 00000136 528.73 208.03 443.50 634.37 732.02 460.27 901.00 480.60 846.88 597.20 704.19 659.38 855.96 677.44
00022018 00000137 536.57 206.16 442.93 642.79 732.06 456.27 907.44 478.89 844.62 598.45 700.09 658.79 855.81 681.33
00022019 00000138 536.90 206.61 442.94 640.02 731.48 456.41 907.99 478.96 844.50 598.20 700.91 660.04 855.45 682.55
00022020 00000139 537.48 203.69 442.47 634.26 730.23 457.82 908.22 478.80 843.80 599.69 700.76 659.02 854.77 680.27
00022021 00000140 538.30 204.52 442.12 627.71 730.09 459.00 908.88 480.16 842.99 598.39 703.92 660.24 852.69 681.76
00022022 00000141 538.54 206.43 442.09 631.88 730.62 459.43 908.52 481.84 842.62 599.84 704.11 662.15 852.86 684.65
00022023 00000142 530.61 207.40 442.13 630.60 731.62 465.47 901.09 484.63 844.90 598.38 711.60 667.68 853.35 684.20
00022024 00000143 536.06 202.57 443.31 637.03 728.56 459.71 906.76 483.74 839.15 599.08 703.87 663.52 850.62 687.03
00022025 00000144 528.85 203.38 442.84 631.09 728.10 465.29 899.71 485.30 841.17 597.41 709.28 666.81 851.42 684.06
00022026 00000145 527.45 204.59 443.78 631.17 726.83 464.87 899.23 485.35 839.82 598.12 707.40 666.92 850.14 684.61
00022027 00000146 527.23 203.49 444.08 632.31 726.55 464.24 898.93 485.82 838.90 597.51 707.66 666.82 849.86 685.28
00022028 00000147 526.92 202.44 444.88 636.87 727.37 463.67 899.51 486.44 839.85 597.62 706.76 667.40 850.24 686.88
00022029 00000148 528.00 201.84 443.67 635.56 727.08 464.49 899.82 485.28 840.66 597.25 708.31 669.11 851.11 686.94
00022030 00000149 528.74 200.25 444.13 635.22 726.44 466.26 901.27 485.20 841.27 598.98 709.51 670.14 853.22 686.35
00022031 00000150 534.32 201.57 444.35 632.90 723.48 461.59 907.30 484.82 836.30 601.90 700.80 665.65 851.53 688.33
00022032 00000151 534.79 200.34 444.02 638.54 724.30 461.80 907.42 484.92 836.37 602.91 700.97 666.50 851.38 689.07
00022033 00000152 529.65 205.33 443.47 627.45 726.28 465.62 901.06 484.19 840.06 600.20 710.45 670.76 851.59 686.77
00022034 00000153 536.13 199.60 444.19 636.14 724.39 459.68 907.86 483.28 835.41 600.55 701.32 664.11 850.76 686.98
00022035 00000154 535.43 200.78 444.19 636.44 724.44 457.61 907.32 482.40 835.40 598.89 700.76 663.35 850.12 687.13
00022036 00000155 534.25 198.55 443.33 637.77 722.81 456.66 907.01 481.21 835.58 598.18 700.14 663.39 851.47 686.76
00022037 00000156 526.73 200.26 445.31 635.11 720.86 459.38 899.11 477.96 835.70 595.98 706.21 669.53 850.29 685.56
00022038 00000157 525.58 197.15 445.29 638.39 718.09 460.26 899.34 478.65 834.99 595.72 705.90 673.04 850.14 688.85
CROP_BBOX: 230 0 1246 1032
