Video ID: 	jhXN--3BwCw
H: 	1080
W: 	1920
FPS: 	29.97002997002997

FRAME INDEX X0 Y0 W H [Landmarks (5 Points)]

00002745 00000000 805.68 111.54 327.56 544.43 918.48 310.01 1073.08 332.21 1008.99 397.25 919.12 513.55 1024.35 533.51
00002746 00000001 804.35 111.83 331.02 542.58 924.64 311.27 1075.38 330.69 1018.33 398.76 930.10 514.48 1031.28 531.57
00002747 00000002 804.56 111.67 334.51 540.31 929.77 313.85 1079.66 330.79 1025.59 403.33 937.43 514.62 1039.45 529.69
00002748 00000003 805.90 115.73 336.86 534.93 931.79 314.71 1082.78 330.52 1033.65 399.70 942.21 513.44 1048.17 527.76
00002749 00000004 806.59 116.62 337.95 534.10 935.94 315.17 1086.91 330.80 1040.22 402.05 946.24 512.77 1054.71 527.25
00002750 00000005 809.30 115.70 336.94 535.33 938.22 315.17 1089.63 332.39 1045.07 400.24 949.28 511.41 1060.42 527.03
00002751 00000006 810.95 116.81 337.66 534.13 940.51 314.55 1093.11 331.31 1049.31 399.18 953.04 511.30 1065.90 526.75
00002752 00000007 813.47 115.80 338.41 536.78 943.99 315.75 1097.69 330.98 1054.95 401.60 957.67 513.15 1072.03 527.64
00002753 00000008 815.63 115.09 340.69 537.28 945.61 316.03 1100.20 327.86 1056.72 404.10 962.78 516.54 1075.89 528.33
00002754 00000009 818.62 117.21 341.86 540.12 947.71 315.98 1102.71 329.83 1060.32 402.28 967.53 519.80 1080.06 533.16
00002755 00000010 823.14 121.83 338.58 540.92 952.65 317.65 1106.88 334.76 1068.00 397.83 974.49 520.84 1088.11 536.81
00002756 00000011 827.18 126.33 336.73 536.74 957.88 319.51 1110.93 339.39 1073.27 395.12 979.38 519.51 1092.71 537.70
00002757 00000012 828.35 128.08 338.78 532.39 960.97 319.25 1117.28 340.38 1077.84 396.92 980.33 518.04 1097.57 537.15
00002758 00000013 829.64 128.79 342.30 526.97 965.59 319.10 1122.40 340.81 1082.97 399.55 980.91 512.74 1101.62 532.43
00002759 00000014 831.76 129.47 342.49 524.16 967.86 318.52 1124.16 340.42 1084.66 398.82 981.82 510.13 1103.05 530.19
00002760 00000015 833.20 128.05 343.96 526.77 968.14 316.45 1126.38 338.30 1084.16 395.76 980.61 508.74 1105.60 528.73
00002761 00000016 833.44 123.72 342.13 536.30 963.26 314.53 1126.15 336.00 1078.80 389.48 974.42 512.61 1103.98 532.31
00002762 00000017 831.72 124.00 335.69 542.76 955.00 314.46 1117.29 334.51 1068.02 384.13 964.40 514.67 1096.98 533.47
00002763 00000018 827.22 125.56 332.09 546.62 941.38 312.87 1102.20 325.86 1049.76 378.16 949.63 518.37 1080.84 532.11
00002764 DELETE   820.87 123.44 329.19 547.33 930.14 310.12 1087.62 321.03 1030.80 378.18 937.08 515.06 1063.61 526.90
00002765 00000020 816.74 119.83 323.41 554.39 915.41 309.46 1074.53 318.82 1007.77 379.44 922.23 517.52 1046.96 528.37
00002766 00000021 806.93 115.22 324.82 559.26 903.66 311.19 1062.05 322.28 988.73 382.45 909.85 520.17 1029.13 531.89
00002767 00000022 801.64 118.03 324.92 556.70 893.73 316.46 1051.19 326.26 973.29 388.98 899.46 521.42 1019.70 532.12
00002768 00000023 807.29 136.17 325.35 542.90 884.48 318.33 1044.14 319.34 957.80 389.93 894.40 524.19 1021.28 527.85
00002769 00000024 806.07 136.78 325.50 540.01 882.15 320.27 1041.89 320.87 954.28 392.28 891.67 523.46 1019.72 526.75
00002770 00000025 805.76 135.88 325.07 539.34 881.93 320.61 1041.87 322.04 954.13 393.96 890.47 522.39 1019.59 526.30
00002771 00000026 803.61 134.69 327.35 536.41 881.06 321.65 1042.01 324.25 953.99 398.41 888.92 520.88 1019.14 525.46
00002772 00000027 794.09 117.15 330.66 539.07 881.79 323.03 1042.80 337.34 957.19 404.70 887.79 512.96 1016.15 526.67
00002773 00000028 791.32 116.48 333.19 533.53 881.75 324.88 1042.18 340.28 957.94 408.43 886.83 510.08 1016.66 524.56
00002774 00000029 790.17 117.88 333.31 528.47 881.71 325.05 1042.78 341.46 958.22 409.44 885.52 505.91 1018.93 520.94
00002775 00000030 788.90 121.34 332.04 519.84 878.78 323.09 1041.28 334.11 958.72 405.95 882.12 507.54 1018.40 517.63
00002776 00000031 788.21 121.63 332.97 514.39 879.50 324.17 1041.31 334.80 959.34 407.49 882.66 506.14 1019.09 515.88
00002777 00000032 787.18 122.96 334.19 508.87 880.49 327.25 1040.86 336.82 960.69 410.04 883.89 504.96 1020.79 513.90
00002778 00000033 784.23 124.45 336.44 505.69 880.32 335.86 1041.16 343.97 962.70 410.30 883.27 504.81 1021.30 513.12
00002779 00000034 784.75 126.00 334.93 506.54 882.93 338.80 1040.95 347.49 964.58 411.82 884.76 505.46 1021.05 514.55
00002780 00000035 798.80 130.98 332.08 516.04 882.43 338.70 1044.17 347.36 958.76 418.81 886.89 509.08 1026.55 518.33
00002781 00000036 789.19 120.36 337.54 536.58 884.80 332.22 1045.75 349.82 963.75 415.90 888.65 508.98 1024.92 524.44
00002782 00000037 790.61 121.28 335.33 541.77 885.42 330.38 1044.41 348.70 963.38 417.84 887.37 510.80 1023.99 526.81
00002783 00000038 788.91 121.25 337.69 537.48 883.96 330.92 1043.86 349.47 961.89 418.50 885.38 509.37 1022.96 525.64
00002784 00000039 795.67 134.06 335.66 521.42 879.96 334.56 1042.64 345.24 957.65 419.49 884.37 510.59 1026.62 521.22
00002785 00000040 794.00 133.62 336.90 517.97 879.22 334.94 1042.44 346.24 957.30 420.55 883.89 510.37 1024.92 521.45
00002786 00000041 793.95 134.97 337.27 515.71 878.85 334.89 1041.88 345.28 957.07 421.40 885.86 512.34 1023.61 522.53
00002787 00000042 793.68 133.76 337.14 516.77 877.81 334.98 1041.33 344.57 956.88 421.97 887.84 516.11 1022.17 525.52
00002788 00000043 785.09 125.14 339.25 525.07 882.73 335.93 1042.20 351.39 964.40 420.56 892.35 516.41 1018.16 530.48
00002789 00000044 786.39 123.60 337.62 532.18 885.18 336.10 1044.08 349.74 968.87 422.29 895.20 522.70 1017.59 535.43
00002790 00000045 790.65 123.21 333.09 540.19 888.72 334.49 1046.84 347.63 973.21 421.53 897.08 528.16 1016.03 540.91
00002791 00000046 794.29 120.69 329.26 542.89 892.47 330.08 1048.71 341.37 978.06 414.75 901.40 526.33 1015.79 537.70
00002792 00000047 794.30 115.46 330.31 543.20 895.38 322.27 1050.73 334.95 982.48 408.31 906.32 519.85 1018.86 532.03
00002793 00000048 792.89 113.99 331.68 537.02 894.41 315.37 1050.59 329.01 980.37 395.28 907.32 509.81 1020.86 522.50
00002794 00000049 790.44 113.81 334.84 525.69 892.12 313.95 1046.97 326.09 976.50 386.24 906.02 499.96 1020.23 511.14
00002795 00000050 788.94 112.46 334.60 519.42 888.99 312.23 1041.66 321.94 972.99 381.37 906.02 494.31 1017.84 503.40
00002796 00000051 787.24 112.71 335.39 512.31 886.79 310.78 1039.24 318.67 970.90 378.08 904.03 490.12 1016.44 497.82
00002797 00000052 785.75 113.32 336.62 508.20 886.35 311.08 1038.68 320.46 969.98 380.56 900.76 487.61 1015.28 496.59
00002798 00000053 795.93 118.66 330.19 501.21 886.18 311.77 1046.88 318.85 965.17 386.67 893.01 494.14 1020.36 501.80
00002799 00000054 783.55 110.35 338.17 508.93 881.59 311.04 1041.49 319.18 965.76 390.03 893.45 495.96 1014.38 503.46
00002800 00000055 783.11 111.07 337.86 510.38 881.34 313.08 1041.48 322.84 964.32 394.85 890.79 497.81 1014.15 506.55
00002801 00000056 781.55 115.13 339.72 516.23 882.19 318.07 1039.61 332.60 965.67 399.59 891.20 499.06 1014.56 512.10
00002802 00000057 783.09 113.81 337.40 527.22 883.67 316.01 1040.13 329.59 966.56 396.64 896.82 505.20 1009.12 517.71
00002803 00000058 783.59 111.71 337.86 534.41 883.84 315.04 1041.99 326.55 966.88 392.48 897.86 509.24 1008.35 520.21
00002804 00000059 785.04 110.67 338.16 535.99 887.47 312.95 1045.09 325.00 971.80 389.11 901.52 508.02 1010.07 519.36
00002805 00000060 788.08 109.66 336.82 537.10 892.49 311.19 1049.69 325.78 977.96 387.72 904.61 505.60 1014.46 518.91
00002806 00000061 788.25 110.12 337.83 536.84 895.63 312.29 1052.35 328.23 982.22 387.99 907.17 505.84 1017.29 520.15
00002807 00000062 784.70 110.99 340.81 538.21 891.82 315.39 1049.53 331.13 978.17 390.62 903.92 507.44 1016.00 521.61
00002808 00000063 780.82 109.73 343.76 539.75 886.24 317.04 1045.58 334.55 970.99 399.18 896.79 506.32 1015.13 521.98
00002809 00000064 788.79 119.23 341.21 531.07 882.92 318.02 1045.73 329.53 963.78 407.22 889.28 508.57 1021.24 519.78
00002810 00000065 787.86 121.61 341.76 525.95 882.42 319.60 1045.80 332.35 963.57 408.90 888.18 508.22 1020.13 520.54
00002811 00000066 780.16 114.51 345.45 529.38 888.93 322.26 1050.00 344.03 974.36 411.05 893.49 506.08 1020.89 525.03
00002812 00000067 785.38 119.00 342.75 526.70 896.03 324.27 1057.37 344.24 984.76 412.63 900.45 511.55 1025.19 529.30
00002813 00000068 790.64 120.90 339.83 524.27 902.71 328.10 1063.93 344.99 995.38 414.47 910.78 517.93 1031.55 533.39
00002814 00000069 793.16 122.51 339.25 524.80 908.49 330.83 1069.55 347.59 1004.33 419.26 918.79 521.55 1038.38 536.66
00002815 00000070 795.94 126.06 339.64 521.19 912.22 332.22 1073.85 348.60 1010.19 421.27 923.15 522.32 1042.96 537.12
00002816 00000071 797.59 127.88 340.18 517.52 913.66 331.73 1077.76 350.50 1012.73 421.54 923.92 519.39 1048.40 536.34
00002817 00000072 798.36 126.77 340.04 520.45 915.06 329.42 1081.38 349.78 1016.63 421.24 924.58 518.14 1052.27 536.57
00002818 00000073 798.77 126.60 339.49 520.01 915.27 329.17 1081.13 348.92 1016.51 421.51 924.32 516.86 1053.16 534.77
00002819 00000074 797.38 124.82 340.19 520.52 913.57 328.75 1078.30 346.96 1013.56 421.93 922.88 516.11 1051.22 532.66
00002820 00000075 795.22 123.89 340.16 519.08 909.66 329.04 1073.13 346.83 1006.25 423.29 916.96 513.98 1046.59 530.26
00002821 00000076 791.47 121.87 340.95 519.43 903.58 329.01 1066.45 346.05 997.62 419.99 911.66 512.30 1042.02 527.96
00002822 00000077 789.17 122.04 341.72 517.00 898.66 327.23 1061.91 342.78 990.55 415.86 906.93 510.08 1038.31 524.48
00002823 00000078 787.36 119.78 341.75 516.89 894.45 324.77 1058.91 341.20 983.93 412.62 901.46 507.93 1034.15 522.91
00002824 00000079 783.18 117.73 344.33 519.49 890.06 322.48 1055.58 339.99 978.48 409.05 897.00 505.73 1030.83 521.29
00002825 00000080 782.37 116.89 346.85 524.89 891.08 320.62 1057.07 340.78 979.51 406.46 894.49 505.64 1029.87 523.72
00002826 00000081 787.68 118.56 346.77 527.52 898.06 320.75 1064.37 343.74 988.09 403.31 898.87 504.47 1037.05 525.10
00002827 00000082 791.25 120.24 347.36 531.85 903.39 319.60 1072.40 343.63 999.81 402.34 903.08 507.23 1045.90 528.81
00002828 DELETE   792.19 122.62 345.42 534.45 901.97 321.60 1074.62 344.85 1000.58 404.51 901.53 509.26 1050.40 529.92
00002829 DELETE   783.66 124.48 349.29 539.29 892.16 324.19 1063.35 348.58 983.16 410.08 889.50 512.05 1037.26 532.88
00002830 DELETE   785.81 141.09 342.43 540.42 875.73 339.63 1041.63 355.33 955.29 421.25 874.41 524.46 1023.36 539.05
00002831 00000086 783.83 138.36 337.07 553.89 865.69 344.18 1035.76 363.87 938.39 429.61 858.87 531.81 1014.47 549.16
00002832 00000087 785.28 138.06 332.58 557.31 864.13 346.03 1033.06 364.34 935.25 432.95 857.94 535.62 1012.15 551.75
00002833 00000088 787.55 140.20 333.95 556.55 868.23 347.15 1035.80 361.98 945.57 434.46 866.07 539.63 1015.89 553.14
00002834 00000089 787.13 144.64 336.81 553.47 869.14 347.25 1035.62 357.43 949.98 437.60 872.64 546.88 1014.43 556.90
00002835 00000090 784.83 142.33 336.73 550.79 868.98 345.48 1031.90 356.31 949.57 443.68 878.13 550.15 1007.99 560.42
00002836 00000091 782.66 145.61 336.43 541.64 867.26 347.53 1028.37 357.04 947.58 447.99 880.98 551.48 1005.85 560.71
00002837 00000092 780.38 148.36 336.12 528.64 865.80 352.21 1026.52 362.89 946.08 453.10 880.90 547.56 1006.82 557.59
00002838 00000093 780.03 149.98 335.10 524.80 865.78 354.79 1026.70 365.91 946.60 457.07 880.65 546.81 1008.48 557.09
00002839 00000094 780.56 149.71 334.64 531.08 865.69 356.03 1026.79 365.86 946.75 456.56 879.48 548.18 1011.12 557.37
00002840 00000095 781.81 147.02 335.75 543.02 866.13 351.41 1028.83 362.11 946.41 449.39 875.87 548.36 1010.34 558.38
00002841 00000096 781.64 143.43 336.52 544.30 864.50 345.83 1029.94 355.71 943.80 439.66 872.76 545.43 1008.11 554.79
00002842 00000097 778.69 140.18 338.11 527.59 861.92 342.85 1027.91 353.54 939.97 429.48 871.55 533.40 1006.21 543.70
00002843 00000098 775.06 134.46 342.32 517.06 860.85 336.09 1029.04 350.79 937.96 426.11 866.97 520.43 1005.69 534.30
00002844 00000099 774.13 132.09 344.13 511.53 860.99 333.80 1029.31 348.53 938.34 425.38 868.16 516.67 1006.09 530.47
00002845 00000100 774.87 132.48 344.93 512.23 861.81 334.41 1029.35 347.18 940.25 426.16 871.61 518.95 1006.35 531.10
00002846 00000101 775.39 134.01 342.99 516.07 861.08 337.26 1028.74 348.19 940.59 428.44 875.20 528.06 1004.99 538.74
00002847 00000102 776.10 136.68 340.00 517.63 859.82 343.85 1026.54 353.78 939.30 435.93 875.82 534.01 1004.79 543.84
00002848 00000103 776.61 141.24 337.65 517.91 860.02 347.43 1024.70 358.84 939.04 447.13 876.63 537.76 1004.65 548.46
00002849 00000104 775.94 145.60 338.04 515.21 861.81 349.33 1025.23 361.05 942.14 450.48 878.73 538.64 1006.18 549.51
00002850 00000105 778.05 145.81 339.01 517.51 866.17 346.07 1027.10 358.28 947.18 448.42 881.11 536.53 1006.76 548.05
00002851 00000106 780.68 139.63 338.44 527.65 870.66 338.38 1028.07 349.80 952.76 432.64 883.45 533.67 1005.00 544.82
00002852 00000107 781.13 138.71 338.65 530.48 871.63 332.25 1031.45 343.13 954.42 420.04 880.81 533.44 1002.67 544.37
00002853 00000108 783.46 135.67 336.27 535.85 872.63 326.34 1032.05 336.89 953.63 409.44 878.10 529.36 1003.01 540.18
00002854 00000109 782.68 126.67 336.13 541.11 870.92 321.50 1033.12 329.49 952.23 402.81 876.10 526.73 1003.25 535.68
00002855 00000110 780.12 125.29 336.62 539.58 868.94 320.02 1030.74 326.75 949.60 400.82 873.87 524.51 1000.95 532.69
00002856 00000111 777.87 125.39 337.02 533.88 868.20 321.06 1027.52 328.68 949.37 404.39 873.25 520.64 998.08 529.60
00002857 00000112 773.63 125.74 339.91 520.95 864.56 324.28 1027.76 334.77 944.71 409.34 870.69 514.88 1001.16 525.80
00002858 00000113 773.23 127.57 340.16 515.35 863.16 326.16 1027.08 340.20 940.87 415.22 868.01 513.00 999.70 526.77
00002859 00000114 773.76 128.85 340.06 516.01 863.91 327.18 1026.53 340.42 941.65 416.64 869.74 514.59 999.69 527.65
00002860 00000115 775.81 131.70 338.12 521.37 865.34 329.19 1026.29 339.46 944.34 415.37 872.61 520.38 999.58 530.98
00002861 00000116 779.13 134.93 335.07 525.11 866.14 329.34 1027.13 338.50 945.11 414.80 872.21 525.14 998.94 534.96
00002862 00000117 779.08 134.93 334.74 526.38 866.06 329.33 1026.18 338.18 945.00 414.11 872.28 525.77 997.69 535.38
00002863 00000118 777.01 132.26 336.36 523.56 865.63 330.01 1025.64 339.03 944.91 415.47 874.13 524.13 997.34 533.77
00002864 00000119 774.75 127.30 338.57 522.46 864.13 329.68 1026.55 341.51 943.72 419.57 873.99 519.41 1001.39 531.03
00002865 00000120 773.89 126.96 339.73 519.62 862.26 330.98 1027.61 344.04 941.43 423.06 872.59 520.52 1002.42 533.12
00002866 00000121 774.17 127.85 340.21 517.16 862.01 332.48 1028.43 346.75 941.37 426.31 872.97 521.64 1002.98 535.19
00002867 00000122 775.33 129.12 341.07 516.80 864.78 339.11 1028.51 353.56 943.47 431.42 874.56 522.24 1004.75 536.15
00002868 00000123 780.87 134.13 337.44 520.31 871.24 346.48 1033.14 362.20 950.67 440.68 879.41 527.22 1010.08 541.82
00002869 00000124 785.48 136.51 340.56 526.61 881.95 346.22 1042.75 359.37 965.90 442.96 891.41 534.42 1016.46 546.71
00002870 DELETE   787.00 122.76 339.68 542.52 903.71 341.48 1062.29 361.91 996.94 438.30 908.90 533.17 1026.18 551.53
00002871 DELETE   791.54 122.18 340.98 545.49 911.88 331.44 1073.81 353.41 1012.90 426.14 914.66 528.87 1037.67 548.41
00002872 00000127 792.50 117.23 341.59 543.15 917.44 323.21 1079.72 343.52 1020.41 419.48 922.32 523.42 1044.40 541.75
00002873 00000128 787.45 116.58 342.92 527.78 914.03 319.15 1073.10 339.29 1013.53 410.02 923.77 508.42 1047.15 526.18
00002874 00000129 784.55 115.69 342.28 520.56 905.03 315.84 1064.50 334.43 1002.75 399.89 913.64 498.86 1042.89 515.10
00002875 00000130 790.49 119.29 338.45 510.99 895.67 312.90 1061.26 326.52 989.33 392.05 901.97 495.83 1036.49 509.04
00002876 00000131 788.46 116.07 337.03 512.94 885.48 315.61 1055.71 328.06 974.99 398.78 891.09 499.90 1029.90 512.03
00002877 00000132 785.97 115.59 337.17 513.50 879.57 316.48 1049.70 329.26 965.92 402.85 884.97 501.93 1023.52 514.35
00002878 00000133 783.66 114.98 339.19 516.86 876.84 316.90 1047.34 330.54 962.29 406.18 882.83 504.23 1021.23 517.30
00002879 00000134 781.10 115.93 341.72 520.96 874.82 318.68 1045.70 332.51 960.32 409.21 881.82 508.48 1019.42 521.73
00002880 00000135 779.13 118.45 342.65 520.15 873.73 319.77 1043.84 333.99 959.23 409.18 880.20 509.18 1017.75 522.78
00002881 00000136 779.78 118.32 342.40 516.24 875.42 318.08 1043.65 332.09 959.39 405.72 880.24 504.98 1017.50 518.55
00002882 00000137 780.49 115.71 341.09 512.43 875.80 315.57 1044.30 328.34 959.71 394.73 879.90 499.39 1018.59 512.20
00002883 00000138 781.99 114.52 338.78 503.68 875.80 313.47 1046.65 325.38 961.36 389.10 880.39 495.27 1019.79 507.43
00002884 00000139 782.09 114.07 338.80 503.33 876.11 312.25 1046.92 323.86 961.77 388.06 880.51 494.25 1020.26 506.24
00002885 00000140 783.40 115.12 338.61 510.26 877.23 313.70 1045.70 324.97 961.96 393.49 881.46 497.40 1019.81 509.16
00002886 00000141 784.28 116.97 339.18 519.11 877.07 315.64 1045.00 327.64 960.52 404.71 883.45 506.54 1017.84 518.55
00002887 00000142 782.74 120.81 340.15 527.44 874.94 319.59 1041.88 330.93 959.31 411.35 883.81 515.48 1015.81 526.80
00002888 00000143 780.97 121.36 342.01 526.89 872.45 325.75 1037.78 337.30 957.23 418.92 884.33 520.73 1011.21 532.01
00002889 00000144 778.46 123.37 345.08 527.46 870.94 329.17 1036.46 341.14 955.63 424.87 882.57 522.27 1011.64 533.85
00002890 00000145 779.16 127.23 343.35 526.29 869.42 332.08 1033.18 344.04 952.49 431.85 881.92 524.71 1010.29 536.26
00002891 00000146 781.06 133.05 339.73 527.65 869.84 335.53 1031.59 347.77 951.19 437.04 880.92 527.51 1010.31 539.25
00002892 00000147 782.15 135.73 337.50 528.41 869.39 338.17 1029.54 349.01 951.02 441.56 882.13 530.74 1010.18 541.18
00002893 00000148 782.15 137.46 337.68 528.17 870.10 338.25 1028.51 347.18 953.48 440.38 885.74 534.70 1008.06 543.55
00002894 00000149 781.85 135.65 339.05 532.78 870.21 335.98 1029.26 342.30 953.21 431.56 887.20 537.56 1006.31 544.37
00002895 00000150 782.91 128.92 339.06 541.67 871.23 330.93 1031.19 337.00 953.70 420.74 887.02 536.14 1006.95 542.88
00002896 00000151 784.60 127.03 338.64 545.43 870.91 327.21 1032.59 332.76 952.70 414.48 884.53 534.93 1007.90 541.28
00002897 00000152 782.78 124.17 339.60 537.86 869.34 327.24 1031.99 333.31 950.81 416.08 882.78 529.40 1008.08 536.33
00002898 00000153 777.75 120.28 343.88 528.08 867.26 328.98 1031.42 338.31 948.87 422.14 881.38 522.78 1007.94 532.17
00002899 00000154 777.30 125.49 343.63 521.32 865.47 333.09 1030.04 343.18 946.36 429.01 880.90 524.75 1007.22 534.77
00002900 00000155 777.61 130.07 342.42 518.38 864.88 336.68 1029.25 347.18 945.77 432.82 880.33 526.19 1007.61 536.59
00002901 00000156 777.41 130.83 342.05 517.74 864.11 337.56 1029.54 347.43 945.17 432.13 879.82 527.09 1007.91 536.90
00002902 00000157 777.83 132.19 341.26 522.14 864.88 337.18 1029.40 345.73 946.40 430.13 880.34 530.00 1007.36 538.74
00002903 00000158 779.04 133.96 338.47 531.05 864.89 337.79 1028.73 345.17 946.25 429.64 879.29 534.34 1007.44 542.03
00002904 00000159 778.63 132.58 337.65 534.63 863.55 339.27 1028.86 346.88 944.58 430.98 877.87 535.92 1008.37 543.71
00002905 00000160 777.71 134.93 338.37 528.45 863.20 340.24 1028.34 349.61 944.03 433.63 876.31 532.40 1009.22 541.56
00002906 00000161 776.99 133.98 339.75 522.14 863.10 340.39 1028.44 350.60 944.17 436.25 878.81 530.98 1009.24 540.85
00002907 00000162 776.70 133.39 340.41 520.61 862.45 340.30 1028.81 350.56 943.33 436.58 878.93 531.26 1009.21 541.18
00002908 00000163 776.26 133.54 340.36 520.81 862.13 340.60 1028.80 351.12 943.40 437.16 878.69 531.82 1008.82 541.96
00002909 00000164 776.56 134.07 339.89 521.72 862.23 341.23 1029.03 351.65 943.48 437.37 878.46 533.15 1008.48 543.23
00002910 00000165 776.53 135.08 339.61 521.21 861.92 341.86 1029.07 351.77 943.18 437.29 878.31 533.92 1008.90 543.56
00002911 00000166 775.61 134.55 339.79 522.79 861.89 342.15 1028.74 352.01 943.67 437.02 877.85 533.62 1008.94 543.27
00002912 00000167 774.79 134.21 340.17 521.96 861.11 341.97 1028.32 352.26 942.34 436.10 875.90 531.54 1008.57 541.60
