Video ID: 	1dWF3vXRzo4
H: 	1080
W: 	1920
FPS: 	25.0

FRAME INDEX X0 Y0 W H [Landmarks (5 Points)]

00004125 00000000 701.34 223.36 385.06 543.88 873.69 447.99 1019.03 424.99 991.70 533.51 911.46 639.66 1018.48 621.01
00004126 00000001 706.17 217.68 382.91 547.49 876.88 445.65 1023.91 425.44 994.19 530.19 913.61 636.96 1022.13 620.24
00004127 00000002 717.52 219.11 375.53 535.21 886.94 442.87 1036.13 423.86 1003.32 529.69 920.25 637.22 1026.48 621.98
00004128 DELETE   726.87 218.87 369.03 537.54 899.60 443.89 1048.59 425.23 1021.62 530.12 929.63 638.01 1038.23 623.55
00004129 00000004 734.72 221.62 368.31 541.89 914.43 443.88 1055.67 428.02 1038.27 528.96 940.17 637.73 1047.42 626.00
00004130 DELETE   746.00 222.62 371.38 545.78 925.28 442.46 1065.71 427.49 1049.35 527.68 946.13 638.23 1057.42 627.65
00004131 00000006 753.97 226.85 371.03 534.74 933.42 444.96 1076.99 431.87 1057.98 531.04 955.09 637.23 1068.24 627.47
00004132 00000007 750.50 227.41 376.66 537.17 931.55 443.48 1079.25 425.38 1051.79 535.91 963.92 633.20 1072.42 617.70
00004133 00000008 758.40 229.22 373.75 532.77 934.63 444.52 1082.06 426.58 1053.08 539.46 969.94 635.81 1075.18 620.25
00004134 00000009 763.64 231.05 374.94 547.54 938.45 448.36 1087.68 433.26 1056.45 550.95 975.03 650.98 1078.26 637.74
00004135 00000010 771.16 234.11 373.58 549.50 940.67 458.95 1092.13 442.53 1059.36 560.63 979.45 661.59 1083.12 647.42
00004136 00000011 776.14 243.33 375.71 551.40 946.19 477.20 1101.22 462.90 1063.78 576.22 980.49 672.55 1089.94 660.46
00004137 00000012 777.37 271.30 384.69 548.17 949.31 486.67 1108.82 471.81 1073.69 594.82 972.95 684.49 1098.01 672.38
00004138 00000013 783.39 279.42 381.98 545.36 954.27 493.40 1112.17 476.17 1078.58 599.89 977.50 691.55 1102.07 677.82
00004139 00000014 783.80 281.21 382.42 545.88 954.91 493.86 1112.80 475.15 1079.75 601.16 978.67 693.23 1103.35 678.32
00004140 00000015 783.60 276.37 381.84 546.47 953.58 488.29 1111.16 472.97 1075.87 593.30 976.69 686.58 1100.87 674.09
00004141 00000016 781.10 253.04 378.43 540.39 952.09 481.52 1111.67 470.22 1071.61 576.42 976.40 667.88 1094.85 658.89
00004142 00000017 775.18 241.86 381.97 549.92 948.58 465.07 1103.70 456.53 1064.03 565.58 972.85 660.56 1086.39 653.45
00004143 00000018 767.64 233.04 387.84 564.97 944.33 453.59 1096.13 446.55 1056.41 560.79 969.02 656.86 1079.74 650.31
00004144 00000019 758.17 230.49 391.64 556.22 937.74 446.15 1090.43 438.69 1053.47 553.02 958.54 639.61 1076.34 633.51
00004145 00000020 754.14 213.77 386.23 543.82 924.50 439.21 1087.81 429.52 1045.03 546.90 950.57 627.69 1074.38 620.31
00004146 00000021 745.57 199.96 386.64 539.94 912.90 422.18 1070.97 415.78 1024.44 524.56 933.54 605.11 1057.31 600.56
00004147 00000022 735.60 185.82 387.39 550.45 896.57 400.93 1056.37 403.27 1013.73 495.17 909.75 588.38 1044.71 590.93
00004148 00000023 728.05 171.03 392.34 550.58 883.80 381.78 1045.51 387.14 996.08 480.90 896.63 573.34 1031.84 577.36
00004149 00000024 724.51 160.36 394.76 548.21 875.22 367.81 1037.52 372.27 988.35 466.16 893.98 560.35 1029.30 563.12
00004150 00000025 723.85 150.39 396.25 553.38 870.83 359.21 1033.90 363.51 981.84 454.82 893.43 554.46 1026.10 556.27
00004151 00000026 724.39 148.93 396.02 553.94 871.24 357.44 1033.11 361.37 980.39 452.26 893.83 553.61 1024.31 555.12
00004152 00000027 727.12 147.80 395.77 554.76 873.33 357.56 1037.67 362.35 984.35 454.79 894.29 554.78 1028.04 556.98
00004153 00000028 729.56 152.96 396.33 553.58 875.16 360.42 1039.50 365.40 987.16 459.05 894.80 557.41 1030.32 560.13
00004154 00000029 730.32 160.27 397.06 555.76 877.80 364.78 1039.33 373.13 986.67 462.75 893.58 560.87 1029.17 566.71
00004155 00000030 733.08 164.04 394.54 545.95 877.86 368.08 1040.19 376.00 986.19 465.07 892.15 557.14 1032.73 562.80
00004156 00000031 736.66 164.66 389.89 535.12 877.06 370.04 1040.58 374.71 985.65 463.75 894.53 554.87 1035.16 558.03
00004157 00000032 736.04 166.16 392.00 533.45 878.15 365.61 1040.02 371.69 984.48 459.74 895.33 552.54 1032.69 556.70
00004158 00000033 734.65 160.82 393.87 540.99 876.95 359.96 1038.12 368.00 982.48 456.00 892.88 550.19 1029.84 555.55
00004159 00000034 734.51 152.21 392.39 544.49 874.92 355.15 1037.45 363.58 980.95 451.43 891.79 546.23 1028.78 551.66
00004160 00000035 733.04 151.19 392.68 540.88 873.69 349.77 1037.62 358.80 978.72 445.55 888.93 538.90 1028.37 544.96
00004161 00000036 731.60 150.96 393.43 542.47 872.48 345.32 1036.68 357.92 976.75 441.19 883.63 532.79 1026.91 541.74
00004162 00000037 726.89 148.62 396.59 543.27 871.16 343.41 1034.77 360.22 972.06 439.71 878.04 529.47 1021.25 541.78
00004163 00000038 724.15 148.44 397.06 543.64 870.37 343.15 1032.98 362.45 969.85 440.91 874.00 528.59 1017.30 543.14
00004164 00000039 721.94 150.86 397.34 541.51 868.89 343.96 1031.66 362.91 968.03 441.55 871.60 528.23 1015.92 542.65
00004165 00000040 719.26 149.90 398.10 544.51 867.73 345.37 1030.67 365.31 966.70 442.94 869.10 528.31 1014.66 543.78
00004166 00000041 715.85 150.56 398.89 542.74 866.13 346.05 1027.72 367.17 963.38 443.29 865.44 526.02 1010.39 542.78
00004167 00000042 714.21 147.43 399.51 542.56 863.83 345.18 1027.08 367.25 961.59 443.17 862.63 524.16 1009.41 541.63
00004168 00000043 712.22 142.77 400.14 542.36 859.77 344.55 1025.40 365.89 958.95 442.69 859.50 522.23 1007.92 539.31
00004169 00000044 710.40 142.74 400.26 540.58 858.54 342.68 1024.22 364.59 955.81 440.91 857.16 520.47 1004.93 537.92
00004170 00000045 708.11 139.26 402.92 548.31 856.74 339.60 1023.24 364.74 952.65 437.25 855.28 519.90 1001.87 539.75
00004171 00000046 707.15 137.33 404.44 557.62 857.14 340.17 1022.44 366.56 951.50 437.48 852.23 520.31 1001.22 540.95
00004172 00000047 708.18 146.43 402.08 555.88 858.85 344.22 1022.81 368.82 953.67 445.47 850.24 524.98 1000.66 544.59
00004173 00000048 708.51 149.94 402.01 557.11 860.98 351.38 1024.27 375.74 956.61 448.46 851.31 530.10 1001.93 549.29
00004174 00000049 711.53 153.30 402.01 558.57 863.92 354.61 1027.18 377.48 960.94 452.34 856.72 537.00 1006.00 554.80
00004175 00000050 712.95 154.70 401.00 557.30 863.87 357.91 1026.32 379.49 961.06 458.00 859.83 543.94 1002.38 560.98
00004176 00000051 712.03 160.21 401.80 554.96 864.21 360.55 1027.63 382.41 961.27 463.58 860.22 549.29 1002.49 566.70
00004177 00000052 713.95 162.44 401.78 558.42 866.33 365.24 1029.12 386.85 963.63 468.08 863.62 554.72 1004.76 571.85
00004178 00000053 713.53 165.42 403.02 563.32 869.66 372.43 1028.72 391.63 967.10 478.46 865.62 560.09 1007.36 575.52
00004179 00000054 711.34 171.66 405.39 563.08 869.40 384.54 1031.66 401.76 969.84 489.33 866.12 567.40 1011.74 581.38
00004180 00000055 715.79 179.39 401.73 554.35 875.24 398.31 1035.54 413.50 975.07 494.83 874.47 575.14 1015.11 587.66
00004181 00000056 720.14 188.26 397.01 556.50 881.55 407.59 1043.58 421.62 986.52 502.39 883.30 585.10 1025.68 596.28
00004182 00000057 727.90 199.66 391.62 551.80 883.58 412.67 1045.79 418.06 995.61 514.55 892.78 596.24 1035.46 600.16
00004183 00000058 730.90 205.15 390.58 554.39 893.62 425.60 1052.67 420.93 1013.71 525.05 906.05 611.82 1047.00 608.19
00004184 00000059 733.43 211.44 388.70 561.37 901.39 439.66 1056.63 431.86 1024.40 536.38 910.02 624.45 1052.57 619.05
00004185 00000060 737.07 231.18 383.27 542.88 904.96 455.12 1057.44 437.22 1030.19 544.74 914.38 630.59 1056.08 617.75
00004186 00000061 738.79 239.75 381.39 526.66 905.21 463.92 1060.84 440.12 1031.61 547.22 921.27 634.26 1060.81 616.70
00004187 00000062 736.76 244.51 380.49 529.48 906.20 468.11 1058.44 443.18 1032.93 549.72 923.10 638.37 1059.47 619.59
00004188 00000063 731.63 243.78 381.95 537.90 902.40 471.70 1052.07 443.98 1031.52 552.87 921.07 642.62 1055.53 621.19
00004189 00000064 728.20 241.08 382.69 537.55 900.82 471.48 1051.01 440.72 1031.78 552.23 920.49 642.71 1054.02 618.69
00004190 00000065 727.28 236.60 379.07 535.71 896.77 471.50 1048.83 435.37 1029.66 549.21 921.64 642.18 1055.76 613.66
00004191 00000066 718.13 234.57 383.56 541.19 890.02 468.99 1041.24 434.65 1022.11 547.30 916.37 643.17 1046.43 615.48
00004192 00000067 709.50 234.83 387.41 545.33 880.89 463.62 1030.14 431.72 1009.83 546.74 910.95 643.36 1037.16 617.59
00004193 00000068 701.36 231.39 393.44 555.07 872.27 457.72 1021.37 426.50 999.22 543.46 900.49 638.88 1032.23 613.54
00004194 00000069 693.00 231.56 395.17 553.88 867.74 453.82 1013.99 428.55 991.64 540.27 893.71 631.79 1025.60 611.18
00004195 00000070 685.34 228.13 397.53 549.10 862.82 453.33 1010.74 426.19 987.80 539.00 889.95 629.00 1021.80 607.03
00004196 00000071 681.86 223.21 396.67 548.73 857.96 452.76 1008.96 424.06 985.17 539.05 885.63 627.97 1019.73 605.28
00004197 00000072 679.10 223.06 397.24 545.89 852.78 453.12 1005.74 421.72 981.73 536.84 883.84 627.84 1018.77 602.97
00004198 00000073 677.78 225.48 397.13 545.04 851.73 454.52 1005.08 424.34 980.05 539.93 880.88 628.13 1017.56 604.55
00004199 00000074 676.45 225.82 397.96 547.67 850.05 458.22 1002.73 428.56 978.88 541.13 879.56 630.42 1016.55 607.49
00004200 00000075 675.66 226.61 397.70 547.02 848.62 457.80 1000.78 428.48 976.16 542.57 879.27 630.85 1015.26 608.25
00004201 00000076 673.68 228.79 398.64 546.10 846.14 458.69 999.35 430.09 974.16 544.94 874.57 629.55 1014.34 608.04
00004202 00000077 674.82 237.67 397.41 542.75 842.78 465.83 999.20 434.10 972.92 550.41 874.22 635.30 1015.69 611.20
00004203 00000078 677.97 237.76 395.76 549.23 840.21 471.85 998.45 437.43 970.66 557.87 872.56 641.14 1019.72 614.66
00004204 00000079 678.61 239.38 396.59 554.61 840.34 478.02 998.08 439.63 972.60 562.32 874.58 647.39 1023.21 617.36
00004205 00000080 680.67 240.74 396.50 561.78 843.54 483.27 997.19 444.98 972.96 568.58 877.11 653.76 1023.76 623.49
00004206 00000081 682.89 244.84 393.11 559.78 848.08 489.11 998.61 449.91 976.28 575.59 880.41 659.43 1023.06 628.41
00004207 00000082 685.63 247.69 391.58 557.94 854.52 495.25 1001.62 454.49 982.10 581.97 885.86 663.89 1025.33 631.60
00004208 00000083 690.96 252.72 388.79 552.11 859.05 500.34 1006.96 459.70 987.27 585.76 893.46 669.58 1029.76 636.96
00004209 00000084 695.48 254.75 386.21 554.34 862.84 507.58 1010.26 468.09 988.79 593.47 900.19 680.06 1029.82 647.72
00004210 00000085 700.03 259.14 383.77 551.85 866.55 514.49 1015.02 475.42 991.49 596.49 903.74 685.53 1030.52 653.37
00004211 00000086 704.85 269.52 388.43 548.43 871.37 507.64 1028.61 469.51 1003.44 596.99 910.85 695.08 1039.28 664.32
00004212 00000087 713.80 268.99 384.41 557.47 877.69 512.27 1035.59 472.12 1010.98 601.32 916.64 702.98 1045.54 670.70
00004213 00000088 721.28 271.75 381.46 559.97 887.25 515.60 1038.71 477.51 1016.85 605.27 921.96 705.76 1046.68 675.31
00004214 00000089 724.66 269.12 380.36 557.22 893.36 520.19 1045.01 481.40 1024.41 607.67 923.27 706.40 1047.57 676.13
00004215 00000090 729.24 266.38 380.35 559.67 896.82 521.70 1048.47 482.53 1028.66 609.97 924.50 705.22 1051.45 674.96
00004216 00000091 731.82 269.45 380.96 558.26 900.64 521.50 1053.25 482.39 1034.09 611.08 925.37 704.80 1055.47 674.73
00004217 00000092 734.32 275.50 381.92 551.31 901.36 523.80 1055.97 485.15 1034.01 612.89 925.68 703.82 1058.36 673.92
00004218 00000093 738.43 288.29 379.50 541.86 903.27 530.89 1059.14 494.69 1035.16 618.52 923.04 704.47 1060.30 676.72
00004219 00000094 738.20 290.59 377.26 540.26 905.72 536.79 1060.34 504.86 1036.03 624.03 920.11 705.59 1056.60 681.76
00004220 00000095 743.04 303.76 376.63 535.21 908.39 533.87 1061.82 513.82 1031.05 627.65 913.73 703.10 1053.03 689.33
00004221 00000096 742.49 306.46 380.32 536.96 909.19 529.51 1062.99 516.60 1029.47 631.49 907.15 697.89 1052.96 689.95
00004222 00000097 746.39 309.15 377.92 529.23 911.42 529.76 1064.68 521.87 1026.54 628.62 913.62 701.97 1050.59 697.89
00004223 00000098 749.78 308.84 376.37 530.69 914.47 530.15 1067.17 523.43 1028.72 630.13 921.03 708.22 1051.57 704.61
00004224 00000099 751.29 305.89 375.91 536.57 916.55 529.25 1071.11 524.30 1031.40 634.52 922.88 712.90 1052.09 710.58
00004225 00000100 752.50 303.49 377.35 539.48 920.14 528.14 1072.30 523.65 1035.31 633.03 925.39 710.87 1054.36 708.76
00004226 00000101 753.74 304.36 378.03 537.65 922.37 523.65 1071.56 521.93 1035.46 625.82 925.34 705.68 1053.27 705.96
00004227 00000102 744.74 302.12 388.63 536.22 923.25 522.88 1073.97 512.46 1031.49 625.85 929.89 701.33 1049.39 693.78
00004228 00000103 746.63 290.33 386.30 537.06 921.35 518.89 1079.21 512.14 1032.12 625.80 929.04 693.83 1051.60 690.05
00004229 00000104 746.57 290.35 386.18 539.18 921.13 513.66 1079.23 507.10 1030.78 627.04 926.67 692.66 1051.24 689.02
00004230 00000105 745.80 287.76 386.86 542.55 922.39 511.55 1079.50 504.11 1032.12 626.77 926.17 691.94 1051.18 687.66
00004231 00000106 745.60 286.26 389.14 542.09 924.11 508.64 1079.02 502.77 1032.30 625.85 926.13 689.31 1050.42 686.18
00004232 00000107 746.08 285.86 388.58 542.97 923.90 507.66 1078.62 501.73 1032.97 623.81 927.35 689.28 1051.82 686.04
00004233 00000108 746.26 283.16 388.05 544.70 924.79 506.15 1077.86 500.36 1032.92 622.35 930.10 689.97 1050.83 686.67
00004234 00000109 745.21 282.15 389.95 537.64 924.00 504.02 1078.98 498.40 1032.76 622.05 934.40 687.49 1052.58 683.82
00004235 00000110 743.60 279.21 390.26 539.90 922.96 502.38 1077.82 496.04 1031.56 620.80 933.09 687.97 1051.39 683.80
00004236 00000111 741.32 279.46 390.93 547.33 920.15 500.98 1074.90 496.04 1027.30 620.12 926.67 688.35 1047.81 685.68
00004237 00000112 742.66 285.95 388.30 549.86 909.00 498.98 1066.54 495.17 1027.93 609.94 917.71 690.42 1052.49 687.92
00004238 00000113 738.85 285.19 388.84 544.11 902.14 498.69 1063.12 493.94 1021.37 609.98 911.80 690.26 1047.28 687.05
00004239 00000114 734.37 285.16 388.36 537.61 896.18 497.92 1056.72 493.42 1012.95 606.28 908.34 687.99 1039.93 684.70
00004240 00000115 730.49 278.12 388.49 539.57 890.07 497.27 1049.98 491.75 1004.67 604.03 905.46 684.89 1034.55 680.71
00004241 00000116 732.11 269.74 385.75 545.02 891.61 497.01 1053.06 493.20 1002.92 599.00 902.55 676.95 1034.62 674.36
00004242 00000117 732.63 268.45 387.02 549.66 893.50 494.09 1055.18 491.01 1005.93 598.80 900.99 674.32 1037.05 672.41
00004243 00000118 738.83 272.57 385.91 542.66 900.49 493.38 1062.39 488.08 1016.59 601.27 908.03 675.33 1044.49 672.08
00004244 00000119 741.70 268.77 392.55 542.72 910.82 491.97 1069.57 485.66 1018.26 608.05 921.93 675.23 1049.60 671.16
00004245 00000120 746.18 270.43 391.59 545.71 916.38 495.83 1071.66 489.92 1022.33 611.36 924.07 679.20 1049.71 675.76
00004246 00000121 745.15 268.24 395.93 555.35 917.89 494.85 1073.01 489.68 1024.55 612.40 924.45 681.30 1051.57 678.41
00004247 00000122 748.35 267.31 395.53 553.14 918.98 496.65 1076.15 491.31 1026.57 611.10 927.39 681.24 1054.50 678.21
00004248 00000123 751.56 266.20 396.38 550.33 921.91 495.99 1079.70 490.33 1029.40 608.83 930.74 678.34 1058.60 675.14
00004249 00000124 751.97 266.01 396.86 548.69 921.81 495.27 1080.95 489.34 1030.04 607.77 931.61 677.51 1059.90 674.12
00004250 00000125 749.92 266.97 395.66 548.18 918.91 492.27 1078.55 487.21 1027.35 608.52 927.76 676.89 1057.58 674.13
00004251 00000126 745.18 265.66 397.07 547.56 915.92 487.82 1074.03 483.26 1024.40 603.74 927.43 674.40 1054.89 671.66
00004252 00000127 742.06 269.05 395.32 543.62 908.78 486.23 1067.26 481.69 1016.20 601.18 922.55 671.29 1051.50 668.35
00004253 00000128 740.71 266.66 387.73 550.25 901.13 485.88 1059.94 484.71 1015.93 590.37 907.64 666.48 1047.48 666.68
00004254 00000129 734.53 262.02 389.16 551.97 895.28 480.23 1053.46 480.87 1008.18 583.46 900.36 660.11 1040.14 662.05
00004255 00000130 729.36 259.69 390.50 552.22 887.93 476.40 1047.36 476.18 998.63 580.07 895.95 658.40 1034.11 659.25
00004256 00000131 722.95 251.58 391.01 551.30 882.20 469.96 1041.72 470.63 991.04 575.77 890.28 653.81 1026.20 655.45
00004257 00000132 719.24 244.82 390.51 550.79 878.95 464.75 1038.57 466.17 986.75 571.94 886.11 649.56 1020.25 651.81
00004258 00000133 716.56 238.58 392.31 550.40 876.51 460.51 1037.18 459.39 986.45 567.43 884.84 645.18 1020.46 645.22
00004259 00000134 717.38 235.58 393.75 552.41 875.10 455.59 1036.71 454.64 986.15 563.40 885.49 643.30 1021.97 643.13
00004260 00000135 720.44 235.17 393.39 544.95 875.95 452.62 1038.91 450.69 986.52 560.84 888.60 641.40 1023.58 640.14
00004261 00000136 727.04 236.11 392.08 547.01 880.44 454.63 1042.39 452.44 991.08 562.71 891.71 641.37 1030.27 639.92
00004262 00000137 734.01 241.26 388.99 543.55 889.08 462.66 1050.58 461.72 1001.14 565.35 899.47 646.16 1037.82 645.99
00004263 00000138 743.16 245.62 386.57 548.44 900.57 470.32 1058.98 471.02 1013.71 570.68 910.70 653.27 1047.55 654.95
00004264 00000139 744.95 250.18 392.11 546.82 906.71 470.44 1065.70 467.33 1015.63 576.79 921.16 655.67 1052.16 654.46
00004265 00000140 750.53 255.22 392.22 540.00 911.24 470.47 1072.98 467.37 1019.90 577.71 928.55 656.67 1058.01 654.96
00004266 00000141 754.56 253.70 392.15 539.62 915.50 469.94 1079.71 465.48 1025.31 577.29 934.63 658.10 1061.38 654.97
00004267 00000142 756.40 253.37 394.06 544.30 919.72 469.83 1081.74 465.72 1027.90 580.43 939.65 661.60 1061.48 658.38
00004268 00000143 758.32 256.44 395.35 539.62 923.78 470.04 1085.58 467.62 1030.17 579.58 941.68 659.64 1062.22 657.75
00004269 00000144 757.98 257.57 400.67 539.17 927.48 474.10 1089.39 474.76 1033.38 577.01 940.73 657.44 1063.44 658.54
00004270 00000145 759.48 258.63 403.71 542.52 930.88 477.99 1092.01 483.81 1035.02 576.88 939.94 657.20 1066.11 662.39
00004271 00000146 763.05 260.47 402.05 541.34 935.25 478.97 1096.55 486.13 1039.54 579.66 939.81 657.44 1067.34 663.87
00004272 00000147 769.59 260.11 397.58 540.27 940.54 481.26 1102.18 487.54 1045.55 580.20 943.38 657.07 1073.53 663.43
00004273 00000148 779.45 261.98 392.85 541.82 950.35 485.14 1112.16 491.08 1056.77 583.91 952.20 660.21 1082.59 665.94
00004274 00000149 787.51 262.84 389.95 548.73 960.13 485.72 1119.80 491.32 1068.36 586.58 960.67 664.15 1089.78 669.35
00004275 00000150 795.42 262.23 384.70 549.25 965.39 485.75 1124.73 489.32 1076.19 586.40 969.38 668.58 1095.74 672.24
00004276 00000151 798.16 263.86 381.29 531.20 969.03 480.76 1131.25 477.97 1085.42 580.18 981.98 668.24 1103.40 666.64
00004277 00000152 798.27 259.34 378.41 527.43 974.61 478.60 1133.30 470.47 1096.94 571.80 989.48 662.37 1112.95 656.58
00004278 00000153 793.67 253.74 382.09 547.10 971.61 476.41 1123.29 465.85 1095.60 565.51 985.49 657.20 1113.23 649.41
00004279 00000154 787.62 245.47 384.64 554.21 966.38 475.67 1116.87 459.66 1092.28 560.86 984.85 656.83 1111.60 644.40
00004280 00000155 788.75 242.06 378.79 546.17 965.71 477.25 1116.79 454.45 1091.63 559.69 994.54 663.52 1111.13 645.04
00004281 00000156 786.94 240.42 378.85 552.55 963.70 478.44 1114.65 454.22 1091.03 562.61 997.77 669.97 1112.08 650.24
00004282 00000157 785.61 243.52 379.67 551.04 959.16 482.57 1114.18 458.17 1086.86 567.78 996.65 673.89 1113.16 653.68
00004283 00000158 784.56 247.68 379.10 555.05 959.26 486.77 1113.93 461.96 1085.27 576.66 994.24 678.49 1110.75 657.90
00004284 00000159 783.62 248.96 378.54 557.14 958.12 490.50 1112.70 466.97 1083.58 580.97 989.74 680.51 1107.65 660.98
00004285 00000160 782.58 250.62 378.49 558.32 956.42 493.64 1109.28 471.12 1078.37 583.70 982.70 680.06 1102.73 661.49
00004286 00000161 776.71 245.72 381.91 560.47 952.86 492.70 1106.47 469.76 1076.26 582.83 979.11 676.56 1101.52 657.94
00004287 00000162 775.00 247.59 380.25 553.96 949.89 488.91 1101.40 466.07 1072.35 578.68 977.54 672.09 1097.67 653.56
00004288 00000163 766.93 245.25 382.78 554.43 945.26 480.61 1095.43 458.58 1069.36 570.72 975.33 667.36 1091.37 649.72
00004289 00000164 761.85 243.21 383.70 551.34 941.08 474.24 1089.50 449.21 1065.67 565.07 973.44 661.39 1089.29 641.18
00004290 00000165 759.59 233.41 381.91 552.12 936.26 468.34 1086.33 441.99 1061.84 559.54 968.38 653.90 1085.88 633.21
00004291 00000166 754.27 228.48 383.62 556.41 931.20 459.44 1081.65 437.49 1055.18 551.70 962.80 646.68 1082.26 629.12
