Video ID: 	6ry651I1StM
H: 	1080
W: 	1920
FPS: 	23.976023976023978

FRAME INDEX X0 Y0 W H [Landmarks (5 Points)]

00003614 00000000 858.13 192.89 376.76 550.76 959.52 402.88 1126.31 417.93 1037.94 528.26 963.25 592.85 1111.47 605.90
00003615 00000001 859.44 193.94 374.86 546.76 960.26 400.12 1126.92 414.78 1038.77 524.36 964.92 589.98 1113.00 602.85
00003616 00000002 861.18 191.38 373.80 548.70 959.96 396.66 1127.18 411.15 1037.82 520.71 963.60 587.43 1114.22 600.14
00003617 00000003 862.27 188.75 372.69 551.63 961.10 394.82 1127.08 410.50 1037.81 518.67 963.65 585.61 1114.05 599.36
00003618 00000004 860.39 190.74 373.56 548.41 960.75 397.32 1126.84 412.31 1038.73 521.05 963.83 586.20 1114.11 599.39
00003619 00000005 857.09 193.11 375.00 547.29 960.24 400.15 1126.28 416.14 1039.23 524.69 963.48 588.86 1112.36 602.76
00003620 00000006 854.82 194.85 375.49 546.73 958.75 401.20 1124.55 418.43 1038.33 526.77 960.98 588.48 1110.96 603.19
00003621 00000007 852.42 196.96 376.53 543.63 956.69 401.82 1122.45 418.50 1036.74 527.32 960.01 589.34 1108.70 603.58
00003622 00000008 845.30 212.61 373.15 539.00 960.41 422.23 1126.69 434.06 1053.55 547.61 970.63 615.56 1104.17 626.68
00003623 00000009 843.49 212.66 374.93 541.50 959.84 422.04 1126.53 434.29 1053.25 547.25 969.34 615.65 1103.97 627.14
00003624 00000010 841.88 213.50 375.83 544.59 957.96 421.90 1125.55 435.15 1051.32 547.57 966.52 615.80 1103.42 628.11
00003625 DELETE   840.80 214.29 375.22 541.62 957.20 421.85 1125.44 435.33 1050.88 547.50 965.41 616.00 1101.99 628.46
00003626 00000012 839.79 212.64 373.85 538.94 956.03 422.15 1123.62 435.51 1049.50 547.85 965.39 615.80 1099.47 628.01
00003627 00000013 840.69 214.29 369.64 523.40 955.51 421.98 1122.24 434.06 1047.31 547.12 965.50 613.53 1095.53 624.48
00003628 00000014 839.56 215.82 369.62 522.61 955.22 422.84 1121.34 435.27 1045.67 547.16 962.29 611.85 1094.05 623.29
00003629 00000015 837.99 217.15 370.43 529.29 950.30 423.98 1119.38 435.19 1044.77 548.36 960.89 618.18 1095.62 628.41
00003630 00000016 835.94 215.54 373.15 545.89 947.98 422.68 1119.35 436.63 1044.33 548.13 955.95 621.15 1095.38 634.17
00003631 DELETE   836.63 211.64 370.21 539.71 948.08 422.08 1117.78 433.70 1043.88 545.98 956.69 617.98 1094.73 628.65
00003632 DELETE   836.47 204.10 370.66 543.23 950.65 415.48 1119.68 429.13 1043.47 542.41 955.16 612.79 1092.99 625.31
00003633 DELETE   837.71 201.41 371.51 546.01 950.78 411.58 1119.60 427.04 1041.93 539.75 956.45 612.25 1090.60 626.40
00003634 00000020 836.46 202.71 372.69 543.62 950.18 410.56 1115.62 425.71 1038.28 537.03 955.66 610.01 1085.91 624.19
00003635 00000021 836.16 200.47 371.44 538.88 950.36 409.64 1114.40 423.99 1037.70 535.47 957.43 606.49 1087.06 619.79
00003636 00000022 835.63 200.61 372.07 542.63 950.10 408.73 1112.99 424.29 1037.24 533.98 954.82 604.05 1088.17 618.39
00003637 00000023 835.23 202.34 371.29 537.41 949.26 408.21 1111.70 423.22 1036.34 533.55 952.43 601.73 1087.64 615.54
00003638 00000024 834.30 201.89 371.57 541.99 947.46 407.53 1110.34 423.68 1035.06 533.57 949.99 603.55 1085.97 618.41
00003639 00000025 833.46 202.55 370.80 534.39 945.64 409.44 1108.96 423.59 1032.84 535.95 950.02 604.63 1083.66 617.77
00003640 00000026 833.57 205.11 368.29 532.95 943.71 412.11 1107.25 425.56 1031.65 538.58 949.15 608.44 1080.55 621.07
00003641 00000027 832.57 206.99 368.60 534.02 939.54 413.41 1105.68 426.14 1028.69 539.28 948.55 615.15 1077.43 627.06
00003642 00000028 831.70 206.94 367.42 538.96 935.61 415.17 1102.66 428.14 1025.76 539.87 945.89 618.84 1075.99 630.97
00003643 00000029 828.68 216.25 369.91 543.57 932.16 421.45 1097.13 428.97 1016.89 545.65 949.38 622.60 1080.39 629.66
00003644 00000030 827.68 217.72 367.79 537.70 930.12 423.39 1095.08 431.34 1014.40 546.07 945.45 619.79 1078.76 627.28
00003645 00000031 827.09 219.43 366.99 538.18 929.05 425.48 1093.26 433.91 1012.46 547.27 942.11 618.91 1077.50 626.87
00003646 00000032 825.38 223.46 366.20 535.09 927.54 427.76 1091.76 436.27 1011.40 548.39 940.80 619.97 1076.14 627.91
00003647 00000033 824.01 225.95 366.34 535.36 925.89 429.01 1091.37 437.60 1010.54 550.08 939.42 622.15 1075.48 630.06
00003648 00000034 824.61 218.18 366.77 543.62 924.43 428.87 1090.92 439.85 1011.67 556.22 934.74 625.00 1073.35 634.53
00003649 00000035 823.25 220.07 367.68 543.78 923.79 430.46 1089.50 441.38 1011.13 557.51 934.28 625.69 1072.23 635.23
00003650 00000036 821.97 219.73 366.77 542.94 922.70 431.89 1087.89 441.89 1010.22 557.36 933.64 626.56 1070.95 635.49
00003651 00000037 820.54 219.80 367.40 547.82 921.72 431.38 1085.92 442.61 1007.42 558.01 930.88 626.27 1067.83 636.21
00003652 00000038 819.00 220.75 366.89 546.13 920.86 431.66 1083.77 443.40 1005.28 558.16 929.35 626.01 1064.86 636.41
00003653 00000039 818.38 221.34 367.25 544.38 920.29 431.17 1083.00 443.59 1004.04 558.43 927.53 625.23 1063.69 636.20
00003654 00000040 817.61 219.93 367.51 546.45 919.04 431.44 1082.21 442.69 1003.00 557.45 927.80 626.01 1064.17 635.91
00003655 00000041 817.49 219.54 368.02 549.17 918.26 431.88 1081.32 442.61 1001.62 556.82 926.51 626.13 1063.98 635.63
00003656 00000042 816.45 220.05 368.45 548.91 917.39 432.14 1080.78 442.44 1001.03 557.43 926.04 626.39 1063.49 635.52
00003657 00000043 816.44 219.57 367.80 547.28 916.91 431.68 1081.09 443.24 1000.34 557.72 925.90 627.09 1061.37 637.08
00003658 00000044 816.94 219.12 367.01 543.74 916.03 431.31 1082.68 444.17 999.65 559.53 926.83 630.34 1058.53 641.36
00003659 00000045 817.34 218.05 367.91 547.69 917.44 431.83 1083.09 445.75 1000.55 561.34 927.99 632.90 1057.09 644.80
00003660 00000046 817.31 218.17 368.97 548.84 917.66 434.48 1083.61 447.52 1002.11 562.05 929.33 636.27 1059.09 647.45
00003661 00000047 815.88 221.39 371.74 551.70 918.06 436.47 1083.16 449.10 1002.62 564.72 930.07 638.71 1059.54 649.62
00003662 00000048 815.04 224.08 374.46 557.58 920.10 437.88 1082.63 450.83 1003.93 566.61 930.83 639.55 1060.37 650.72
00003663 00000049 814.92 223.99 375.36 559.86 921.48 439.09 1084.06 452.04 1006.00 567.87 931.90 640.67 1062.35 651.82
00003664 00000050 815.75 224.65 375.02 554.13 921.29 439.35 1084.84 453.01 1006.08 567.96 932.40 640.86 1061.28 652.64
00003665 00000051 817.41 222.80 372.75 551.48 920.51 438.39 1086.43 452.09 1005.74 567.26 932.92 639.48 1063.49 651.13
00003666 00000052 818.12 222.84 371.86 547.79 920.50 437.03 1087.14 450.15 1006.78 566.11 934.82 639.89 1063.58 650.94
00003667 00000053 818.52 223.09 372.48 549.16 920.38 437.27 1087.60 449.65 1007.30 566.10 935.85 641.64 1064.48 652.09
00003668 00000054 817.77 223.83 374.41 551.35 920.61 437.68 1087.15 449.99 1006.84 567.02 935.55 642.94 1063.70 653.41
00003669 00000055 817.97 225.06 374.88 556.62 922.18 438.15 1086.97 449.78 1007.66 566.54 935.81 643.09 1065.12 653.03
00003670 00000056 817.09 224.86 375.20 559.40 921.90 437.93 1087.29 449.78 1007.35 567.33 934.51 643.70 1065.16 653.72
00003671 00000057 816.55 223.89 374.96 559.24 921.25 437.82 1084.99 449.65 1006.25 566.73 933.30 641.50 1063.72 651.60
00003672 00000058 816.18 224.46 373.81 556.99 919.41 437.07 1083.33 449.05 1003.87 565.86 930.60 639.87 1062.30 650.15
00003673 00000059 814.97 224.94 371.95 552.99 917.45 436.28 1081.62 448.06 1001.59 563.74 928.94 638.71 1058.83 649.01
00003674 00000060 813.62 226.84 371.12 547.43 915.35 435.16 1079.50 446.64 998.90 561.67 927.27 636.12 1056.68 646.15
00003675 00000061 812.62 224.92 368.89 543.22 913.24 433.20 1078.04 443.19 997.77 557.75 925.79 632.74 1056.23 641.76
00003676 00000062 811.90 224.51 367.04 541.88 912.07 432.25 1077.17 441.60 996.76 556.09 924.29 631.42 1054.85 639.91
00003677 00000063 810.09 224.39 366.77 539.29 910.60 431.07 1076.97 439.87 996.16 555.84 922.28 629.86 1053.89 637.98
00003678 00000064 809.51 222.53 365.89 541.34 910.14 429.16 1076.32 437.39 996.19 554.72 921.32 628.44 1052.54 636.20
00003679 00000065 807.81 224.17 366.71 539.52 908.50 428.33 1074.80 435.61 994.81 551.33 919.91 627.64 1050.22 634.70
00003680 00000066 808.07 222.68 365.13 537.55 906.57 427.40 1073.44 435.17 992.74 549.97 918.56 626.74 1049.51 634.16
00003681 00000067 807.09 222.72 365.75 536.83 905.34 425.84 1072.20 433.73 991.21 549.02 916.09 626.44 1046.95 634.10
00003682 00000068 806.88 221.22 365.26 536.51 904.74 425.07 1071.73 432.61 991.13 548.24 916.57 625.61 1046.71 632.83
00003683 00000069 807.32 219.75 363.52 532.02 904.04 423.19 1072.50 430.70 991.43 546.66 916.00 623.65 1046.38 630.81
00003684 00000070 802.82 216.35 360.64 511.65 902.27 422.78 1068.67 427.22 991.42 542.82 920.14 612.27 1048.85 618.05
00003685 00000071 803.34 216.29 360.05 511.46 903.11 420.95 1070.09 425.84 992.36 541.99 919.31 610.20 1049.59 616.44
00003686 00000072 804.03 216.40 361.39 521.82 903.68 420.54 1072.42 426.50 994.16 541.05 918.71 611.73 1052.81 618.73
00003687 00000073 804.15 214.10 361.65 525.62 903.17 420.29 1071.12 425.73 993.46 541.99 920.98 615.06 1051.70 621.56
00003688 00000074 803.62 213.18 362.00 522.85 903.36 420.17 1072.29 425.03 994.35 542.96 921.42 614.88 1052.70 621.00
00003689 00000075 805.31 215.03 362.15 533.87 905.71 419.69 1074.20 427.90 995.77 542.43 920.66 615.92 1054.09 624.88
00003690 00000076 805.21 215.20 362.83 535.26 906.45 420.07 1074.78 428.90 997.10 542.82 922.06 618.15 1053.31 627.64
00003691 00000077 805.53 218.50 362.32 533.20 908.67 422.23 1075.34 430.27 999.41 544.52 925.44 619.31 1055.04 627.98
00003692 00000078 809.41 218.30 363.54 535.26 909.28 423.12 1076.16 431.79 996.74 549.17 923.22 624.26 1048.97 631.96
00003693 00000079 810.10 221.87 363.80 536.77 910.75 426.59 1075.84 435.26 996.84 554.40 921.24 623.82 1050.58 631.97
00003694 00000080 810.55 223.59 364.25 536.26 911.78 429.04 1075.95 438.16 996.71 556.75 920.97 623.71 1052.15 632.19
00003695 00000081 810.87 222.12 364.23 538.37 912.66 430.79 1077.02 440.53 997.75 558.37 921.29 624.46 1054.05 633.44
00003696 00000082 811.63 223.22 365.97 539.24 914.28 432.72 1077.97 443.16 999.06 560.55 924.01 626.74 1056.68 636.14
00003697 00000083 813.32 224.50 367.74 543.66 916.97 434.99 1079.45 448.05 1000.61 562.78 924.93 627.30 1059.45 638.78
00003698 00000084 814.66 224.18 368.70 544.06 918.49 436.16 1080.79 450.12 1001.97 564.37 926.33 628.54 1060.66 640.75
00003699 00000085 816.08 223.31 369.11 543.72 919.51 435.98 1082.13 451.95 1001.37 567.54 929.50 634.43 1054.37 648.34
00003700 00000086 817.20 222.81 370.86 545.31 918.82 436.98 1084.15 452.83 1001.16 569.64 932.57 641.66 1053.98 655.38
00003701 00000087 817.30 226.13 373.77 549.08 921.04 439.18 1085.76 454.15 1003.72 572.16 934.63 644.44 1057.04 657.43
00003702 00000088 816.75 224.61 376.45 562.24 923.54 442.04 1086.87 455.93 1006.48 573.15 934.28 645.36 1064.17 657.22
00003703 00000089 817.16 226.16 376.39 559.45 923.56 443.20 1087.64 457.28 1007.08 573.30 932.88 644.02 1065.90 656.22
00003704 00000090 817.20 225.92 375.73 556.17 923.14 444.54 1087.13 458.93 1006.45 574.10 930.71 642.09 1065.50 654.74
00003705 00000091 817.10 228.74 374.84 549.61 921.65 445.11 1087.72 459.48 1004.74 574.60 929.10 642.16 1065.13 654.89
00003706 00000092 816.46 229.25 375.41 550.91 922.80 446.53 1086.83 460.73 1005.94 574.88 929.73 642.00 1065.41 654.61
00003707 00000093 816.31 229.92 376.24 551.96 923.71 448.56 1087.27 461.85 1007.40 575.76 930.73 642.44 1068.32 654.43
00003708 00000094 815.76 230.11 376.55 552.08 923.58 448.43 1087.07 461.49 1007.42 575.52 930.52 642.57 1068.35 654.31
00003709 00000095 815.62 229.40 375.69 552.94 923.33 448.23 1086.32 461.51 1006.99 575.22 930.46 642.33 1067.13 654.24
00003710 00000096 814.85 230.59 375.90 551.96 922.00 446.13 1086.02 459.40 1005.72 575.60 929.12 642.24 1065.29 654.28
00003711 00000097 813.89 231.70 374.63 545.66 919.55 444.60 1084.14 457.37 1003.22 575.73 928.06 641.58 1062.31 653.34
00003712 00000098 813.27 230.77 374.49 546.13 918.00 444.28 1082.21 457.25 1000.89 574.56 927.13 642.13 1058.88 653.94
00003713 00000099 812.30 232.72 372.74 542.66 916.81 443.84 1080.76 456.24 999.58 574.28 925.97 641.75 1056.10 653.21
00003714 00000100 812.09 230.31 371.26 546.99 915.63 442.54 1079.19 454.93 998.02 572.60 924.50 641.82 1053.48 653.17
00003715 00000101 811.29 232.45 369.28 539.95 913.67 442.02 1078.19 454.13 995.93 571.73 922.65 640.77 1051.94 651.94
00003716 00000102 810.09 230.50 369.75 541.43 912.49 440.35 1076.57 451.83 995.71 569.01 922.29 638.59 1052.02 649.10
00003717 00000103 810.71 229.29 368.60 540.70 912.61 438.04 1075.94 449.55 996.03 567.67 922.73 635.91 1052.03 646.47
00003718 00000104 810.69 227.91 368.54 538.94 911.94 437.43 1075.20 448.02 995.63 566.72 922.98 633.67 1052.68 643.44
00003719 00000105 811.06 226.27 367.65 539.61 912.30 436.06 1076.76 445.76 997.49 563.93 923.64 632.12 1056.39 641.06
00003720 00000106 811.31 225.69 367.70 539.76 912.48 435.65 1077.84 445.25 998.17 563.66 923.64 631.53 1058.08 640.30
00003721 00000107 813.04 224.53 367.50 540.04 913.08 434.93 1079.01 445.40 998.27 562.92 923.95 631.58 1058.55 641.08
00003722 00000108 812.68 223.84 367.40 538.15 912.00 434.28 1080.27 444.41 998.31 561.24 923.50 632.32 1058.64 641.34
00003723 00000109 813.06 223.58 366.57 534.92 912.18 433.35 1081.46 443.61 999.55 560.40 924.20 631.53 1060.26 640.56
00003724 00000110 814.53 221.49 367.03 538.61 913.99 432.93 1081.91 444.65 1000.40 560.23 926.87 632.04 1059.96 642.06
00003725 00000111 814.79 221.61 367.86 540.74 914.99 433.00 1081.82 445.88 1000.50 560.89 927.58 632.80 1058.91 643.69
00003726 00000112 814.85 220.79 372.91 554.40 917.21 433.77 1083.76 447.95 1001.32 563.69 928.05 638.66 1056.92 650.76
00003727 00000113 816.15 221.36 373.84 549.64 918.44 437.41 1084.57 450.65 1003.78 569.31 933.89 642.13 1058.91 653.40
00003728 00000114 816.20 227.56 374.97 553.57 921.31 441.77 1085.19 455.19 1004.84 572.68 931.66 641.84 1062.63 653.62
00003729 DELETE   817.28 228.43 374.36 550.00 920.80 444.94 1085.79 457.69 1002.95 573.82 927.58 639.34 1064.76 650.80
00003730 00000116 817.15 227.63 374.96 552.95 922.66 444.58 1085.33 458.04 1004.99 571.57 926.15 635.50 1067.39 647.74
00003731 00000117 818.80 223.41 369.95 545.54 921.86 441.25 1086.26 455.31 1006.95 567.27 928.93 632.85 1068.32 645.34
00003732 00000118 816.16 235.04 369.93 536.22 922.48 443.64 1086.53 451.65 1009.32 561.38 937.42 631.66 1072.11 639.15
00003733 00000119 818.82 224.64 370.53 543.54 922.12 437.58 1087.08 450.32 1009.18 561.41 930.73 628.97 1072.67 640.01
00003734 00000120 821.92 221.79 366.78 539.99 922.86 434.16 1087.71 445.45 1010.38 559.44 931.65 625.28 1073.60 635.45
00003735 00000121 823.60 220.32 366.53 541.32 923.89 432.39 1088.41 442.99 1011.04 555.68 932.94 623.07 1075.38 632.50
CROP_BBOX: 618 0 1572 1004
