Video ID: 	LX39abDaFak
H: 	2160
W: 	3840
FPS: 	23.976023976023978

FRAME INDEX X0 Y0 W H [Landmarks (5 Points)]

00000189 00000000 1411.62 255.84 608.30 762.70 1574.81 565.05 1829.98 486.85 1738.82 633.55 1645.83 800.03 1906.17 728.70
00000190 00000001 1397.00 266.45 611.48 766.14 1562.47 573.85 1818.00 493.27 1732.53 645.43 1637.23 814.72 1899.76 740.56
00000191 00000002 1395.70 272.00 614.91 771.96 1558.92 580.68 1811.47 494.89 1729.64 651.24 1640.77 822.55 1895.36 746.00
00000192 00000003 1399.28 269.56 613.08 777.42 1561.36 579.45 1814.68 494.88 1731.82 649.44 1647.77 826.49 1899.30 752.22
00000193 00000004 1415.00 262.47 611.61 774.91 1578.77 570.21 1831.69 493.88 1743.06 645.39 1661.10 819.08 1905.31 752.83
00000194 00000005 1439.61 260.75 609.86 774.22 1599.00 561.37 1857.53 494.73 1759.11 640.98 1673.50 815.47 1916.77 757.66
00000195 00000006 1460.44 250.29 611.37 801.13 1623.67 551.74 1889.76 501.53 1786.06 636.35 1686.84 816.42 1939.50 773.12
00000196 00000007 1488.26 257.30 602.52 820.71 1653.14 536.46 1929.80 503.46 1813.57 632.62 1707.66 833.23 1950.59 805.69
00000197 00000008 1505.20 264.84 616.74 860.72 1679.05 531.98 1953.99 499.63 1838.79 649.68 1729.27 838.69 1973.47 809.60
00000198 00000009 1528.90 251.56 613.29 869.51 1706.21 534.55 1988.11 515.92 1868.49 662.26 1743.99 837.73 1993.86 820.74
00000199 00000010 1557.72 263.14 609.11 819.43 1734.62 550.07 2015.36 537.55 1892.54 662.60 1763.86 837.80 2019.52 828.91
00000200 DELETE   1571.76 260.59 625.93 825.53 1761.89 539.32 2045.53 533.62 1928.04 663.79 1804.28 819.75 2034.93 817.09
00000201 00000012 1592.99 259.90 617.53 819.37 1793.32 540.31 2065.85 536.55 1950.56 663.83 1828.80 822.98 2056.62 818.82
00000202 00000013 1602.37 258.63 624.75 838.74 1795.41 529.40 2089.48 531.75 1967.38 659.29 1834.83 823.93 2062.04 828.36
00000203 00000014 1596.15 250.22 643.27 877.38 1801.72 532.49 2087.68 531.38 1966.57 664.02 1850.46 853.46 2050.20 854.08
00000204 00000015 1596.13 250.24 642.13 871.10 1796.46 538.67 2087.39 539.66 1962.13 677.33 1840.94 854.41 2053.62 856.92
00000205 DELETE   1591.73 255.93 641.74 874.25 1787.64 548.84 2077.79 544.66 1955.05 690.81 1829.08 861.11 2062.20 859.19
00000206 00000017 1592.91 248.12 646.60 890.60 1791.27 564.26 2075.53 554.88 1955.49 696.19 1816.26 878.53 2078.47 871.24
00000207 00000018 1587.39 258.26 652.62 897.22 1786.18 577.04 2072.29 566.62 1953.30 716.65 1810.83 886.41 2078.47 877.97
00000208 00000019 1581.51 263.34 652.06 905.28 1782.19 588.51 2071.05 576.64 1955.35 734.06 1807.27 902.11 2076.63 893.30
00000209 00000020 1583.42 277.57 653.65 905.12 1773.28 588.95 2079.11 578.87 1955.93 746.09 1821.43 915.88 2071.43 907.96
00000210 00000021 1581.59 287.16 662.38 904.16 1780.28 593.66 2081.29 584.79 1955.10 749.37 1815.91 922.44 2069.43 914.49
00000211 00000022 1591.50 286.63 662.82 928.49 1795.17 581.38 2095.88 576.81 1967.35 734.33 1823.17 923.17 2079.16 918.63
00000212 00000023 1613.66 287.20 651.68 930.41 1820.08 567.81 2113.94 562.58 1986.86 709.05 1838.86 913.13 2093.92 907.49
00000213 00000024 1632.77 275.09 639.54 912.93 1839.27 550.81 2135.97 547.34 2009.89 679.11 1855.30 887.39 2113.79 883.38
00000214 DELETE   1648.02 256.46 621.47 899.53 1839.35 543.20 2142.48 544.18 2017.42 677.04 1857.59 864.62 2127.31 866.57
00000215 00000026 1655.41 248.11 615.62 851.44 1857.41 532.41 2140.98 533.84 2027.17 664.64 1880.28 845.01 2124.67 845.85
00000216 DELETE   1657.62 231.98 622.38 839.50 1859.77 526.16 2147.50 531.54 2032.46 650.94 1872.23 825.92 2131.32 833.34
00000217 00000028 1663.76 218.44 624.50 840.42 1868.85 513.02 2156.49 523.99 2041.21 634.63 1880.15 814.65 2135.51 826.20
00000218 DELETE   1673.74 220.49 621.63 833.41 1879.30 491.38 2169.26 502.78 2051.48 618.50 1905.61 794.91 2133.55 805.96
00000219 DELETE   1688.21 221.77 614.05 822.71 1900.10 477.78 2181.34 491.34 2068.84 601.59 1930.46 782.29 2140.15 795.05
00000220 00000031 1704.78 212.15 608.77 822.07 1921.39 470.10 2199.46 494.38 2092.62 595.53 1950.34 774.65 2154.82 796.93
00000221 00000032 1718.13 196.74 608.37 821.55 1944.75 472.23 2218.69 495.91 2114.22 585.98 1957.88 767.42 2192.54 785.42
00000222 00000033 1737.10 200.06 602.34 815.87 1960.10 463.16 2237.78 493.09 2138.61 576.65 1973.07 764.29 2210.59 787.65
00000223 00000034 1752.75 198.03 597.04 820.93 1976.68 466.81 2250.70 502.71 2155.14 575.67 1991.01 765.42 2221.68 794.07
00000224 00000035 1754.28 219.14 614.80 816.61 1993.36 453.68 2264.80 506.90 2170.33 583.02 2009.70 755.89 2218.80 801.29
00000225 00000036 1762.75 217.53 613.43 821.04 1998.17 457.15 2270.69 514.02 2173.35 581.94 2015.38 760.95 2219.97 809.63
00000226 00000037 1763.84 223.25 613.80 814.82 1998.37 462.74 2273.40 515.06 2173.36 593.09 2013.64 767.89 2220.38 812.26
00000227 00000038 1759.96 224.80 614.08 811.74 1995.68 475.10 2274.94 523.06 2171.23 610.52 1999.22 771.80 2229.62 812.49
00000228 00000039 1757.23 225.70 613.32 816.44 1986.85 488.31 2268.18 531.61 2161.36 622.39 1981.01 785.67 2229.24 823.06
00000229 00000040 1756.66 230.90 616.14 843.28 1979.75 510.11 2264.35 540.53 2157.12 644.83 1974.29 822.61 2229.44 849.55
00000230 00000041 1745.27 251.09 626.45 894.77 1972.50 514.78 2261.52 539.96 2145.13 653.70 1975.76 849.00 2210.69 872.00
00000231 00000042 1737.18 257.11 635.98 903.26 1961.58 527.97 2255.91 554.35 2140.63 683.93 1962.01 858.68 2205.09 884.07
00000232 00000043 1728.14 259.92 638.30 901.29 1946.44 544.84 2245.93 565.02 2127.70 705.85 1955.62 871.05 2201.16 890.44
00000233 00000044 1722.16 266.40 636.34 889.49 1933.55 560.63 2235.90 575.81 2114.52 729.55 1949.54 884.76 2194.93 899.04
00000234 00000045 1715.86 277.15 628.86 877.52 1932.81 580.66 2220.75 591.90 2102.80 755.47 1946.63 896.79 2193.94 905.75
00000235 00000046 1705.53 293.25 627.29 877.36 1923.39 606.04 2203.70 611.98 2089.26 776.21 1940.31 920.75 2183.78 924.41
00000236 00000047 1694.14 299.89 636.92 891.37 1905.70 621.98 2192.15 620.59 2079.31 791.74 1939.91 940.62 2165.26 939.29
00000237 00000048 1682.15 304.75 641.87 884.87 1896.85 626.68 2179.25 625.14 2067.37 799.24 1928.18 947.26 2160.47 945.43
00000238 00000049 1670.01 310.85 636.58 875.18 1880.31 624.90 2169.29 621.56 2050.48 788.78 1918.08 945.06 2146.04 938.59
00000239 00000050 1663.16 292.22 637.18 884.72 1871.88 609.37 2161.61 603.07 2041.12 770.15 1911.70 930.19 2139.98 921.94
00000240 00000051 1659.19 279.94 629.40 891.56 1867.10 597.75 2154.58 592.08 2033.89 761.82 1903.60 917.55 2135.14 910.05
00000241 00000052 1653.25 280.28 626.05 888.20 1861.49 593.86 2146.66 588.38 2027.16 753.09 1898.35 914.24 2127.53 907.17
00000242 DELETE   1638.89 287.41 645.63 901.31 1853.13 581.65 2135.87 575.59 2019.46 732.54 1905.26 916.32 2108.11 910.79
00000243 DELETE   1631.22 261.28 644.08 941.49 1853.45 567.21 2127.50 557.51 2020.48 713.62 1915.20 936.24 2098.61 927.08
00000244 00000055 1627.55 259.26 646.47 937.64 1849.07 554.19 2124.30 546.33 2014.43 695.80 1909.26 925.79 2089.58 918.26
00000245 00000056 1626.68 256.48 644.45 919.29 1844.54 551.22 2117.54 544.48 2006.64 683.42 1900.29 904.31 2081.70 898.08
00000246 00000057 1631.97 250.92 629.50 920.42 1834.85 547.44 2107.73 540.99 1996.27 676.75 1891.13 893.50 2066.48 890.45
00000247 00000058 1630.79 251.24 629.08 914.66 1837.38 542.86 2106.15 533.12 1998.21 666.92 1894.25 883.74 2064.57 878.12
00000248 00000059 1630.94 252.02 626.65 908.21 1837.39 537.39 2101.63 526.12 1998.97 653.52 1898.20 873.97 2068.10 866.46
00000249 00000060 1631.94 248.95 626.04 896.72 1841.47 532.75 2100.63 520.88 2003.86 648.73 1899.22 861.44 2072.95 853.32
00000250 00000061 1630.59 241.95 630.79 888.64 1839.93 523.04 2108.88 514.26 2003.04 635.70 1895.21 855.98 2074.80 849.16
00000251 00000062 1627.57 230.34 633.73 883.43 1835.39 519.01 2112.62 508.47 2004.98 629.66 1889.22 850.26 2084.83 840.98
00000252 00000063 1632.22 221.65 623.84 872.38 1828.31 512.13 2117.63 511.01 2005.87 628.30 1877.45 836.35 2086.32 836.33
00000253 00000064 1625.94 219.75 626.17 858.72 1823.12 507.62 2112.52 508.10 1999.01 621.49 1868.01 818.31 2085.25 819.91
00000254 00000065 1619.50 220.40 628.86 848.52 1817.27 504.84 2105.46 501.71 1991.03 618.27 1863.26 808.85 2083.21 807.43
00000255 00000066 1616.08 220.53 630.40 845.53 1812.39 505.42 2102.87 501.29 1985.96 613.78 1859.93 805.81 2081.09 803.65
00000256 00000067 1615.93 221.15 628.42 842.71 1809.62 501.39 2097.81 494.22 1983.74 613.50 1859.94 806.20 2080.39 801.05
00000257 00000068 1613.59 226.92 627.75 836.25 1808.38 505.19 2094.02 498.24 1978.89 615.74 1857.54 803.57 2077.85 799.07
00000258 00000069 1611.76 233.84 629.39 830.10 1805.31 514.13 2089.93 504.83 1974.95 620.35 1855.92 808.70 2075.53 802.11
00000259 00000070 1609.36 235.63 630.42 829.87 1800.98 517.38 2086.62 504.25 1969.99 620.65 1853.89 809.77 2074.98 800.16
00000260 00000071 1610.64 233.50 631.80 833.24 1798.57 504.94 2091.60 494.71 1968.62 618.97 1849.08 811.00 2075.22 803.27
00000261 00000072 1608.30 228.83 636.67 841.99 1794.15 502.20 2091.40 489.88 1969.45 619.86 1846.73 815.34 2079.85 805.52
00000262 00000073 1614.26 223.18 635.44 853.64 1798.89 507.80 2096.13 495.57 1975.89 628.15 1845.90 823.86 2086.89 814.24
00000263 00000074 1618.74 228.27 632.82 865.17 1799.98 515.99 2099.35 503.79 1978.46 640.05 1839.63 833.21 2091.80 824.06
00000264 00000075 1618.23 255.79 632.53 859.16 1805.85 541.88 2096.58 528.36 1977.66 668.22 1835.15 846.23 2094.36 832.96
00000265 00000076 1624.73 258.95 632.70 885.40 1815.25 558.87 2104.26 548.94 1985.13 695.39 1834.59 864.53 2104.87 855.95
00000266 00000077 1628.86 276.22 643.88 892.18 1810.56 569.28 2118.70 559.22 1988.81 725.15 1837.99 888.92 2113.00 881.32
00000267 DELETE   1631.14 309.67 652.88 885.24 1828.91 594.89 2132.41 587.58 2004.06 754.88 1846.31 919.80 2125.33 912.65
00000268 DELETE   1632.95 323.17 658.11 912.83 1831.29 627.94 2139.45 625.92 2008.18 804.00 1853.12 953.54 2126.69 953.09
00000269 00000080 1643.07 338.00 658.36 924.09 1846.64 664.50 2147.27 659.69 2020.02 846.53 1861.78 990.64 2139.54 987.31
00000270 00000081 1657.01 353.35 669.02 940.50 1863.88 695.93 2158.34 690.44 2031.00 882.04 1876.71 1020.97 2156.27 1016.47
00000271 00000082 1661.94 370.28 682.23 949.93 1877.11 697.33 2188.94 703.48 2059.08 898.59 1891.95 1030.91 2164.67 1037.10
00000272 00000083 1672.66 378.04 677.77 962.05 1897.51 695.93 2202.74 704.60 2075.89 892.32 1905.11 1032.92 2171.57 1043.01
00000273 00000084 1677.48 373.04 666.13 941.65 1909.03 677.76 2207.85 686.26 2090.23 871.49 1917.84 1015.33 2169.67 1025.43
00000274 DELETE   1668.75 351.64 663.74 930.32 1908.06 652.34 2201.29 660.17 2088.90 842.65 1912.33 978.02 2172.52 986.69
00000275 00000086 1658.99 318.40 659.96 919.65 1886.17 631.63 2188.66 639.54 2076.04 811.04 1898.47 952.23 2160.13 959.61
00000276 00000087 1644.92 302.22 658.21 913.46 1866.48 615.48 2168.74 616.73 2051.69 787.80 1884.76 934.11 2150.42 935.11
00000277 00000088 1635.86 305.62 654.22 897.26 1848.79 607.18 2152.05 604.66 2031.89 775.19 1866.81 927.23 2141.78 924.28
00000278 00000089 1627.35 309.06 650.02 882.27 1839.11 605.54 2139.12 601.69 2021.84 772.70 1859.15 925.62 2126.85 921.90
00000279 00000090 1617.51 302.39 652.89 882.63 1838.03 611.29 2129.03 609.33 2018.97 769.81 1853.31 923.61 2113.36 920.81
00000280 00000091 1613.08 297.65 650.81 881.94 1832.78 607.79 2124.31 605.25 2016.18 762.29 1849.77 921.36 2109.48 918.17
00000281 00000092 1609.16 295.79 650.95 890.31 1830.72 608.07 2120.79 606.49 2014.08 758.11 1847.48 922.13 2107.72 919.58
00000282 00000093 1608.15 299.59 650.74 890.77 1831.91 609.28 2120.80 607.44 2015.48 759.43 1851.33 924.77 2105.83 922.28
00000283 00000094 1610.31 301.83 648.34 885.70 1834.68 609.31 2122.79 606.69 2017.84 756.82 1857.07 925.00 2106.33 921.94
00000284 00000095 1613.14 310.22 647.97 867.27 1838.57 607.24 2124.86 600.44 2023.06 753.84 1874.96 923.17 2107.92 916.94
00000285 00000096 1623.44 299.51 631.97 866.96 1842.95 604.56 2126.74 598.79 2020.49 747.62 1884.38 918.74 2117.56 910.60
00000286 00000097 1628.96 301.09 636.23 868.37 1839.24 592.23 2134.78 585.92 2026.67 737.76 1889.65 909.39 2120.35 903.88
00000287 00000098 1639.78 293.32 628.17 869.15 1851.40 590.74 2141.27 589.46 2030.07 734.05 1892.55 913.09 2123.32 909.00
00000288 00000099 1647.15 293.57 629.45 861.18 1862.66 580.78 2150.74 584.32 2038.44 727.76 1900.08 905.26 2131.32 904.70
00000289 00000100 1653.76 283.61 629.80 867.01 1866.95 576.07 2157.58 581.81 2041.93 720.61 1902.86 895.75 2132.24 898.01
00000290 00000101 1655.00 278.42 638.08 869.32 1866.07 569.27 2162.56 575.39 2044.06 715.49 1900.82 886.63 2132.96 892.09
00000291 00000102 1656.57 272.93 635.77 868.16 1867.02 567.27 2165.84 574.94 2048.05 710.19 1897.30 883.03 2136.70 890.17
00000292 00000103 1659.98 259.67 636.65 874.14 1874.53 576.90 2160.41 579.77 2054.13 709.13 1892.49 892.51 2150.56 897.15
00000293 00000104 1652.67 261.60 643.95 917.61 1871.53 570.27 2167.46 582.60 2053.37 702.54 1887.83 906.34 2133.39 918.66
00000294 00000105 1650.42 265.61 647.32 925.87 1870.29 573.26 2170.81 593.68 2051.42 712.71 1868.88 911.90 2135.21 932.28
00000295 00000106 1643.61 284.88 654.02 908.98 1864.68 579.66 2170.33 597.11 2039.27 736.18 1865.25 912.50 2137.39 927.30
00000296 00000107 1641.24 317.90 652.96 887.59 1857.91 599.70 2161.80 613.72 2033.55 765.17 1863.75 928.99 2130.45 941.62
00000297 00000108 1635.58 328.97 653.00 905.53 1845.47 613.66 2151.28 626.03 2019.56 779.76 1846.49 945.64 2125.11 958.37
00000298 00000109 1632.17 330.17 642.35 930.76 1838.43 625.64 2132.20 633.92 2006.96 791.80 1835.67 953.44 2110.39 962.47
00000299 00000110 1614.63 325.85 653.88 922.45 1818.41 630.83 2118.92 635.04 1992.20 805.89 1829.01 955.60 2094.82 961.91
00000300 00000111 1607.11 326.33 653.54 890.19 1804.72 639.45 2101.45 638.60 1975.18 810.59 1820.57 955.01 2093.76 954.85
00000301 00000112 1600.22 322.65 653.17 880.73 1795.87 639.84 2091.50 637.55 1963.61 808.49 1812.21 951.29 2085.04 949.86
00000302 00000113 1595.34 316.01 650.68 889.51 1789.85 640.04 2085.24 634.68 1959.19 804.66 1807.65 953.17 2083.40 949.28
00000303 00000114 1591.40 315.86 650.79 891.45 1785.00 640.13 2082.31 631.08 1957.69 807.09 1807.47 958.32 2083.63 950.92
00000304 00000115 1587.44 318.34 651.94 908.65 1782.66 642.21 2077.04 629.08 1954.32 808.63 1810.08 963.65 2082.60 952.45
00000305 00000116 1582.92 321.24 654.78 926.70 1777.37 650.51 2073.78 632.60 1953.61 815.40 1809.90 974.44 2084.83 959.14
00000306 00000117 1581.49 326.88 652.99 928.80 1776.27 660.46 2070.70 640.43 1954.26 824.78 1809.79 982.74 2084.62 965.60
00000307 00000118 1582.56 344.63 649.91 912.96 1773.78 675.85 2070.54 653.23 1953.24 844.71 1809.76 994.75 2085.73 974.49
00000308 00000119 1585.16 340.96 655.16 922.96 1768.88 672.22 2075.18 654.20 1950.05 851.92 1809.37 991.74 2079.21 977.45
00000309 00000120 1585.91 343.88 653.18 908.48 1767.98 670.24 2074.68 652.50 1948.92 845.15 1810.20 988.23 2079.15 973.43
00000310 00000121 1585.06 337.14 654.15 903.47 1769.90 662.05 2076.07 643.93 1955.08 831.94 1812.92 978.88 2083.89 963.90
00000311 00000122 1583.97 327.35 651.14 895.71 1776.91 661.58 2071.37 640.93 1954.90 819.08 1810.11 970.52 2086.80 952.92
00000312 00000123 1586.18 316.81 650.42 896.42 1779.54 650.64 2072.58 631.45 1954.91 809.94 1811.67 960.71 2086.85 944.28
00000313 00000124 1583.44 308.50 659.33 906.38 1776.66 634.03 2074.69 620.68 1954.29 796.56 1813.45 948.97 2079.81 937.47
00000314 00000125 1583.70 306.16 657.95 894.62 1780.04 621.35 2076.07 611.61 1955.34 783.85 1810.80 937.20 2077.60 928.02
00000315 00000126 1588.74 309.99 646.25 876.20 1783.53 618.32 2072.21 607.88 1952.99 771.84 1812.45 928.25 2073.63 918.17
00000316 00000127 1588.86 308.00 649.66 876.38 1783.27 612.91 2074.69 601.97 1953.65 763.64 1812.76 922.68 2072.90 912.18
00000317 00000128 1587.89 294.14 653.06 881.88 1781.04 603.22 2077.49 590.18 1956.35 751.87 1816.99 917.04 2076.01 904.14
00000318 00000129 1595.39 291.90 644.83 880.08 1778.90 590.25 2079.54 575.42 1959.42 741.68 1824.17 911.07 2080.45 899.00
00000319 00000130 1596.48 291.04 644.32 877.43 1781.46 588.03 2080.14 573.60 1961.44 738.22 1829.66 908.77 2083.04 896.77
00000320 00000131 1598.81 288.02 644.20 878.74 1784.52 585.60 2083.00 571.22 1964.43 733.21 1834.48 904.29 2082.47 892.99
00000321 00000132 1600.40 294.17 642.71 865.75 1785.99 583.60 2082.40 567.60 1966.04 730.54 1835.50 899.37 2086.65 886.37
00000322 00000133 1599.86 289.84 645.82 865.99 1787.29 581.03 2085.60 567.07 1966.67 728.01 1835.05 897.39 2087.24 885.89
00000323 00000134 1601.85 297.42 645.85 864.60 1788.32 583.66 2088.28 570.48 1966.80 731.12 1829.49 899.97 2088.95 889.23
00000324 00000135 1596.60 301.99 658.44 891.16 1794.23 587.91 2090.97 576.63 1968.00 736.99 1831.15 920.47 2081.59 909.83
00000325 00000136 1596.81 303.87 664.48 909.84 1793.91 591.16 2096.36 579.99 1968.50 743.02 1830.52 931.61 2084.72 920.99
00000326 00000137 1597.42 304.11 665.41 913.45 1795.22 592.38 2096.50 581.52 1970.60 744.76 1833.12 934.21 2085.49 924.30
00000327 00000138 1597.63 307.72 666.07 906.14 1796.42 593.98 2098.08 583.78 1972.78 748.72 1838.71 935.88 2084.15 927.13
00000328 00000139 1597.90 308.82 664.50 895.97 1796.78 597.06 2099.22 587.75 1973.24 756.19 1845.79 937.62 2081.94 930.04
00000329 00000140 1592.49 300.10 671.41 905.33 1793.98 597.38 2094.82 586.04 1967.31 764.27 1854.06 943.12 2072.19 933.69
00000330 00000141 1593.99 300.14 657.13 900.99 1792.12 607.41 2091.42 595.16 1965.24 758.16 1846.98 956.89 2061.95 946.79
00000331 00000142 1584.66 315.98 663.45 897.28 1782.60 624.60 2078.76 610.55 1953.36 786.38 1844.95 979.18 2047.16 967.35
00000332 00000143 1576.85 325.29 663.98 926.21 1780.90 649.74 2072.96 639.02 1943.72 831.70 1830.28 1006.29 2048.67 996.92
00000333 00000144 1571.48 351.92 671.83 956.55 1766.04 675.48 2061.97 666.04 1930.39 867.09 1814.31 1031.68 2032.48 1025.84
00000334 00000145 1559.80 371.68 688.62 972.67 1756.88 692.07 2063.21 690.06 1922.17 890.61 1793.94 1053.92 2038.72 1053.84
00000335 00000146 1560.44 361.54 675.36 975.67 1740.77 704.20 2056.10 698.51 1905.17 909.63 1779.23 1061.11 2027.96 1058.69
00000336 00000147 1547.06 351.66 675.74 960.85 1727.82 705.15 2045.75 706.34 1890.67 903.50 1763.76 1043.58 2020.77 1045.23
00000337 00000148 1541.70 354.75 670.95 945.47 1722.45 699.88 2020.37 688.21 1874.67 885.82 1753.77 1035.53 2017.30 1025.03
00000338 00000149 1530.33 343.79 668.93 941.31 1706.43 683.07 2012.29 664.96 1866.14 870.17 1768.12 1033.51 1999.57 1018.25
00000339 00000150 1514.63 351.47 666.63 919.11 1686.76 676.36 1986.00 647.88 1850.23 852.57 1765.83 1026.91 1982.19 1003.08
00000340 00000151 1486.41 339.26 672.65 939.49 1674.30 672.53 1968.39 646.94 1835.01 843.33 1736.28 1026.41 1968.47 1002.78
00000341 00000152 1483.82 337.91 668.36 942.72 1659.73 661.58 1961.31 637.44 1823.72 840.26 1726.55 1008.24 1963.28 988.67
00000342 00000153 1473.95 339.83 673.36 927.08 1649.09 660.72 1949.29 628.46 1814.60 834.83 1725.81 1000.11 1955.03 973.91
00000343 00000154 1468.87 338.19 672.53 923.84 1645.38 663.96 1942.12 630.83 1807.50 829.62 1729.16 1000.60 1945.25 973.79
00000344 00000155 1465.25 342.77 673.07 916.90 1643.96 669.16 1939.51 635.33 1805.89 830.34 1732.14 1003.49 1939.61 976.23
00000345 00000156 1468.11 333.41 666.75 921.87 1642.15 666.01 1939.53 629.48 1802.90 822.04 1718.91 1012.26 1938.34 982.52
00000346 00000157 1470.95 334.21 665.93 917.41 1645.00 661.71 1942.21 627.08 1804.60 817.06 1719.04 1008.76 1940.29 980.55
00000347 00000158 1469.27 340.04 670.06 912.53 1645.19 656.37 1940.00 622.20 1808.96 818.46 1734.86 996.31 1941.68 968.58
00000348 00000159 1471.44 342.87 673.30 892.54 1650.18 647.16 1945.89 614.02 1811.95 808.60 1735.61 985.55 1941.59 957.43
00000349 00000160 1480.31 346.84 667.61 879.59 1655.36 640.12 1949.45 602.61 1819.24 793.00 1742.38 975.67 1958.78 944.06
00000350 00000161 1490.84 336.22 663.28 885.21 1664.57 631.87 1959.19 591.93 1834.80 781.35 1748.38 968.31 1980.27 933.60
