Video ID: 	G2ZzBmMRH7I
H: 	1080
W: 	1920
FPS: 	23.976023976023978

FRAME INDEX X0 Y0 W H [Landmarks (5 Points)]

00003506 00000000 500.42 179.06 543.80 712.82 647.35 515.18 839.17 404.10 796.17 584.70 758.77 716.63 948.67 619.37
00003507 00000001 521.22 190.05 517.09 689.50 666.33 533.56 856.23 425.75 825.77 610.39 795.44 739.18 966.71 647.64
00003508 DELETE   546.02 193.16 514.00 690.23 691.53 541.63 869.84 437.07 840.01 616.33 824.92 744.44 981.26 657.31
00003509 00000003 556.04 195.02 531.17 693.38 710.56 539.90 892.54 439.45 858.46 614.86 835.75 738.00 996.12 653.11
00003510 00000004 578.40 189.65 521.36 683.84 737.31 526.88 922.82 422.92 898.20 596.70 860.09 730.72 1026.99 641.47
00003511 00000005 609.51 175.06 499.01 696.83 755.16 503.25 942.77 409.37 910.35 590.12 876.12 715.19 1040.45 635.98
00003512 00000006 624.94 167.43 500.24 690.66 771.62 486.94 961.72 403.30 924.97 576.54 884.77 702.36 1048.97 631.65
00003513 00000007 638.55 163.58 500.35 690.12 786.41 478.56 974.42 397.80 938.01 563.07 892.18 691.52 1059.36 623.09
00003514 00000008 643.20 152.09 510.24 701.41 797.01 470.12 982.76 390.75 945.63 546.84 901.75 687.43 1064.79 620.17
00003515 00000009 677.55 137.36 492.66 702.13 825.35 450.10 1008.32 381.11 967.87 525.20 924.86 665.58 1091.32 606.72
00003516 DELETE   698.78 130.93 490.22 693.70 845.54 437.56 1033.32 361.30 994.18 506.04 947.60 657.96 1113.24 594.23
00003517 00000011 709.52 122.40 503.51 679.71 864.15 423.74 1048.42 341.60 1012.49 470.33 972.51 637.68 1130.70 566.51
00003518 00000012 738.83 101.78 488.07 685.43 894.44 390.53 1070.06 318.90 1039.41 442.88 1004.89 611.06 1148.51 550.19
00003519 DELETE   748.26 77.68 486.63 697.15 912.89 372.63 1087.48 304.85 1063.59 400.95 1017.18 592.51 1166.83 534.22
00003520 DELETE   765.01 71.81 489.62 702.30 930.13 368.93 1099.24 289.32 1070.50 394.48 1032.78 585.90 1181.76 515.99
00003521 00000015 771.25 60.86 490.00 719.12 935.83 367.19 1114.79 296.29 1085.08 400.20 1037.89 590.22 1193.94 531.10
00003522 00000016 779.02 81.82 485.68 702.87 945.34 375.54 1127.91 313.72 1097.40 432.74 1040.70 602.29 1195.30 550.66
00003523 00000017 789.18 86.52 479.40 697.69 955.11 386.40 1135.99 324.55 1107.03 452.77 1045.03 609.28 1198.76 557.20
00003524 00000018 796.64 101.67 483.53 682.01 958.75 402.80 1142.67 335.37 1110.13 467.69 1051.85 621.90 1207.10 562.88
00003525 00000019 804.70 111.16 489.41 681.79 968.29 408.06 1152.08 345.67 1117.28 474.92 1059.32 625.77 1212.44 570.54
00003526 00000020 819.80 105.33 482.61 695.01 985.22 402.88 1160.26 346.26 1128.38 467.98 1065.97 622.92 1223.22 572.72
00003527 00000021 824.05 102.03 482.94 706.94 986.10 400.47 1163.60 345.92 1125.58 467.24 1063.70 625.67 1227.04 576.95
00003528 00000022 825.60 102.21 484.86 708.15 984.01 397.12 1164.22 344.11 1120.55 467.86 1059.30 624.29 1226.35 576.74
00003529 00000023 825.20 93.97 484.30 708.73 979.47 396.57 1162.10 343.78 1114.04 469.62 1055.42 621.92 1220.49 574.80
00003530 00000024 811.40 103.06 496.29 703.84 965.28 409.57 1158.24 348.81 1107.25 483.37 1052.34 633.77 1213.12 579.84
00003531 DELETE   800.92 109.47 491.10 705.49 954.36 418.36 1146.68 363.15 1094.65 506.17 1035.76 641.71 1197.91 593.47
00003532 00000026 788.47 121.82 494.46 693.71 936.65 422.12 1130.88 369.37 1076.73 517.21 1022.29 649.42 1183.85 603.97
00003533 00000027 780.58 112.68 484.84 693.68 926.07 418.65 1120.13 363.61 1065.95 512.10 1013.42 644.08 1175.90 597.71
00003534 00000028 776.45 104.33 484.43 693.14 922.75 413.81 1112.12 357.46 1059.45 492.16 1002.66 628.53 1172.58 580.49
00003535 00000029 771.68 97.62 480.39 699.59 916.61 407.49 1104.78 347.65 1052.29 479.22 995.46 624.09 1169.74 571.59
00003536 00000030 766.44 95.78 480.42 698.07 913.08 402.20 1098.45 342.05 1049.58 471.70 991.43 621.95 1161.74 569.32
00003537 00000031 763.14 97.87 481.05 695.75 908.92 405.45 1093.90 343.70 1044.51 472.12 989.48 623.74 1159.01 569.71
00003538 00000032 749.43 107.36 489.29 690.40 899.63 415.66 1087.57 350.48 1042.19 480.60 985.86 631.98 1154.49 575.33
00003539 00000033 734.36 118.04 496.60 686.56 882.79 424.51 1066.80 353.75 1024.66 489.01 979.62 639.21 1136.07 578.46
00003540 00000034 720.80 112.59 499.61 684.42 868.33 421.20 1047.71 341.97 1007.13 474.97 966.32 626.18 1131.88 558.45
00003541 00000035 726.46 101.65 498.51 678.88 873.74 409.42 1046.55 320.99 1010.50 451.64 976.79 614.88 1133.68 538.88
00003542 00000036 745.93 87.63 494.09 685.63 895.63 387.44 1078.02 320.36 1036.64 443.62 993.73 597.83 1156.01 540.41
00003543 00000037 771.11 91.00 479.33 670.88 909.66 382.32 1101.10 317.34 1054.82 440.68 1007.00 593.63 1174.33 539.26
00003544 00000038 785.19 84.23 481.99 669.19 931.79 382.44 1122.28 317.45 1078.50 444.87 1025.15 595.22 1189.05 540.37
00003545 00000039 802.73 94.26 476.84 663.64 957.26 384.39 1145.18 326.52 1103.86 456.21 1039.01 598.08 1199.37 548.86
00003546 00000040 809.07 89.21 487.92 679.83 969.54 391.31 1153.43 324.31 1113.23 444.26 1054.27 601.49 1212.45 542.22
00003547 00000041 822.26 77.70 483.34 693.89 977.60 378.34 1164.60 323.87 1119.89 442.88 1061.84 592.65 1225.80 546.08
00003548 00000042 823.40 76.82 485.82 695.49 979.22 375.31 1163.53 319.32 1121.91 438.05 1065.17 590.16 1229.23 542.04
00003549 00000043 830.25 76.64 480.08 699.53 983.03 372.54 1170.22 317.93 1126.07 434.42 1065.22 588.36 1234.21 541.87
00003550 00000044 837.27 76.42 479.98 703.53 993.94 375.30 1178.30 319.14 1132.20 438.44 1064.03 589.66 1238.98 538.52
00003551 00000045 840.10 77.78 479.38 705.23 998.99 380.48 1181.41 324.13 1140.95 442.39 1068.66 593.92 1245.16 543.21
00003552 00000046 839.79 76.44 478.04 704.72 996.53 384.54 1183.03 328.14 1139.08 444.40 1068.75 599.95 1245.27 549.89
00003553 00000047 836.86 83.27 477.20 692.09 989.96 379.20 1178.39 327.96 1133.30 451.23 1073.54 596.64 1238.71 553.45
00003554 00000048 825.65 76.46 481.05 696.66 981.19 378.23 1168.64 327.11 1122.10 447.22 1062.88 595.72 1225.30 551.92
00003555 00000049 818.88 81.09 478.37 693.39 975.95 378.20 1159.12 327.80 1114.95 443.77 1057.69 594.63 1214.43 551.24
00003556 DELETE   800.62 88.04 490.34 687.47 961.63 392.95 1143.85 327.71 1105.54 444.20 1050.38 607.26 1204.90 549.67
00003557 00000051 794.00 100.52 485.32 675.87 953.17 394.41 1131.94 330.53 1094.57 449.50 1042.01 608.06 1196.09 551.57
00003558 00000052 786.91 106.43 488.74 675.18 947.26 396.10 1126.53 335.23 1086.34 455.90 1033.67 609.85 1190.04 555.89
00003559 00000053 794.19 104.41 476.25 685.07 944.24 411.54 1123.78 347.98 1082.42 474.04 1031.11 621.17 1190.24 566.79
00003560 00000054 787.33 114.05 482.49 677.98 933.79 423.72 1116.63 353.42 1072.48 484.29 1025.03 626.99 1189.32 567.44
00003561 00000055 785.84 108.09 482.28 672.88 926.33 409.47 1114.29 340.19 1065.77 473.51 1015.57 621.59 1185.80 561.87
00003562 00000056 781.87 93.13 489.65 673.35 927.04 388.28 1118.98 321.40 1073.06 445.18 1023.76 601.34 1191.25 544.59
00003563 00000057 782.53 70.37 494.66 679.26 938.16 380.11 1115.61 296.38 1077.44 411.11 1039.49 583.23 1195.29 511.59
00003564 00000058 788.37 60.87 482.42 660.48 943.90 369.27 1122.92 288.58 1085.36 399.61 1040.61 571.80 1195.45 501.53
00003565 00000059 785.42 65.28 477.13 635.17 940.33 363.97 1120.41 292.31 1084.92 393.79 1034.28 555.56 1187.29 496.45
00003566 00000060 783.22 67.84 477.13 644.93 936.70 372.30 1114.06 289.49 1076.73 396.57 1036.76 569.22 1188.41 497.45
00003567 00000061 773.28 73.91 481.82 638.21 920.01 372.93 1104.96 294.11 1064.65 395.27 1023.41 569.18 1176.66 503.32
00003568 00000062 768.31 76.41 479.55 637.16 916.41 373.16 1096.96 300.44 1057.60 395.46 1016.26 568.57 1166.02 507.51
00003569 00000063 769.49 76.50 475.44 636.33 908.95 372.99 1097.14 298.64 1053.41 399.80 1004.99 567.98 1169.25 505.44
00003570 00000064 774.58 74.28 474.35 643.82 911.68 371.84 1101.67 298.06 1054.03 403.37 1004.90 569.05 1171.23 507.68
00003571 00000065 784.98 75.14 483.29 663.66 930.38 368.39 1111.75 293.81 1064.65 409.41 1027.35 577.29 1185.81 512.63
00003572 00000066 795.57 82.02 476.68 667.84 944.71 377.59 1129.39 314.73 1087.41 440.46 1034.68 590.65 1190.85 537.58
00003573 00000067 799.14 95.42 484.17 680.90 953.20 403.13 1134.70 338.90 1094.30 474.29 1040.42 617.34 1196.03 562.18
00003574 00000068 795.92 119.12 493.58 695.03 952.26 430.53 1144.70 367.17 1098.93 520.77 1039.29 651.34 1199.97 597.18
00003575 00000069 783.62 133.12 502.77 696.94 939.44 443.64 1132.88 381.92 1087.22 537.61 1028.41 666.09 1195.23 613.33
00003576 00000070 778.39 134.17 499.55 695.14 928.50 445.73 1122.20 384.85 1072.32 537.52 1018.00 665.02 1189.62 613.29
00003577 00000071 778.13 132.05 497.63 691.39 924.91 438.42 1118.23 379.71 1067.33 533.52 1014.80 659.47 1184.72 609.44
00003578 00000072 778.18 132.87 495.16 689.99 924.14 436.54 1119.60 375.98 1068.19 527.46 1014.08 657.98 1185.03 606.33
00003579 00000073 779.14 127.24 487.06 691.69 925.74 439.51 1119.29 378.36 1068.73 520.93 1013.22 654.96 1182.24 603.75
00003580 00000074 774.32 128.16 490.31 687.28 922.11 435.81 1115.98 374.39 1065.68 516.34 1011.00 651.68 1179.84 600.03
00003581 00000075 774.81 122.60 484.21 686.23 915.23 426.41 1112.30 369.04 1055.34 512.87 1000.52 644.53 1173.74 596.08
00003582 00000076 773.95 107.30 473.44 680.63 911.76 415.95 1102.97 356.98 1046.74 487.70 990.85 627.53 1162.92 577.89
00003583 00000077 772.68 94.23 476.67 680.14 910.53 396.25 1101.13 338.35 1046.12 471.45 1000.32 611.16 1163.24 562.58
00003584 00000078 774.37 90.16 486.95 672.74 917.62 381.40 1110.61 318.13 1062.21 442.42 1015.86 597.72 1179.68 544.83
00003585 DELETE   783.37 84.04 489.27 670.59 943.13 378.49 1120.57 302.42 1083.98 415.22 1042.36 587.48 1194.53 521.74
00003586 00000080 800.99 77.11 483.13 665.19 964.95 368.97 1148.06 313.73 1113.43 410.44 1051.75 576.55 1206.19 529.34
00003587 00000081 822.97 66.79 479.69 687.28 987.87 364.06 1170.45 314.63 1132.25 409.43 1066.65 575.78 1226.91 533.88
00003588 00000082 838.16 63.94 468.30 701.91 1000.69 369.10 1185.04 318.49 1147.31 427.36 1079.78 586.47 1240.75 544.54
00003589 00000083 848.00 72.01 471.07 696.06 1008.95 374.04 1197.72 318.36 1161.46 439.60 1092.20 594.79 1255.34 548.30
00003590 00000084 849.80 77.50 480.49 689.88 1013.60 376.64 1202.02 322.24 1166.75 446.10 1097.44 595.40 1260.60 549.31
00003591 00000085 857.61 85.43 475.28 689.05 1015.60 382.28 1199.84 326.84 1161.78 450.44 1097.34 598.54 1258.80 551.67
00003592 00000086 859.15 85.62 476.18 690.40 1014.20 371.29 1206.33 323.01 1158.32 451.29 1092.85 598.30 1257.27 557.26
00003593 00000087 859.27 73.83 475.77 690.62 1017.11 369.37 1209.32 320.43 1162.15 435.65 1095.04 590.03 1258.28 548.60
00003594 00000088 861.58 70.52 477.79 677.55 1019.88 363.02 1210.13 314.69 1163.87 420.47 1096.73 576.44 1258.85 535.46
00003595 00000089 859.71 69.02 474.27 661.46 1013.91 363.06 1206.50 312.41 1158.26 418.38 1091.05 569.78 1253.12 527.46
00003596 00000090 855.00 67.92 472.34 665.31 1004.30 366.98 1197.37 314.84 1145.72 423.86 1079.95 570.82 1246.64 527.53
00003597 00000091 841.79 71.92 474.93 662.23 985.92 367.22 1184.43 318.46 1124.42 430.71 1061.83 571.80 1233.79 531.23
00003598 00000092 827.50 72.06 484.80 660.36 973.62 370.72 1173.95 320.91 1114.48 432.07 1048.03 577.78 1215.20 534.08
00003599 00000093 820.56 74.94 483.49 650.26 970.34 363.34 1172.79 317.17 1113.55 421.31 1043.94 571.52 1211.08 531.15
00003600 00000094 828.96 69.19 475.39 657.37 981.24 358.40 1177.87 306.58 1127.35 404.29 1054.52 561.71 1228.30 516.88
00003601 00000095 843.85 59.94 466.27 658.33 998.35 352.51 1198.51 300.81 1151.00 402.99 1072.20 557.69 1246.35 513.86
00003602 00000096 852.90 66.74 470.37 665.86 1020.12 358.68 1205.84 301.63 1167.67 404.78 1093.33 561.71 1258.45 510.83
00003603 DELETE   851.25 82.87 471.49 662.66 1014.49 369.38 1196.51 308.63 1159.34 416.36 1094.70 573.55 1256.00 519.85
00003604 DELETE   828.08 81.75 475.68 680.22 983.55 371.00 1173.11 322.73 1124.76 438.33 1066.31 589.44 1223.90 548.41
00003605 00000099 789.07 97.18 476.19 667.12 926.84 382.75 1126.47 323.14 1070.97 449.61 1009.30 597.56 1185.65 547.19
00003606 00000100 751.19 106.89 483.33 653.57 879.62 391.36 1078.68 333.46 1010.53 460.13 957.26 602.84 1123.68 552.86
00003607 DELETE   719.42 107.90 478.74 652.87 839.66 393.79 1033.17 335.43 962.47 464.02 920.56 601.42 1088.58 552.97
00003608 00000102 690.55 104.00 490.30 667.78 819.21 403.40 1012.17 340.16 947.80 472.64 909.86 614.73 1073.06 561.84
00003609 00000103 656.02 120.37 499.16 656.94 798.18 431.17 986.08 348.05 936.42 473.95 896.88 628.44 1058.34 558.89
00003610 DELETE   633.86 135.12 500.40 664.86 775.49 444.53 964.22 357.75 918.66 489.00 882.77 650.31 1046.93 576.85
00003611 00000105 618.78 149.32 500.20 688.07 754.06 456.25 941.90 376.65 893.30 520.69 859.41 670.30 1030.24 603.15
00003612 00000106 613.48 154.57 488.40 680.57 746.02 456.70 932.16 384.25 885.16 539.24 847.54 668.98 1018.96 607.88
00003613 00000107 623.28 152.03 482.96 694.24 754.52 458.82 947.98 388.67 897.47 546.11 852.23 675.61 1029.56 617.08
00003614 00000108 639.40 150.40 486.00 691.94 780.74 461.07 970.52 391.31 927.89 548.52 875.56 677.27 1046.89 618.71
00003615 DELETE   659.78 158.23 495.12 679.89 816.29 469.35 1010.26 393.53 972.66 554.95 907.75 681.65 1075.51 617.72
00003616 DELETE   705.95 157.37 478.99 679.73 859.74 463.59 1046.21 392.69 1017.40 544.07 951.30 674.36 1119.21 615.09
00003617 00000111 727.16 155.77 487.54 678.10 898.61 470.09 1078.52 381.80 1064.71 536.94 992.42 674.78 1152.13 601.17
00003618 00000112 768.93 145.26 472.23 687.75 936.81 468.35 1113.46 380.38 1106.63 529.94 1026.43 671.38 1192.33 598.55
00003619 00000113 783.78 149.46 482.42 689.95 955.20 463.01 1133.45 382.24 1120.59 528.77 1050.38 672.69 1210.87 604.80
00003620 00000114 795.11 153.30 489.38 691.56 968.64 468.58 1143.87 381.67 1126.87 536.15 1057.07 673.77 1220.54 598.99
00003621 00000115 806.16 145.41 495.26 707.10 977.99 458.02 1166.29 382.79 1134.75 538.52 1051.61 673.96 1225.39 608.38
00003622 DELETE   823.26 123.01 484.91 715.67 985.20 430.00 1172.91 381.11 1129.53 524.78 1054.70 648.30 1233.15 606.20
00003623 00000117 838.61 113.77 479.05 704.58 997.57 407.82 1186.04 367.96 1136.61 493.69 1056.32 626.27 1235.18 591.02
00003624 00000118 851.61 96.08 475.25 701.31 1010.19 387.34 1199.59 349.80 1149.50 465.65 1066.57 599.77 1248.11 564.98
00003625 00000119 864.50 78.91 477.38 703.91 1027.01 370.91 1219.10 332.57 1166.81 443.13 1082.73 581.81 1261.95 545.46
00003626 00000120 869.03 80.80 481.41 694.84 1039.49 367.39 1226.35 327.74 1178.32 432.79 1095.24 576.57 1267.33 539.66
00003627 00000121 870.37 75.02 480.19 697.20 1042.07 366.80 1227.46 325.90 1181.27 428.38 1100.12 577.89 1269.28 540.25
00003628 00000122 867.62 66.61 473.00 698.91 1035.71 368.64 1224.91 327.55 1183.63 425.74 1099.15 580.72 1268.85 545.48
00003629 00000123 862.32 73.91 477.89 696.39 1031.12 373.44 1215.82 326.70 1171.28 428.31 1092.96 575.39 1265.86 533.16
00003630 00000124 860.39 79.81 475.50 690.11 1024.61 374.24 1207.84 325.63 1164.48 432.94 1091.13 579.65 1261.40 535.41
00003631 00000125 855.21 77.23 475.11 698.29 1017.35 376.11 1199.98 323.62 1159.45 439.55 1089.78 589.73 1257.02 541.95
00003632 DELETE   846.61 91.52 480.01 695.63 1009.05 384.85 1190.45 334.90 1149.56 449.57 1080.27 598.70 1250.71 553.51
00003633 DELETE   843.72 90.67 470.66 706.64 996.96 394.76 1180.81 349.36 1134.53 470.84 1064.18 611.85 1237.65 570.53
00003634 DELETE   832.57 99.48 473.97 706.97 983.74 403.51 1173.46 359.91 1118.43 485.37 1045.96 617.25 1226.19 577.73
00003635 00000129 809.56 116.84 493.47 697.93 965.83 417.99 1159.93 367.05 1105.70 503.66 1036.26 632.87 1211.09 586.99
00003636 00000130 797.54 127.32 489.75 687.28 948.62 421.71 1141.25 370.02 1089.26 507.15 1019.69 631.74 1197.69 585.85
00003637 00000131 788.90 125.73 484.34 688.10 936.27 425.47 1125.67 369.83 1076.63 508.92 1015.28 635.87 1190.14 587.18
00003638 00000132 777.82 125.00 485.25 689.40 920.29 424.70 1116.96 370.51 1061.02 513.30 1000.74 640.39 1180.18 593.72
00003639 00000133 767.98 118.82 481.22 694.09 907.66 423.58 1101.25 369.97 1045.25 509.81 982.45 634.97 1166.21 589.47
00003640 00000134 760.69 120.10 480.41 693.85 901.42 427.33 1093.45 371.65 1039.17 512.57 978.53 636.85 1160.71 589.57
00003641 00000135 748.42 121.13 489.72 695.00 897.82 432.14 1089.03 373.22 1040.59 514.60 980.34 642.69 1160.67 592.19
00003642 00000136 750.57 124.45 487.35 695.34 899.69 432.94 1088.04 373.10 1042.86 515.06 984.84 644.12 1161.73 592.83
00003643 00000137 752.60 123.60 485.26 692.16 901.10 433.08 1089.65 372.60 1045.24 514.47 987.03 643.34 1163.15 591.68
00003644 00000138 756.76 120.49 484.75 694.10 903.68 431.48 1091.13 369.78 1047.45 513.22 989.32 641.58 1166.59 588.83
00003645 00000139 761.28 117.16 485.53 695.15 908.80 432.02 1096.26 369.16 1053.93 512.55 995.26 639.75 1173.51 586.22
00003646 00000140 770.11 120.48 482.68 688.79 913.85 429.90 1105.05 370.30 1058.31 512.59 996.13 635.73 1177.87 584.99
00003647 00000141 774.49 123.26 482.42 683.81 919.25 427.52 1112.33 369.64 1063.62 507.89 999.73 633.38 1181.24 583.77
00003648 00000142 780.80 123.74 480.06 680.25 926.54 429.55 1116.45 368.96 1070.63 505.44 1007.40 631.46 1185.51 579.96
00003649 00000143 786.57 124.29 480.42 683.91 933.39 428.15 1121.35 365.73 1077.93 502.32 1015.13 631.67 1192.72 577.99
00003650 00000144 788.29 122.41 485.26 690.87 940.56 426.74 1126.88 365.11 1086.98 499.08 1022.46 633.17 1196.95 579.96
00003651 00000145 790.58 124.16 488.10 693.13 944.21 424.29 1130.90 365.04 1090.75 498.16 1022.94 631.73 1200.05 579.82
00003652 00000146 793.15 123.71 489.08 690.79 947.36 421.81 1134.50 364.06 1092.95 496.09 1024.95 627.38 1201.84 576.59
00003653 00000147 794.73 124.14 487.85 685.49 948.26 422.41 1134.80 363.21 1093.74 496.58 1026.54 626.47 1201.94 574.43
00003654 00000148 795.37 125.80 487.21 681.62 948.05 423.23 1135.30 364.01 1093.49 497.66 1024.64 624.40 1202.45 572.39
00003655 00000149 794.45 124.15 487.13 680.92 945.85 424.48 1133.53 364.41 1091.18 498.32 1021.44 622.46 1201.89 570.03
00003656 00000150 794.20 122.12 484.37 678.44 944.41 424.40 1132.32 363.61 1089.47 498.90 1020.13 620.60 1200.64 567.52
00003657 00000151 792.01 123.37 485.01 677.45 942.73 425.50 1129.83 363.34 1088.19 497.71 1019.47 620.30 1200.39 566.31
00003658 00000152 788.56 121.05 486.51 679.65 940.80 427.18 1128.06 364.13 1087.50 497.88 1019.93 623.13 1198.12 568.63
00003659 00000153 788.96 121.48 484.46 679.73 939.94 427.76 1126.84 364.82 1085.76 499.28 1018.19 624.99 1195.81 570.75
00003660 00000154 790.07 121.31 480.53 680.03 939.13 427.38 1125.11 363.61 1084.28 499.20 1017.56 625.01 1195.10 570.36
00003661 00000155 787.64 120.46 482.09 682.13 937.87 428.97 1124.60 363.91 1082.93 500.18 1017.21 626.97 1193.61 571.17
00003662 00000156 787.54 125.01 483.58 683.92 939.49 430.65 1126.17 367.84 1083.83 503.45 1017.58 631.33 1192.56 577.47
00003663 00000157 786.35 128.59 485.01 685.25 938.87 430.68 1129.29 371.10 1085.48 509.66 1018.27 637.57 1193.51 585.76
00003664 00000158 782.99 133.72 488.59 683.24 934.27 440.19 1126.05 378.33 1082.61 524.46 1015.17 644.56 1194.51 591.79
00003665 00000159 779.10 137.36 493.36 689.73 928.31 449.34 1123.21 385.14 1078.13 538.79 1011.36 654.11 1197.44 599.67
00003666 00000160 773.84 136.83 493.39 691.54 919.06 446.29 1116.44 382.22 1068.24 537.51 1006.26 658.59 1190.22 603.98
00003667 00000161 771.40 128.26 490.64 695.23 915.04 443.11 1109.32 378.33 1062.52 529.98 1002.23 652.30 1186.49 597.32
00003668 00000162 772.17 128.13 488.18 688.63 911.51 440.71 1106.11 373.99 1058.61 522.94 1000.76 648.55 1185.46 591.97
00003669 00000163 775.18 128.42 482.70 685.04 912.39 439.07 1105.45 371.92 1058.92 521.09 1002.44 647.51 1185.60 590.50
00003670 00000164 775.81 128.51 483.00 684.97 913.91 439.16 1107.27 373.27 1060.24 521.17 1003.23 647.50 1185.61 591.58
00003671 00000165 773.92 129.23 488.79 689.18 915.03 439.14 1108.69 373.90 1061.32 522.15 1004.28 649.09 1185.94 593.73
