Video ID: 	e4zqWh94VQE
H: 	1080
W: 	1920
FPS: 	25.0

FRAME INDEX X0 Y0 W H [Landmarks (5 Points)]

00008200 00000000 532.78 360.77 495.72 604.80 743.80 559.65 967.09 534.45 921.60 709.25 783.60 806.05 960.59 785.08
00008201 00000001 529.25 365.55 493.72 604.03 742.26 558.55 961.80 536.78 918.49 707.64 783.56 809.96 954.08 791.48
00008202 00000002 535.43 362.39 486.48 609.23 734.32 559.60 955.66 530.72 916.16 710.66 771.50 812.01 952.66 786.44
00008203 00000003 540.54 346.57 488.21 616.68 741.82 560.50 964.66 532.61 922.72 711.59 788.62 813.95 956.43 793.45
00008204 00000004 539.53 365.89 495.45 598.02 761.12 553.96 979.88 541.52 933.70 707.79 789.76 802.66 962.91 792.38
00008205 00000005 551.26 374.91 495.24 589.17 779.05 551.07 985.24 544.63 944.55 712.01 797.82 802.04 961.18 796.67
00008206 DELETE   567.57 376.15 496.37 587.83 794.67 551.34 998.93 543.25 960.06 710.11 809.93 800.31 973.56 794.04
00008207 00000007 586.08 370.92 490.74 591.73 811.78 545.15 1015.25 539.51 973.87 700.35 824.38 796.77 985.80 792.35
00008208 DELETE   597.73 381.29 502.02 574.33 836.32 538.08 1035.03 543.92 991.80 692.50 848.51 790.55 997.47 794.28
00008209 DELETE   609.85 386.76 501.09 568.68 849.55 534.60 1048.01 546.90 1005.33 693.89 863.69 790.76 1010.77 799.79
00008210 00000010 615.23 375.01 504.07 580.39 858.36 526.13 1059.07 541.62 1017.28 692.37 874.58 792.88 1017.21 803.99
00008211 DELETE   622.23 362.81 499.42 592.78 868.57 521.70 1066.96 541.43 1023.61 692.23 882.27 793.12 1018.54 807.97
00008212 00000012 623.97 355.82 498.57 596.56 868.16 518.08 1070.53 538.80 1023.46 689.68 883.52 792.02 1020.80 807.63
00008213 00000013 625.82 348.64 495.62 600.19 870.07 514.58 1072.28 536.57 1024.94 685.67 882.58 787.61 1021.58 804.75
00008214 00000014 622.51 349.82 498.80 596.37 868.31 513.53 1073.36 534.51 1024.51 682.61 878.33 783.88 1021.71 800.33
00008215 00000015 619.56 353.08 500.92 591.64 865.80 511.61 1073.11 534.38 1022.38 680.05 872.57 780.37 1020.04 798.15
00008216 00000016 617.08 352.25 504.04 591.72 862.48 513.25 1071.28 531.57 1018.97 677.52 866.40 775.55 1019.07 789.97
00008217 00000017 614.58 352.74 507.63 593.73 864.04 511.62 1065.10 529.49 1015.85 673.28 863.48 769.67 1015.39 783.72
00008218 00000018 614.99 353.91 502.86 593.92 861.85 508.85 1060.73 528.82 1011.31 673.52 853.62 766.55 1006.66 782.57
00008219 00000019 607.71 336.17 503.04 606.52 848.58 508.92 1042.93 524.75 1002.98 669.16 844.65 757.41 1001.39 772.98
00008220 00000020 602.18 326.55 499.81 612.90 845.72 514.00 1036.53 522.77 1000.07 667.74 835.43 754.00 994.71 764.38
00008221 00000021 595.31 327.81 497.60 612.30 836.51 513.58 1028.97 521.09 993.95 666.39 828.01 754.00 990.06 763.13
00008222 00000022 601.19 338.05 484.41 605.70 820.42 515.76 1022.78 519.89 977.12 666.82 815.32 753.55 992.89 757.00
00008223 00000023 595.32 338.85 484.27 603.66 814.23 515.85 1017.07 517.57 971.88 667.84 810.84 754.13 988.67 756.02
00008224 00000024 587.84 338.64 486.94 608.07 810.29 518.19 1011.60 518.72 968.27 667.44 806.27 754.77 985.12 755.93
00008225 00000025 583.08 326.73 485.99 621.91 802.23 520.04 1005.76 518.75 959.18 671.46 802.39 757.41 982.61 756.76
00008226 00000026 574.59 334.84 489.32 610.59 793.41 521.99 998.80 519.38 950.39 672.07 796.10 757.46 976.68 755.72
00008227 00000027 570.63 348.77 483.29 593.25 784.84 524.13 991.56 520.33 944.18 672.96 792.91 759.10 974.26 755.91
00008228 00000028 564.50 352.49 483.70 585.84 780.33 528.12 986.82 520.84 942.79 672.44 795.23 761.31 974.41 754.99
00008229 00000029 562.28 350.06 484.94 585.90 776.61 531.06 985.08 514.60 945.14 671.08 798.30 763.43 979.74 749.82
00008230 00000030 560.59 344.87 489.86 584.76 784.53 533.40 989.99 499.37 966.81 663.38 812.52 762.08 995.00 734.97
00008231 00000031 575.19 344.28 489.11 578.98 801.80 532.79 996.01 477.91 995.72 645.48 836.96 759.11 1014.19 715.52
00008232 00000032 586.54 346.45 491.48 566.74 815.17 529.25 999.01 467.82 1014.68 631.90 860.47 752.70 1028.33 703.19
00008233 00000033 585.43 344.00 491.33 570.64 814.12 528.89 995.83 463.92 1014.43 628.92 860.34 752.23 1028.13 699.85
00008234 00000034 579.45 343.53 489.27 574.52 805.99 529.68 988.79 465.20 1006.27 627.42 851.90 752.65 1022.81 700.98
00008235 00000035 571.88 330.06 490.62 586.99 799.09 532.45 983.11 463.13 998.36 630.86 844.57 757.07 1015.05 700.91
00008236 00000036 563.97 335.09 489.25 584.46 796.34 538.93 975.38 470.71 992.74 636.37 840.91 761.52 1004.48 706.41
00008237 00000037 559.46 348.47 489.93 576.33 788.09 544.75 970.59 480.21 982.18 642.52 831.97 765.97 998.24 713.67
00008238 00000038 554.92 342.35 489.84 585.26 787.75 545.45 973.07 486.28 978.68 648.81 824.99 767.92 991.11 720.25
00008239 00000039 552.77 349.70 491.02 578.28 780.31 544.80 969.20 486.70 968.88 653.35 817.37 767.92 986.79 721.13
00008240 DELETE   550.79 357.49 488.85 567.53 775.88 541.56 965.02 490.14 959.92 656.14 814.11 765.69 981.78 724.20
00008241 00000041 543.24 334.17 498.19 591.80 765.63 546.18 965.96 490.39 967.77 660.77 805.78 762.87 979.90 721.87
00008242 00000042 543.77 331.52 496.77 594.47 763.29 544.18 967.29 494.22 961.88 663.55 800.43 759.86 979.02 723.50
00008243 00000043 541.89 326.81 500.26 599.32 761.78 541.26 971.56 497.30 957.43 663.43 796.11 759.23 977.97 727.38
00008244 00000044 545.12 322.26 497.77 605.99 761.31 538.10 973.19 499.32 952.74 662.35 793.00 757.33 978.74 729.12
00008245 00000045 547.43 315.57 495.41 615.38 764.25 535.12 976.12 500.24 953.58 663.53 792.20 757.93 978.88 732.50
00008246 00000046 550.70 311.58 493.37 620.85 766.46 532.31 977.82 502.57 950.39 663.50 792.65 757.67 978.97 736.01
00008247 00000047 551.38 313.03 494.82 621.29 764.89 533.29 977.94 503.16 948.61 663.24 790.47 757.85 979.35 735.90
00008248 00000048 560.73 333.75 484.56 603.48 775.44 527.13 977.87 509.69 938.89 665.37 794.67 758.95 973.28 744.48
00008249 00000049 561.25 331.31 483.33 604.85 774.38 527.44 979.53 512.96 936.91 667.83 791.64 758.77 971.63 746.79
00008250 00000050 552.63 312.11 494.38 622.73 763.40 532.78 979.06 509.66 940.10 668.38 786.64 760.27 974.67 743.74
00008251 00000051 551.79 309.86 494.07 623.70 764.70 532.61 980.06 509.78 941.45 666.81 793.09 763.28 974.90 746.52
00008252 00000052 552.06 301.43 492.27 629.07 770.42 529.14 983.68 505.74 947.68 663.77 805.97 768.14 977.72 749.81
00008253 00000053 554.74 310.17 490.32 612.84 776.68 527.94 993.43 502.38 960.19 659.47 813.57 768.88 984.86 749.03
00008254 DELETE   568.16 328.84 478.33 591.23 794.33 523.39 992.57 501.47 965.98 654.82 827.37 765.46 985.45 746.82
00008255 00000055 576.83 332.16 473.01 589.75 805.60 518.75 997.52 494.56 978.93 647.14 839.18 762.08 991.86 741.70
00008256 00000056 586.46 327.00 465.98 593.16 819.08 513.03 1004.38 493.49 992.82 640.75 849.40 757.22 996.72 740.53
00008257 DELETE   595.58 316.33 466.16 609.66 829.05 505.11 1011.98 485.67 1002.43 633.54 854.51 753.05 1005.53 735.87
00008258 DELETE   603.13 319.67 463.48 607.80 841.01 500.58 1015.93 485.43 1011.27 628.25 860.76 748.33 1007.95 735.05
00008259 DELETE   613.77 328.20 463.05 588.95 855.09 495.45 1023.65 491.74 1019.24 627.04 873.69 741.74 1010.98 738.02
00008260 00000060 607.61 311.34 479.11 593.93 872.81 494.21 1043.50 498.75 1044.52 626.35 888.65 730.77 1022.38 735.43
00008261 00000061 616.12 322.64 484.66 580.03 882.93 495.38 1050.24 499.40 1054.59 626.15 898.76 729.35 1030.50 733.58
00008262 00000062 628.18 322.70 481.79 579.24 892.94 489.75 1064.74 497.02 1062.59 624.79 906.65 727.40 1043.16 734.26
00008263 00000063 637.94 318.89 483.38 592.14 902.66 483.39 1070.11 492.40 1065.95 624.93 909.82 729.61 1043.90 737.77
00008264 00000064 647.95 323.58 484.79 607.57 919.31 474.04 1077.26 490.49 1071.84 625.13 905.76 729.83 1034.86 745.75
00008265 00000065 658.12 320.25 486.55 609.70 927.16 469.78 1084.86 490.44 1076.36 628.98 901.13 722.01 1036.32 742.28
00008266 00000066 658.18 322.05 488.53 591.10 930.91 475.35 1089.86 492.98 1085.29 629.59 911.96 723.30 1044.82 739.22
00008267 00000067 663.82 318.06 490.95 599.53 932.78 471.26 1093.35 488.58 1080.78 631.88 910.95 721.00 1043.84 737.68
00008268 00000068 657.84 316.85 491.82 586.35 933.12 475.07 1095.63 494.46 1084.15 626.84 922.05 718.35 1051.74 734.83
00008269 00000069 666.37 321.73 486.84 591.37 933.59 469.74 1093.20 489.20 1081.71 629.86 920.36 722.73 1046.78 740.41
00008270 00000070 664.95 322.25 484.44 591.53 930.65 472.08 1091.39 488.28 1080.33 631.21 920.99 727.37 1046.67 742.32
00008271 00000071 663.40 325.42 481.61 590.91 928.41 473.93 1089.24 492.52 1077.38 630.74 921.98 731.92 1045.99 748.55
00008272 00000072 659.53 327.80 480.97 591.04 925.37 475.54 1086.28 492.49 1075.05 631.78 922.00 735.66 1043.99 751.01
00008273 00000073 657.38 330.21 480.16 589.82 922.20 475.44 1084.94 491.34 1073.61 632.04 920.21 737.33 1043.74 751.81
00008274 00000074 656.43 332.08 480.05 587.34 919.58 476.14 1082.76 489.54 1071.55 632.06 919.72 737.88 1043.71 750.25
00008275 00000075 654.47 330.17 481.37 588.62 918.00 476.49 1081.11 488.32 1070.36 631.69 919.65 738.33 1043.18 749.41
00008276 00000076 651.29 334.18 481.95 585.20 915.41 476.76 1078.95 488.70 1069.33 631.16 918.00 738.32 1042.71 749.38
00008277 00000077 650.12 327.07 482.37 593.17 914.17 476.52 1079.48 488.01 1068.68 631.18 915.52 738.66 1042.25 749.53
00008278 00000078 649.37 329.65 482.74 590.25 912.81 476.58 1078.54 489.02 1066.40 631.45 914.27 738.65 1041.42 750.11
00008279 00000079 645.62 328.92 487.43 595.13 914.37 476.75 1076.16 491.45 1066.75 630.83 912.07 736.65 1037.61 750.07
00008280 00000080 644.78 335.10 486.50 592.42 912.07 476.18 1077.20 493.18 1064.61 631.52 905.03 734.26 1036.40 750.04
00008281 00000081 642.29 333.51 490.63 596.94 911.55 474.11 1077.09 491.59 1064.03 632.16 898.75 731.66 1033.77 748.31
00008282 00000082 640.53 335.99 490.97 597.21 909.69 477.03 1074.65 491.66 1062.49 633.48 895.92 732.32 1032.97 746.94
00008283 00000083 637.75 340.13 492.78 595.54 908.91 477.78 1073.45 491.13 1063.18 636.03 892.94 732.85 1031.68 746.78
00008284 00000084 634.88 337.57 493.24 598.72 908.16 481.27 1072.60 494.93 1062.22 638.14 891.91 735.10 1029.75 749.11
00008285 00000085 632.41 334.59 492.20 603.02 907.22 486.18 1070.46 501.63 1059.98 642.20 890.36 737.95 1026.19 753.27
00008286 00000086 631.41 346.49 491.99 593.64 904.49 492.38 1071.02 505.70 1056.22 650.08 890.75 744.65 1026.71 757.81
00008287 00000087 624.84 358.43 496.61 579.14 901.00 498.28 1069.86 510.15 1058.56 656.12 900.68 755.07 1028.68 765.68
00008288 00000088 623.39 360.53 498.44 578.41 900.06 504.67 1074.49 515.12 1060.53 662.85 909.83 768.61 1035.40 776.86
00008289 00000089 635.70 367.60 488.34 567.53 905.90 505.37 1078.70 518.34 1064.55 664.48 918.11 772.57 1040.18 783.12
00008290 00000090 651.34 368.16 475.97 564.91 921.93 507.81 1078.77 517.59 1077.96 658.30 934.75 769.16 1046.56 777.53
00008291 00000091 661.97 360.43 472.36 570.56 938.51 503.34 1082.55 512.49 1096.44 654.34 949.54 765.47 1049.66 773.88
00008292 00000092 666.03 359.62 474.42 573.15 941.66 498.61 1089.65 513.30 1096.83 652.16 948.45 762.07 1052.49 774.97
00008293 00000093 660.23 365.59 485.36 571.84 933.54 497.32 1094.72 517.06 1086.24 659.33 929.84 759.51 1047.92 776.95
00008294 00000094 657.63 369.18 495.12 572.30 926.17 496.08 1095.66 518.33 1076.30 661.46 909.44 755.11 1041.94 775.20
00008295 00000095 657.34 356.50 505.48 589.32 935.77 496.86 1101.67 517.89 1088.68 666.60 906.58 752.92 1040.31 773.28
00008296 00000096 667.46 354.57 505.84 590.87 951.29 502.39 1110.58 521.71 1100.80 677.11 917.61 755.38 1045.23 774.82
00008297 00000097 683.99 378.93 503.98 570.14 970.67 515.21 1132.91 536.50 1110.43 693.29 930.06 767.39 1058.35 785.93
00008298 00000098 684.73 395.43 502.83 565.24 973.23 530.57 1130.75 545.98 1117.93 713.73 928.83 783.12 1054.88 797.57
00008299 00000099 688.66 405.50 491.89 572.70 979.03 533.61 1140.36 561.19 1124.05 729.80 930.11 796.43 1054.34 825.93
00008300 00000100 682.32 413.17 493.61 565.41 969.48 537.61 1138.74 560.04 1120.74 731.97 928.42 803.47 1056.54 828.44
00008301 00000101 681.26 416.05 488.42 559.55 963.42 534.88 1132.54 558.49 1115.61 726.46 930.51 799.22 1060.29 824.69
00008302 00000102 675.90 405.40 489.04 560.96 955.38 531.39 1128.64 552.39 1111.69 716.96 928.04 793.66 1060.68 817.13
00008303 00000103 686.36 396.92 481.73 563.13 944.09 531.42 1111.53 543.92 1094.21 703.79 924.75 784.45 1061.16 796.95
00008304 00000104 676.30 388.08 502.09 566.09 954.76 521.11 1126.04 535.98 1104.98 696.53 926.93 775.35 1062.03 787.97
00008305 00000105 681.28 376.68 501.33 569.45 964.35 507.93 1127.10 525.68 1112.00 677.60 936.78 765.16 1063.85 780.46
00008306 00000106 683.02 352.70 491.80 577.81 960.11 500.13 1117.94 514.12 1121.73 654.11 957.27 749.23 1078.04 762.80
00008307 00000107 687.35 342.64 490.36 573.01 960.14 493.20 1121.41 507.51 1121.31 644.09 966.80 738.83 1088.61 751.88
00008308 00000108 691.10 329.66 486.13 581.11 966.05 487.39 1124.12 502.26 1125.73 637.62 978.49 738.41 1092.33 751.18
00008309 00000109 693.91 325.25 487.66 581.75 966.39 481.29 1130.45 497.50 1124.83 634.35 977.49 735.78 1096.53 749.20
00008310 00000110 691.74 326.04 490.12 579.81 966.33 479.62 1127.88 497.26 1125.82 629.31 979.53 732.81 1097.04 747.05
00008311 00000111 684.63 322.05 490.72 588.29 964.25 476.66 1118.56 493.97 1122.31 625.95 976.04 730.50 1088.67 744.32
00008312 00000112 679.12 310.81 490.57 603.74 961.14 470.71 1116.22 490.54 1117.08 625.12 965.11 731.03 1079.69 747.18
00008313 00000113 673.96 312.72 490.04 598.22 952.87 468.74 1112.32 490.58 1108.08 626.09 951.77 726.09 1071.88 743.92
00008314 00000114 665.33 323.02 493.04 586.58 940.24 472.96 1103.10 488.55 1099.54 626.71 940.12 724.16 1065.35 737.59
00008315 00000115 663.73 333.44 492.44 583.62 928.34 471.47 1093.39 481.24 1086.08 625.07 925.93 726.53 1058.31 735.69
00008316 00000116 654.30 329.04 487.62 585.20 909.75 472.04 1081.58 473.93 1072.22 621.42 915.83 728.24 1054.02 730.91
00008317 00000117 647.25 331.96 477.43 580.78 900.11 480.59 1072.04 479.75 1064.51 626.34 906.36 729.31 1046.41 730.31
00008318 DELETE   627.94 331.20 485.23 570.63 884.73 491.93 1068.31 490.99 1063.14 628.60 900.38 724.89 1050.71 726.16
00008319 00000119 615.05 326.58 493.79 577.22 876.54 493.28 1057.20 486.85 1057.27 629.52 895.29 728.21 1039.44 725.26
00008320 00000120 606.99 319.21 492.69 588.81 868.72 496.70 1048.71 491.16 1048.38 630.76 882.68 730.64 1028.41 728.55
00008321 00000121 601.42 320.61 488.41 589.78 856.58 501.98 1040.46 493.43 1037.59 631.95 875.72 734.36 1023.77 730.14
00008322 00000122 608.61 326.54 472.67 596.52 844.62 502.46 1024.47 484.77 1019.74 630.79 863.77 744.85 1017.35 729.48
00008323 00000123 603.71 324.63 471.98 599.39 835.52 503.77 1018.06 480.49 1012.78 630.88 853.95 745.91 1012.57 726.44
00008324 00000124 596.85 331.01 473.59 592.99 827.62 503.48 1014.56 482.08 1004.04 632.19 846.40 746.30 1007.32 728.59
00008325 00000125 593.04 329.76 471.49 594.39 826.00 505.42 1011.58 484.42 1002.59 633.11 844.70 746.90 1004.73 729.89
00008326 00000126 591.23 331.83 471.19 592.22 823.11 509.62 1010.48 489.02 1000.67 635.00 841.90 748.09 1003.89 731.36
00008327 00000127 590.09 332.71 472.49 590.67 823.01 512.07 1012.28 492.79 999.83 638.21 839.40 747.96 1003.28 732.76
00008328 00000128 590.27 329.69 473.74 594.62 822.66 511.56 1013.40 493.20 998.54 641.44 838.35 749.59 1001.74 734.96
00008329 00000129 591.28 332.77 473.24 590.37 824.00 512.23 1013.01 496.05 996.78 644.53 838.60 750.15 999.08 737.36
00008330 00000130 588.02 335.58 478.50 594.15 821.99 513.01 1012.36 499.38 993.57 648.05 833.20 751.51 995.43 741.08
00008331 00000131 587.99 332.41 482.32 605.72 820.74 512.20 1012.55 504.87 985.10 651.89 823.89 751.99 988.73 746.81
00008332 00000132 587.58 329.94 486.47 610.83 818.73 513.21 1012.84 515.63 977.13 656.75 812.48 749.40 983.07 752.32
00008333 DELETE   583.26 343.12 488.72 596.47 812.51 509.12 1008.18 522.32 962.45 662.90 800.58 745.97 972.61 758.11
00008334 00000134 581.31 342.08 493.67 596.68 802.34 507.13 1004.42 527.96 946.03 667.03 785.22 741.52 963.89 760.19
00008335 00000135 581.58 340.85 500.25 600.04 797.34 506.99 1000.83 537.01 929.26 670.41 769.65 738.54 951.75 764.91
00008336 00000136 585.75 335.56 508.93 606.84 797.29 505.80 1005.69 543.00 922.43 674.13 770.56 744.02 945.87 775.71
00008337 00000137 594.48 330.78 506.01 614.99 804.47 506.43 1015.69 547.94 927.66 677.54 782.86 754.81 947.38 789.57
00008338 00000138 597.39 330.16 518.59 618.77 814.61 512.41 1030.49 557.47 935.27 677.79 790.13 756.25 953.62 794.42
00008339 00000139 604.96 331.49 519.20 613.84 826.78 511.23 1040.50 553.83 949.80 676.10 803.44 755.45 967.55 791.67
00008340 00000140 611.28 337.31 513.87 603.99 835.02 509.12 1043.42 548.25 961.99 672.07 810.89 750.44 978.00 784.26
00008341 00000141 611.43 334.88 514.33 605.35 840.25 508.43 1043.79 543.79 966.82 671.65 813.54 748.27 977.50 779.18
00008342 00000142 611.73 339.17 514.49 601.45 840.91 508.03 1045.51 543.24 969.69 672.87 817.08 750.97 978.77 781.60
00008343 00000143 610.76 335.66 514.67 603.43 840.91 506.84 1046.68 539.94 974.56 670.85 825.54 752.72 985.46 781.34
00008344 00000144 609.78 328.64 515.90 609.32 841.15 504.08 1047.76 534.70 977.40 666.14 830.30 753.44 988.30 779.53
00008345 00000145 610.35 322.50 512.40 613.84 843.24 502.98 1048.01 533.02 981.26 662.40 834.86 753.94 989.97 779.32
00008346 00000146 612.59 325.99 510.16 610.58 844.75 502.25 1049.11 532.06 982.76 662.46 839.13 756.65 990.91 781.67
00008347 00000147 612.98 322.47 508.95 614.87 844.11 503.60 1050.22 531.95 985.23 663.30 841.93 761.04 994.14 784.80
00008348 00000148 611.20 324.98 507.59 611.71 842.51 504.45 1049.81 532.95 986.84 664.56 842.65 761.52 996.57 785.45
00008349 00000149 609.29 325.71 507.99 613.34 840.69 503.61 1047.80 530.71 987.18 664.04 842.42 762.51 996.81 785.35
00008350 00000150 609.85 324.10 506.27 618.48 844.07 502.16 1044.47 531.20 983.87 663.25 839.51 762.41 988.80 786.93
00008351 00000151 604.81 322.43 506.76 623.92 842.91 502.02 1040.68 529.84 983.72 663.05 829.78 759.90 982.81 783.99
00008352 00000152 597.28 328.83 506.14 617.60 837.30 503.32 1032.85 527.47 982.45 664.32 820.28 755.67 978.74 777.56
00008353 00000153 590.96 336.94 505.32 605.05 830.68 505.49 1027.80 528.35 978.59 666.26 816.35 752.71 976.27 773.44
00008354 00000154 595.91 341.46 495.23 600.98 822.13 507.44 1025.94 524.21 973.21 666.81 820.92 759.94 982.15 773.40
00008355 00000155 594.67 337.98 489.50 600.57 815.67 512.64 1026.08 523.32 973.20 668.78 820.98 766.82 987.12 775.05
00008356 00000156 590.88 336.23 488.52 600.73 811.15 512.67 1022.08 519.83 969.29 668.09 819.69 768.08 984.69 773.25
00008357 00000157 583.83 335.79 492.07 603.38 809.88 509.79 1017.77 520.55 964.47 664.86 816.80 768.16 976.46 776.91
00008358 00000158 579.17 334.60 490.72 605.20 808.33 508.56 1011.92 519.50 962.03 662.43 814.93 761.84 973.41 771.00
00008359 00000159 576.86 344.06 489.69 594.28 805.73 507.30 1006.94 518.85 958.27 661.30 814.02 760.77 969.06 770.19
00008360 00000160 574.59 336.06 489.89 602.37 800.89 507.53 1004.28 517.27 954.54 661.33 811.34 760.67 968.78 768.33
00008361 00000161 574.12 336.71 486.94 594.13 797.40 506.72 1005.65 518.63 953.00 660.19 813.30 762.40 969.45 771.52
00008362 00000162 573.79 332.65 485.78 592.91 796.26 505.68 1004.95 515.02 953.13 660.64 813.70 761.37 968.71 768.62
00008363 00000163 571.73 333.38 486.95 596.66 796.04 502.96 1003.53 513.18 952.47 658.46 811.36 759.26 966.88 767.49
00008364 00000164 572.11 331.71 491.29 605.72 805.15 494.67 1001.63 508.26 956.61 650.32 813.15 751.71 965.56 762.77
00008365 00000165 573.64 317.54 499.79 624.25 810.81 481.29 1005.90 493.14 963.95 639.10 809.47 738.79 970.52 749.13
00008366 00000166 572.03 293.95 499.18 637.59 804.05 471.97 1006.80 480.93 968.51 625.68 809.19 727.02 987.79 734.20
00008367 00000167 573.39 289.57 496.50 632.94 803.83 467.04 1008.01 474.38 968.35 618.38 808.44 720.28 989.55 726.07
