Video ID: 	746yPBlslVk
H: 	1080
W: 	1920
FPS: 	23.976023976023978

FRAME INDEX X0 Y0 W H [Landmarks (5 Points)]

00001090 00000000 844.28 114.40 357.19 593.30 989.12 355.02 1145.28 364.85 1099.94 473.64 1007.97 567.62 1126.71 575.93
00001091 00000001 846.39 111.94 356.10 593.80 990.32 352.59 1145.73 363.85 1100.90 469.33 1009.46 568.65 1124.27 578.45
00001092 00000002 849.33 112.68 354.09 595.95 994.22 350.84 1147.83 361.76 1104.01 467.12 1011.86 569.66 1125.12 579.12
00001093 00000003 853.76 114.65 352.08 597.33 999.64 349.83 1151.91 359.98 1109.24 468.11 1018.04 572.77 1129.44 581.22
00001094 00000004 855.36 113.55 353.41 596.80 1001.64 348.96 1155.54 357.78 1112.56 464.04 1022.44 574.23 1133.81 581.52
00001095 00000005 861.52 124.60 350.57 587.01 1001.33 346.17 1159.33 349.34 1117.40 459.38 1022.61 578.88 1132.52 582.23
00001096 00000006 860.51 122.58 352.86 590.43 1002.74 346.55 1158.57 350.93 1119.33 454.91 1023.03 574.21 1134.60 578.61
00001097 00000007 858.01 111.37 349.90 599.34 1005.66 349.11 1157.75 357.18 1118.61 453.64 1022.14 568.88 1136.89 575.61
00001098 00000008 860.19 118.04 353.51 594.20 1003.18 339.80 1157.93 345.46 1116.83 448.43 1019.36 567.24 1131.93 572.55
00001099 00000009 859.20 115.99 354.79 598.25 998.71 332.05 1158.40 339.76 1114.18 439.32 1015.70 561.86 1133.04 568.58
00001100 00000010 856.54 99.22 351.54 612.16 998.92 326.66 1149.40 336.81 1113.08 433.94 1015.48 556.15 1132.35 564.27
00001101 00000011 853.44 91.66 354.03 595.47 991.62 321.32 1146.48 330.70 1110.45 423.14 1015.47 541.73 1134.92 549.33
00001102 00000012 853.66 88.24 350.41 585.89 987.13 316.60 1145.11 324.16 1107.83 413.60 1015.66 533.71 1136.15 539.88
00001103 00000013 849.73 88.23 348.65 575.34 981.44 312.39 1138.16 318.70 1100.66 407.10 1015.13 525.46 1132.89 530.48
00001104 00000014 852.38 93.29 348.78 564.64 979.80 314.12 1145.90 311.71 1099.37 402.04 1008.57 524.54 1142.79 524.13
00001105 DELETE   850.15 93.75 348.60 565.39 974.94 313.11 1141.28 309.65 1094.21 398.77 1005.38 523.49 1140.38 522.36
00001106 DELETE   845.68 92.91 348.32 572.43 976.48 318.11 1137.01 314.32 1095.17 404.74 1005.80 528.33 1134.33 527.05
00001107 00000017 842.63 102.39 350.39 577.01 974.63 329.86 1136.97 327.41 1090.23 422.53 999.61 542.78 1131.57 542.01
00001108 DELETE   841.83 105.76 350.85 579.98 974.17 343.61 1135.77 341.20 1089.09 440.61 999.96 552.47 1132.18 550.71
00001109 00000019 840.74 110.15 352.01 580.28 975.27 353.61 1136.34 348.90 1089.93 453.55 1005.46 563.39 1133.19 558.93
00001110 DELETE   839.15 112.43 352.95 580.83 972.89 359.68 1135.31 355.17 1088.29 458.02 1005.29 567.97 1132.80 563.55
00001111 00000021 838.42 115.01 349.50 586.25 969.04 363.74 1131.96 358.20 1083.06 462.08 999.56 572.93 1130.78 567.57
00001112 DELETE   836.11 115.35 349.05 589.76 964.07 365.22 1125.91 357.89 1076.84 462.07 997.19 577.22 1126.03 570.59
00001113 00000023 832.52 112.19 351.11 594.19 958.59 366.29 1122.44 358.70 1072.22 463.44 993.01 579.06 1124.15 572.29
00001114 00000024 831.72 115.54 350.79 591.74 955.85 368.50 1119.47 358.44 1070.86 463.61 990.82 580.00 1122.85 571.35
00001115 00000025 832.63 119.12 349.07 589.50 954.49 365.38 1120.93 355.28 1070.81 462.43 989.09 580.65 1121.97 572.04
00001116 00000026 831.89 118.16 348.68 592.74 954.27 361.44 1121.66 353.46 1071.55 460.33 988.58 579.90 1121.75 573.17
00001117 00000027 831.19 117.52 349.05 595.12 954.49 359.62 1121.65 351.25 1072.14 460.37 988.18 580.32 1121.33 573.33
00001118 00000028 829.81 115.17 354.73 597.02 950.21 362.62 1123.72 353.57 1073.18 459.64 979.82 578.20 1118.85 571.33
00001119 00000029 829.66 117.44 355.56 601.69 954.88 364.91 1126.88 354.68 1079.73 467.24 984.55 583.08 1122.26 574.76
00001120 00000030 832.34 125.12 353.46 604.29 960.37 371.99 1128.17 363.63 1083.17 481.85 989.51 592.70 1121.73 586.03
00001121 DELETE   835.31 136.40 355.61 610.74 968.73 386.13 1130.21 381.50 1084.96 502.32 992.48 607.35 1119.89 604.02
00001122 DELETE   835.31 145.55 358.47 611.67 971.83 400.38 1136.47 394.09 1088.85 526.85 1000.55 626.04 1126.33 620.27
00001123 00000033 833.65 149.00 363.16 610.85 974.66 408.06 1138.22 396.97 1093.53 532.01 1006.80 633.17 1132.23 623.37
00001124 00000034 836.29 150.03 360.16 588.64 970.64 401.34 1138.00 391.42 1090.17 519.89 1006.68 620.18 1132.10 612.03
00001125 DELETE   834.77 136.52 357.34 597.67 969.39 390.69 1132.26 380.92 1091.15 501.54 1002.01 606.54 1127.43 599.21
00001126 00000036 831.48 128.65 357.20 594.77 965.03 383.20 1130.23 372.34 1089.88 490.06 999.24 596.64 1128.99 588.07
00001127 00000037 831.61 131.37 358.45 600.04 966.10 385.55 1130.80 375.87 1090.19 494.69 1000.47 601.83 1128.85 594.13
00001128 00000038 832.72 137.29 363.73 606.17 972.80 395.51 1134.29 386.92 1093.95 512.82 1008.22 615.63 1131.16 608.77
00001129 00000039 835.94 144.98 364.06 603.90 976.25 404.18 1142.76 394.07 1096.81 525.55 1012.94 627.80 1137.46 618.78
00001130 00000040 837.63 150.00 365.72 601.15 981.10 403.74 1143.70 392.98 1099.01 528.77 1017.67 632.43 1135.96 623.07
00001131 00000041 838.57 149.53 364.41 598.10 982.61 401.46 1143.85 393.50 1099.74 524.86 1016.67 627.82 1134.22 620.93
00001132 00000042 839.35 145.74 364.21 598.53 981.34 397.00 1141.72 391.07 1098.32 519.78 1013.20 621.46 1131.07 616.72
00001133 00000043 837.78 143.47 364.95 597.57 980.78 393.32 1140.99 387.78 1099.38 514.37 1012.70 617.20 1129.94 612.92
00001134 00000044 839.20 143.76 363.28 589.29 979.44 391.50 1141.33 385.89 1099.34 509.33 1012.23 613.21 1130.56 609.30
00001135 00000045 841.82 143.52 360.44 585.95 981.05 389.79 1142.43 385.09 1099.67 505.36 1012.02 608.93 1131.15 606.00
00001136 00000046 842.08 145.95 360.18 580.95 981.75 389.78 1143.75 385.82 1099.59 506.67 1012.67 608.25 1132.78 605.82
00001137 00000047 842.43 144.72 360.18 582.95 980.05 390.50 1144.03 386.85 1097.48 508.08 1009.14 607.38 1132.85 605.02
00001138 00000048 842.32 146.36 360.31 582.81 980.23 390.12 1144.93 387.64 1096.28 510.23 1007.55 607.70 1131.43 606.12
00001139 00000049 842.14 144.69 361.30 584.23 980.86 389.45 1146.30 388.38 1096.16 512.42 1006.70 607.60 1130.23 607.08
00001140 00000050 842.31 145.10 361.76 590.17 980.45 389.09 1147.07 389.96 1095.13 515.52 1002.56 608.42 1129.98 609.36
00001141 00000051 843.03 145.05 362.03 593.81 980.99 390.30 1146.89 390.60 1095.87 517.31 1002.87 609.81 1130.70 610.33
00001142 00000052 843.79 146.89 361.74 593.27 982.87 390.65 1148.43 391.40 1097.87 519.10 1003.63 610.57 1131.24 611.52
00001143 00000053 844.70 147.23 361.32 592.86 984.10 392.21 1148.49 392.53 1098.42 520.15 1004.65 611.53 1131.60 612.20
00001144 00000054 845.99 148.32 360.26 591.54 984.16 393.43 1149.79 393.65 1098.41 522.24 1005.86 613.80 1132.95 614.22
00001145 00000055 844.07 143.88 355.88 600.97 989.23 386.46 1145.90 391.49 1103.87 524.58 1011.32 616.31 1122.96 619.90
00001146 00000056 844.75 145.38 355.77 597.94 990.04 385.28 1146.38 391.10 1104.43 522.60 1012.13 615.38 1122.77 619.66
00001147 00000057 844.87 145.66 356.06 595.29 990.76 384.53 1147.00 390.25 1105.23 521.50 1013.97 615.49 1122.36 619.77
00001148 00000058 845.85 145.83 354.82 596.75 991.34 384.23 1146.80 390.44 1104.86 521.45 1014.60 615.92 1121.96 620.51
00001149 00000059 844.47 146.39 355.87 598.38 991.81 386.37 1148.01 391.86 1105.97 525.79 1014.24 617.84 1123.03 621.70
00001150 00000060 846.88 148.07 353.74 600.41 995.38 390.98 1150.76 393.88 1108.23 534.79 1020.70 626.46 1125.70 628.11
00001151 00000061 847.57 153.26 357.88 615.46 1000.65 398.50 1152.48 404.25 1110.27 540.89 1020.36 633.33 1124.94 637.20
00001152 00000062 849.03 166.97 358.92 618.66 1003.97 410.49 1154.09 415.89 1114.06 555.54 1015.41 642.46 1123.14 646.96
00001153 00000063 848.87 181.67 365.14 604.13 1003.22 410.13 1160.42 413.18 1113.45 553.44 1005.27 643.90 1117.94 646.63
00001154 00000064 847.12 155.43 360.29 617.37 997.74 396.98 1151.39 401.77 1109.36 542.35 1010.07 626.78 1126.48 630.06
00001155 00000065 848.45 146.65 356.10 605.71 990.54 391.25 1149.65 392.93 1103.27 532.79 1005.13 614.54 1130.13 615.25
00001156 00000066 847.41 143.43 357.32 607.69 990.16 388.88 1149.83 392.10 1103.38 529.35 1004.40 612.20 1129.97 614.12
00001157 00000067 850.34 148.98 356.02 605.78 996.11 394.14 1153.14 396.41 1107.55 536.61 1011.59 618.64 1131.65 619.77
00001158 00000068 851.79 154.49 357.02 602.45 1001.02 393.97 1156.74 397.08 1111.10 537.59 1016.10 622.46 1131.07 624.30
00001159 00000069 852.50 155.27 355.48 596.95 1001.11 392.16 1157.64 395.62 1110.89 534.57 1015.46 619.44 1131.10 621.60
00001160 00000070 851.63 149.88 357.62 602.36 998.61 386.25 1157.24 392.30 1110.00 529.46 1011.36 614.25 1131.04 618.48
00001161 00000071 851.15 145.27 357.39 610.03 998.26 383.93 1154.86 391.88 1107.50 527.53 1008.68 613.63 1127.71 619.28
00001162 00000072 851.30 148.45 356.24 615.63 998.52 383.62 1153.54 391.87 1108.20 532.75 1004.16 615.92 1125.26 621.83
00001163 00000073 850.50 151.27 356.56 614.08 999.13 385.23 1152.79 393.99 1106.55 535.11 1003.06 616.20 1122.67 622.67
00001164 00000074 848.58 151.78 358.63 611.66 996.96 384.92 1152.33 393.36 1104.68 534.73 999.75 613.38 1121.78 619.70
00001165 00000075 845.67 146.77 361.21 613.53 993.78 383.98 1150.40 392.29 1101.65 533.49 996.31 610.47 1121.38 616.60
00001166 00000076 845.74 148.57 360.21 607.09 990.27 383.78 1149.42 391.83 1099.55 533.09 993.51 609.02 1120.31 615.27
00001167 00000077 845.07 148.58 359.61 602.57 989.69 384.27 1148.62 392.27 1098.16 533.59 994.14 608.50 1118.55 614.90
00001168 00000078 843.78 149.25 361.00 598.58 988.11 384.95 1148.91 392.39 1098.04 532.09 993.44 608.47 1117.83 614.64
00001169 00000079 844.72 149.56 360.44 595.38 987.57 385.57 1148.79 393.16 1097.41 531.37 995.41 608.84 1118.00 615.23
00001170 00000080 844.52 150.79 360.59 592.24 987.78 385.98 1148.83 393.44 1097.19 532.20 997.06 609.59 1117.57 615.98
00001171 00000081 844.77 147.85 361.40 595.77 986.92 386.76 1148.30 394.26 1096.03 531.82 996.59 609.82 1117.70 616.16
00001172 00000082 844.17 148.58 361.53 594.37 986.66 386.72 1147.74 394.64 1095.72 531.58 996.41 609.62 1117.14 616.36
00001173 00000083 844.52 150.21 360.51 592.86 987.23 385.42 1147.93 393.94 1095.92 531.00 996.10 609.20 1116.64 616.37
00001174 00000084 843.69 148.10 361.05 596.05 986.72 385.32 1147.05 393.29 1095.43 530.14 995.15 608.29 1116.93 614.90
00001175 00000085 842.01 146.94 361.60 597.62 986.30 384.96 1147.66 393.23 1095.90 529.30 994.56 608.30 1117.31 614.95
00001176 00000086 842.14 145.91 360.21 603.95 986.96 382.04 1145.89 392.87 1095.23 529.47 991.19 609.56 1113.07 618.28
00001177 00000087 841.63 144.72 361.18 609.55 986.78 379.68 1147.00 391.71 1096.42 528.18 988.26 609.61 1113.10 619.18
00001178 00000088 840.31 144.00 363.31 603.64 985.67 381.12 1147.15 391.86 1096.29 526.54 988.65 605.59 1114.18 614.08
00001179 00000089 842.04 142.33 361.62 600.64 985.24 380.62 1146.94 391.38 1094.80 523.35 991.12 603.65 1115.25 612.07
00001180 00000090 842.75 143.72 360.70 596.87 985.76 381.04 1147.40 391.98 1095.25 522.24 992.96 604.24 1115.38 612.97
00001181 00000091 841.41 144.27 362.39 597.49 986.38 380.91 1148.23 392.89 1095.83 522.88 992.82 605.46 1114.59 615.12
00001182 00000092 841.78 144.01 361.90 598.59 987.86 381.23 1147.23 393.30 1095.59 523.05 994.67 606.49 1113.22 616.19
00001183 00000093 841.38 141.70 361.95 601.06 987.90 379.84 1147.23 391.88 1096.65 521.51 995.00 606.41 1112.84 616.04
00001184 00000094 841.01 142.14 361.85 598.81 987.89 377.20 1148.10 390.67 1096.64 517.36 994.96 604.63 1111.89 615.52
00001185 00000095 841.05 145.40 361.65 594.71 988.96 374.37 1148.48 387.83 1097.83 514.30 996.12 603.40 1111.43 614.40
00001186 00000096 841.28 143.18 361.15 596.46 989.86 374.10 1149.31 387.98 1098.71 513.72 996.46 603.23 1110.98 614.57
00001187 00000097 842.39 146.05 360.34 590.58 991.17 374.10 1150.33 386.85 1099.36 512.29 999.56 602.51 1112.00 613.01
00001188 00000098 843.86 145.33 358.32 591.00 990.28 372.01 1151.36 384.25 1100.65 510.08 997.77 600.84 1112.81 610.97
00001189 00000099 842.42 145.13 359.03 588.34 990.82 368.63 1152.43 380.70 1101.97 506.50 997.56 597.74 1113.37 607.78
00001190 00000100 842.19 145.93 359.84 584.69 991.78 367.04 1153.28 379.10 1102.18 504.19 998.16 596.07 1112.80 606.25
00001191 00000101 841.15 145.88 360.69 587.68 992.46 367.01 1153.22 379.94 1102.10 506.14 997.44 596.56 1112.06 607.39
00001192 00000102 840.94 140.95 362.65 597.64 992.69 372.04 1152.78 385.38 1100.96 511.10 998.02 600.02 1113.43 610.90
00001193 00000103 838.87 139.45 367.00 609.90 994.99 379.04 1151.52 393.65 1101.80 529.46 996.29 608.18 1112.89 619.94
00001194 00000104 839.50 148.84 368.08 609.15 997.02 383.58 1151.97 397.01 1102.55 538.22 995.77 613.06 1112.55 624.17
00001195 00000105 840.45 155.17 368.42 607.28 1000.98 388.27 1153.90 402.55 1104.99 543.30 997.86 616.90 1112.52 628.96
00001196 00000106 845.38 155.67 363.67 609.97 1004.02 385.81 1154.37 401.27 1105.46 542.72 999.93 617.41 1111.55 630.30
00001197 00000107 846.24 148.12 360.87 618.09 1001.97 378.20 1153.76 394.63 1104.60 534.36 997.08 614.12 1110.60 627.39
00001198 00000108 843.29 138.27 365.17 614.00 1002.24 375.24 1155.41 392.77 1106.12 525.99 1001.00 608.47 1110.84 622.47
00001199 00000109 841.82 140.36 366.23 602.55 1001.66 374.97 1154.87 388.45 1105.18 517.32 1010.71 607.96 1113.30 618.39
00001200 00000110 842.13 142.07 366.37 598.45 999.29 379.23 1155.56 390.29 1105.43 521.50 1010.94 609.91 1117.06 618.76
00001201 00000111 847.00 144.69 363.56 598.10 1000.62 383.83 1157.39 393.94 1105.33 529.75 1007.62 610.13 1117.35 618.65
00001202 00000112 847.75 149.18 361.65 589.65 999.64 382.93 1158.66 393.08 1105.53 528.27 1007.38 606.77 1119.82 615.38
00001203 00000113 846.75 147.19 361.75 584.57 998.89 379.25 1157.05 390.16 1103.20 517.16 1005.09 598.22 1118.82 607.59
00001204 00000114 843.61 145.07 363.92 585.46 999.63 367.42 1158.26 379.71 1103.67 507.14 1003.33 589.08 1119.05 598.98
00001205 00000115 839.38 141.48 367.90 595.87 995.64 362.78 1155.62 377.34 1101.93 505.17 993.50 586.55 1115.74 598.19
00001206 00000116 838.29 142.56 368.90 602.60 995.48 366.47 1153.03 383.86 1100.51 513.07 991.48 593.22 1111.62 607.14
00001207 00000117 837.42 142.77 370.76 611.43 996.42 371.66 1152.27 390.46 1099.83 521.33 990.25 598.34 1112.12 612.99
00001208 00000118 840.07 140.46 366.31 613.47 997.37 375.13 1152.23 392.76 1101.52 526.73 994.08 605.05 1111.33 618.86
00001209 00000119 841.33 141.96 364.70 607.31 999.47 377.87 1150.24 393.97 1101.32 527.72 999.70 606.03 1110.36 618.88
00001210 00000120 840.38 140.37 366.32 608.95 997.49 379.77 1149.69 394.99 1100.18 528.14 1000.15 607.58 1111.12 619.69
00001211 00000121 839.50 141.66 368.25 607.76 995.15 380.13 1150.79 394.33 1100.16 528.31 997.61 607.86 1112.18 619.30
00001212 00000122 841.11 140.90 366.04 607.10 996.81 380.11 1150.68 394.46 1100.98 528.91 997.65 605.58 1112.22 617.20
00001213 00000123 840.37 142.26 367.55 602.08 996.08 379.26 1152.73 392.66 1100.84 524.54 998.85 603.30 1114.63 614.19
00001214 00000124 841.01 141.84 365.92 595.23 994.30 380.48 1154.31 392.22 1099.36 524.32 1000.89 603.36 1116.50 612.90
00001215 00000125 842.23 141.96 364.31 594.27 995.38 382.40 1153.64 394.04 1100.01 526.96 1002.35 605.69 1115.25 615.36
00001216 00000126 843.84 141.20 364.03 602.30 998.30 382.13 1152.30 394.51 1101.11 528.14 1003.82 607.87 1113.76 618.12
00001217 00000127 840.95 141.60 366.44 602.04 997.22 378.48 1153.38 393.14 1101.16 525.30 1002.38 608.40 1111.23 620.50
00001218 00000128 841.16 144.27 365.60 596.76 996.29 374.97 1153.03 389.32 1101.36 518.96 1002.31 606.85 1109.44 618.78
00001219 00000129 841.41 144.53 364.32 595.76 994.63 373.93 1151.73 388.56 1099.81 517.64 1000.05 605.68 1108.46 617.86
00001220 00000130 839.96 142.04 365.93 602.19 992.71 373.73 1151.16 390.14 1098.37 519.69 996.13 606.56 1107.15 620.13
00001221 00000131 838.85 141.43 367.06 608.30 991.92 372.04 1151.84 389.84 1097.87 522.06 991.87 608.06 1105.71 622.66
00001222 00000132 838.70 142.68 367.41 610.39 989.15 369.85 1152.66 388.30 1097.42 520.13 986.02 606.49 1107.95 621.58
00001223 00000133 837.57 142.65 369.66 609.38 990.33 369.13 1151.75 388.44 1096.85 519.93 982.89 600.55 1107.42 616.17
00001224 00000134 836.59 145.78 370.17 602.82 990.02 369.79 1150.23 387.29 1095.13 519.28 983.99 596.93 1108.79 610.99
00001225 00000135 837.12 143.25 369.31 604.39 989.44 370.68 1149.74 387.78 1094.96 518.98 984.39 596.56 1109.29 610.36
00001226 00000136 837.50 142.31 368.11 602.66 988.90 370.33 1150.22 386.52 1096.16 516.93 985.84 597.84 1109.17 610.97
00001227 00000137 837.69 143.12 366.85 595.22 988.68 371.19 1150.58 386.24 1097.12 514.19 989.59 597.57 1110.12 610.03
00001228 00000138 838.11 142.98 366.54 594.16 987.68 372.16 1151.10 386.64 1096.79 513.98 990.41 599.07 1110.57 611.11
00001229 00000139 838.79 142.76 365.56 592.49 988.98 372.75 1151.09 387.30 1097.48 515.21 991.93 599.87 1109.58 612.03
00001230 00000140 838.96 143.64 365.59 591.49 988.89 372.12 1151.41 386.44 1097.59 515.09 991.68 599.34 1109.97 611.29
00001231 00000141 838.88 143.63 366.06 591.71 988.97 372.00 1151.31 387.05 1096.90 514.62 990.81 597.95 1109.81 610.48
00001232 00000142 838.49 140.98 366.84 595.97 988.05 372.74 1151.49 386.88 1097.60 515.14 989.52 597.25 1111.72 608.96
00001233 00000143 838.02 140.82 366.57 593.62 987.48 373.25 1151.94 387.20 1097.57 513.90 989.15 594.33 1114.52 605.83
00001234 00000144 840.08 142.34 364.18 587.46 986.57 384.04 1148.69 395.38 1095.20 513.58 988.01 590.14 1116.89 599.70
00001235 00000145 838.96 141.22 370.62 584.71 986.07 387.50 1154.06 396.68 1096.55 511.11 987.38 577.97 1123.83 587.26
00001236 00000146 837.51 142.93 368.82 577.21 983.69 388.47 1151.88 396.11 1094.19 510.85 987.80 575.37 1124.44 583.29
00001237 00000147 835.21 138.23 370.19 580.59 979.89 388.10 1147.39 397.27 1090.47 507.60 984.99 573.77 1120.57 582.87
00001238 00000148 839.56 147.34 363.05 559.10 969.86 386.59 1144.68 396.45 1080.75 511.19 978.63 582.32 1122.60 591.99
00001239 00000149 836.51 143.65 364.05 562.58 963.86 388.81 1138.28 396.86 1075.28 513.97 975.76 584.70 1118.17 592.69
00001240 00000150 832.29 143.27 367.31 561.72 958.04 389.04 1132.76 396.57 1068.09 514.39 971.42 585.02 1113.24 592.50
00001241 00000151 827.95 138.03 369.68 570.91 952.38 389.21 1130.55 396.17 1064.13 515.29 966.90 587.47 1111.82 594.16
00001242 00000152 826.53 136.61 367.78 573.14 946.59 389.09 1126.91 396.38 1057.79 512.80 960.28 586.49 1109.60 593.67
00001243 00000153 825.87 137.74 366.06 573.46 942.56 387.91 1121.23 394.65 1050.92 509.04 958.02 586.96 1103.96 593.34
00001244 00000154 825.28 136.88 364.14 573.14 940.80 386.79 1117.80 394.39 1046.14 505.11 955.47 585.97 1099.06 593.31
00001245 00000155 825.51 135.91 357.70 578.04 939.94 388.13 1109.20 387.91 1040.43 500.77 959.10 588.51 1096.29 588.50
00001246 00000156 823.98 133.20 356.28 578.84 936.02 385.57 1104.75 383.68 1036.28 495.50 959.11 588.13 1093.12 586.86
00001247 00000157 823.86 126.00 354.91 582.19 932.69 383.21 1103.36 380.72 1033.00 492.12 962.17 589.38 1094.00 587.21
00001248 00000158 824.38 118.79 351.93 588.75 930.45 376.56 1098.21 376.45 1028.72 488.67 961.05 586.24 1088.41 586.10
00001249 00000159 820.96 110.63 352.87 596.73 927.02 370.62 1095.58 369.30 1026.02 481.86 961.73 585.28 1087.53 584.00
00001250 00000160 820.18 108.87 349.93 599.67 925.24 366.07 1093.02 366.20 1022.38 475.99 959.85 584.07 1082.57 584.05
00001251 00000161 818.50 103.61 349.33 601.71 921.47 363.82 1091.30 363.03 1018.61 471.38 955.71 581.07 1082.04 580.39
00001252 00000162 812.48 99.65 352.97 599.11 917.16 359.14 1087.08 356.23 1016.83 468.21 954.89 577.83 1079.31 575.58
00001253 00000163 812.19 98.94 352.79 595.54 915.40 356.21 1083.73 352.28 1015.00 464.88 954.23 572.98 1079.27 569.93
00001254 00000164 807.91 97.08 354.40 593.15 913.03 352.85 1080.22 349.15 1013.38 460.08 952.35 568.11 1076.32 565.33
00001255 00000165 805.05 94.78 354.14 590.77 910.62 348.32 1076.51 344.50 1011.00 451.19 949.56 562.61 1072.97 559.93
