Video ID: 	pc3xMOhXZLM
H: 	1080
W: 	1920
FPS: 	25.0

FRAME INDEX X0 Y0 W H [Landmarks (5 Points)]

00003928 00000000 638.67 250.33 415.86 567.08 712.38 508.48 869.57 480.48 790.76 616.81 790.46 692.96 920.49 667.15
00003929 DELETE   642.23 255.39 413.69 564.43 715.87 512.40 871.15 484.17 793.28 620.81 794.23 697.34 920.86 671.66
00003930 DELETE   647.84 258.12 410.69 562.59 719.49 515.68 871.78 489.25 792.94 623.37 797.10 698.52 920.65 674.38
00003931 DELETE   653.14 256.39 406.57 565.36 716.52 520.67 870.02 488.69 797.20 625.36 797.33 698.92 922.26 669.20
00003932 00000004 655.84 250.59 406.26 570.76 719.74 519.61 872.80 490.38 798.75 624.75 797.98 697.56 923.68 670.12
00003933 DELETE   659.12 250.47 405.48 570.42 721.09 517.25 876.69 489.83 799.89 626.71 798.17 696.85 926.02 671.13
00003934 00000006 661.89 248.15 405.93 572.71 724.58 516.23 879.07 492.11 800.04 624.33 798.91 694.70 926.23 671.79
00003935 00000007 663.28 246.21 405.96 574.89 725.36 516.44 881.36 492.32 801.15 624.52 798.44 695.04 927.32 672.09
00003936 00000008 666.96 249.56 403.46 572.07 728.40 516.27 884.99 495.26 803.18 627.96 799.59 694.69 929.90 674.41
00003937 DELETE   668.73 246.74 402.42 576.61 730.21 518.30 888.74 498.28 806.33 634.35 800.48 696.25 934.17 676.92
00003938 00000010 671.77 246.56 399.89 581.29 732.91 521.67 890.29 504.04 806.38 638.06 800.39 697.76 935.19 680.28
00003939 00000011 673.00 247.77 399.19 581.76 733.15 522.14 891.05 504.79 807.05 640.18 802.79 699.76 935.96 682.50
00003940 00000012 673.22 247.15 399.46 583.42 733.23 523.28 890.65 505.18 807.25 641.38 803.01 700.36 936.16 682.51
00003941 00000013 672.70 247.55 400.05 582.78 732.82 523.22 890.46 505.92 806.19 640.90 802.28 700.26 935.17 683.07
00003942 00000014 672.87 251.34 398.50 577.45 732.10 522.99 890.63 504.81 806.23 640.99 800.64 699.69 936.60 681.83
00003943 00000015 671.28 250.22 399.34 578.44 730.07 522.50 889.39 504.66 804.02 640.36 798.73 699.45 935.26 681.86
00003944 00000016 668.44 248.41 400.17 580.53 728.15 523.78 887.47 504.24 802.94 639.05 796.59 700.04 933.20 681.08
00003945 00000017 664.23 252.98 402.30 575.24 723.71 522.89 882.63 502.22 799.47 638.11 794.69 699.91 929.80 680.07
00003946 DELETE   662.35 253.89 403.38 576.02 721.39 521.87 879.55 501.49 796.01 636.64 792.94 699.44 926.57 679.57
00003947 00000019 662.53 253.84 402.64 576.73 722.00 522.57 876.97 501.41 794.26 633.90 790.11 698.08 923.17 677.59
00003948 00000020 662.20 253.12 402.31 578.05 721.25 522.40 876.27 500.76 792.86 633.02 789.50 697.72 922.11 676.69
00003949 00000021 662.30 252.60 401.91 577.97 721.32 522.17 875.84 499.59 793.28 632.00 789.01 697.29 922.44 675.55
00003950 00000022 662.42 253.06 401.27 574.08 720.99 518.55 876.39 495.70 793.94 630.30 789.78 696.72 921.70 674.89
00003951 00000023 661.94 252.17 401.47 574.39 720.12 516.60 874.55 493.33 792.48 627.71 791.27 696.55 921.29 674.26
00003952 00000024 660.86 247.93 402.29 578.40 718.88 514.75 873.78 490.15 791.73 625.34 790.37 695.83 921.34 672.34
00003953 DELETE   660.67 248.87 402.99 576.52 717.81 511.90 873.15 487.44 790.38 621.66 789.03 694.66 919.60 671.27
00003954 00000026 660.50 249.65 402.47 573.13 717.34 507.84 872.93 484.75 789.06 618.36 786.16 690.98 918.94 668.79
00003955 00000027 660.69 242.30 402.05 578.03 717.46 504.86 872.42 483.35 787.11 615.18 782.77 689.18 915.39 668.09
00003956 00000028 659.51 243.87 404.03 575.16 716.25 500.84 872.78 480.77 785.19 613.10 778.97 686.11 910.63 666.42
00003957 00000029 659.09 241.63 403.61 576.12 715.71 500.11 871.89 479.28 784.50 610.82 777.99 685.35 909.66 664.95
00003958 00000030 657.53 244.32 405.13 572.57 715.17 498.30 869.61 477.80 783.27 609.53 780.50 684.76 909.23 664.41
00003959 00000031 658.99 247.39 404.39 572.42 721.06 491.45 870.00 477.27 778.50 608.41 785.33 689.02 907.96 674.78
00003960 00000032 658.07 237.85 406.03 582.18 714.21 493.81 867.08 471.76 781.24 606.01 786.61 687.72 909.26 665.94
00003961 00000033 658.64 238.31 405.55 582.03 714.84 493.72 867.11 472.31 780.44 605.72 785.08 686.69 908.37 665.50
00003962 00000034 658.63 235.36 406.86 580.63 713.57 491.56 869.50 473.37 779.16 605.14 776.50 682.93 905.80 664.53
00003963 00000035 659.00 234.63 405.93 580.36 713.52 489.11 870.65 474.11 777.90 606.61 773.72 680.40 902.21 664.79
00003964 00000036 664.68 233.94 397.55 582.12 717.46 486.68 876.88 470.43 776.26 610.18 773.88 684.83 899.94 670.26
00003965 00000037 664.95 235.79 397.57 577.08 717.77 486.22 876.76 469.12 777.28 604.61 773.43 685.57 893.62 670.50
00003966 00000038 665.65 235.15 397.69 575.13 717.78 484.04 876.98 467.09 776.17 599.54 771.15 685.53 889.29 670.54
00003967 00000039 666.27 232.24 397.33 580.51 717.25 485.16 876.23 466.52 773.46 598.90 770.94 687.68 888.85 671.27
00003968 00000040 666.09 232.82 396.77 581.07 717.26 486.45 873.56 467.71 770.77 598.25 772.98 686.58 891.14 669.76
00003969 00000041 663.27 233.40 397.86 584.71 714.76 483.62 873.23 467.61 765.73 599.48 766.26 683.30 892.59 668.27
00003970 00000042 659.81 232.63 399.51 585.06 713.03 480.71 873.03 467.58 767.01 600.16 762.54 680.88 890.16 668.19
00003971 00000043 657.28 233.70 401.50 585.10 710.48 479.42 868.22 468.39 762.72 602.27 760.51 680.96 886.03 669.61
00003972 00000044 655.96 242.92 401.77 571.82 708.52 476.41 850.57 474.42 749.03 600.71 760.93 678.98 878.19 674.76
00003973 00000045 652.54 242.91 406.46 575.29 704.26 475.25 846.53 472.69 742.86 600.01 758.43 679.76 877.54 674.77
00003974 00000046 649.61 244.21 412.00 576.62 699.91 476.54 840.93 472.18 734.94 599.18 755.27 681.96 873.82 675.39
00003975 DELETE   649.48 253.97 407.65 565.79 700.41 476.62 834.59 472.62 732.57 598.47 756.03 680.78 866.31 674.57
00003976 DELETE   646.33 243.88 408.38 577.62 694.56 473.78 828.90 469.20 727.27 601.28 754.03 684.40 863.95 677.46
00003977 DELETE   646.76 245.76 407.39 574.80 692.97 474.17 824.34 470.34 720.28 601.96 753.63 683.54 862.04 677.05
00003978 00000050 646.41 247.17 407.22 573.21 691.40 469.85 823.57 467.80 716.39 601.49 752.06 681.26 861.64 676.04
00003979 00000051 647.44 246.25 404.70 573.32 690.39 472.40 822.12 468.26 714.79 600.11 749.70 682.77 859.23 676.03
00003980 00000052 647.18 246.09 403.46 572.86 689.43 474.93 820.94 470.82 713.39 601.13 750.17 683.74 859.93 676.97
00003981 00000053 648.03 245.42 402.51 571.31 689.19 474.74 821.08 472.27 711.66 602.39 749.72 684.42 858.31 679.04
00003982 00000054 641.66 240.16 409.11 575.18 690.49 478.15 827.21 466.97 721.10 599.08 752.82 681.54 859.34 668.30
00003983 00000055 644.27 235.17 404.72 588.11 684.63 473.88 813.70 471.21 704.67 603.26 748.87 687.27 858.70 681.16
00003984 00000056 642.53 235.54 405.31 589.96 683.76 474.61 812.05 469.77 704.82 602.48 748.63 688.82 858.74 680.87
00003985 00000057 641.40 236.16 407.34 589.39 682.97 474.10 812.18 469.26 704.53 602.46 748.48 688.58 858.95 680.61
00003986 00000058 642.09 232.65 405.30 588.61 682.92 474.09 812.98 469.98 705.65 603.16 748.84 688.44 857.73 681.29
00003987 00000059 641.08 228.75 406.48 591.77 681.51 472.83 812.86 467.56 705.17 602.80 747.23 688.39 857.56 680.19
00003988 00000060 641.55 228.48 404.89 592.21 681.47 472.85 812.32 467.14 705.11 602.93 747.33 688.24 858.12 679.64
00003989 00000061 640.97 229.65 405.53 593.94 681.36 473.17 810.00 466.36 704.11 603.27 749.18 687.56 862.01 677.59
00003990 00000062 640.87 231.64 405.48 592.49 681.24 472.96 810.17 465.66 702.72 602.98 749.63 687.40 863.20 677.06
00003991 00000063 641.85 234.14 402.40 590.74 681.53 474.23 809.94 467.83 703.24 604.06 750.44 686.69 864.96 677.03
00003992 00000064 640.99 234.07 403.63 591.23 679.82 476.37 809.14 469.28 700.89 605.17 748.43 687.04 864.70 676.62
00003993 00000065 640.20 231.87 403.16 592.31 680.17 476.63 808.57 471.73 701.14 606.80 748.46 686.77 864.47 678.00
00003994 00000066 639.87 230.84 403.67 593.47 679.53 478.18 809.47 472.67 701.14 607.05 747.71 686.47 865.70 677.09
00003995 00000067 638.85 233.49 404.14 588.94 678.78 479.31 809.45 469.85 703.69 606.68 750.19 687.36 867.82 674.98
00003996 00000068 639.27 237.27 408.60 583.36 679.69 475.53 811.33 465.81 704.42 603.99 749.81 684.73 869.05 672.07
00003997 DELETE   640.67 243.26 409.09 576.25 681.42 473.34 812.81 463.52 704.39 603.15 751.04 682.23 869.98 669.78
00003998 00000070 641.53 247.18 407.53 571.32 682.66 472.79 812.71 462.80 705.78 603.38 752.31 681.10 870.68 668.64
00003999 00000071 641.91 245.46 407.03 572.87 683.03 473.82 812.71 463.05 705.68 602.26 751.38 682.51 868.73 669.60
00004000 00000072 641.18 244.27 406.17 575.22 682.37 474.31 811.60 461.98 705.64 600.54 750.04 682.43 867.89 668.23
00004001 00000073 640.09 245.52 407.33 572.38 681.98 473.42 810.12 462.44 704.16 599.34 749.87 681.13 865.55 667.94
00004002 00000074 640.74 243.00 404.83 575.49 681.71 472.67 808.16 463.02 702.40 600.70 751.03 680.65 865.65 668.48
00004003 00000075 635.09 239.41 413.21 574.83 687.42 472.59 822.76 460.32 718.30 596.40 748.95 675.36 862.61 661.06
00004004 00000076 634.98 239.94 412.44 574.89 686.26 471.81 822.25 458.97 716.95 596.35 747.18 675.78 861.72 660.95
00004005 00000077 636.18 234.94 410.72 579.43 686.91 470.91 823.00 458.33 716.83 596.18 747.22 675.59 861.37 661.08
00004006 00000078 637.02 232.95 409.53 580.88 686.96 470.96 822.55 458.19 715.20 594.47 746.11 674.26 860.92 659.73
00004007 00000079 638.95 232.78 408.04 580.42 688.17 469.66 823.90 457.69 715.04 594.26 746.25 673.35 862.15 659.56
00004008 00000080 645.74 235.02 398.83 580.11 683.72 469.06 811.83 459.30 702.36 592.98 747.37 676.87 864.20 665.24
00004009 00000081 647.39 232.28 397.56 583.24 685.20 468.19 813.49 459.93 704.15 593.55 747.39 676.81 864.70 666.36
00004010 00000082 648.05 236.87 398.50 578.42 685.54 468.57 813.71 461.13 702.94 595.74 748.65 677.59 865.37 667.82
00004011 00000083 641.66 251.12 409.21 562.57 690.81 469.68 824.48 459.95 719.56 595.50 751.00 671.86 864.80 659.37
00004012 00000084 640.76 254.08 410.32 559.75 690.67 471.50 824.68 460.84 721.10 595.63 750.91 673.04 864.78 659.65
00004013 00000085 640.23 249.96 410.82 564.83 690.86 473.38 823.99 460.57 722.31 596.29 752.11 674.72 866.06 659.61
00004014 00000086 639.87 249.04 412.49 566.51 691.11 473.81 825.03 461.42 722.88 596.91 752.59 675.53 866.50 660.86
00004015 00000087 639.25 253.16 412.66 567.39 683.67 477.96 818.84 465.57 712.51 597.60 748.25 681.46 868.89 667.28
00004016 00000088 635.79 244.34 418.49 572.07 692.64 482.71 837.97 463.28 740.46 592.86 756.37 678.20 876.27 658.47
00004017 00000089 640.93 244.74 412.40 577.51 694.47 487.53 837.63 469.35 740.81 594.77 753.00 682.87 881.86 664.25
00004018 00000090 642.94 242.67 411.55 574.77 696.95 484.52 844.99 465.39 749.59 594.44 761.29 682.64 890.19 663.46
00004019 00000091 640.41 232.41 411.41 581.53 702.99 482.53 853.22 464.49 764.11 594.19 768.52 681.84 894.86 664.26
00004020 00000092 640.96 232.88 408.49 582.05 704.52 483.50 857.37 462.43 767.38 592.71 770.04 682.61 899.98 662.77
00004021 00000093 638.50 232.56 411.27 581.25 703.36 483.65 856.76 460.09 768.39 591.92 771.80 684.22 901.08 662.37
00004022 00000094 637.22 230.02 411.62 584.57 702.23 484.47 856.32 460.64 768.19 592.43 768.93 683.78 900.86 661.55
00004023 00000095 637.21 227.06 411.12 587.26 700.84 482.43 855.04 458.00 767.45 591.75 766.03 681.78 900.42 659.03
00004024 00000096 636.51 225.76 409.18 587.71 698.93 478.81 854.34 453.85 767.41 591.08 765.57 680.98 901.05 657.79
00004025 00000097 632.63 223.43 413.20 588.22 697.60 475.67 852.26 449.83 768.47 588.84 768.05 680.20 900.99 656.49
00004026 00000098 630.95 221.57 412.58 582.98 696.63 472.48 849.99 447.88 766.80 586.30 769.23 676.43 898.49 653.50
00004027 DELETE   626.99 223.07 416.91 576.78 693.25 471.54 851.25 447.24 764.93 583.60 761.19 670.51 899.32 647.86
00004028 00000100 628.82 219.03 414.98 574.10 694.52 463.33 853.48 444.06 757.41 576.39 756.75 654.48 894.89 637.53
00004029 00000101 628.55 219.35 414.34 571.17 693.22 459.96 851.13 441.27 753.99 571.72 755.59 652.00 891.70 635.56
00004030 00000102 624.55 221.78 414.86 572.09 688.83 461.78 843.43 436.96 758.71 569.38 757.75 660.52 891.03 637.98
00004031 DELETE   615.96 224.88 421.35 565.46 680.91 460.86 836.29 432.64 751.57 567.29 752.93 658.47 887.12 633.00
00004032 00000104 617.11 212.67 418.27 575.46 680.11 456.44 832.42 422.99 746.24 565.75 748.68 655.04 879.43 623.35
00004033 DELETE   611.53 208.82 420.13 574.49 676.53 451.53 829.50 420.24 743.75 561.52 747.15 651.69 875.28 621.60
00004034 00000106 605.44 205.20 419.13 571.48 666.65 457.40 820.89 424.42 736.57 562.38 742.77 641.88 868.34 613.19
00004035 00000107 602.31 203.04 420.20 573.51 664.40 458.25 819.12 422.13 737.21 559.88 742.46 641.06 869.25 609.71
00004036 00000108 600.59 203.68 420.50 570.37 663.71 455.86 819.61 418.22 739.78 557.92 742.27 639.67 870.10 607.12
00004037 00000109 599.87 203.79 420.75 569.43 663.71 453.48 820.38 415.86 741.57 556.91 742.82 638.02 870.19 605.33
00004038 00000110 600.23 203.65 420.49 569.62 664.28 454.58 819.92 416.13 741.74 557.01 743.16 638.11 870.68 604.76
00004039 00000111 601.17 201.17 419.75 571.72 664.48 455.18 820.97 416.13 742.46 559.74 743.09 638.74 871.82 605.00
00004040 00000112 605.30 205.33 419.66 568.93 667.55 455.37 824.50 418.43 742.63 563.41 744.75 639.09 874.43 607.00
00004041 00000113 606.35 206.30 420.35 572.14 673.80 447.17 824.19 415.98 740.57 555.12 746.53 639.85 878.32 612.58
00004042 00000114 609.16 206.57 419.62 571.50 676.23 446.58 827.50 415.64 742.86 555.90 749.59 640.78 881.31 613.77
00004043 00000115 611.67 207.29 419.55 571.49 680.78 445.55 830.54 414.60 745.46 552.74 751.42 639.86 882.20 612.97
00004044 00000116 614.26 206.53 418.76 571.66 683.49 445.14 834.18 416.56 746.31 553.61 751.94 639.39 883.02 614.36
00004045 00000117 615.90 205.77 418.79 571.96 685.93 444.60 837.93 419.71 749.65 555.11 751.83 637.37 885.22 615.17
00004046 00000118 621.57 210.52 414.21 566.00 688.98 445.97 842.15 421.98 750.89 553.27 750.78 637.58 884.88 616.37
00004047 00000119 625.99 208.57 411.34 567.84 691.99 446.43 844.88 423.64 753.16 554.38 752.33 636.90 886.93 616.69
00004048 00000120 626.66 204.83 410.60 572.69 693.46 448.24 845.96 426.46 755.00 556.58 754.09 637.83 887.80 618.66
00004049 00000121 631.63 205.89 407.96 572.58 698.93 449.98 854.06 431.68 761.70 557.50 754.79 638.23 889.93 622.29
00004050 00000122 632.07 204.13 408.50 578.80 700.86 451.54 858.25 430.18 766.39 557.51 760.31 641.56 896.93 623.28
00004051 00000123 632.19 202.10 410.39 581.86 699.89 448.01 860.29 428.89 767.62 561.74 763.89 644.88 900.92 628.17
00004052 00000124 634.44 202.94 408.02 580.39 701.54 448.87 860.94 430.89 768.93 562.54 763.89 644.73 899.89 629.02
00004053 00000125 636.30 205.33 405.67 578.46 702.74 450.52 861.49 434.18 768.62 562.44 760.46 643.60 897.36 629.48
00004054 00000126 637.76 204.16 404.24 577.29 702.45 450.84 862.08 435.27 766.64 561.41 758.02 643.76 894.51 630.28
00004055 00000127 636.65 201.44 405.30 582.28 701.97 447.74 862.33 432.57 765.58 558.78 755.45 642.38 894.30 629.22
00004056 00000128 636.56 201.30 406.46 587.10 702.94 447.02 862.42 429.16 766.93 559.00 759.54 645.87 896.16 630.54
00004057 00000129 636.51 198.49 407.41 586.55 705.56 445.98 864.57 428.90 771.09 558.67 765.15 647.09 896.21 632.17
00004058 00000130 636.66 196.87 406.54 589.54 706.87 444.97 863.61 429.65 770.55 558.23 764.30 648.49 890.64 635.35
00004059 00000131 636.22 196.23 407.12 587.24 707.07 442.17 863.05 428.56 769.84 556.81 765.39 648.26 887.38 636.48
00004060 00000132 638.29 197.83 405.47 584.27 708.65 441.72 863.11 429.69 769.93 557.71 766.87 647.30 886.56 636.86
00004061 00000133 641.47 200.43 403.56 580.99 704.31 447.42 864.42 432.07 776.82 561.50 766.89 655.63 887.95 641.53
00004062 00000134 644.18 195.96 402.08 583.67 707.92 447.85 869.94 430.52 782.35 561.01 770.26 653.54 895.26 637.60
00004063 00000135 643.02 196.37 401.42 587.63 714.51 445.38 875.60 429.76 782.06 559.24 773.45 648.14 901.91 634.78
00004064 00000136 640.89 197.14 402.57 586.36 713.79 446.06 877.12 429.27 784.07 558.92 773.71 648.76 903.64 634.38
00004065 00000137 640.22 195.29 402.41 585.89 713.22 446.39 877.80 430.42 784.62 558.82 772.11 648.91 901.33 635.23
00004066 00000138 638.08 196.72 403.45 579.66 711.95 444.23 876.44 430.03 784.47 561.02 773.14 647.91 899.20 635.66
00004067 00000139 635.01 195.30 406.10 578.55 711.06 443.13 875.62 427.67 785.49 559.81 774.67 648.11 898.98 634.68
00004068 00000140 635.46 195.91 407.38 583.48 705.81 445.72 870.73 427.44 787.60 561.38 775.63 658.00 894.80 641.33
00004069 00000141 633.28 193.19 410.53 596.35 706.59 446.53 870.09 425.05 789.32 559.66 780.69 663.67 895.94 644.32
00004070 00000142 633.83 189.06 409.97 604.14 706.29 444.83 870.88 422.14 789.58 560.03 781.13 664.57 900.04 643.63
00004071 00000143 634.32 191.16 411.96 599.68 706.76 443.00 874.25 421.22 791.06 559.26 778.48 660.03 904.25 639.85
00004072 00000144 640.25 191.35 406.79 590.16 710.49 440.96 879.28 419.24 793.67 554.85 776.13 650.53 909.19 630.44
00004073 00000145 641.94 195.47 409.25 580.71 717.26 440.37 885.96 417.95 801.74 551.31 779.35 644.31 914.37 623.23
00004074 00000146 642.54 196.86 412.25 577.79 721.80 436.94 892.53 414.16 807.59 546.26 781.19 639.33 918.14 617.68
00004075 00000147 645.49 192.11 411.01 578.93 726.83 434.24 895.15 409.40 813.19 540.66 787.25 635.82 920.99 612.49
00004076 00000148 646.86 188.59 411.48 580.32 730.64 431.76 897.40 404.03 819.09 537.48 793.40 634.59 925.02 608.90
00004077 00000149 652.96 187.36 407.76 574.76 745.78 426.97 906.24 404.87 826.78 535.29 801.76 627.77 929.58 608.69
00004078 DELETE   655.15 188.99 408.89 571.45 742.26 424.65 911.07 396.01 835.58 533.90 804.62 624.93 941.57 598.53
00004079 DELETE   660.10 186.36 410.38 569.77 757.92 422.78 921.26 399.26 843.20 531.00 811.14 620.92 945.14 600.82
00004080 00000152 668.18 169.54 412.42 585.85 758.68 411.73 927.85 389.78 849.16 525.79 815.25 613.09 959.24 594.08
00004081 DELETE   669.26 165.59 415.26 591.48 761.76 411.40 934.93 388.21 854.99 526.72 817.49 613.79 966.24 593.54
00004082 00000154 669.23 164.28 416.67 593.08 763.57 411.26 936.18 387.99 857.06 527.00 818.74 613.72 967.21 593.43
00004083 00000155 670.12 165.83 415.48 592.40 763.53 413.65 935.68 391.29 856.10 528.90 818.65 614.19 968.02 594.53
00004084 00000156 668.41 173.33 416.42 583.83 762.44 415.10 933.33 392.93 854.63 530.98 818.64 615.07 966.58 595.69
00004085 DELETE   668.83 178.44 415.02 580.42 763.33 418.10 932.12 396.59 854.35 532.25 817.49 615.82 965.10 597.03
00004086 00000158 668.37 179.60 414.78 580.53 763.19 420.42 933.53 399.87 854.35 534.49 815.91 616.57 966.44 598.46
00004087 00000159 666.49 181.01 416.84 580.97 762.08 423.25 932.54 401.41 853.91 537.58 815.46 618.27 966.92 599.08
00004088 00000160 665.96 181.56 416.89 581.45 761.63 424.72 932.29 403.41 854.08 538.96 815.26 619.30 966.31 600.52
00004089 00000161 664.97 179.94 416.56 584.63 760.25 424.00 928.85 402.08 851.72 538.88 813.26 619.01 964.48 599.85
00004090 00000162 663.68 178.68 416.52 587.50 759.02 425.42 927.93 404.36 850.22 540.58 810.84 620.41 961.45 602.07
00004091 00000163 663.49 176.87 414.57 588.10 757.79 426.23 924.41 405.29 846.84 540.47 809.31 620.76 958.34 602.56
00004092 00000164 664.30 176.87 411.54 587.96 755.65 426.72 920.70 405.30 843.03 539.53 806.79 620.99 955.65 602.41
00004093 00000165 662.93 177.73 411.10 587.10 752.74 427.22 916.82 405.20 838.90 540.60 803.78 620.46 952.06 601.43
00004094 00000166 655.45 191.14 413.07 573.52 751.74 435.59 914.45 411.65 835.88 543.91 802.11 626.22 940.32 605.36
00004095 00000167 653.46 188.64 412.19 576.66 747.57 436.07 910.38 412.26 831.20 544.68 799.15 626.72 937.31 605.88
00004096 00000168 651.81 191.72 412.10 576.90 744.28 437.29 908.38 413.79 828.17 549.58 795.97 628.34 936.52 607.62
00004097 00000169 649.65 192.82 413.13 575.91 740.94 439.70 906.09 415.76 825.35 549.84 793.57 629.30 934.57 608.12
00004098 00000170 647.54 194.61 413.72 573.88 738.62 440.88 905.59 416.04 824.56 550.12 792.16 630.48 934.01 608.43
