Video ID: 	H7k2VD4iveM
H: 	1080
W: 	1920
FPS: 	25.0

FRAME INDEX X0 Y0 W H [Landmarks (5 Points)]

00023391 00000000 1053.95 224.93 361.62 558.23 1156.79 457.33 1315.16 448.46 1247.20 550.67 1186.73 649.47 1316.81 642.27
00023392 00000001 1047.07 225.38 361.87 562.27 1148.79 464.70 1304.61 452.96 1239.53 555.74 1181.24 653.62 1311.57 643.85
00023393 00000002 1040.49 225.69 364.69 557.71 1142.09 462.98 1299.79 453.43 1237.52 559.35 1177.52 654.14 1306.17 646.09
00023394 00000003 1032.20 234.98 367.31 552.56 1136.10 473.32 1291.25 463.31 1229.46 570.38 1172.35 660.92 1298.12 652.97
00023395 00000004 1026.10 241.81 367.66 550.55 1132.38 476.46 1287.66 466.74 1226.58 574.27 1167.45 665.16 1291.52 657.37
00023396 00000005 1021.87 242.07 364.57 555.90 1127.07 476.72 1282.72 465.30 1223.10 572.14 1161.89 668.20 1288.46 659.20
00023397 00000006 1016.81 233.75 366.42 569.40 1122.68 472.91 1277.60 459.50 1219.94 564.47 1152.58 660.22 1290.59 649.42
00023398 00000007 1015.40 224.83 363.21 578.37 1120.76 464.02 1273.59 449.89 1217.44 555.56 1150.11 653.52 1289.88 642.09
00023399 00000008 1013.61 221.00 363.40 577.41 1121.03 460.88 1273.42 448.33 1217.13 548.46 1150.35 647.02 1289.25 636.82
00023400 00000009 1014.64 220.17 360.99 574.25 1122.83 460.97 1274.48 449.48 1218.52 551.57 1150.35 645.00 1287.53 635.68
00023401 00000010 1015.17 225.50 362.34 570.74 1124.59 466.40 1275.86 457.65 1220.48 558.99 1150.86 649.81 1285.88 642.95
00023402 00000011 1015.18 236.01 365.27 560.45 1126.79 470.37 1281.74 464.18 1222.59 566.81 1152.28 656.62 1283.42 651.69
00023403 00000012 1015.73 237.59 367.32 555.77 1128.49 473.45 1284.57 465.54 1225.47 568.22 1154.95 655.45 1288.07 648.80
00023404 00000013 1017.89 236.40 367.32 550.11 1131.85 473.13 1286.45 465.60 1228.12 568.53 1157.02 652.03 1288.59 645.64
00023405 00000014 1021.97 230.90 366.84 555.50 1136.86 468.61 1290.49 464.23 1232.82 565.05 1161.74 649.24 1292.08 645.44
00023406 DELETE   1028.21 225.99 365.10 563.46 1144.42 466.89 1297.31 463.26 1241.24 569.33 1174.29 658.15 1295.39 654.97
00023407 00000016 1032.24 229.63 363.82 561.50 1152.91 471.50 1301.22 467.00 1248.27 575.08 1183.40 663.74 1297.96 660.43
00023408 00000017 1039.59 230.69 363.26 559.02 1158.82 475.47 1313.66 472.53 1260.23 576.06 1185.04 660.22 1311.97 658.42
00023409 00000018 1048.14 235.14 363.70 556.84 1169.35 473.91 1328.06 475.01 1269.40 579.02 1191.26 661.66 1321.41 663.06
00023410 00000019 1055.27 237.58 362.33 560.83 1184.57 470.16 1340.01 471.85 1286.00 577.13 1200.89 661.81 1331.69 664.30
00023411 00000020 1059.89 231.73 359.53 567.77 1191.95 466.87 1343.67 471.76 1291.68 576.78 1206.90 661.25 1330.82 666.03
00023412 DELETE   1065.69 231.38 358.48 567.09 1197.17 467.23 1349.62 472.17 1297.06 573.75 1212.29 660.46 1335.70 665.18
00023413 00000022 1071.28 232.03 358.51 565.49 1203.02 467.49 1355.51 473.44 1301.45 573.81 1215.64 660.75 1339.02 666.29
00023414 00000023 1074.89 234.02 360.83 564.93 1208.19 467.21 1360.29 473.89 1305.83 573.57 1220.33 661.71 1342.38 667.81
00023415 00000024 1077.98 236.49 362.60 562.77 1212.59 468.71 1363.79 476.45 1309.90 574.87 1226.01 663.66 1344.87 670.52
00023416 00000025 1081.35 238.15 364.56 562.66 1216.09 470.70 1367.83 480.53 1312.48 575.43 1229.52 665.18 1347.65 673.80
00023417 00000026 1084.66 238.94 366.19 561.85 1219.43 472.02 1369.53 481.28 1314.32 574.11 1233.96 665.04 1350.25 673.32
00023418 00000027 1085.95 239.70 365.81 560.35 1222.37 471.24 1371.85 480.53 1317.75 572.28 1236.26 664.78 1351.31 673.20
00023419 00000028 1088.80 238.88 364.13 561.33 1224.32 471.88 1373.53 481.74 1319.66 571.64 1237.85 664.32 1353.64 673.28
00023420 00000029 1090.11 239.19 364.63 561.07 1225.88 471.45 1375.41 481.29 1321.03 571.04 1237.93 663.68 1355.14 672.78
00023421 00000030 1091.64 240.87 364.16 556.58 1227.23 473.36 1375.96 481.71 1321.23 574.18 1239.14 662.35 1356.10 670.33
00023422 00000031 1093.07 241.60 363.52 555.09 1228.79 475.48 1375.36 482.19 1321.69 577.80 1240.56 661.78 1357.16 668.60
00023423 00000032 1095.41 241.95 361.87 554.94 1229.47 477.76 1375.08 482.72 1322.03 581.07 1243.75 666.18 1357.53 671.63
00023424 00000033 1094.64 243.93 363.08 556.46 1230.70 478.88 1377.49 483.86 1324.34 585.25 1245.26 671.98 1357.67 677.47
00023425 00000034 1094.07 246.88 363.56 564.85 1232.72 480.10 1380.78 487.84 1327.23 589.40 1241.99 677.12 1357.89 684.62
00023426 00000035 1094.27 249.20 364.20 563.64 1233.15 482.18 1383.21 490.86 1329.59 591.79 1240.05 675.19 1360.90 683.59
00023427 00000036 1094.18 252.06 364.33 556.01 1233.09 483.41 1383.99 492.63 1329.84 593.09 1239.49 671.41 1361.99 680.54
00023428 00000037 1093.94 254.40 363.72 543.54 1232.67 485.04 1385.03 492.46 1331.22 592.98 1240.07 667.32 1363.23 675.39
00023429 00000038 1094.82 255.70 362.72 540.11 1234.95 484.99 1386.46 491.87 1333.07 594.00 1241.37 665.07 1364.27 672.66
00023430 00000039 1095.52 255.27 362.05 540.81 1235.84 485.87 1386.71 491.80 1334.06 594.14 1243.54 666.22 1365.66 672.99
00023431 00000040 1095.71 253.86 362.46 543.36 1236.45 483.98 1386.21 490.92 1333.94 593.23 1244.26 667.77 1363.37 675.46
00023432 00000041 1096.19 252.69 362.27 545.05 1237.19 483.00 1386.26 490.50 1334.06 591.39 1244.41 666.54 1363.91 674.67
00023433 00000042 1096.34 252.56 362.65 543.50 1237.31 481.04 1386.20 489.08 1333.61 588.91 1243.25 663.33 1364.28 671.97
00023434 00000043 1096.47 251.90 363.04 542.89 1237.05 479.23 1386.07 488.12 1333.00 586.82 1242.43 660.99 1364.23 670.39
00023435 00000044 1095.62 250.19 364.49 544.94 1236.44 478.15 1385.71 487.07 1332.31 585.71 1242.52 661.05 1363.95 670.36
00023436 00000045 1095.29 249.56 364.96 545.49 1235.12 477.21 1385.17 485.45 1331.25 584.00 1242.28 661.23 1363.46 669.90
00023437 00000046 1095.04 247.40 363.91 549.07 1232.78 477.19 1381.67 484.98 1327.83 583.74 1242.23 664.05 1360.26 672.31
00023438 00000047 1093.50 248.73 363.97 549.97 1231.21 477.33 1377.89 483.98 1324.32 583.55 1242.90 668.17 1355.20 675.30
00023439 00000048 1090.42 243.24 365.44 559.41 1229.14 473.28 1375.50 482.57 1321.61 580.63 1240.16 669.50 1350.43 678.62
00023440 00000049 1088.51 239.63 365.03 564.93 1225.38 469.45 1373.05 480.19 1316.39 577.86 1235.06 670.14 1344.78 680.28
00023441 00000050 1085.35 236.42 367.03 570.19 1224.34 466.20 1371.13 479.74 1313.85 576.00 1231.92 669.07 1341.38 681.10
00023442 00000051 1083.88 233.26 366.99 574.43 1221.84 464.23 1368.42 478.85 1310.94 575.11 1228.28 667.33 1339.89 680.12
00023443 00000052 1084.59 232.04 366.15 576.63 1221.09 463.92 1368.34 479.07 1310.06 573.91 1226.84 667.05 1339.68 680.40
00023444 00000053 1085.53 230.50 367.02 580.80 1222.34 464.15 1370.42 479.43 1312.19 575.15 1227.31 667.61 1343.00 680.83
00023445 00000054 1087.54 232.72 366.70 577.59 1225.43 465.15 1373.57 480.02 1315.29 576.47 1227.80 665.26 1346.43 678.34
00023446 00000055 1088.62 239.27 368.27 559.58 1224.03 470.23 1375.44 485.11 1314.80 576.36 1225.16 654.36 1352.81 667.81
00023447 00000056 1091.92 242.59 366.98 552.04 1223.23 470.64 1377.89 485.51 1314.54 576.03 1223.00 648.67 1357.92 662.31
00023448 00000057 1091.92 242.04 367.96 553.97 1223.81 470.16 1377.48 486.30 1313.95 576.14 1223.18 649.51 1356.07 664.17
00023449 00000058 1090.86 243.76 369.46 556.22 1222.61 471.50 1375.12 488.66 1309.51 583.59 1221.86 655.13 1350.67 670.61
00023450 00000059 1087.81 251.53 369.01 551.84 1219.75 481.16 1372.28 492.97 1305.05 601.17 1223.09 672.28 1341.15 683.56
00023451 DELETE   1088.48 263.63 366.51 546.00 1216.24 490.46 1371.90 502.05 1302.08 609.49 1220.62 682.49 1339.16 693.72
00023452 00000061 1090.43 265.70 364.31 552.25 1218.43 492.42 1371.94 504.97 1304.83 609.59 1225.50 690.28 1340.49 702.06
00023453 00000062 1090.70 254.11 364.12 560.41 1219.24 483.68 1373.72 493.02 1308.41 604.27 1227.60 685.53 1344.61 694.66
00023454 00000063 1086.24 246.28 368.28 551.49 1214.38 473.39 1372.21 483.09 1304.62 592.94 1222.64 669.67 1343.43 678.81
00023455 00000064 1086.79 240.90 365.27 549.97 1212.67 466.11 1367.48 479.04 1300.77 580.76 1216.02 655.60 1340.87 667.23
00023456 00000065 1085.52 237.35 364.74 554.37 1207.51 461.26 1363.40 476.20 1294.46 575.98 1210.38 651.03 1339.65 664.11
00023457 00000066 1081.69 234.37 366.97 564.85 1205.17 461.69 1358.74 477.30 1291.74 580.37 1204.48 656.84 1334.24 670.72
00023458 00000067 1080.68 233.69 366.58 571.76 1204.00 459.82 1357.48 476.94 1290.14 578.26 1201.66 658.53 1332.35 673.97
00023459 00000068 1079.57 232.85 364.18 573.91 1202.75 458.64 1355.29 476.50 1289.04 576.31 1201.81 661.65 1328.04 677.92
00023460 00000069 1078.02 232.95 363.14 571.38 1199.05 457.17 1352.61 474.85 1285.00 573.47 1200.05 660.64 1324.25 676.73
00023461 00000070 1076.91 232.51 362.71 566.58 1192.94 459.83 1347.41 479.53 1278.47 574.66 1194.48 656.14 1321.51 673.59
00023462 00000071 1077.06 233.91 360.31 563.24 1191.95 462.74 1346.22 482.76 1275.00 576.67 1192.59 654.51 1319.80 672.31
00023463 00000072 1072.07 228.82 361.59 569.79 1187.97 456.54 1341.80 478.88 1270.98 574.85 1193.08 656.10 1310.31 675.38
00023464 00000073 1067.02 224.25 361.87 576.27 1180.27 455.68 1335.31 478.34 1261.55 575.46 1185.11 660.33 1300.21 680.28
00023465 00000074 1064.91 221.37 361.93 584.34 1173.55 453.11 1331.58 475.71 1252.98 574.13 1176.76 662.28 1292.61 682.40
00023466 00000075 1067.18 219.59 359.98 589.49 1173.28 450.78 1330.93 473.81 1248.14 569.89 1173.46 661.72 1289.88 682.36
00023467 00000076 1067.02 222.27 362.96 573.72 1171.37 447.70 1329.33 474.13 1244.95 567.29 1167.37 647.30 1295.18 669.96
00023468 00000077 1068.66 222.94 362.69 569.69 1171.87 445.38 1328.59 471.47 1244.21 563.35 1168.42 642.21 1295.67 664.64
00023469 00000078 1070.21 221.68 361.30 571.53 1173.17 442.85 1329.47 469.52 1243.91 561.72 1169.94 642.00 1294.92 664.96
00023470 00000079 1070.50 220.21 362.41 570.45 1173.82 442.36 1329.50 469.72 1244.27 560.50 1169.28 639.38 1295.38 662.79
00023471 00000080 1072.73 221.66 361.72 564.98 1175.89 441.74 1331.52 470.42 1245.02 559.82 1167.17 636.01 1295.21 660.71
00023472 00000081 1076.31 224.18 360.26 562.35 1177.94 442.46 1334.00 470.27 1246.13 561.18 1169.00 636.67 1297.64 660.94
00023473 00000082 1079.38 224.51 360.03 564.56 1180.89 441.86 1336.55 469.82 1249.01 560.46 1172.72 636.72 1300.48 661.22
00023474 00000083 1081.17 223.01 357.56 568.89 1183.16 440.61 1338.98 468.11 1251.01 560.54 1175.43 642.10 1297.59 666.55
00023475 00000084 1082.60 221.01 355.32 578.02 1185.15 440.26 1341.00 467.64 1253.11 561.47 1177.93 648.08 1296.00 672.37
00023476 00000085 1084.17 221.22 352.59 580.30 1185.94 439.86 1342.03 466.22 1254.12 561.15 1179.65 651.67 1295.35 675.15
00023477 00000086 1084.96 221.00 352.23 579.84 1186.67 439.26 1341.58 465.04 1254.56 559.95 1181.36 651.53 1294.80 674.45
00023478 00000087 1085.66 220.47 352.56 579.23 1188.01 437.55 1341.41 463.61 1254.82 558.68 1182.42 650.70 1293.16 673.78
00023479 00000088 1086.71 220.25 353.03 579.87 1188.96 435.85 1342.55 461.94 1256.53 556.01 1182.22 649.71 1294.41 672.84
00023480 00000089 1086.67 221.00 355.21 576.45 1188.65 434.53 1342.78 460.60 1256.00 555.55 1182.33 647.86 1294.97 670.89
00023481 00000090 1087.78 219.55 357.81 575.83 1191.01 432.70 1345.84 460.13 1257.73 554.26 1183.78 644.63 1297.94 668.74
00023482 00000091 1089.94 219.58 359.37 575.96 1195.03 431.57 1348.36 457.95 1261.28 553.00 1186.58 644.25 1299.74 667.60
00023483 00000092 1094.08 219.99 356.52 576.96 1199.34 429.92 1352.56 456.79 1264.02 553.74 1188.90 644.58 1300.86 668.43
00023484 00000093 1093.33 218.98 360.82 575.69 1200.85 429.07 1356.92 457.24 1268.09 553.32 1187.27 639.93 1307.57 664.93
00023485 00000094 1093.11 220.54 364.16 565.14 1200.15 429.51 1358.13 457.45 1269.56 550.54 1190.04 633.25 1314.24 657.65
00023486 00000095 1094.45 219.87 364.71 561.00 1201.25 430.11 1358.32 457.15 1271.08 549.71 1193.17 630.09 1317.12 653.52
00023487 00000096 1096.53 218.59 363.84 562.41 1203.11 431.46 1357.39 457.47 1271.70 551.16 1197.38 631.56 1316.22 654.00
00023488 00000097 1098.43 218.69 361.96 566.58 1203.99 433.24 1358.80 459.82 1272.82 553.57 1197.48 635.69 1317.19 658.68
00023489 00000098 1097.64 218.96 363.57 570.03 1206.47 433.47 1360.29 461.60 1275.93 556.89 1197.79 637.11 1316.95 661.43
00023490 00000099 1098.12 220.23 364.13 573.56 1211.09 433.08 1363.42 463.22 1279.67 555.62 1197.08 634.09 1320.45 660.18
00023491 00000100 1095.29 222.48 366.31 574.36 1212.57 432.68 1365.56 463.82 1281.51 554.93 1194.83 633.58 1322.93 660.60
00023492 00000101 1094.58 221.79 367.54 571.37 1211.48 432.76 1364.77 465.91 1281.18 555.57 1194.72 629.31 1325.84 657.48
00023493 00000102 1094.89 223.20 367.09 566.59 1210.77 433.34 1364.55 466.86 1280.05 556.04 1194.78 628.28 1326.08 656.73
00023494 00000103 1094.13 222.11 368.15 568.95 1210.33 434.60 1363.74 467.90 1279.61 557.54 1194.38 630.19 1324.71 658.53
00023495 00000104 1094.35 224.47 367.82 569.52 1210.49 435.86 1363.62 470.14 1278.02 557.95 1192.06 633.29 1321.39 662.78
00023496 00000105 1094.56 226.39 368.09 566.89 1208.20 438.00 1362.80 473.15 1274.52 563.30 1189.29 636.64 1319.10 666.97
00023497 00000106 1094.51 227.83 367.62 567.25 1207.87 439.52 1361.46 474.04 1273.13 567.16 1189.96 639.77 1316.29 669.93
00023498 00000107 1094.95 228.03 365.44 568.17 1206.14 442.03 1358.39 473.65 1271.22 568.56 1192.11 644.27 1312.40 672.18
00023499 00000108 1094.27 224.46 365.65 573.17 1204.66 445.15 1353.59 477.61 1268.43 570.98 1191.69 644.43 1310.68 672.54
00023500 00000109 1093.78 224.73 365.22 573.50 1203.21 445.19 1352.49 478.16 1266.06 572.65 1188.02 644.78 1307.77 673.59
00023501 00000110 1093.49 226.72 365.08 575.54 1204.03 443.57 1353.02 479.24 1264.54 571.26 1185.33 643.46 1308.89 674.72
00023502 00000111 1092.51 227.93 365.22 572.77 1201.24 443.68 1352.96 480.33 1261.17 571.82 1181.46 643.43 1308.48 675.63
00023503 00000112 1092.53 228.56 364.47 572.37 1199.28 446.26 1351.36 480.02 1259.68 574.36 1182.62 649.14 1303.67 679.24
00023504 00000113 1092.63 229.96 364.12 569.06 1197.65 447.31 1350.27 479.24 1258.46 573.93 1182.33 650.32 1302.35 678.99
00023505 00000114 1092.25 230.03 364.64 567.34 1197.46 446.92 1350.27 479.44 1259.05 573.02 1182.26 648.42 1303.53 677.47
00023506 00000115 1091.58 230.19 366.39 566.87 1198.43 446.47 1350.65 480.54 1260.50 572.28 1182.70 643.93 1308.23 673.96
00023507 00000116 1091.11 231.78 366.38 564.18 1197.58 447.32 1350.91 482.79 1259.02 573.77 1179.49 641.91 1309.29 672.99
00023508 00000117 1090.01 233.64 366.73 563.45 1196.18 449.32 1349.16 484.03 1257.36 574.63 1178.29 644.50 1306.50 675.12
00023509 00000118 1089.47 235.41 366.63 564.54 1195.71 450.78 1347.99 485.46 1255.85 574.84 1177.18 646.71 1303.69 677.52
00023510 00000119 1089.99 234.37 364.69 566.63 1194.54 450.69 1346.61 484.65 1253.94 573.34 1176.87 649.57 1299.88 680.09
00023511 00000120 1090.24 232.74 364.04 569.72 1195.15 448.98 1346.80 482.88 1254.30 572.18 1176.48 650.17 1298.84 680.67
00023512 00000121 1090.02 229.90 364.09 571.56 1195.90 447.06 1346.71 482.47 1255.23 571.51 1175.94 645.46 1301.51 676.87
00023513 00000122 1089.72 230.29 364.30 567.69 1194.73 446.38 1345.83 482.05 1254.32 569.61 1175.22 642.29 1301.52 673.82
00023514 00000123 1089.47 230.80 363.24 566.49 1193.45 445.91 1345.44 480.91 1253.04 569.02 1174.29 642.35 1301.31 673.33
00023515 00000124 1088.06 229.57 363.89 568.16 1192.77 444.97 1345.64 480.29 1253.74 565.46 1174.56 641.27 1302.82 672.32
00023516 00000125 1087.33 228.73 364.48 570.07 1193.19 442.82 1347.29 479.50 1255.32 564.07 1174.95 638.75 1306.90 670.52
00023517 00000126 1085.24 228.09 365.82 569.38 1192.20 441.28 1347.05 478.87 1255.01 561.83 1172.87 635.97 1306.48 668.36
00023518 00000127 1084.60 226.50 364.35 569.34 1189.38 440.28 1345.43 477.01 1252.45 561.39 1170.64 635.96 1303.15 667.59
00023519 00000128 1082.54 226.03 364.33 570.31 1185.83 442.81 1342.73 478.64 1248.91 563.14 1167.14 637.83 1301.51 668.64
00023520 00000129 1081.19 228.21 363.00 570.10 1182.95 445.17 1338.76 479.27 1243.03 567.14 1165.93 643.92 1295.15 673.86
00023521 00000130 1077.79 228.83 361.26 569.83 1178.95 449.22 1332.62 479.07 1238.81 570.61 1167.70 653.40 1282.99 680.22
00023522 00000131 1074.15 225.23 360.49 570.04 1174.59 446.87 1328.65 475.58 1235.76 564.55 1166.45 650.40 1279.07 675.97
00023523 00000132 1074.04 220.92 359.52 567.91 1172.15 439.22 1325.43 469.29 1232.76 554.92 1162.46 639.86 1280.31 666.15
00023524 00000133 1072.08 222.49 360.21 559.22 1168.77 435.19 1323.88 468.61 1227.71 552.72 1153.95 631.27 1278.58 659.76
00023525 00000134 1069.23 223.52 361.80 557.17 1166.78 436.53 1321.94 470.47 1225.45 553.09 1150.02 630.31 1277.62 659.12
00023526 00000135 1065.96 225.41 364.42 553.27 1164.96 438.36 1320.19 473.07 1224.29 554.55 1147.59 629.57 1275.94 659.01
00023527 00000136 1065.24 230.40 362.59 549.49 1163.99 440.85 1318.73 476.84 1221.34 558.39 1145.08 631.36 1274.55 662.00
00023528 00000137 1064.33 231.23 363.58 555.12 1163.84 442.93 1318.13 482.68 1216.91 561.01 1140.56 633.12 1267.70 667.18
00023529 00000138 1063.75 229.64 361.00 561.15 1161.19 445.28 1313.18 486.32 1210.14 567.76 1133.77 637.52 1257.09 673.03
00023530 00000139 1061.75 235.32 361.43 554.75 1157.41 448.51 1307.33 492.00 1200.47 570.88 1127.52 635.45 1249.78 672.75
00023531 00000140 1057.20 235.63 371.39 561.82 1157.93 441.89 1305.64 500.75 1189.08 569.83 1119.94 628.10 1240.16 677.51
00023532 00000141 1055.54 237.93 372.66 565.71 1154.51 442.98 1300.10 507.42 1181.98 577.09 1114.23 632.26 1230.93 686.15
00023533 00000142 1054.80 238.75 367.21 567.54 1144.68 454.48 1296.14 514.34 1173.81 591.04 1104.39 646.52 1226.34 696.63
00023534 00000143 1055.05 242.34 367.08 564.87 1143.70 458.62 1297.09 515.07 1176.56 594.43 1106.74 651.09 1230.57 698.21
00023535 00000144 1056.17 238.69 364.71 567.02 1149.04 456.19 1299.78 501.54 1188.57 585.29 1119.99 652.05 1238.44 690.45
00023536 00000145 1059.64 234.09 358.22 565.07 1150.81 453.43 1300.29 490.32 1195.96 578.55 1128.78 652.93 1240.12 684.86
00023537 00000146 1059.93 232.79 355.92 562.51 1150.45 452.31 1299.16 489.05 1196.47 577.39 1128.61 650.34 1239.05 682.07
00023538 00000147 1057.77 234.89 356.26 561.33 1147.26 453.18 1295.53 489.90 1191.79 578.64 1125.22 650.88 1236.09 682.35
00023539 00000148 1057.75 231.24 356.72 557.81 1145.20 449.54 1296.47 484.84 1192.95 574.36 1127.80 645.52 1248.19 675.49
00023540 00000149 1054.03 228.41 362.10 564.36 1147.64 440.66 1296.09 486.11 1188.48 568.07 1125.50 635.27 1240.06 673.16
00023541 00000150 1054.23 228.99 361.60 556.01 1149.00 438.13 1299.92 485.50 1191.24 564.92 1124.54 629.19 1243.62 668.64
00023542 00000151 1054.00 228.07 361.89 550.40 1148.48 436.07 1300.22 483.73 1191.16 563.57 1124.04 625.39 1244.83 664.97
00023543 00000152 1053.36 226.76 362.56 548.92 1148.63 435.73 1301.05 483.90 1192.03 563.09 1123.23 623.34 1245.70 663.34
00023544 00000153 1052.76 227.49 363.65 547.74 1149.29 436.83 1302.03 485.26 1193.94 563.65 1123.63 623.37 1246.36 663.66
00023545 00000154 1055.95 227.71 362.84 550.68 1154.32 442.06 1305.50 491.34 1198.58 566.75 1126.28 623.34 1246.20 664.85
00023546 00000155 1058.00 230.10 362.16 549.47 1156.01 444.20 1307.29 491.21 1201.11 566.25 1127.06 625.15 1247.20 665.05
00023547 00000156 1059.74 229.43 362.93 551.53 1156.36 442.92 1308.31 489.07 1200.77 565.87 1127.88 626.06 1248.82 665.32
00023548 00000157 1061.38 226.94 363.52 552.79 1157.39 439.93 1310.63 486.87 1201.08 563.23 1128.45 624.15 1250.55 664.16
00023549 00000158 1063.71 223.05 362.16 557.05 1158.80 437.50 1311.75 484.00 1202.84 560.57 1131.01 623.18 1253.37 663.03
00023550 00000159 1066.13 222.14 363.04 556.93 1160.83 434.91 1313.97 481.87 1204.26 558.67 1132.38 622.01 1255.33 662.39
00023551 00000160 1068.21 221.30 363.69 558.64 1163.23 432.25 1316.52 480.63 1205.77 557.94 1133.59 621.10 1257.36 662.79
00023552 00000161 1071.08 226.03 358.73 556.88 1164.20 434.98 1314.72 476.74 1208.10 555.89 1137.50 628.66 1259.86 664.41
00023553 00000162 1073.11 226.29 358.12 557.69 1166.26 435.22 1317.05 477.55 1210.21 557.37 1139.78 630.81 1260.46 666.96
