Video ID: 	GGOB11wrYfA
H: 	1080
W: 	1920
FPS: 	25.0

FRAME INDEX X0 Y0 W H [Landmarks (5 Points)]

00015574 00000000 558.69 325.30 464.13 557.81 623.73 557.23 816.53 543.91 697.37 692.11 692.65 767.76 837.47 755.04
00015575 00000001 557.85 324.87 467.61 551.44 621.81 552.67 815.25 541.55 695.00 691.71 690.02 762.21 837.21 750.90
00015576 00000002 556.93 325.15 467.17 546.92 619.81 548.12 813.44 541.23 691.75 692.86 686.71 754.24 836.41 745.96
00015577 00000003 557.10 325.43 466.90 545.96 619.39 545.75 810.00 539.94 688.59 691.64 687.62 751.63 835.10 744.03
00015578 00000004 555.25 322.02 468.31 548.69 619.31 543.32 807.51 537.80 686.10 687.55 686.34 750.95 829.84 743.85
00015579 00000005 558.33 317.39 464.60 549.82 618.06 537.34 807.41 536.68 683.85 683.77 679.32 745.89 824.76 742.98
00015580 00000006 556.06 313.10 465.01 551.66 614.42 529.94 803.69 531.63 679.65 681.70 674.59 740.25 821.07 739.36
00015581 00000007 555.79 310.62 464.71 551.59 613.68 528.64 801.62 530.50 678.44 679.95 674.68 735.78 820.88 734.94
00015582 00000008 556.67 302.80 464.55 558.77 614.14 528.14 803.64 528.76 680.05 675.85 674.13 735.20 821.21 733.50
00015583 DELETE   557.01 307.07 464.71 553.25 618.56 531.05 805.62 530.56 683.18 668.43 677.71 732.06 821.99 729.12
00015584 00000010 556.11 308.42 468.22 550.99 615.22 529.31 805.43 531.04 679.04 668.07 676.38 731.33 821.96 730.20
00015585 DELETE   557.48 305.69 464.81 552.27 616.88 529.49 806.27 531.50 681.43 667.89 674.85 729.45 821.99 728.57
00015586 00000012 559.50 303.60 462.56 554.82 616.11 530.95 804.76 526.73 681.56 664.59 673.53 731.70 821.41 725.90
00015587 00000013 557.11 296.89 460.76 563.01 614.40 527.53 799.39 522.88 677.81 661.67 672.50 732.98 817.47 726.90
00015588 00000014 556.97 296.16 459.67 567.08 613.08 524.22 797.37 518.07 673.15 657.12 672.92 736.86 813.97 729.65
00015589 00000015 553.51 292.94 460.25 570.57 611.48 516.77 793.81 513.72 668.17 652.76 671.31 730.97 811.87 726.16
00015590 00000016 550.71 284.60 461.01 566.30 608.70 510.45 788.94 511.16 661.50 646.70 663.24 713.34 810.88 711.38
00015591 DELETE   555.42 275.92 448.18 562.05 598.85 489.63 771.04 502.21 635.36 640.56 652.71 697.72 794.14 706.04
00015592 DELETE   547.09 262.95 445.43 565.58 596.66 479.20 754.76 491.85 625.17 624.44 643.52 683.14 774.15 692.27
00015593 00000019 544.28 251.96 447.82 572.04 592.68 472.98 746.24 481.18 610.66 606.12 631.39 678.76 757.67 684.71
00015594 00000020 544.83 245.77 442.19 573.98 589.24 463.17 736.95 473.37 597.24 593.84 620.68 674.97 738.02 682.70
00015595 00000021 544.78 241.77 432.69 565.77 582.84 457.08 731.35 468.29 588.34 586.99 609.07 669.64 728.44 678.35
00015596 00000022 533.89 234.10 435.14 568.95 568.97 447.38 733.64 462.83 580.91 587.85 606.72 673.05 721.30 685.47
00015597 00000023 534.02 235.63 432.94 565.65 569.43 447.90 730.57 462.02 579.82 587.71 608.11 672.86 719.42 684.37
00015598 00000024 532.21 234.50 435.24 568.59 567.74 448.73 729.42 460.47 579.93 587.25 607.72 674.64 718.21 684.45
00015599 00000025 541.66 247.61 428.22 554.39 574.18 459.28 719.63 465.64 577.41 588.40 605.07 672.17 716.78 676.89
00015600 00000026 539.95 247.03 428.94 558.10 575.15 460.11 718.39 465.54 579.16 588.53 606.84 673.51 715.95 677.61
00015601 00000027 538.55 246.24 430.10 562.72 575.23 459.76 719.77 466.88 582.02 589.86 606.17 675.67 713.15 681.35
00015602 00000028 539.12 244.75 428.43 568.48 576.14 458.25 719.52 467.98 580.94 590.95 607.13 675.89 713.09 683.65
00015603 00000029 538.30 242.74 430.94 575.31 575.94 460.26 719.13 468.23 580.06 590.97 610.12 678.69 715.64 684.92
00015604 00000030 537.92 243.24 432.19 576.78 576.86 459.97 717.91 467.74 579.56 590.71 614.24 677.77 721.14 683.60
00015605 00000031 537.53 243.95 432.52 579.01 577.52 460.81 718.10 467.66 581.45 590.24 617.64 677.11 726.97 681.94
00015606 00000032 537.21 247.33 435.40 577.91 578.50 461.34 718.42 466.96 581.77 589.52 620.88 677.23 730.42 680.92
00015607 00000033 536.10 245.03 438.13 580.91 578.69 459.64 722.19 465.15 585.54 591.06 621.76 676.56 734.84 680.23
00015608 00000034 536.64 244.93 440.60 578.06 580.19 458.28 727.23 460.78 589.80 587.07 621.91 676.00 736.83 677.49
00015609 00000035 538.22 240.90 441.02 580.61 581.65 455.31 731.55 458.19 590.31 584.65 621.51 675.78 738.42 677.61
00015610 00000036 536.05 236.92 444.99 585.23 584.86 455.88 737.23 457.95 596.01 583.03 623.43 676.31 742.39 677.70
00015611 00000037 541.08 233.45 444.77 587.35 591.51 455.79 745.44 459.63 604.73 585.00 625.72 674.89 748.39 677.98
00015612 00000038 543.78 232.42 447.53 587.91 597.08 455.17 758.42 460.83 616.53 584.02 630.53 673.42 758.07 677.84
00015613 00000039 546.80 229.79 450.14 590.45 599.22 454.64 768.06 459.89 625.50 588.75 635.14 675.03 767.57 678.82
00015614 00000040 552.70 232.34 449.53 588.94 603.47 454.31 775.97 457.17 636.15 588.61 642.15 676.66 776.81 678.24
00015615 00000041 558.48 236.45 451.09 583.14 606.43 454.13 783.10 456.13 642.47 589.73 647.24 677.91 784.61 678.52
00015616 00000042 562.67 239.86 455.23 578.25 610.58 450.71 789.87 455.71 646.86 589.88 650.82 676.39 790.77 679.15
00015617 00000043 567.26 233.32 453.40 581.63 617.88 451.37 796.09 452.23 651.84 589.78 656.81 676.44 794.16 676.77
00015618 00000044 566.16 236.94 458.23 577.42 614.45 445.59 801.68 450.66 653.62 589.93 655.49 678.94 799.29 681.37
00015619 00000045 568.49 235.28 459.85 575.70 617.52 447.73 802.68 451.23 656.77 588.52 657.64 675.37 802.97 676.67
00015620 00000046 570.88 235.17 460.70 576.00 621.38 446.10 807.01 449.04 662.21 584.92 659.87 673.88 805.48 675.01
00015621 00000047 579.81 230.73 457.45 581.92 632.32 452.30 814.15 452.83 673.60 580.01 667.47 672.88 811.42 672.50
00015622 DELETE   586.91 225.53 455.11 583.40 644.54 460.06 820.99 455.20 687.29 566.49 679.44 670.28 815.96 665.77
00015623 DELETE   594.70 220.08 455.68 584.34 653.43 453.39 837.25 449.91 704.13 560.61 688.03 663.11 829.66 659.76
00015624 DELETE   604.73 207.84 456.16 588.22 663.60 441.46 846.37 438.31 714.10 554.81 698.89 653.35 841.82 650.63
00015625 00000051 610.59 208.27 451.71 581.37 675.56 433.94 865.91 429.05 733.59 541.61 709.46 647.36 854.07 642.10
00015626 00000052 606.32 210.91 458.19 569.33 675.26 424.20 872.89 421.51 733.22 541.96 700.01 634.31 862.32 630.85
00015627 00000053 607.28 211.94 460.43 571.66 677.73 422.63 878.78 418.39 739.25 541.04 703.00 635.85 867.59 631.33
00015628 00000054 608.18 212.51 462.39 577.94 679.99 420.82 881.28 414.96 742.49 542.89 709.77 642.50 870.86 636.97
00015629 00000055 613.73 207.80 458.70 585.88 686.88 424.64 880.30 418.35 750.18 543.11 724.68 647.01 870.75 640.78
00015630 00000056 615.53 210.20 457.35 582.39 687.11 426.59 880.72 421.64 749.95 548.83 725.27 650.17 869.60 645.06
00015631 00000057 617.38 214.71 456.00 574.83 686.38 428.76 881.86 425.12 750.27 553.94 724.32 651.22 870.17 647.25
00015632 00000058 616.56 217.97 456.85 567.63 685.13 428.78 881.51 426.10 750.97 554.28 723.19 647.97 870.43 644.74
00015633 00000059 616.98 220.14 455.85 564.27 686.40 429.36 883.43 428.23 754.19 558.46 723.75 646.70 871.91 644.82
00015634 00000060 618.84 221.99 455.74 566.02 688.72 430.66 883.63 430.77 754.85 560.86 726.06 650.28 870.07 649.52
00015635 00000061 619.91 224.68 454.49 565.15 687.55 431.48 882.65 432.25 751.94 563.47 724.40 652.74 869.68 652.34
00015636 00000062 621.21 225.03 454.02 565.31 687.03 432.60 883.20 435.43 749.99 566.60 721.15 652.12 870.78 653.17
00015637 00000063 621.01 228.25 454.77 566.03 687.11 432.56 882.58 436.08 746.74 567.34 719.61 653.63 870.77 655.00
00015638 00000064 621.82 225.68 455.86 578.52 689.33 434.51 882.75 434.60 746.83 566.50 723.36 660.22 872.54 658.84
00015639 00000065 625.60 235.89 449.68 574.06 691.70 437.79 882.66 435.06 747.51 559.84 720.73 664.41 874.94 660.94
00015640 00000066 625.98 238.12 450.22 575.47 694.42 438.81 885.41 436.00 751.59 558.71 723.54 663.82 880.31 660.12
00015641 00000067 627.36 239.37 451.67 575.74 697.43 442.45 889.06 439.46 756.03 560.48 727.44 664.48 887.05 660.28
00015642 00000068 627.31 232.14 460.10 580.79 695.16 440.29 892.73 440.98 755.56 571.81 728.85 665.99 886.86 665.04
00015643 00000069 629.29 234.77 458.63 577.55 693.99 448.84 894.10 451.85 756.32 580.92 726.65 669.00 889.45 669.71
00015644 00000070 629.34 243.20 455.41 569.24 693.63 463.38 891.03 467.53 754.96 588.69 726.74 672.16 888.90 673.23
00015645 00000071 625.08 252.20 452.81 558.66 693.59 467.55 888.93 468.70 750.43 583.91 721.71 670.12 886.71 669.15
00015646 00000072 630.88 250.63 446.97 562.04 696.16 461.74 887.23 464.68 747.12 582.60 721.16 669.81 884.20 670.46
00015647 00000073 631.19 241.10 453.00 575.53 691.12 453.91 885.11 458.31 745.79 587.39 724.78 673.49 884.03 674.81
00015648 00000074 628.40 238.18 457.98 578.15 691.42 449.34 887.86 452.51 747.93 582.66 726.16 671.96 884.15 672.52
00015649 00000075 627.28 233.20 461.52 582.25 692.39 445.57 890.48 447.55 750.66 577.40 726.78 670.88 884.85 670.80
00015650 00000076 627.25 232.27 461.68 582.25 693.32 443.45 890.45 445.04 751.49 576.45 728.49 670.71 884.39 670.48
00015651 00000077 627.59 233.30 461.70 582.35 694.40 443.91 892.10 444.71 753.79 577.24 730.93 673.80 884.47 672.96
00015652 00000078 629.26 235.80 461.68 584.36 696.74 444.74 894.23 444.77 754.71 577.50 733.86 680.05 883.00 678.85
00015653 00000079 629.13 236.07 462.43 584.44 697.00 444.69 896.74 446.38 757.10 581.52 735.74 681.52 883.27 682.03
00015654 00000080 628.32 238.61 462.81 577.73 696.91 445.55 897.16 450.29 758.52 584.33 733.47 674.86 887.14 677.72
00015655 00000081 629.63 238.33 462.13 574.10 698.37 444.62 897.91 449.06 760.64 581.68 732.56 668.93 891.26 671.41
00015656 00000082 631.13 239.25 461.27 574.79 700.61 443.14 897.66 447.31 761.55 580.00 733.77 666.08 893.24 668.17
00015657 00000083 631.79 238.85 461.94 575.81 700.95 442.96 898.00 446.22 761.52 580.15 734.86 668.03 891.58 669.68
00015658 00000084 633.11 238.64 461.62 575.81 701.63 442.93 898.12 445.13 761.73 578.19 736.24 670.42 888.58 671.45
00015659 00000085 632.45 239.15 461.54 572.61 699.99 443.16 898.37 446.23 762.08 579.05 734.32 669.52 889.19 671.17
00015660 00000086 632.06 235.61 460.46 570.04 698.20 442.90 895.45 446.77 760.95 580.18 732.86 664.22 890.43 666.32
00015661 00000087 631.66 234.61 460.50 568.56 697.84 442.13 893.94 446.02 759.95 579.85 732.07 660.78 890.12 662.77
00015662 00000088 632.01 235.20 459.65 573.72 700.53 441.96 894.25 444.43 760.57 577.34 733.61 661.73 890.10 662.53
00015663 00000089 632.97 235.85 459.69 577.40 702.43 442.46 895.39 443.15 761.31 574.71 736.22 667.54 886.96 667.22
00015664 00000090 636.97 234.19 457.17 580.28 705.10 455.37 898.89 455.69 765.08 577.93 736.09 670.67 889.18 669.95
00015665 00000091 634.60 236.17 461.01 572.25 705.71 458.79 903.59 460.87 773.52 584.61 737.42 666.81 899.09 667.30
00015666 00000092 638.53 239.64 459.34 565.75 711.69 454.03 910.93 458.14 781.84 585.49 740.17 663.41 901.66 666.42
00015667 00000093 639.82 237.55 459.40 570.09 714.15 449.10 913.89 451.45 785.70 582.65 745.44 663.46 905.54 665.39
00015668 00000094 639.63 237.18 460.61 572.85 714.44 444.97 915.46 445.74 787.11 580.95 746.58 664.21 906.96 664.97
00015669 00000095 639.48 236.10 461.78 569.30 713.62 442.86 914.44 443.46 785.85 580.08 745.61 661.37 905.55 661.99
00015670 00000096 638.37 235.53 462.44 571.67 713.56 440.30 912.02 441.45 783.11 575.67 744.52 661.05 901.01 662.06
00015671 00000097 636.31 234.97 463.60 575.74 713.43 440.18 910.20 440.25 781.59 572.08 747.77 666.67 896.61 666.77
00015672 00000098 636.39 235.46 462.22 575.73 712.73 441.48 909.69 439.77 780.78 571.36 748.05 670.74 894.63 669.31
00015673 00000099 633.95 233.75 464.59 577.15 710.88 441.94 910.86 441.77 782.00 576.44 747.09 669.08 901.00 668.71
00015674 00000100 635.50 234.93 463.31 569.82 708.27 442.21 911.66 445.34 780.82 581.41 740.31 663.73 903.35 666.01
00015675 00000101 635.02 235.94 463.55 568.93 707.94 441.74 909.98 444.82 780.08 582.38 741.26 663.07 904.00 665.28
00015676 00000102 636.01 233.84 463.47 579.09 709.73 442.27 911.10 443.50 780.24 581.62 742.43 665.80 906.63 666.72
00015677 00000103 637.42 236.23 461.54 579.91 710.96 443.24 911.88 444.03 780.83 582.62 743.94 667.84 906.80 668.37
00015678 00000104 637.29 237.65 461.62 579.92 710.19 444.05 911.06 446.03 778.97 586.52 742.96 670.12 905.03 671.51
00015679 00000105 638.28 238.93 460.67 581.44 708.70 448.73 908.39 450.11 775.13 589.13 742.72 675.82 901.67 676.59
00015680 00000106 636.16 241.62 462.15 579.44 705.06 451.41 905.84 454.47 770.30 594.29 740.52 679.61 896.84 681.59
00015681 00000107 636.37 240.08 462.35 580.88 703.77 451.80 904.34 454.39 768.11 596.30 739.22 681.48 894.61 683.14
00015682 00000108 636.26 240.28 462.46 579.38 703.17 450.21 905.17 453.22 767.80 594.46 739.60 682.44 893.88 684.50
00015683 00000109 634.82 239.79 462.47 574.48 704.23 448.00 907.23 451.70 772.64 590.46 738.69 674.51 896.24 677.26
00015684 00000110 635.27 240.59 460.80 565.92 703.98 444.68 907.95 451.02 773.94 588.65 736.43 668.28 897.99 673.01
00015685 00000111 635.86 240.96 460.66 566.69 705.50 442.90 907.86 448.86 774.31 587.31 737.91 666.36 899.27 670.82
00015686 00000112 635.66 239.48 460.97 572.56 706.77 444.14 907.94 448.05 774.93 584.91 739.52 669.55 898.77 672.37
00015687 00000113 636.06 240.33 461.29 575.12 707.08 445.75 907.74 447.52 773.85 585.68 742.85 675.84 896.40 677.15
00015688 00000114 634.55 240.26 463.17 572.30 705.43 449.27 908.39 451.88 776.31 590.48 742.03 676.61 898.51 678.50
00015689 00000115 634.66 242.90 462.53 569.48 704.61 449.37 909.49 454.71 775.31 595.17 740.25 675.41 900.56 679.32
00015690 00000116 635.17 242.72 462.10 571.46 706.37 447.92 909.97 452.37 776.82 593.53 741.22 674.01 901.59 677.23
00015691 00000117 637.78 242.39 461.39 572.07 708.44 446.35 911.20 449.98 778.87 591.52 742.41 672.09 903.98 674.75
00015692 00000118 638.29 244.27 460.91 569.20 709.38 446.58 912.60 449.58 780.82 590.20 743.68 673.20 903.32 675.57
00015693 00000119 638.32 240.93 462.14 575.98 711.17 446.51 912.42 447.36 782.07 587.38 747.01 673.75 904.53 674.47
00015694 00000120 638.88 237.26 462.60 579.89 710.86 445.36 912.08 444.46 781.68 586.46 748.58 675.42 904.71 674.77
00015695 00000121 638.02 235.69 463.55 580.67 710.25 447.28 910.84 444.46 781.68 586.66 748.46 675.92 905.29 673.65
00015696 00000122 636.08 235.17 463.69 580.39 709.30 453.09 907.63 451.22 779.28 586.99 748.33 677.95 902.69 676.03
00015697 00000123 633.88 234.30 461.88 579.30 704.24 448.56 901.02 445.37 772.70 581.27 746.11 674.63 898.80 671.18
00015698 00000124 630.28 232.83 464.25 576.15 697.95 443.25 891.76 444.08 759.50 578.55 737.08 665.93 890.97 665.53
00015699 00000125 629.51 231.35 460.67 567.91 691.43 438.36 885.35 444.90 747.11 577.85 726.23 658.81 878.15 662.76
00015700 00000126 627.43 228.87 456.14 567.16 687.37 434.68 876.64 440.82 736.13 569.95 719.50 654.79 867.72 658.22
00015701 00000127 625.46 225.45 453.43 572.05 683.57 431.78 868.31 437.54 725.19 564.96 715.40 653.73 859.18 656.76
00015702 00000128 623.12 221.53 452.37 573.92 679.82 432.69 861.00 436.56 717.02 558.60 710.98 653.66 848.65 655.37
00015703 00000129 622.88 219.73 447.92 571.70 677.71 429.37 856.31 438.11 709.25 553.24 703.62 649.69 837.77 655.15
00015704 00000130 618.85 218.07 451.41 569.50 669.86 427.45 851.38 437.01 701.07 552.23 697.15 648.35 832.03 654.70
00015705 00000131 614.74 215.98 454.23 571.69 665.84 425.25 848.02 436.52 695.54 552.96 693.09 645.41 829.96 653.20
00015706 00000132 615.96 212.15 458.21 577.24 662.37 424.89 834.89 435.23 689.44 559.11 692.97 648.45 823.68 656.45
00015707 00000133 614.34 211.18 458.01 581.32 661.77 426.14 832.52 436.27 688.72 560.27 692.28 650.53 820.67 658.53
00015708 00000134 610.51 220.59 450.31 572.59 661.20 437.99 831.70 437.19 693.78 558.74 692.58 656.23 821.37 655.68
00015709 00000135 607.61 228.84 450.84 569.10 662.58 444.14 832.61 443.64 695.78 566.26 694.74 659.20 825.90 658.87
00015710 00000136 606.09 230.11 453.18 572.21 662.66 447.80 829.79 450.23 692.33 574.18 694.46 663.29 823.59 665.24
00015711 00000137 606.37 231.38 452.80 571.77 662.25 447.54 830.30 451.43 692.18 576.03 693.99 664.91 822.97 667.94
00015712 00000138 605.10 229.35 453.33 575.69 661.53 448.95 831.06 450.85 692.71 574.29 693.94 668.27 820.99 669.91
00015713 00000139 606.99 222.24 449.22 587.10 664.70 449.07 832.58 445.43 696.65 566.03 698.88 669.77 823.67 666.97
00015714 00000140 607.41 225.96 448.77 584.00 666.60 447.48 834.18 440.97 701.05 560.26 701.77 667.59 827.17 662.56
00015715 00000141 607.42 223.67 449.73 587.68 665.16 447.99 833.95 440.55 700.25 560.15 703.12 667.05 833.19 660.98
00015716 00000142 605.52 221.07 452.58 584.85 662.12 450.99 832.57 442.75 699.65 562.97 700.58 665.02 835.60 658.17
00015717 00000143 606.54 220.74 447.89 583.26 662.30 460.78 829.97 455.13 695.02 564.53 696.69 662.74 834.83 657.68
00015718 00000144 605.52 219.47 446.58 585.24 659.85 460.99 827.43 457.25 690.38 568.26 693.36 664.12 830.00 660.70
00015719 00000145 599.04 222.86 450.53 582.59 653.98 454.90 821.25 456.08 683.10 573.99 685.22 663.74 820.58 664.58
00015720 00000146 593.78 231.05 455.35 572.83 642.49 447.03 812.49 455.00 669.61 574.28 672.35 666.91 801.24 672.88
00015721 00000147 589.50 217.85 454.04 579.24 637.49 432.86 809.45 446.42 662.59 565.39 663.21 655.29 791.06 666.05
00015722 00000148 585.49 214.60 456.29 572.38 634.61 423.62 810.44 436.74 660.79 551.63 656.65 643.17 787.54 653.76
00015723 00000149 584.43 198.72 455.06 579.04 638.76 413.93 810.57 425.09 660.21 532.13 654.04 626.44 788.02 635.91
00015724 00000150 583.03 186.82 456.43 580.78 637.80 407.68 809.59 416.98 656.81 523.75 653.08 619.03 787.67 627.17
00015725 00000151 583.84 188.02 457.65 581.03 638.69 407.68 809.46 415.97 657.92 523.80 655.58 619.22 791.01 626.52
00015726 00000152 582.22 195.16 459.93 584.53 637.22 413.53 810.27 421.57 660.14 531.09 656.70 627.21 793.90 634.12
00015727 00000153 580.44 209.99 459.36 580.31 632.92 420.87 810.24 431.30 661.33 549.18 657.81 645.52 789.21 654.06
00015728 00000154 581.26 220.95 458.04 582.68 632.29 430.02 807.29 436.88 660.65 556.25 662.83 663.41 787.21 668.50
00015729 00000155 581.52 223.08 455.94 584.27 632.36 432.46 807.91 437.76 660.97 557.05 663.79 669.95 787.49 673.60
00015730 00000156 582.29 218.31 458.54 584.97 631.56 430.06 809.85 437.91 657.87 552.83 658.81 659.91 792.91 665.77
00015731 00000157 582.67 213.61 459.65 582.22 632.19 423.27 814.08 434.41 661.05 551.78 656.26 647.82 797.99 656.56
00015732 00000158 586.82 208.44 459.15 583.01 637.34 418.66 817.22 427.69 665.37 542.21 657.63 640.13 801.49 647.43
00015733 00000159 587.89 211.99 460.66 584.05 639.60 419.72 818.89 425.53 670.66 542.84 665.46 645.31 804.90 650.08
00015734 00000160 588.26 211.26 460.45 590.81 641.23 424.15 820.87 429.24 674.90 547.94 669.53 651.08 808.04 655.21
00015735 00000161 587.76 216.26 461.00 586.88 640.13 426.26 822.07 433.12 675.73 552.61 669.68 654.53 807.79 659.87
00015736 00000162 591.24 219.96 458.56 585.12 642.71 428.95 822.49 436.99 676.05 555.59 671.88 658.89 806.86 665.27
00015737 00000163 593.43 222.09 456.11 584.24 645.48 432.93 825.67 440.56 679.53 558.50 674.61 663.12 809.63 669.18
00015738 00000164 598.22 224.72 448.50 577.09 654.70 438.97 828.30 438.44 685.53 556.00 683.28 659.42 818.57 659.06
00015739 00000165 601.89 223.45 446.85 578.02 658.92 436.92 832.88 438.08 690.99 556.39 685.93 658.18 822.07 659.31
00015740 00000166 603.67 225.97 448.64 576.49 662.74 434.92 837.95 437.35 696.70 554.54 690.17 656.79 827.54 659.01
00015741 00000167 607.74 224.22 448.13 579.29 666.02 433.91 844.41 436.45 703.82 556.12 695.31 656.08 835.50 658.40
00015742 00000168 615.80 221.75 448.30 585.29 671.69 438.02 849.88 443.80 710.78 559.29 701.88 656.16 840.41 660.72
00015743 00000169 618.57 218.73 453.65 589.14 678.75 439.93 856.63 443.88 720.29 561.14 714.23 657.36 850.64 660.20
00015744 00000170 624.92 220.28 451.00 589.25 683.04 434.26 865.26 438.07 726.04 563.32 719.35 659.81 858.42 662.48
