Video ID: 	zLTOawVKXEA
H: 	1080
W: 	1920
FPS: 	25.0

FRAME INDEX X0 Y0 W H [Landmarks (5 Points)]

00053621 00000000 828.67 113.17 499.76 733.02 875.39 424.38 1014.07 445.56 855.54 583.19 920.77 675.51 1031.78 688.50
00053622 DELETE   825.26 122.11 504.51 728.34 874.32 432.63 1013.53 456.76 854.73 589.57 924.14 675.98 1037.07 691.33
00053623 DELETE   823.14 123.62 504.74 733.15 874.86 433.96 1009.28 462.11 852.44 595.01 927.01 677.26 1036.98 695.49
00053624 DELETE   822.30 123.53 504.07 737.22 873.51 435.38 1005.21 463.60 849.69 597.83 925.39 680.51 1034.49 698.57
00053625 00000004 821.21 133.97 495.46 722.39 871.33 436.70 1001.95 465.81 847.72 598.45 921.37 679.45 1028.84 698.25
00053626 DELETE   820.44 132.06 493.06 722.66 872.59 436.11 998.49 464.37 844.17 595.00 918.51 678.83 1021.70 696.75
00053627 00000006 818.41 134.53 493.93 719.16 871.02 437.68 997.11 464.88 843.56 595.00 916.82 678.05 1020.40 695.09
00053628 DELETE   815.80 136.03 495.55 722.14 868.70 439.33 996.86 465.72 843.63 597.36 914.99 679.34 1021.83 696.01
00053629 00000008 816.27 129.99 497.63 724.77 867.35 437.54 998.84 465.99 843.78 596.53 912.34 676.34 1022.85 694.43
00053630 DELETE   817.00 123.89 500.35 734.60 867.10 437.81 1002.99 463.99 848.43 597.38 915.10 676.54 1031.79 692.90
00053631 00000010 816.20 121.54 503.42 738.33 868.35 436.79 1006.91 463.77 852.49 600.78 918.90 676.42 1037.71 693.18
00053632 DELETE   817.31 115.83 503.77 744.27 867.85 438.77 1010.01 461.43 857.24 606.12 923.51 681.64 1043.04 694.85
00053633 00000012 819.25 126.03 508.26 743.76 872.55 444.32 1016.89 463.86 863.06 606.00 930.45 687.74 1051.33 698.65
00053634 00000013 821.36 123.81 510.54 750.67 874.70 448.36 1023.28 464.28 869.92 606.90 936.02 689.84 1064.17 697.93
00053635 00000014 827.18 140.71 517.53 732.89 877.91 454.65 1046.12 470.74 884.45 614.92 941.07 694.03 1082.01 702.73
00053636 00000015 830.51 142.57 522.88 734.88 885.96 465.68 1061.66 470.93 903.38 612.60 946.09 700.09 1096.00 699.94
00053637 00000016 832.67 139.91 529.84 736.48 891.56 465.01 1077.39 464.42 919.99 609.75 954.40 706.23 1102.94 702.42
00053638 00000017 842.24 138.50 527.96 744.89 906.56 462.82 1089.23 463.32 936.31 603.45 964.02 704.75 1109.37 702.46
00053639 00000018 847.51 132.64 528.99 752.78 914.27 466.72 1096.99 459.64 947.86 597.72 968.83 702.74 1124.69 693.77
00053640 00000019 854.30 134.03 525.98 740.72 921.74 460.92 1105.20 457.30 957.26 597.12 973.96 699.88 1123.54 694.75
00053641 00000020 863.12 142.41 520.82 727.40 928.06 459.77 1108.67 458.22 961.72 597.08 978.19 696.38 1124.64 693.08
00053642 00000021 865.95 142.94 519.80 722.45 930.94 460.82 1111.04 460.70 963.73 597.04 978.04 695.38 1124.28 693.32
00053643 00000022 868.74 141.54 517.96 721.14 932.70 462.16 1113.92 462.40 966.28 598.22 976.94 695.33 1123.31 693.89
00053644 00000023 872.28 141.50 517.12 720.77 935.28 460.44 1119.99 462.40 970.30 596.97 976.82 692.79 1127.24 692.98
00053645 00000024 870.81 145.41 521.29 718.46 936.67 462.53 1122.23 464.43 973.46 602.73 981.27 693.48 1132.66 693.26
00053646 00000025 863.15 143.21 527.04 745.64 927.02 468.14 1106.47 468.71 955.07 608.90 976.83 699.30 1137.03 696.30
00053647 00000026 861.03 145.80 521.30 749.35 921.44 463.28 1098.98 468.51 944.09 606.32 970.73 699.47 1130.39 700.17
00053648 00000027 860.68 141.58 521.63 747.79 919.06 457.88 1098.32 465.15 941.04 601.27 965.16 693.19 1129.10 695.60
00053649 00000028 865.86 126.91 522.03 761.20 922.49 451.29 1101.86 459.12 943.05 596.50 964.34 685.87 1131.78 689.03
00053650 00000029 872.07 119.39 522.28 765.66 930.02 438.73 1108.43 449.18 947.58 592.73 976.74 678.22 1143.81 682.98
00053651 00000030 877.41 123.79 516.44 740.21 929.78 437.54 1113.78 446.40 951.97 589.70 976.44 682.21 1132.46 686.45
00053652 00000031 877.30 120.57 514.25 737.13 928.56 433.72 1111.14 448.65 947.01 588.28 968.51 680.58 1117.18 690.31
00053653 00000032 879.74 119.66 511.85 745.28 932.09 434.17 1110.12 449.29 946.41 587.37 971.17 683.45 1115.51 693.44
00053654 00000033 882.34 123.50 510.61 738.27 933.34 434.50 1109.85 452.84 945.34 591.29 972.93 684.10 1115.69 696.25
00053655 00000034 881.20 129.24 510.24 732.35 931.75 435.04 1108.94 456.30 944.20 593.27 968.68 683.81 1113.09 698.25
00053656 00000035 881.39 135.69 507.04 727.87 930.76 437.37 1107.67 459.84 942.22 595.07 965.24 686.85 1107.67 702.75
00053657 00000036 881.99 135.55 507.03 733.87 928.68 438.84 1105.97 462.96 937.14 596.92 961.98 693.93 1097.86 711.59
00053658 00000037 876.62 123.15 517.04 773.96 930.69 437.66 1100.34 460.94 928.62 594.03 959.69 709.27 1081.89 727.00
00053659 00000038 869.60 117.65 521.66 794.23 939.09 440.42 1097.33 451.60 935.64 589.18 964.94 723.50 1081.19 731.14
00053660 00000039 868.95 116.40 521.69 794.71 937.45 442.17 1098.33 453.12 936.83 591.38 964.11 723.29 1082.06 730.86
00053661 00000040 869.54 121.25 520.96 787.89 936.05 443.68 1097.58 455.58 935.21 593.70 963.36 723.31 1081.49 731.68
00053662 00000041 869.62 126.23 518.27 780.12 934.90 445.65 1098.53 458.59 934.69 596.18 960.64 722.00 1082.95 731.13
00053663 00000042 869.00 129.91 519.33 776.03 931.56 449.68 1096.89 461.63 931.89 599.59 958.03 723.08 1085.36 731.18
00053664 00000043 868.14 132.39 515.73 769.29 928.77 452.41 1096.09 463.72 931.92 601.98 955.60 722.89 1083.70 730.66
00053665 00000044 867.63 138.03 514.05 760.22 928.45 452.96 1094.94 466.01 932.20 605.26 957.42 721.66 1085.31 730.46
00053666 00000045 869.93 154.36 513.50 743.23 923.65 459.52 1095.61 482.42 930.13 610.62 962.37 715.94 1089.28 733.94
00053667 00000046 869.30 148.90 508.45 742.76 920.61 455.57 1094.69 477.25 929.43 613.22 957.31 711.91 1092.45 727.85
00053668 00000047 869.44 153.22 507.47 739.61 920.22 456.23 1094.21 476.75 931.27 616.30 960.74 710.04 1099.45 724.60
00053669 00000048 867.21 154.19 510.25 737.69 918.96 456.05 1095.69 475.46 932.46 616.32 960.95 709.80 1102.35 723.23
00053670 00000049 865.70 153.43 513.72 739.54 920.58 455.57 1096.05 473.96 935.43 615.22 964.00 707.36 1105.15 719.81
00053671 00000050 863.23 148.67 517.66 749.18 920.53 457.07 1092.61 472.89 933.88 612.67 965.26 703.65 1113.51 713.35
00053672 00000051 862.81 143.64 521.41 762.56 919.74 457.05 1093.74 470.13 934.60 613.20 968.37 703.05 1126.53 709.99
00053673 00000052 865.26 143.70 515.58 772.93 923.28 457.14 1091.22 470.01 936.14 617.10 979.71 704.06 1142.71 709.85
00053674 00000053 866.97 151.87 510.60 755.88 922.04 460.35 1092.17 473.77 936.38 618.11 976.66 702.99 1137.46 709.63
00053675 00000054 867.47 160.14 514.76 727.54 922.59 464.94 1095.85 476.63 937.42 612.87 971.69 703.95 1119.02 710.35
00053676 00000055 865.06 148.09 513.24 727.00 913.60 452.62 1096.56 472.06 932.54 611.83 952.47 697.80 1103.46 711.13
00053677 00000056 868.40 154.73 513.20 727.67 919.46 456.32 1100.18 476.55 934.89 607.99 955.60 701.97 1097.43 717.71
00053678 00000057 868.23 149.84 514.70 734.92 921.17 456.75 1097.29 473.26 934.41 605.13 948.80 708.55 1091.68 722.25
00053679 00000058 876.69 145.28 511.89 743.31 923.84 462.77 1100.37 467.42 938.65 605.90 952.29 718.75 1097.77 724.69
00053680 00000059 868.75 148.31 510.42 751.92 921.41 453.59 1097.60 476.55 929.68 614.74 953.96 709.81 1093.50 726.80
00053681 00000060 877.16 145.16 517.33 761.34 928.85 461.91 1101.72 467.01 940.77 606.52 962.03 720.20 1115.77 725.04
00053682 00000061 865.62 150.73 513.96 752.75 920.50 458.20 1097.16 477.85 933.08 617.80 962.58 708.91 1114.69 721.86
00053683 00000062 865.37 149.42 512.74 748.17 919.39 458.05 1094.09 478.49 929.75 616.77 958.65 707.93 1104.39 721.99
00053684 00000063 867.14 149.63 512.77 737.76 923.83 457.05 1092.22 473.84 933.22 605.89 954.09 707.99 1096.16 721.23
00053685 00000064 868.45 160.39 512.26 727.94 921.03 458.96 1096.81 480.53 931.54 612.28 958.81 704.40 1100.56 720.50
00053686 00000065 866.79 160.98 513.37 729.53 919.97 460.65 1096.42 481.78 931.14 615.45 960.18 707.05 1101.94 722.70
00053687 00000066 865.75 162.55 515.59 733.32 919.48 464.88 1093.96 483.06 929.99 619.59 964.84 713.25 1104.24 726.18
00053688 00000067 864.52 166.41 517.25 730.98 917.95 468.00 1093.59 483.66 930.49 621.99 965.90 715.62 1107.52 726.12
00053689 00000068 864.93 166.87 517.51 728.58 917.91 468.06 1094.21 484.43 930.63 623.07 965.96 714.23 1109.32 725.09
00053690 00000069 865.61 165.76 513.41 728.87 919.37 467.19 1092.47 482.43 931.40 620.72 968.44 712.51 1110.58 722.28
00053691 00000070 866.14 165.51 513.68 727.42 918.83 467.35 1092.95 482.24 931.22 620.94 968.23 712.29 1111.30 721.75
00053692 00000071 864.30 166.84 515.60 724.21 917.23 467.06 1092.46 482.16 930.58 622.19 967.53 711.95 1110.45 721.65
00053693 00000072 863.74 168.56 513.50 720.79 918.40 467.24 1093.24 482.98 933.45 621.86 968.42 710.87 1111.27 721.12
00053694 00000073 863.81 170.48 512.77 718.83 918.13 469.89 1094.73 484.15 935.23 622.94 968.33 712.00 1112.51 720.92
00053695 00000074 863.04 170.92 513.60 719.26 917.64 468.05 1094.46 483.38 934.13 622.63 967.84 711.93 1111.99 721.73
00053696 00000075 862.36 170.54 515.51 720.02 916.87 467.67 1094.39 483.61 932.99 622.98 966.35 712.16 1111.20 722.45
00053697 00000076 862.34 173.45 515.24 716.07 916.19 468.12 1096.14 484.31 934.06 623.63 964.76 712.92 1109.39 723.66
00053698 00000077 862.81 171.06 513.91 716.12 917.15 466.75 1095.16 484.17 933.97 622.11 965.39 710.07 1109.18 721.88
00053699 00000078 862.59 170.92 515.52 717.78 916.59 466.56 1094.07 483.71 931.60 622.59 964.73 711.03 1108.84 722.52
00053700 00000079 862.69 170.47 515.50 718.55 916.79 467.47 1094.04 484.30 931.84 622.47 965.00 712.59 1106.97 723.97
00053701 00000080 862.32 171.01 516.19 719.77 916.51 466.82 1094.07 483.23 932.00 622.39 966.04 712.92 1108.33 723.86
00053702 00000081 861.58 170.98 515.08 718.53 915.80 466.39 1093.51 482.86 931.89 622.16 964.28 711.12 1107.30 722.21
00053703 00000082 860.57 167.91 514.23 720.71 914.82 465.11 1092.55 482.47 930.13 621.19 961.24 708.34 1106.33 720.16
00053704 00000083 859.19 165.42 515.82 724.35 914.40 465.54 1091.60 482.42 929.27 620.17 960.94 708.78 1105.06 720.30
00053705 00000084 859.96 163.10 515.11 727.07 914.69 465.41 1091.48 482.43 928.46 618.83 960.16 708.63 1104.71 720.25
00053706 00000085 860.18 162.96 514.66 728.77 914.82 464.59 1090.76 481.27 927.49 617.62 960.20 707.94 1106.23 719.02
00053707 00000086 861.11 161.29 514.11 729.42 916.12 463.45 1090.89 480.68 927.81 616.24 961.85 707.77 1104.72 719.52
00053708 00000087 859.42 159.57 513.17 723.48 915.19 462.72 1090.62 481.68 927.69 615.29 958.22 708.12 1096.01 721.97
00053709 00000088 858.14 160.74 513.67 722.29 912.79 461.21 1090.36 480.60 926.10 614.87 955.44 707.45 1094.52 721.68
00053710 00000089 857.97 160.89 515.99 733.82 912.57 462.41 1090.88 478.98 926.42 615.93 958.38 711.76 1100.44 723.14
00053711 00000090 857.79 163.02 516.15 736.17 912.25 463.91 1088.16 478.12 925.53 618.01 961.99 713.26 1105.51 722.22
00053712 00000091 859.98 166.21 513.79 734.63 912.44 464.46 1085.65 480.52 923.41 620.64 962.61 713.20 1107.49 723.28
00053713 00000092 856.04 166.00 517.00 749.13 911.07 466.22 1082.31 479.67 921.87 624.38 965.46 713.97 1120.82 720.58
00053714 00000093 853.45 163.43 523.09 774.90 909.32 469.37 1071.19 475.71 912.64 627.02 973.69 717.89 1134.60 716.72
00053715 00000094 846.55 158.36 526.44 785.40 903.81 473.40 1063.07 474.06 905.86 623.28 973.35 720.71 1133.96 714.51
00053716 00000095 837.70 157.95 529.37 794.48 894.27 479.03 1055.88 477.28 900.60 632.21 970.64 728.02 1131.90 719.72
00053717 00000096 822.42 165.49 533.82 788.18 884.13 486.06 1041.29 482.38 893.57 643.13 960.39 734.58 1126.89 724.32
00053718 00000097 820.24 174.11 529.00 759.66 882.57 488.65 1043.67 491.64 895.00 649.69 951.74 730.34 1113.16 726.87
00053719 00000098 826.02 175.74 528.58 740.41 883.90 488.85 1056.08 491.38 902.44 642.42 944.14 735.45 1097.97 733.64
00053720 00000099 833.24 175.41 526.29 729.55 881.54 490.02 1062.76 503.05 896.43 648.73 946.05 740.99 1083.97 749.13
00053721 00000100 830.64 174.29 524.76 727.19 878.84 487.02 1061.67 505.06 894.33 652.35 941.77 737.25 1080.18 749.59
00053722 00000101 831.61 173.09 527.50 729.61 879.90 485.01 1064.62 503.62 896.56 651.52 941.65 737.76 1080.03 750.73
00053723 00000102 833.55 171.18 531.36 730.48 885.10 483.80 1069.56 501.81 902.07 647.14 944.33 734.89 1082.89 747.34
00053724 00000103 837.84 169.39 529.40 730.39 888.09 479.55 1070.94 499.71 902.60 641.76 946.17 730.43 1084.08 744.54
00053725 00000104 841.90 165.23 523.45 730.26 891.85 476.35 1068.63 496.98 902.66 638.05 949.07 726.40 1081.99 741.00
00053726 00000105 841.94 165.53 525.60 727.53 891.86 476.08 1069.45 495.72 903.67 638.35 951.26 726.14 1083.98 739.81
00053727 00000106 841.36 166.88 524.48 724.10 892.51 475.75 1069.00 495.66 904.39 636.33 951.74 724.86 1083.73 738.69
00053728 00000107 841.24 167.47 525.57 721.75 893.13 475.40 1069.06 495.01 904.80 635.54 952.84 723.90 1084.17 737.42
00053729 00000108 838.09 167.34 525.38 721.30 890.67 475.97 1067.91 494.90 903.81 635.30 950.83 723.76 1085.16 736.53
00053730 00000109 836.14 166.88 525.99 722.71 889.22 475.96 1068.27 494.12 903.87 634.20 950.59 723.66 1086.11 735.70
00053731 00000110 836.31 166.06 526.52 723.03 889.05 473.79 1067.87 494.35 902.58 634.24 950.87 722.30 1085.51 736.34
00053732 00000111 835.30 167.14 526.90 722.29 888.94 475.10 1068.20 494.49 903.40 634.17 951.01 723.47 1084.92 736.54
00053733 00000112 835.19 165.46 524.66 723.01 888.24 475.11 1066.86 492.06 903.74 632.13 949.13 723.54 1083.06 734.74
00053734 00000113 842.75 168.68 517.24 719.08 894.33 477.17 1070.30 499.97 904.97 631.47 949.52 719.93 1084.62 735.77
00053735 00000114 842.73 164.84 509.52 722.05 890.87 482.63 1064.01 498.92 902.15 628.53 947.09 722.32 1082.03 732.48
00053736 00000115 838.20 157.85 515.40 727.23 883.84 468.96 1064.92 489.66 896.21 624.76 938.68 714.67 1079.12 728.56
00053737 00000116 830.67 147.43 523.80 741.18 880.65 464.09 1058.86 481.07 888.88 616.82 934.37 713.29 1074.25 724.35
00053738 00000117 837.00 139.83 516.36 747.01 886.83 461.03 1057.01 474.70 889.95 607.22 937.60 707.39 1076.47 715.54
00053739 00000118 838.71 126.13 517.62 755.46 889.03 448.67 1059.62 466.28 892.24 597.73 934.07 697.89 1073.40 709.38
00053740 00000119 840.79 130.29 516.24 742.16 891.40 439.91 1062.65 458.97 892.46 586.82 932.90 689.22 1073.00 702.23
00053741 00000120 841.78 121.42 517.92 743.65 892.06 427.03 1065.20 445.93 893.18 576.17 931.18 684.07 1071.29 697.20
00053742 00000121 844.17 122.77 515.24 735.46 894.30 419.33 1066.13 440.38 895.27 571.33 930.08 676.26 1068.58 691.36
00053743 00000122 845.82 120.60 512.78 736.02 895.01 415.75 1064.85 436.35 893.40 564.82 926.53 673.56 1063.05 688.57
00053744 00000123 843.36 115.28 515.36 731.38 896.82 416.06 1060.51 432.53 893.73 557.88 920.64 664.69 1056.33 678.22
00053745 00000124 848.79 124.87 508.30 727.74 896.01 415.69 1065.10 437.67 893.97 564.68 925.33 669.07 1061.58 685.35
00053746 00000125 846.85 126.47 511.86 731.24 892.36 422.80 1066.93 446.30 891.05 575.87 923.97 678.65 1061.66 696.07
00053747 00000126 846.02 137.09 509.98 730.63 892.72 437.15 1067.58 461.67 893.40 585.85 924.55 684.27 1063.33 702.61
00053748 00000127 846.55 141.73 509.12 741.80 893.52 450.32 1069.80 471.53 897.21 599.59 928.89 700.18 1066.51 715.87
00053749 00000128 845.45 154.54 514.02 742.24 893.83 460.49 1069.59 480.70 898.16 616.15 940.04 712.45 1079.17 726.52
00053750 00000129 844.95 157.57 512.83 737.97 894.04 462.07 1069.69 482.84 899.84 619.30 943.79 714.22 1080.02 728.73
00053751 00000130 848.77 157.18 516.19 738.80 900.62 459.90 1069.97 483.28 901.34 618.97 949.08 709.65 1084.52 725.99
00053752 00000131 857.04 158.09 509.69 731.57 905.71 458.01 1073.81 481.75 906.46 616.05 952.25 705.82 1086.91 722.66
00053753 00000132 860.38 160.42 508.59 726.75 908.94 458.09 1074.68 482.32 908.43 616.67 955.71 704.93 1088.56 722.11
00053754 00000133 862.16 161.88 504.40 724.12 910.74 459.06 1073.29 483.28 908.60 617.25 957.21 704.78 1088.01 722.02
00053755 00000134 861.68 160.78 506.86 724.15 911.07 459.23 1073.85 483.71 908.49 616.68 957.53 704.45 1088.06 721.93
00053756 00000135 861.32 157.42 508.80 722.49 912.00 455.34 1074.47 482.63 908.60 615.45 956.13 701.78 1084.29 721.90
00053757 00000136 858.65 156.85 509.21 716.71 909.33 451.62 1076.16 481.22 907.54 611.21 950.78 698.74 1079.57 721.01
00053758 00000137 857.14 153.55 509.06 718.52 907.16 449.89 1076.96 479.64 907.03 609.47 948.01 697.35 1078.72 719.87
00053759 00000138 856.31 154.60 509.43 719.41 906.05 449.38 1077.11 478.87 906.76 607.89 948.13 697.57 1079.24 719.79
00053760 00000139 857.16 152.66 509.01 723.13 905.73 448.59 1077.05 477.97 905.45 605.73 945.38 696.03 1079.15 718.24
00053761 00000140 857.76 149.23 508.54 726.89 908.26 446.52 1077.77 477.02 906.20 603.69 944.51 693.23 1077.33 716.70
00053762 00000141 857.40 148.13 507.88 728.76 908.35 445.16 1077.77 477.26 905.35 602.08 941.97 690.67 1077.81 715.43
00053763 00000142 856.45 147.57 509.91 726.99 907.15 444.18 1078.28 475.33 905.55 601.16 941.24 690.18 1076.91 714.29
00053764 00000143 857.15 143.78 512.61 734.35 909.34 443.37 1078.14 473.30 905.60 599.67 944.39 691.44 1076.31 714.49
00053765 00000144 858.82 139.86 513.39 741.20 910.96 442.04 1080.10 469.60 907.06 598.98 947.26 696.21 1074.08 717.73
00053766 00000145 858.73 141.39 512.72 738.03 910.26 439.16 1080.52 468.41 906.12 597.46 947.38 694.68 1076.10 717.38
00053767 00000146 857.46 141.03 512.65 730.31 908.41 437.29 1078.53 468.10 904.61 598.51 946.26 688.88 1081.56 712.30
00053768 00000147 857.92 142.35 510.72 726.24 909.01 437.85 1078.64 469.52 906.02 598.13 945.30 685.41 1081.99 709.54
00053769 00000148 856.84 140.07 512.41 732.10 908.32 437.54 1078.18 469.28 904.79 598.62 944.47 686.11 1082.84 710.19
00053770 00000149 856.25 142.39 511.04 731.53 907.04 439.40 1078.16 469.79 904.16 598.78 943.17 689.23 1080.29 712.34
00053771 00000150 855.61 151.81 508.63 718.32 903.85 447.85 1075.31 475.34 902.41 602.26 940.94 695.63 1072.71 716.46
00053772 00000151 854.94 148.53 503.66 720.86 903.84 448.07 1073.42 482.88 898.96 604.82 935.68 689.30 1071.15 715.49
00053773 00000152 847.95 149.53 511.16 726.93 900.00 451.85 1071.13 491.94 895.16 611.81 935.52 693.19 1071.43 723.29
00053774 00000153 848.27 155.29 512.05 730.19 898.61 457.57 1069.91 497.15 891.95 620.09 941.19 702.74 1072.44 732.67
00053775 00000154 847.26 157.78 514.61 751.49 899.50 465.47 1057.73 498.34 884.18 623.66 951.16 707.98 1088.61 730.51
00053776 00000155 842.75 158.14 513.97 748.92 893.18 468.07 1045.85 499.25 874.77 626.82 951.52 705.48 1090.65 725.72
00053777 00000156 837.09 153.58 507.64 740.86 885.22 463.75 1039.83 493.80 869.96 620.57 939.96 699.16 1077.22 719.14
00053778 00000157 832.70 144.34 510.39 740.50 883.26 459.13 1035.39 489.75 868.54 614.77 936.56 694.64 1066.18 715.06
00053779 00000158 831.66 142.23 510.03 738.52 881.50 458.46 1033.06 488.68 866.67 610.32 931.71 693.01 1060.43 713.25
00053780 00000159 830.74 140.41 505.62 742.10 882.17 453.91 1027.44 484.61 862.84 607.49 931.31 691.43 1057.14 711.82
00053781 00000160 832.09 137.68 502.39 743.03 882.40 451.28 1025.15 482.43 859.92 604.78 929.96 689.27 1053.92 710.10
00053782 00000161 832.37 130.64 501.64 758.51 882.63 450.41 1020.44 480.54 856.03 606.13 934.17 689.78 1058.87 709.14
00053783 00000162 829.60 126.65 500.91 774.78 880.97 448.27 1016.99 477.83 854.49 609.32 938.76 690.35 1069.33 708.64
00053784 00000163 829.98 124.50 500.52 773.33 880.56 448.06 1015.98 476.82 853.18 608.66 937.80 690.66 1065.84 708.21
00053785 00000164 830.26 127.70 495.83 758.51 879.39 446.21 1015.72 478.15 852.61 602.42 928.16 683.16 1053.13 703.77
00053786 00000165 830.80 132.71 493.29 742.07 877.15 443.52 1015.97 479.33 850.03 600.65 917.63 682.95 1037.84 707.40
00053787 00000166 833.70 131.95 492.92 735.02 876.98 442.24 1017.84 481.82 848.51 598.11 910.29 682.46 1025.58 710.76
00053788 00000167 834.36 129.36 493.78 737.45 876.27 440.53 1021.09 480.95 850.45 597.84 909.19 681.98 1028.02 711.12
