Video ID: 	kPh6jgy7piU
H: 	1080
W: 	1920
FPS: 	29.97002997002997

FRAME INDEX X0 Y0 W H [Landmarks (5 Points)]

00014711 00000000 724.75 226.10 420.54 627.77 921.92 482.65 1078.29 445.60 1066.71 593.41 956.04 701.23 1090.59 671.44
00014712 00000001 725.84 227.27 421.99 626.08 921.71 476.58 1079.31 440.17 1068.71 587.63 956.69 698.18 1092.42 668.79
00014713 00000002 719.48 223.98 426.65 639.51 918.62 468.64 1076.02 437.13 1066.85 586.07 948.23 700.08 1084.53 674.84
00014714 00000003 715.01 223.45 428.81 639.91 915.18 464.21 1073.08 435.68 1063.99 583.36 943.58 697.35 1081.41 674.50
00014715 00000004 713.56 224.25 430.22 639.08 912.28 462.74 1071.77 435.77 1061.82 583.69 942.53 699.53 1079.86 677.93
00014716 00000005 713.57 224.18 430.13 639.16 912.28 462.74 1071.78 435.77 1061.80 583.68 942.54 699.52 1079.90 677.93
00014717 00000006 712.49 227.79 430.56 633.05 910.43 463.24 1069.80 435.44 1059.55 583.99 942.08 698.78 1079.13 676.45
00014718 00000007 713.28 230.03 430.17 631.34 908.65 463.77 1069.40 436.17 1056.90 587.06 941.36 699.97 1078.64 677.75
00014719 00000008 713.22 230.34 432.47 631.12 910.00 464.99 1072.75 437.00 1057.78 589.43 943.69 700.82 1081.01 678.27
00014720 00000009 714.78 230.92 430.41 627.87 913.09 467.18 1075.73 436.70 1061.92 591.60 947.96 702.16 1082.54 677.64
00014721 00000010 715.45 230.37 430.12 631.36 915.49 468.48 1077.40 436.83 1064.26 593.48 952.19 705.71 1083.99 680.33
00014722 00000011 715.50 230.56 429.84 630.74 915.46 468.50 1077.48 436.89 1064.21 593.46 952.19 705.57 1083.83 680.22
00014723 00000012 714.60 231.61 430.00 626.65 912.24 467.42 1075.55 437.28 1060.28 592.60 950.41 705.45 1079.65 681.59
00014724 00000013 708.68 232.91 429.60 624.02 907.05 464.82 1072.75 435.37 1057.98 590.89 945.58 703.54 1080.23 679.81
00014725 00000014 709.73 232.51 427.49 628.23 909.41 463.57 1068.23 435.77 1057.84 587.20 943.23 700.83 1076.92 678.47
00014726 00000015 711.55 229.26 424.62 630.84 911.26 463.45 1069.36 435.70 1060.29 584.73 946.52 700.33 1079.57 677.81
00014727 00000016 710.92 220.37 420.41 639.28 908.53 467.02 1067.65 438.69 1053.26 587.29 941.57 700.81 1076.43 677.51
00014728 00000017 710.98 220.92 420.33 638.85 908.27 466.87 1067.62 438.56 1053.25 587.18 941.45 700.90 1076.33 677.63
00014729 00000018 698.48 227.36 428.71 628.83 891.80 475.38 1069.77 445.59 1042.97 588.01 923.13 703.42 1070.63 678.12
00014730 00000019 683.39 223.60 433.17 648.31 869.59 478.24 1051.21 452.01 1014.99 599.21 902.39 711.12 1053.92 687.72
00014731 DELETE   668.68 230.20 432.65 636.54 850.63 483.13 1028.13 450.58 992.73 610.02 882.66 714.34 1026.98 687.66
00014732 DELETE   659.57 226.26 429.38 639.27 833.84 479.99 1008.45 452.29 969.55 609.34 861.35 708.70 1008.45 686.73
00014733 00000022 647.61 228.39 432.13 634.76 819.00 480.26 997.66 457.86 952.53 611.71 845.88 704.35 999.00 687.16
00014734 00000023 647.84 228.78 431.95 633.60 819.01 480.11 997.51 457.74 952.37 611.58 846.49 704.23 998.97 687.05
00014735 00000024 639.60 229.42 430.69 639.66 809.31 478.93 987.66 462.43 938.91 611.10 832.12 702.68 989.24 690.30
00014736 00000025 636.56 226.61 429.20 636.99 806.09 479.86 983.86 467.32 931.60 612.86 822.70 699.66 978.57 691.01
00014737 00000026 623.21 230.20 440.00 633.41 789.33 483.51 976.45 465.64 918.27 618.12 815.68 709.81 972.26 693.59
00014738 00000027 620.09 227.84 437.35 635.94 786.19 479.65 971.30 462.11 914.35 615.74 813.98 711.65 965.83 695.58
00014739 00000028 618.04 226.01 436.31 641.78 784.76 476.01 969.07 458.26 914.01 613.61 816.42 715.32 964.08 698.67
00014740 00000029 618.04 226.02 436.31 641.76 784.77 476.02 969.08 458.26 914.02 613.61 816.42 715.32 964.09 698.67
00014741 00000030 618.96 223.84 434.19 642.17 786.06 475.64 970.20 457.81 915.80 613.52 818.45 716.49 963.52 699.68
00014742 00000031 619.12 225.49 434.98 637.41 786.25 472.78 971.19 456.93 916.50 613.03 819.61 717.39 961.30 702.37
00014743 00000032 620.61 223.53 435.21 637.98 786.31 472.03 974.19 456.78 917.77 613.31 819.91 715.71 964.50 701.06
00014744 00000033 620.27 223.58 434.54 636.54 785.76 470.47 973.33 456.06 917.31 610.74 820.98 715.22 963.65 701.13
00014745 00000034 616.64 221.43 435.69 651.09 783.59 468.35 970.38 454.49 915.99 611.19 817.09 717.37 962.79 703.40
00014746 00000035 616.56 221.34 435.63 651.33 783.55 468.53 970.21 454.38 916.10 611.08 817.19 717.29 963.10 703.09
00014747 00000036 614.48 219.72 439.68 666.81 786.72 466.70 968.91 455.94 915.47 607.28 812.35 714.27 963.75 702.77
00014748 00000037 616.97 220.58 440.60 659.95 788.58 468.61 971.48 455.12 918.56 606.10 814.94 710.62 968.02 697.16
00014749 00000038 623.18 217.10 439.27 654.80 794.32 466.42 975.30 453.82 922.57 600.15 826.52 706.98 972.66 693.56
00014750 00000039 632.42 218.62 431.79 643.27 797.12 465.26 978.74 450.11 927.28 595.56 832.93 703.82 978.74 688.45
00014751 00000040 635.12 219.94 429.97 638.48 799.69 466.30 981.59 449.54 932.57 593.94 837.20 703.21 982.50 686.71
00014752 00000041 635.11 219.80 429.89 638.33 799.71 466.29 981.54 449.56 932.63 593.89 837.22 703.15 982.39 686.69
00014753 00000042 636.04 219.30 428.90 631.26 803.56 467.79 985.09 451.95 938.04 591.31 839.72 699.14 983.40 683.63
00014754 00000043 645.54 213.69 424.55 637.95 822.68 456.24 997.01 448.32 948.21 596.22 844.84 690.35 983.15 683.40
00014755 00000044 650.76 213.69 428.72 641.21 834.25 459.81 1004.75 445.33 965.36 591.39 862.44 694.16 1002.56 681.26
00014756 DELETE   661.51 211.20 430.15 650.98 852.25 459.83 1020.58 438.96 988.32 590.42 889.71 702.24 1023.53 683.39
00014757 00000046 679.05 207.38 414.14 644.54 863.62 463.08 1030.58 435.86 1009.41 580.66 908.64 700.79 1036.67 676.57
00014758 00000047 679.04 207.65 414.21 645.80 863.97 463.37 1030.05 436.65 1008.90 580.87 908.88 701.12 1036.72 677.26
00014759 00000048 684.38 206.27 417.28 638.64 872.58 460.84 1040.15 425.92 1024.62 571.49 919.90 696.43 1051.39 665.70
00014760 00000049 684.30 208.68 422.14 631.75 874.24 458.51 1042.27 420.99 1028.91 567.25 920.73 693.42 1053.21 660.95
00014761 00000050 682.80 209.29 421.24 630.70 872.42 456.31 1041.13 420.10 1026.95 567.70 917.40 693.39 1048.27 662.04
00014762 00000051 682.64 209.51 417.29 622.49 870.69 454.52 1037.31 419.71 1022.46 566.57 915.05 690.48 1041.04 660.61
00014763 00000052 679.78 208.35 420.53 634.27 867.92 453.77 1038.53 420.74 1023.24 569.79 911.08 694.48 1043.12 665.82
00014764 00000053 679.66 207.61 420.56 635.05 868.12 453.84 1038.44 420.75 1023.62 569.84 911.04 694.46 1043.00 665.79
00014765 00000054 675.81 206.37 423.38 641.45 866.34 453.05 1036.60 422.34 1021.03 569.68 903.61 692.85 1038.86 666.26
00014766 00000055 674.39 207.30 424.20 639.97 864.59 454.53 1035.60 422.16 1019.93 571.83 903.51 694.55 1038.63 666.64
00014767 00000056 674.10 207.05 422.43 635.65 863.04 454.31 1033.75 423.30 1016.55 572.98 903.51 693.53 1036.16 666.83
00014768 00000057 671.40 208.53 421.10 632.77 861.22 453.89 1029.71 425.98 1010.26 573.74 902.50 691.85 1032.26 667.44
00014769 00000058 671.38 206.82 419.23 637.10 860.16 451.72 1028.25 425.84 1005.90 574.44 903.81 692.46 1031.61 669.34
00014770 00000059 671.41 206.60 419.21 637.66 860.35 451.77 1028.21 425.94 1006.11 574.57 903.85 692.49 1031.61 669.41
00014771 00000060 673.87 202.87 416.48 634.80 861.93 449.83 1028.94 422.66 1007.75 569.57 907.15 689.62 1031.72 665.42
00014772 00000061 673.67 202.45 416.27 633.75 860.47 448.84 1028.83 420.42 1008.49 566.15 905.16 688.58 1031.11 663.52
00014773 00000062 670.35 204.40 419.32 636.14 857.90 448.15 1026.88 419.15 1006.20 568.06 900.98 690.30 1029.36 664.95
00014774 00000063 665.11 208.41 423.53 637.34 855.62 449.52 1023.18 423.70 999.05 574.40 894.32 689.77 1025.27 667.17
00014775 00000064 663.93 208.55 423.61 639.23 853.61 449.47 1021.18 425.17 996.17 577.05 889.48 689.94 1022.54 668.66
00014776 00000065 663.90 208.52 423.66 639.20 853.65 449.49 1021.19 425.12 996.25 577.03 889.54 689.91 1022.59 668.58
00014777 00000066 665.77 207.06 422.53 630.66 854.92 450.29 1022.89 420.94 998.77 574.61 898.15 689.46 1026.05 664.02
00014778 00000067 667.22 206.90 420.18 626.23 855.11 450.48 1023.57 420.92 998.86 574.31 897.89 687.99 1024.43 662.50
00014779 00000068 664.17 205.71 423.97 637.45 852.87 449.53 1022.00 423.03 995.64 577.57 893.74 689.94 1026.21 666.45
00014780 00000069 663.86 205.86 422.41 637.90 853.27 448.74 1020.64 424.04 995.18 577.05 892.28 689.80 1022.57 668.00
00014781 00000070 665.41 204.18 421.08 632.04 853.91 449.79 1022.14 421.79 996.34 576.08 897.73 689.03 1025.44 664.34
00014782 00000071 665.58 204.47 420.91 631.65 853.94 449.71 1022.23 421.71 996.27 576.11 897.87 689.16 1025.33 664.43
00014783 00000072 664.83 204.26 421.02 633.36 853.30 449.75 1022.63 422.05 996.38 576.16 895.48 688.56 1024.87 664.42
00014784 00000073 665.12 204.19 422.36 638.25 853.82 448.04 1023.10 422.53 995.80 575.54 894.96 689.41 1025.20 667.05
00014785 00000074 667.52 205.00 418.94 633.36 853.06 448.62 1023.62 422.50 995.63 575.28 895.74 689.19 1025.46 666.32
00014786 00000075 668.21 204.65 418.73 634.50 854.92 449.71 1024.14 423.35 998.58 575.01 897.18 689.52 1026.37 666.47
00014787 00000076 667.46 206.04 421.30 638.38 856.95 450.73 1024.38 424.72 1000.63 575.72 896.98 690.67 1026.76 667.87
00014788 00000077 667.45 206.30 421.32 638.13 856.89 450.81 1024.48 424.96 1000.59 575.77 896.99 690.64 1026.89 667.96
00014789 00000078 666.94 208.78 421.42 638.84 858.02 452.59 1024.48 427.65 1001.55 576.68 895.32 691.15 1026.61 669.34
00014790 00000079 666.16 209.42 422.37 639.39 858.78 452.01 1023.93 428.62 1001.02 576.69 893.27 689.98 1024.81 669.34
00014791 00000080 665.34 209.06 422.09 636.18 859.39 452.43 1023.27 429.68 1000.71 576.66 892.44 687.78 1023.25 667.82
00014792 00000081 664.12 205.86 422.31 636.44 857.15 452.96 1019.59 430.16 996.11 576.16 888.93 685.74 1019.94 666.03
00014793 00000082 658.44 206.75 425.55 635.71 850.68 453.17 1012.23 430.83 987.23 573.98 880.50 682.20 1015.22 663.16
00014794 00000083 658.45 207.04 425.43 635.10 851.06 453.37 1012.28 431.28 987.11 574.64 880.82 682.04 1015.20 663.19
00014795 00000084 651.78 207.36 427.70 638.99 842.69 451.42 1008.05 431.23 978.94 573.00 868.58 681.95 1008.58 664.88
00014796 00000085 647.76 206.99 426.98 637.62 838.54 449.12 1003.92 430.46 972.48 572.21 860.13 678.91 1002.20 663.24
00014797 00000086 638.18 212.49 429.36 622.68 827.01 452.81 998.80 426.01 975.31 564.75 854.85 677.12 1000.50 655.11
00014798 00000087 633.84 213.72 428.58 621.37 823.59 449.47 995.40 424.45 970.38 565.20 849.77 675.36 994.98 654.70
00014799 00000088 632.29 213.27 426.30 618.72 819.89 449.32 992.15 424.45 965.41 563.64 846.36 673.75 990.43 653.02
00014800 00000089 632.28 213.32 426.27 618.58 819.91 449.31 992.12 424.46 965.41 563.63 846.34 673.72 990.34 653.01
00014801 00000090 629.28 210.02 426.80 620.28 814.44 446.47 989.21 422.61 958.92 562.75 840.22 672.29 984.88 652.16
00014802 00000091 627.94 207.44 427.79 627.95 812.67 444.44 986.22 421.55 956.64 561.94 836.71 671.07 983.76 651.62
00014803 00000092 627.26 208.29 426.77 624.55 812.30 442.48 985.60 419.65 956.98 560.68 837.31 670.04 982.64 650.61
00014804 00000093 627.77 207.68 428.04 628.66 813.93 441.83 986.89 416.99 959.78 560.36 838.00 669.99 986.44 648.75
00014805 00000094 628.64 206.41 427.25 628.87 816.85 440.99 989.21 416.92 962.87 559.87 838.23 667.87 986.66 647.55
00014806 00000095 628.65 206.13 427.37 629.48 817.31 441.18 989.56 416.81 963.59 560.24 838.40 667.98 987.10 647.42
00014807 00000096 629.33 204.52 426.67 627.86 818.32 438.46 989.43 416.71 963.88 558.18 838.06 662.87 987.01 644.44
00014808 00000097 627.39 197.97 428.16 635.20 816.42 433.12 987.74 415.48 960.89 553.75 832.38 657.08 984.73 641.92
00014809 00000098 626.14 198.39 429.11 633.93 816.05 427.62 987.14 411.00 959.97 550.35 831.27 653.65 984.32 639.17
00014810 00000099 625.84 199.47 432.57 624.13 815.47 424.89 989.62 408.14 960.53 546.55 834.90 648.63 989.52 633.58
00014811 00000100 627.77 198.13 429.79 612.05 815.75 419.95 989.12 405.71 956.76 543.13 835.75 641.65 985.56 628.66
00014812 00000101 627.77 198.20 429.74 611.85 815.70 419.88 988.99 405.75 956.55 543.06 835.71 641.57 985.35 628.67
00014813 00000102 624.64 195.40 431.66 620.35 808.03 415.13 986.17 398.63 951.30 540.26 833.43 642.86 985.52 627.26
00014814 00000103 621.09 192.24 433.21 633.58 803.16 411.09 984.24 397.83 944.89 540.51 832.61 647.61 982.50 633.85
00014815 00000104 614.91 192.80 430.42 624.37 794.79 407.39 975.17 404.76 928.39 541.07 819.52 644.02 960.99 639.72
00014816 00000105 604.81 178.93 423.85 616.35 786.31 411.92 963.13 396.01 918.67 543.47 810.83 644.54 950.01 631.24
00014817 00000106 591.35 173.69 426.03 627.81 766.05 399.92 939.93 387.40 894.71 539.37 790.27 635.01 936.41 624.42
00014818 DELETE   591.42 173.03 426.22 627.70 766.12 399.99 940.03 387.52 894.33 539.54 790.14 634.51 936.33 623.96
00014819 DELETE   574.63 160.90 427.16 650.76 745.99 398.81 918.20 388.18 873.15 535.71 769.27 633.07 922.52 624.24
00014820 DELETE   562.86 158.51 424.25 639.60 724.27 398.87 907.95 386.08 852.69 528.16 749.47 632.72 907.90 619.71
00014821 00000110 556.00 152.92 418.70 619.21 724.65 396.80 901.22 384.37 851.95 523.47 748.66 624.22 891.59 612.17
CROP_BBOX: 315 0 1388 1039
