Video ID: 	RCbzeTr4iYk
H: 	1080
W: 	1920
FPS: 	23.976023976023978

FRAME INDEX X0 Y0 W H [Landmarks (5 Points)]

00007901 00000000 713.14 151.99 383.58 607.93 736.69 413.28 885.70 401.79 758.16 502.21 757.67 624.21 860.92 615.97
00007902 00000001 713.21 155.07 382.94 603.69 737.23 413.15 885.19 402.74 756.14 502.62 756.03 623.78 859.68 616.36
00007903 DELETE   714.57 158.08 382.43 600.04 736.78 413.51 884.86 402.53 754.94 503.98 757.05 625.93 860.79 617.93
00007904 00000003 717.16 156.33 383.69 603.97 736.59 415.87 885.15 401.94 756.28 505.54 757.24 631.14 862.11 621.00
00007905 00000004 717.50 158.77 386.68 593.54 740.44 416.93 888.77 401.19 763.13 505.93 762.05 627.92 870.64 616.39
00007906 00000005 717.21 165.12 390.26 592.18 752.24 415.49 893.45 401.71 765.93 504.45 773.32 630.48 885.54 618.45
00007907 00000006 725.83 153.40 387.78 605.64 751.36 417.19 896.66 398.99 775.91 508.36 781.56 628.03 892.85 614.25
00007908 00000007 729.31 165.08 384.66 607.26 763.57 414.02 900.75 397.85 775.89 505.63 793.33 628.85 912.67 614.83
00007909 00000008 735.68 167.00 388.33 615.00 770.77 411.32 907.63 391.72 782.72 501.78 803.67 629.99 924.81 612.99
00007910 00000009 736.85 156.80 402.60 620.36 773.83 410.73 929.33 391.23 801.81 504.74 807.68 623.85 930.67 606.72
00007911 00000010 736.47 165.69 400.72 600.31 775.43 411.36 924.76 387.88 801.01 499.94 811.56 622.54 942.05 602.19
00007912 00000011 736.69 157.05 402.02 615.11 773.21 411.32 930.09 389.79 802.78 503.80 808.18 623.90 932.23 605.25
00007913 DELETE   733.54 165.28 384.79 622.82 768.39 410.39 901.30 390.41 776.20 500.69 802.02 632.06 920.59 614.42
00007914 DELETE   722.51 158.51 386.10 627.15 757.63 414.38 888.40 394.71 762.89 504.53 788.39 637.03 898.59 619.82
00007915 00000014 715.61 159.53 390.43 620.47 752.54 413.10 880.00 397.95 752.53 501.80 774.62 631.61 879.36 617.76
00007916 00000015 714.00 154.85 387.85 618.05 750.79 410.29 877.05 399.30 750.07 501.64 770.30 628.32 869.51 618.35
00007917 DELETE   711.87 156.13 385.26 610.58 746.20 411.01 874.91 400.75 746.87 499.70 764.75 626.08 862.31 616.92
00007918 00000017 709.93 155.59 385.72 609.60 743.71 410.73 875.68 400.92 746.57 499.21 761.12 625.29 859.12 616.75
00007919 00000018 713.52 152.55 382.98 612.45 734.82 412.45 876.46 400.91 744.90 500.47 757.01 625.35 855.21 616.80
00007920 00000019 714.29 151.23 383.95 606.57 734.35 414.92 879.66 401.48 749.21 504.58 758.40 624.56 863.43 614.29
00007921 00000020 713.54 151.78 387.93 608.01 734.89 415.63 884.02 401.17 753.53 506.24 761.45 625.46 871.90 614.25
00007922 00000021 710.20 160.22 388.50 597.45 746.09 416.05 889.80 402.80 761.62 506.31 768.16 625.95 882.03 614.41
00007923 00000022 710.22 162.92 390.69 594.97 747.70 416.50 891.17 402.07 763.13 505.61 770.29 626.56 885.54 613.88
00007924 00000023 711.40 164.96 391.14 593.78 748.46 417.59 891.36 403.19 763.84 506.50 771.14 627.38 886.77 614.73
00007925 00000024 711.56 164.25 389.46 595.18 748.73 418.01 890.92 404.04 762.64 507.12 770.28 627.01 885.77 614.66
00007926 DELETE   712.94 163.37 386.54 594.11 748.93 417.30 889.77 405.10 761.09 507.90 769.24 625.80 883.94 614.88
00007927 00000026 718.30 156.26 385.81 601.12 740.06 416.50 886.54 404.21 758.10 508.61 763.92 624.13 876.94 614.80
00007928 00000027 715.18 163.84 387.40 595.38 750.39 414.90 889.73 404.83 760.22 508.00 770.04 625.49 885.56 615.87
00007929 00000028 717.22 164.83 387.49 594.80 752.84 415.86 891.89 405.93 762.48 507.86 773.06 625.91 888.43 616.50
00007930 DELETE   719.23 167.11 393.56 597.57 755.62 417.32 895.38 406.08 765.09 508.99 778.02 627.08 896.41 616.43
00007931 00000030 724.93 157.53 389.98 603.51 751.57 419.57 899.54 408.44 773.26 513.58 776.61 623.14 894.52 614.96
00007932 00000031 728.67 157.25 388.85 604.03 754.89 420.61 901.94 408.54 776.96 514.34 780.68 624.37 898.64 615.34
00007933 00000032 733.10 155.10 386.37 605.32 759.41 419.14 904.86 407.69 780.75 514.63 785.83 624.12 902.55 615.43
00007934 00000033 733.60 155.38 386.84 605.54 760.28 418.63 906.33 407.64 781.16 514.13 786.04 623.73 903.15 615.41
00007935 00000034 733.86 156.04 386.72 604.40 760.35 418.96 906.15 407.98 781.02 514.39 786.28 623.46 903.43 615.11
00007936 00000035 733.11 155.81 387.17 604.79 760.00 418.96 906.09 408.08 780.40 514.50 785.28 623.54 902.93 615.26
00007937 00000036 732.65 156.03 387.72 605.66 759.73 419.38 906.04 408.23 779.77 514.60 785.11 623.83 903.12 615.29
00007938 00000037 732.44 155.92 388.26 605.83 759.53 420.04 906.04 408.18 779.75 514.65 785.67 623.92 903.66 614.78
00007939 00000038 732.06 157.99 387.80 603.36 759.04 420.40 905.47 408.26 779.57 514.73 785.11 624.15 903.35 614.76
00007940 00000039 732.22 158.54 388.14 602.08 759.56 420.07 905.16 408.30 779.83 514.75 786.24 623.83 903.14 614.65
00007941 00000040 732.92 158.47 388.09 602.22 759.94 420.98 905.76 408.85 780.07 515.77 786.37 624.38 904.20 614.93
00007942 00000041 733.74 158.91 388.96 603.22 760.82 421.53 905.87 409.41 780.34 516.35 787.14 624.76 904.98 615.28
00007943 00000042 734.25 161.11 390.65 602.81 760.80 421.14 907.75 409.18 780.81 516.85 786.04 625.59 906.49 616.31
00007944 00000043 735.16 161.88 389.96 604.08 761.71 421.10 909.60 409.49 781.83 517.99 786.53 626.89 908.15 617.95
00007945 00000044 736.43 163.30 391.17 603.33 762.52 422.11 911.15 410.07 782.15 519.01 788.04 628.13 910.00 618.65
00007946 00000045 737.26 161.87 391.25 603.87 763.61 422.36 912.25 409.83 783.69 519.63 789.87 627.76 912.70 617.67
00007947 00000046 738.29 160.32 391.66 608.12 765.79 422.70 913.59 409.93 784.00 519.67 792.27 627.22 916.08 616.61
00007948 00000047 739.92 160.63 392.56 609.41 767.07 422.09 916.10 410.09 784.71 520.28 792.96 627.24 918.69 616.94
00007949 00000048 741.55 163.14 391.18 607.19 768.47 422.04 918.00 411.08 785.15 522.07 794.52 628.06 920.82 618.35
00007950 00000049 742.67 159.70 389.21 611.89 770.21 422.71 919.22 411.83 787.36 522.57 795.50 628.72 922.07 619.10
00007951 00000050 742.58 161.65 390.22 611.01 770.80 423.10 920.05 410.58 788.63 521.45 796.88 629.24 923.69 618.18
00007952 00000051 742.86 162.71 389.38 607.89 771.33 422.86 919.88 408.80 790.27 520.33 797.92 628.01 924.09 615.82
00007953 00000052 743.39 162.24 388.61 608.72 771.75 422.80 920.93 408.91 791.44 520.46 797.99 628.36 924.23 616.36
00007954 00000053 743.11 163.11 389.38 611.67 771.98 422.68 922.29 409.60 791.76 521.06 797.64 629.02 925.40 617.65
00007955 00000054 743.27 160.73 389.30 614.39 772.02 422.09 922.28 408.86 792.33 520.47 797.51 628.87 925.19 617.44
00007956 00000055 742.65 161.13 390.52 611.38 771.19 422.68 921.86 407.50 792.05 519.37 797.34 628.68 925.12 615.67
00007957 00000056 743.09 161.04 391.06 613.45 772.46 423.58 922.85 407.12 793.12 518.23 798.39 629.08 926.83 614.83
00007958 00000057 743.39 160.00 390.03 617.43 773.18 422.17 924.16 406.42 795.15 518.25 798.53 630.09 926.48 616.45
00007959 00000058 743.24 158.89 389.93 615.01 773.33 422.57 925.16 407.71 796.84 519.42 798.92 629.38 927.36 616.53
00007960 00000059 743.30 159.12 389.14 609.61 773.44 421.76 926.04 408.53 798.50 520.58 800.04 628.84 927.63 617.34
00007961 00000060 742.92 156.27 391.02 614.46 773.83 422.17 927.60 407.35 798.91 518.68 800.34 627.04 931.47 613.93
00007962 00000061 743.34 154.69 391.43 616.36 774.28 421.73 928.49 407.21 799.37 518.88 801.22 627.02 932.46 614.08
00007963 00000062 744.30 155.45 390.46 615.27 775.63 421.35 928.81 408.43 799.89 519.65 802.07 626.73 933.22 615.06
00007964 00000063 744.54 163.25 390.43 608.43 776.04 422.74 928.99 410.28 799.20 520.97 802.91 627.38 934.06 615.94
00007965 00000064 744.51 162.90 390.21 606.77 776.27 422.73 928.78 410.16 799.32 520.74 803.52 626.87 934.34 615.29
00007966 00000065 744.70 162.93 391.07 606.53 777.05 422.16 929.87 409.01 800.06 519.42 804.27 625.73 936.30 613.46
00007967 00000066 744.81 161.19 391.03 607.26 777.80 421.13 930.63 408.75 801.02 519.17 805.23 624.43 937.65 612.71
00007968 00000067 745.02 160.45 393.29 610.34 778.32 421.62 930.55 408.60 801.00 519.28 806.83 624.18 939.45 611.60
00007969 00000068 745.26 162.97 393.97 609.19 778.98 421.59 930.95 408.67 801.35 519.41 807.78 624.16 940.62 611.57
00007970 00000069 745.23 163.91 393.09 606.79 779.02 421.60 931.60 408.71 801.93 519.26 808.21 624.40 940.63 611.97
00007971 00000070 745.14 166.65 394.19 604.75 779.18 421.69 931.86 408.35 802.14 519.45 808.71 624.53 941.11 611.71
00007972 00000071 744.51 165.86 393.70 604.18 778.78 421.44 931.90 408.16 802.01 519.14 808.20 623.99 941.69 611.18
00007973 00000072 744.80 162.86 393.32 609.01 778.19 422.10 931.22 408.72 801.28 519.60 807.00 624.70 940.06 611.89
00007974 00000073 744.67 161.33 393.94 611.90 778.29 421.86 930.60 409.04 800.85 519.57 806.56 624.37 938.60 612.08
00007975 00000074 744.08 161.03 393.88 611.23 777.60 421.85 930.11 408.77 800.66 519.45 805.44 624.63 937.41 612.29
00007976 00000075 744.57 159.79 393.46 613.98 778.17 422.43 929.82 408.65 800.54 519.02 806.39 624.75 938.00 611.73
00007977 00000076 744.31 159.72 394.45 614.61 778.29 422.37 929.73 408.51 800.51 518.74 806.35 624.61 938.20 611.52
00007978 00000077 744.51 160.00 394.42 613.60 778.43 422.14 929.69 408.31 800.85 518.58 806.94 624.51 938.47 611.41
00007979 00000078 744.88 160.07 394.04 612.25 778.54 422.30 929.78 408.27 800.99 518.70 807.07 624.28 938.79 611.00
00007980 00000079 744.99 160.87 394.22 611.10 778.57 422.32 930.26 408.30 801.18 518.54 806.98 624.49 938.85 611.24
00007981 00000080 745.54 162.19 394.53 610.79 779.33 422.13 930.89 408.15 801.70 518.37 808.15 624.73 939.77 611.43
00007982 00000081 745.35 162.03 394.48 608.69 779.29 421.34 931.52 408.35 801.68 518.48 807.94 623.92 940.02 611.42
00007983 00000082 745.09 162.95 394.75 608.65 779.31 421.47 931.65 408.28 802.17 519.07 808.07 624.26 940.30 611.58
00007984 00000083 745.02 163.21 394.79 609.27 779.33 422.11 931.67 408.57 802.70 519.14 808.46 624.74 940.67 611.79
00007985 00000084 744.96 164.95 395.25 607.04 779.30 421.65 932.15 408.36 802.81 519.22 808.56 624.40 941.61 611.59
00007986 00000085 745.35 163.54 395.20 608.97 779.55 421.37 932.22 407.88 803.27 518.76 808.69 624.43 941.05 611.51
00007987 00000086 745.37 163.31 394.58 608.11 779.67 421.33 931.67 407.78 803.11 518.26 808.56 623.90 939.93 610.96
00007988 00000087 744.88 163.18 392.90 603.77 779.41 420.74 931.03 407.82 803.35 517.59 808.00 622.69 937.42 610.49
00007989 00000088 744.72 160.61 392.76 605.42 778.46 420.80 930.19 408.30 803.27 518.05 806.94 623.41 934.87 611.77
00007990 00000089 744.91 158.96 392.84 606.31 777.74 421.25 929.29 407.95 802.16 517.88 806.25 623.47 933.67 611.22
00007991 00000090 744.42 160.54 391.05 603.79 776.79 421.10 929.05 408.20 801.94 518.42 805.49 623.20 934.06 611.35
00007992 00000091 744.38 159.10 390.97 606.77 776.43 421.31 928.74 408.83 801.43 518.63 804.71 623.39 933.71 611.88
00007993 00000092 744.39 158.98 390.86 606.74 776.50 421.16 928.66 408.87 801.38 518.61 804.82 623.32 933.64 611.97
00007994 00000093 744.44 158.01 390.89 607.12 776.89 421.07 928.55 408.72 801.92 518.54 805.52 623.40 933.50 612.03
00007995 00000094 744.79 158.90 391.45 607.19 777.32 421.29 928.96 408.66 801.89 518.53 805.97 623.10 934.49 611.39
00007996 00000095 744.71 158.10 392.09 609.62 777.55 421.48 929.13 408.43 802.12 518.39 806.25 623.03 935.36 610.90
00007997 00000096 745.25 159.79 391.81 608.09 778.27 422.07 928.27 408.36 801.74 518.36 807.50 623.11 935.84 610.32
00007998 00000097 744.52 160.13 390.41 608.61 776.52 422.75 927.15 408.00 800.44 518.94 806.01 624.21 934.10 610.76
00007999 00000098 743.55 160.54 389.98 605.36 774.54 423.55 925.29 408.24 798.42 518.32 804.09 624.31 931.83 610.61
00008000 00000099 742.63 164.59 391.33 603.13 773.41 423.27 924.00 407.99 796.69 518.07 802.77 624.57 930.13 611.02
00008001 00000100 742.75 165.14 391.94 604.65 773.63 423.81 923.54 407.47 795.73 517.70 803.92 625.19 930.41 610.71
00008002 00000101 743.12 164.26 391.34 605.67 774.40 423.93 924.38 407.54 797.07 517.87 804.90 625.24 931.59 610.60
00008003 00000102 743.58 162.75 392.42 609.65 775.42 423.68 925.46 407.13 797.63 518.35 806.11 625.14 933.69 610.23
00008004 00000103 744.43 162.24 391.90 607.68 776.77 422.74 926.46 406.77 799.03 517.27 806.99 624.16 933.52 609.72
00008005 00000104 745.27 160.44 392.50 609.82 778.02 422.49 927.66 407.12 800.83 517.26 807.81 623.39 935.42 609.29
00008006 00000105 745.13 163.13 393.41 607.48 778.64 422.04 928.46 406.89 801.66 517.52 808.71 623.58 936.42 609.59
00008007 00000106 744.97 162.47 392.60 607.07 779.00 421.82 928.52 406.94 802.21 517.64 809.20 623.57 936.04 609.82
00008008 00000107 745.25 161.98 392.32 606.05 779.24 421.79 928.60 407.15 802.45 517.86 809.47 623.55 936.10 610.00
00008009 00000108 745.49 161.04 392.33 606.29 779.14 421.68 928.73 406.67 802.52 517.18 809.37 623.52 935.88 609.69
00008010 00000109 745.14 160.46 392.17 603.97 778.66 420.99 929.04 406.40 802.80 517.09 808.86 623.01 935.31 609.64
00008011 00000110 745.10 159.77 392.21 604.57 778.53 421.11 928.74 406.51 802.77 517.21 808.69 623.16 935.04 609.79
00008012 00000111 745.80 160.76 391.65 607.02 779.18 422.01 928.05 407.06 802.29 517.20 809.36 623.63 934.82 609.87
00008013 00000112 745.88 160.04 392.22 608.72 779.12 422.28 927.72 407.50 801.45 517.35 808.48 623.90 934.13 610.33
00008014 00000113 745.60 160.60 391.91 607.50 778.89 422.11 927.51 407.34 801.37 517.44 808.78 623.79 934.44 610.25
00008015 00000114 745.25 159.62 391.86 608.65 778.26 421.75 927.48 406.99 801.56 517.70 808.15 623.85 934.04 610.38
00008016 00000115 745.17 159.35 391.94 608.50 777.92 421.92 927.61 406.86 801.44 517.58 808.07 624.01 934.05 610.28
00008017 00000116 745.09 159.47 391.48 607.69 777.92 421.67 927.54 406.88 801.69 517.64 808.21 623.90 933.97 610.45
00008018 00000117 745.30 159.37 391.46 607.82 778.16 421.51 927.46 406.91 801.75 517.72 808.70 623.84 933.97 610.49
00008019 00000118 745.45 159.49 391.60 607.16 778.58 421.85 927.61 407.21 802.16 517.37 808.90 623.78 933.79 610.39
00008020 00000119 745.90 158.36 392.37 608.50 779.46 421.11 928.95 406.29 803.36 516.83 810.33 623.88 935.50 610.17
00008021 00000120 745.17 160.49 393.48 606.65 779.61 420.91 930.44 406.43 804.49 516.69 809.73 623.80 936.20 610.41
00008022 00000121 745.25 159.81 394.32 608.89 779.83 420.95 931.57 406.03 805.17 516.84 809.86 624.63 937.26 610.90
00008023 00000122 745.86 160.42 396.15 607.49 780.74 420.80 931.84 406.58 805.46 516.61 810.20 624.47 937.43 611.21
00008024 00000123 746.15 162.01 396.04 605.69 781.27 420.63 932.24 406.66 805.83 517.23 811.14 624.53 937.70 611.45
00008025 00000124 746.37 161.33 395.71 606.19 781.81 420.65 932.89 407.90 806.25 518.04 811.29 624.32 938.52 612.17
00008026 00000125 746.05 163.86 395.27 603.39 781.83 421.27 932.75 408.35 806.16 518.38 811.71 625.02 938.96 612.69
00008027 00000126 746.22 163.06 395.08 604.22 781.71 420.74 933.47 408.36 806.40 518.85 811.29 624.99 939.40 613.11
00008028 00000127 746.12 162.89 394.92 603.31 781.45 421.17 933.13 408.69 806.27 519.33 811.28 625.29 938.91 613.42
00008029 00000128 746.53 164.41 395.03 601.71 781.72 421.28 933.32 409.45 806.45 519.75 811.42 625.23 938.91 613.87
00008030 00000129 746.49 165.49 394.55 600.23 781.41 421.47 933.51 409.70 806.64 520.32 811.21 625.66 938.78 614.35
00008031 00000130 746.35 166.52 395.87 597.15 781.87 420.94 933.66 409.92 807.11 520.55 811.71 625.46 938.64 614.70
00008032 00000131 746.20 166.88 396.36 595.84 782.16 420.61 934.78 410.57 807.76 521.31 812.00 625.13 939.87 615.10
00008033 00000132 746.47 164.46 397.23 601.76 782.49 421.13 935.13 410.86 808.07 521.84 811.89 626.01 940.91 615.82
00008034 00000133 746.67 164.72 397.87 600.93 782.88 420.42 935.45 410.89 808.86 522.35 812.66 625.74 941.34 616.06
00008035 00000134 746.99 167.32 397.78 598.91 783.17 420.34 935.84 411.10 809.03 523.09 813.21 626.19 941.96 616.74
00008036 00000135 747.31 166.93 396.98 596.69 783.63 420.18 936.08 411.60 810.03 523.09 813.83 626.17 941.37 617.25
00008037 00000136 747.53 169.67 396.76 592.44 784.41 420.24 936.84 411.49 811.30 522.84 814.86 626.41 941.90 617.34
00008038 00000137 748.10 167.46 398.86 596.25 784.60 420.92 936.43 410.95 811.18 522.71 815.59 627.05 942.11 616.95
00008039 00000138 748.18 166.51 398.13 598.59 784.89 421.09 937.32 410.85 812.22 522.66 815.22 627.36 942.30 617.12
00008040 00000139 748.90 164.05 398.61 602.55 784.98 421.44 937.27 410.89 811.64 523.05 815.47 627.46 943.26 616.87
00008041 00000140 749.11 166.14 399.12 600.95 784.66 421.68 937.81 411.38 811.44 523.83 815.21 627.93 943.47 617.59
00008042 00000141 749.14 166.96 398.94 598.93 784.76 421.79 938.27 411.81 812.06 524.32 815.31 628.24 943.35 618.13
00008043 00000142 749.27 164.61 398.63 602.05 784.73 422.11 938.29 412.24 812.29 525.04 815.54 628.58 943.73 618.60
00008044 00000143 749.20 163.56 398.93 604.91 784.95 423.03 938.19 412.82 811.91 525.64 816.12 629.05 944.71 618.74
00008045 00000144 749.31 162.19 399.38 607.22 785.24 423.66 938.39 413.68 811.85 525.87 816.17 628.90 944.60 618.80
00008046 00000145 749.35 167.10 400.23 602.15 785.46 423.77 938.62 414.35 811.87 526.38 816.20 629.54 944.39 619.96
00008047 00000146 749.37 169.43 400.23 600.92 784.98 424.92 938.97 414.46 811.83 527.20 816.12 630.51 945.56 619.97
00008048 00000147 749.29 170.99 400.77 599.51 784.63 424.97 939.60 414.61 811.92 527.35 815.86 630.38 946.06 619.94
00008049 00000148 749.86 171.78 400.29 598.83 784.92 426.47 938.58 414.57 811.78 527.02 816.12 630.69 946.55 618.89
00008050 00000149 751.18 169.68 398.95 602.42 785.18 426.70 938.27 414.59 811.46 526.74 816.34 631.03 946.99 619.05
00008051 00000150 750.95 170.41 398.76 601.43 785.05 426.45 938.45 414.57 811.69 526.93 816.20 631.05 947.21 619.28
00008052 00000151 751.47 170.43 398.69 601.48 785.44 426.57 938.29 414.76 811.84 527.50 817.28 631.27 947.29 619.56
00008053 00000152 751.97 170.04 399.13 604.67 785.30 427.42 939.03 415.02 812.22 527.85 816.89 633.14 947.05 620.96
00008054 00000153 751.93 169.72 399.76 604.68 785.44 427.64 939.27 415.34 812.14 528.01 816.72 633.37 947.15 621.26
00008055 00000154 753.07 170.28 398.94 605.20 785.98 428.08 939.62 415.50 812.01 527.56 816.80 633.78 947.28 621.42
00008056 00000155 753.69 170.09 398.73 606.26 786.36 428.45 939.69 415.51 812.06 527.43 817.17 634.24 947.39 621.63
00008057 00000156 753.83 169.22 398.62 606.41 786.77 428.23 940.33 415.73 813.09 527.78 817.37 634.11 947.21 621.92
00008058 00000157 753.82 170.55 399.46 606.01 786.93 428.48 940.45 415.92 813.05 527.85 817.30 634.63 947.34 622.42
00008059 00000158 753.33 170.19 400.47 606.44 786.87 428.87 940.67 416.06 813.11 528.04 817.35 635.06 947.81 622.62
00008060 00000159 752.92 170.36 400.57 605.79 786.87 428.74 941.13 416.30 813.58 528.24 817.04 635.04 947.66 622.92
00008061 00000160 752.84 171.39 400.89 604.60 787.21 428.66 941.34 416.47 813.13 528.03 817.09 635.19 947.16 623.29
00008062 00000161 752.59 171.45 401.06 603.97 787.09 428.68 941.16 416.69 813.25 528.34 817.16 635.01 947.23 623.26
00008063 00000162 752.65 170.16 401.57 606.47 786.91 428.69 941.22 416.44 812.72 528.43 816.76 635.19 947.56 623.21
00008064 00000163 752.29 169.49 401.43 606.90 786.72 428.67 941.78 416.24 812.81 528.32 816.50 635.45 947.60 623.32
00008065 00000164 752.03 169.19 401.42 607.17 786.44 428.61 941.80 416.19 812.81 528.73 816.37 635.62 947.62 623.53
00008066 00000165 751.75 169.41 402.19 605.58 786.54 428.69 942.08 416.64 813.09 528.44 816.27 635.12 947.59 623.31
00008067 00000166 751.86 169.68 402.55 606.11 786.51 428.75 941.99 416.76 812.87 528.39 816.16 635.33 947.44 623.58
00008068 00000167 752.10 170.36 402.48 605.65 786.73 428.35 942.03 416.78 812.97 528.38 816.07 635.35 946.72 624.01
00008069 00000168 751.95 169.34 402.74 608.98 787.17 428.57 942.29 417.00 813.14 528.64 816.22 635.61 946.92 624.28
00008070 00000169 752.51 170.52 402.19 608.77 787.70 428.86 942.20 417.06 813.02 528.40 816.55 636.17 946.55 624.72
00008071 00000170 753.20 171.73 401.74 609.32 787.83 428.40 942.62 417.54 813.36 528.94 816.35 636.95 945.27 626.34
