Video ID: 	4z3mu63yxII
H: 	1080
W: 	1920
FPS: 	25.0

FRAME INDEX X0 Y0 W H [Landmarks (5 Points)]

00020131 00000000 467.22 128.60 459.47 728.66 560.10 462.51 765.17 447.61 655.31 590.85 608.54 703.41 771.46 690.47
00020132 00000001 467.21 130.08 459.59 719.59 558.88 463.90 765.42 448.60 654.50 591.79 605.94 698.86 772.87 685.56
00020133 00000002 465.34 131.69 461.53 717.11 556.77 466.19 764.45 450.07 652.31 591.47 601.54 695.20 774.24 681.00
00020134 00000003 463.44 134.15 460.50 716.10 555.84 466.96 762.68 451.99 651.21 592.93 599.07 693.95 773.42 680.81
00020135 00000004 457.70 135.15 463.85 716.69 552.11 468.75 761.17 453.68 649.11 594.14 593.47 693.73 771.42 680.95
00020136 00000005 456.78 139.18 461.32 714.68 549.83 469.34 759.01 454.91 646.58 595.96 590.01 698.53 764.67 686.59
00020137 00000006 456.07 144.63 457.96 716.57 547.51 472.11 755.61 457.82 643.84 598.43 588.43 706.82 759.37 695.23
00020138 00000007 454.46 144.39 456.77 723.60 546.78 473.93 751.98 459.82 642.81 600.81 588.63 711.76 755.88 700.17
00020139 00000008 453.79 145.20 456.14 725.89 546.36 474.48 750.79 460.37 642.03 601.57 589.17 714.54 754.69 702.93
00020140 00000009 453.57 144.63 456.78 726.05 545.62 473.97 750.96 460.36 640.24 600.64 587.47 714.87 752.51 703.81
00020141 00000010 453.71 141.17 453.69 724.77 543.27 471.05 748.30 459.32 634.71 595.55 582.77 710.40 746.39 700.96
00020142 00000011 452.90 139.27 453.98 718.76 539.17 468.27 746.81 458.00 626.09 583.80 574.49 701.45 742.08 692.98
00020143 DELETE   458.01 145.24 448.33 701.59 532.78 461.06 730.21 454.24 599.62 569.14 563.00 691.25 717.15 685.70
00020144 00000013 461.63 138.91 443.31 702.67 519.35 451.32 717.65 439.58 575.48 553.25 545.57 682.15 708.18 672.83
00020145 00000014 460.73 130.25 442.22 705.35 517.99 430.38 704.88 427.37 554.71 540.30 535.52 664.47 696.28 662.07
00020146 00000015 451.62 116.61 450.61 713.08 506.60 416.21 694.01 417.87 529.80 532.95 518.27 654.90 686.04 656.00
00020147 00000016 444.50 112.97 455.95 709.64 501.39 408.56 686.29 413.30 522.24 523.38 509.75 647.35 673.29 651.49
00020148 00000017 442.58 114.55 457.39 699.39 501.12 402.77 682.81 414.14 517.16 518.15 503.81 637.97 664.56 647.67
00020149 00000018 439.90 106.67 458.72 701.84 501.33 395.06 682.06 413.17 513.98 516.28 499.71 629.77 661.65 644.70
00020150 00000019 439.66 105.86 458.95 701.23 500.69 392.72 681.89 411.21 512.06 512.41 497.68 627.16 659.94 642.35
00020151 00000020 440.25 105.60 457.04 699.28 500.97 392.82 681.47 410.37 512.22 510.82 497.77 626.29 658.62 640.74
00020152 00000021 440.73 107.33 455.26 697.59 501.22 395.13 679.64 412.77 510.60 510.71 497.38 627.44 654.06 642.08
00020153 00000022 440.41 103.23 455.85 702.98 501.14 396.23 680.10 414.13 509.72 511.36 496.99 630.04 653.28 644.90
00020154 00000023 440.93 109.39 455.73 696.93 500.22 398.99 677.00 417.65 507.41 516.01 498.71 632.99 653.63 648.36
00020155 00000024 440.50 110.95 456.66 695.31 499.30 399.52 678.47 420.25 508.67 518.55 498.56 633.37 654.62 650.42
00020156 00000025 442.46 109.35 453.60 694.78 499.23 400.01 680.86 421.58 510.85 520.30 498.52 633.94 655.91 651.68
00020157 00000026 443.39 108.66 451.70 694.23 499.06 400.22 682.27 422.46 511.83 521.85 497.43 634.02 656.15 652.39
00020158 00000027 442.49 108.20 454.11 691.61 499.40 399.99 682.71 421.95 513.63 521.21 498.26 632.60 656.54 650.68
00020159 00000028 441.97 108.63 456.14 693.12 499.74 400.37 681.49 421.39 513.14 519.66 498.65 633.49 654.30 650.93
00020160 00000029 441.84 108.66 455.82 695.58 498.94 401.86 680.46 421.41 513.19 520.67 499.24 635.23 654.10 651.51
00020161 00000030 441.43 109.50 456.80 700.63 497.66 404.35 678.69 420.87 510.04 521.06 500.64 639.49 654.76 653.23
00020162 00000031 443.36 112.74 455.59 711.46 498.49 407.85 677.46 422.19 505.70 523.25 502.83 648.64 658.12 660.62
00020163 00000032 443.50 115.34 455.25 719.51 498.39 410.53 677.30 423.64 504.72 526.94 505.58 655.32 662.58 665.99
00020164 00000033 443.14 121.01 451.17 716.04 497.51 414.64 675.83 427.69 504.35 532.32 508.35 657.70 667.63 667.78
00020165 00000034 453.66 123.62 448.96 718.77 504.40 424.86 685.47 438.24 519.96 546.54 514.32 659.82 682.19 669.93
00020166 00000035 465.01 140.76 451.60 704.24 519.30 454.29 710.17 459.48 561.17 569.35 538.69 674.03 712.87 677.32
00020167 00000036 477.02 147.56 448.81 704.95 550.61 473.51 747.45 470.95 618.84 584.83 575.90 691.50 744.85 688.91
00020168 DELETE   467.90 160.12 469.60 691.64 574.99 471.59 789.43 460.95 679.61 584.07 617.79 702.10 791.73 691.43
00020169 DELETE   483.80 146.42 454.31 695.56 611.58 459.76 816.05 437.26 733.75 555.93 658.60 686.34 827.05 667.98
00020170 DELETE   490.87 151.79 451.66 677.30 633.91 446.79 824.80 419.22 765.27 534.46 693.36 672.17 849.50 649.98
00020171 00000040 494.29 155.39 455.38 661.95 645.60 444.76 834.78 413.40 781.42 525.57 713.65 664.64 868.53 638.09
00020172 00000041 494.51 154.09 457.20 671.00 653.94 449.30 838.51 415.22 791.49 531.21 726.73 672.76 874.11 643.92
00020173 00000042 495.58 157.89 453.42 678.65 656.06 457.48 838.50 423.51 795.41 545.03 728.07 681.54 873.39 652.84
00020174 00000043 495.85 160.00 449.53 671.09 654.18 459.67 837.85 425.83 792.58 546.95 725.66 679.95 871.78 651.37
00020175 00000044 492.27 154.73 450.79 676.67 650.77 456.84 836.07 425.46 789.01 542.09 719.09 677.81 867.71 651.38
00020176 00000045 491.31 155.03 447.98 679.75 648.59 457.72 834.27 428.63 785.30 544.05 713.80 679.56 861.62 655.33
00020177 00000046 491.64 156.04 447.26 683.51 648.81 461.46 834.18 432.53 785.38 549.73 712.40 683.62 861.26 659.54
00020178 00000047 492.43 156.15 446.67 685.24 649.22 462.01 833.71 432.73 785.63 549.22 714.13 684.88 862.29 660.50
00020179 00000048 492.80 158.31 447.34 679.44 648.56 460.48 834.34 430.27 785.19 547.66 715.33 683.97 863.19 658.69
00020180 00000049 495.31 155.59 446.09 680.20 649.68 462.51 835.32 433.50 784.72 550.93 714.05 682.79 862.23 658.47
00020181 00000050 497.43 156.01 444.27 686.10 650.66 467.80 836.07 439.66 783.72 557.32 715.14 688.41 861.12 664.69
00020182 00000051 497.64 158.05 444.95 688.06 650.42 470.17 835.43 443.71 782.56 559.58 713.86 691.25 858.73 668.92
00020183 00000052 495.75 153.38 445.27 694.97 646.68 467.91 832.67 441.62 780.13 557.61 709.19 691.28 856.46 669.33
00020184 00000053 492.71 150.66 445.76 700.89 643.80 465.28 830.32 440.52 777.73 554.49 702.44 690.40 851.82 670.05
00020185 00000054 489.05 148.64 448.56 703.52 640.59 467.73 828.91 443.11 774.56 558.43 697.40 691.07 850.74 670.72
00020186 00000055 487.29 145.83 448.81 705.23 637.77 470.25 826.21 446.11 770.19 564.21 694.81 693.46 846.89 673.39
00020187 00000056 485.38 143.25 451.43 708.11 634.51 472.04 825.07 447.47 766.45 568.77 692.65 695.06 846.20 674.46
00020188 00000057 482.87 144.36 453.33 703.01 631.57 472.79 822.90 448.07 762.58 571.01 690.80 695.23 843.85 674.45
00020189 00000058 481.17 146.41 454.09 698.57 630.57 473.42 822.09 448.61 761.98 570.41 690.34 695.41 842.27 674.60
00020190 00000059 478.96 145.01 455.91 700.15 628.43 474.17 821.54 448.69 760.24 571.63 687.12 694.84 842.66 673.21
00020191 00000060 468.30 156.15 467.67 681.92 618.75 475.67 824.49 445.55 761.96 567.37 685.52 703.28 843.57 676.02
00020192 00000061 466.38 159.26 468.19 680.64 616.84 477.42 822.61 446.47 760.32 567.23 682.02 701.85 842.77 673.98
00020193 00000062 461.72 156.68 471.85 690.18 615.64 477.64 820.17 446.20 759.24 569.33 682.27 703.06 842.81 674.69
00020194 00000063 462.57 163.02 468.86 697.14 616.23 477.95 818.99 448.26 758.95 573.60 681.09 709.67 839.82 683.04
00020195 00000064 460.70 160.11 468.65 699.22 614.97 478.57 818.46 448.48 757.86 576.22 678.05 707.83 840.76 680.92
00020196 00000065 461.75 156.80 470.64 696.91 614.78 480.17 820.34 447.61 759.94 576.63 682.10 709.78 842.89 680.73
00020197 00000066 464.77 157.61 471.48 693.72 616.95 479.59 823.36 446.75 761.26 573.65 686.79 712.08 843.08 682.68
00020198 00000067 465.41 161.89 472.52 689.10 618.21 481.29 824.52 447.78 763.40 576.07 691.34 715.53 844.79 685.51
00020199 00000068 465.41 162.90 470.13 694.91 620.12 489.60 821.93 454.11 765.61 582.14 694.12 722.26 844.04 691.03
00020200 00000069 465.08 171.41 467.71 692.53 622.62 504.26 817.38 468.76 763.93 588.97 692.76 727.84 838.16 697.09
00020201 00000070 463.38 173.13 466.24 689.95 621.34 510.31 813.45 472.03 760.17 593.15 692.26 731.05 834.28 698.26
00020202 00000071 463.10 174.85 463.64 689.56 615.78 509.95 813.31 471.79 757.43 594.57 687.06 730.85 835.70 697.78
00020203 00000072 460.79 173.67 462.65 694.23 613.68 510.73 810.75 471.53 756.35 600.34 683.37 730.50 836.59 696.49
00020204 00000073 456.78 175.04 461.00 696.25 609.07 512.93 803.94 472.71 750.63 605.54 678.12 732.19 830.61 697.39
00020205 00000074 455.42 177.11 458.98 705.18 604.34 513.57 798.87 475.32 744.26 611.55 673.81 736.68 826.95 703.38
00020206 00000075 448.24 181.21 462.98 709.57 599.38 516.98 795.08 479.31 739.38 617.70 669.33 741.96 823.17 709.17
00020207 00000076 445.73 183.96 463.10 708.53 593.75 518.75 789.71 481.98 731.95 621.51 663.94 744.74 818.66 712.89
00020208 00000077 443.52 182.46 464.42 710.10 585.68 521.65 783.27 483.07 721.81 626.22 654.13 743.33 816.53 710.12
00020209 00000078 437.25 181.37 466.68 707.97 576.51 522.57 773.82 482.40 710.52 628.90 645.00 739.77 809.19 705.30
00020210 00000079 431.61 181.78 470.03 709.25 569.45 522.67 767.57 483.28 700.92 627.80 636.51 741.40 802.21 708.10
00020211 00000080 427.77 182.58 471.25 711.99 563.94 521.77 763.93 484.97 693.93 631.06 631.12 745.41 795.17 714.44
00020212 00000081 426.10 181.30 471.73 717.12 556.16 523.25 759.73 486.32 686.76 636.49 623.33 749.89 791.22 718.99
00020213 00000082 422.86 182.98 473.08 721.49 552.49 526.25 756.92 490.18 682.17 640.95 620.05 754.09 788.66 723.93
00020214 00000083 424.07 182.40 468.63 720.46 551.48 525.75 756.41 490.68 681.07 641.69 617.45 753.16 787.66 723.80
00020215 00000084 422.06 176.05 467.75 724.21 550.69 519.97 754.22 485.66 679.89 636.23 615.08 747.88 785.26 718.86
00020216 00000085 419.93 171.20 468.97 722.62 549.60 514.41 753.71 481.32 679.01 629.79 613.48 742.91 784.06 714.83
00020217 00000086 422.16 170.37 464.89 723.15 552.64 514.54 753.31 482.57 679.85 624.64 615.49 742.65 780.72 715.74
00020218 00000087 425.78 172.82 463.52 719.88 555.35 525.24 755.60 490.50 680.67 626.65 615.26 742.58 784.35 713.30
00020219 00000088 426.10 172.19 462.70 720.29 556.11 530.66 754.29 494.80 681.12 630.16 616.10 741.76 785.04 711.29
00020220 00000089 425.55 174.85 463.47 719.52 553.01 525.52 754.83 491.22 679.72 632.05 613.73 742.17 785.70 712.96
00020221 00000090 423.04 172.72 465.82 720.05 553.84 520.23 755.54 486.62 681.19 630.98 613.68 739.23 786.03 710.67
00020222 00000091 420.67 173.03 467.75 718.13 553.30 517.34 754.73 482.51 681.49 628.55 614.07 736.12 787.63 706.50
00020223 00000092 419.12 170.81 468.60 719.31 553.05 516.76 754.34 481.84 681.73 628.51 614.08 735.60 787.39 705.84
00020224 00000093 417.56 171.05 468.98 720.36 552.18 516.25 752.95 481.64 680.68 627.47 612.31 735.27 786.27 705.79
00020225 00000094 415.80 171.03 470.16 722.02 551.75 516.27 751.71 482.75 679.70 627.75 612.42 736.89 783.48 708.37
00020226 00000095 416.43 173.44 471.06 722.40 549.54 517.51 751.08 484.28 677.93 630.14 613.25 743.26 781.05 715.03
00020227 00000096 416.75 175.52 472.47 722.40 548.42 518.84 750.70 485.42 676.98 632.28 613.79 746.86 780.46 718.60
00020228 00000097 417.14 175.23 471.19 721.86 547.13 518.56 750.20 484.55 676.06 632.15 613.18 747.61 780.37 718.86
00020229 00000098 415.52 173.45 471.22 720.42 546.34 516.61 749.98 483.01 675.15 629.28 611.67 746.60 777.78 718.18
00020230 00000099 415.87 171.98 469.70 716.98 546.48 514.69 750.22 481.61 674.49 627.32 610.94 744.71 775.75 716.77
00020231 00000100 416.51 170.53 467.99 716.82 546.94 513.84 750.02 480.98 674.60 625.45 610.71 743.40 775.19 715.64
00020232 00000101 417.24 172.22 467.68 713.36 548.21 513.47 750.67 481.45 674.95 625.19 611.23 742.48 774.24 715.57
00020233 00000102 419.10 173.58 465.32 710.99 549.12 513.21 750.64 481.61 675.07 624.30 611.91 742.11 773.98 715.65
00020234 00000103 418.15 174.28 467.33 710.21 549.61 513.28 751.15 481.01 676.02 624.22 613.06 741.80 775.29 714.82
00020235 00000104 418.40 175.84 467.90 707.48 549.67 513.37 751.16 480.23 676.08 623.75 614.06 741.10 776.52 713.40
00020236 00000105 417.40 176.35 469.44 713.33 551.02 513.60 749.70 479.95 677.64 623.81 616.48 742.35 776.79 714.26
00020237 00000106 415.83 173.03 469.27 722.89 550.08 512.11 749.20 478.54 677.37 622.15 612.51 740.70 778.50 712.52
00020238 00000107 415.74 171.79 468.04 717.13 548.17 508.79 746.96 475.58 674.40 617.73 606.32 730.18 779.67 701.77
00020239 00000108 422.56 169.62 465.10 714.83 543.88 512.03 747.58 473.66 671.92 621.96 605.37 728.22 783.03 694.88
00020240 00000109 422.74 165.70 465.22 716.30 544.52 509.20 748.15 472.02 671.28 619.46 603.95 723.78 782.80 691.44
00020241 00000110 426.31 168.01 462.25 713.23 545.17 508.42 748.68 472.70 669.75 619.30 603.52 723.77 780.67 692.86
00020242 00000111 427.55 166.07 462.03 715.37 545.30 508.46 749.24 474.97 668.29 621.38 603.24 726.64 777.27 697.73
00020243 00000112 429.56 166.04 459.10 717.32 544.47 505.47 748.97 473.51 666.44 619.31 602.97 730.24 773.05 702.98
00020244 00000113 428.16 163.97 460.76 718.97 544.22 504.12 748.85 473.08 664.86 618.79 603.14 732.47 768.89 706.17
00020245 00000114 420.91 162.29 463.18 713.49 544.91 499.45 747.34 471.15 665.89 612.38 599.94 726.02 768.09 702.25
00020246 00000115 421.04 164.85 460.73 709.43 542.91 500.71 745.46 471.67 664.69 613.14 599.75 726.89 766.68 702.43
00020247 00000116 422.59 165.71 458.76 713.88 539.77 507.46 742.64 474.84 661.04 619.85 601.27 736.08 760.69 708.23
00020248 00000117 419.39 166.90 459.68 717.56 536.69 511.48 740.90 478.38 658.89 622.97 597.49 739.45 759.22 710.86
00020249 00000118 414.51 167.11 460.19 717.28 532.51 517.31 737.99 482.78 655.33 628.16 593.41 742.64 757.83 712.64
00020250 00000119 405.59 170.79 467.83 718.73 533.48 516.43 733.96 485.19 655.77 630.66 593.14 739.21 762.03 712.27
00020251 00000120 404.52 173.62 467.67 720.96 533.20 520.65 733.02 487.77 656.28 634.00 595.45 744.31 763.17 716.10
00020252 00000121 403.74 177.54 469.92 720.04 530.61 523.42 732.41 488.17 654.74 637.49 596.27 748.90 765.23 718.78
00020253 00000122 403.57 176.33 470.19 721.57 530.54 524.44 732.36 488.75 654.98 639.35 597.01 749.86 765.78 719.35
00020254 00000123 405.57 171.85 468.95 721.91 532.37 522.23 732.99 487.97 655.09 636.05 597.11 745.86 764.47 716.54
00020255 00000124 408.80 169.12 467.67 718.93 534.56 517.33 735.06 485.35 656.04 630.90 596.40 739.59 764.99 712.01
00020256 00000125 411.46 170.02 467.45 713.41 536.03 513.56 736.99 480.95 657.48 624.52 597.71 735.70 767.90 707.50
00020257 00000126 415.23 172.87 467.00 704.63 538.64 509.07 741.00 478.80 659.91 621.93 598.86 732.02 768.87 705.95
00020258 00000127 422.51 173.90 464.58 706.70 539.75 514.70 742.40 480.39 660.11 627.08 602.18 738.78 763.97 709.10
00020259 00000128 422.81 174.90 466.03 704.24 540.98 514.02 744.14 479.10 662.11 624.89 602.59 737.80 765.57 707.77
00020260 00000129 425.87 175.39 462.99 700.45 542.24 514.17 745.47 479.15 663.47 626.03 603.96 737.51 766.63 707.49
00020261 00000130 425.68 178.41 464.84 700.16 542.62 513.92 746.70 478.97 664.83 626.67 604.62 738.53 768.59 708.49
00020262 00000131 419.56 175.49 467.64 713.96 543.67 506.80 746.18 476.24 667.45 620.27 603.33 736.20 773.11 710.38
00020263 00000132 419.30 176.87 464.76 722.10 544.94 507.84 744.70 478.08 667.89 620.54 605.16 743.52 767.17 718.96
00020264 00000133 425.36 174.35 459.70 713.93 543.85 512.89 744.24 484.66 662.84 620.18 595.75 733.70 769.19 709.70
00020265 00000134 438.64 166.49 449.98 712.98 545.91 504.90 746.37 487.16 656.31 617.39 587.32 724.86 756.85 709.28
00020266 00000135 442.97 159.07 456.92 717.92 545.26 495.25 744.85 482.56 646.06 613.44 585.55 719.12 751.11 707.85
00020267 00000136 455.38 153.93 464.92 724.17 550.30 495.90 752.36 484.66 641.59 617.47 591.24 723.23 752.75 712.94
00020268 00000137 472.12 168.31 455.27 714.99 565.79 494.00 761.01 489.87 648.23 629.68 600.21 729.29 750.60 726.14
00020269 00000138 477.06 151.37 458.07 738.38 568.71 495.67 771.20 499.13 650.92 632.96 602.74 735.52 761.86 736.77
00020270 DELETE   498.39 152.09 444.63 735.10 595.20 490.71 797.87 494.99 684.33 631.02 621.19 730.72 773.23 734.54
00020271 DELETE   510.51 156.55 449.75 722.47 613.22 487.31 815.78 489.03 708.25 622.35 639.71 720.88 798.00 722.19
00020272 00000141 523.36 163.03 451.09 724.78 623.94 488.16 823.73 491.16 708.68 628.66 649.37 725.95 803.29 729.32
CROP_BBOX: 164 0 1286 1064
