Video ID: 	NOX4XpahhCY
H: 	1080
W: 	1920
FPS: 	59.94005994005994

FRAME INDEX X0 Y0 W H [Landmarks (5 Points)]

00009109 00000000 926.75 96.38 520.57 734.94 1003.02 398.01 1205.68 362.32 1065.12 511.36 1052.99 644.18 1233.61 613.59
00009110 DELETE   929.46 90.28 519.88 736.58 1010.80 388.55 1217.89 350.87 1078.86 491.12 1054.83 633.52 1243.53 600.46
00009111 DELETE   929.51 90.25 519.73 736.54 1010.86 388.54 1217.95 350.88 1078.91 491.10 1054.94 633.47 1243.49 600.43
00009112 00000003 929.46 90.31 519.70 736.48 1010.82 388.56 1217.95 350.88 1078.95 491.10 1054.92 633.48 1243.48 600.43
00009113 00000004 937.15 88.81 515.09 742.60 1021.36 374.82 1229.72 344.17 1090.61 480.81 1055.80 625.33 1249.66 598.20
00009114 00000005 936.98 88.96 515.15 742.37 1021.26 375.05 1229.73 344.27 1090.62 480.76 1055.71 625.40 1249.75 598.15
00009115 00000006 949.98 79.28 503.92 745.27 1031.65 363.15 1242.66 338.78 1105.02 479.85 1070.56 619.04 1256.81 598.85
00009116 00000007 949.66 79.69 504.33 744.77 1031.48 363.17 1242.76 338.77 1105.06 480.00 1070.50 619.15 1256.83 598.93
00009117 00000008 949.75 79.88 504.03 744.60 1031.37 363.11 1242.70 338.77 1105.08 480.02 1070.29 619.09 1256.69 598.92
00009118 00000009 947.72 81.15 512.73 734.65 1033.09 369.00 1244.80 345.68 1104.56 478.83 1065.55 613.54 1255.51 592.49
00009119 00000010 947.72 80.94 512.72 734.99 1033.07 368.90 1244.79 345.56 1104.55 478.85 1065.51 613.66 1255.67 592.57
00009120 00000011 949.22 88.27 508.88 718.66 1032.46 372.65 1246.03 351.45 1107.50 486.99 1064.18 611.26 1257.30 592.00
00009121 00000012 949.50 88.56 508.69 718.19 1032.43 372.73 1245.89 351.41 1107.38 486.93 1064.27 611.20 1257.32 591.84
00009122 00000013 949.04 88.35 509.18 718.54 1032.46 372.55 1245.96 351.43 1107.59 486.92 1064.13 611.08 1257.21 591.90
00009123 00000014 950.21 94.72 509.32 720.21 1033.22 375.16 1245.96 356.66 1103.77 493.87 1064.77 617.04 1259.20 599.75
00009124 00000015 950.31 94.88 509.31 720.12 1033.36 375.26 1246.09 356.79 1103.84 493.80 1064.77 617.01 1259.22 599.77
00009125 00000016 950.32 97.64 513.86 733.35 1039.23 377.15 1249.34 362.28 1106.49 499.48 1069.30 628.65 1257.03 615.17
00009126 00000017 950.66 97.52 513.54 733.38 1039.44 377.19 1249.32 362.39 1106.53 499.43 1069.39 628.54 1257.01 615.11
00009127 00000018 950.64 97.67 513.55 733.23 1039.42 377.21 1249.34 362.42 1106.54 499.43 1069.36 628.53 1257.00 615.11
00009128 00000019 959.07 100.18 508.02 743.83 1049.52 384.03 1265.98 369.29 1128.11 511.74 1081.17 636.53 1269.12 623.13
00009129 00000020 958.93 100.35 508.21 743.50 1049.44 383.97 1265.84 369.31 1128.12 511.70 1081.25 636.60 1268.88 623.29
00009130 00000021 965.44 101.96 514.31 757.87 1064.84 395.05 1282.04 382.76 1150.80 531.70 1096.35 647.72 1291.84 634.63
00009131 00000022 965.71 101.66 513.88 758.16 1064.80 395.42 1281.91 383.11 1150.30 531.82 1096.01 647.78 1291.79 634.71
00009132 00000023 965.63 101.62 514.06 757.92 1064.45 395.34 1281.89 383.01 1150.19 531.25 1095.84 647.72 1291.84 634.59
00009133 00000024 967.41 119.88 517.82 742.19 1066.40 400.24 1289.43 381.70 1153.60 534.48 1092.83 654.67 1303.98 638.69
00009134 00000025 967.50 119.85 517.59 742.27 1066.36 400.24 1289.59 381.82 1153.69 534.65 1092.72 654.67 1304.03 638.79
00009135 00000026 972.38 127.47 515.81 740.43 1070.64 407.62 1296.49 389.75 1161.36 544.32 1096.32 658.32 1312.26 642.73
00009136 00000027 972.52 127.26 515.59 740.72 1070.62 407.78 1296.29 389.60 1161.00 544.03 1096.53 658.48 1312.49 642.59
00009137 00000028 972.44 127.27 515.64 740.83 1070.64 407.71 1296.30 389.57 1160.96 544.01 1096.47 658.51 1312.34 642.65
00009138 00000029 974.50 128.65 517.08 750.91 1076.93 416.34 1300.86 400.94 1169.82 557.53 1102.98 664.53 1314.57 648.16
00009139 00000030 974.28 128.77 516.47 750.90 1076.50 416.64 1300.68 400.80 1169.82 557.68 1102.85 664.90 1314.85 648.17
00009140 00000031 974.02 130.75 517.34 752.39 1074.19 419.10 1299.52 404.35 1167.14 561.12 1099.55 666.25 1314.14 650.46
00009141 00000032 974.39 130.63 516.93 752.33 1074.03 418.89 1299.24 404.20 1166.67 560.90 1099.54 666.26 1314.02 650.47
00009142 00000033 974.09 129.85 517.33 753.11 1073.82 418.90 1299.27 404.26 1166.35 561.22 1099.57 666.24 1314.33 650.46
00009143 00000034 973.45 129.98 517.85 752.02 1073.32 419.94 1298.46 405.37 1165.76 561.85 1099.81 666.21 1313.67 650.56
00009144 00000035 973.37 130.27 517.74 751.81 1073.21 419.90 1298.44 405.46 1165.66 561.86 1099.64 666.13 1313.71 650.59
00009145 00000036 972.23 129.03 519.68 748.29 1072.70 419.92 1298.54 406.07 1163.94 562.38 1099.11 663.49 1312.65 648.37
00009146 00000037 972.37 128.98 519.45 748.33 1072.76 419.91 1298.49 406.12 1164.08 562.53 1099.01 663.48 1312.61 648.41
00009147 00000038 972.36 129.12 519.42 748.22 1072.76 419.87 1298.44 406.11 1164.06 562.54 1098.98 663.39 1312.63 648.36
00009148 00000039 972.90 133.30 513.73 729.52 1069.00 413.09 1292.60 401.93 1155.99 558.54 1090.95 652.28 1310.41 641.98
00009149 00000040 972.77 133.20 513.90 729.36 1069.02 413.02 1292.74 401.83 1156.13 558.22 1091.05 652.27 1310.37 641.94
00009150 00000041 975.14 131.36 512.65 719.35 1071.33 410.67 1294.69 400.45 1159.67 557.12 1095.20 649.57 1308.43 640.38
00009151 00000042 975.34 132.57 512.35 719.13 1071.21 410.45 1294.70 400.49 1159.29 557.27 1095.27 649.88 1308.44 640.93
00009152 00000043 975.11 131.94 512.35 719.68 1071.39 410.72 1294.64 400.31 1159.80 556.95 1095.37 649.78 1308.63 640.43
00009153 00000044 974.89 129.91 513.70 720.10 1072.28 408.43 1295.68 399.90 1160.49 555.53 1096.00 648.52 1306.31 641.02
00009154 00000045 974.94 129.53 513.62 720.41 1072.37 408.51 1295.67 399.82 1160.53 555.49 1096.24 648.40 1306.67 640.75
00009155 00000046 976.59 129.13 512.61 722.67 1072.98 406.19 1296.43 397.32 1159.18 549.66 1096.25 649.74 1304.52 642.18
00009156 00000047 976.53 129.28 512.52 721.99 1072.91 406.28 1296.11 397.34 1159.12 550.08 1096.62 649.82 1304.72 642.18
00009157 00000048 976.31 129.86 512.37 721.70 1072.72 406.32 1296.07 397.34 1159.23 549.99 1096.36 649.83 1304.40 642.16
00009158 00000049 978.93 128.83 512.55 726.64 1073.33 404.55 1297.16 393.98 1157.35 546.41 1096.70 651.24 1306.00 642.23
00009159 00000050 978.97 129.14 512.92 726.83 1073.30 404.50 1297.28 393.83 1157.41 546.34 1096.73 651.28 1306.15 642.17
00009160 00000051 981.94 128.97 512.03 731.90 1075.48 403.30 1299.10 390.86 1160.55 543.58 1096.39 650.15 1311.05 639.39
00009161 00000052 981.97 129.07 512.25 732.06 1075.50 403.33 1299.03 390.82 1160.55 543.43 1096.34 650.29 1310.92 639.50
00009162 00000053 981.76 128.95 512.09 732.16 1075.48 403.40 1298.87 390.89 1160.55 543.39 1096.37 650.31 1310.86 639.48
00009163 00000054 983.78 126.28 513.44 733.94 1077.37 398.37 1302.47 386.73 1162.91 539.49 1096.35 647.38 1312.81 637.23
00009164 00000055 983.72 126.25 513.80 734.19 1077.38 398.21 1302.24 386.72 1162.53 539.48 1096.14 647.25 1312.91 637.21
00009165 00000056 986.08 121.28 512.70 736.72 1081.86 392.96 1304.27 383.74 1164.38 532.80 1098.13 642.97 1313.85 634.70
00009166 00000057 986.29 121.87 512.45 735.94 1081.79 393.04 1304.26 383.76 1164.27 532.85 1098.29 643.12 1313.80 634.80
00009167 00000058 986.29 121.87 512.47 735.93 1081.76 393.02 1304.26 383.80 1164.25 532.88 1098.19 643.08 1313.77 634.82
00009168 00000059 988.61 116.64 510.99 733.81 1084.98 385.67 1307.81 378.67 1168.85 526.71 1100.43 634.61 1317.07 628.05
00009169 00000060 988.30 116.54 511.34 733.85 1084.97 385.54 1307.71 378.61 1168.80 526.71 1100.41 634.62 1317.08 628.12
00009170 00000061 990.32 112.44 509.83 729.51 1091.25 380.66 1313.14 375.04 1174.99 515.62 1103.70 625.67 1321.00 620.11
00009171 00000062 990.89 111.60 509.17 730.23 1091.26 381.00 1313.01 375.37 1174.43 515.52 1103.49 625.32 1321.04 619.76
00009172 00000063 990.40 112.69 509.72 729.10 1091.19 380.67 1312.98 374.99 1174.93 515.62 1103.79 625.65 1320.94 620.05
00009173 00000064 993.89 109.80 508.63 727.96 1094.52 379.50 1316.50 372.28 1178.99 508.78 1106.50 621.56 1327.10 614.42
00009174 00000065 994.20 111.17 508.75 726.40 1094.63 379.50 1316.46 372.24 1178.96 508.75 1106.83 621.56 1326.85 614.39
00009175 00000066 994.59 110.35 510.05 725.74 1094.24 378.43 1316.99 370.44 1179.69 508.02 1107.20 619.08 1330.60 611.04
00009176 00000067 994.53 110.48 509.91 725.35 1094.52 378.35 1317.32 370.58 1180.11 507.81 1107.17 619.01 1330.34 611.19
00009177 00000068 994.42 110.19 510.02 725.69 1094.47 378.32 1317.37 370.51 1180.17 507.84 1107.21 619.02 1330.51 611.15
00009178 00000069 993.95 111.17 508.48 717.12 1092.23 377.57 1315.20 371.18 1178.57 507.54 1105.27 615.69 1326.60 609.22
00009179 00000070 993.86 110.46 508.29 717.71 1092.42 377.55 1315.24 371.25 1178.83 507.37 1105.36 615.65 1326.41 609.27
00009180 00000071 992.01 110.47 508.93 715.22 1089.17 376.49 1313.51 370.60 1175.29 505.84 1103.38 614.04 1324.26 607.93
00009181 00000072 992.20 110.56 508.69 714.80 1089.28 376.44 1313.57 370.74 1175.34 505.86 1103.45 613.97 1324.07 608.06
00009182 00000073 992.17 110.59 508.65 714.69 1089.29 376.39 1313.59 370.73 1175.40 505.88 1103.50 613.97 1324.03 608.10
00009183 00000074 990.36 108.72 508.30 716.49 1086.32 379.39 1310.25 374.02 1170.74 508.05 1099.88 615.55 1319.77 610.15
00009184 00000075 990.18 109.24 507.98 716.01 1086.31 379.45 1309.96 374.26 1170.55 508.42 1100.03 615.56 1319.65 610.33
00009185 00000076 987.95 115.38 508.19 714.33 1082.97 381.84 1306.08 377.60 1168.29 517.67 1096.99 618.59 1314.90 614.48
00009186 00000077 988.17 114.68 507.55 715.07 1083.08 381.90 1306.51 377.42 1168.65 517.86 1097.20 618.64 1315.28 614.32
00009187 00000078 988.31 115.08 508.22 714.50 1083.05 381.95 1306.41 377.90 1167.53 517.39 1097.50 618.89 1315.37 614.87
00009188 00000079 988.09 121.03 507.06 715.29 1081.67 388.35 1303.86 382.11 1166.50 528.14 1097.42 625.07 1315.87 619.04
00009189 00000080 988.01 120.84 507.00 715.76 1081.76 388.36 1303.87 382.19 1166.59 528.19 1097.20 625.00 1316.06 619.02
00009190 00000081 986.97 123.64 507.94 718.74 1081.93 394.11 1304.34 386.05 1168.16 534.36 1097.66 631.29 1317.54 623.60
00009191 00000082 987.04 123.71 507.91 718.76 1082.07 394.15 1304.30 385.97 1168.39 534.56 1097.84 631.26 1317.82 623.45
00009192 00000083 987.09 123.73 507.95 718.68 1082.10 394.22 1304.25 386.02 1168.33 534.57 1097.90 631.25 1317.78 623.43
00009193 00000084 986.88 126.00 508.80 727.27 1083.90 396.24 1308.14 386.66 1172.09 535.87 1097.95 637.35 1321.18 628.32
00009194 00000085 986.66 125.93 508.98 727.45 1083.99 396.20 1308.30 386.63 1172.23 535.47 1097.85 637.33 1321.16 628.30
00009195 00000086 982.47 122.00 516.37 744.19 1094.59 403.20 1316.25 397.65 1184.69 541.64 1107.87 640.77 1322.07 632.12
00009196 00000087 982.79 122.15 516.10 743.85 1094.46 403.20 1316.06 397.50 1184.34 541.48 1107.71 640.99 1321.87 632.22
00009197 00000088 982.78 122.48 516.29 743.62 1094.44 403.15 1316.07 397.41 1184.37 541.47 1107.68 641.03 1321.84 632.23
00009198 00000089 981.30 123.64 515.20 743.70 1095.57 401.45 1318.21 395.87 1189.12 541.89 1109.88 640.58 1325.29 631.73
00009199 00000090 981.23 123.88 515.31 743.49 1095.64 401.53 1318.43 395.93 1189.31 541.92 1109.98 640.51 1325.43 631.64
00009200 00000091 976.32 123.39 518.53 742.42 1094.29 399.44 1317.12 394.18 1189.73 538.69 1109.48 638.18 1324.26 629.42
00009201 00000092 976.39 123.33 518.17 742.64 1094.26 399.27 1317.13 393.94 1189.68 538.63 1109.53 638.43 1324.21 629.62
00009202 00000093 976.31 123.33 518.24 742.60 1094.25 399.26 1317.13 393.93 1189.71 538.68 1109.57 638.44 1324.21 629.64
00009203 00000094 972.41 121.62 518.24 740.18 1092.78 394.65 1312.60 390.39 1188.52 533.70 1107.92 633.95 1319.50 626.14
00009204 00000095 972.37 121.79 517.81 739.83 1092.80 394.67 1312.56 390.35 1188.70 533.82 1108.13 633.96 1319.65 626.09
00009205 00000096 971.40 118.41 516.50 736.79 1091.22 390.34 1309.44 387.26 1186.00 528.30 1106.55 629.78 1315.71 622.87
00009206 00000097 971.71 119.43 515.88 735.46 1091.09 390.22 1309.52 387.20 1186.03 528.25 1106.26 629.90 1315.44 623.08
00009207 00000098 971.21 117.35 516.39 737.93 1091.06 390.17 1309.48 386.94 1186.00 528.18 1106.47 629.70 1315.90 622.67
00009208 00000099 974.05 122.85 509.77 721.13 1082.59 385.37 1308.37 378.13 1178.22 524.90 1096.50 627.58 1315.26 620.77
00009209 00000100 973.93 122.78 510.01 721.43 1082.52 385.37 1308.36 378.17 1178.15 524.81 1096.32 627.57 1315.26 620.79
00009210 00000101 977.32 120.79 511.48 719.29 1089.55 384.38 1314.59 379.95 1184.82 523.84 1102.55 625.88 1318.52 621.38
00009211 00000102 977.26 120.85 511.52 719.37 1089.51 384.40 1314.53 380.01 1184.80 523.77 1102.49 625.90 1318.61 621.40
00009212 00000103 977.36 120.89 511.47 719.27 1089.53 384.40 1314.53 380.01 1184.80 523.80 1102.56 625.87 1318.61 621.37
00009213 00000104 984.19 123.02 511.41 717.21 1100.93 384.04 1326.34 383.97 1197.14 524.71 1108.46 625.29 1326.68 624.05
00009214 00000105 984.28 123.32 511.26 716.53 1100.78 383.84 1326.38 383.87 1197.25 524.98 1108.55 625.20 1326.65 624.05
00009215 00000106 989.94 117.95 512.04 720.75 1108.83 380.57 1338.67 382.13 1208.44 523.11 1115.31 623.55 1335.21 623.54
00009216 00000107 990.08 118.31 511.26 719.72 1108.59 380.66 1338.36 382.01 1208.38 523.29 1115.56 623.63 1335.12 623.44
00009217 00000108 990.03 118.35 511.25 719.54 1108.57 380.56 1338.28 381.97 1208.26 523.24 1115.45 623.56 1334.94 623.43
00009218 00000109 994.04 115.59 514.30 723.09 1113.11 377.44 1342.89 381.66 1210.72 523.50 1119.07 621.37 1338.71 623.61
00009219 00000110 994.21 115.89 514.01 722.63 1113.12 377.45 1342.73 381.77 1210.66 523.42 1118.93 621.25 1338.45 623.58
00009220 00000111 995.80 117.76 513.59 722.41 1112.81 377.40 1342.62 380.94 1210.33 523.84 1120.05 622.84 1339.09 624.49
00009221 00000112 995.87 117.54 513.22 722.18 1112.87 377.39 1342.64 380.91 1210.56 524.16 1120.38 622.87 1339.18 624.53
00009222 00000113 995.95 117.53 513.07 722.34 1112.83 377.42 1342.54 380.91 1210.49 524.19 1120.39 622.90 1339.16 624.54
00009223 00000114 996.29 118.15 512.54 719.96 1111.77 379.15 1340.91 381.76 1209.03 525.26 1119.74 622.97 1338.44 623.87
00009224 00000115 996.34 118.29 512.49 719.71 1111.79 379.17 1340.89 381.82 1208.97 525.23 1119.73 622.91 1338.33 623.85
00009225 00000116 996.87 119.52 512.40 715.62 1111.67 380.34 1340.55 382.27 1208.14 523.54 1120.21 622.96 1336.27 623.40
00009226 00000117 997.00 118.87 512.19 716.52 1111.64 380.37 1340.56 382.49 1207.90 523.07 1119.89 622.82 1336.65 623.40
00009227 00000118 997.00 119.45 512.70 715.71 1111.58 380.14 1340.43 382.11 1207.95 523.54 1120.32 622.99 1336.35 623.45
00009228 00000119 1002.38 118.05 509.73 710.65 1116.74 377.28 1345.48 381.18 1212.75 523.31 1127.44 618.50 1339.21 620.75
00009229 00000120 1002.31 118.05 510.01 710.96 1116.69 377.34 1345.41 381.11 1212.71 523.04 1127.34 618.56 1339.16 620.70
00009230 00000121 1009.66 115.34 510.50 709.26 1128.79 376.94 1356.73 381.33 1224.98 515.74 1138.60 615.50 1348.18 617.69
00009231 00000122 1009.76 115.25 510.67 709.63 1128.81 376.89 1356.71 381.24 1225.00 515.88 1138.65 615.49 1348.44 617.64
00009232 00000123 1009.46 114.58 510.43 709.70 1128.80 377.08 1356.74 381.24 1225.23 515.95 1138.74 615.53 1348.57 617.53
00009233 00000124 1015.83 113.81 509.33 707.18 1137.81 375.99 1368.98 379.01 1239.29 510.22 1147.16 615.20 1355.04 616.39
00009234 00000125 1016.23 114.13 508.99 706.91 1137.92 375.82 1368.91 378.92 1239.30 510.42 1147.52 615.29 1354.87 616.56
00009235 00000126 1025.08 108.32 500.72 704.19 1143.78 374.16 1375.45 374.52 1255.77 504.45 1160.45 612.77 1366.41 611.96
00009236 00000127 1025.31 108.37 500.67 704.09 1143.90 374.13 1375.47 374.37 1256.15 504.64 1160.47 612.73 1366.54 611.84
00009237 00000128 1025.28 108.32 500.77 704.13 1143.97 374.14 1375.46 374.38 1256.12 504.60 1160.52 612.71 1366.46 611.84
00009238 00000129 1026.26 101.70 503.30 720.52 1148.95 368.38 1377.46 370.56 1252.91 500.20 1158.05 613.38 1365.33 613.89
00009239 00000130 1026.12 101.53 503.63 720.73 1148.81 368.29 1377.53 370.60 1252.66 500.06 1157.89 613.36 1365.44 613.95
00009240 00000131 1024.02 99.49 505.34 730.57 1149.31 361.97 1377.99 365.00 1255.35 495.63 1154.32 612.79 1368.34 613.99
00009241 00000132 1024.17 99.54 505.30 730.29 1149.46 362.15 1377.94 365.11 1255.36 495.65 1154.57 612.70 1368.34 613.82
00009242 00000133 1024.18 99.47 505.39 730.36 1149.44 362.12 1378.02 365.02 1255.37 495.66 1154.64 612.75 1368.42 613.82
00009243 00000134 1025.20 97.95 503.56 734.65 1149.83 359.46 1377.30 362.32 1254.84 492.55 1155.36 612.40 1368.70 613.35
00009244 00000135 1025.26 98.55 503.50 733.37 1149.83 359.48 1377.21 362.55 1254.66 492.73 1154.96 612.17 1368.35 613.33
00009245 00000136 1025.50 97.42 504.39 735.86 1149.83 358.26 1377.32 362.94 1253.35 492.57 1155.95 612.18 1368.76 614.63
00009246 00000137 1025.50 97.55 504.30 735.77 1149.89 358.24 1377.34 363.03 1253.47 492.68 1155.94 612.12 1368.71 614.67
00009247 00000138 1025.50 97.38 504.25 736.09 1149.87 358.25 1377.31 363.02 1253.46 492.64 1155.92 612.22 1368.65 614.75
00009248 00000139 1025.36 98.54 505.67 736.93 1150.40 360.14 1376.07 365.27 1252.43 494.54 1155.95 613.38 1366.83 616.15
00009249 00000140 1025.35 99.03 505.51 736.42 1150.30 360.19 1375.90 365.40 1252.21 494.63 1155.98 613.21 1366.86 616.02
00009250 00000141 1025.89 99.56 505.40 737.01 1148.50 362.23 1374.61 367.63 1247.79 496.21 1153.15 614.33 1364.47 617.36
00009251 00000142 1025.90 100.02 505.32 736.07 1148.51 362.28 1374.82 367.74 1247.65 496.19 1153.14 614.19 1364.59 617.27
00009252 00000143 1026.33 100.21 504.95 735.34 1148.54 362.20 1375.09 368.09 1247.56 496.51 1153.18 614.18 1364.65 617.70
00009253 00000144 1025.87 101.84 505.48 734.69 1147.66 362.41 1374.11 368.77 1245.92 497.64 1151.86 614.29 1363.84 618.15
00009254 00000145 1025.85 101.16 505.82 735.80 1147.63 362.20 1374.08 368.44 1245.77 497.29 1151.79 614.45 1363.72 618.22
00009255 00000146 1025.77 100.82 506.67 738.49 1147.34 362.43 1373.74 367.97 1245.03 497.36 1151.63 614.74 1365.54 617.79
00009256 00000147 1025.60 100.96 506.33 738.25 1147.32 362.48 1373.95 367.98 1245.16 496.98 1151.50 614.65 1365.59 617.73
00009257 00000148 1025.39 100.86 506.64 738.61 1147.15 362.53 1373.94 367.82 1245.26 497.07 1151.37 614.86 1365.73 617.77
00009258 00000149 1025.68 101.21 506.11 737.66 1146.92 362.84 1373.96 368.11 1245.21 498.03 1151.71 615.05 1366.70 617.91
00009259 00000150 1025.88 101.31 506.09 737.77 1146.97 362.84 1373.93 367.96 1245.11 497.90 1152.00 615.23 1366.70 617.97
00009260 00000151 1025.29 101.13 507.38 738.07 1147.40 362.98 1374.39 368.17 1246.04 498.60 1152.32 614.76 1367.80 617.48
00009261 00000152 1025.31 101.45 507.47 737.89 1147.38 363.03 1374.06 368.14 1245.69 498.47 1152.39 614.66 1367.89 617.30
00009262 00000153 1025.17 101.64 507.75 737.52 1147.49 362.97 1374.18 368.33 1245.96 498.34 1152.29 614.76 1367.40 617.56
00009263 00000154 1025.15 101.75 507.60 737.42 1147.43 363.13 1374.24 368.14 1245.94 498.35 1152.58 614.52 1368.23 617.04
00009264 00000155 1025.08 101.83 507.67 737.32 1147.33 363.18 1374.24 368.39 1245.87 498.50 1152.24 614.51 1368.03 617.21
00009265 00000156 1024.89 101.91 507.20 737.29 1147.23 363.38 1373.37 368.63 1245.49 498.68 1152.24 614.61 1366.82 617.31
00009266 00000157 1024.84 102.11 507.22 737.13 1147.05 363.42 1373.55 368.59 1245.41 498.79 1152.20 614.72 1367.36 617.36
00009267 00000158 1024.96 102.11 506.77 737.13 1147.02 363.53 1373.51 368.61 1245.49 498.90 1152.20 614.78 1367.45 617.35
00009268 00000159 1023.77 103.84 507.59 735.93 1145.48 364.74 1372.15 370.01 1243.42 500.41 1151.50 616.86 1364.01 619.75
00009269 00000160 1023.64 103.54 507.63 736.20 1145.43 364.88 1372.18 370.20 1243.43 500.60 1151.24 616.71 1364.22 619.63
00009270 00000161 1022.75 105.11 507.56 733.82 1143.40 368.12 1368.82 372.64 1239.77 502.89 1149.83 618.33 1359.27 620.79
00009271 00000162 1022.71 105.21 507.71 733.77 1143.43 368.12 1368.70 372.48 1239.79 502.79 1149.74 618.11 1359.42 620.42
00009272 00000163 1022.65 105.18 507.91 733.93 1143.31 368.03 1368.79 372.45 1239.62 502.78 1149.88 618.38 1359.35 620.77
