Video ID: 	eqiYWzw6p9Q
H: 	1080
W: 	1920
FPS: 	29.97002997002997

FRAME INDEX X0 Y0 W H [Landmarks (5 Points)]

00035701 00000000 368.49 88.39 478.11 721.58 642.11 400.50 787.20 370.40 833.86 503.05 701.50 648.78 816.77 625.18
00035702 DELETE   348.09 88.40 486.68 748.23 634.83 406.59 796.73 399.49 811.02 525.33 664.49 664.90 794.19 660.31
00035703 00000002 336.76 107.41 493.69 772.75 633.34 409.99 794.13 413.55 803.32 551.30 635.67 677.97 772.11 681.20
00035704 00000003 356.61 100.10 482.79 759.22 645.36 401.02 794.93 394.22 827.03 531.72 659.13 666.56 791.41 661.33
00035705 DELETE   356.31 100.97 482.59 759.32 645.35 400.41 794.30 393.31 827.44 531.56 656.96 666.66 789.68 661.27
00035706 DELETE   374.75 80.29 481.84 722.70 663.14 369.84 799.27 350.92 844.42 478.39 699.17 622.72 816.73 607.50
00035707 00000006 375.19 64.31 481.19 728.62 648.09 364.83 787.32 341.47 832.66 461.53 708.10 615.36 823.96 596.58
00035708 00000007 367.93 72.76 479.80 729.15 636.65 373.75 788.02 355.31 824.61 475.07 701.21 630.82 821.31 614.99
00035709 DELETE   366.65 81.70 478.01 743.26 638.03 393.26 798.75 385.61 827.50 505.35 686.63 651.87 813.37 644.82
00035710 00000009 366.60 79.14 478.16 745.42 638.54 393.92 797.36 384.92 827.89 505.72 687.18 652.84 812.18 644.84
00035711 00000010 374.45 87.58 474.67 737.31 646.43 392.14 807.96 389.26 832.64 509.29 683.47 647.15 813.39 644.39
00035712 00000011 374.21 84.43 473.54 727.86 663.65 383.04 802.30 377.33 833.68 502.58 683.24 628.46 805.07 623.30
00035713 00000012 377.41 79.24 475.83 726.65 652.28 378.07 800.70 371.56 833.16 491.11 675.97 622.74 805.18 618.28
00035714 00000013 378.78 76.98 473.82 730.29 652.63 379.77 808.26 378.89 832.68 497.39 671.05 624.62 805.08 624.38
00035715 00000014 378.78 76.98 473.82 730.29 652.63 379.77 808.26 378.89 832.68 497.39 671.05 624.62 805.08 624.38
00035716 00000015 383.58 85.99 475.19 725.78 654.02 384.52 821.12 390.67 833.29 506.36 674.08 633.28 812.98 638.28
00035717 00000016 394.34 87.99 475.71 717.11 668.09 385.07 830.35 393.01 842.83 504.44 688.68 630.45 820.30 637.90
00035718 00000017 393.25 95.70 475.28 715.03 683.58 382.25 829.20 392.35 847.99 502.44 691.90 625.74 814.39 634.61
00035719 00000018 391.84 97.13 477.19 717.88 685.46 383.72 831.87 396.07 851.40 505.16 692.12 628.78 815.65 639.60
00035720 00000019 391.85 97.13 477.19 717.89 685.48 383.73 831.87 396.10 851.43 505.15 692.13 628.76 815.64 639.60
00035721 00000020 396.83 96.42 476.52 724.89 687.55 390.55 835.84 401.67 850.02 512.26 692.15 636.69 815.73 646.75
00035722 00000021 403.22 98.08 476.85 726.46 692.08 389.13 844.43 400.12 854.85 511.86 695.31 638.06 823.65 648.26
00035723 00000022 407.69 96.58 475.37 725.24 693.88 386.95 845.16 401.06 853.71 507.05 695.46 631.89 824.61 644.47
00035724 00000023 406.50 95.43 476.70 727.69 694.26 382.68 845.68 399.06 854.66 503.71 695.18 630.52 824.86 644.90
00035725 00000024 407.56 93.56 475.16 730.31 694.69 383.41 845.86 400.27 854.23 504.46 695.67 630.34 825.34 644.93
00035726 00000025 408.53 95.23 476.12 732.93 694.19 385.05 846.50 399.99 854.83 507.98 694.20 633.91 826.86 646.90
00035727 00000026 413.14 94.58 475.69 738.37 697.62 386.99 852.16 402.20 858.08 513.12 696.33 639.72 829.43 653.38
00035728 00000027 417.13 91.71 477.47 734.31 699.73 385.76 856.79 400.37 859.71 509.20 699.66 634.42 835.26 647.42
00035729 00000028 417.80 91.16 479.59 729.11 700.92 381.89 857.08 395.29 861.20 501.13 700.44 625.45 836.90 637.49
00035730 00000029 417.83 91.11 479.48 729.16 700.92 381.90 857.10 395.28 861.20 501.13 700.43 625.44 836.92 637.45
00035731 00000030 418.59 90.73 478.43 726.50 700.02 379.72 856.73 391.28 860.34 499.51 700.98 624.29 836.67 634.75
00035732 00000031 420.08 103.62 474.63 716.10 702.26 380.66 851.24 392.61 861.56 499.64 708.90 625.79 833.34 636.34
00035733 00000032 423.22 93.96 474.36 725.83 704.10 383.55 859.90 399.54 860.85 504.54 705.78 629.62 839.04 643.68
00035734 00000033 425.90 94.49 472.90 726.35 704.85 384.74 863.17 402.67 861.82 507.11 710.06 633.06 842.28 648.46
00035735 00000034 425.96 94.84 472.72 725.90 704.57 385.01 863.04 403.20 861.26 507.04 709.84 632.94 842.31 648.53
00035736 00000035 427.43 95.76 471.27 722.28 705.06 385.36 863.29 403.76 860.99 507.11 713.46 632.66 843.62 648.26
00035737 00000036 428.54 94.69 469.58 720.83 704.59 385.67 864.08 402.38 861.26 507.38 716.47 633.86 845.30 647.82
00035738 00000037 429.74 94.04 465.64 721.27 702.05 387.54 864.43 402.28 860.43 510.55 718.01 637.48 848.00 649.67
00035739 00000038 431.35 93.48 461.53 724.29 699.84 389.30 865.19 402.49 859.69 511.57 721.68 641.88 853.07 652.60
00035740 00000039 431.32 93.57 461.75 724.48 699.72 389.26 865.30 402.41 859.57 511.64 721.60 642.12 853.22 652.80
00035741 00000040 432.09 92.94 460.54 717.98 699.83 386.63 866.06 403.76 857.81 506.61 724.87 637.45 854.63 650.90
00035742 00000041 423.57 84.48 469.14 712.80 678.83 380.02 852.78 390.12 842.36 494.01 717.76 628.63 851.35 637.21
00035743 00000042 417.47 77.37 469.29 711.72 669.12 371.57 844.62 384.71 833.06 485.13 707.42 619.79 843.15 630.63
00035744 00000043 410.22 74.47 473.86 718.43 664.78 369.04 838.36 382.96 829.03 485.60 701.71 620.77 836.92 631.82
00035745 00000044 410.28 74.58 473.76 718.11 664.84 369.03 838.38 382.95 828.93 485.71 701.51 620.79 836.68 631.86
00035746 00000045 408.98 73.95 472.53 722.12 664.82 368.96 835.67 384.42 827.80 486.75 700.29 622.42 832.67 634.75
00035747 00000046 409.35 72.42 474.87 720.53 666.37 368.82 837.90 385.07 831.25 486.24 697.18 619.64 832.00 633.06
00035748 00000047 406.90 71.47 476.08 712.86 672.15 364.92 834.44 379.88 832.67 479.91 692.13 607.77 823.92 620.66
00035749 DELETE   394.80 70.66 478.24 707.51 659.94 351.22 828.14 375.43 823.46 459.46 679.63 595.51 815.70 615.33
00035750 DELETE   394.82 70.48 478.18 707.72 659.96 351.22 828.14 375.38 823.43 459.50 679.64 595.59 815.65 615.34
00035751 DELETE   383.60 69.39 489.20 711.40 646.41 342.71 821.69 370.93 808.19 445.68 671.93 588.17 815.67 610.50
00035752 00000051 375.81 66.53 492.02 713.66 631.72 339.19 815.41 364.62 798.06 440.94 660.19 587.68 814.23 607.14
00035753 00000052 373.18 68.61 494.67 708.57 626.56 343.63 816.17 366.92 790.88 455.21 652.01 592.66 808.25 610.42
00035754 00000053 373.32 70.17 490.82 709.25 626.11 351.36 819.10 372.67 788.34 472.99 648.05 601.47 802.47 617.60
00035755 00000054 373.56 70.21 490.73 709.10 626.00 351.42 819.19 372.88 788.09 472.90 648.04 601.32 802.64 617.55
00035756 00000055 378.57 75.35 487.55 717.77 632.09 352.91 819.40 379.25 786.94 477.27 653.26 609.25 797.61 629.93
00035757 00000056 381.24 75.93 485.68 732.16 634.99 351.16 818.37 378.96 790.12 474.18 654.44 612.43 799.56 634.47
00035758 00000057 377.05 69.07 490.92 710.58 629.81 352.15 821.78 373.04 791.90 472.76 650.97 602.18 805.02 618.36
00035759 00000058 369.74 70.52 493.21 706.48 622.61 350.01 817.52 370.11 788.88 468.81 646.07 597.48 806.24 612.27
00035760 00000059 369.74 70.54 493.20 706.41 622.62 350.01 817.54 370.10 788.90 468.82 646.08 597.48 806.24 612.27
00035761 00000060 363.43 72.47 491.28 709.34 614.26 349.35 807.98 370.68 778.09 470.48 638.17 598.78 796.80 614.24
00035762 00000061 361.21 76.38 492.37 707.30 617.06 349.53 809.09 371.38 773.49 472.10 636.76 602.18 787.19 618.89
00035763 00000062 356.23 80.83 492.62 699.22 611.65 353.73 805.35 371.55 770.87 475.80 638.17 606.52 787.69 619.42
00035764 00000063 352.69 79.51 489.57 694.71 605.77 351.39 799.78 367.55 766.16 472.84 636.95 603.83 787.14 614.95
00035765 00000064 352.72 79.41 489.50 694.71 605.93 351.39 799.83 367.53 766.19 473.03 637.03 603.81 787.07 614.91
00035766 00000065 351.21 78.04 486.32 693.07 600.60 350.46 794.41 365.03 761.52 466.85 636.65 601.40 786.72 611.05
00035767 00000066 350.21 78.03 482.27 699.08 599.69 350.16 791.92 365.70 758.42 468.39 635.99 604.21 782.82 614.40
00035768 00000067 347.78 77.66 486.47 718.17 601.89 355.88 792.68 372.76 761.72 478.38 634.45 616.41 779.73 628.11
00035769 00000068 347.55 82.95 489.14 720.60 605.11 366.02 794.44 387.18 764.02 492.83 633.37 626.57 777.46 642.15
00035770 00000069 348.54 82.86 488.16 721.14 605.12 366.35 794.66 387.74 763.78 492.36 632.74 626.21 777.40 641.92
00035771 00000070 349.70 87.80 487.93 731.91 609.07 378.07 796.42 398.28 765.06 506.04 630.59 639.63 777.64 654.88
00035772 00000071 343.67 95.18 494.31 741.20 608.77 386.40 788.24 407.78 759.46 520.34 619.88 648.75 765.58 665.85
00035773 00000072 342.12 110.36 500.26 746.80 606.04 387.79 791.56 414.31 758.01 523.59 611.55 655.04 760.08 675.26
00035774 00000073 344.71 103.94 498.39 750.82 609.88 386.30 792.54 412.77 759.65 517.66 614.93 649.76 762.52 670.10
00035775 00000074 344.61 103.18 499.06 752.54 609.62 386.10 791.67 411.57 759.16 517.65 614.16 649.19 761.79 668.71
00035776 00000075 347.86 88.19 497.37 747.66 615.92 376.77 796.72 400.71 769.64 505.90 624.99 638.50 773.72 657.79
00035777 00000076 348.27 84.58 493.74 735.67 612.76 368.41 797.25 393.79 769.24 495.66 630.82 631.27 775.87 651.08
00035778 00000077 346.43 83.84 493.15 739.49 611.20 370.31 795.99 395.55 767.49 498.31 627.09 632.38 773.82 651.95
00035779 00000078 346.92 93.13 493.50 745.75 613.76 380.93 793.08 405.19 765.84 512.99 622.80 644.74 770.26 664.37
00035780 00000079 346.91 93.14 493.50 745.75 613.75 380.92 793.08 405.19 765.83 512.98 622.78 644.73 770.25 664.37
00035781 00000080 351.58 102.75 498.81 742.57 615.49 384.71 798.92 409.11 765.12 517.92 625.83 650.65 768.13 669.80
00035782 00000081 366.11 105.72 494.06 733.13 629.68 387.50 808.19 411.42 778.70 518.20 638.24 648.12 776.76 667.62
00035783 00000082 379.55 90.95 489.17 734.00 633.03 379.16 825.05 404.80 789.73 512.50 651.04 639.32 798.45 658.97
00035784 00000083 388.07 89.20 487.41 723.05 634.99 380.40 832.42 402.41 793.30 511.84 658.13 638.06 809.19 654.68
00035785 00000084 388.04 88.99 487.53 723.26 635.06 380.48 832.43 402.48 793.36 511.90 658.21 638.05 809.21 654.65
00035786 00000085 391.53 92.60 491.89 719.54 641.46 385.06 837.30 406.20 800.50 516.58 664.87 642.36 814.10 658.57
00035787 00000086 399.99 98.16 490.04 721.93 646.97 390.98 840.57 412.38 805.08 523.35 669.04 649.51 817.43 666.35
00035788 00000087 402.55 102.54 491.91 720.05 650.48 392.67 843.87 417.95 808.99 526.68 666.99 652.14 816.21 672.82
00035789 00000088 406.15 105.65 491.24 712.49 653.21 392.29 846.18 419.69 809.48 529.41 662.29 647.28 813.04 670.29
00035790 00000089 405.13 103.74 492.14 714.68 653.54 392.25 846.61 419.27 810.32 529.40 660.69 647.00 812.74 669.72
00035791 00000090 404.89 104.89 493.00 711.03 654.97 390.61 848.21 421.00 809.59 530.33 656.32 643.30 809.29 669.10
00035792 00000091 404.90 104.53 493.59 709.69 656.57 390.12 849.33 420.64 811.00 530.46 656.04 641.89 808.63 667.94
00035793 00000092 404.53 104.08 494.09 715.86 657.49 389.87 849.97 421.42 811.57 531.18 656.23 644.59 808.78 671.40
00035794 00000093 399.86 107.96 494.27 733.33 671.43 389.94 849.18 427.39 817.97 536.72 652.81 648.47 802.93 679.61
00035795 00000094 399.79 106.81 494.84 735.13 671.06 390.11 849.71 427.18 818.12 536.53 652.25 648.79 803.85 679.62
00035796 00000095 401.02 109.61 495.05 741.07 674.60 390.50 849.07 428.75 820.15 536.57 653.29 650.25 804.91 682.25
00035797 00000096 402.77 108.74 494.65 743.19 675.74 390.71 849.48 430.22 820.07 536.48 653.52 649.28 805.56 682.21
00035798 00000097 403.76 107.03 494.92 743.77 675.18 389.30 850.79 430.31 817.33 536.74 651.47 649.68 802.16 684.04
00035799 00000098 403.69 108.67 495.58 742.18 673.65 388.34 849.75 429.89 814.72 535.43 654.01 651.02 801.87 685.68
00035800 00000099 403.70 108.39 495.62 742.35 673.65 388.36 849.76 429.85 814.71 535.43 654.00 651.01 801.86 685.64
00035801 00000100 405.32 110.57 493.63 732.60 672.25 387.92 848.65 428.35 812.17 533.67 656.96 649.25 801.66 682.76
00035802 00000101 406.56 105.60 493.35 730.56 672.38 386.11 850.40 428.36 811.93 532.21 658.20 645.20 802.96 680.06
00035803 00000102 411.86 100.88 494.68 720.80 664.46 385.38 855.30 426.14 812.04 528.15 656.65 641.45 807.16 676.21
00035804 00000103 415.13 94.73 491.83 718.77 664.42 384.66 856.06 422.47 811.72 524.02 658.41 637.36 807.97 669.60
00035805 00000104 414.74 94.76 492.70 718.68 663.63 384.82 856.49 422.54 811.26 524.36 657.68 637.51 808.26 669.66
00035806 00000105 416.76 91.52 489.77 719.40 664.75 377.64 858.26 418.14 813.21 517.26 658.61 630.44 810.87 664.84
00035807 00000106 416.93 94.48 491.84 725.54 679.99 371.86 862.88 416.18 822.67 509.54 673.97 626.44 819.41 662.15
00035808 00000107 419.71 93.22 492.99 725.44 681.90 371.90 867.10 416.09 824.83 509.45 675.91 625.81 823.19 661.44
00035809 00000108 422.05 93.74 493.72 722.01 687.65 372.24 872.54 416.87 830.18 510.01 680.70 623.46 827.54 659.35
00035810 00000109 421.95 93.75 493.81 721.97 687.54 372.12 872.53 416.82 830.17 509.88 680.73 623.42 827.60 659.36
00035811 00000110 424.40 92.64 495.58 727.79 685.32 368.87 877.03 418.96 829.36 513.51 673.67 622.94 823.12 663.22
00035812 00000111 422.47 108.04 496.56 726.36 694.25 381.28 875.40 431.06 833.77 538.23 675.20 638.48 822.81 678.33
00035813 00000112 426.59 114.77 499.87 735.58 702.92 390.83 882.73 441.44 839.45 535.93 680.37 645.92 823.98 687.56
00035814 00000113 432.46 117.38 498.63 749.60 714.75 385.97 886.70 442.34 854.51 550.37 670.04 648.73 821.51 695.70
00035815 00000114 432.38 117.32 498.67 749.67 714.90 385.99 886.68 442.46 854.58 550.46 670.08 648.71 821.36 695.78
00035816 00000115 436.41 115.99 502.05 750.63 719.03 384.79 891.64 438.97 861.00 546.68 674.23 646.99 828.58 692.43
00035817 00000116 439.79 109.75 501.35 743.80 720.95 378.04 891.45 433.30 859.26 534.01 682.03 638.51 830.94 684.52
00035818 00000117 442.00 99.00 494.00 733.43 720.05 365.18 889.17 420.85 855.25 516.03 691.22 620.87 835.06 666.13
00035819 00000118 442.78 80.54 487.98 716.08 712.20 351.36 893.86 403.54 860.85 495.38 697.63 599.32 845.87 641.89
00035820 00000119 442.93 79.95 487.12 716.35 712.09 351.30 893.36 402.81 860.61 494.94 697.90 599.44 845.40 641.44
00035821 00000120 441.03 81.77 485.10 701.85 711.08 352.13 892.13 394.59 857.99 480.46 705.71 593.44 851.83 627.83
00035822 00000121 439.36 76.80 477.48 694.31 704.58 337.74 885.86 376.51 855.81 466.56 709.83 586.45 851.89 617.55
00035823 00000122 438.22 68.30 476.45 702.09 702.41 330.89 880.36 367.21 854.10 452.38 714.59 582.24 854.16 611.29
00035824 00000123 438.14 67.92 478.17 702.93 705.79 327.32 878.97 364.70 856.76 446.18 719.88 580.11 855.36 610.29
00035825 00000124 438.15 67.95 478.15 702.89 705.80 327.32 878.96 364.72 856.77 446.17 719.89 580.11 855.35 610.29
00035826 00000125 444.23 67.98 475.58 710.41 710.52 331.10 883.15 371.27 858.78 451.81 717.88 584.44 853.42 617.45
00035827 00000126 447.65 79.55 475.56 707.81 718.13 344.78 889.69 386.22 864.18 468.23 718.92 596.50 852.53 630.53
00035828 00000127 445.60 84.09 480.84 711.37 720.76 354.06 890.23 394.69 865.36 478.87 717.95 604.22 850.33 637.82
00035829 00000128 443.47 83.17 481.02 707.65 718.25 353.89 887.97 394.18 861.93 478.49 714.55 601.34 847.80 634.53
00035830 00000129 443.32 83.17 481.34 707.61 718.12 353.86 887.91 394.17 861.82 478.44 714.50 601.28 847.75 634.47
00035831 00000130 434.82 80.31 482.88 700.80 707.72 344.44 886.24 385.34 857.65 472.15 709.11 595.82 847.79 628.89
00035832 00000131 432.72 78.00 475.62 689.27 697.43 335.58 876.44 374.51 847.31 461.16 706.24 586.29 844.22 617.40
00035833 00000132 427.03 73.15 475.56 685.02 689.47 330.98 868.38 366.09 841.77 449.40 707.26 579.19 845.07 606.58
00035834 00000133 429.63 71.62 472.49 677.41 688.74 330.85 869.45 363.77 843.22 446.41 710.50 576.03 849.44 601.32
00035835 00000134 429.66 71.57 472.41 677.43 688.67 330.87 869.36 363.80 843.12 446.33 710.50 575.98 849.43 601.28
00035836 00000135 434.64 77.74 472.96 681.17 694.79 335.27 875.92 367.27 848.25 460.69 710.85 583.09 853.00 608.09
00035837 00000136 432.44 81.94 481.55 699.42 700.99 349.49 881.42 385.36 850.68 478.87 707.61 599.28 847.49 627.68
00035838 00000137 424.93 86.95 491.92 722.33 707.37 354.99 876.28 396.86 850.97 488.33 698.45 607.76 835.87 641.98
00035839 00000138 417.87 88.10 496.40 726.55 701.92 355.71 871.44 400.62 845.76 495.65 685.27 611.21 824.66 648.06
00035840 00000139 418.29 83.83 496.55 728.69 701.80 355.12 873.06 398.92 846.11 496.62 685.96 611.52 825.19 647.34
00035841 00000140 414.57 85.68 499.90 727.48 697.36 350.16 870.53 398.83 841.49 491.95 671.88 606.83 816.88 646.88
00035842 00000141 417.51 79.35 499.21 733.98 693.36 338.22 870.61 389.56 838.19 476.31 668.46 598.95 819.10 641.20
00035843 00000142 419.90 78.83 494.55 713.63 689.37 330.76 872.11 385.42 836.84 455.07 674.60 581.89 828.39 626.20
00035844 00000143 420.30 72.40 491.35 702.02 681.95 325.18 869.67 376.73 833.65 438.14 681.87 572.56 835.07 613.31
00035845 00000144 420.29 72.39 491.35 702.03 681.95 325.18 869.67 376.73 833.65 438.14 681.88 572.56 835.07 613.31
00035846 00000145 412.97 71.29 493.58 690.74 670.02 321.91 867.34 375.91 826.61 431.96 673.98 566.22 836.73 608.22
00035847 00000146 405.62 72.80 494.78 692.69 663.35 316.78 866.81 381.91 823.93 433.45 658.69 567.76 828.86 619.06
00035848 00000147 412.45 71.74 489.64 695.43 663.01 326.35 854.13 381.73 813.63 449.46 655.26 577.38 811.38 623.68
00035849 00000148 409.20 75.94 494.79 707.75 661.95 333.67 854.38 388.02 811.47 465.35 647.50 587.57 807.33 633.44
00035850 00000149 409.20 75.93 494.79 707.78 661.95 333.67 854.38 388.02 811.47 465.35 647.51 587.57 807.34 633.45
00035851 00000150 408.38 85.31 500.91 715.43 672.69 338.69 863.29 397.35 813.99 474.71 652.58 593.49 808.66 640.48
00035852 00000151 417.69 89.56 503.24 721.73 690.22 351.58 871.18 409.36 828.22 484.99 671.77 606.61 814.60 653.88
00035853 00000152 432.86 90.70 499.85 710.87 699.26 355.49 883.62 403.18 840.22 487.50 690.75 606.81 834.73 645.66
00035854 00000153 448.41 77.11 493.65 716.87 709.48 341.97 894.25 390.26 852.37 479.15 704.67 596.99 850.82 635.85
00035855 DELETE   448.41 77.11 493.65 716.87 709.48 341.97 894.25 390.26 852.37 479.15 704.67 596.99 850.81 635.85
00035856 00000155 451.67 69.66 493.59 713.43 708.54 332.27 894.08 376.28 856.29 464.38 710.63 585.67 862.38 620.59
00035857 00000156 445.47 67.39 496.19 710.21 700.72 326.09 887.32 372.77 850.12 452.78 703.67 576.32 858.08 613.31
00035858 DELETE   434.32 72.93 493.82 708.53 692.29 329.12 882.00 375.31 838.14 452.26 691.87 584.08 840.35 621.38
00035859 00000158 417.35 77.36 498.68 708.27 680.36 330.76 875.58 389.69 828.66 458.52 667.96 583.11 827.36 630.18
00035860 00000159 417.39 77.40 498.61 708.21 680.42 330.68 875.58 389.58 828.69 458.51 668.11 583.17 827.41 630.21
CROP_BBOX: 49 0 1333 1080
