Video ID: 	_51YdrlrNN0
H: 	1080
W: 	1920
FPS: 	23.976024181771276

FRAME INDEX X0 Y0 W H [Landmarks (5 Points)]

00014119 00000000 724.74 178.73 359.87 541.61 762.78 426.29 881.51 397.85 782.77 516.53 812.39 608.34 916.22 584.03
00014120 00000001 715.91 184.09 358.67 547.05 755.49 434.50 873.88 408.01 775.00 524.06 810.53 615.60 913.19 591.61
00014121 00000002 704.29 194.18 355.94 545.91 746.51 445.45 865.79 423.58 769.75 529.04 799.96 617.98 899.52 597.80
00014122 00000003 698.34 203.38 354.46 543.88 742.24 452.66 858.18 431.13 766.64 538.89 796.84 622.73 894.93 602.39
00014123 00000004 693.96 207.66 356.14 544.87 736.92 453.26 853.99 433.01 761.17 543.88 793.04 624.97 892.76 605.39
00014124 00000005 689.40 211.07 362.11 553.51 736.08 451.91 848.94 430.88 758.88 544.25 797.19 625.69 895.31 605.29
00014125 00000006 696.53 207.02 352.54 566.65 736.00 447.25 844.27 433.73 752.07 550.67 800.55 631.64 893.58 617.36
00014126 00000007 698.87 203.70 351.73 566.39 736.65 444.90 844.65 430.88 750.99 547.09 800.06 629.59 893.18 614.98
00014127 00000008 701.28 203.79 350.76 560.62 738.49 442.32 847.38 427.62 754.52 544.02 800.49 627.06 894.05 612.04
00014128 00000009 703.65 201.78 349.29 553.93 743.14 439.77 851.72 424.21 761.06 539.52 803.03 624.28 895.32 608.93
00014129 00000010 706.81 199.79 351.73 546.92 748.74 435.99 858.66 422.11 767.14 537.24 806.46 620.11 900.27 606.16
00014130 00000011 711.51 201.71 362.31 546.44 759.27 440.29 875.57 418.02 783.83 538.36 819.81 618.39 925.54 595.36
00014131 00000012 725.29 194.35 368.98 551.94 775.93 436.89 896.85 412.73 804.45 532.34 832.21 613.60 942.51 589.49
00014132 00000013 742.84 205.64 358.02 529.90 788.31 436.16 907.58 413.70 821.52 533.47 842.85 607.57 955.63 587.73
00014133 DELETE   757.63 204.33 356.90 524.81 811.12 428.95 935.92 405.50 854.37 525.08 860.88 599.61 978.47 579.54
00014134 DELETE   765.22 178.76 362.13 553.82 823.24 422.20 964.25 396.95 879.22 517.42 877.64 598.54 1004.35 574.07
00014135 DELETE   783.98 171.94 366.69 556.80 846.09 415.23 986.23 390.58 902.12 511.44 894.24 596.22 1019.62 573.06
00014136 00000017 797.05 175.27 362.85 548.30 868.12 405.82 1004.40 391.39 925.05 506.55 907.43 583.92 1035.76 570.96
00014137 00000018 807.32 172.90 364.14 544.49 881.05 405.03 1020.15 388.25 940.72 497.62 914.13 578.41 1044.64 564.23
00014138 00000019 816.90 168.97 362.19 540.82 888.90 399.55 1032.98 384.74 951.78 492.72 921.85 573.22 1055.37 560.87
00014139 00000020 829.20 161.37 356.47 544.00 897.63 392.97 1039.69 380.26 961.88 489.47 931.30 569.02 1063.05 558.11
00014140 00000021 838.06 156.96 354.38 546.11 904.48 389.00 1047.88 375.69 970.56 489.33 939.60 567.36 1071.42 555.77
00014141 00000022 842.47 157.50 353.78 544.88 909.26 386.88 1057.41 374.17 979.68 488.13 944.77 567.01 1079.81 555.84
00014142 00000023 844.48 158.89 354.95 542.28 913.26 385.38 1066.05 374.26 987.53 487.79 947.81 567.19 1084.72 557.63
00014143 00000024 846.87 157.69 354.14 543.51 916.76 384.86 1071.60 374.78 992.64 487.78 950.01 566.74 1088.10 558.40
00014144 00000025 847.80 157.94 354.19 542.83 918.72 384.10 1075.33 373.90 996.68 487.42 952.56 567.09 1091.18 558.87
00014145 00000026 847.64 156.86 354.93 544.40 919.60 383.38 1076.94 373.37 998.64 486.81 953.42 566.98 1092.44 558.90
00014146 00000027 846.84 157.51 354.86 543.94 918.72 383.73 1075.98 373.80 997.37 487.10 952.18 567.18 1091.35 559.19
00014147 00000028 844.36 156.69 356.13 546.13 915.81 385.11 1070.83 374.56 992.52 487.99 948.80 566.91 1087.88 558.19
00014148 00000029 840.41 157.81 356.91 547.51 912.02 386.21 1064.13 374.91 986.69 489.17 944.83 567.73 1082.95 558.07
00014149 00000030 838.09 157.32 355.29 547.66 908.56 388.09 1057.23 377.22 980.11 490.00 941.24 567.95 1077.27 558.32
00014150 00000031 835.19 158.73 355.20 548.00 906.75 389.81 1051.85 378.06 976.71 490.21 939.53 568.48 1073.22 558.16
00014151 00000032 833.14 159.10 354.79 546.55 903.72 391.29 1047.34 378.94 972.58 490.70 937.44 569.40 1068.96 558.60
00014152 00000033 830.93 160.47 355.17 546.98 902.21 391.73 1044.35 379.72 970.10 490.33 935.47 568.77 1067.27 558.36
00014153 00000034 827.66 162.82 356.24 545.76 899.98 392.30 1041.57 380.19 966.74 489.56 932.65 568.46 1065.23 558.01
00014154 00000035 825.84 162.20 357.12 547.96 897.98 392.50 1040.28 379.72 964.49 489.62 931.43 570.60 1063.60 559.60
00014155 00000036 823.43 162.47 357.83 548.14 896.52 392.25 1037.27 378.50 962.73 490.61 933.83 575.34 1057.94 563.69
00014156 00000037 821.72 165.49 358.18 544.38 895.11 394.13 1036.77 379.44 961.96 491.14 931.85 574.89 1058.36 562.62
00014157 00000038 818.88 165.61 359.70 545.13 892.94 395.28 1034.27 378.93 960.35 491.18 931.08 575.27 1058.11 561.52
00014158 00000039 818.13 166.62 360.28 543.89 891.15 396.42 1031.53 378.16 957.73 490.56 930.02 574.77 1057.75 559.49
00014159 00000040 822.11 161.68 357.07 547.70 893.68 393.60 1032.42 375.60 959.31 487.03 931.89 571.38 1060.31 556.26
00014160 00000041 829.87 153.19 353.43 557.56 897.20 385.88 1035.97 367.62 959.65 479.47 933.17 565.65 1065.84 550.00
00014161 00000042 831.71 151.19 357.10 555.52 903.36 377.19 1051.41 362.93 972.61 472.98 938.24 558.99 1072.36 547.48
00014162 00000043 836.86 147.90 356.94 537.53 907.09 368.94 1059.90 355.55 976.93 462.84 941.08 548.30 1074.07 538.10
00014163 00000044 835.50 134.25 357.74 543.28 910.25 360.86 1058.22 350.32 975.85 454.62 941.27 539.30 1076.38 528.32
00014164 00000045 836.24 129.16 356.37 539.60 909.35 355.90 1056.20 346.57 972.51 451.96 941.86 533.45 1074.90 523.20
00014165 00000046 835.03 129.35 357.99 538.43 907.61 352.78 1055.22 342.57 969.86 449.07 942.82 532.85 1073.03 521.96
00014166 00000047 833.93 127.26 361.14 554.44 906.97 352.16 1051.76 339.79 963.50 445.19 942.46 537.92 1069.40 524.91
00014167 00000048 834.71 130.03 360.93 561.73 904.52 354.55 1044.89 336.95 953.76 441.63 941.44 544.25 1064.97 527.14
00014168 00000049 836.68 135.89 357.07 553.57 895.31 357.87 1036.65 337.89 944.04 450.76 930.30 545.13 1055.95 529.75
00014169 00000050 835.19 137.36 356.12 547.15 891.22 359.11 1027.68 343.57 934.66 454.29 925.16 542.49 1045.75 530.77
00014170 00000051 832.58 134.97 356.08 540.71 887.68 360.87 1019.57 346.27 927.37 456.94 923.24 541.10 1038.21 530.33
00014171 00000052 832.97 135.69 355.30 540.67 887.72 360.05 1017.05 345.90 926.32 456.79 923.92 542.03 1034.57 531.81
00014172 00000053 833.57 135.27 354.95 540.40 888.92 360.90 1017.05 347.04 927.90 457.17 925.54 544.85 1031.02 535.61
00014173 00000054 833.35 143.85 353.55 543.52 891.93 365.24 1020.17 354.19 928.49 449.35 932.13 544.30 1026.63 533.36
00014174 00000055 833.85 142.05 355.27 557.08 887.32 365.97 1016.11 350.58 927.75 461.82 927.84 557.23 1035.54 546.46
00014175 00000056 833.02 145.29 355.84 566.72 882.44 370.47 1011.17 351.93 922.51 466.01 926.04 562.49 1040.00 548.40
00014176 00000057 829.52 149.41 356.01 566.36 875.76 374.50 1004.26 355.44 915.78 471.85 921.29 563.78 1039.13 548.71
00014177 00000058 825.68 149.27 356.81 567.75 871.27 377.82 998.42 357.59 909.38 474.43 917.75 564.46 1036.96 548.06
00014178 00000059 823.24 151.56 353.75 565.77 868.03 379.11 994.84 358.13 904.93 474.11 914.38 564.42 1034.19 547.35
00014179 00000060 820.08 149.43 353.82 565.42 865.88 379.75 991.86 357.52 903.14 472.72 912.65 564.39 1030.18 546.39
00014180 00000061 817.52 148.39 355.58 560.26 864.67 378.86 991.41 356.48 903.20 471.90 912.30 560.43 1030.37 541.83
00014181 00000062 817.43 145.28 354.61 547.80 863.84 378.40 992.35 358.16 902.44 471.70 910.00 555.31 1026.10 538.52
00014182 00000063 819.92 144.52 354.72 538.50 867.21 377.16 996.07 358.01 906.37 470.88 911.76 552.35 1026.19 536.75
00014183 00000064 822.47 147.56 355.30 537.95 872.94 376.19 999.66 358.93 912.95 471.33 916.76 552.68 1027.29 539.14
00014184 00000065 825.37 150.00 353.80 532.43 877.25 377.47 1003.77 360.34 919.17 472.34 922.49 553.58 1031.23 540.30
00014185 00000066 827.46 150.31 353.25 531.11 880.56 379.59 1008.03 363.08 923.98 474.64 925.51 553.78 1035.30 540.90
00014186 00000067 830.22 152.80 352.69 530.19 884.10 380.56 1011.29 363.42 929.20 475.08 928.75 555.52 1038.13 542.18
00014187 00000068 831.48 148.96 354.47 535.59 884.87 384.10 1017.09 362.35 932.49 472.19 930.73 554.92 1044.67 534.97
00014188 00000069 831.69 148.77 354.81 534.80 885.06 383.25 1018.14 361.46 933.09 469.59 929.45 553.23 1044.78 533.25
00014189 00000070 832.18 147.71 353.94 536.23 884.70 383.16 1017.40 360.21 932.30 468.85 929.59 553.56 1045.91 532.50
00014190 00000071 831.81 147.63 354.69 538.93 884.96 382.50 1017.84 360.03 932.33 468.56 929.57 553.20 1046.10 532.56
00014191 00000072 831.49 147.85 355.64 541.15 886.05 383.33 1018.15 361.14 933.43 468.92 931.17 554.01 1045.12 533.70
00014192 00000073 832.31 149.29 355.52 541.41 887.88 382.62 1018.63 361.55 934.13 469.73 934.72 554.07 1044.80 534.70
00014193 00000074 832.94 149.77 355.15 540.25 888.69 382.19 1018.62 361.41 934.44 469.55 936.38 554.39 1043.91 535.29
00014194 00000075 834.07 150.58 354.14 539.37 888.79 381.47 1017.34 361.04 932.93 470.00 937.63 554.98 1042.32 536.09
00014195 00000076 834.37 148.60 353.97 540.45 889.76 381.02 1018.29 360.81 933.61 467.88 938.10 554.76 1041.44 536.06
00014196 00000077 835.77 148.01 353.56 540.68 891.24 380.07 1021.41 360.50 934.68 466.72 937.63 553.40 1042.85 535.28
00014197 00000078 837.80 147.45 352.39 540.65 894.02 379.67 1026.18 359.52 937.84 464.65 939.50 552.83 1046.93 534.30
00014198 00000079 838.82 145.42 353.06 542.05 895.03 379.97 1029.64 358.55 939.83 463.83 940.98 552.16 1051.31 532.62
00014199 00000080 839.39 144.99 353.39 544.64 895.52 379.92 1030.39 358.32 940.65 463.91 941.41 551.36 1053.57 531.60
00014200 00000081 837.44 146.42 354.82 546.04 893.05 380.49 1025.78 357.62 937.85 466.11 941.10 552.71 1053.42 531.90
00014201 00000082 831.20 147.53 356.75 547.44 881.31 368.31 1005.94 351.55 919.49 466.41 927.08 553.90 1036.33 540.97
00014202 DELETE   823.28 144.23 352.61 545.07 865.39 366.93 980.79 349.07 889.48 463.21 910.33 554.25 1008.87 540.40
00014203 DELETE   810.08 140.69 352.29 540.46 851.46 366.10 963.78 348.22 865.45 460.93 892.01 553.36 986.88 539.19
00014204 00000085 797.84 138.09 357.84 542.47 839.44 366.71 951.91 347.52 851.69 459.46 879.81 556.41 972.21 540.24
00014205 00000086 795.42 137.85 352.77 545.26 837.26 367.47 943.29 351.02 848.56 460.64 878.65 557.19 964.11 542.98
00014206 00000087 793.63 139.80 351.68 543.76 834.58 370.00 940.77 354.56 845.53 462.91 875.97 557.82 961.33 544.32
00014207 00000088 793.04 141.63 351.40 544.10 834.00 370.86 939.06 357.11 843.18 465.22 875.32 557.60 961.42 545.20
00014208 00000089 793.40 143.59 347.24 546.32 833.87 373.78 937.28 358.90 843.97 467.33 877.16 559.76 961.89 546.56
00014209 00000090 791.98 147.15 345.18 549.60 831.69 378.32 936.00 359.23 843.65 471.43 881.29 563.90 969.75 546.61
00014210 00000091 790.42 146.45 345.57 554.00 828.88 380.04 934.28 358.85 841.07 473.09 881.20 564.92 973.83 545.47
00014211 00000092 789.78 148.04 344.88 552.46 827.33 381.23 932.87 359.69 839.74 474.36 880.37 564.99 973.96 545.05
00014212 00000093 789.75 147.73 345.41 548.16 826.08 381.04 933.00 360.84 838.76 474.53 877.79 563.07 972.19 544.34
00014213 00000094 788.73 148.31 346.19 542.50 823.28 380.83 935.15 362.14 838.23 473.06 871.12 560.46 969.42 542.99
00014214 00000095 787.37 147.54 344.28 534.97 820.24 380.05 934.73 363.26 838.20 472.35 868.38 557.38 966.48 541.43
00014215 00000096 780.69 150.31 348.64 529.82 816.81 388.53 936.36 362.81 839.72 472.63 864.91 557.71 969.31 534.63
00014216 00000097 779.01 152.63 349.05 532.11 816.02 388.71 935.45 362.26 838.11 472.71 864.01 560.11 967.74 536.60
00014217 00000098 776.75 154.04 354.51 538.88 814.97 390.73 935.68 362.37 838.45 473.69 864.50 564.23 968.67 539.40
00014218 00000099 775.14 156.96 357.50 540.01 813.79 394.34 937.21 366.04 839.68 476.52 862.45 567.70 968.76 543.12
00014219 00000100 773.98 159.06 357.10 539.87 811.97 396.19 933.95 369.82 839.46 483.11 861.13 569.23 968.74 546.15
00014220 00000101 767.10 168.65 363.86 536.87 805.56 401.14 933.99 378.22 838.48 491.59 859.70 579.80 966.74 561.13
00014221 00000102 761.04 174.32 365.59 541.99 805.41 402.90 935.96 381.86 841.84 498.51 863.63 586.85 969.72 568.58
00014222 00000103 758.74 176.86 365.35 550.52 807.03 409.22 937.99 384.90 847.02 504.86 868.65 594.02 979.24 571.40
00014223 00000104 756.25 181.07 367.57 549.82 807.44 415.80 937.46 390.64 847.81 509.59 868.96 596.27 982.58 572.37
00014224 00000105 758.00 197.04 361.16 525.46 807.48 415.52 927.45 388.44 842.79 514.60 862.29 596.97 972.16 573.86
00014225 00000106 753.07 195.42 362.09 524.77 801.61 413.09 920.17 386.95 835.57 513.14 854.30 593.76 965.35 571.10
00014226 00000107 747.36 192.52 361.99 526.88 796.50 410.87 913.98 388.22 827.77 510.16 844.42 590.42 955.60 570.83
00014227 00000108 738.96 191.43 361.67 529.76 788.72 411.82 906.29 388.16 820.05 508.86 836.58 592.78 945.38 572.71
00014228 00000109 730.79 189.76 363.16 534.39 781.68 411.90 897.36 389.12 812.19 510.27 833.81 597.38 938.00 577.86
00014229 00000110 721.74 181.81 374.66 543.26 775.27 417.66 904.24 386.43 815.40 507.82 833.78 605.21 934.06 578.35
00014230 00000111 715.14 180.71 378.67 546.31 768.19 420.67 899.44 390.08 808.91 515.15 827.57 606.86 933.96 579.88
00014231 00000112 713.47 184.06 380.42 541.82 767.02 420.54 900.15 390.32 809.96 515.74 825.84 606.73 933.65 580.18
00014232 00000113 713.50 182.09 380.56 545.26 772.10 417.95 903.72 387.37 817.26 509.02 833.57 605.39 935.33 578.53
00014233 00000114 719.62 185.19 365.54 540.60 773.82 412.08 899.03 387.54 816.27 512.52 832.03 598.66 943.08 577.24
00014234 00000115 721.00 181.06 364.46 537.98 775.12 409.11 906.07 380.71 823.47 504.67 831.41 591.86 949.37 567.89
00014235 00000116 720.64 175.85 366.21 539.09 777.15 403.94 910.74 374.32 830.72 497.93 834.10 585.58 953.68 561.54
00014236 00000117 721.90 172.18 367.55 540.97 780.91 399.68 914.34 370.17 835.29 492.81 839.73 581.77 956.72 557.76
00014237 00000118 721.31 168.26 367.41 540.09 781.43 398.94 918.23 369.44 841.16 489.91 841.71 573.10 961.30 547.57
00014238 00000119 724.65 171.78 367.67 536.06 789.60 395.71 923.05 367.11 850.21 488.68 846.02 574.94 962.78 551.74
00014239 00000120 720.50 163.53 370.59 542.79 792.02 394.14 932.20 363.17 862.58 479.89 855.59 570.98 974.71 544.60
00014240 00000121 725.11 172.02 369.48 535.31 798.22 392.83 930.87 361.57 865.87 479.58 859.55 573.61 970.19 548.09
00014241 00000122 730.12 169.11 366.93 543.69 802.51 392.91 933.42 360.00 869.35 477.59 863.09 576.80 974.92 550.18
00014242 00000123 735.22 168.13 366.31 547.06 807.02 394.16 937.61 355.99 875.84 474.82 867.26 573.64 988.99 542.81
00014243 00000124 740.10 167.61 366.16 543.38 812.84 393.47 948.19 350.30 888.50 469.78 873.41 570.86 1000.94 535.83
00014244 00000125 746.43 166.14 365.21 540.29 820.69 392.06 962.58 349.85 902.24 466.31 876.55 567.45 1010.55 532.82
00014245 00000126 758.80 162.79 363.12 543.87 830.84 392.03 974.65 350.95 914.14 465.61 885.35 565.96 1021.97 531.52
00014246 DELETE   764.37 161.22 367.61 542.53 839.27 390.33 992.18 347.50 929.67 462.09 894.64 566.68 1036.66 530.70
00014247 DELETE   772.93 161.42 368.10 544.36 860.44 373.93 1010.50 353.50 947.58 455.87 907.23 555.24 1043.18 537.89
00014248 00000129 784.12 160.65 367.84 541.43 876.08 372.85 1026.66 353.28 964.30 451.85 920.60 553.92 1054.78 537.33
00014249 00000130 800.54 159.30 362.29 540.04 891.30 374.54 1043.08 350.03 977.33 447.58 929.99 552.99 1065.08 533.23
00014250 00000131 812.58 156.29 357.10 542.58 902.63 374.15 1053.95 350.68 989.94 446.99 935.93 551.86 1074.94 533.39
00014251 00000132 820.57 153.18 358.47 544.86 908.32 374.14 1064.60 351.20 997.57 447.64 941.05 552.12 1086.35 533.30
00014252 00000133 826.93 151.39 361.86 547.62 916.73 370.75 1077.21 350.89 1010.39 447.75 952.40 554.30 1096.32 537.13
00014253 00000134 834.43 152.68 360.14 547.84 927.90 369.39 1088.09 354.78 1023.53 449.77 961.00 553.63 1105.43 541.15
00014254 00000135 843.62 153.01 357.15 550.16 937.26 370.49 1094.50 359.53 1031.50 453.23 966.05 551.57 1110.55 542.63
00014255 00000136 849.84 158.08 356.16 550.49 943.18 371.92 1098.80 363.03 1035.97 457.86 970.48 554.10 1114.64 547.16
00014256 00000137 849.60 158.27 363.33 552.54 948.78 367.92 1103.23 371.04 1036.34 463.41 970.75 553.09 1109.07 555.32
00014257 00000138 855.25 160.24 363.84 552.06 950.89 374.03 1107.22 375.25 1036.12 469.45 973.65 557.52 1113.68 558.02
00014258 00000139 858.49 162.68 363.62 547.87 954.34 380.39 1110.38 379.55 1038.73 477.77 975.88 562.12 1116.55 561.28
00014259 00000140 860.86 167.47 364.19 540.78 955.61 388.11 1110.68 384.51 1038.48 486.20 978.01 565.42 1118.95 562.38
00014260 00000141 862.16 168.37 363.96 544.88 957.62 391.58 1112.63 388.85 1040.34 491.52 979.97 569.37 1120.84 566.96
00014261 00000142 862.25 168.52 366.04 554.85 958.14 393.46 1112.62 391.51 1039.46 496.68 981.24 573.97 1124.09 571.92
00014262 00000143 862.66 167.84 366.62 565.89 956.48 394.85 1110.38 391.37 1035.73 497.59 980.53 580.08 1124.62 576.53
00014263 00000144 861.83 167.76 365.69 570.19 952.92 395.48 1106.65 391.38 1028.91 498.61 978.02 582.52 1122.55 578.37
00014264 00000145 860.66 169.85 362.84 567.69 948.02 394.34 1099.55 390.74 1020.03 499.35 973.59 583.88 1115.12 580.11
00014265 00000146 853.53 172.39 366.13 564.87 941.12 394.58 1089.98 392.56 1011.57 501.03 968.15 583.38 1108.73 580.60
00014266 00000147 847.21 174.70 368.14 560.42 933.48 395.88 1081.11 396.05 1002.77 503.89 959.43 583.32 1096.95 582.50
00014267 00000148 843.56 175.25 367.03 558.56 925.49 395.90 1074.79 396.59 993.21 504.11 950.86 582.68 1086.20 582.65
00014268 00000149 842.37 174.14 364.14 559.45 923.91 393.15 1072.66 394.81 991.79 502.41 949.49 582.66 1080.98 583.86
00014269 00000150 843.18 171.67 365.56 564.59 929.10 392.80 1078.03 394.46 999.75 500.48 953.60 582.59 1087.05 583.61
00014270 00000151 845.35 169.95 366.10 563.12 934.64 391.56 1083.70 392.63 1008.91 498.07 960.15 581.01 1094.49 581.39
00014271 00000152 847.58 169.72 365.66 560.72 937.94 390.35 1086.36 390.99 1013.25 497.57 965.43 579.55 1098.62 579.51
00014272 00000153 847.91 169.55 365.27 556.35 937.12 390.66 1087.35 392.14 1012.71 498.91 962.70 578.04 1097.71 578.82
00014273 00000154 846.41 170.12 365.57 551.73 935.54 391.60 1085.87 394.49 1010.27 499.36 958.44 576.61 1093.57 578.76
00014274 00000155 845.63 169.77 364.54 550.10 933.31 391.38 1084.71 394.75 1007.52 499.72 956.20 576.92 1090.04 579.69
00014275 00000156 845.49 169.86 365.25 550.80 934.13 390.65 1085.49 393.28 1009.75 498.70 958.60 577.59 1091.54 579.72
00014276 00000157 846.24 169.43 365.68 551.54 936.37 390.91 1087.22 392.42 1013.39 498.52 962.95 578.18 1094.62 579.27
00014277 00000158 845.92 168.72 365.73 552.58 936.28 389.98 1086.56 391.64 1013.21 497.25 962.88 577.57 1094.41 578.84
00014278 00000159 844.32 168.79 365.12 551.28 931.20 389.84 1083.13 391.66 1006.46 497.36 957.15 577.65 1088.45 579.31
00014279 00000160 841.84 169.11 365.20 551.63 927.40 388.78 1079.72 392.31 1000.46 497.16 950.49 575.90 1082.98 579.12
00014280 00000161 842.10 168.00 364.18 551.88 927.51 387.23 1079.22 391.21 1000.06 494.30 950.83 573.60 1082.89 577.26
00014281 00000162 843.23 166.81 364.04 551.80 930.47 385.87 1081.74 389.42 1004.78 491.68 953.14 571.17 1087.03 574.48
00014282 00000163 843.65 166.19 363.96 552.54 931.31 384.95 1080.83 388.60 1005.06 491.30 953.21 569.47 1086.87 572.76
00014283 00000164 841.92 168.68 366.03 549.17 923.77 390.37 1075.94 382.01 997.21 491.29 950.19 569.40 1092.70 561.87
00014284 00000165 839.99 169.16 357.20 545.80 911.62 391.45 1053.91 381.34 973.92 491.46 938.00 568.06 1074.92 559.53
CROP_BBOX: 480 0 1416 926
