Video ID: 	EcKb80-GSGE
H: 	1080
W: 	1920
FPS: 	29.97002997002997

FRAME INDEX X0 Y0 W H [Landmarks (5 Points)]

00000587 00000000 852.65 166.87 342.51 541.31 1040.16 418.89 1151.60 387.15 1188.19 483.45 1084.19 595.97 1173.22 570.51
00000588 00000001 853.76 163.12 343.24 546.14 1038.17 413.84 1153.00 380.96 1188.21 480.24 1076.32 589.05 1171.30 563.88
00000589 00000002 860.52 175.11 338.17 535.30 1052.23 408.89 1160.64 385.63 1193.11 486.96 1083.84 586.61 1172.79 571.80
00000590 00000003 858.16 169.48 337.32 537.11 1051.29 406.83 1160.28 383.73 1192.03 485.61 1084.38 585.22 1173.26 570.38
00000591 00000004 855.97 166.65 338.29 538.81 1049.42 406.43 1160.53 382.81 1190.28 485.31 1082.38 584.55 1172.75 569.26
00000592 00000005 853.30 166.43 341.50 535.33 1046.43 402.00 1162.87 376.75 1189.92 483.93 1079.92 581.14 1175.78 564.42
00000593 00000006 853.49 161.43 340.10 535.82 1043.50 398.40 1162.45 372.90 1187.15 478.09 1079.15 578.49 1175.99 561.38
00000594 00000007 846.85 153.45 341.88 537.14 1040.28 396.74 1160.44 368.58 1187.14 472.57 1075.59 571.97 1175.53 552.23
00000595 00000008 843.07 154.67 341.75 531.99 1035.45 391.41 1157.79 364.23 1183.53 466.87 1070.36 568.30 1172.36 549.50
00000596 00000009 836.32 143.04 347.09 538.08 1028.38 386.10 1154.45 357.71 1176.50 460.76 1067.75 563.54 1170.61 543.44
00000597 DELETE   836.50 136.64 343.31 542.20 1023.59 388.20 1149.17 358.52 1168.57 456.62 1057.14 556.50 1163.58 535.41
00000598 DELETE   831.62 132.22 343.14 544.66 1013.48 386.60 1144.83 361.37 1155.57 453.94 1047.79 553.41 1159.58 535.90
00000599 00000012 830.07 135.51 343.70 547.34 1007.36 381.22 1142.21 353.29 1137.42 440.64 1038.49 560.84 1150.75 539.84
00000600 00000013 825.15 137.70 348.97 548.33 995.18 376.44 1135.46 350.81 1126.78 437.65 1028.22 556.50 1147.98 536.71
00000601 00000014 832.25 138.88 351.04 543.68 987.78 376.59 1129.89 354.98 1130.06 443.68 1013.52 554.81 1139.97 540.16
00000602 00000015 826.96 133.74 355.20 547.08 978.12 375.12 1124.72 351.56 1123.56 441.09 1008.20 554.46 1138.42 538.20
00000603 00000016 823.24 133.83 358.49 544.78 971.18 373.86 1121.39 349.57 1117.75 438.97 1003.18 553.63 1136.45 536.44
00000604 00000017 816.78 135.10 361.02 542.78 963.31 374.83 1117.24 349.35 1110.17 436.76 999.06 553.81 1134.70 535.21
00000605 00000018 816.53 134.54 359.51 545.72 960.93 376.08 1113.49 350.92 1106.00 437.55 996.31 553.94 1131.06 535.53
00000606 00000019 815.81 135.05 359.63 545.28 958.88 377.42 1111.64 351.44 1102.99 438.26 995.70 554.79 1130.29 535.57
00000607 00000020 814.12 136.40 361.34 543.76 957.78 378.26 1112.34 352.89 1102.29 439.04 995.24 555.43 1130.55 536.54
00000608 00000021 813.33 135.80 361.06 545.49 957.30 379.76 1111.19 354.59 1101.54 440.30 994.37 556.26 1129.08 537.63
00000609 00000022 813.43 138.12 358.41 544.60 956.55 381.04 1109.12 357.43 1098.55 441.52 993.78 556.86 1127.07 539.30
00000610 00000023 811.73 139.29 358.81 542.97 956.13 382.11 1108.85 358.72 1099.05 442.86 994.10 557.43 1127.99 539.88
00000611 00000024 813.59 141.30 356.72 540.70 958.28 383.35 1109.25 361.65 1099.95 442.90 997.00 557.80 1128.34 541.54
00000612 00000025 812.62 143.55 356.60 540.84 958.44 387.50 1109.02 363.64 1101.45 446.16 996.52 560.32 1128.64 542.40
00000613 00000026 808.06 144.93 357.59 540.43 955.78 387.81 1105.81 364.39 1098.25 446.07 996.46 562.44 1123.59 544.38
00000614 00000027 808.69 145.54 353.85 539.86 954.27 386.53 1103.73 365.44 1094.73 446.18 997.45 562.97 1122.49 546.58
00000615 00000028 809.76 145.50 353.59 537.68 956.02 387.09 1104.82 365.75 1095.90 446.27 998.50 562.68 1122.87 546.27
00000616 00000029 806.58 144.31 353.25 539.15 951.29 384.53 1099.06 363.67 1090.31 443.72 996.84 561.66 1118.89 545.37
00000617 00000030 801.28 147.17 352.88 538.52 944.43 385.21 1089.31 363.59 1082.04 444.31 992.36 561.75 1111.81 544.94
00000618 00000031 796.58 146.86 353.50 537.85 941.20 387.29 1083.87 366.32 1077.12 445.38 989.08 561.28 1106.70 545.03
00000619 00000032 796.88 144.84 351.65 538.86 942.21 389.60 1085.19 370.26 1077.04 445.42 988.84 560.48 1106.87 545.58
00000620 00000033 795.21 143.47 356.38 537.20 944.03 388.12 1087.93 372.40 1076.61 443.69 987.45 555.81 1107.35 543.89
00000621 00000034 793.49 140.70 356.45 536.83 942.61 385.44 1087.61 369.45 1075.63 443.58 984.44 552.76 1105.42 540.80
00000622 00000035 791.86 138.51 357.96 538.37 939.79 382.52 1088.35 365.45 1075.20 442.93 981.48 552.58 1105.35 539.70
00000623 00000036 794.05 144.24 355.99 529.63 940.28 385.00 1087.81 367.48 1076.92 444.05 983.90 553.85 1107.37 540.69
00000624 00000037 792.01 143.40 354.25 530.07 939.57 382.43 1085.94 366.45 1076.55 443.41 982.72 552.95 1104.04 541.26
00000625 00000038 791.10 144.64 353.05 530.85 938.05 385.62 1081.04 366.01 1074.87 442.98 986.41 555.92 1103.82 541.00
00000626 00000039 794.95 148.52 350.81 531.39 940.54 388.29 1082.02 366.75 1076.77 444.68 989.57 559.20 1106.29 542.68
00000627 00000040 798.34 149.03 348.63 530.83 944.11 388.29 1084.42 366.99 1079.78 446.19 993.65 560.44 1107.93 544.09
00000628 00000041 802.68 153.22 344.96 527.90 950.01 391.41 1088.28 368.53 1086.23 447.27 1000.22 562.73 1112.71 545.25
00000629 00000042 805.84 152.90 342.11 527.82 956.02 392.93 1093.02 371.22 1093.53 448.25 1007.21 564.46 1117.49 547.93
00000630 00000043 806.44 153.56 340.40 527.00 961.75 394.76 1096.04 375.53 1098.18 452.91 1011.80 566.71 1117.93 552.13
00000631 00000044 807.00 158.52 340.57 525.00 965.79 398.96 1098.92 380.96 1102.84 457.42 1014.58 568.90 1121.13 555.10
00000632 00000045 808.68 162.05 339.76 525.45 964.87 403.13 1101.55 385.56 1100.86 461.89 1010.41 571.59 1120.25 558.22
00000633 00000046 807.69 167.42 338.35 525.17 960.51 408.04 1096.59 391.29 1094.62 465.97 1003.08 573.81 1115.36 561.40
00000634 00000047 802.00 169.89 343.44 533.50 957.33 410.91 1093.45 392.95 1090.73 470.77 997.05 579.55 1111.45 565.86
00000635 00000048 801.26 175.39 344.86 537.32 957.35 414.37 1095.05 397.20 1091.71 478.22 990.93 584.98 1108.50 572.42
00000636 00000049 800.71 177.61 342.86 535.51 952.08 419.04 1092.08 401.44 1084.75 481.97 984.76 586.90 1103.87 574.10
00000637 00000050 795.59 179.02 337.84 533.32 943.78 419.58 1081.65 403.12 1072.89 483.49 974.82 585.63 1091.83 574.50
00000638 00000051 791.70 174.11 338.90 535.25 939.50 417.57 1074.17 398.66 1064.52 479.44 974.11 583.49 1085.32 570.08
00000639 00000052 794.80 169.99 337.11 533.32 939.80 412.83 1074.32 394.10 1065.65 474.85 984.83 584.13 1089.04 570.08
00000640 00000053 796.88 166.97 336.76 534.17 942.04 408.14 1076.69 391.38 1067.45 469.73 988.32 580.43 1092.17 567.61
00000641 00000054 793.74 166.20 337.33 534.54 941.08 407.91 1076.59 391.05 1068.55 468.45 990.25 580.75 1092.94 567.76
00000642 00000055 790.06 164.64 337.04 535.02 940.49 405.95 1074.74 389.45 1069.39 466.48 994.86 580.49 1092.96 567.80
00000643 00000056 785.40 162.80 338.94 538.27 942.47 406.90 1073.74 391.85 1071.04 466.87 995.88 580.08 1092.42 568.12
00000644 00000057 785.43 165.91 338.60 536.28 943.53 409.25 1074.17 395.02 1072.35 468.12 994.70 580.17 1092.83 568.89
00000645 00000058 788.84 169.88 339.48 533.70 946.40 409.50 1077.74 394.98 1075.26 469.68 994.23 580.85 1096.32 569.62
00000646 00000059 788.00 172.88 342.18 534.55 947.53 412.70 1078.85 398.12 1077.07 472.29 985.58 578.13 1094.84 567.50
00000647 00000060 784.26 175.16 341.40 525.35 941.99 416.46 1076.04 400.65 1070.99 474.25 978.52 575.40 1087.58 564.26
00000648 00000061 780.75 176.14 339.90 522.16 937.63 417.60 1073.82 400.90 1067.08 476.00 975.92 576.86 1084.92 564.95
00000649 00000062 777.42 174.24 335.30 518.21 933.01 418.10 1071.70 404.05 1059.94 478.89 973.80 577.79 1079.09 567.73
00000650 00000063 769.62 177.98 340.36 522.00 928.98 423.15 1070.52 407.44 1058.16 485.65 973.53 585.49 1080.19 573.33
00000651 00000064 776.57 174.41 337.73 531.50 932.22 424.41 1073.92 405.51 1060.45 496.73 959.98 595.82 1074.39 581.98
00000652 00000065 771.91 173.55 338.93 530.87 927.49 424.07 1069.92 406.19 1055.12 494.98 953.89 593.91 1070.63 581.26
00000653 00000066 769.60 174.14 339.92 535.46 924.25 422.00 1068.86 404.92 1053.83 492.31 949.87 593.02 1071.74 581.00
00000654 00000067 771.18 173.83 339.01 536.66 926.53 419.11 1068.75 402.27 1054.74 489.02 949.17 588.93 1071.54 577.36
00000655 00000068 775.23 169.66 337.01 532.83 930.41 416.67 1072.03 402.56 1056.40 486.38 954.07 586.33 1071.99 576.76
00000656 00000069 768.93 171.78 340.49 524.59 924.59 416.10 1062.82 401.90 1048.54 474.93 967.41 576.06 1073.35 565.30
00000657 00000070 764.95 172.06 341.63 525.54 938.10 414.36 1072.82 396.25 1058.34 474.50 969.29 583.18 1072.55 572.09
00000658 00000071 771.17 167.09 339.94 534.17 929.37 417.65 1071.29 406.02 1052.93 486.26 950.11 586.30 1067.72 578.85
00000659 00000072 770.50 169.15 339.39 530.03 928.59 421.61 1068.37 408.26 1050.94 489.18 950.10 587.88 1065.85 579.07
00000660 00000073 771.94 167.64 338.70 531.14 927.26 421.31 1068.90 405.85 1051.18 489.05 949.30 587.12 1067.69 576.91
00000661 00000074 771.31 168.48 337.32 529.23 923.21 420.73 1066.21 405.27 1046.03 489.12 945.33 586.65 1064.05 576.31
00000662 00000075 767.47 166.22 338.74 532.61 919.90 422.06 1062.52 406.58 1042.16 488.51 941.27 586.10 1061.08 575.68
00000663 00000076 768.68 165.03 338.59 533.51 920.35 421.18 1061.90 406.45 1041.40 489.38 942.32 587.06 1059.34 577.33
00000664 00000077 770.11 165.98 338.36 532.00 921.51 421.76 1062.38 407.46 1040.51 491.79 944.40 590.49 1057.48 581.22
00000665 00000078 767.57 166.23 340.49 533.64 920.58 423.29 1062.36 408.94 1040.52 493.65 941.99 591.63 1056.93 582.34
00000666 00000079 766.46 168.47 342.87 531.72 921.46 427.35 1064.93 409.75 1043.86 497.39 938.63 590.07 1058.40 578.21
00000667 00000080 767.38 170.06 341.97 531.45 922.24 429.45 1068.65 410.12 1047.53 501.64 934.82 587.59 1061.26 574.93
00000668 00000081 765.40 171.71 342.46 534.57 922.17 430.65 1066.71 409.53 1048.08 503.93 931.59 589.59 1058.41 575.99
00000669 00000082 763.61 171.81 342.81 534.86 921.49 431.65 1067.38 412.92 1047.15 505.80 932.43 593.85 1056.51 581.81
00000670 00000083 766.46 170.95 342.13 532.34 922.77 430.21 1069.17 410.07 1048.73 504.82 934.58 591.43 1059.29 578.43
00000671 00000084 768.42 168.58 342.22 531.75 924.10 429.06 1070.69 410.61 1049.77 503.93 937.47 590.50 1060.92 578.59
00000672 00000085 766.95 170.99 342.32 532.41 922.03 429.60 1069.47 410.98 1047.81 504.30 934.46 592.39 1058.84 580.38
00000673 00000086 763.43 173.32 343.08 536.12 920.22 430.79 1065.66 413.57 1045.40 505.55 930.57 595.67 1053.73 584.75
00000674 00000087 764.86 173.55 342.42 540.12 921.01 431.24 1065.06 412.13 1046.27 506.75 930.98 597.56 1054.12 585.24
00000675 00000088 766.51 173.57 343.18 541.47 922.72 433.95 1066.20 412.59 1047.24 509.73 933.82 599.71 1056.17 585.38
00000676 00000089 765.92 174.94 343.16 540.22 921.47 434.62 1065.78 412.49 1046.26 510.29 932.01 600.16 1055.21 585.37
00000677 00000090 763.84 173.61 343.78 538.35 919.42 433.49 1064.66 412.07 1045.30 509.66 934.65 602.17 1053.78 587.54
00000678 00000091 764.40 172.67 343.29 536.83 916.94 428.39 1064.64 407.20 1044.95 506.41 937.63 601.34 1056.12 586.65
00000679 00000092 764.36 170.33 341.14 535.34 917.35 425.36 1061.65 401.43 1044.79 501.78 938.39 596.48 1055.13 579.82
00000680 00000093 764.02 166.38 340.23 535.27 916.20 418.98 1058.09 397.65 1041.02 494.39 937.49 589.59 1053.02 575.30
00000681 00000094 766.53 164.16 339.83 531.58 918.88 413.98 1060.83 396.11 1041.82 486.37 940.19 582.49 1057.55 570.72
00000682 00000095 763.69 164.30 342.74 532.04 929.78 402.40 1069.63 382.19 1049.43 481.80 959.85 582.91 1064.37 570.52
00000683 00000096 764.69 158.58 341.83 535.57 930.17 397.90 1068.06 376.57 1050.22 479.18 962.01 578.79 1064.50 565.42
00000684 00000097 764.69 158.44 341.98 538.19 927.81 391.65 1067.31 370.79 1048.47 479.21 960.78 577.79 1064.83 564.44
00000685 00000098 764.92 159.10 341.44 541.55 927.40 387.88 1064.93 368.33 1048.20 478.38 958.57 575.36 1066.98 562.42
00000686 00000099 764.52 159.83 341.44 542.19 925.95 388.15 1063.22 368.48 1046.05 475.29 957.98 574.74 1066.36 561.42
00000687 00000100 765.38 158.69 340.41 540.63 911.95 397.82 1057.30 375.19 1044.60 472.17 932.09 570.80 1062.44 555.51
00000688 00000101 754.79 158.37 346.74 541.46 904.20 399.35 1049.01 372.11 1039.56 471.79 922.04 569.09 1055.93 550.23
00000689 00000102 757.52 159.44 346.98 539.70 904.79 398.92 1049.84 369.79 1041.03 470.83 920.68 566.79 1057.92 546.66
CROP_BBOX: 549 0 1404 865
