Video ID: 	MERCsKOb15w
H: 	1080
W: 	1920
FPS: 	25.0

FRAME INDEX X0 Y0 W H [Landmarks (5 Points)]

00002758 00000000 658.10 149.55 385.65 581.15 786.58 383.93 952.17 378.66 897.00 475.70 818.08 587.93 946.53 583.27
00002759 00000001 668.21 142.52 385.52 576.66 796.41 375.70 965.29 371.14 909.95 466.69 823.67 577.58 958.45 574.09
00002760 00000002 671.68 135.42 385.84 578.85 799.00 370.25 968.31 363.23 914.28 453.05 827.56 570.87 966.23 565.55
00002761 00000003 679.85 140.25 383.83 577.13 809.19 371.15 979.58 364.55 925.78 456.09 837.17 575.04 975.73 570.30
00002762 00000004 684.43 148.92 385.72 581.05 815.95 370.97 984.74 372.15 929.18 468.89 848.75 580.12 975.43 581.29
00002763 00000005 693.91 150.82 386.59 582.80 826.06 378.04 998.12 378.11 940.02 475.08 859.01 588.49 987.09 588.38
00002764 00000006 701.82 151.88 388.88 589.08 836.19 384.11 1006.81 386.96 949.30 480.69 869.56 596.84 996.89 598.31
00002765 00000007 707.19 151.99 388.05 589.08 840.37 382.42 1009.32 385.37 952.53 478.41 872.39 594.89 1000.56 596.48
00002766 00000008 712.08 150.92 391.02 587.09 844.04 382.00 1012.99 382.63 957.01 475.13 876.05 590.39 1008.77 589.94
00002767 00000009 718.28 143.69 391.16 588.37 850.83 377.78 1020.95 376.35 966.36 467.70 882.78 585.32 1017.39 583.37
00002768 00000010 725.50 137.62 391.04 588.80 858.37 372.32 1028.83 368.57 976.09 459.51 890.57 579.51 1024.95 575.94
00002769 00000011 730.53 134.41 393.42 589.31 862.53 372.15 1034.40 366.94 981.77 457.63 895.15 578.88 1032.56 574.40
00002770 00000012 736.30 134.08 393.14 592.71 866.70 372.64 1042.64 366.71 985.95 458.64 899.11 582.21 1039.17 577.71
00002771 DELETE   744.05 140.69 390.42 600.72 876.19 378.80 1054.74 374.93 994.33 472.40 904.87 595.34 1045.86 592.86
00002772 00000014 747.11 143.40 393.67 607.10 878.97 381.12 1052.56 380.50 995.08 483.52 913.10 602.54 1039.81 602.71
00002773 00000015 750.20 149.46 396.20 605.16 884.12 387.22 1056.52 385.95 1001.69 486.29 918.72 607.03 1046.14 606.39
00002774 00000016 754.14 146.99 400.78 612.82 887.59 387.76 1066.73 386.21 1008.79 490.38 920.56 610.66 1056.74 609.18
00002775 00000017 757.64 146.43 403.27 612.08 889.86 385.36 1073.44 385.39 1012.03 486.44 922.12 608.04 1066.33 607.31
00002776 00000018 760.09 143.33 401.79 607.55 892.41 377.43 1076.42 378.59 1013.80 475.79 923.38 598.98 1067.94 599.08
00002777 00000019 761.72 129.42 403.64 611.94 895.84 368.87 1081.09 371.03 1017.77 464.34 924.66 584.66 1073.12 584.79
00002778 00000020 762.80 124.40 406.03 605.40 897.62 361.80 1084.83 362.90 1019.40 456.22 925.76 575.35 1073.70 574.37
00002779 00000021 756.26 108.85 411.81 614.99 895.61 356.74 1082.15 360.75 1012.76 461.06 919.13 569.66 1069.26 573.50
00002780 00000022 755.34 112.13 411.35 622.53 897.32 361.92 1083.91 365.88 1016.54 469.79 918.35 577.40 1069.47 581.34
00002781 00000023 753.99 128.37 413.30 614.27 897.64 371.96 1085.87 374.94 1016.06 486.52 917.25 588.03 1068.32 591.60
00002782 00000024 755.57 140.48 408.09 611.80 896.52 381.21 1083.45 389.24 1016.25 501.34 915.72 603.30 1058.32 609.54
00002783 00000025 755.06 143.64 408.79 617.24 892.92 395.21 1078.74 401.22 1009.34 520.54 911.60 616.03 1052.29 620.79
00002784 00000026 752.10 169.58 409.43 597.98 890.05 405.64 1075.34 410.15 1002.61 534.30 908.07 624.75 1050.72 629.40
00002785 00000027 744.01 174.96 412.46 592.57 881.64 408.28 1072.10 412.89 996.17 535.38 898.66 625.26 1047.46 630.58
00002786 00000028 736.50 176.28 411.94 593.93 876.52 405.74 1064.53 413.25 988.38 534.99 891.20 623.34 1037.64 631.48
00002787 00000029 732.34 174.72 407.92 603.02 874.91 407.66 1059.04 410.70 987.36 532.90 894.71 634.15 1037.81 635.50
00002788 00000030 725.00 160.56 409.97 612.94 870.44 401.25 1052.37 403.98 983.66 524.90 888.73 626.76 1033.29 627.73
00002789 00000031 717.45 152.42 409.39 622.17 865.88 398.73 1047.44 403.86 981.70 519.86 879.58 620.74 1029.14 623.73
00002790 00000032 709.12 147.53 411.67 622.76 865.03 393.95 1044.66 399.92 984.65 514.19 877.53 614.13 1025.63 617.73
00002791 00000033 703.72 144.84 413.21 622.42 862.99 390.96 1041.93 394.89 985.59 508.35 877.81 610.72 1024.10 612.65
00002792 00000034 704.40 146.66 411.43 620.51 865.96 384.89 1042.56 389.82 988.78 502.21 879.41 606.70 1025.14 609.54
00002793 00000035 703.71 145.47 410.25 621.08 867.29 378.79 1042.98 385.23 990.50 497.72 878.88 602.39 1024.34 606.48
00002794 00000036 705.35 143.84 407.09 618.87 870.44 373.16 1042.66 381.26 993.38 492.51 880.18 596.34 1022.96 602.04
00002795 00000037 706.56 139.07 404.36 622.08 872.46 367.06 1044.33 376.56 996.99 487.38 880.64 593.18 1022.64 600.23
00002796 00000038 707.92 138.79 402.38 619.69 873.14 364.53 1044.43 374.42 997.70 483.61 880.96 589.17 1023.06 596.63
00002797 00000039 707.47 137.26 401.98 621.05 872.22 362.46 1044.14 373.02 997.74 480.38 880.16 588.09 1022.98 596.17
00002798 00000040 706.79 138.96 399.88 622.28 872.52 365.85 1042.14 377.94 996.88 483.12 878.93 589.80 1021.30 599.24
00002799 00000041 706.98 140.05 397.14 623.42 869.54 369.28 1040.53 380.64 994.76 486.63 877.82 593.94 1020.84 602.65
00002800 00000042 706.14 151.68 398.21 622.45 868.37 381.07 1041.61 391.74 993.37 495.49 877.80 606.37 1023.66 614.18
00002801 00000043 707.12 156.02 395.26 617.14 869.19 389.21 1038.11 400.54 991.28 496.66 879.77 610.53 1019.30 619.16
00002802 00000044 706.93 151.15 394.97 607.19 870.37 382.74 1035.80 394.69 988.37 486.11 887.33 602.61 1013.48 611.98
00002803 DELETE   705.12 136.12 396.24 601.35 871.80 367.84 1031.36 381.15 983.58 466.35 885.24 579.74 1004.23 590.39
00002804 00000046 703.00 120.08 401.83 599.39 861.52 352.49 1030.10 360.80 976.00 451.25 883.75 565.98 999.37 572.08
00002805 00000047 696.70 109.48 404.62 605.38 858.88 353.61 1026.01 365.14 966.47 457.62 869.92 566.99 995.35 576.94
00002806 DELETE   695.08 122.28 409.20 616.15 860.31 365.46 1029.29 375.83 966.21 478.86 868.02 585.46 995.64 594.59
00002807 DELETE   695.55 138.23 414.04 631.22 858.93 388.80 1027.86 402.37 971.99 502.50 867.55 611.85 997.76 622.16
00002808 DELETE   696.72 169.64 413.51 622.83 849.68 420.63 1029.42 426.46 961.16 541.25 858.88 643.96 997.79 649.25
00002809 00000051 694.34 184.44 412.61 607.65 848.64 435.07 1030.67 439.03 961.77 559.83 856.33 649.08 998.02 653.43
00002810 00000052 693.48 183.06 416.45 605.20 854.10 426.31 1034.38 433.30 966.81 557.81 854.36 641.52 997.62 648.32
00002811 00000053 697.85 179.25 421.35 605.90 864.51 408.15 1046.94 429.25 977.11 545.68 850.32 622.89 1001.59 642.86
00002812 00000054 690.83 162.56 421.99 607.44 862.73 393.93 1036.30 409.76 974.92 529.61 850.22 612.67 992.57 626.59
00002813 00000055 686.28 152.36 422.21 609.87 861.83 380.18 1037.11 401.06 979.54 516.20 843.10 598.36 990.47 616.34
00002814 00000056 684.04 149.34 421.31 613.36 861.22 376.12 1035.35 400.48 976.98 511.51 842.35 598.02 985.97 618.45
00002815 00000057 681.95 145.90 416.67 612.61 859.24 373.80 1031.29 400.39 972.73 508.45 841.95 596.36 978.71 618.60
00002816 00000058 679.31 148.71 414.52 606.71 857.32 376.21 1026.32 402.06 967.88 509.66 845.12 596.88 974.71 618.44
00002817 00000059 673.00 148.59 417.12 597.75 842.92 380.10 1024.60 396.81 956.77 509.51 840.73 591.86 978.50 607.97
00002818 00000060 669.17 143.95 418.72 601.80 838.09 380.73 1022.41 396.98 953.97 508.97 832.93 589.17 975.88 605.18
00002819 00000061 666.60 144.76 417.63 601.88 836.27 382.30 1019.31 397.23 952.51 508.98 832.45 588.98 975.42 603.92
00002820 00000062 665.59 145.83 416.87 602.07 836.20 379.14 1017.54 393.27 953.48 506.60 835.52 590.25 973.90 604.76
00002821 00000063 668.99 147.75 414.62 602.55 837.98 381.60 1020.42 394.68 957.05 506.88 841.29 595.82 978.91 609.13
00002822 00000064 677.56 145.40 408.27 607.02 849.07 380.48 1020.81 400.53 965.17 507.86 847.22 600.73 977.53 617.63
00002823 00000065 680.00 145.87 409.53 606.73 852.09 377.86 1025.05 398.33 969.74 504.69 849.15 597.68 982.22 614.79
00002824 00000066 680.98 148.13 408.73 601.08 851.00 376.98 1026.02 395.91 969.58 502.53 849.21 594.82 984.71 610.54
00002825 00000067 683.56 146.52 406.46 597.00 847.96 373.90 1027.03 390.52 967.48 498.53 849.52 589.83 988.47 603.35
00002826 00000068 683.08 145.40 403.48 593.75 843.96 369.98 1023.94 385.48 964.46 494.33 847.74 587.26 986.40 599.89
00002827 00000069 677.41 128.51 408.85 603.39 837.19 364.92 1020.92 373.72 958.22 490.27 845.78 581.96 987.70 591.36
00002828 00000070 676.17 128.23 410.19 604.38 836.15 362.03 1020.16 370.70 957.14 488.52 844.51 582.15 985.91 591.45
00002829 00000071 677.25 128.09 409.93 610.63 837.14 363.90 1020.25 372.38 958.88 487.41 847.53 584.36 988.62 593.34
00002830 00000072 678.46 131.69 410.13 612.98 840.07 367.23 1021.60 375.16 962.53 489.11 849.69 585.94 992.65 594.13
00002831 00000073 685.65 134.70 402.97 612.03 845.76 362.43 1023.21 377.55 966.53 488.56 850.37 585.74 988.16 597.70
00002832 00000074 686.84 135.32 403.49 607.37 845.44 363.26 1025.56 376.29 967.87 487.33 853.83 584.99 992.27 595.17
00002833 00000075 687.07 143.02 405.75 600.08 847.28 367.86 1027.55 382.37 968.81 490.74 854.46 585.49 995.95 596.88
00002834 00000076 689.73 147.34 406.40 597.42 852.72 370.86 1031.05 384.08 973.62 493.98 859.74 589.24 998.55 599.61
00002835 00000077 691.80 148.37 411.40 603.31 859.17 378.84 1034.50 389.38 981.45 501.79 867.48 600.81 1000.45 609.02
00002836 00000078 694.51 147.85 410.51 607.11 862.55 388.11 1035.30 394.96 985.10 508.25 874.59 607.83 1006.61 612.69
00002837 DELETE   701.45 160.92 406.00 601.50 865.52 405.13 1039.30 402.93 986.86 523.09 880.59 620.35 1017.11 618.18
00002838 DELETE   708.20 186.15 405.52 599.26 865.66 424.82 1046.61 423.34 993.81 552.27 886.59 645.00 1022.03 642.77
00002839 DELETE   707.30 221.20 402.69 585.15 867.41 454.92 1044.44 448.29 993.72 578.06 887.91 668.07 1025.40 662.20
00002840 00000082 710.64 238.04 401.18 579.80 865.73 479.33 1044.02 462.76 987.75 607.37 893.05 696.02 1024.86 682.03
00002841 00000083 710.29 241.15 401.52 581.21 867.83 487.33 1046.55 469.23 991.73 612.49 890.01 696.08 1028.22 681.47
00002842 00000084 711.04 246.07 400.51 573.76 871.66 487.50 1046.81 466.42 996.61 613.70 882.28 686.18 1028.84 670.65
00002843 00000085 707.07 244.98 404.26 570.05 867.34 476.50 1045.26 459.11 993.45 606.43 870.96 672.48 1028.58 660.75
00002844 00000086 703.59 236.17 404.28 573.83 862.53 467.83 1042.02 455.38 989.15 595.09 869.55 666.36 1026.26 657.82
00002845 00000087 701.70 226.25 403.67 583.98 861.48 463.89 1040.27 455.46 989.08 587.59 867.37 660.14 1026.71 654.26
00002846 00000088 700.15 227.02 402.53 581.40 857.62 460.96 1037.44 452.17 986.68 579.93 868.54 658.95 1025.66 652.29
00002847 00000089 698.60 227.77 401.56 577.46 855.77 459.38 1034.06 450.28 984.45 577.42 867.53 656.42 1023.91 649.52
00002848 00000090 696.79 234.23 401.51 562.91 852.60 450.10 1032.48 442.38 979.64 569.84 867.98 651.16 1020.90 645.23
00002849 00000091 695.66 226.72 402.71 567.18 853.17 440.40 1029.05 435.85 976.03 563.51 865.41 641.79 1015.98 638.41
00002850 00000092 690.11 204.33 403.42 576.13 851.38 437.12 1027.29 426.47 977.23 558.83 863.10 634.98 1013.69 627.11
00002851 00000093 689.25 196.49 400.35 578.86 847.92 430.50 1021.65 420.46 973.26 548.32 861.93 629.62 1010.67 621.88
00002852 00000094 688.68 185.93 402.48 580.84 844.25 421.61 1021.58 412.58 969.25 540.92 858.94 621.36 1010.94 614.67
00002853 DELETE   689.39 184.33 400.93 573.13 842.01 411.28 1020.02 403.58 968.72 528.05 857.70 609.40 1012.43 603.83
00002854 00000096 688.96 175.15 398.02 576.34 839.44 399.62 1014.90 393.74 966.54 514.53 856.79 597.21 1013.63 592.28
00002855 00000097 687.63 162.74 398.02 581.49 837.23 389.20 1014.05 388.31 961.40 498.61 855.71 589.23 1009.18 588.07
00002856 00000098 687.23 156.74 393.59 581.31 833.15 379.19 1010.68 378.18 956.64 487.21 854.16 582.78 1004.65 581.43
00002857 00000099 685.17 147.72 390.93 580.70 829.33 367.96 1002.41 362.63 953.16 473.99 849.80 572.59 998.11 568.11
00002858 00000100 683.64 138.52 392.31 585.40 823.65 360.72 998.47 353.88 948.63 463.92 848.68 567.63 996.59 561.72
00002859 00000101 681.98 136.23 390.02 583.36 820.12 351.25 995.01 346.18 944.57 456.46 847.72 561.62 993.48 557.02
00002860 00000102 677.57 130.51 390.83 586.86 817.16 355.30 993.36 343.00 944.88 455.72 841.22 566.34 994.20 556.44
00002861 00000103 669.05 147.83 395.69 563.68 809.91 348.64 988.23 334.69 940.02 455.49 841.77 562.93 988.34 550.30
00002862 00000104 653.14 140.21 396.22 558.87 790.77 350.43 967.24 333.12 920.42 451.53 830.20 561.72 968.13 545.57
00002863 00000105 657.09 129.80 389.18 568.08 789.97 357.04 966.71 337.58 921.30 450.42 827.82 563.60 972.78 545.97
00002864 00000106 653.64 126.96 391.24 577.21 786.82 359.32 963.27 341.93 915.43 453.10 823.60 566.12 969.16 550.17
00002865 00000107 652.55 129.64 393.63 581.98 785.72 362.65 962.16 345.42 914.35 455.35 821.53 568.73 970.01 552.98
00002866 00000108 651.10 130.15 394.73 584.07 783.78 363.09 959.80 345.76 911.46 456.14 820.74 570.61 967.69 554.88
00002867 00000109 651.04 130.27 393.90 581.93 782.04 360.76 959.66 341.73 910.76 455.46 823.87 572.05 966.09 554.79
00002868 00000110 652.92 128.91 393.54 577.17 782.01 363.24 960.01 342.13 910.63 455.12 826.40 572.41 968.12 553.17
00002869 00000111 655.51 124.14 392.74 579.41 785.09 366.86 962.36 345.77 912.42 454.23 828.11 570.80 971.31 551.67
00002870 00000112 659.85 126.49 392.75 581.75 788.93 369.86 966.49 348.46 918.27 457.16 831.84 573.75 977.23 554.90
00002871 00000113 662.16 132.09 393.30 578.58 792.91 371.13 970.23 349.45 923.10 458.35 834.92 574.28 981.71 555.41
00002872 00000114 665.82 137.21 393.25 576.55 797.46 374.54 974.85 352.93 927.24 463.33 838.38 577.13 985.28 558.87
00002873 00000115 672.26 141.21 388.40 578.83 802.66 380.68 981.30 360.98 931.99 472.30 840.02 583.58 988.88 568.16
00002874 00000116 670.62 151.71 391.30 585.21 801.43 387.30 980.71 369.63 927.60 484.62 841.01 598.52 986.16 584.03
00002875 00000117 663.27 152.18 392.32 592.19 789.01 391.17 966.90 377.78 907.73 492.85 828.56 604.30 968.86 593.04
00002876 00000118 651.34 152.44 398.12 598.42 771.32 393.49 946.81 387.23 876.88 496.80 804.92 606.91 941.93 601.01
00002877 00000119 646.13 152.27 400.96 601.02 758.77 395.33 938.97 401.06 852.37 501.97 778.57 608.31 921.93 612.33
00002878 00000120 646.40 161.45 401.55 596.75 754.94 398.20 937.43 406.85 841.75 510.99 770.45 612.78 914.50 619.60
00002879 00000121 648.12 172.35 402.69 603.80 756.54 404.98 943.63 414.35 845.83 523.35 772.93 623.88 923.60 631.17
00002880 00000122 650.72 173.97 405.68 611.33 763.55 411.80 950.35 413.72 860.45 528.48 786.84 632.64 936.36 633.45
00002881 00000123 657.16 186.75 400.10 596.59 765.54 418.78 952.64 415.49 869.37 533.60 791.60 635.19 931.90 631.42
00002882 00000124 655.07 183.45 401.10 603.42 770.02 419.44 953.78 422.11 866.78 533.66 792.18 636.97 938.01 638.91
00002883 00000125 655.30 185.23 399.52 596.83 766.86 418.30 950.20 424.90 858.29 535.33 787.53 637.03 928.28 642.58
00002884 00000126 655.17 182.06 398.28 591.14 764.37 415.66 945.88 423.72 852.00 533.46 785.17 633.36 922.25 640.23
00002885 00000127 655.56 181.48 400.24 586.54 765.67 413.26 949.41 419.63 856.71 531.82 788.39 629.56 928.18 634.78
00002886 00000128 659.25 178.13 400.28 585.71 770.84 414.27 954.68 417.02 865.15 530.05 796.42 627.94 938.19 629.86
00002887 00000129 665.06 177.68 397.59 586.65 779.16 414.45 960.88 417.08 874.34 527.07 803.64 626.16 944.81 628.24
00002888 00000130 671.27 177.93 395.45 587.92 785.88 412.86 967.25 414.77 881.66 526.71 809.64 626.83 951.12 628.51
00002889 00000131 677.67 175.41 400.74 589.97 789.45 405.67 977.54 415.93 886.25 525.64 806.88 617.74 953.84 627.27
00002890 00000132 681.41 172.97 400.40 592.63 794.17 405.46 980.39 412.51 892.68 525.18 813.54 618.21 960.99 624.92
00002891 00000133 682.91 171.93 402.46 586.25 801.62 404.38 985.69 408.67 903.01 521.29 825.91 613.45 968.81 617.42
00002892 00000134 688.76 167.85 407.12 595.26 819.53 404.47 1005.80 403.76 933.29 520.37 847.58 617.48 993.29 616.56
00002893 DELETE   707.75 178.96 395.22 579.42 848.82 412.41 1029.69 400.23 972.35 516.52 885.02 621.09 1027.37 609.90
00002894 DELETE   733.42 182.83 383.19 568.58 883.96 413.31 1056.73 390.59 1018.69 503.41 927.43 621.47 1062.77 602.19
00002895 DELETE   747.44 173.44 377.85 576.65 912.05 404.29 1074.06 382.67 1051.55 488.21 952.22 613.12 1082.38 595.26
00002896 00000138 756.89 167.85 374.18 575.72 920.38 397.83 1077.48 378.83 1056.66 478.95 958.70 604.21 1085.84 589.07
00002897 00000139 748.92 161.47 377.95 572.18 911.75 390.02 1068.96 368.96 1049.66 470.48 943.58 593.31 1074.62 577.29
00002898 00000140 736.12 150.93 382.15 581.67 889.30 377.60 1057.92 365.44 1026.92 470.86 912.94 585.54 1055.39 576.48
00002899 00000141 713.88 143.74 391.67 595.24 863.66 368.90 1039.05 369.29 994.47 474.62 880.53 579.26 1028.71 580.06
00002900 00000142 699.17 142.61 391.34 594.20 842.99 369.85 1016.68 375.50 960.09 475.92 857.05 576.06 1002.15 579.83
00002901 00000143 691.23 146.16 392.65 589.42 828.29 370.55 1006.39 376.98 943.56 485.88 839.37 580.44 986.15 585.52
00002902 00000144 686.19 149.95 391.63 581.13 822.74 372.59 999.38 376.88 937.46 487.79 835.28 580.25 979.35 584.10
00002903 00000145 684.85 149.70 387.92 575.19 824.15 374.68 998.64 375.23 942.45 485.80 839.17 578.58 982.25 579.58
00002904 00000146 684.65 149.16 384.96 570.18 826.48 372.98 998.17 371.34 945.38 483.10 844.83 575.27 983.46 574.45
00002905 00000147 686.04 145.06 379.94 566.59 827.45 373.73 999.49 368.99 949.26 479.66 844.02 575.66 988.72 572.75
00002906 00000148 682.97 139.98 379.17 566.06 824.17 369.35 995.02 364.12 947.18 473.87 841.12 571.54 983.58 568.14
00002907 00000149 680.74 135.36 379.62 561.85 820.57 363.70 993.24 357.21 945.52 469.24 839.09 565.82 981.50 561.77
00002908 00000150 678.59 131.41 381.36 561.71 815.41 358.51 990.96 350.43 940.79 463.60 835.10 560.45 980.54 555.59
00002909 00000151 676.38 129.69 382.62 568.37 810.67 357.08 986.66 351.99 934.69 462.27 831.93 561.61 977.71 558.35
00002910 00000152 673.52 129.44 384.08 575.72 806.10 359.42 980.92 352.91 930.36 462.44 830.32 564.34 977.10 559.16
00002911 00000153 668.65 130.85 385.87 574.16 799.57 361.66 974.62 354.24 923.75 464.58 825.33 565.63 971.28 559.52
00002912 00000154 661.71 129.11 388.21 571.54 791.49 360.14 968.11 351.32 916.28 462.82 820.99 564.15 963.74 556.24
00002913 00000155 658.70 125.64 388.26 577.14 788.01 359.30 966.31 350.68 912.93 461.78 818.82 565.61 960.85 557.74
00002914 00000156 655.32 121.98 388.22 579.08 784.70 356.82 964.35 347.52 909.19 460.14 817.61 565.96 955.63 557.59
00002915 00000157 653.94 120.56 387.38 582.07 782.33 354.99 962.48 345.28 906.40 458.09 815.67 565.17 953.65 556.25
00002916 00000158 652.02 119.91 386.54 585.08 779.45 355.84 958.90 344.27 902.50 457.63 815.39 568.70 952.25 557.97
00002917 00000159 649.91 119.12 388.37 589.27 778.55 356.93 959.32 347.84 902.24 461.02 811.16 568.26 954.71 559.56
00002918 00000160 647.08 123.97 390.88 590.15 779.34 358.07 957.85 350.54 902.57 463.61 810.27 568.71 953.13 561.21
00002919 00000161 646.57 124.63 390.96 595.40 778.67 358.42 956.27 350.02 902.29 461.28 810.67 571.24 952.32 563.19
00002920 00000162 648.09 124.01 390.22 598.35 780.24 362.82 957.24 352.81 905.56 465.73 815.15 577.55 954.77 568.52
00002921 00000163 649.53 125.47 389.93 594.02 782.12 364.91 957.32 352.65 907.43 465.06 817.67 575.52 958.06 564.47
00002922 00000164 653.99 124.20 388.37 593.78 784.57 367.52 961.25 354.82 910.29 466.17 822.72 578.91 962.09 567.73
00002923 00000165 656.46 125.50 388.99 590.76 786.32 370.35 963.64 356.74 912.28 468.77 826.28 582.66 963.38 571.08
00002924 00000166 656.80 126.62 391.22 590.50 787.09 372.92 965.34 356.81 913.74 469.00 828.85 583.13 968.45 569.27
00002925 00000167 659.72 131.29 390.16 591.87 787.02 379.27 966.87 360.83 913.24 477.47 832.06 591.71 971.23 576.45
00002926 00000168 657.72 133.69 393.27 594.86 785.61 383.61 962.24 362.37 909.84 483.11 834.91 599.48 966.26 581.61
