Video ID: 	vf4tEpVGQDc
H: 	1080
W: 	1920
FPS: 	25.0

FRAME INDEX X0 Y0 W H [Landmarks (5 Points)]

00000476 00000000 537.36 105.86 399.63 577.09 703.10 316.87 876.64 355.56 813.71 416.89 696.39 516.68 841.77 548.70
00000477 00000001 535.99 110.97 397.60 570.08 704.74 320.53 874.07 356.70 813.69 420.23 700.03 518.24 840.31 548.31
00000478 00000002 535.76 117.69 396.80 564.43 703.85 327.38 872.42 361.07 811.16 427.86 699.34 522.92 837.59 551.13
00000479 00000003 535.49 121.89 399.24 567.07 704.14 332.49 872.89 365.92 809.80 440.95 696.71 531.11 835.07 559.36
00000480 00000004 539.79 136.97 395.36 559.87 703.82 337.55 868.96 370.02 805.82 444.09 693.02 537.25 824.43 563.75
00000481 00000005 538.75 136.10 394.88 562.17 701.93 338.05 868.95 371.87 805.48 443.76 689.46 538.45 823.79 566.28
00000482 00000006 536.71 122.32 398.49 573.20 703.81 332.18 871.80 370.01 806.91 439.59 690.37 532.11 829.60 564.19
00000483 00000007 536.35 120.92 398.47 568.98 703.05 330.43 873.20 366.78 808.77 437.50 692.59 528.71 834.41 559.36
00000484 00000008 536.29 119.84 399.49 567.41 703.92 331.25 874.29 365.68 810.54 437.94 696.38 528.30 837.40 557.23
00000485 00000009 537.50 121.85 399.31 567.84 705.54 333.07 875.94 369.08 811.12 441.25 696.52 532.26 835.71 562.77
00000486 00000010 542.01 135.44 395.55 564.97 704.92 338.21 872.92 371.22 808.75 444.66 694.14 541.29 827.20 568.30
00000487 00000011 542.00 133.73 395.85 571.52 701.96 336.66 871.58 368.82 804.82 443.68 692.93 544.11 824.15 570.35
00000488 00000012 540.37 128.80 399.13 567.73 701.31 329.40 870.18 361.99 806.36 434.05 693.16 534.57 825.40 561.36
00000489 00000013 538.31 118.31 397.78 569.07 703.03 335.71 870.46 371.27 807.46 427.37 696.11 527.97 833.40 557.45
00000490 00000014 538.47 116.29 400.50 570.58 707.20 335.75 874.99 369.63 813.14 427.70 701.73 529.42 837.34 557.45
00000491 DELETE   539.48 115.89 401.34 576.02 710.00 336.81 879.45 369.75 816.40 437.82 704.10 536.44 839.07 564.15
00000492 00000016 541.99 128.49 401.64 571.14 713.33 343.39 883.85 378.02 818.67 452.09 702.16 544.11 840.46 573.76
00000493 00000017 542.36 134.95 402.88 571.25 710.51 352.17 882.69 385.32 815.38 461.17 698.32 550.49 839.26 579.01
00000494 00000018 547.84 142.89 396.46 564.03 710.36 348.49 881.74 386.35 811.74 458.56 691.54 550.31 833.76 581.40
00000495 00000019 548.51 140.36 397.27 557.51 709.11 342.58 878.25 378.14 808.68 452.54 690.90 542.80 829.20 572.05
00000496 00000020 543.08 124.43 401.99 572.53 710.27 331.44 877.08 371.24 809.33 443.02 692.18 532.12 832.83 565.88
00000497 00000021 547.89 130.97 400.19 569.02 707.08 328.11 880.05 363.83 810.50 436.03 691.10 534.80 833.39 564.77
00000498 00000022 548.85 133.07 399.64 566.37 709.59 331.62 882.53 366.00 814.54 437.32 694.54 536.97 836.22 565.78
00000499 00000023 551.07 138.23 396.17 562.92 714.56 339.14 883.52 373.19 817.50 447.86 699.89 542.99 836.44 571.12
00000500 00000024 551.32 143.50 396.99 562.28 715.67 344.52 883.21 380.25 815.76 455.77 698.47 546.62 835.56 576.03
00000501 00000025 551.18 143.50 397.82 561.41 715.63 346.62 884.27 382.48 815.38 457.12 699.22 548.18 836.69 577.53
00000502 00000026 551.47 142.42 396.91 561.02 714.51 344.97 882.97 380.94 812.94 456.35 696.96 546.88 834.08 576.41
00000503 00000027 552.16 142.69 396.02 559.62 713.10 343.53 882.03 378.57 811.44 452.23 696.81 545.33 833.73 574.04
00000504 00000028 552.20 139.48 397.37 563.61 714.39 341.51 882.66 377.24 814.03 450.77 698.33 543.57 834.53 572.91
00000505 00000029 552.35 136.78 396.69 566.75 714.80 340.76 884.07 377.44 816.16 449.20 698.19 542.94 836.32 573.25
00000506 00000030 552.50 136.94 396.59 566.70 715.63 340.61 884.34 377.12 816.73 449.45 699.15 543.18 836.14 573.33
00000507 00000031 552.57 137.54 395.95 564.26 714.09 340.10 883.64 376.36 815.27 447.96 697.67 541.99 835.55 571.94
00000508 00000032 552.02 139.79 396.26 560.06 712.54 339.17 882.40 374.86 813.16 445.48 696.65 539.63 834.53 569.15
00000509 00000033 551.02 137.57 394.93 557.44 709.98 337.43 882.32 373.32 812.14 442.94 693.30 537.47 834.84 567.36
00000510 00000034 542.76 124.72 401.88 569.42 708.87 334.60 880.55 373.73 811.28 441.80 694.95 533.12 837.26 566.37
00000511 00000035 540.60 123.94 402.35 566.47 707.92 332.53 880.04 372.03 810.55 439.72 694.69 529.76 837.95 563.20
00000512 00000036 539.79 120.04 403.83 568.23 706.11 329.66 881.01 367.27 811.58 436.50 696.82 529.25 841.75 560.91
00000513 00000037 539.25 118.53 403.23 566.42 705.68 327.68 881.03 365.52 813.06 431.89 698.34 525.93 844.02 557.61
00000514 00000038 538.88 117.60 402.46 566.75 706.55 327.24 880.91 365.15 814.33 430.49 699.33 524.81 844.25 556.47
00000515 00000039 538.39 116.81 401.90 567.81 705.87 327.10 881.01 364.85 814.22 430.18 699.53 525.82 844.03 557.34
00000516 00000040 537.75 116.76 401.88 569.83 704.65 328.49 880.52 365.66 814.15 431.27 698.81 528.05 843.87 559.10
00000517 00000041 536.06 119.73 403.10 568.20 701.77 330.48 880.10 366.85 812.69 433.12 697.14 531.40 842.46 562.05
00000518 00000042 536.37 120.30 401.95 568.79 701.02 332.09 877.65 367.31 809.93 436.37 695.49 533.78 838.65 563.61
00000519 00000043 536.31 119.95 401.63 570.14 700.52 332.44 876.60 366.92 808.46 436.77 695.27 535.12 836.65 564.33
00000520 00000044 536.02 116.42 403.12 572.35 700.45 330.49 876.82 365.75 809.69 431.77 696.07 533.35 837.34 563.00
00000521 00000045 537.38 115.36 400.62 571.38 703.63 326.25 877.81 361.71 813.03 425.19 700.11 527.73 840.73 557.36
00000522 00000046 538.53 110.17 402.24 575.66 708.15 322.08 880.82 358.54 817.45 417.21 703.83 523.62 842.86 553.67
00000523 00000047 540.25 108.40 403.71 577.58 712.48 321.05 881.66 356.61 821.05 415.15 707.63 523.73 843.32 553.06
00000524 00000048 542.29 112.81 402.52 576.31 715.39 325.88 882.20 359.29 822.20 426.67 709.77 529.83 842.72 557.74
00000525 00000049 544.78 123.67 402.09 576.71 714.66 337.17 886.14 371.26 819.51 447.08 706.16 545.43 840.07 574.76
00000526 00000050 549.32 139.83 401.35 576.07 715.73 344.08 886.20 380.18 817.43 457.65 702.13 555.75 831.30 585.02
00000527 00000051 551.41 141.20 399.19 571.38 717.03 342.30 885.86 378.84 817.21 455.39 701.55 551.04 831.35 580.67
00000528 00000052 545.09 124.32 405.05 571.42 715.16 331.81 889.10 370.58 819.68 443.22 702.62 537.04 843.75 570.20
00000529 00000053 545.30 112.91 402.48 568.70 717.13 321.72 890.28 360.21 826.78 425.18 709.28 521.92 851.39 554.15
00000530 00000054 544.25 106.69 403.73 571.39 718.39 317.35 893.36 356.16 832.11 415.14 711.66 516.17 855.40 548.42
00000531 00000055 541.69 107.57 403.73 577.94 720.56 319.46 886.38 358.01 828.90 421.68 709.02 521.68 844.82 553.93
00000532 00000056 549.15 128.18 401.57 572.00 716.37 327.34 888.41 363.06 823.22 436.86 705.00 535.23 841.91 564.51
00000533 00000057 549.86 137.84 400.42 575.82 720.48 338.87 885.85 377.97 820.73 451.66 700.71 546.19 832.12 578.39
00000534 00000058 550.97 142.24 400.23 582.61 719.99 345.83 886.10 384.33 819.05 460.94 698.88 556.99 831.69 588.83
00000535 00000059 551.47 143.21 400.67 578.37 721.29 343.14 887.41 380.68 819.57 457.71 701.11 555.03 831.36 585.81
00000536 00000060 555.22 137.18 397.14 577.91 718.44 335.67 886.73 372.82 816.77 447.94 702.68 547.08 830.17 577.46
00000537 00000061 553.87 128.40 399.20 579.88 717.04 325.58 886.08 362.71 818.09 435.65 703.55 538.26 834.32 568.94
00000538 00000062 553.44 122.46 400.22 581.22 719.52 321.91 886.11 359.67 822.72 430.25 706.02 533.37 836.62 564.95
00000539 00000063 554.14 126.02 399.86 579.75 722.24 323.87 887.87 362.24 824.71 434.93 707.42 534.79 837.75 566.74
00000540 00000064 555.40 127.51 399.27 581.43 724.58 326.06 892.76 365.87 828.04 439.43 708.09 539.08 840.59 572.06
00000541 00000065 554.82 138.26 399.56 574.66 726.43 339.32 890.15 379.43 826.89 446.46 707.27 543.23 839.80 576.43
00000542 00000066 556.73 143.01 398.35 569.05 729.24 344.30 890.72 384.90 828.10 451.82 707.24 545.47 839.70 579.20
00000543 00000067 557.71 143.95 397.22 563.80 729.23 345.38 892.22 385.95 829.47 452.15 706.86 545.84 841.11 579.69
00000544 00000068 558.36 143.06 396.45 559.89 728.22 345.27 892.88 382.90 831.03 447.38 710.76 544.29 846.43 575.55
00000545 00000069 557.15 137.05 397.27 562.90 727.54 343.27 895.67 379.99 834.97 442.87 714.20 542.71 852.00 572.99
00000546 00000070 555.43 131.79 398.59 567.95 726.49 340.46 897.30 378.01 838.51 436.96 717.14 540.62 856.62 571.35
00000547 00000071 554.70 130.31 397.94 567.94 727.67 338.06 896.86 375.81 840.33 436.19 718.18 538.49 857.00 569.41
00000548 00000072 548.34 124.40 399.54 574.11 727.93 338.43 893.52 378.47 838.24 439.87 717.74 537.44 853.64 571.33
00000549 00000073 552.28 131.67 397.54 568.13 725.55 340.00 893.13 376.65 838.35 434.87 717.69 539.43 853.60 569.35
00000550 00000074 550.22 135.03 396.68 565.60 721.99 341.18 891.46 379.08 834.77 432.48 715.30 540.08 851.32 570.96
00000551 00000075 548.87 133.70 396.72 567.68 720.49 339.40 888.70 376.29 831.93 431.96 713.34 539.11 847.27 569.17
00000552 00000076 546.35 133.84 397.25 567.68 716.74 338.58 886.77 375.41 827.40 431.35 710.34 538.88 844.71 568.83
00000553 00000077 547.08 132.46 395.04 569.43 716.92 337.05 884.97 373.36 826.54 431.08 710.99 538.82 842.21 568.48
00000554 00000078 546.40 131.39 395.30 569.84 718.53 335.60 882.96 371.91 827.49 429.65 712.34 536.46 840.76 566.21
00000555 00000079 545.48 131.43 395.35 571.88 718.33 335.65 882.11 373.09 827.35 428.05 712.16 536.17 840.66 566.81
00000556 00000080 546.37 130.70 395.00 574.14 718.33 335.37 882.36 372.47 827.62 428.09 712.98 536.30 841.23 566.70
00000557 00000081 547.10 130.71 395.19 575.01 718.60 335.42 883.33 372.33 826.70 430.15 712.34 538.01 839.51 568.22
00000558 00000082 546.98 133.32 395.73 576.19 719.50 337.80 885.41 376.95 829.43 429.31 714.05 539.84 843.37 571.68
00000559 00000083 545.82 142.21 398.70 569.53 721.24 343.88 884.66 380.56 828.93 429.86 716.71 540.30 847.14 569.91
00000560 00000084 546.25 141.55 403.71 570.58 725.02 342.37 888.60 378.17 833.86 428.38 723.04 541.62 850.61 570.37
00000561 00000085 548.35 141.16 399.88 572.56 727.88 343.68 890.42 382.74 837.40 430.11 724.44 542.50 852.00 573.96
00000562 00000086 547.92 140.62 398.57 573.34 730.18 345.55 889.92 385.89 840.02 431.39 726.84 542.57 852.60 575.03
00000563 00000087 544.92 139.30 398.29 573.09 723.64 345.96 886.42 385.34 832.89 432.40 719.54 542.41 848.01 574.32
00000564 00000088 539.93 135.58 399.52 573.32 709.34 343.36 881.63 373.26 817.45 437.22 706.52 544.92 838.84 569.25
00000565 DELETE   535.19 135.53 401.10 571.10 693.23 343.49 868.81 369.72 799.80 436.88 691.29 543.22 829.65 564.69
00000566 00000090 526.45 122.43 404.66 583.20 681.92 339.59 862.81 369.14 789.99 431.42 679.86 541.11 825.09 566.28
00000567 00000091 529.64 130.47 398.24 576.72 684.16 336.46 855.60 365.29 790.51 431.66 681.68 536.98 821.00 560.91
00000568 00000092 534.05 125.07 396.61 589.54 692.50 335.33 868.06 366.19 803.01 433.61 688.27 542.35 830.02 567.80
00000569 DELETE   533.98 117.40 401.01 602.52 701.17 340.65 878.23 373.32 816.35 441.62 695.55 549.31 841.96 576.61
00000570 DELETE   537.55 142.49 397.23 578.44 716.84 356.99 887.30 388.02 831.96 469.72 707.41 558.76 850.96 584.76
00000571 DELETE   536.27 149.02 401.99 585.35 719.80 375.75 890.15 405.37 834.79 491.76 709.43 576.54 849.47 601.07
00000572 00000096 537.03 151.85 403.34 583.94 717.98 380.63 891.21 410.00 834.14 497.15 708.20 582.02 849.54 606.41
00000573 00000097 540.06 150.14 403.48 581.60 723.03 369.42 886.54 399.25 831.78 488.50 709.96 574.15 843.78 598.76
00000574 00000098 544.14 147.67 400.67 575.56 726.80 360.06 889.74 391.22 836.70 477.56 712.27 562.06 849.68 588.08
00000575 00000099 547.08 145.16 399.16 573.29 731.67 359.06 893.14 387.43 845.17 473.23 720.78 561.48 855.31 585.15
00000576 00000100 550.65 150.04 396.73 572.03 735.07 366.13 894.57 394.07 849.21 477.47 727.66 570.17 856.81 593.00
00000577 00000101 553.88 153.42 397.36 577.28 734.19 376.78 897.52 404.36 851.18 485.44 730.04 577.80 864.06 600.29
00000578 00000102 557.85 153.55 396.65 572.13 739.22 372.43 900.68 400.46 853.94 483.59 733.66 573.39 866.72 596.27
00000579 00000103 560.47 149.96 396.15 568.90 743.67 364.67 903.06 393.13 857.32 477.63 736.50 568.24 867.01 591.59
00000580 00000104 563.27 145.43 395.10 571.15 744.48 358.56 903.16 388.69 857.93 468.87 737.18 564.25 866.94 588.98
00000581 00000105 560.43 140.07 396.43 582.04 741.40 354.51 899.63 386.12 853.74 463.77 732.25 561.13 863.75 586.76
00000582 00000106 555.91 139.22 398.10 584.04 734.06 350.76 895.33 382.08 846.54 460.11 724.65 558.00 859.48 583.50
00000583 00000107 554.16 141.06 399.14 582.56 730.12 347.39 891.59 380.84 838.89 458.98 716.48 555.16 852.38 582.50
00000584 00000108 551.41 141.09 399.16 580.94 726.54 344.74 889.66 380.32 832.72 457.84 711.02 553.09 846.17 582.12
00000585 00000109 551.98 141.17 399.67 577.96 724.12 343.79 888.00 379.82 827.89 454.52 708.84 549.20 843.59 578.49
00000586 00000110 552.65 138.74 398.95 578.62 721.45 340.17 887.65 375.37 826.00 449.93 708.31 547.29 842.90 575.96
00000587 00000111 552.95 135.57 398.10 577.47 720.77 336.41 888.91 370.92 828.18 444.07 709.85 544.17 845.98 572.37
00000588 00000112 551.13 130.89 399.88 579.66 719.14 331.32 889.80 366.37 827.84 440.76 708.53 541.54 846.85 570.30
00000589 00000113 550.40 130.48 399.47 577.23 717.08 329.20 888.08 363.95 825.54 438.13 706.67 539.22 845.82 567.80
00000590 00000114 549.95 129.52 399.25 572.66 714.69 330.78 889.15 365.44 823.99 440.55 704.22 539.24 844.65 567.84
00000591 00000115 550.84 133.03 397.34 569.66 713.56 334.74 888.19 369.62 822.38 441.13 702.48 541.33 842.90 570.13
00000592 00000116 551.29 131.18 397.36 572.63 715.06 335.48 888.45 369.98 823.05 443.43 703.75 543.93 841.25 572.41
00000593 00000117 552.48 133.94 396.95 570.51 717.12 335.79 888.95 369.57 824.32 443.68 705.80 544.75 841.79 572.53
00000594 00000118 555.49 132.86 395.87 569.24 720.82 336.85 892.38 369.87 829.36 442.51 711.59 544.03 848.65 571.06
00000595 00000119 557.73 133.94 396.29 567.83 727.12 337.68 896.74 372.53 837.27 443.26 719.43 545.00 855.91 573.36
00000596 00000120 558.04 135.99 398.91 571.21 731.48 341.43 896.84 375.43 840.33 447.41 723.35 548.38 857.79 576.16
00000597 00000121 557.73 139.12 400.71 571.80 734.13 344.55 896.86 378.79 841.64 453.66 723.44 551.60 856.37 579.63
00000598 00000122 556.87 141.97 401.39 570.36 731.40 345.31 896.21 379.63 838.36 453.24 719.62 551.60 854.58 579.79
00000599 00000123 555.98 138.50 398.90 566.69 725.30 342.76 892.98 377.99 830.89 451.75 712.20 549.13 847.75 578.07
00000600 00000124 557.97 138.50 396.07 563.36 722.31 341.15 892.89 375.16 828.07 448.62 709.78 547.28 847.01 575.30
00000601 00000125 558.18 137.14 396.46 563.82 723.38 340.86 893.64 374.93 829.72 448.65 712.09 547.46 849.15 575.45
00000602 00000126 558.71 134.73 397.79 563.25 724.46 341.13 897.05 375.78 833.06 448.39 715.63 547.82 855.04 576.08
00000603 00000127 559.11 134.94 396.48 561.74 722.95 341.62 897.95 375.01 833.05 447.02 717.19 548.98 857.36 576.04
00000604 00000128 550.26 124.56 400.87 568.71 718.92 337.15 894.26 373.30 828.39 441.71 714.65 541.86 853.86 572.66
00000605 00000129 547.57 116.10 402.97 566.97 716.19 327.47 892.17 363.46 826.11 433.24 713.34 530.89 854.30 561.31
00000606 00000130 546.27 114.30 403.58 569.18 718.48 325.44 890.93 360.78 828.13 430.01 714.48 529.01 853.39 558.72
00000607 00000131 545.77 114.72 402.18 567.85 718.46 326.18 892.01 361.58 830.30 429.42 716.15 529.01 855.26 558.69
00000608 00000132 546.96 116.48 400.51 567.05 719.30 329.79 894.14 362.72 833.80 433.17 720.54 532.81 859.56 560.47
00000609 00000133 548.27 121.62 399.10 565.21 718.71 335.50 893.37 369.34 832.20 438.17 719.71 538.49 857.54 567.07
00000610 00000134 547.66 126.59 400.93 564.22 717.49 338.88 892.60 372.98 828.85 442.03 716.31 542.86 853.26 571.91
00000611 00000135 545.97 125.27 402.32 567.34 716.84 338.12 890.70 372.56 825.93 442.48 712.84 542.29 849.15 571.64
00000612 00000136 545.05 122.72 402.81 568.17 716.67 334.16 890.52 368.75 826.35 439.48 712.80 538.64 850.38 567.91
00000613 00000137 546.29 120.34 401.91 568.32 718.66 331.46 892.80 366.24 830.30 437.17 715.04 535.49 854.45 564.93
00000614 00000138 547.61 118.88 401.31 571.02 719.92 331.50 894.79 366.13 833.18 435.92 717.31 536.85 856.99 566.15
00000615 00000139 548.74 119.25 400.46 575.66 723.59 333.26 894.06 368.85 835.37 437.77 719.03 538.53 855.97 568.63
00000616 00000140 556.74 131.58 397.50 569.06 728.88 333.98 899.70 370.44 840.33 436.52 722.10 543.66 857.01 573.16
00000617 00000141 556.01 137.28 401.81 573.77 732.97 340.29 897.40 376.46 838.66 446.50 723.13 549.64 850.44 579.05
00000618 00000142 557.41 143.23 400.87 578.31 736.38 346.16 898.60 384.39 840.31 462.92 720.85 560.18 847.58 591.74
00000619 00000143 556.73 147.26 403.84 577.84 736.61 350.94 898.65 386.92 840.36 468.50 721.89 564.37 849.44 594.03
00000620 00000144 558.47 145.91 403.78 574.82 737.92 344.98 899.40 382.41 841.14 459.66 722.28 555.98 851.58 586.82
00000621 00000145 560.28 133.88 404.21 576.57 737.90 334.57 904.13 371.87 848.26 440.87 725.37 544.84 862.30 575.95
00000622 00000146 561.66 119.67 402.16 582.82 739.34 322.19 904.92 361.70 856.17 422.69 730.00 530.92 868.01 563.81
00000623 00000147 563.17 117.61 401.02 583.86 738.47 322.23 905.42 361.40 856.10 422.53 729.34 530.20 869.50 562.92
00000624 00000148 563.70 131.25 403.38 575.95 738.79 334.69 906.78 372.27 850.47 443.30 724.61 542.73 865.51 574.67
00000625 00000149 570.60 147.26 400.18 571.05 744.31 349.73 909.37 387.52 848.36 468.96 724.79 560.17 860.81 592.12
00000626 00000150 573.98 149.54 402.01 577.76 746.46 357.76 909.61 395.10 850.70 476.89 726.09 568.51 863.12 600.15
00000627 00000151 575.44 150.64 401.44 578.60 747.80 357.02 910.79 394.29 852.89 475.82 726.66 568.32 865.09 600.07
00000628 00000152 575.70 146.78 399.79 568.03 745.87 352.81 912.46 388.94 852.62 471.56 727.52 558.65 869.15 589.42
00000629 00000153 572.90 143.57 398.69 561.93 740.80 347.42 908.35 380.82 847.80 463.59 727.37 551.79 868.20 580.56
00000630 00000154 566.90 140.87 401.53 559.44 735.84 344.99 902.64 379.14 840.63 459.27 723.13 546.90 862.97 575.91
00000631 00000155 562.34 140.15 401.36 562.29 731.67 343.78 896.69 380.11 833.04 457.54 716.80 547.76 852.34 577.86
00000632 00000156 561.03 141.46 398.73 559.73 728.52 343.79 892.94 381.94 828.59 457.03 711.34 547.16 847.35 578.67
00000633 00000157 560.67 145.93 400.84 552.11 724.10 350.68 893.27 387.01 826.08 452.31 711.12 544.50 852.16 574.47
00000634 00000158 560.31 143.98 400.32 554.55 729.30 347.57 896.62 383.42 834.10 448.62 717.51 543.07 857.09 572.55
00000635 00000159 560.54 135.17 399.81 566.75 732.91 342.44 897.68 377.60 840.18 446.56 723.71 544.29 860.50 573.24
00000636 00000160 559.39 128.34 401.01 583.17 733.08 335.85 895.06 372.53 838.90 441.81 721.50 542.21 855.85 572.37
00000637 00000161 557.11 126.89 403.90 585.65 727.59 328.54 894.02 368.43 831.53 439.96 712.38 538.29 848.90 571.31
00000638 00000162 555.24 127.50 402.21 582.48 717.88 326.54 889.23 366.18 819.77 438.70 700.48 537.27 841.29 570.43
00000639 00000163 552.22 128.04 402.58 579.18 709.26 327.52 882.40 366.51 809.64 441.28 690.45 535.91 835.79 568.69
00000640 00000164 550.29 130.22 403.24 581.27 710.51 328.81 881.44 368.33 811.37 444.43 691.09 537.14 834.09 570.29
00000641 00000165 552.94 136.21 400.85 574.04 719.35 332.91 887.33 370.99 821.17 446.40 703.36 540.75 838.84 572.20
00000642 00000166 555.11 139.80 400.66 570.52 729.67 339.08 892.14 377.18 835.25 447.74 714.64 542.96 849.79 574.34
00000643 00000167 557.21 143.26 402.88 567.70 739.15 343.98 900.63 379.44 848.97 454.90 727.01 548.18 861.08 577.76
00000644 00000168 561.69 143.05 401.07 564.38 746.13 346.68 907.87 381.47 858.83 460.67 736.41 552.02 869.63 581.16
00000645 00000169 561.30 143.41 401.51 563.43 747.24 347.02 909.02 382.46 860.50 461.33 737.19 552.23 870.05 581.92
00000646 00000170 560.55 141.65 401.51 566.78 745.09 345.92 905.77 381.79 855.89 460.80 733.57 551.36 865.99 581.39
