Video ID: 	IMlZJlw9Cck
H: 	1080
W: 	1920
FPS: 	29.97002997002997

FRAME INDEX X0 Y0 W H [Landmarks (5 Points)]

00003081 00000000 407.07 156.68 378.45 591.07 601.70 421.48 747.97 408.34 729.87 541.47 555.83 589.28 697.65 587.84
00003082 00000001 394.72 159.65 374.38 588.09 589.83 428.56 736.11 407.72 720.47 546.28 549.28 590.97 693.89 582.93
00003083 DELETE   370.89 168.59 383.87 575.97 563.75 416.12 717.10 406.43 689.71 543.39 525.17 581.26 681.13 578.93
00003084 DELETE   367.82 174.91 377.03 566.39 547.96 418.50 707.58 405.26 671.45 546.25 512.22 580.18 676.35 574.65
00003085 00000004 360.67 176.71 375.27 561.04 537.60 419.93 695.13 406.47 660.46 545.33 503.25 578.90 664.95 572.67
00003086 00000005 345.71 165.90 385.11 585.55 521.11 419.85 683.46 421.39 640.60 544.89 484.40 581.00 655.05 584.14
00003087 00000006 329.97 173.92 384.34 575.24 515.20 425.00 665.15 420.84 630.87 558.74 485.49 584.60 644.43 584.71
00003088 DELETE   321.40 172.78 385.98 573.27 502.15 427.72 656.97 419.82 621.98 557.71 474.88 584.41 636.70 582.03
00003089 DELETE   318.54 173.35 385.22 572.69 492.46 424.77 651.97 421.50 609.02 557.02 468.19 583.11 632.23 584.46
00003090 00000009 317.43 173.14 380.52 573.51 486.28 420.55 649.25 421.88 601.49 556.97 460.53 580.04 629.12 585.13
00003091 00000010 312.59 176.12 378.99 571.91 481.74 419.17 645.76 421.16 596.67 555.87 453.08 578.23 624.82 583.93
00003092 00000011 313.02 176.77 380.48 581.24 490.18 419.50 649.44 424.38 605.67 560.19 448.87 583.40 626.81 591.77
00003093 00000012 311.09 174.03 379.80 584.98 487.05 421.74 645.47 424.59 603.28 561.15 447.15 585.00 625.61 591.86
00003094 00000013 308.75 175.37 380.75 579.97 484.59 421.44 643.44 422.65 603.16 558.63 448.73 586.30 623.34 591.99
00003095 00000014 309.13 174.54 379.15 583.24 483.78 420.77 642.10 422.15 601.36 557.32 447.47 586.28 623.41 591.91
00003096 00000015 311.86 176.45 376.66 578.31 484.98 418.85 642.14 423.18 600.57 556.74 450.40 584.35 623.63 592.25
00003097 00000016 309.37 166.78 379.35 586.19 484.90 418.44 643.97 419.59 602.93 556.20 448.63 583.28 624.39 588.87
00003098 00000017 310.79 170.35 379.08 582.16 485.01 415.02 644.10 416.97 602.40 553.73 451.17 581.67 625.48 587.50
00003099 00000018 312.34 162.38 380.64 589.59 487.80 410.52 646.27 413.89 602.81 553.91 451.00 577.04 627.05 584.10
00003100 00000019 312.55 165.46 379.96 589.41 486.97 410.99 642.20 414.39 600.28 551.31 448.67 574.59 625.00 581.75
00003101 00000020 312.03 163.40 381.47 590.97 486.37 410.06 640.97 412.62 599.25 550.20 446.72 571.97 625.07 578.68
00003102 00000021 308.28 157.31 381.33 598.50 472.87 401.97 647.05 402.88 593.39 535.20 444.52 572.59 626.36 576.72
00003103 00000022 312.43 162.05 381.95 592.01 486.47 405.48 640.08 410.92 597.19 547.26 445.54 567.59 624.37 576.53
00003104 00000023 312.75 161.81 381.36 589.03 485.95 403.37 641.36 409.13 597.83 544.45 447.21 566.61 625.18 575.69
00003105 00000024 314.09 160.42 380.19 589.20 484.63 402.19 641.31 408.64 596.63 543.40 447.17 564.18 627.39 573.73
00003106 00000025 308.17 156.26 380.79 598.25 474.00 398.87 649.03 400.65 594.54 532.13 443.76 569.40 626.37 574.35
00003107 00000026 312.25 158.60 379.54 591.44 485.96 402.72 640.48 407.19 597.96 543.62 445.42 566.73 622.00 575.00
00003108 00000027 310.31 159.98 378.74 587.50 483.57 403.23 638.86 406.99 596.22 544.52 444.38 566.57 619.41 574.28
00003109 00000028 307.59 158.60 377.94 586.16 480.28 401.06 636.08 406.89 593.17 541.40 441.59 566.23 614.97 575.72
00003110 00000029 304.16 158.58 378.16 588.64 462.84 403.25 633.63 398.30 583.85 532.25 430.07 568.85 617.91 567.33
00003111 00000030 302.71 158.83 377.99 584.45 461.36 403.24 630.59 398.19 582.02 528.02 430.67 566.41 616.62 564.61
00003112 00000031 301.39 155.55 378.44 587.09 461.32 402.84 631.47 392.74 586.11 528.40 431.23 567.11 619.04 561.60
00003113 00000032 301.51 156.50 381.42 582.92 476.24 401.08 627.88 400.58 592.86 537.94 441.32 561.24 613.01 565.94
00003114 00000033 302.73 154.97 380.51 585.10 478.43 401.16 628.32 398.68 595.37 537.52 443.46 560.53 615.05 563.55
00003115 00000034 302.73 155.77 380.50 584.24 478.13 398.71 628.62 396.38 596.32 532.41 447.68 562.08 616.25 564.88
00003116 00000035 302.95 154.50 380.51 585.28 479.01 400.23 629.21 396.02 599.04 532.95 449.31 563.08 617.78 564.47
00003117 00000036 304.66 154.52 378.86 586.97 482.20 401.54 631.57 395.71 603.11 534.29 452.01 565.53 619.69 565.60
00003118 00000037 306.14 152.78 378.25 587.15 483.39 401.37 633.70 394.81 605.24 531.28 455.22 566.20 622.25 565.49
00003119 00000038 307.03 152.84 377.83 587.48 485.06 400.52 633.31 393.72 606.41 529.97 457.56 565.04 623.65 564.06
00003120 00000039 306.74 150.83 378.30 585.96 486.15 398.52 635.57 392.37 609.37 525.28 460.90 565.36 624.52 564.74
00003121 00000040 306.67 150.41 378.95 585.84 488.46 396.57 635.10 391.94 610.20 525.21 464.04 564.21 623.93 564.49
00003122 00000041 306.71 147.86 379.28 585.42 488.10 395.70 634.94 391.32 610.64 521.29 465.74 562.86 625.18 563.24
00003123 00000042 316.38 145.08 369.92 586.73 478.07 396.03 641.37 387.86 601.70 505.21 468.25 562.13 633.99 557.49
00003124 00000043 313.90 145.41 374.93 584.57 488.59 391.90 636.18 387.42 610.27 515.85 466.57 558.91 628.61 559.36
00003125 00000044 320.15 143.08 366.50 583.62 478.54 393.79 638.43 385.53 600.96 500.47 470.94 558.41 633.13 553.28
00003126 00000045 320.18 140.39 366.81 576.65 478.55 391.91 637.70 381.34 601.57 494.93 475.95 555.14 635.29 547.92
00003127 00000046 320.91 140.11 368.52 575.12 480.39 387.34 638.21 378.08 602.85 494.68 477.64 553.16 634.07 547.31
00003128 00000047 320.94 134.86 369.67 581.79 480.38 385.67 637.90 377.02 604.46 488.93 485.76 557.24 634.99 551.20
00003129 00000048 321.39 130.32 370.68 585.42 484.75 384.50 639.97 374.98 609.44 489.11 493.53 558.95 635.37 552.14
00003130 00000049 322.88 130.64 369.06 584.51 488.49 381.55 642.77 372.52 612.09 488.02 494.63 558.60 635.21 552.29
00003131 00000050 322.76 133.04 370.20 581.35 492.31 378.64 642.01 370.03 612.81 490.28 497.75 557.37 633.85 551.26
00003132 00000051 323.17 129.16 370.14 582.49 495.37 376.30 643.24 367.36 615.84 488.15 498.92 554.73 634.41 548.27
00003133 00000052 322.68 127.22 373.00 584.29 497.41 372.83 646.41 366.36 618.38 486.14 498.36 552.15 634.74 547.64
00003134 00000053 321.12 126.15 375.57 584.81 500.13 372.35 648.15 366.70 620.39 483.89 499.79 550.51 635.11 546.42
00003135 00000054 319.92 127.36 378.21 583.51 501.73 369.67 649.88 365.94 622.38 483.64 499.12 549.52 634.94 547.13
00003136 00000055 320.94 122.34 374.10 590.85 499.26 368.85 646.81 367.49 619.80 481.41 495.58 548.01 633.48 547.64
00003137 00000056 320.57 126.51 374.51 586.18 498.84 368.42 646.88 367.12 619.51 480.77 493.49 547.71 633.94 547.44
00003138 00000057 319.29 126.29 374.26 590.29 497.39 366.77 644.33 368.71 617.34 481.04 487.71 545.99 630.46 548.41
00003139 00000058 318.09 126.99 374.62 592.48 495.15 365.73 642.43 367.78 615.19 484.58 480.36 541.96 630.35 545.07
00003140 00000059 317.19 125.47 373.53 594.84 493.64 364.94 640.78 368.04 614.35 481.35 478.19 540.72 628.82 544.55
00003141 00000060 316.20 125.49 375.03 594.04 495.30 364.67 641.32 367.28 616.13 482.64 478.72 539.25 630.43 542.78
00003142 00000061 316.62 125.62 374.20 594.01 494.60 364.82 641.62 367.84 617.13 478.40 478.57 540.34 629.13 544.27
00003143 00000062 317.89 126.28 374.99 592.21 496.87 366.37 645.23 369.03 619.88 479.68 479.68 539.26 633.13 542.80
00003144 00000063 320.74 124.72 374.32 591.67 502.74 369.35 650.10 370.58 625.20 480.32 486.38 540.13 636.96 542.11
00003145 00000064 322.50 126.89 375.68 592.38 506.35 370.65 653.13 371.81 629.82 481.31 487.70 541.18 638.51 543.11
00003146 00000065 322.42 124.59 374.41 597.68 509.69 372.58 654.68 369.20 636.48 483.16 488.39 542.02 639.99 540.84
00003147 00000066 325.29 131.07 376.26 593.26 512.60 374.81 655.76 371.50 639.40 483.40 491.26 545.42 639.73 544.17
00003148 00000067 322.65 137.52 381.19 585.65 518.30 369.33 655.52 373.13 638.86 489.29 492.25 540.49 637.03 547.25
00003149 00000068 326.87 133.95 377.77 591.71 517.93 370.14 656.06 377.32 639.86 485.32 493.32 542.77 637.48 551.82
00003150 00000069 328.75 138.05 379.37 588.62 522.40 372.65 656.54 380.33 639.25 492.32 493.76 543.29 635.42 553.20
00003151 00000070 331.42 139.11 377.69 588.78 520.48 375.09 658.51 382.01 638.52 491.88 494.71 545.40 638.92 554.28
00003152 00000071 332.02 139.00 380.76 591.89 522.18 375.60 661.35 381.46 642.68 493.22 496.18 547.65 641.95 555.51
00003153 00000072 336.82 138.35 376.74 593.22 527.72 379.41 659.22 383.45 647.14 495.73 498.84 549.71 638.09 556.57
00003154 00000073 336.43 138.13 378.25 596.33 528.88 381.98 663.81 382.79 651.85 496.43 500.16 552.51 642.94 556.66
00003155 00000074 355.46 137.45 355.10 594.19 533.52 383.30 671.53 378.93 662.27 497.67 504.26 553.12 648.01 556.18
00003156 00000075 357.66 134.02 351.55 597.78 535.31 386.31 672.63 381.70 663.31 500.06 505.98 555.07 646.54 558.30
00003157 00000076 358.82 136.29 355.75 596.95 536.46 384.35 677.01 383.57 663.79 499.41 505.14 554.49 648.73 560.65
00003158 00000077 359.15 138.77 356.49 594.81 536.41 386.81 678.62 386.91 661.27 501.01 506.39 556.06 651.78 562.49
00003159 00000078 359.94 141.75 356.23 594.43 537.80 388.51 679.85 386.88 663.70 504.54 504.06 558.05 650.65 563.57
00003160 00000079 359.89 140.44 358.49 599.57 537.47 391.64 681.87 390.69 663.14 509.14 504.57 561.13 653.07 567.13
00003161 00000080 361.85 142.07 357.20 601.33 536.33 393.02 682.23 393.61 663.79 510.16 505.33 564.32 654.68 571.34
00003162 00000081 360.63 141.25 358.93 604.44 536.30 396.41 683.44 397.00 662.84 514.26 505.33 567.06 655.93 574.19
00003163 00000082 360.48 145.56 357.76 601.96 538.31 399.60 683.31 398.49 664.05 516.81 505.16 569.72 653.99 575.81
00003164 00000083 359.15 145.06 360.44 602.95 537.48 403.16 683.49 399.56 662.10 517.80 506.46 570.61 656.07 574.39
00003165 00000084 358.65 149.15 360.44 600.43 536.63 404.89 683.19 401.43 661.22 519.88 503.70 572.04 654.97 576.26
00003166 00000085 357.91 149.27 359.40 601.07 536.00 405.36 681.99 402.73 660.12 521.31 504.84 571.28 656.61 576.02
00003167 00000086 345.03 147.16 374.36 600.36 534.08 411.05 678.56 406.77 657.67 509.31 500.36 573.22 654.32 571.54
00003168 00000087 343.76 148.64 375.00 595.75 532.64 412.90 678.92 406.16 658.79 512.04 499.70 574.79 653.14 571.51
00003169 00000088 343.66 149.79 375.23 595.56 533.59 414.51 677.86 409.01 658.29 513.55 499.52 575.22 651.97 572.77
00003170 00000089 343.27 148.82 375.54 599.73 531.36 413.48 677.66 408.67 655.77 513.73 497.59 576.20 652.87 574.29
00003171 00000090 342.92 146.33 376.41 601.06 532.51 416.12 677.82 407.40 657.55 519.65 498.08 578.60 651.00 573.74
00003172 00000091 342.77 147.59 375.70 599.64 532.30 416.59 678.83 409.33 657.71 519.27 499.42 580.88 651.46 576.90
00003173 00000092 347.99 162.87 368.39 576.54 534.70 410.95 679.19 400.25 662.52 524.59 501.88 579.56 653.84 575.09
00003174 00000093 345.32 165.56 368.07 574.43 534.09 411.16 678.52 400.88 661.49 524.99 500.32 578.90 652.78 574.95
00003175 00000094 345.38 166.39 367.26 571.90 532.38 411.06 677.83 400.83 659.44 525.25 499.84 579.37 652.61 575.10
00003176 00000095 343.91 166.43 368.31 573.88 530.18 413.04 675.87 401.43 658.13 525.07 497.22 580.69 651.55 575.46
00003177 00000096 327.63 164.32 381.76 584.21 530.94 421.27 669.75 414.00 656.18 536.43 502.53 585.68 644.52 582.97
00003178 00000097 343.64 165.86 367.30 575.02 528.04 414.18 673.85 405.22 654.06 525.54 495.32 578.99 650.28 575.80
00003179 00000098 326.83 168.60 382.25 579.80 528.23 421.43 668.69 415.46 652.66 538.82 499.39 583.90 645.36 582.26
00003180 00000099 326.30 169.55 381.52 580.18 526.26 423.81 666.74 413.88 651.64 540.21 498.72 586.77 644.76 581.90
00003181 00000100 340.82 168.09 364.90 576.98 524.53 418.13 667.88 408.75 647.69 528.15 492.71 578.80 646.43 575.66
00003182 00000101 339.75 169.16 367.19 578.76 523.71 418.25 667.78 408.16 648.53 527.79 490.06 579.45 645.50 576.09
00003183 00000102 325.06 168.78 380.35 582.11 524.69 428.11 663.79 418.27 648.99 546.97 495.41 586.24 643.36 581.76
00003184 00000103 326.83 166.71 379.44 586.08 521.41 427.42 661.89 416.94 645.74 547.15 493.16 586.62 644.08 581.39
00003185 00000104 322.90 170.79 380.07 580.10 520.86 429.05 660.29 420.01 643.85 547.75 493.57 587.61 640.88 583.40
00003186 00000105 320.77 167.74 381.77 584.03 517.75 428.55 658.76 420.25 641.22 548.19 492.70 589.32 638.92 585.45
00003187 00000106 319.20 166.91 381.72 584.83 513.74 429.90 655.96 421.05 637.16 548.44 492.28 590.42 638.19 585.77
00003188 00000107 318.05 170.75 381.55 580.64 513.73 430.52 655.01 420.17 637.03 549.73 489.67 589.89 636.51 584.54
CROP_BBOX: 102 0 993 886
