Video ID: 	0qlFq9B88UY
H: 	1080
W: 	1920
FPS: 	25.0

FRAME INDEX X0 Y0 W H [Landmarks (5 Points)]

00000845 00000000 813.95 203.74 470.01 705.29 961.74 469.62 1183.52 471.85 1087.85 607.03 974.30 719.68 1173.65 720.71
00000846 00000001 814.08 203.43 470.04 706.34 960.13 468.08 1182.40 471.08 1085.20 605.00 971.71 719.18 1171.40 720.84
00000847 00000002 813.87 201.60 468.99 710.80 957.63 466.17 1179.81 469.65 1081.26 602.33 968.50 719.21 1168.21 720.98
00000848 00000003 812.77 202.39 468.33 709.97 955.14 465.04 1175.71 467.28 1076.69 599.56 966.98 717.85 1166.33 718.40
00000849 00000004 812.51 199.05 468.72 712.02 953.48 465.62 1175.69 466.94 1076.01 599.85 965.28 716.22 1167.70 716.11
00000850 00000005 813.70 197.99 466.22 707.77 953.13 465.51 1175.06 466.11 1075.16 599.06 967.02 713.88 1169.04 713.27
00000851 00000006 814.83 196.05 463.73 706.17 950.07 465.36 1172.85 465.62 1070.89 597.22 964.41 712.34 1167.67 711.41
00000852 00000007 809.94 197.26 466.05 698.11 933.19 469.79 1156.82 465.30 1050.07 596.04 953.72 712.66 1153.86 707.52
00000853 00000008 803.39 188.85 466.95 701.29 910.48 466.01 1126.21 461.92 1009.25 591.43 931.12 704.27 1122.45 699.81
00000854 DELETE   794.94 181.97 469.26 703.10 883.46 455.45 1089.57 449.97 954.42 582.52 905.89 700.36 1085.96 696.08
00000855 00000010 781.26 180.09 472.49 694.95 854.86 451.31 1068.48 440.50 925.56 580.96 890.75 699.75 1067.92 690.35
00000856 00000011 778.97 175.72 472.16 693.31 849.07 450.39 1062.77 432.71 918.91 573.04 885.81 696.17 1066.60 680.48
00000857 00000012 777.75 173.30 472.64 696.13 850.26 449.59 1063.05 428.83 919.43 568.01 886.69 691.77 1069.56 673.15
00000858 00000013 777.65 171.73 472.66 693.77 849.45 447.20 1060.66 426.13 916.51 562.95 884.28 688.55 1067.32 669.68
00000859 00000014 777.19 169.41 473.66 696.57 848.78 444.05 1059.04 422.74 914.77 559.86 883.11 688.45 1063.92 669.66
00000860 00000015 775.93 170.27 477.20 700.15 848.97 442.62 1060.11 420.44 915.90 558.59 884.93 688.42 1066.94 668.75
00000861 00000016 778.57 171.73 475.88 697.48 850.81 442.43 1062.37 421.80 918.15 560.24 887.25 688.70 1069.60 670.21
00000862 00000017 780.89 171.42 476.84 696.82 853.13 440.15 1064.77 422.17 920.76 560.56 887.96 687.06 1070.16 671.01
00000863 00000018 783.52 170.29 474.20 694.56 853.93 439.51 1065.38 421.65 921.20 557.99 886.68 684.94 1069.40 669.13
00000864 00000019 783.41 167.27 476.34 696.38 854.67 438.07 1066.42 420.53 920.80 555.78 886.50 682.34 1069.07 666.91
00000865 00000020 784.04 164.52 477.00 696.62 855.31 436.64 1066.71 418.44 921.14 553.82 886.99 681.55 1068.41 665.77
00000866 00000021 782.89 163.30 480.20 697.82 854.53 435.22 1067.28 417.69 921.38 552.33 885.61 680.67 1067.93 665.61
00000867 00000022 779.77 160.93 482.39 694.39 850.98 433.79 1069.91 418.34 923.05 556.59 884.16 687.82 1062.34 675.07
00000868 00000023 780.63 160.41 481.29 692.26 852.23 431.34 1068.60 418.05 922.98 557.24 884.43 688.64 1055.80 678.27
00000869 00000024 783.35 159.84 477.70 697.37 853.82 429.67 1067.57 414.17 922.14 553.58 888.54 691.40 1056.05 679.19
00000870 00000025 783.27 158.07 478.43 701.05 854.90 428.29 1066.00 412.44 921.39 549.21 888.25 687.38 1057.37 674.88
00000871 00000026 780.76 155.05 481.04 705.76 854.89 423.85 1064.11 408.49 919.10 543.35 883.81 679.66 1055.08 667.72
00000872 00000027 777.89 153.22 481.59 703.82 853.48 425.26 1061.98 411.49 917.03 543.65 880.40 676.83 1052.78 666.11
00000873 00000028 782.35 155.91 476.90 693.70 856.79 438.78 1062.48 429.80 916.78 547.17 877.45 680.89 1048.48 673.82
00000874 00000029 784.25 160.84 473.71 688.73 858.51 439.48 1066.60 435.18 919.36 552.68 877.85 683.21 1046.48 680.32
00000875 00000030 788.36 159.85 471.43 691.57 861.86 436.97 1073.00 432.73 927.88 557.11 884.58 683.51 1054.48 680.86
00000876 00000031 791.55 160.06 469.35 695.43 861.54 435.66 1073.39 426.19 929.65 557.81 887.82 683.44 1065.74 675.97
00000877 00000032 786.56 161.10 475.38 702.52 859.55 433.12 1069.35 422.87 922.60 555.70 885.29 680.93 1064.86 672.47
00000878 00000033 780.53 162.33 476.01 699.52 853.24 432.19 1064.83 421.42 917.92 555.26 879.97 680.83 1060.62 671.78
00000879 00000034 778.77 160.59 478.96 701.07 851.72 432.15 1063.94 420.34 916.79 554.00 878.12 680.81 1059.92 670.91
00000880 00000035 778.37 163.18 480.23 702.63 852.36 431.72 1065.77 419.13 919.32 554.29 880.39 682.87 1062.57 672.36
00000881 00000036 777.85 160.56 481.81 701.41 851.86 432.33 1068.00 420.31 922.37 555.98 879.87 684.03 1061.13 674.25
00000882 00000037 775.64 157.83 481.65 699.59 849.49 429.75 1068.35 420.15 921.56 557.12 875.99 682.91 1057.01 675.44
00000883 00000038 776.05 155.72 480.08 697.58 848.49 429.01 1066.57 420.75 918.58 555.76 872.65 682.20 1052.02 675.97
00000884 00000039 776.07 156.64 478.87 701.32 846.74 428.31 1065.41 419.35 916.91 554.07 870.97 681.50 1055.30 674.23
00000885 00000040 775.48 156.75 479.08 708.58 848.89 427.57 1063.77 417.83 913.59 551.04 872.64 680.16 1056.88 672.03
00000886 00000041 775.09 154.38 479.73 712.56 848.61 425.94 1063.81 415.78 913.44 549.75 871.98 678.97 1057.75 670.39
00000887 00000042 775.20 151.04 479.57 709.78 847.11 424.05 1063.74 413.99 914.01 550.29 872.56 681.25 1055.11 672.99
00000888 00000043 773.71 147.34 479.96 709.61 845.83 423.17 1063.75 414.90 912.28 549.57 867.76 679.63 1050.64 673.14
00000889 00000044 772.25 148.54 480.65 703.64 844.53 423.83 1063.05 415.66 912.34 550.56 866.52 678.37 1049.85 672.05
00000890 00000045 772.31 150.55 481.00 704.10 844.56 424.60 1061.96 415.78 911.70 551.24 867.66 677.52 1053.52 670.32
00000891 00000046 772.87 155.25 479.44 709.54 846.06 425.53 1061.73 415.57 910.84 549.57 868.21 677.99 1056.84 669.43
00000892 00000047 773.91 155.77 479.45 711.37 847.88 426.55 1062.39 416.37 911.91 549.66 869.46 676.63 1058.73 667.88
00000893 00000048 775.34 152.68 478.63 710.40 848.45 423.77 1063.20 415.61 911.61 547.74 868.12 671.72 1059.57 664.76
00000894 00000049 775.03 149.94 478.38 707.86 848.73 422.60 1063.04 416.21 910.36 546.11 865.83 668.81 1057.22 663.45
00000895 00000050 772.68 148.12 481.91 705.63 847.99 422.83 1062.32 416.83 910.45 547.00 866.50 668.92 1054.51 664.21
00000896 00000051 771.24 148.88 482.26 704.90 846.55 423.02 1061.59 415.77 911.27 548.28 867.24 671.65 1051.95 665.91
00000897 00000052 769.99 152.18 482.06 708.48 845.29 424.79 1061.73 415.53 911.67 550.85 868.93 677.46 1055.55 669.59
00000898 00000053 768.49 153.71 482.59 712.83 846.01 426.67 1062.79 418.46 914.01 552.80 869.27 680.92 1053.84 673.99
00000899 00000054 768.07 157.59 481.80 710.51 845.71 429.53 1064.90 420.63 916.91 556.23 869.45 683.55 1055.80 676.00
00000900 00000055 765.19 159.59 482.20 713.96 850.55 439.19 1067.70 434.94 923.29 559.83 868.92 685.07 1055.03 681.42
00000901 00000056 763.09 163.21 485.26 711.03 858.69 449.58 1074.77 448.96 932.85 565.11 875.25 686.53 1063.19 685.57
00000902 00000057 762.60 167.91 474.78 709.47 863.40 447.25 1083.16 450.65 947.00 567.03 878.28 691.36 1071.65 691.88
00000903 00000058 762.14 171.40 475.74 707.03 870.11 448.40 1093.48 452.39 962.59 573.04 885.89 695.26 1077.53 696.51
00000904 00000059 762.93 174.32 478.01 708.66 875.78 452.97 1101.63 454.06 976.12 577.35 896.19 701.85 1086.72 700.83
00000905 00000060 762.94 180.85 476.88 707.30 879.59 457.61 1106.42 456.51 984.18 581.95 902.15 707.53 1092.99 704.67
00000906 00000061 761.71 185.11 475.83 710.90 880.62 459.44 1109.21 457.49 989.09 588.10 905.05 715.62 1094.97 712.12
00000907 00000062 758.82 187.67 474.93 712.83 880.88 462.54 1111.30 458.76 995.44 593.10 907.44 720.66 1098.42 715.88
00000908 00000063 758.03 190.82 473.32 712.83 882.91 463.04 1113.64 459.71 1000.22 594.95 907.94 721.52 1101.76 716.94
00000909 00000064 758.34 193.41 471.38 711.84 886.09 464.09 1115.26 461.53 1005.68 595.87 911.09 722.08 1104.37 717.93
00000910 00000065 757.86 197.52 471.13 709.39 888.61 464.25 1117.36 460.46 1011.22 597.35 916.23 725.20 1106.64 719.74
00000911 00000066 757.58 201.72 472.23 709.90 891.31 465.34 1118.04 461.84 1015.32 600.37 920.74 728.79 1107.83 723.24
00000912 00000067 756.85 201.15 474.00 717.51 897.82 471.12 1121.45 468.39 1023.25 604.05 923.39 729.96 1114.76 725.16
00000913 00000068 757.73 203.18 473.41 715.12 903.32 475.77 1123.62 474.23 1029.73 607.98 926.19 730.68 1117.21 727.14
00000914 00000069 759.53 208.12 473.05 707.34 906.93 482.27 1126.12 480.55 1033.48 613.38 930.37 733.46 1119.01 730.14
00000915 00000070 754.78 212.15 474.51 707.15 907.21 486.16 1128.68 475.53 1041.06 618.01 936.28 738.07 1118.47 726.96
00000916 00000071 752.55 224.22 472.62 697.12 905.43 489.81 1127.82 476.23 1042.61 622.02 939.92 743.54 1119.64 730.02
00000917 00000072 748.41 227.78 472.38 693.78 901.45 493.35 1125.31 478.68 1040.40 624.68 937.81 746.25 1119.46 731.84
00000918 00000073 745.66 220.99 477.59 694.87 900.23 494.37 1122.14 485.49 1035.89 630.54 932.70 745.41 1119.45 737.10
00000919 00000074 745.59 219.79 477.84 695.48 898.11 494.27 1120.91 485.88 1032.93 628.87 930.19 744.35 1118.10 736.46
00000920 00000075 749.89 219.00 475.24 696.91 898.60 492.44 1120.86 484.80 1031.29 626.52 931.53 743.77 1117.84 736.04
00000921 00000076 755.01 218.94 474.16 698.83 900.10 489.55 1121.58 481.92 1031.31 621.26 933.93 741.90 1120.32 733.72
00000922 00000077 761.77 216.15 472.19 698.84 902.93 487.79 1124.16 479.73 1030.75 617.26 934.92 738.85 1121.38 730.20
00000923 00000078 763.69 207.99 471.07 705.70 901.62 483.49 1122.48 477.54 1027.12 615.61 928.31 730.01 1125.33 724.66
00000924 00000079 767.74 205.84 472.19 704.14 901.54 481.43 1122.80 472.28 1026.39 613.81 932.39 727.88 1127.81 720.00
00000925 00000080 776.44 202.21 470.05 705.71 902.15 479.54 1123.73 466.34 1025.18 610.16 936.47 728.96 1129.72 717.76
00000926 00000081 784.46 199.81 469.33 707.65 902.43 481.09 1124.30 465.22 1021.68 609.86 940.98 730.51 1132.75 716.73
00000927 00000082 786.91 192.38 479.59 712.30 904.84 481.90 1125.03 466.19 1021.58 605.29 949.49 730.82 1130.38 717.45
00000928 00000083 786.98 185.77 488.47 720.28 899.80 467.71 1120.17 451.82 1011.23 604.15 949.29 729.95 1126.13 716.60
00000929 00000084 793.20 188.56 483.79 709.22 889.64 465.40 1113.32 445.68 994.03 600.67 939.38 724.30 1119.63 707.56
00000930 00000085 802.33 189.10 481.61 709.32 891.55 464.21 1113.98 445.54 989.87 599.97 939.83 722.91 1119.93 707.03
00000931 00000086 809.15 186.59 488.98 716.63 901.97 461.98 1120.17 444.63 988.39 596.90 944.34 721.52 1127.57 705.59
00000932 00000087 819.87 184.85 487.74 720.28 907.22 456.80 1123.80 442.25 988.00 592.78 946.50 719.50 1127.88 705.96
00000933 00000088 827.04 179.26 483.08 720.44 909.80 456.71 1127.41 446.18 991.19 597.04 947.03 720.30 1121.32 711.93
00000934 00000089 831.84 177.69 483.84 710.12 911.26 454.56 1129.88 446.22 991.05 594.50 947.08 714.27 1124.16 707.58
00000935 00000090 834.67 178.80 488.72 699.78 913.26 458.58 1133.83 446.49 991.67 593.00 953.90 710.28 1132.62 699.94
00000936 00000091 838.72 177.42 484.73 703.50 919.43 452.81 1136.65 443.62 993.55 587.83 955.86 707.38 1132.03 699.74
00000937 00000092 846.39 179.67 478.99 699.57 920.64 450.03 1138.49 440.03 994.97 585.85 958.86 706.34 1135.39 698.00
00000938 00000093 854.04 179.97 476.54 694.74 923.77 447.19 1142.08 438.96 997.38 583.91 961.40 702.73 1139.20 695.78
00000939 00000094 857.31 178.50 478.49 693.48 926.93 445.52 1145.19 437.33 1000.84 581.85 963.46 699.80 1141.90 692.98
00000940 00000095 859.69 178.51 476.24 693.08 928.95 444.26 1147.50 437.15 1002.80 581.48 964.33 698.63 1143.42 692.82
00000941 00000096 862.77 178.27 474.45 692.77 930.58 445.26 1148.83 438.57 1003.94 580.87 963.81 699.07 1142.07 693.88
00000942 00000097 862.34 177.12 475.62 697.18 936.74 444.22 1146.64 440.00 1004.10 580.42 961.81 696.57 1141.44 693.54
00000943 00000098 863.66 179.32 474.11 688.55 930.17 445.54 1146.20 439.40 1003.02 582.06 964.82 702.28 1133.10 698.16
00000944 00000099 863.25 179.95 474.07 691.97 929.94 445.83 1145.62 439.25 1003.14 581.67 964.64 703.98 1131.89 699.52
00000945 00000100 862.75 180.64 474.38 690.08 929.40 446.43 1145.18 438.92 1002.76 580.64 964.53 703.46 1131.67 698.18
00000946 00000101 862.56 182.25 473.66 691.05 929.56 445.75 1144.09 437.90 1001.32 579.57 964.15 702.44 1132.39 696.73
00000947 00000102 863.53 183.11 471.31 691.00 929.70 445.58 1143.98 436.24 999.39 576.26 963.80 701.71 1135.06 694.28
00000948 00000103 862.63 183.07 469.93 688.48 929.21 445.94 1143.15 435.79 999.46 575.31 963.86 699.58 1135.75 691.21
00000949 00000104 861.17 182.93 469.06 685.67 927.67 446.81 1141.09 435.15 997.53 572.47 962.94 698.64 1134.30 688.88
00000950 00000105 860.87 183.79 467.22 687.54 927.57 446.71 1140.88 434.73 997.48 572.81 963.32 699.41 1134.25 689.33
00000951 00000106 862.41 184.84 466.21 686.50 928.49 448.15 1140.94 438.29 997.04 575.69 963.04 699.80 1134.16 691.45
00000952 00000107 863.11 185.49 466.86 681.88 929.19 448.24 1141.91 440.45 997.74 578.10 963.31 699.92 1134.52 693.51
00000953 00000108 863.91 184.81 463.70 678.83 935.24 455.50 1147.50 453.80 1003.61 579.91 961.71 697.84 1135.39 696.67
00000954 00000109 861.84 184.64 464.55 676.75 940.43 459.12 1151.87 460.22 1009.49 578.85 962.93 695.69 1136.09 697.05
00000955 00000110 859.53 184.88 464.96 681.50 942.82 455.92 1158.15 458.74 1018.24 580.54 963.57 696.03 1138.74 699.20
00000956 00000111 862.88 185.23 464.93 684.75 952.13 454.84 1160.75 455.26 1026.37 579.52 967.83 695.78 1143.74 696.76
00000957 00000112 860.50 180.82 463.56 690.83 950.53 453.49 1169.51 459.95 1034.86 584.32 971.33 699.03 1143.62 705.21
00000958 00000113 860.73 181.76 462.23 684.58 954.06 452.75 1173.29 462.00 1039.88 585.37 973.15 696.70 1144.55 705.18
00000959 00000114 856.35 180.38 466.00 690.27 956.79 452.36 1177.88 463.40 1046.94 587.31 974.55 697.91 1147.92 707.64
00000960 00000115 852.37 180.72 460.60 695.36 965.83 450.27 1183.23 460.16 1056.12 579.02 977.01 698.07 1152.90 704.63
00000961 00000116 847.54 181.14 458.14 703.89 969.98 453.77 1184.13 461.86 1066.25 583.37 981.70 703.80 1157.83 708.26
00000962 00000117 842.49 186.20 460.33 705.38 971.18 454.97 1185.74 462.42 1071.84 588.25 984.82 708.63 1161.76 712.30
00000963 00000118 838.22 190.53 458.54 704.87 971.81 456.45 1185.76 465.12 1076.90 592.82 984.39 710.71 1162.58 715.52
00000964 00000119 833.64 195.08 458.22 704.65 970.56 458.46 1186.35 468.16 1081.97 596.71 980.70 714.16 1163.43 720.10
00000965 00000120 830.75 198.29 458.89 701.73 970.13 461.40 1188.30 470.23 1086.29 602.00 981.25 716.99 1165.94 722.42
00000966 00000121 826.01 200.52 461.52 696.99 973.41 464.49 1191.33 475.68 1090.88 605.28 982.85 717.53 1166.14 725.26
00000967 00000122 818.96 202.54 465.02 695.58 975.90 466.60 1193.33 478.75 1098.88 611.20 982.36 718.65 1168.60 727.82
00000968 00000123 811.79 206.63 467.68 690.04 975.89 468.09 1193.01 482.41 1101.09 613.69 982.81 719.40 1166.70 730.57
00000969 00000124 805.89 213.49 469.14 677.44 971.71 472.46 1190.71 485.79 1100.11 619.84 980.89 721.98 1164.51 732.71
00000970 00000125 802.16 216.04 467.96 674.84 968.09 475.37 1185.37 487.67 1097.07 623.14 976.48 722.85 1159.90 733.06
00000971 00000126 786.49 220.75 475.87 669.53 957.51 478.24 1178.15 488.78 1089.19 622.93 970.37 721.57 1155.38 730.14
00000972 00000127 778.98 216.47 470.25 673.62 949.57 479.99 1165.64 488.03 1079.60 622.72 966.04 720.88 1145.87 727.15
00000973 00000128 772.72 212.90 465.60 682.28 938.12 479.54 1152.60 484.32 1070.09 619.70 957.92 722.98 1139.20 726.59
00000974 00000129 769.88 210.52 462.73 692.33 928.96 478.00 1140.10 480.50 1057.69 613.43 948.49 725.16 1127.60 727.14
00000975 00000130 770.80 205.98 461.44 698.64 923.77 477.24 1135.02 479.12 1050.66 612.07 944.61 724.82 1123.81 726.26
00000976 00000131 767.79 200.90 464.75 701.68 913.50 475.72 1128.49 475.55 1039.69 611.79 938.20 725.30 1120.75 724.66
00000977 00000132 766.66 204.70 463.46 696.65 905.44 478.21 1124.62 471.83 1029.30 611.77 935.91 728.88 1115.92 721.37
00000978 00000133 766.91 202.64 462.23 695.41 894.22 475.93 1115.59 467.08 1012.82 607.00 928.29 727.96 1107.85 718.30
00000979 DELETE   770.56 190.36 463.77 710.96 887.64 474.27 1104.50 470.33 992.97 603.77 916.30 722.89 1096.95 719.67
00000980 00000135 769.39 195.59 468.65 700.41 875.26 468.79 1093.22 461.58 973.66 599.19 909.33 719.95 1089.23 712.13
00000981 00000136 777.50 190.03 477.82 693.38 872.00 459.16 1079.49 448.38 952.96 590.62 904.37 709.27 1082.18 700.16
00000982 00000137 783.09 188.15 477.07 689.97 873.18 457.63 1079.59 446.03 949.30 587.06 907.91 706.80 1082.58 697.13
00000983 00000138 797.48 183.80 469.76 691.90 880.53 457.74 1083.50 444.76 950.82 583.59 915.09 703.99 1087.93 692.87
00000984 00000139 806.85 181.47 466.30 691.54 888.26 456.13 1091.26 444.02 958.46 581.05 921.75 699.90 1093.83 689.40
00000985 00000140 815.58 180.58 465.91 683.80 893.56 454.20 1105.53 442.77 969.49 583.74 929.22 699.15 1098.13 689.68
00000986 00000141 828.82 178.64 464.38 687.46 903.85 447.80 1116.39 439.17 979.38 580.69 937.82 698.59 1104.16 692.02
00000987 00000142 838.78 172.80 462.94 696.80 912.04 443.30 1125.81 434.60 987.37 575.45 946.16 704.38 1110.19 698.07
00000988 00000143 837.67 172.45 474.96 696.46 917.94 443.00 1134.02 429.58 993.00 567.20 957.02 702.76 1124.25 691.80
00000989 00000144 842.26 173.54 475.31 694.40 922.34 443.52 1138.13 428.12 997.20 564.67 959.12 696.66 1133.76 683.59
00000990 00000145 847.22 173.51 474.99 689.73 926.00 441.54 1142.00 427.99 1001.64 563.76 959.85 692.09 1134.74 680.81
00000991 00000146 852.12 169.73 474.46 688.25 926.27 440.40 1145.53 430.21 1003.90 566.89 959.04 693.42 1131.06 685.53
00000992 00000147 855.89 169.35 471.33 687.65 927.41 440.23 1146.08 431.20 1004.17 568.99 959.81 694.36 1129.85 687.63
00000993 00000148 858.21 170.72 470.16 686.89 927.79 440.75 1145.99 430.61 1004.11 568.96 962.65 697.55 1130.33 689.81
00000994 00000149 858.30 173.21 470.80 691.22 927.85 442.21 1145.98 430.66 1003.27 569.17 962.01 697.18 1135.51 687.96
00000995 00000150 857.26 175.45 472.10 688.61 927.98 442.26 1145.76 431.18 1003.60 569.37 959.62 692.77 1138.32 683.54
00000996 00000151 857.61 174.64 471.60 691.72 927.89 442.53 1144.95 430.86 1002.90 568.74 958.93 691.14 1139.49 681.28
00000997 00000152 856.73 174.61 471.48 690.70 927.72 443.34 1144.43 433.59 1000.79 569.10 957.56 690.95 1137.06 682.70
00000998 00000153 855.27 175.99 470.33 687.07 926.23 444.51 1142.29 438.26 998.94 572.73 954.97 691.62 1132.52 686.49
00000999 00000154 852.07 176.13 471.54 688.39 925.02 445.21 1140.23 441.99 994.70 574.79 951.59 694.21 1124.34 692.07
00001000 00000155 846.60 175.32 471.50 689.34 920.40 447.17 1134.95 442.69 988.84 574.07 946.13 695.13 1118.91 692.02
00001001 00000156 841.17 174.51 471.63 690.06 914.05 447.93 1129.85 443.53 982.89 575.00 938.98 695.75 1114.44 692.63
00001002 00000157 835.87 174.77 467.70 703.83 905.55 443.89 1119.29 442.76 974.54 577.25 927.40 695.46 1105.54 694.85
00001003 00000158 832.64 175.72 467.52 704.33 902.29 446.73 1116.49 444.16 973.34 579.46 925.16 697.31 1103.85 695.60
00001004 00000159 833.46 176.41 466.17 706.44 906.88 449.49 1120.50 449.44 977.27 581.78 926.73 700.67 1104.92 701.05
00001005 00000160 831.59 182.97 466.46 693.12 915.22 461.13 1127.82 461.43 988.22 584.82 936.46 700.78 1114.45 701.75
00001006 00000161 830.53 188.61 464.67 693.64 922.56 465.21 1134.93 466.93 1001.78 581.45 939.08 702.79 1125.94 702.52
00001007 00000162 826.18 189.46 467.76 694.55 923.80 468.25 1147.79 467.48 1021.54 586.44 947.99 715.35 1134.54 713.02
00001008 00000163 823.16 192.36 462.45 694.77 925.29 468.74 1149.66 462.01 1031.01 593.28 955.13 722.41 1141.54 715.06
00001009 00000164 814.56 192.96 465.04 699.63 917.69 470.26 1143.81 455.38 1031.18 597.53 958.95 727.90 1143.86 714.32
00001010 00000165 802.47 200.22 471.77 698.22 909.43 477.64 1135.61 455.60 1026.48 602.58 955.20 730.82 1145.33 711.62
00001011 00000166 791.56 201.02 472.08 699.72 901.84 482.03 1126.55 458.69 1021.05 608.10 949.79 734.22 1141.41 714.05
