Video ID: 	Ui4ea6s4r8o
H: 	1080
W: 	1920
FPS: 	25.0

FRAME INDEX X0 Y0 W H [Landmarks (5 Points)]

00002544 00000000 831.11 105.94 405.88 569.90 860.69 329.87 998.92 286.53 836.74 385.47 876.37 525.12 1018.58 488.95
00002545 DELETE   825.56 105.68 403.76 585.26 861.19 337.11 989.30 296.48 827.77 396.22 877.41 535.72 1014.38 499.99
00002546 DELETE   827.71 116.11 403.62 590.41 857.87 349.29 984.07 312.12 822.60 418.43 882.01 550.49 1017.62 516.01
00002547 00000003 838.52 127.19 416.35 609.64 884.26 377.14 992.08 335.77 842.05 443.32 910.45 576.18 1023.06 536.60
00002548 00000004 848.07 158.52 399.92 605.01 871.76 403.22 990.39 361.48 849.48 471.68 908.00 606.49 1031.72 570.09
00002549 00000005 840.30 167.99 426.43 604.46 882.54 427.70 1002.62 380.02 853.59 493.32 924.60 624.89 1043.84 580.65
00002550 00000006 843.74 179.01 429.29 610.43 888.09 437.61 1015.75 386.22 865.18 502.38 929.95 639.40 1055.32 592.91
00002551 00000007 852.28 182.74 422.49 614.42 897.14 437.31 1025.58 387.72 872.35 501.39 936.76 646.87 1060.75 602.14
00002552 00000008 858.02 187.92 418.17 608.19 902.55 438.97 1031.98 391.43 877.53 503.41 939.34 646.74 1062.44 604.20
00002553 00000009 868.10 198.35 409.05 593.97 913.51 437.77 1037.36 395.42 883.84 504.48 941.33 643.59 1058.49 605.93
00002554 00000010 873.79 198.67 405.95 594.29 919.65 436.43 1042.90 397.56 888.81 506.92 943.86 642.70 1061.23 607.69
00002555 00000011 876.41 201.64 406.44 591.01 922.10 437.31 1046.87 399.87 891.11 507.29 944.74 642.78 1063.19 608.60
00002556 00000012 879.17 206.50 406.40 585.61 924.08 440.27 1049.48 406.36 894.69 511.20 947.34 639.88 1068.92 608.11
00002557 00000013 888.86 200.33 404.84 599.79 934.62 443.87 1044.71 409.88 897.60 508.78 955.19 639.86 1069.49 607.73
00002558 00000014 890.88 202.00 407.08 602.79 937.74 444.12 1049.91 413.84 900.81 513.13 955.42 642.75 1071.36 613.63
00002559 00000015 890.60 200.19 409.46 609.86 938.12 443.94 1052.88 413.63 903.43 510.86 953.17 643.92 1071.05 614.88
00002560 00000016 885.30 194.17 412.58 619.72 933.65 443.32 1055.12 406.47 904.34 504.61 953.32 643.45 1076.81 608.73
00002561 00000017 884.19 191.62 407.63 613.81 928.59 442.27 1052.91 402.56 901.22 500.26 952.34 639.69 1077.76 602.77
00002562 00000018 874.97 198.84 405.60 593.15 920.55 435.47 1052.66 402.43 899.30 504.41 941.63 632.53 1073.67 602.14
00002563 00000019 868.86 197.68 409.95 592.31 916.36 432.81 1050.74 396.26 892.10 498.00 936.63 633.87 1067.43 600.69
00002564 00000020 862.78 197.05 407.93 588.41 910.87 432.06 1044.21 396.37 887.51 496.36 933.65 632.18 1062.51 600.10
00002565 00000021 862.52 194.16 403.05 588.12 911.83 431.24 1040.75 401.33 884.52 497.42 932.26 627.01 1060.03 599.31
00002566 00000022 857.44 195.69 408.82 587.48 905.53 436.71 1036.86 401.28 882.50 499.80 930.63 631.55 1060.29 599.00
00002567 00000023 854.04 196.67 415.27 589.40 901.74 442.88 1036.59 401.19 881.50 500.83 928.67 638.28 1059.75 600.37
00002568 00000024 852.34 197.04 418.49 592.28 898.76 444.33 1036.85 402.13 880.26 502.23 924.52 641.86 1058.33 603.56
00002569 00000025 852.93 194.25 421.18 597.61 897.06 450.30 1034.05 400.31 877.34 504.61 926.60 647.50 1059.21 602.54
00002570 00000026 864.75 198.32 410.46 595.44 894.62 452.96 1021.80 403.24 869.60 505.89 931.44 641.68 1062.81 597.51
00002571 00000027 863.05 200.20 412.44 598.91 891.18 455.68 1021.91 404.07 871.58 508.27 931.31 643.89 1066.48 598.22
00002572 00000028 859.11 203.29 415.34 596.54 887.27 457.40 1021.01 403.92 872.69 509.47 929.69 644.27 1069.38 597.05
00002573 00000029 856.55 197.76 417.54 599.93 887.29 458.59 1022.06 401.44 873.89 508.26 931.26 643.72 1071.79 593.50
00002574 00000030 842.85 199.05 429.23 596.79 885.59 455.81 1034.49 393.53 883.16 508.45 928.01 646.46 1075.94 591.12
00002575 00000031 835.99 192.87 433.54 592.76 879.24 452.11 1027.90 389.27 876.90 502.30 920.52 640.61 1065.85 585.04
00002576 00000032 831.50 187.14 436.39 592.55 876.38 441.35 1022.15 385.07 868.06 496.51 909.37 634.52 1053.26 584.47
00002577 00000033 824.29 177.93 438.86 598.26 866.73 440.19 1015.30 384.92 861.00 494.85 900.27 632.14 1047.16 582.50
00002578 00000034 817.28 186.28 416.77 594.08 842.21 444.82 997.24 386.41 844.46 495.01 880.23 628.71 1042.15 577.88
00002579 00000035 812.51 179.89 435.42 600.37 850.91 446.23 998.46 383.85 842.83 493.92 892.63 635.90 1040.70 580.17
00002580 00000036 806.32 186.37 433.13 592.27 845.12 454.97 991.14 386.37 841.06 495.51 890.25 637.40 1035.92 576.92
00002581 00000037 802.28 190.11 435.57 590.22 840.53 460.75 984.92 386.80 837.44 499.03 890.20 641.47 1033.95 576.46
00002582 00000038 801.32 190.96 434.30 590.59 838.84 460.35 982.27 386.71 836.33 500.42 889.19 641.73 1032.38 576.84
00002583 00000039 800.52 190.08 435.85 591.67 837.87 459.34 980.49 385.78 834.91 498.76 887.64 641.03 1030.26 576.34
00002584 00000040 799.77 188.77 435.05 590.26 837.23 457.62 980.73 386.04 835.19 497.59 885.71 639.60 1028.73 576.76
00002585 00000041 799.56 187.86 434.18 593.20 835.80 457.35 981.01 386.21 833.16 500.12 884.19 641.72 1028.50 579.33
00002586 00000042 802.55 192.19 431.52 591.91 838.35 457.80 982.68 389.55 831.86 504.42 886.03 644.44 1028.64 584.33
00002587 00000043 808.07 197.26 428.68 590.16 842.87 458.39 983.14 392.40 831.47 509.97 892.64 648.56 1030.97 589.93
00002588 00000044 810.03 201.87 430.13 590.95 842.71 463.01 985.64 397.03 831.41 515.19 892.23 654.11 1033.20 595.62
00002589 00000045 810.26 198.77 427.89 595.58 843.08 467.37 989.30 400.90 834.98 519.73 891.88 655.62 1037.66 596.79
00002590 00000046 816.56 199.73 425.16 594.52 850.83 456.16 997.59 399.36 844.22 517.64 895.49 650.23 1043.34 599.08
00002591 00000047 819.71 198.41 430.30 598.69 854.99 454.43 1005.13 399.01 852.05 518.36 897.43 651.53 1047.46 601.71
00002592 00000048 823.98 197.16 426.03 596.77 858.67 451.41 1010.73 399.52 856.40 516.24 897.69 648.86 1048.18 602.08
00002593 00000049 826.00 194.21 425.12 600.12 861.94 450.50 1013.58 398.53 858.15 513.23 898.68 649.75 1047.21 603.16
00002594 00000050 825.55 194.93 424.40 594.95 860.07 449.31 1013.95 397.45 857.66 510.95 896.22 648.89 1045.62 602.35
00002595 00000051 824.64 195.11 422.70 584.01 859.16 449.60 1012.90 398.23 856.04 508.46 894.30 647.15 1040.62 601.24
00002596 00000052 820.33 191.34 423.88 582.53 854.68 450.56 1008.98 398.74 854.17 507.06 890.49 646.26 1036.02 600.15
00002597 00000053 817.31 188.31 419.20 588.27 851.59 450.78 1004.06 399.70 852.37 504.36 885.67 646.42 1028.44 601.27
00002598 00000054 813.51 193.18 413.05 574.89 848.54 451.39 996.09 404.05 849.06 502.61 877.93 642.92 1015.11 601.08
00002599 00000055 804.71 205.91 411.14 546.52 827.59 461.72 991.17 410.91 844.29 510.70 865.29 648.27 1015.80 605.26
00002600 00000056 795.02 200.74 422.28 546.74 826.88 455.95 990.83 415.71 843.52 509.64 859.03 641.35 1001.01 607.30
00002601 00000057 794.16 205.16 415.54 545.78 826.34 460.12 983.91 421.15 836.60 509.41 852.98 641.61 991.54 608.18
00002602 00000058 791.37 208.14 415.46 544.93 819.57 463.69 978.37 421.32 830.72 509.72 846.66 644.74 986.46 608.35
00002603 00000059 785.61 210.55 416.39 541.97 812.23 472.17 977.50 421.78 833.75 512.31 843.14 650.92 987.39 608.54
00002604 00000060 781.44 212.96 416.47 538.42 803.95 473.96 970.98 418.14 827.67 512.85 839.47 654.21 983.89 607.60
00002605 00000061 775.79 214.84 417.89 537.25 795.68 478.26 964.50 413.63 821.23 513.18 835.82 657.28 981.93 603.56
00002606 00000062 771.70 217.66 417.55 533.70 790.37 478.21 959.52 409.87 816.95 514.16 835.55 657.97 984.62 600.53
00002607 00000063 769.62 208.25 416.49 545.77 796.11 480.63 955.51 400.84 820.43 512.08 840.22 668.99 998.15 605.61
00002608 00000064 769.64 222.67 416.16 529.51 785.95 489.40 952.74 409.33 816.62 517.91 836.28 663.84 987.91 596.25
00002609 00000065 765.96 225.30 418.25 531.54 784.21 492.42 950.81 408.35 814.29 520.13 837.46 665.59 991.29 594.31
00002610 00000066 764.95 229.71 418.30 529.03 785.15 492.01 949.91 409.65 816.59 521.79 838.10 664.18 991.35 594.09
00002611 00000067 763.97 231.99 418.49 527.33 784.86 493.88 949.70 410.67 815.91 521.67 838.47 664.97 991.59 594.10
00002612 00000068 766.20 232.61 416.62 527.70 785.59 491.57 950.00 419.59 814.76 523.86 832.80 659.73 987.78 597.92
00002613 00000069 767.27 230.71 413.95 525.27 784.81 491.57 948.44 420.92 811.55 522.22 829.51 658.08 984.62 597.32
00002614 00000070 768.71 230.28 411.68 522.68 783.03 491.33 949.00 417.31 811.12 520.28 828.43 659.43 984.80 596.19
00002615 00000071 767.44 230.28 415.34 523.57 781.18 490.79 948.79 412.87 809.23 518.47 828.17 664.14 982.43 598.23
00002616 00000072 763.34 220.72 422.11 544.94 782.36 488.18 948.12 413.49 811.84 523.37 831.15 674.86 995.96 614.89
00002617 00000073 757.89 235.22 437.33 535.48 792.19 481.13 955.56 413.34 810.20 525.06 838.97 666.96 978.23 608.32
00002618 00000074 756.15 240.44 437.23 544.28 792.39 483.12 950.64 415.24 808.29 532.85 843.62 669.88 982.87 611.03
00002619 00000075 758.57 244.96 431.66 547.02 792.56 489.69 945.34 413.26 806.89 538.43 851.60 676.50 988.48 610.42
00002620 00000076 758.35 245.72 430.93 548.41 792.55 492.68 943.20 413.19 806.06 539.93 852.69 677.57 989.51 608.90
00002621 00000077 759.24 245.65 429.48 546.56 793.47 489.86 943.80 411.63 806.67 539.56 853.55 674.93 990.80 607.24
00002622 00000078 759.81 240.39 429.19 549.46 793.86 487.50 943.92 409.94 807.10 534.42 851.22 671.44 988.87 604.31
00002623 00000079 760.27 239.35 428.33 546.97 792.58 489.04 943.96 408.14 804.35 527.37 847.89 673.27 983.16 603.62
00002624 00000080 760.88 240.49 426.10 544.11 791.64 486.55 939.72 405.79 800.43 525.00 845.80 669.94 980.31 600.20
00002625 00000081 760.24 238.83 426.34 546.47 788.89 491.35 936.36 406.22 795.65 523.24 843.65 673.32 976.27 600.03
00002626 00000082 760.92 238.24 423.78 538.91 788.94 488.00 936.44 408.57 796.02 521.19 837.92 668.10 968.50 599.66
00002627 00000083 763.65 236.31 408.79 532.87 782.39 491.90 934.99 419.06 800.56 532.80 831.86 672.23 982.57 613.98
00002628 00000084 764.56 238.06 409.67 525.28 781.31 493.59 937.24 420.63 799.18 532.06 832.34 674.29 981.67 616.32
00002629 00000085 765.58 239.90 408.17 523.90 781.87 496.15 938.70 422.80 800.43 532.39 832.37 676.58 982.48 618.48
00002630 00000086 770.27 238.70 406.27 533.17 783.87 493.29 940.22 420.28 801.10 531.45 832.31 677.28 984.36 619.01
00002631 00000087 768.15 236.12 420.38 547.68 796.95 477.82 946.45 413.04 801.55 523.45 842.14 666.89 974.59 610.45
00002632 00000088 768.21 235.77 423.85 546.84 798.80 477.72 948.31 412.30 802.52 522.20 845.06 666.43 977.79 609.21
00002633 00000089 770.89 230.82 419.49 546.01 801.42 473.39 949.94 413.54 805.29 520.45 843.24 661.74 974.96 609.36
00002634 00000090 773.57 232.21 418.89 540.41 804.89 470.87 951.35 415.26 806.29 521.07 845.03 657.58 974.68 608.71
00002635 00000091 774.42 232.56 420.66 539.12 807.84 470.71 954.67 416.89 808.74 522.65 847.48 657.25 975.66 609.90
00002636 00000092 782.67 228.39 403.75 539.95 802.00 475.88 950.26 416.28 810.86 522.34 843.12 664.84 990.93 617.07
00002637 00000093 778.27 231.15 419.74 548.02 810.94 468.73 959.75 417.76 810.16 524.15 848.52 661.25 978.00 616.73
00002638 00000094 781.38 223.42 414.41 557.57 804.29 479.73 953.74 418.80 811.45 523.99 845.78 674.24 989.15 625.40
00002639 00000095 782.92 224.53 412.69 558.93 805.41 474.32 955.24 421.73 811.80 525.97 841.90 675.38 980.54 633.20
00002640 00000096 782.52 224.39 414.60 565.14 805.59 473.35 954.30 421.76 809.06 526.15 840.42 681.00 970.81 640.01
00002641 00000097 782.25 226.43 413.72 564.85 804.18 471.91 949.55 426.83 805.82 530.04 837.66 679.68 965.89 643.95
00002642 00000098 776.72 231.10 417.03 556.34 800.76 467.83 951.89 427.21 798.17 532.89 830.08 675.74 953.58 640.29
00002643 00000099 782.42 230.84 415.17 565.04 805.54 474.19 942.79 430.95 800.29 537.51 838.15 682.49 958.81 648.04
00002644 00000100 782.01 233.99 417.10 564.39 808.42 481.35 936.95 433.84 794.98 541.72 841.96 687.12 952.66 649.15
00002645 00000101 780.40 238.76 420.16 564.00 809.57 487.56 935.52 436.83 794.24 542.41 841.46 694.14 945.41 653.30
00002646 00000102 771.29 238.71 426.04 569.05 804.66 494.15 940.21 445.50 798.40 558.52 836.70 701.25 947.63 662.36
00002647 00000103 769.87 236.62 426.67 574.61 803.37 497.08 937.72 452.31 794.64 564.05 832.84 703.52 941.40 667.60
00002648 00000104 767.19 244.06 429.38 572.17 803.52 498.40 938.76 460.72 795.09 574.42 835.03 706.11 940.84 675.49
00002649 00000105 771.96 261.28 422.27 556.38 815.84 499.29 922.44 470.75 783.81 573.44 839.43 700.76 925.81 677.33
00002650 00000106 767.11 261.00 422.15 566.68 818.81 508.41 916.19 480.71 779.92 586.26 843.06 710.43 919.53 687.18
00002651 00000107 764.78 262.81 430.12 610.41 812.36 519.74 934.72 493.64 787.11 604.93 843.05 740.95 938.96 716.42
00002652 00000108 764.40 268.47 424.90 616.08 815.45 526.87 926.53 504.20 788.60 613.98 850.59 747.74 937.20 726.23
00002653 00000109 764.81 267.74 424.78 621.37 815.48 529.45 924.65 506.98 787.62 618.65 851.17 752.43 936.87 730.75
00002654 00000110 765.05 267.60 421.49 618.81 814.87 529.85 923.27 506.49 788.39 618.82 851.75 750.27 937.31 727.80
00002655 00000111 764.51 268.95 416.42 617.70 815.93 533.25 916.89 504.88 785.53 614.91 853.53 749.23 934.23 722.36
00002656 00000112 764.43 263.10 414.80 603.22 820.03 524.94 906.98 496.57 780.71 611.14 856.87 735.92 926.25 708.87
00002657 00000113 760.16 256.23 423.44 612.83 816.68 512.35 908.60 484.39 774.62 604.88 850.44 732.76 924.55 705.86
00002658 00000114 754.30 267.15 419.31 584.28 810.40 512.92 905.12 482.80 771.76 593.20 835.61 719.14 910.37 693.65
00002659 00000115 760.23 261.96 414.84 567.04 812.70 503.99 904.46 474.04 775.99 588.72 841.67 707.70 914.31 682.36
00002660 00000116 766.56 262.33 416.15 565.13 816.76 500.03 909.03 472.80 777.55 587.55 845.00 706.15 919.05 683.05
00002661 00000117 771.52 265.44 416.77 565.59 818.51 500.11 915.81 470.72 784.30 586.46 849.33 708.22 927.71 683.62
00002662 00000118 779.24 268.25 421.58 579.44 826.34 501.51 930.07 469.14 796.40 586.07 857.13 713.67 940.98 686.69
00002663 00000119 786.50 262.89 419.39 575.67 835.91 496.62 938.79 467.43 805.20 581.26 862.45 707.95 943.21 683.91
00002664 00000120 793.76 259.66 421.21 575.01 839.69 495.76 951.48 464.10 813.31 575.40 864.76 707.36 951.25 680.93
00002665 00000121 799.82 257.58 420.40 560.93 846.46 493.85 973.75 464.94 837.99 577.74 874.60 703.03 973.71 680.04
00002666 00000122 804.84 248.45 425.25 578.22 856.19 486.03 985.34 456.36 840.26 573.42 879.47 707.27 981.38 682.15
00002667 00000123 809.38 241.32 427.63 587.24 862.10 472.99 990.91 450.44 838.07 568.34 874.96 705.27 972.66 685.84
00002668 00000124 818.06 241.08 416.16 583.91 871.23 463.23 992.37 448.35 839.18 562.89 873.83 699.67 965.73 686.39
00002669 00000125 816.78 238.10 410.91 579.78 874.83 464.02 983.71 451.68 831.54 557.12 872.18 687.15 953.44 676.50
00002670 00000126 816.24 233.38 412.90 580.16 868.43 463.28 988.01 446.27 829.81 551.61 868.91 684.28 961.03 670.56
00002671 00000127 821.78 218.23 414.88 592.70 856.74 456.65 990.01 438.11 833.86 547.74 868.68 680.99 986.32 666.23
00002672 00000128 825.92 208.46 414.65 597.53 857.65 450.38 995.97 431.50 837.85 534.35 867.26 672.14 990.18 658.16
00002673 00000129 825.09 202.95 415.76 600.01 852.25 449.33 1000.55 424.66 845.63 526.95 866.67 667.36 1000.78 649.51
00002674 00000130 824.99 203.06 418.43 603.43 854.28 449.37 1002.25 423.64 848.10 527.99 872.78 669.63 1007.14 650.23
00002675 00000131 826.49 205.57 415.91 609.11 854.19 449.93 1001.03 428.51 845.15 535.95 872.81 671.56 1010.96 654.44
00002676 00000132 826.27 210.96 416.14 605.64 853.73 453.06 997.48 431.55 842.83 543.95 876.69 677.52 1009.35 660.05
00002677 00000133 826.44 209.88 416.61 605.96 853.11 453.32 997.97 432.88 842.25 545.99 875.15 677.82 1007.85 661.22
00002678 00000134 826.58 209.01 416.85 603.32 853.83 452.57 999.60 430.83 844.94 542.89 875.49 675.53 1008.68 658.15
00002679 00000135 827.32 207.63 414.31 602.45 851.85 450.93 1002.01 429.03 847.98 536.99 872.04 667.16 1014.37 649.81
00002680 00000136 824.77 209.38 418.32 607.02 851.56 452.96 1002.70 426.09 848.97 536.20 874.90 670.43 1020.98 648.37
00002681 00000137 826.17 209.40 416.77 607.28 852.18 452.04 1002.10 427.75 847.36 537.00 874.67 669.69 1019.36 649.53
00002682 00000138 826.68 212.82 416.11 605.89 852.58 453.47 1000.88 430.66 847.57 541.96 879.84 672.63 1018.80 653.86
00002683 00000139 829.16 219.13 418.83 593.29 855.60 461.82 1001.71 439.08 848.84 550.81 883.17 677.94 1013.32 659.87
00002684 00000140 841.25 224.79 403.87 585.02 862.42 473.60 1009.01 445.16 858.79 554.72 887.74 682.83 1019.99 660.32
00002685 00000141 839.87 229.35 405.55 579.20 866.39 474.27 1008.03 449.92 861.42 555.92 889.27 684.52 1012.49 664.98
00002686 00000142 827.70 223.02 419.40 592.59 858.45 474.11 1003.89 447.59 849.10 557.70 881.27 691.65 1002.34 670.76
00002687 00000143 822.76 223.61 410.67 590.24 849.01 458.23 989.83 443.75 837.73 551.70 874.97 671.06 1007.47 659.02
00002688 00000144 814.68 223.30 413.19 596.46 852.75 455.70 974.41 439.29 817.88 550.01 873.64 675.06 998.27 659.14
00002689 00000145 806.99 224.15 404.14 589.61 843.17 450.29 966.36 430.87 808.37 538.24 860.68 671.15 982.12 652.87
00002690 00000146 808.70 222.53 406.46 588.98 848.31 443.15 967.99 426.62 809.83 535.19 866.06 668.37 985.09 652.53
00002691 00000147 815.21 211.37 408.61 592.63 849.90 443.77 976.40 427.23 821.83 532.59 867.27 662.57 992.24 647.89
00002692 00000148 822.00 208.67 402.29 570.87 840.73 447.57 992.00 429.20 835.44 524.54 856.85 656.35 993.24 643.83
00002693 00000149 816.24 208.91 408.45 555.72 853.35 442.43 993.99 428.52 836.31 507.88 857.04 645.89 971.59 633.42
00002694 00000150 812.92 206.01 406.26 552.05 850.58 439.23 993.28 426.78 828.01 510.64 848.64 643.45 967.40 634.10
00002695 00000151 799.91 202.74 403.90 559.48 846.04 437.00 976.04 413.94 817.67 500.38 843.23 642.68 948.38 623.24
00002696 00000152 794.93 199.64 408.59 567.55 833.00 441.35 976.18 414.48 804.49 500.75 832.00 654.41 942.99 630.77
00002697 00000153 793.63 206.68 412.35 566.15 830.82 448.63 970.87 420.16 797.66 508.74 831.51 661.13 941.78 635.96
00002698 00000154 795.46 220.41 412.23 563.20 839.86 450.07 964.17 432.85 804.96 529.24 845.61 661.03 950.62 647.43
00002699 00000155 790.29 229.10 409.75 560.38 831.64 461.38 957.76 442.59 804.86 544.75 847.99 668.27 957.21 653.18
00002700 00000156 787.99 222.95 409.96 567.98 821.61 468.20 945.97 441.17 796.32 540.40 841.19 674.74 951.88 653.33
00002701 00000157 782.04 228.94 415.97 562.17 821.58 462.17 950.03 444.98 797.31 547.94 840.74 670.23 956.53 656.20
00002702 00000158 791.86 223.64 404.57 564.30 815.12 458.87 946.97 432.36 795.02 531.53 834.04 667.11 957.19 646.51
00002703 00000159 785.04 221.39 413.94 555.72 816.69 451.11 954.06 432.29 797.10 530.30 833.30 658.13 958.65 643.77
00002704 00000160 788.19 221.62 410.19 555.97 821.25 449.86 958.90 430.60 803.18 527.62 836.61 657.52 962.24 642.78
00002705 00000161 790.90 223.62 410.93 552.90 824.95 449.15 963.76 430.40 806.76 527.98 841.12 655.04 968.24 640.58
00002706 00000162 794.86 223.85 411.20 558.49 829.44 449.80 970.46 431.52 812.24 531.93 845.50 658.39 974.64 644.18
00002707 00000163 795.98 221.78 411.24 567.68 831.19 453.66 977.27 432.88 817.81 534.09 845.96 663.74 978.96 647.83
00002708 00000164 797.90 222.72 408.43 569.07 832.44 456.10 978.12 433.19 820.41 532.80 847.21 665.45 979.89 647.86
00002709 00000165 797.64 218.80 410.67 567.24 831.83 452.33 979.32 432.33 819.74 530.14 843.94 661.78 976.35 646.72
00002710 00000166 796.40 218.87 410.68 564.59 829.33 450.26 979.85 431.61 820.53 528.94 841.34 659.48 976.59 645.68
00002711 00000167 796.91 220.28 412.38 567.40 831.62 452.40 982.48 431.87 822.10 529.54 844.01 661.84 981.29 646.38
00002712 00000168 798.83 217.76 410.31 586.16 825.50 457.46 978.15 427.43 820.53 527.70 846.39 673.41 988.62 648.93
00002713 00000169 803.25 216.45 408.00 588.16 827.77 457.40 982.73 431.05 826.38 532.08 850.37 672.95 994.72 651.61
