Video ID: 	boSyFvQpl0Q
H: 	1080
W: 	1920
FPS: 	25.0

FRAME INDEX X0 Y0 W H [Landmarks (5 Points)]

00000284 00000000 427.34 62.04 312.53 406.64
00000285 00000001 428.55 63.04 310.54 404.36
00000286 00000002 429.77 64.04 308.56 402.09
00000287 00000003 430.98 65.04 306.57 399.81
00000288 00000004 432.19 66.03 304.59 397.54
00000289 00000005 433.40 67.03 302.60 395.26
00000290 00000006 433.12 67.31 301.14 393.48
00000291 00000007 432.85 67.59 299.69 391.71
00000292 00000008 432.57 67.86 298.23 389.93
00000293 00000009 432.29 68.14 296.77 388.15
00000294 00000010 432.01 68.42 295.32 386.37
00000295 DELETE   432.53 71.88 294.40 384.62
00000296 DELETE   433.04 75.34 293.49 382.87
00000297 DELETE   433.56 78.81 292.58 381.13
00000298 00000014 837.79 240.53 397.40 539.00 910.04 402.76 1098.90 396.01 978.58 499.13 938.64 620.14 1094.15 613.76
00000299 00000015 841.29 246.62 398.91 532.30 918.46 399.11 1108.65 394.95 994.44 498.67 947.76 618.16 1101.41 613.88
00000300 00000016 843.27 251.34 398.53 524.77 923.66 397.01 1115.09 393.82 1002.60 499.57 952.13 617.09 1105.87 613.42
00000301 00000017 842.33 248.74 399.82 521.61 926.41 396.79 1118.71 393.60 1006.47 499.27 952.31 616.34 1106.91 612.79
00000302 00000018 839.66 248.12 400.09 517.20 925.77 396.25 1119.66 392.98 1008.10 498.91 951.17 615.93 1106.89 612.20
00000303 00000019 439.59 90.11 287.41 372.08
00000304 00000020 440.84 91.21 286.57 370.69
00000305 00000021 438.98 92.16 285.76 369.25
00000306 00000022 814.03 247.27 389.11 517.03 894.97 407.24 1078.94 397.21 969.72 496.78 920.40 620.53 1071.28 612.00
00000307 00000023 808.13 243.98 391.44 518.13 887.89 406.41 1072.38 393.91 963.40 495.89 913.28 618.26 1064.14 607.65
00000308 00000024 803.46 241.23 391.37 516.70 882.31 405.91 1067.82 393.18 958.52 496.42 908.66 617.07 1060.06 606.29
00000309 00000025 799.56 242.37 392.64 513.92 877.64 405.39 1063.79 392.19 954.83 497.73 905.29 616.63 1057.07 605.49
00000310 00000026 798.04 243.44 392.66 511.29 876.40 404.44 1062.38 391.48 953.05 497.41 904.13 615.59 1054.70 604.58
00000311 00000027 799.45 240.62 391.81 513.29 877.65 403.53 1063.96 389.57 955.23 496.79 906.37 615.07 1057.11 603.16
00000312 00000028 801.81 240.76 393.16 509.97 882.56 403.25 1068.27 388.23 961.93 494.76 912.99 613.76 1063.64 600.75
00000313 00000029 807.11 237.93 393.74 509.25 889.29 402.07 1072.22 386.50 968.81 495.12 923.37 612.99 1068.08 599.06
00000314 00000030 427.52 95.56 279.77 357.77
00000315 00000031 429.80 94.65 279.52 357.54
00000316 00000032 432.08 93.74 279.27 357.30
00000317 00000033 835.36 238.56 399.20 517.26 912.88 395.16 1101.67 385.75 989.88 495.29 945.82 612.19 1093.42 603.18
00000318 00000034 841.59 238.78 397.71 516.93 920.99 396.72 1110.47 386.80 996.99 494.80 953.56 615.22 1096.92 606.08
00000319 00000035 847.67 243.13 398.52 510.98 926.23 398.05 1115.61 387.52 1001.91 496.04 959.35 617.36 1102.25 607.89
00000320 00000036 852.44 238.16 398.07 518.11 930.48 399.86 1120.05 389.35 1005.50 497.56 962.55 617.83 1107.01 608.66
00000321 00000037 856.35 235.54 396.45 520.79 933.32 401.00 1122.71 391.15 1007.86 500.03 963.82 617.98 1109.48 609.38
00000322 00000038 860.64 230.79 394.65 526.57 937.59 401.64 1127.38 391.65 1013.71 500.76 968.17 619.04 1114.59 610.15
00000323 00000039 864.09 237.77 393.02 518.93 943.40 400.94 1131.47 392.32 1019.45 499.78 971.55 619.57 1116.20 612.15
00000324 00000040 866.14 242.58 392.41 513.37 948.30 401.34 1133.70 391.55 1026.49 498.98 976.93 620.54 1117.76 612.20
00000325 00000041 867.26 245.61 392.01 508.06 951.89 399.85 1136.45 390.70 1031.93 497.66 980.84 620.41 1117.52 612.39
00000326 00000042 869.08 241.34 390.88 512.95 954.06 398.22 1139.37 388.63 1036.91 497.20 983.94 622.37 1117.43 613.97
00000327 00000043 870.25 240.87 389.52 515.08 955.68 397.34 1140.59 388.69 1039.54 497.26 984.45 624.49 1114.79 616.88
00000328 00000044 869.12 241.77 389.61 514.57 955.27 396.43 1141.07 389.06 1040.27 498.29 984.32 624.15 1114.52 617.46
00000329 00000045 869.08 242.68 388.73 514.48 954.65 397.86 1139.41 388.98 1039.67 499.57 985.24 623.50 1116.36 615.51
00000330 00000046 867.27 245.60 391.71 512.82 954.92 399.53 1137.88 391.25 1040.45 502.91 987.01 621.00 1117.98 613.47
00000331 00000047 865.39 245.11 392.75 513.78 953.04 401.57 1136.32 392.81 1039.01 506.20 986.21 620.53 1120.38 612.25
00000332 00000048 865.54 245.43 391.18 512.24 952.03 403.04 1135.55 394.36 1036.56 506.67 984.55 621.57 1120.83 613.45
00000333 00000049 867.80 248.19 388.26 510.47 952.13 400.13 1134.42 392.85 1034.70 502.92 982.26 618.81 1118.02 612.29
00000334 00000050 867.86 250.16 385.82 512.97 949.80 398.55 1133.16 392.16 1031.90 500.80 978.61 617.93 1119.64 612.26
00000335 00000051 867.93 251.21 385.09 514.61 950.43 407.56 1128.90 398.97 1030.62 499.99 976.52 617.26 1120.62 610.13
00000336 00000052 869.66 245.20 382.96 521.51 955.63 414.67 1131.29 405.89 1034.85 499.67 978.22 615.59 1125.42 608.46
00000337 00000053 869.98 246.31 383.76 518.12 957.04 409.23 1134.87 402.09 1038.04 499.45 978.67 614.42 1126.24 608.35
00000338 00000054 868.13 249.43 385.22 512.43 957.87 406.07 1138.90 399.75 1043.05 502.30 981.13 615.93 1128.34 610.13
00000339 00000055 868.90 247.10 384.99 512.60 959.22 406.30 1141.59 399.41 1046.77 504.24 984.22 617.36 1131.47 610.88
00000340 00000056 869.63 248.91 385.87 511.58 960.93 406.94 1144.36 400.53 1049.13 504.41 986.88 619.09 1133.81 612.99
00000341 00000057 870.05 247.40 386.69 515.37 962.31 408.09 1145.81 401.27 1050.94 504.52 988.87 620.94 1134.96 614.52
00000342 00000058 870.77 248.45 386.80 517.72 962.20 409.05 1146.41 401.53 1051.09 505.96 989.78 624.27 1135.48 617.26
00000343 00000059 870.07 245.43 386.89 521.61 961.81 409.66 1147.02 400.89 1052.49 507.26 990.99 627.27 1135.81 619.19
00000344 00000060 867.06 242.31 386.45 514.18 961.36 409.35 1149.30 401.26 1054.64 507.62 991.40 627.99 1138.75 619.86
00000345 00000061 867.04 239.50 384.80 511.25 959.92 408.86 1148.69 400.27 1053.73 508.76 990.06 627.70 1138.76 619.09
00000346 00000062 865.07 241.67 384.52 507.28 959.41 404.56 1147.06 397.52 1052.20 505.58 988.15 625.03 1132.21 617.80
00000347 00000063 864.60 242.64 384.64 511.42 958.51 398.23 1148.34 392.71 1051.27 501.01 985.23 622.37 1127.63 616.89
00000348 00000064 863.81 246.25 385.84 508.70 959.21 391.44 1145.58 386.61 1051.19 496.25 986.66 620.25 1116.02 615.58
00000349 00000065 864.42 244.82 386.26 520.90 960.43 391.91 1144.55 389.06 1052.28 495.31 987.45 626.43 1111.51 623.75
00000350 00000066 863.97 252.51 384.88 523.05 958.65 411.60 1134.16 405.78 1045.83 504.62 986.52 634.71 1110.15 630.34
00000351 00000067 865.18 239.22 384.81 544.78 957.78 424.98 1136.05 422.17 1039.85 519.54 977.24 644.82 1111.63 643.12
00000352 00000068 866.58 251.04 386.02 531.17 952.33 421.12 1134.44 418.61 1034.22 523.37 975.07 645.44 1112.08 643.75
00000353 00000069 868.70 251.95 386.24 524.74 953.23 415.89 1136.17 415.86 1031.85 518.23 974.04 638.70 1108.44 639.03
00000354 00000070 869.01 246.25 389.78 524.11 955.04 409.14 1138.03 407.74 1035.24 509.83 976.93 630.25 1110.52 628.81
00000355 00000071 870.55 246.87 390.02 519.85 956.78 405.90 1139.45 403.27 1038.21 506.94 980.13 628.09 1111.85 625.64
00000356 00000072 873.09 249.48 391.36 523.40 957.45 410.25 1140.17 406.72 1037.48 514.57 981.61 631.01 1115.10 627.87
00000357 00000073 875.32 255.10 391.15 524.00 960.48 414.94 1144.26 414.28 1040.00 523.38 983.18 634.60 1121.23 633.99
00000358 00000074 877.85 260.12 388.76 521.95 962.72 420.54 1148.88 422.72 1040.06 527.90 982.45 636.97 1125.61 639.00
00000359 00000075 876.88 260.33 388.61 525.51 963.04 420.81 1149.73 423.82 1039.57 527.04 979.74 638.11 1123.56 641.11
00000360 00000076 876.89 259.23 388.48 532.00 962.21 416.26 1150.28 419.01 1039.82 522.73 979.91 638.27 1126.19 640.83
00000361 00000077 876.17 254.98 388.92 535.49 962.71 413.98 1150.11 417.67 1039.96 517.11 975.77 633.88 1124.23 637.38
00000362 00000078 874.17 256.89 388.52 531.28 962.15 412.72 1150.29 417.99 1040.22 515.25 973.72 632.01 1122.52 636.93
00000363 00000079 871.77 254.73 388.31 534.04 959.63 411.10 1148.70 418.71 1038.11 516.86 969.23 631.39 1119.36 638.30
00000364 00000080 869.30 261.76 387.94 532.74 956.73 411.62 1149.22 421.02 1036.76 523.19 967.58 635.67 1122.11 644.07
00000365 00000081 864.20 260.96 393.94 546.41 953.96 412.28 1152.73 421.76 1038.99 528.68 964.80 644.52 1124.41 652.46
00000366 00000082 861.01 262.92 395.01 552.49 951.55 413.58 1150.00 421.96 1036.39 530.17 959.67 647.54 1123.21 654.38
00000367 00000083 858.89 248.75 396.43 567.00 950.50 419.58 1142.06 425.44 1035.19 528.08 958.61 646.00 1124.70 650.63
00000368 00000084 858.84 256.45 397.24 557.79 949.24 420.62 1141.11 426.30 1031.15 525.07 955.25 641.18 1125.23 645.81
00000369 00000085 859.69 258.83 397.52 554.56 947.93 413.11 1141.79 420.65 1030.13 523.66 952.24 639.86 1121.94 646.12
00000370 00000086 860.32 257.87 399.97 558.99 950.82 408.42 1148.58 419.46 1030.85 527.06 950.54 640.21 1121.51 649.26
00000371 00000087 860.92 259.87 400.63 562.76 953.43 408.07 1153.65 420.90 1033.36 532.57 950.70 644.39 1122.68 654.87
00000372 00000088 866.20 278.14 399.63 539.60 959.62 409.20 1162.86 425.57 1038.97 546.13 957.40 643.37 1122.08 657.77
00000373 00000089 864.63 275.72 405.49 540.36 957.50 415.88 1163.91 435.95 1035.92 557.38 954.81 646.40 1121.30 663.82
00000374 00000090 863.67 277.84 409.07 537.96 957.65 422.81 1163.66 444.39 1035.01 565.02 953.46 648.87 1121.59 667.55
00000375 00000091 863.63 280.60 409.93 533.13 959.02 426.79 1164.21 448.23 1035.47 568.34 955.11 651.59 1122.14 670.41
00000376 00000092 862.80 278.10 411.11 533.78 960.03 425.79 1165.13 447.58 1037.66 568.24 957.61 650.22 1122.77 668.90
00000377 00000093 861.86 274.46 411.69 532.20 959.62 421.92 1165.17 441.77 1039.03 562.71 959.02 646.34 1123.97 663.20
00000378 00000094 861.78 274.52 409.30 527.33 958.61 419.34 1164.74 436.91 1038.46 557.48 959.60 645.00 1122.71 660.08
00000379 00000095 861.50 274.30 407.30 525.81 957.35 417.58 1161.52 434.02 1035.99 554.35 959.25 642.90 1119.97 657.05
00000380 00000096 859.58 273.85 406.91 524.97 954.35 417.23 1158.44 432.94 1032.99 552.53 956.34 642.14 1117.47 655.70
00000381 00000097 857.89 279.64 406.35 518.97 950.10 418.24 1153.60 431.12 1028.94 551.46 954.50 644.94 1113.33 656.35
00000382 00000098 857.04 277.82 406.45 521.00 946.90 418.63 1149.16 429.84 1024.93 551.79 953.74 645.50 1110.57 655.48
00000383 00000099 857.59 275.55 407.19 521.62 946.37 419.17 1148.07 430.27 1023.01 552.03 952.71 644.28 1109.66 654.26
00000384 00000100 859.90 268.64 396.91 520.66 942.20 418.79 1143.66 433.47 1017.93 544.65 950.00 649.43 1108.91 662.45
00000385 00000101 460.60 120.98 275.62 352.03
00000386 00000102 863.39 269.62 396.56 524.65 944.71 416.99 1146.13 430.52 1019.89 545.32 952.91 651.22 1110.01 662.92
00000387 00000103 864.82 266.53 400.78 533.10 947.99 415.46 1147.43 428.59 1021.79 545.47 956.72 651.61 1107.79 662.80
00000388 00000104 865.71 274.62 404.87 520.22 951.92 420.35 1151.92 431.21 1025.41 553.88 960.75 645.70 1111.15 655.05
00000389 00000105 865.92 267.91 403.27 528.38 950.58 416.53 1148.70 430.18 1024.46 543.29 960.28 646.93 1113.08 658.66
00000390 00000106 867.82 267.77 404.44 528.45 952.11 417.54 1150.83 429.36 1026.79 542.75 962.64 646.55 1118.03 656.72
00000391 00000107 869.79 267.19 404.42 529.06 954.41 419.16 1153.27 430.27 1029.17 543.53 965.93 647.02 1122.17 656.57
00000392 00000108 871.97 266.37 402.59 528.07 955.83 420.34 1153.71 430.89 1029.63 543.30 967.66 646.08 1123.64 655.16
00000393 00000109 874.94 266.72 399.97 526.52 957.28 420.69 1154.56 430.11 1031.18 541.31 970.08 646.42 1125.85 654.51
00000394 00000110 876.58 263.21 400.83 531.00 960.05 421.53 1156.21 431.43 1033.73 542.05 972.33 646.38 1127.90 654.75
00000395 00000111 883.92 266.83 399.62 527.93 968.98 412.86 1167.46 435.79 1047.16 546.18 976.24 645.66 1131.97 665.95
00000396 00000112 880.15 283.42 401.61 513.96 966.24 423.72 1162.75 432.85 1038.71 553.76 975.68 646.08 1127.50 653.72
00000397 00000113 879.55 281.62 403.38 519.28 966.07 426.64 1162.75 435.98 1038.77 557.15 975.49 648.25 1127.70 655.92
00000398 00000114 878.68 283.65 403.32 519.52 965.67 431.71 1159.88 442.10 1036.12 560.66 973.86 649.23 1124.66 657.92
00000399 00000115 878.26 283.72 402.37 521.71 964.03 433.98 1157.50 444.48 1033.73 562.77 972.78 651.49 1122.64 660.42
00000400 00000116 877.78 280.21 402.02 526.99 962.33 436.32 1155.44 445.83 1032.32 564.77 971.46 653.08 1121.94 661.19
00000401 00000117 877.56 281.61 401.70 526.61 962.23 437.62 1154.45 446.80 1031.93 565.54 971.96 654.07 1121.22 661.97
00000402 00000118 877.71 281.32 400.97 530.99 962.57 440.34 1154.07 449.45 1032.41 567.67 971.57 656.21 1121.90 664.21
00000403 00000119 876.42 279.89 403.24 535.91 962.02 444.68 1153.88 453.51 1032.12 569.36 968.91 657.57 1122.84 665.38
00000404 00000120 874.07 280.52 404.55 538.49 961.70 444.11 1153.67 452.95 1031.71 568.22 966.83 654.20 1123.44 661.84
00000405 00000121 871.49 282.29 405.82 541.53 960.71 441.91 1154.41 450.42 1032.15 563.34 961.87 646.50 1129.62 653.76
00000406 00000122 867.85 265.50 405.73 561.67 959.84 444.41 1149.04 450.95 1034.52 563.39 964.59 644.62 1135.63 648.73
00000407 00000123 859.36 271.88 408.42 554.52 950.69 442.59 1135.97 446.33 1023.58 553.51 955.57 640.34 1141.91 643.10
00000408 00000124 857.45 279.60 405.72 543.09 943.74 435.08 1132.84 441.19 1014.89 549.81 942.36 635.13 1135.15 640.31
00000409 00000125 855.46 273.43 407.53 540.15 939.48 426.63 1132.12 438.19 1007.52 544.81 933.90 633.99 1120.68 644.18
CROP_BBOX: 544 0 1552 1002
