Video ID: 	DVn-VkVYuQw
H: 	1080
W: 	1920
FPS: 	30.0

FRAME INDEX X0 Y0 W H [Landmarks (5 Points)]

00003858 00000000 829.83 131.67 414.87 596.98 944.26 316.27 1152.38 322.46 1060.82 437.94 962.76 555.51 1127.72 558.36
00003859 00000001 828.02 137.35 414.10 598.45 940.46 320.07 1147.93 326.97 1056.75 444.93 958.02 558.22 1126.01 561.83
00003860 00000002 830.16 142.57 412.89 592.82 942.78 326.35 1148.52 335.13 1056.38 451.46 957.69 557.84 1126.70 563.15
00003861 00000003 828.37 147.46 409.30 592.53 938.03 331.66 1138.83 341.01 1046.92 455.16 949.56 558.71 1118.94 565.02
00003862 00000004 812.07 151.52 413.85 599.88 930.86 345.53 1132.77 352.05 1041.89 469.71 940.60 571.33 1113.82 576.10
00003863 00000005 802.30 147.93 414.08 606.99 923.75 351.37 1121.44 358.22 1030.31 473.64 931.78 573.20 1102.43 577.86
00003864 00000006 793.29 155.02 414.80 597.42 916.06 349.42 1114.01 359.04 1019.38 467.35 923.33 571.25 1090.45 577.75
00003865 00000007 783.88 158.48 418.93 595.38 906.68 348.98 1104.36 363.37 1008.50 468.09 908.48 569.97 1078.07 580.46
00003866 00000008 778.68 156.30 417.62 598.61 899.84 352.71 1097.64 370.83 997.76 471.45 894.86 567.18 1072.46 581.12
00003867 DELETE   773.41 162.72 414.50 593.85 894.88 361.10 1089.11 384.10 987.60 478.54 883.49 567.17 1063.87 585.44
00003868 00000010 764.54 170.79 410.28 584.59 886.63 367.81 1081.06 392.44 978.57 484.65 873.16 570.33 1053.22 590.08
00003869 00000011 755.12 175.64 409.47 584.22 874.85 370.50 1070.65 394.46 967.23 488.52 858.69 576.24 1040.45 596.14
00003870 00000012 751.95 191.47 408.83 576.70 869.37 371.36 1062.35 398.24 959.88 503.20 850.93 576.01 1029.03 598.90
00003871 00000013 738.08 189.38 408.39 585.60 861.22 375.09 1050.24 402.03 950.69 499.31 843.95 578.49 1019.67 600.19
00003872 DELETE   724.81 194.69 406.27 575.20 846.48 374.80 1038.03 402.29 937.96 498.64 830.72 578.98 1004.67 601.51
00003873 00000015 705.38 182.58 412.27 579.67 829.45 368.43 1025.51 397.51 917.58 489.27 811.85 574.05 995.04 598.37
00003874 DELETE   697.35 177.51 407.99 576.60 817.67 359.12 1013.38 387.65 908.63 485.56 799.64 565.97 980.81 589.12
00003875 00000017 690.38 173.22 403.25 576.01 805.67 354.38 997.95 379.22 897.11 480.28 790.30 559.49 969.40 579.59
00003876 DELETE   676.76 170.53 404.67 577.21 793.23 352.75 984.44 374.94 886.32 480.39 783.26 557.16 963.97 575.20
00003877 00000019 664.13 163.90 406.79 586.89 784.26 357.45 974.55 376.38 878.85 483.49 773.49 557.77 959.60 573.49
00003878 DELETE   652.38 165.91 411.31 588.23 773.40 361.90 965.43 377.30 869.99 489.92 766.28 563.21 953.20 575.70
00003879 00000021 639.07 172.57 416.27 590.19 758.44 369.85 954.30 381.23 856.24 494.44 757.40 573.83 945.87 582.83
00003880 00000022 631.97 172.86 419.32 593.82 752.61 378.23 945.01 387.67 850.00 501.45 751.27 577.03 941.45 584.75
00003881 00000023 628.82 175.14 420.35 595.84 749.81 383.97 941.76 390.82 848.87 505.57 750.10 581.05 941.61 586.69
00003882 00000024 632.44 177.90 417.48 590.58 751.10 385.63 941.82 388.88 850.23 506.67 754.60 579.92 946.45 582.70
00003883 00000025 637.72 177.87 415.99 586.73 755.48 382.95 946.71 384.80 855.24 497.71 759.92 577.48 951.01 578.74
00003884 00000026 640.99 178.45 412.24 580.11 755.59 376.79 947.93 378.49 855.34 493.81 760.54 573.17 950.99 574.41
00003885 00000027 647.73 178.21 407.57 573.94 757.37 370.70 950.86 371.97 857.54 487.11 764.98 569.43 953.30 569.92
00003886 00000028 660.95 180.31 402.05 569.99 768.48 365.99 960.05 369.88 865.45 484.68 774.65 566.35 962.30 569.02
00003887 00000029 671.45 176.37 401.17 570.15 778.56 364.36 967.14 369.16 874.36 480.50 783.07 560.06 971.41 563.56
00003888 00000030 684.41 176.03 392.93 560.64 785.75 354.28 971.45 363.23 879.62 468.42 794.29 551.56 972.06 557.72
00003889 00000031 687.94 166.92 394.06 563.82 791.81 347.83 978.56 358.74 887.77 460.47 799.14 543.37 975.17 550.69
00003890 00000032 695.88 162.28 397.23 570.40 798.60 342.51 989.14 352.12 895.51 458.61 804.19 541.68 984.88 547.82
00003891 00000033 709.56 167.42 405.45 568.33 817.87 347.91 1012.51 356.84 916.69 462.75 821.42 547.71 1003.75 554.21
00003892 00000034 718.02 157.72 408.54 579.71 832.30 346.75 1028.22 355.05 933.15 463.54 832.14 545.60 1018.98 551.60
00003893 00000035 715.72 159.52 412.84 582.93 831.36 345.66 1029.35 354.39 933.16 468.15 831.08 548.79 1018.96 555.18
00003894 00000036 717.90 157.71 414.34 587.28 834.82 350.77 1030.65 357.73 937.12 476.43 837.27 554.08 1023.21 558.90
00003895 00000037 736.43 156.93 407.85 585.29 848.63 349.47 1044.29 354.15 952.78 470.91 850.01 548.19 1043.36 551.58
00003896 00000038 755.06 157.82 400.28 578.11 862.27 341.96 1053.95 351.90 963.91 466.41 867.85 540.76 1052.72 547.27
00003897 00000039 764.17 158.29 403.02 574.13 869.99 336.47 1063.63 344.07 972.38 462.88 874.49 536.71 1061.50 541.21
00003898 00000040 770.03 158.57 407.99 571.18 876.03 329.34 1073.60 334.81 981.79 458.76 882.22 533.81 1070.71 536.86
00003899 00000041 775.36 150.01 407.17 572.13 885.97 327.73 1083.15 334.99 989.61 453.64 889.11 529.36 1077.34 534.27
00003900 00000042 783.11 141.01 406.29 574.60 900.94 326.31 1096.99 333.73 1005.97 447.05 902.97 527.24 1086.24 532.13
00003901 00000043 790.13 136.19 406.90 580.37 908.48 323.51 1103.83 330.99 1014.18 447.04 907.53 524.46 1093.35 529.56
00003902 00000044 790.49 134.53 407.72 583.27 909.52 322.64 1105.92 331.36 1015.64 447.98 907.17 523.80 1094.55 530.03
00003903 00000045 792.81 135.72 407.78 583.38 911.01 324.55 1107.84 332.41 1017.59 448.32 908.66 524.67 1097.97 530.14
00003904 00000046 792.91 130.92 408.60 586.57 910.63 322.88 1108.18 330.23 1017.42 447.77 908.60 523.46 1097.57 528.34
00003905 00000047 786.78 132.11 412.44 584.99 906.01 323.97 1103.97 332.33 1011.64 448.10 904.87 525.28 1092.41 530.85
00003906 00000048 783.28 135.06 408.63 577.80 900.42 322.18 1097.79 329.83 1004.75 444.41 900.38 523.09 1085.90 528.25
00003907 00000049 786.46 123.82 409.62 587.84 904.45 320.19 1101.80 325.59 1009.97 442.38 905.83 521.12 1091.69 523.99
00003908 00000050 793.63 128.85 410.39 586.37 910.36 320.18 1108.11 323.50 1017.34 442.24 911.62 522.51 1099.60 523.75
00003909 00000051 786.93 123.20 411.64 587.01 904.25 317.16 1101.85 321.52 1007.18 436.08 906.22 519.07 1091.06 521.04
00003910 00000052 770.26 103.52 423.62 599.98 892.67 306.90 1093.67 315.89 997.60 422.97 893.91 514.85 1087.04 521.71
00003911 00000053 767.85 100.91 424.29 605.82 889.82 305.51 1092.65 314.67 995.38 423.71 891.87 517.83 1085.54 524.54
00003912 00000054 771.66 102.56 427.50 601.01 897.03 306.69 1099.56 312.34 1003.46 423.06 901.78 515.90 1093.81 519.81
00003913 00000055 793.89 116.44 414.91 588.05 913.39 304.35 1111.34 306.88 1019.80 424.14 916.31 512.57 1099.54 512.50
00003914 00000056 800.38 111.82 417.72 597.14 919.42 307.63 1118.04 309.96 1026.69 425.74 920.36 515.28 1107.24 515.04
00003915 00000057 800.35 110.17 417.80 596.55 919.88 305.39 1118.70 309.17 1026.58 425.01 919.77 512.20 1106.78 513.15
00003916 00000058 806.61 107.43 416.14 599.75 925.08 301.25 1122.82 304.47 1030.34 423.04 925.06 510.88 1112.54 511.26
00003917 00000059 814.67 110.35 415.21 592.79 926.45 300.12 1125.70 305.80 1029.43 424.99 929.70 508.20 1113.84 511.94
00003918 00000060 805.49 104.04 417.95 601.42 924.31 299.43 1123.52 303.13 1029.87 421.99 923.61 509.12 1111.74 510.00
00003919 00000061 796.70 96.86 420.05 600.73 918.95 298.56 1118.75 305.66 1026.04 420.28 918.65 506.95 1114.19 512.06
00003920 00000062 811.31 109.34 415.14 593.98 924.11 300.89 1121.32 306.32 1026.96 425.28 930.67 509.34 1111.02 512.51
00003921 00000063 821.28 116.80 416.40 589.08 931.41 306.52 1130.20 306.17 1037.62 428.52 939.89 514.96 1123.15 513.45
00003922 00000064 822.30 122.06 415.24 586.54 932.00 307.56 1129.38 308.17 1036.43 430.64 938.22 516.76 1121.77 516.11
00003923 00000065 819.86 118.38 412.47 591.57 929.79 308.22 1123.73 311.37 1031.45 431.56 935.58 516.58 1116.18 518.04
00003924 00000066 824.31 120.80 410.35 590.99 932.84 311.25 1125.86 312.54 1035.56 433.03 940.28 520.27 1121.80 519.90
00003925 00000067 829.29 123.41 410.98 590.30 938.90 313.56 1132.84 314.52 1044.01 435.46 946.33 521.41 1130.48 520.80
00003926 00000068 830.45 124.92 410.40 584.49 940.90 313.14 1134.88 314.38 1044.89 433.93 947.01 519.53 1130.03 519.38
00003927 00000069 828.63 124.31 410.39 584.75 939.31 311.43 1133.61 313.27 1042.98 432.78 945.10 519.72 1126.38 520.14
00003928 00000070 827.78 124.23 409.81 583.28 939.10 311.47 1132.39 314.67 1041.93 433.19 944.31 518.98 1123.47 520.70
00003929 00000071 828.43 121.33 410.92 578.71 940.47 308.07 1135.54 311.24 1043.20 429.18 945.80 514.08 1123.71 515.95
00003930 00000072 831.52 121.59 410.57 575.63 944.35 306.45 1138.77 309.76 1047.17 428.08 948.83 512.19 1124.95 514.28
00003931 00000073 833.44 125.33 409.21 570.15 947.60 304.81 1141.74 310.36 1049.83 428.16 951.70 509.76 1126.63 513.78
00003932 00000074 830.71 122.68 410.05 572.88 943.76 304.05 1138.98 309.08 1044.99 426.73 947.58 508.95 1123.10 512.60
00003933 00000075 827.25 119.04 409.30 575.81 940.18 303.05 1134.20 309.83 1041.21 426.13 942.85 508.65 1117.95 513.86
00003934 00000076 825.10 122.13 405.99 576.14 937.71 306.29 1128.52 313.22 1038.33 428.19 941.64 511.63 1114.37 516.85
00003935 00000077 823.06 121.67 404.09 577.00 934.82 307.89 1125.14 314.87 1035.36 428.49 939.01 513.68 1111.51 518.73
00003936 00000078 825.08 122.34 403.96 577.85 936.69 308.75 1125.47 316.05 1037.05 430.18 941.56 514.95 1112.41 520.41
00003937 00000079 825.86 132.89 400.46 573.01 936.61 310.94 1124.54 318.79 1036.88 435.27 942.11 519.35 1112.59 525.03
00003938 00000080 815.85 128.82 403.86 575.62 927.79 315.16 1122.22 318.76 1033.71 432.11 933.97 520.67 1112.85 521.84
00003939 00000081 805.31 121.61 404.30 581.88 920.75 316.57 1110.92 320.11 1024.95 431.28 924.85 519.63 1099.70 521.15
00003940 00000082 799.35 128.84 400.52 573.08 912.19 320.08 1104.94 324.22 1017.27 438.96 917.60 523.47 1093.20 525.53
00003941 00000083 799.74 130.85 400.07 574.25 911.60 323.23 1105.12 326.55 1017.32 440.79 917.03 527.13 1093.34 528.54
00003942 00000084 799.89 143.50 401.36 566.44 912.04 324.42 1106.36 330.06 1016.22 444.86 916.38 528.90 1094.34 532.34
00003943 00000085 799.08 150.57 400.03 562.43 909.37 329.49 1104.70 332.50 1013.52 447.94 914.64 534.02 1093.58 535.54
00003944 00000086 794.56 158.83 401.02 553.40 904.47 333.62 1100.05 337.18 1006.35 450.41 910.20 537.08 1086.58 538.94
00003945 00000087 787.21 161.59 402.52 551.27 897.55 335.67 1092.42 341.52 998.30 452.65 902.50 538.28 1076.55 542.28
00003946 00000088 784.01 162.02 404.84 553.17 893.82 336.70 1088.51 341.86 995.26 454.75 900.12 538.50 1076.07 541.96
00003947 00000089 787.54 165.00 404.59 557.55 899.28 342.53 1093.38 349.88 997.97 456.35 903.30 546.23 1076.02 551.62
00003948 00000090 790.08 165.79 404.88 556.31 901.31 345.32 1095.95 352.23 1000.16 458.17 906.72 548.03 1079.17 552.74
00003949 00000091 795.95 167.02 401.88 554.49 905.21 346.24 1099.75 351.42 1003.16 458.46 912.10 550.90 1084.09 554.21
00003950 00000092 796.32 166.32 401.99 558.29 906.03 347.91 1101.06 354.54 1005.24 461.96 912.02 553.51 1083.57 558.11
00003951 00000093 790.60 164.03 404.47 560.55 902.47 346.96 1097.38 355.25 1001.13 459.62 907.00 550.66 1079.01 556.72
00003952 00000094 787.20 167.89 402.05 557.13 898.81 346.96 1092.74 355.81 998.38 462.89 902.94 551.17 1073.39 557.94
00003953 00000095 785.43 171.02 401.85 556.14 894.55 346.80 1088.29 354.60 994.60 466.41 900.33 552.42 1069.94 558.25
00003954 00000096 790.64 168.16 402.39 557.99 901.49 349.18 1096.45 354.39 1002.69 464.77 909.93 555.65 1079.79 559.11
00003955 00000097 806.84 169.65 398.92 560.45 918.36 356.41 1110.37 362.22 1021.12 474.69 926.11 562.42 1100.02 566.72
00003956 00000098 811.18 177.95 397.34 555.76 922.41 358.81 1111.86 366.63 1021.50 478.28 927.69 565.08 1100.25 571.15
00003957 00000099 800.47 175.95 397.65 551.34 909.05 355.16 1102.36 361.94 1007.48 474.83 916.42 563.94 1082.85 569.22
00003958 00000100 792.14 174.37 399.71 557.26 901.02 356.28 1096.64 362.20 1001.16 473.35 909.38 565.14 1076.88 569.39
00003959 00000101 797.72 181.15 398.92 550.18 906.47 359.07 1101.67 364.24 1005.55 477.07 914.89 568.21 1083.79 572.04
00003960 00000102 805.99 181.64 397.37 546.15 916.70 358.74 1106.99 364.29 1016.82 478.54 925.88 565.34 1093.82 569.51
00003961 00000103 805.41 179.27 397.21 549.41 915.79 357.57 1106.33 362.87 1016.09 478.90 924.76 565.47 1092.07 569.35
00003962 00000104 801.55 182.77 395.38 543.89 910.26 358.02 1101.89 364.63 1008.18 477.38 918.53 565.25 1083.60 570.36
00003963 00000105 802.98 176.94 394.39 543.94 910.47 353.62 1101.91 359.65 1010.04 472.38 918.47 559.40 1086.00 564.03
00003964 00000106 802.07 171.20 395.80 550.18 912.35 350.27 1102.70 358.15 1012.20 466.32 917.62 553.75 1086.82 559.89
00003965 00000107 796.56 170.77 398.67 549.10 906.37 347.73 1100.01 355.80 1004.35 463.22 912.16 553.37 1079.84 559.45
00003966 00000108 792.56 166.55 398.54 550.45 902.82 342.22 1095.51 351.79 999.40 456.26 905.26 544.29 1074.84 551.59
00003967 00000109 788.80 164.81 399.16 549.69 899.19 339.24 1091.74 347.93 996.54 455.56 902.05 541.14 1072.25 547.81
00003968 00000110 789.49 165.54 399.27 550.74 899.81 338.83 1092.68 347.83 996.89 455.54 902.94 541.87 1073.01 548.73
00003969 00000111 789.04 163.94 398.60 550.63 898.63 338.37 1091.57 346.55 996.86 454.74 902.22 540.71 1073.70 546.84
00003970 00000112 788.12 162.77 399.01 551.63 896.86 337.25 1090.29 343.28 997.22 454.39 901.85 539.65 1074.56 543.98
00003971 00000113 788.39 163.96 399.09 550.25 896.78 336.10 1090.90 341.98 997.38 454.02 902.49 539.84 1074.96 543.94
00003972 00000114 788.58 162.76 399.08 551.06 896.92 336.46 1091.53 342.54 997.31 453.79 902.57 539.72 1075.36 543.91
00003973 00000115 787.29 163.84 399.17 548.33 895.20 336.47 1088.26 341.77 995.34 452.42 902.02 539.00 1073.70 542.70
00003974 00000116 787.51 162.48 398.59 548.79 895.91 334.67 1088.66 339.68 995.65 450.70 903.44 538.16 1073.15 541.53
00003975 00000117 791.20 162.92 397.52 548.51 899.39 334.17 1093.26 339.75 998.35 450.29 905.02 538.26 1075.25 541.91
00003976 00000118 788.81 161.51 399.43 553.55 897.26 336.48 1092.25 342.11 998.09 453.79 903.05 540.52 1076.33 544.31
00003977 00000119 787.36 162.82 400.35 551.59 896.33 336.74 1090.41 342.02 997.75 453.75 902.41 539.98 1075.61 543.57
00003978 00000120 787.55 162.41 401.45 554.14 896.64 337.39 1091.87 342.10 998.46 454.45 902.99 541.46 1076.91 544.52
00003979 00000121 788.27 161.50 401.11 556.21 898.98 341.63 1092.63 347.29 999.21 454.27 905.17 544.63 1076.36 548.49
00003980 00000122 789.15 164.98 401.11 556.97 899.79 348.31 1092.93 353.26 999.03 455.88 907.38 550.28 1077.56 553.28
00003981 00000123 788.37 168.31 401.95 555.94 899.27 346.66 1093.26 353.30 998.43 457.16 905.88 550.05 1076.17 554.63
00003982 00000124 787.69 165.88 402.68 560.56 898.56 345.19 1095.03 351.63 1000.17 457.91 905.55 551.53 1076.68 556.00
00003983 00000125 787.55 164.39 403.07 565.72 899.64 341.94 1096.43 349.84 1002.29 458.00 906.39 551.80 1076.36 557.39
00003984 00000126 792.42 163.48 400.48 574.41 905.12 342.55 1101.66 350.43 1008.02 459.97 913.20 558.25 1082.22 563.41
00003985 00000127 793.20 167.61 400.81 574.53 908.35 346.48 1103.59 353.72 1011.89 466.55 917.12 562.98 1086.21 567.55
00003986 00000128 794.44 167.57 399.40 574.91 910.94 348.11 1104.73 355.06 1015.69 467.40 920.36 564.75 1088.21 569.10
00003987 00000129 796.57 165.92 398.79 577.35 915.39 351.99 1108.28 358.33 1021.94 473.99 925.57 568.90 1093.51 572.65
00003988 00000130 800.60 173.67 399.55 574.43 920.45 358.96 1110.18 363.54 1027.08 476.68 930.15 571.28 1101.20 573.88
00003989 00000131 802.69 176.75 398.35 573.77 923.49 359.96 1112.16 365.30 1030.11 478.34 932.60 572.22 1103.38 575.60
00003990 00000132 801.66 177.22 395.30 573.27 922.29 360.39 1110.78 365.71 1029.78 480.81 932.95 573.87 1102.94 577.14
00003991 00000133 800.77 186.61 392.15 572.30 923.85 366.40 1111.79 365.93 1033.63 485.12 931.77 580.89 1095.12 579.42
00003992 00000134 804.57 179.42 394.33 574.71 929.67 365.18 1115.21 370.28 1041.42 484.14 937.32 574.83 1111.01 578.56
00003993 00000135 804.59 180.03 392.03 571.03 928.11 363.41 1114.32 368.40 1039.77 480.29 937.43 574.09 1109.72 577.68
00003994 00000136 803.14 180.64 390.68 569.75 926.09 362.72 1112.97 367.75 1038.16 479.82 935.72 573.75 1107.84 577.33
00003995 00000137 807.20 179.52 389.96 570.09 930.30 363.11 1115.88 367.93 1042.00 478.83 939.96 572.86 1111.97 576.42
00003996 00000138 807.39 177.98 390.21 574.11 933.33 363.78 1117.27 369.39 1046.04 480.84 941.25 573.14 1114.01 577.39
00003997 00000139 803.53 184.01 389.76 568.67 930.57 366.29 1114.88 371.30 1044.55 482.91 939.38 573.79 1112.11 577.62
00003998 00000140 805.16 182.73 389.06 568.16 931.07 364.25 1114.98 369.86 1044.75 478.63 939.55 571.82 1111.83 576.13
00003999 00000141 806.68 178.85 388.79 572.14 932.72 364.05 1116.73 370.12 1045.56 479.70 940.40 572.36 1112.92 577.13
00004000 00000142 800.52 197.43 385.38 559.23 925.70 373.84 1112.13 372.58 1040.13 487.65 933.97 582.69 1098.36 580.95
00004001 00000143 799.45 195.49 384.30 560.00 925.31 371.78 1109.24 371.25 1036.96 486.14 932.12 581.18 1093.67 580.12
00004002 00000144 798.93 193.32 384.73 562.89 924.75 372.82 1109.45 372.07 1037.24 487.88 932.03 582.53 1094.11 581.23
00004003 00000145 801.29 195.70 382.78 559.99 925.72 374.49 1110.45 373.51 1039.31 487.91 933.92 582.95 1096.34 581.57
00004004 00000146 803.63 195.57 381.79 559.32 928.52 374.08 1112.80 373.30 1041.36 484.02 935.11 581.15 1097.73 580.05
00004005 00000147 801.05 196.80 381.89 557.19 927.21 372.57 1110.47 373.78 1037.91 482.55 931.84 580.47 1092.55 581.28
00004006 00000148 799.65 185.26 382.77 560.12 923.96 362.07 1106.61 371.33 1032.10 473.58 931.32 570.53 1095.99 577.75
00004007 00000149 801.17 185.11 382.31 557.33 924.24 360.37 1108.41 370.39 1033.24 471.72 932.75 569.59 1096.72 577.45
00004008 00000150 805.58 184.18 381.43 558.35 930.22 361.79 1111.55 372.36 1040.36 470.40 936.06 567.50 1101.78 576.24
00004009 00000151 806.27 183.37 382.04 558.18 932.68 361.67 1113.26 372.59 1043.37 469.80 938.19 567.02 1103.09 576.22
00004010 00000152 806.95 184.91 382.90 552.71 932.41 360.27 1114.30 371.73 1042.51 466.99 937.25 562.83 1104.12 572.82
00004011 00000153 807.82 184.13 382.39 554.50 934.09 359.01 1115.12 371.98 1043.88 465.79 937.20 562.40 1103.71 573.72
00004012 00000154 807.72 185.08 380.43 554.85 934.75 359.68 1115.77 374.02 1045.07 467.07 937.29 564.30 1102.54 576.67
00004013 00000155 809.55 185.98 379.16 545.33 935.46 358.06 1116.13 372.38 1045.62 462.58 938.22 559.19 1104.00 571.89
00004014 00000156 811.96 186.54 378.27 546.38 938.18 356.86 1117.39 371.94 1048.11 461.19 939.55 558.05 1105.10 571.51
00004015 00000157 812.98 188.88 377.53 542.95 938.95 357.56 1117.52 372.67 1049.15 459.68 940.24 557.23 1105.48 570.93
00004016 00000158 812.00 186.17 376.22 539.97 937.62 355.64 1115.61 370.32 1045.96 455.81 940.13 555.17 1102.64 567.97
00004017 00000159 807.28 185.17 377.17 539.27 934.43 354.66 1113.49 372.13 1041.62 455.85 936.71 555.92 1095.97 570.71
00004018 00000160 804.09 184.19 376.34 541.31 932.15 355.95 1110.18 373.13 1039.74 455.75 935.72 556.85 1092.56 571.17
00004019 00000161 808.76 186.96 376.45 537.80 935.34 355.54 1113.66 372.58 1042.75 455.44 937.97 556.23 1096.88 570.73
00004020 00000162 809.94 187.93 376.96 541.28 937.07 358.18 1116.15 374.33 1046.56 459.02 938.53 558.98 1101.00 573.15
00004021 00000163 810.21 188.89 376.14 541.34 936.79 358.86 1115.82 374.65 1046.80 459.31 938.71 559.45 1101.53 573.42
00004022 00000164 811.52 189.80 374.99 540.93 937.32 360.28 1116.08 374.88 1047.16 461.04 939.96 560.05 1103.14 573.19
00004023 00000165 814.53 192.09 375.18 540.20 940.03 360.04 1118.09 375.12 1051.29 460.64 941.78 558.56 1106.18 572.31
00004024 00000166 819.62 191.23 372.29 537.08 943.26 358.38 1119.77 371.15 1053.29 455.93 945.00 556.14 1107.40 568.11
00004025 00000167 819.62 191.85 372.62 535.68 943.25 356.43 1120.24 370.21 1052.96 454.72 944.86 555.09 1106.69 567.76
