Video ID: 	fgH8Vmbn4Sw
H: 	1080
W: 	1080
FPS: 	29.97002997002997

FRAME INDEX X0 Y0 W H [Landmarks (5 Points)]

00000569 00000000 288.92 247.85 380.73 579.32 423.98 499.55 583.23 463.24 551.41 600.11 493.06 706.68 614.69 675.51
00000570 00000001 288.62 247.71 380.99 579.07 423.87 499.66 583.15 463.36 551.25 600.31 492.84 706.74 614.24 675.58
00000571 00000002 287.79 253.28 383.11 585.20 423.23 502.21 583.91 468.74 548.80 605.61 488.63 711.61 612.43 683.01
00000572 00000003 285.37 256.83 384.58 584.92 419.43 504.64 582.55 471.27 546.20 607.15 485.71 714.55 611.68 686.02
00000573 00000004 281.67 256.33 385.01 583.93 415.22 504.42 579.65 471.70 542.12 608.60 481.61 714.74 608.90 686.59
00000574 00000005 278.25 255.85 386.95 582.56 411.69 505.56 576.89 472.83 538.72 609.56 478.74 715.98 606.03 687.74
00000575 00000006 278.45 255.43 386.70 583.10 411.80 505.51 576.99 472.94 538.69 609.66 478.65 715.81 606.01 687.70
00000576 00000007 275.62 253.23 387.09 583.27 407.22 506.19 574.48 473.56 535.13 611.40 474.44 716.07 604.84 687.67
00000577 00000008 274.30 253.93 387.00 583.43 403.98 507.19 572.54 474.13 532.07 612.00 472.65 717.87 603.33 689.07
00000578 00000009 271.97 254.10 387.82 584.51 401.33 508.00 571.60 476.17 529.86 613.70 469.73 720.63 599.82 692.94
00000579 00000010 271.56 254.11 386.66 583.88 399.29 508.92 570.89 477.59 527.36 615.68 468.01 724.24 596.54 697.01
00000580 00000011 271.83 254.77 386.41 583.31 399.25 508.85 570.67 477.74 526.87 615.55 467.56 724.01 596.18 696.96
00000581 00000012 271.13 254.75 386.28 582.26 398.87 508.23 569.94 477.71 525.58 615.62 466.70 724.84 593.76 698.35
00000582 00000013 270.33 256.06 388.45 578.57 396.54 505.27 567.06 473.32 521.69 614.15 465.35 722.83 592.48 695.12
00000583 00000014 267.06 248.96 391.60 575.73 396.83 497.43 564.62 467.73 517.90 606.13 459.91 710.36 586.29 684.61
00000584 DELETE   266.70 240.94 390.27 566.94 395.25 483.70 563.08 456.71 516.00 589.77 456.57 691.60 581.41 668.30
00000585 00000016 266.30 241.49 391.48 567.42 395.34 483.50 563.38 456.60 516.14 589.87 456.63 691.78 581.44 668.57
00000586 00000017 264.22 229.72 390.95 566.57 384.17 470.77 565.02 443.60 506.60 578.58 441.99 682.98 574.56 659.58
00000587 00000018 266.57 216.61 386.32 557.66 382.43 446.03 554.42 433.89 487.75 561.98 425.26 657.24 552.90 646.30
00000588 00000019 269.55 205.66 384.94 569.90 374.92 432.14 548.52 429.69 468.17 541.41 400.14 638.01 539.45 636.13
00000589 00000020 271.42 200.80 381.09 567.02 373.06 418.32 545.71 422.33 455.55 534.74 389.25 623.56 527.63 627.12
00000590 00000021 271.32 200.60 381.02 566.86 373.00 418.64 545.80 422.40 455.54 534.88 389.47 623.62 527.90 626.96
00000591 00000022 274.53 192.06 384.56 561.05 367.26 404.17 543.12 408.23 442.81 513.13 375.42 607.30 524.45 611.57
00000592 00000023 277.71 186.10 384.31 555.32 369.86 388.10 544.67 403.84 437.57 502.67 369.66 589.16 521.39 602.84
00000593 00000024 285.23 178.10 380.11 552.26 374.69 382.12 546.50 399.13 439.93 491.25 374.56 579.82 517.28 594.86
00000594 00000025 290.24 177.39 375.02 538.77 377.73 377.92 555.35 395.59 447.48 484.52 379.73 579.17 518.09 593.50
00000595 00000026 290.40 178.11 375.32 537.41 377.80 377.42 555.46 395.56 447.61 484.77 379.64 578.82 517.87 593.55
00000596 00000027 295.68 177.30 374.34 535.35 384.64 377.57 560.70 397.07 452.11 482.35 384.83 579.02 518.17 594.69
00000597 00000028 296.48 182.20 386.87 535.48 392.28 383.10 566.80 399.38 457.90 489.49 389.22 578.43 519.59 593.76
00000598 00000029 301.20 180.28 388.46 548.99 399.71 385.20 571.26 402.40 463.14 492.19 396.67 586.46 519.55 602.65
00000599 00000030 308.07 187.49 387.36 557.72 406.23 385.11 577.43 406.22 467.73 498.87 402.81 596.72 521.26 616.27
00000600 00000031 307.89 187.24 387.25 557.92 406.27 385.19 577.35 406.33 467.79 499.05 402.80 596.72 520.91 616.33
00000601 00000032 316.97 194.79 381.44 561.59 410.64 390.33 582.78 408.31 472.64 505.94 409.42 607.44 530.71 624.43
00000602 00000033 325.95 196.36 375.79 559.82 415.59 396.90 590.80 414.11 482.20 514.87 414.40 612.18 546.91 628.54
00000603 00000034 332.67 198.24 377.29 560.91 421.96 404.21 596.90 422.01 487.29 524.19 417.20 615.26 557.11 632.11
00000604 00000035 338.79 204.51 378.35 566.00 427.70 408.73 603.12 429.94 492.48 530.62 422.45 621.59 567.03 640.93
00000605 00000036 336.21 202.01 386.04 570.14 428.50 406.74 602.40 436.32 487.89 533.60 421.62 615.51 561.98 641.34
00000606 DELETE   342.48 210.04 385.09 567.91 433.66 418.17 609.84 443.94 499.20 542.15 428.68 623.50 572.16 646.38
00000607 00000038 341.53 218.08 394.03 576.21 443.87 426.41 617.25 455.16 505.91 554.48 435.12 629.70 583.59 654.05
00000608 00000039 344.09 225.52 396.30 574.29 446.64 437.78 627.46 465.42 514.26 569.08 435.84 637.97 592.89 662.08
00000609 00000040 349.81 234.54 394.23 567.32 450.49 442.64 631.57 471.38 519.23 577.45 440.55 642.61 597.64 667.64
00000610 00000041 350.33 234.19 393.42 567.52 450.89 442.89 631.66 471.53 519.37 577.60 441.31 642.86 597.91 667.80
00000611 00000042 352.47 235.87 395.13 564.74 456.41 444.75 636.51 475.13 525.17 579.74 443.92 641.62 601.12 667.91
00000612 00000043 355.28 236.18 393.03 563.78 458.73 446.63 639.49 476.44 529.03 583.48 445.61 643.41 604.62 669.33
00000613 00000044 357.60 238.52 392.84 562.93 461.73 451.29 643.43 478.53 534.91 587.55 450.40 649.73 609.53 673.59
00000614 00000045 363.85 242.43 391.41 560.82 466.41 454.78 647.81 479.61 538.66 590.12 456.50 655.56 614.15 677.57
00000615 00000046 363.78 241.93 391.43 561.72 466.42 454.70 647.93 479.55 538.86 590.46 456.51 655.62 614.41 677.62
00000616 00000047 369.77 242.67 388.58 567.34 471.71 456.65 651.82 480.64 542.70 591.59 460.00 658.27 620.56 679.48
00000617 00000048 372.41 242.70 387.75 571.95 473.51 456.04 653.33 480.38 544.15 591.29 461.52 659.90 620.72 681.55
00000618 00000049 371.61 243.35 388.75 574.44 473.99 455.73 652.75 479.68 544.27 590.74 461.82 660.47 620.29 681.79
00000619 00000050 370.20 242.53 388.18 575.92 472.86 455.73 651.93 479.20 543.34 590.08 461.10 661.86 618.03 682.90
00000620 00000051 370.38 242.19 388.28 576.18 472.76 455.78 651.84 479.22 542.96 590.10 461.35 662.13 617.93 683.19
00000621 00000052 368.86 243.40 387.42 574.31 471.36 455.28 649.61 477.88 541.84 589.96 460.89 662.27 615.66 682.68
00000622 00000053 364.40 241.03 387.83 571.81 468.16 454.43 646.43 477.78 539.24 588.81 457.75 659.81 610.72 680.89
00000623 00000054 359.34 238.68 390.60 569.91 462.56 452.21 642.55 475.47 535.16 586.03 454.34 655.78 606.03 676.68
00000624 00000055 356.54 234.73 389.04 566.91 457.19 450.01 639.19 471.92 532.93 584.42 452.10 653.06 605.15 672.64
00000625 00000056 356.49 234.83 389.11 566.94 457.21 450.00 639.18 471.96 532.92 584.41 452.10 653.04 605.09 672.65
00000626 00000057 353.37 231.99 386.29 565.85 451.23 447.04 633.39 465.73 528.37 579.67 449.65 652.18 601.21 668.96
00000627 00000058 350.33 226.51 385.37 571.32 449.48 445.46 625.37 460.05 526.31 574.67 450.47 650.69 599.44 663.55
00000628 00000059 344.44 223.69 384.19 571.02 444.99 442.72 621.36 452.43 526.07 569.54 450.00 649.10 597.99 658.11
00000629 00000060 338.75 220.79 383.57 571.31 441.80 440.17 615.63 445.27 526.68 563.73 451.58 645.90 599.08 650.74
00000630 00000061 338.73 220.04 383.69 572.11 441.92 440.21 615.50 445.14 526.74 563.68 451.64 646.01 599.12 650.71
00000631 00000062 328.10 217.98 386.56 568.54 435.21 440.20 608.95 440.49 523.96 560.95 450.44 644.07 600.25 644.35
00000632 00000063 323.27 216.48 384.28 566.87 429.48 440.59 604.41 437.63 522.08 560.22 450.38 645.63 599.62 642.76
00000633 00000064 320.21 213.58 381.45 575.64 420.09 442.07 596.97 432.36 517.15 560.28 447.30 649.57 598.96 641.95
00000634 00000065 313.31 213.06 384.63 582.45 419.21 445.90 592.93 434.06 516.69 562.38 448.97 652.38 598.61 642.76
00000635 00000066 313.51 212.90 384.21 582.24 419.15 446.04 593.06 434.22 516.87 562.65 449.01 652.57 598.50 642.94
00000636 00000067 309.02 212.23 383.99 588.51 417.86 446.70 590.28 433.89 518.42 563.27 449.13 654.02 599.62 643.33
00000637 00000068 304.66 214.58 386.25 585.80 415.88 450.99 587.69 435.96 518.66 564.67 449.21 655.45 599.35 642.85
00000638 00000069 299.12 220.00 388.13 579.15 412.68 460.36 585.93 441.91 519.90 570.23 449.54 659.73 599.15 643.96
00000639 00000070 291.93 227.67 388.17 563.97 408.32 473.94 581.62 448.53 521.29 578.19 450.51 665.89 596.75 644.10
00000640 00000071 291.88 226.05 387.67 567.22 408.35 474.15 581.64 448.78 521.81 577.49 449.33 665.48 596.77 643.75
00000641 00000072 290.43 226.75 384.14 564.83 410.35 487.14 582.21 456.30 527.20 583.25 458.64 673.76 599.86 646.91
00000642 00000073 286.52 230.40 381.80 556.59 408.54 496.89 581.88 457.46 531.74 587.88 464.28 680.01 603.68 645.89
00000643 00000074 277.94 231.82 389.60 564.14 410.18 506.20 573.57 463.54 537.74 590.34 470.64 682.37 608.33 646.51
00000644 00000075 274.53 238.19 391.24 559.26 408.30 515.45 571.22 465.98 540.45 597.29 478.55 688.81 613.59 647.15
00000645 00000076 274.54 237.23 390.50 559.02 408.47 515.35 571.07 466.32 539.71 597.46 477.86 687.18 613.17 645.88
00000646 00000077 266.88 237.31 397.50 564.59 403.29 521.85 565.83 467.85 538.14 603.21 477.27 695.48 612.63 649.64
00000647 00000078 264.49 240.62 398.10 564.72 399.35 524.64 561.14 471.12 533.30 605.51 474.77 698.92 610.23 653.08
00000648 00000079 262.57 242.29 397.53 561.89 394.94 529.14 556.51 471.92 528.39 607.37 470.78 700.72 607.40 651.72
00000649 00000080 258.55 244.86 399.07 560.28 390.66 531.23 553.81 471.69 525.74 609.54 470.02 702.06 608.41 650.67
00000650 00000081 258.34 244.42 399.28 560.66 390.66 531.27 553.89 471.77 525.75 609.50 469.87 702.09 608.17 650.74
00000651 00000082 255.84 243.97 399.99 568.68 388.39 529.89 552.03 471.17 523.71 609.17 467.64 705.43 606.45 654.67
00000652 00000083 252.70 245.24 402.74 566.61 387.09 529.52 551.48 470.37 524.13 609.14 465.59 704.59 605.90 653.48
00000653 00000084 252.15 244.50 402.70 559.64 387.58 527.98 551.50 468.90 523.98 607.08 465.33 699.51 604.95 648.50
00000654 00000085 253.31 238.08 402.36 561.89 388.65 523.16 549.28 465.51 522.16 601.23 462.16 690.85 603.47 641.08
00000655 00000086 253.19 237.87 402.86 562.80 388.68 522.98 549.20 465.42 521.98 601.28 461.59 690.57 603.41 640.89
00000656 00000087 247.25 225.08 406.78 572.37 387.69 512.98 546.58 456.31 523.06 586.66 458.75 683.73 600.94 634.65
00000657 DELETE   249.08 229.93 402.46 558.92 383.39 503.92 550.40 443.47 520.41 578.19 457.45 680.45 596.31 628.46
00000658 DELETE   247.93 216.98 400.77 573.69 386.39 474.47 547.76 429.78 513.50 559.41 451.70 662.74 581.30 624.62
00000659 00000090 247.51 208.49 402.45 576.08 380.14 465.65 543.43 420.17 507.83 546.61 447.60 652.71 582.25 613.75
00000660 00000091 247.64 208.11 402.25 575.79 380.44 465.96 542.88 420.04 507.92 545.63 448.38 652.43 582.22 613.16
00000661 00000092 247.66 205.44 398.31 575.14 378.18 454.74 538.83 412.54 504.08 536.94 442.61 641.34 580.14 605.65
00000662 00000093 244.96 204.26 395.97 572.31 371.66 446.43 531.73 406.21 496.66 525.06 435.79 634.46 576.24 600.43
00000663 00000094 244.50 201.06 394.12 569.25 369.74 438.68 527.94 397.66 494.46 518.97 435.49 629.94 576.34 594.92
00000664 00000095 244.78 197.95 394.14 564.19 371.05 433.68 529.12 394.28 494.54 514.92 434.55 623.64 575.52 589.91
00000665 00000096 244.94 198.31 393.75 563.72 371.30 433.56 529.31 394.15 494.87 514.76 434.72 623.52 575.84 589.79
00000666 00000097 244.83 191.63 390.54 559.81 370.05 428.95 527.65 390.66 492.65 507.91 432.95 618.03 571.78 585.50
00000667 00000098 243.13 189.25 390.41 556.21 369.66 422.56 526.34 385.31 491.07 504.59 430.66 612.55 570.10 580.74
00000668 00000099 242.27 187.02 390.23 557.71 370.88 419.51 526.96 382.82 492.52 500.95 430.98 610.14 570.45 578.67
00000669 00000100 241.98 187.42 391.04 558.59 370.83 417.61 526.07 380.13 492.30 499.94 432.42 609.71 571.66 577.34
00000670 00000101 241.95 187.02 390.70 559.13 371.45 417.34 526.33 379.65 493.08 499.86 432.96 609.62 571.94 577.06
00000671 00000102 242.11 187.60 390.41 561.40 371.14 417.32 526.75 380.56 492.62 501.85 431.42 610.75 572.18 578.88
00000672 00000103 242.64 187.65 390.35 564.42 370.39 420.65 525.87 382.72 492.65 502.86 432.32 614.06 573.31 581.33
00000673 00000104 244.03 189.42 389.05 560.93 369.09 425.82 526.42 387.07 491.78 507.90 432.98 618.49 572.40 585.48
00000674 00000105 245.69 191.77 386.03 555.86 370.75 428.22 528.13 389.66 493.79 512.68 433.76 620.07 571.11 587.30
00000675 00000106 245.67 191.74 386.07 555.90 370.75 428.23 528.15 389.69 493.78 512.72 433.74 620.09 571.11 587.33
00000676 00000107 247.15 194.51 387.46 556.85 373.57 430.90 533.37 392.93 497.01 520.61 436.92 625.80 573.44 593.62
00000677 00000108 247.03 195.40 388.44 566.85 375.81 437.44 535.07 398.92 500.63 524.38 437.50 631.27 575.07 598.64
00000678 00000109 248.85 201.10 393.00 569.67 379.32 445.51 542.19 406.50 505.37 537.24 440.50 640.21 576.33 607.64
00000679 00000110 255.70 211.15 392.47 569.52 382.11 454.10 544.73 417.41 502.79 548.51 440.87 649.10 574.46 617.99
00000680 00000111 254.55 213.65 393.86 566.89 381.77 454.41 544.99 417.67 502.71 549.04 440.49 649.66 573.94 618.52
00000681 00000112 252.45 220.72 401.65 577.84 389.20 465.50 552.44 429.64 515.58 566.07 440.07 664.52 584.30 633.48
00000682 00000113 258.23 230.12 401.84 585.90 390.23 483.17 557.08 448.57 517.02 582.30 439.62 677.87 593.58 647.83
00000683 00000114 263.59 245.55 400.42 582.40 393.49 495.26 560.55 461.52 518.29 597.70 446.42 687.51 599.39 658.16
00000684 00000115 268.85 246.91 396.67 584.02 392.70 498.43 565.72 466.93 516.85 606.58 447.41 693.60 601.76 666.25
00000685 00000116 268.98 247.98 396.37 582.77 393.19 498.43 565.79 467.50 516.85 606.05 447.66 693.20 601.29 666.29
00000686 00000117 270.62 243.87 394.56 575.62 395.72 492.28 564.98 460.92 518.61 598.11 449.12 687.72 600.46 660.54
00000687 00000118 273.18 234.36 395.46 566.09 395.00 480.98 566.63 452.32 514.76 586.81 447.63 678.34 593.90 653.78
00000688 00000119 277.92 223.41 389.69 566.46 391.79 465.94 571.41 435.82 513.08 578.82 445.48 668.08 594.76 642.16
00000689 00000120 277.25 208.58 391.48 568.53 389.25 452.23 565.19 423.52 507.14 563.13 444.03 656.20 590.58 631.53
00000690 00000121 277.54 208.93 390.89 568.70 389.29 452.42 565.11 423.65 507.17 563.40 444.05 656.53 590.48 631.83
00000691 00000122 276.99 197.86 388.92 566.05 393.16 440.66 562.43 414.58 507.40 540.48 443.25 636.35 590.70 614.03
00000692 00000123 277.69 194.42 385.76 550.39 387.18 425.07 565.05 396.71 503.57 522.56 437.92 624.98 584.10 600.46
00000693 00000124 282.65 180.83 385.04 549.74 391.50 406.80 568.23 382.81 504.34 506.87 437.72 606.09 585.04 585.83
00000694 00000125 283.37 164.93 380.58 549.70 393.76 389.99 564.82 368.04 503.94 481.64 436.76 586.32 583.63 567.98
00000695 00000126 284.49 166.80 379.28 547.98 394.03 390.10 564.86 368.55 503.34 481.72 436.30 586.30 582.91 568.32
00000696 00000127 285.87 157.19 378.93 542.33 393.85 376.82 567.31 358.81 501.44 466.17 425.59 569.83 581.86 554.91
00000697 00000128 285.26 151.58 380.51 541.81 393.54 368.98 566.08 353.28 497.53 456.22 421.60 559.46 577.40 546.38
00000698 00000129 284.78 147.65 381.99 541.19 397.61 360.63 566.82 348.09 501.05 446.78 422.75 548.20 579.53 537.58
00000699 00000130 284.43 147.62 382.68 539.79 399.58 355.54 566.24 342.58 502.84 439.21 425.75 543.18 581.38 532.24
00000700 00000131 284.72 147.67 382.67 539.71 399.52 355.79 566.30 342.62 502.56 439.34 425.73 543.25 581.54 532.19
00000701 00000132 287.35 147.06 381.45 538.03 400.84 352.29 568.27 339.55 502.17 435.56 426.51 540.80 581.36 530.17
00000702 00000133 285.00 148.88 382.58 531.28 405.41 354.01 564.65 341.07 505.47 430.43 435.44 539.56 575.63 529.14
00000703 00000134 286.43 148.89 380.14 534.38 409.17 354.60 561.86 341.36 508.10 428.04 445.83 542.43 573.53 531.97
00000704 00000135 287.23 146.32 380.91 539.84 409.55 357.03 566.39 344.57 509.79 432.14 446.97 547.95 573.90 538.20
00000705 00000136 287.23 146.36 380.93 539.84 409.60 357.03 566.38 344.61 509.78 432.18 446.99 547.93 573.86 538.21
00000706 00000137 290.25 157.56 383.41 532.94 407.52 364.83 570.89 352.48 508.11 445.55 443.30 554.51 577.37 544.19
00000707 00000138 296.88 163.24 381.36 537.13 409.65 376.61 578.99 361.36 514.92 462.14 444.74 569.64 589.93 556.93
00000708 DELETE   299.17 172.15 389.28 558.79 415.09 389.08 586.76 375.64 520.94 481.41 448.63 586.56 596.09 575.47
00000709 00000140 299.37 186.31 391.82 562.02 418.78 411.46 589.29 400.10 522.32 506.27 447.06 606.48 598.29 596.50
00000710 DELETE   299.17 187.26 392.30 561.18 418.39 411.35 589.84 399.85 522.50 506.08 447.55 606.96 598.59 596.88
00000711 DELETE   307.60 205.50 389.03 568.96 426.47 434.75 599.89 423.77 531.91 533.10 454.66 631.90 605.66 622.34
00000712 00000143 309.61 219.46 393.56 581.56 426.99 457.03 603.92 445.23 531.05 566.31 456.95 660.03 606.35 650.38
00000713 00000144 312.57 241.42 391.25 588.10 433.92 488.10 606.43 477.27 536.90 597.52 460.48 684.22 610.17 674.55
00000714 00000145 317.82 255.82 387.02 589.28 430.46 502.17 602.91 487.19 532.31 620.81 462.29 705.22 607.60 692.57
00000715 00000146 317.70 255.15 387.21 590.64 430.77 502.15 602.96 487.51 532.41 620.82 462.42 705.23 607.39 692.83
00000716 00000147 316.19 266.95 388.03 583.30 430.56 513.07 601.78 496.36 532.15 631.62 465.54 718.26 604.40 704.40
00000717 00000148 316.65 269.35 385.84 571.78 428.52 513.06 601.89 495.35 531.45 634.52 466.30 719.67 603.01 705.13
00000718 00000149 316.63 263.07 385.13 574.39 426.35 507.06 599.59 489.20 528.47 629.05 466.18 715.30 602.33 700.70
00000719 00000150 316.63 253.65 383.57 573.79 425.27 501.53 598.83 483.22 529.05 620.13 465.80 707.54 602.65 692.49
00000720 00000151 316.45 253.70 383.53 573.62 425.22 501.28 598.94 483.07 529.19 619.79 465.83 707.61 602.55 692.64
00000721 00000152 313.40 251.70 384.92 569.62 425.78 495.61 598.35 478.78 528.37 614.40 464.77 702.08 601.25 688.17
00000722 00000153 311.10 247.78 385.92 570.19 426.50 491.61 598.98 475.49 530.28 608.93 464.54 697.65 599.93 684.34
00000723 00000154 308.03 246.42 389.56 568.37 425.19 489.99 597.01 472.95 530.09 605.50 465.38 695.20 599.36 680.98
00000724 00000155 306.43 245.58 387.93 566.98 421.59 488.20 593.19 470.50 526.03 604.77 463.98 694.47 596.39 679.80
00000725 00000156 306.55 245.25 387.93 567.43 421.65 488.26 593.26 470.49 526.13 604.87 464.05 694.52 596.54 679.80
00000726 00000157 303.99 244.61 387.87 567.41 417.56 488.38 587.76 470.28 520.98 603.48 460.59 693.08 594.33 677.96
00000727 00000158 299.31 244.13 386.44 566.02 412.47 485.68 580.75 468.50 515.69 600.59 455.59 688.04 588.54 673.59
00000728 00000159 293.06 236.25 387.10 571.94 405.95 483.00 578.09 466.54 511.71 596.97 447.18 682.38 586.02 668.19
00000729 00000160 288.98 227.72 386.02 575.60 401.27 479.74 575.74 462.87 508.70 592.47 442.77 678.64 583.52 664.20
00000730 00000161 288.91 227.89 386.18 575.53 401.24 479.74 575.67 462.84 508.64 592.40 442.81 678.59 583.49 664.12
00000731 00000162 285.58 227.09 387.23 573.23 397.86 474.09 573.76 457.37 506.06 588.80 441.93 676.68 579.88 662.32
00000732 00000163 283.11 226.29 387.29 575.02 397.28 471.26 571.97 454.75 504.91 586.55 442.27 677.50 576.47 663.35
00000733 00000164 281.13 226.90 386.03 576.16 397.26 469.87 570.80 453.57 505.47 584.81 442.74 679.36 573.70 665.48
00000734 00000165 279.22 226.53 386.93 576.55 396.81 470.58 570.33 453.63 506.36 585.31 442.69 680.16 574.74 665.71
00000735 00000166 279.26 226.81 386.93 576.41 396.81 470.75 570.16 453.78 506.24 585.09 442.78 680.23 574.70 665.76
00000736 00000167 279.89 227.60 386.32 576.17 396.85 470.37 569.92 453.07 506.36 585.35 443.34 681.23 575.52 666.48
00000737 00000168 280.16 229.59 385.76 578.14 398.94 471.89 569.28 454.09 508.13 586.60 446.01 685.53 574.34 670.61
00000738 00000169 281.36 234.30 383.56 580.13 400.09 476.38 568.11 458.03 508.08 591.02 447.58 691.00 574.67 675.67
CROP_BBOX: 8 0 993 991
