Video ID: 	vktOvz0EiPs
H: 	1080
W: 	1920
FPS: 	25.0

FRAME INDEX X0 Y0 W H [Landmarks (5 Points)]

00002434 00000000 793.81 181.16 399.12 558.68 902.04 416.14 1073.30 415.32 990.66 527.43 923.99 605.21 1066.15 604.37
00002435 DELETE   790.13 173.14 404.25 568.75 906.66 409.60 1082.04 404.58 1005.30 522.78 930.46 603.54 1076.43 598.93
00002436 00000002 788.73 168.74 402.91 572.03 908.00 398.61 1087.28 393.57 1013.67 516.46 933.18 598.39 1084.06 593.56
00002437 00000003 784.23 166.50 407.19 571.60 903.24 385.16 1084.91 380.58 1009.72 509.44 931.94 594.12 1076.84 589.63
00002438 00000004 778.35 166.95 405.67 566.98 893.30 378.34 1075.05 375.61 997.34 503.12 921.64 591.80 1060.73 588.48
00002439 00000005 775.81 167.61 400.49 563.69 879.75 372.35 1061.46 375.40 973.43 496.80 901.70 585.60 1041.28 587.48
00002440 00000006 774.26 168.79 396.59 558.99 869.02 369.89 1049.35 375.74 956.20 488.13 886.82 578.91 1027.49 583.70
00002441 00000007 776.99 171.84 390.75 551.55 864.72 367.04 1041.63 374.84 942.57 485.06 879.96 573.84 1018.68 580.48
00002442 00000008 776.38 171.83 389.74 549.93 860.58 366.21 1037.93 374.06 937.08 483.48 875.55 572.55 1014.20 579.34
00002443 00000009 776.76 172.01 389.89 548.51 861.49 365.32 1037.80 372.89 937.90 481.78 876.64 571.15 1015.17 577.57
00002444 00000010 778.52 170.72 390.81 549.31 865.61 363.91 1042.93 370.39 944.18 481.47 883.02 570.69 1021.14 575.91
00002445 00000011 779.97 165.97 392.38 554.73 872.78 362.86 1051.07 366.17 958.93 480.31 892.98 572.53 1031.42 575.00
00002446 00000012 780.82 168.58 398.42 551.04 882.03 359.35 1060.50 359.85 974.68 476.69 907.61 571.52 1042.38 571.30
00002447 00000013 784.91 159.99 399.44 559.50 893.80 358.93 1074.98 355.97 994.86 474.59 922.46 572.99 1058.61 569.02
00002448 00000014 790.19 154.85 396.70 563.69 902.69 357.37 1083.64 353.91 1008.15 473.52 930.57 571.43 1069.03 566.85
00002449 00000015 792.95 153.51 396.23 563.64 906.50 354.15 1087.60 352.16 1011.25 469.10 931.90 567.64 1071.12 564.62
00002450 00000016 792.84 150.47 397.71 564.09 905.05 351.03 1086.35 349.89 1006.74 465.53 929.29 565.41 1065.75 563.06
00002451 00000017 790.13 148.16 401.03 563.52 899.97 347.68 1083.43 346.56 999.55 461.93 924.63 564.11 1059.26 561.92
00002452 00000018 792.39 146.17 399.02 563.53 895.83 343.96 1080.41 344.63 989.79 458.87 917.50 561.61 1052.05 561.40
00002453 00000019 791.88 143.93 400.22 565.04 893.15 340.99 1078.38 342.48 985.11 456.20 914.03 559.46 1049.02 560.00
00002454 00000020 791.28 141.47 401.27 566.55 893.27 340.93 1079.24 341.22 987.21 455.66 915.53 558.84 1051.20 558.19
00002455 00000021 788.62 140.59 404.28 567.41 896.18 340.95 1082.73 339.35 996.10 456.12 922.02 559.82 1057.85 556.96
00002456 00000022 788.15 136.94 406.22 572.51 899.30 342.97 1084.26 337.58 1003.01 456.50 929.10 561.30 1065.37 554.92
00002457 00000023 787.29 135.91 408.21 575.07 901.06 343.82 1087.12 335.77 1009.22 459.11 933.11 562.20 1072.17 553.42
00002458 00000024 785.77 136.53 409.84 575.33 900.20 344.07 1086.31 335.54 1008.46 458.21 932.86 562.51 1072.07 553.30
00002459 00000025 784.97 137.03 409.42 576.08 897.63 342.29 1084.87 336.86 1002.83 455.56 928.28 562.65 1066.66 556.02
00002460 00000026 784.48 136.17 408.08 577.36 893.72 341.73 1080.83 337.87 995.42 454.10 921.39 561.78 1059.56 556.86
00002461 00000027 783.94 137.01 409.14 578.74 889.14 340.32 1076.62 337.95 986.97 453.27 915.21 561.55 1053.94 558.21
00002462 00000028 781.40 140.84 411.18 577.56 887.17 340.30 1074.27 337.66 984.55 453.73 913.84 562.55 1052.63 558.87
00002463 00000029 779.92 138.72 414.22 581.50 887.07 341.80 1074.66 337.87 985.93 454.57 915.38 564.90 1054.95 559.97
00002464 00000030 781.46 136.52 413.39 584.41 888.55 344.32 1077.36 339.66 988.97 456.58 916.98 567.39 1058.24 561.72
00002465 00000031 782.15 140.21 413.91 581.89 890.20 345.80 1078.58 340.78 991.67 458.04 919.88 568.40 1060.91 562.29
00002466 00000032 782.03 141.99 414.99 582.01 889.87 346.84 1077.69 341.44 990.48 458.54 919.76 569.68 1060.96 563.29
00002467 00000033 781.30 141.85 416.31 583.39 888.01 348.04 1076.84 342.07 988.59 460.02 917.43 572.10 1059.67 565.42
00002468 00000034 779.48 143.95 417.82 582.90 885.76 347.46 1075.02 341.23 986.24 460.88 915.44 572.33 1058.27 565.36
00002469 00000035 779.37 144.60 418.73 582.48 886.12 348.06 1075.13 341.76 986.68 460.95 915.79 572.70 1058.67 565.66
00002470 00000036 780.62 141.44 419.78 584.63 888.77 349.61 1078.42 343.21 991.66 462.61 919.91 573.64 1062.97 566.31
00002471 00000037 781.13 140.13 419.99 585.45 890.95 350.00 1081.94 343.25 996.60 463.99 923.46 574.25 1067.65 566.53
00002472 00000038 782.74 139.94 419.35 585.66 890.90 350.48 1081.85 342.88 995.50 463.68 922.61 574.53 1067.48 566.21
00002473 00000039 782.43 141.67 420.30 584.38 888.96 350.62 1079.96 343.51 991.32 463.03 919.55 574.38 1064.22 566.63
00002474 00000040 780.38 144.83 420.66 582.46 885.98 349.74 1076.06 343.07 986.46 461.56 915.84 573.99 1059.47 566.77
00002475 00000041 780.31 145.83 420.31 582.14 884.78 349.50 1074.75 342.71 984.73 460.81 914.64 573.97 1058.63 566.73
00002476 00000042 779.40 146.24 422.43 582.41 886.00 349.56 1076.78 342.83 987.57 461.08 916.89 574.49 1060.98 567.12
00002477 00000043 782.71 139.96 420.81 586.83 889.83 350.34 1080.57 342.70 993.40 462.18 922.09 574.72 1066.74 566.50
00002478 00000044 784.00 138.94 421.20 588.54 892.88 351.74 1083.20 344.19 996.95 463.19 924.70 574.59 1070.33 566.47
00002479 00000045 785.78 139.01 420.00 589.82 893.70 351.62 1083.64 344.71 996.99 463.26 924.38 574.82 1069.79 567.33
00002480 00000046 785.56 141.31 420.68 589.60 893.16 352.60 1081.87 346.36 994.42 464.71 922.53 576.36 1065.85 569.45
00002481 00000047 786.24 146.04 418.97 586.99 892.96 353.96 1082.04 348.22 992.34 466.45 921.49 577.95 1063.95 571.67
00002482 00000048 787.53 149.61 418.91 587.95 895.67 354.84 1084.82 349.89 995.70 469.56 922.99 579.39 1067.83 573.61
00002483 00000049 791.25 149.29 418.10 591.03 901.80 357.71 1089.62 352.84 1004.40 472.90 928.42 580.52 1075.38 574.97
00002484 00000050 794.99 151.05 418.71 594.01 909.81 360.08 1098.45 355.09 1015.33 475.90 935.86 582.91 1086.86 577.32
00002485 00000051 797.76 152.10 414.95 595.38 913.36 362.82 1102.22 358.09 1020.29 477.87 939.12 585.36 1091.85 580.26
00002486 00000052 796.66 153.53 415.06 595.56 912.14 364.69 1100.29 360.92 1017.71 481.21 938.08 587.18 1089.46 582.51
00002487 00000053 795.18 155.85 415.36 593.89 909.49 365.86 1096.43 363.33 1011.93 482.52 934.06 587.47 1084.00 583.94
00002488 00000054 793.14 155.68 417.34 593.16 906.08 366.13 1091.49 364.27 1005.79 482.62 928.78 586.66 1077.18 583.78
00002489 00000055 792.64 156.15 416.96 591.97 905.48 366.26 1090.57 364.63 1004.94 482.68 928.17 586.39 1076.38 583.75
00002490 00000056 793.17 156.30 415.38 592.07 906.35 366.24 1091.64 363.75 1007.56 482.11 929.93 586.72 1078.94 583.35
00002491 00000057 792.19 156.99 415.14 591.04 906.67 365.58 1093.61 362.49 1010.13 481.11 931.45 586.96 1081.24 583.06
00002492 00000058 791.35 156.39 414.90 591.13 905.37 365.99 1091.86 362.70 1008.90 480.65 930.96 587.15 1080.00 583.05
00002493 00000059 788.71 156.41 415.93 590.81 901.53 366.32 1087.57 364.01 1003.19 482.37 926.68 587.70 1074.12 584.36
00002494 00000060 787.14 157.00 416.41 589.67 896.91 366.59 1084.40 364.31 996.85 481.84 922.09 588.22 1071.16 584.77
00002495 00000061 785.79 155.99 416.84 592.83 896.67 366.74 1084.59 364.65 996.39 481.52 922.12 589.28 1071.35 586.01
00002496 00000062 785.69 156.06 415.74 594.14 897.46 365.77 1085.35 363.08 998.64 480.11 923.07 589.71 1073.00 585.81
00002497 00000063 785.94 154.96 414.06 596.76 894.73 361.29 1083.67 358.54 994.02 474.40 918.78 588.49 1070.81 584.86
00002498 00000064 783.54 155.09 417.25 583.53 890.54 355.44 1079.10 353.99 985.38 464.94 913.85 580.46 1056.88 577.91
00002499 00000065 783.06 152.60 418.07 579.20 886.67 354.13 1075.13 352.50 978.10 459.36 907.74 572.80 1054.77 570.34
00002500 00000066 782.49 155.25 414.92 570.84 883.54 351.72 1071.10 348.01 975.29 456.19 909.38 572.76 1047.95 568.67
00002501 00000067 783.21 158.14 410.69 571.88 878.66 363.32 1058.11 356.28 965.98 460.74 903.76 574.97 1044.74 568.94
00002502 00000068 783.87 166.32 404.66 560.08 870.63 372.32 1038.82 365.18 942.15 462.16 893.97 568.77 1031.31 562.90
00002503 00000069 776.57 163.30 404.33 566.02 855.49 379.47 1025.15 370.69 924.45 469.81 883.19 575.59 1022.57 568.25
00002504 00000070 768.09 160.61 406.33 568.17 835.78 374.87 1010.50 365.64 901.30 473.83 870.16 581.74 1005.25 574.09
00002505 DELETE   758.06 160.13 406.71 570.31 820.44 381.02 985.30 366.24 879.61 481.59 864.09 588.89 988.14 576.51
00002506 00000072 748.94 170.31 408.90 563.61 807.90 387.42 972.63 365.17 867.93 484.79 858.44 596.35 979.91 577.58
00002507 00000073 740.02 170.75 411.93 564.61 803.00 393.25 956.37 368.62 853.18 492.50 851.51 596.48 974.22 574.69
00002508 00000074 735.41 175.97 410.03 561.75 795.81 396.89 944.57 371.15 843.55 495.96 845.90 599.33 968.44 576.88
00002509 00000075 729.25 183.66 415.35 553.35 791.75 399.37 941.15 374.79 840.81 499.51 842.34 600.88 963.75 579.86
00002510 00000076 725.24 184.20 417.06 554.34 788.41 402.67 938.51 376.78 838.39 501.58 840.52 603.31 962.65 581.29
00002511 00000077 722.13 182.62 417.22 555.55 784.95 402.41 933.73 377.77 834.46 503.72 838.96 603.88 959.53 582.84
00002512 00000078 721.01 185.11 414.68 552.59 781.12 403.03 927.27 380.33 827.01 503.26 833.65 604.46 950.66 585.68
00002513 00000079 723.00 185.39 406.55 550.65 777.75 405.47 916.82 384.68 815.30 506.98 829.59 605.73 943.48 588.50
00002514 00000080 722.88 186.52 403.08 546.64 775.40 405.14 913.88 386.95 809.59 509.67 825.76 604.85 939.94 589.72
00002515 00000081 723.60 186.70 402.75 547.29 775.48 405.81 913.22 387.00 810.22 511.64 827.52 606.02 940.86 590.21
00002516 00000082 722.52 187.05 409.41 549.06 776.67 406.77 916.31 384.63 814.97 512.20 831.99 607.28 948.76 588.40
00002517 00000083 723.02 186.94 410.17 553.44 778.61 406.28 917.86 384.48 816.15 511.61 834.19 608.33 950.83 589.39
00002518 00000084 723.95 185.76 407.81 559.71 777.87 406.35 915.47 384.30 812.21 513.49 833.95 610.50 950.85 591.06
00002519 00000085 723.91 180.47 407.43 569.74 777.87 401.78 914.94 380.21 810.24 508.58 834.99 610.45 951.92 591.40
00002520 00000086 723.20 176.72 409.16 569.45 777.22 398.43 917.70 376.09 814.00 504.41 835.26 609.26 951.35 590.20
00002521 00000087 723.62 172.86 414.63 561.68 775.65 395.54 922.53 373.14 816.77 499.12 828.46 601.00 950.41 582.00
00002522 00000088 727.36 175.98 416.99 555.79 780.41 392.10 927.57 369.55 821.49 494.13 831.57 594.52 954.33 575.09
00002523 00000089 736.50 165.01 419.76 571.61 790.68 387.13 943.60 361.80 832.12 489.26 844.95 596.97 963.94 575.10
00002524 00000090 748.71 160.58 418.56 574.37 803.94 382.06 954.83 360.57 844.96 488.81 858.46 593.19 973.58 575.46
00002525 00000091 754.70 162.30 420.95 563.00 811.53 388.27 966.09 361.34 854.74 485.76 864.08 589.82 978.97 567.60
00002526 00000092 760.14 161.09 421.61 563.28 812.80 389.10 967.25 361.52 852.69 484.69 862.71 591.65 975.08 569.36
00002527 00000093 764.11 159.98 418.73 567.72 813.27 391.02 963.47 363.91 848.88 487.61 860.66 594.30 972.54 572.60
00002528 00000094 766.39 164.57 415.78 567.88 815.84 394.05 962.11 368.65 847.87 491.45 864.65 598.67 972.53 578.31
00002529 00000095 770.25 167.28 415.58 570.55 820.30 396.62 967.88 371.43 853.69 493.32 872.23 598.94 982.16 578.49
00002530 00000096 775.95 169.98 411.07 570.16 825.48 392.21 974.41 375.48 859.25 498.17 873.27 603.55 995.22 588.62
00002531 00000097 776.34 170.28 411.19 569.77 828.85 389.42 981.46 374.76 869.45 502.15 877.67 602.78 1002.77 589.41
00002532 00000098 774.24 172.82 414.59 569.23 827.87 393.10 982.01 377.44 869.98 504.22 877.27 604.15 1004.04 589.62
00002533 00000099 768.44 176.73 418.85 564.58 820.77 401.01 977.94 380.63 862.85 505.96 873.66 599.54 991.61 582.73
00002534 00000100 760.19 178.22 418.45 567.10 809.94 404.84 957.70 388.07 846.09 511.69 861.85 602.69 972.81 588.39
00002535 00000101 748.73 179.96 417.80 569.80 793.88 405.48 939.92 391.32 824.48 516.22 848.84 605.44 962.14 592.58
00002536 00000102 737.18 184.15 421.87 565.63 784.17 409.24 935.05 392.59 821.21 519.48 841.77 610.08 958.56 595.18
00002537 00000103 729.38 182.71 427.75 566.97 779.84 411.21 935.34 394.04 822.02 522.80 840.68 612.27 960.09 596.81
00002538 00000104 724.64 183.84 429.88 566.40 776.87 413.71 932.48 395.86 820.35 526.60 839.63 614.35 958.68 598.21
00002539 00000105 724.07 184.57 427.11 567.67 775.59 414.22 930.54 396.40 817.87 527.40 836.83 615.33 955.91 599.12
00002540 00000106 721.53 185.66 428.98 567.95 773.52 414.93 930.53 395.15 818.18 527.92 835.76 616.68 956.16 598.99
00002541 00000107 720.35 185.86 429.65 569.96 773.25 414.26 930.70 394.40 817.92 527.62 835.53 617.15 956.11 599.41
00002542 00000108 721.38 181.42 428.70 575.19 774.16 414.21 930.34 393.93 817.65 525.65 836.36 616.88 956.75 598.75
00002543 00000109 722.36 183.57 428.07 573.14 774.82 413.22 931.12 392.94 818.89 525.04 836.17 616.65 956.17 598.57
00002544 00000110 723.55 185.26 428.13 571.30 775.82 413.28 931.92 392.31 820.63 524.29 837.44 616.40 957.54 597.76
00002545 00000111 722.62 184.78 431.52 571.29 775.52 413.13 933.83 391.93 822.59 524.25 838.62 616.21 959.89 597.42
00002546 00000112 722.63 185.12 432.68 569.59 776.02 414.23 935.22 392.57 825.09 524.03 840.59 615.90 962.07 596.76
00002547 00000113 722.74 182.80 436.22 571.67 777.30 415.46 940.44 392.31 832.53 524.13 844.52 617.36 967.93 597.06
00002548 00000114 726.66 189.11 436.45 563.67 782.60 418.52 947.40 393.38 844.25 526.97 849.37 615.11 976.38 593.60
00002549 00000115 732.58 188.27 435.33 564.76 787.69 418.34 956.19 393.80 851.30 527.92 850.17 615.79 982.17 595.23
00002550 00000116 733.79 191.55 434.94 561.27 788.77 418.22 953.55 396.11 848.09 527.66 849.88 615.54 977.57 597.03
00002551 00000117 733.17 193.64 433.40 560.05 785.58 420.42 944.95 400.08 837.92 529.85 845.02 616.07 970.91 598.73
00002552 00000118 731.65 195.11 433.13 559.66 782.47 420.40 941.42 402.35 830.19 530.70 840.22 617.07 965.78 601.64
00002553 00000119 729.70 194.70 435.11 561.32 781.92 421.21 941.99 403.16 830.47 531.97 839.88 618.12 966.61 602.68
00002554 00000120 730.18 194.19 435.45 564.60 782.67 421.66 944.18 404.80 831.61 534.54 839.25 619.30 968.91 604.91
00002555 00000121 730.30 197.06 435.71 565.42 783.66 422.07 944.65 406.60 831.18 537.63 838.41 620.66 970.04 607.36
00002556 00000122 729.32 198.53 436.42 564.80 782.49 422.01 944.99 406.87 831.28 539.52 836.78 621.88 970.55 608.84
00002557 00000123 727.00 193.82 439.46 568.23 782.42 421.46 945.41 405.34 833.59 538.05 840.48 623.42 970.54 609.70
00002558 00000124 729.04 185.63 435.64 582.16 788.40 416.23 947.50 399.75 839.94 530.61 850.91 627.75 965.78 613.80
00002559 00000125 733.18 179.34 440.88 590.08 791.13 412.23 956.80 394.91 846.33 526.67 853.10 631.33 964.90 617.05
00002560 00000126 745.03 175.47 436.33 584.77 801.02 407.80 973.61 389.03 857.44 519.76 856.83 627.61 967.26 612.76
00002561 DELETE   758.25 166.16 431.99 582.35 821.53 401.57 996.78 386.71 875.65 510.03 869.36 616.16 983.51 604.59
00002562 DELETE   772.14 164.36 432.60 591.17 847.11 392.45 1022.31 376.95 913.80 503.12 891.16 614.76 1018.59 601.49
00002563 00000129 787.66 159.48 432.72 597.70 874.33 379.07 1057.36 364.51 947.68 492.12 915.31 606.49 1046.90 592.55
CROP_BBOX: 458 0 1557 1033
