Video ID: 	E0encwKB9wY
H: 	1080
W: 	1920
FPS: 	29.97002997002997

FRAME INDEX X0 Y0 W H [Landmarks (5 Points)]

00000810 00000000 769.56 90.36 528.20 713.33 865.59 322.02 1068.08 407.54 858.22 499.57 835.55 576.15 1023.67 645.48
00000811 00000001 769.68 90.60 528.46 713.08 865.42 322.11 1067.76 407.55 858.00 499.50 835.74 576.36 1023.66 645.60
00000812 DELETE   778.47 81.59 517.04 716.48 854.66 310.76 1067.28 390.62 857.24 492.91 834.09 574.65 1032.32 638.78
00000813 00000003 778.95 90.11 508.48 702.68 856.45 308.43 1068.93 384.99 861.62 490.42 835.42 571.78 1031.80 633.51
00000814 DELETE   782.70 94.71 505.52 696.67 860.23 308.64 1070.05 383.78 865.07 492.06 839.45 571.29 1033.07 632.05
00000815 00000005 786.91 79.81 507.06 719.52 861.74 310.39 1074.34 385.77 867.31 497.90 841.87 577.19 1037.69 638.26
00000816 00000006 786.78 81.42 507.18 717.70 861.78 310.43 1074.22 385.75 867.38 497.99 842.02 577.06 1037.58 638.07
00000817 00000007 792.46 92.69 515.76 711.80 868.25 315.86 1079.40 391.62 874.08 506.70 848.16 582.77 1040.49 643.83
00000818 DELETE   793.63 108.92 521.04 699.43 877.74 323.47 1084.65 402.09 878.05 520.08 859.89 586.29 1040.78 649.34
00000819 00000009 799.71 110.31 519.05 704.18 879.35 326.86 1091.31 406.29 882.28 527.01 862.05 593.93 1049.20 657.48
00000820 00000010 801.87 110.52 516.54 702.66 880.95 327.96 1094.02 404.87 887.27 527.05 865.78 596.11 1051.72 657.67
00000821 00000011 802.05 110.76 516.28 702.30 880.86 328.06 1094.01 404.69 887.33 527.09 865.93 596.41 1051.88 657.74
00000822 DELETE   801.36 110.75 516.42 699.00 881.16 322.97 1093.89 397.43 887.94 522.48 866.33 592.36 1047.87 652.13
00000823 00000013 805.88 96.90 509.85 706.48 883.92 316.84 1088.87 387.92 889.69 508.54 865.78 588.13 1046.51 645.98
00000824 00000014 806.79 97.38 505.34 705.22 882.88 313.27 1087.74 381.62 886.46 505.40 865.01 587.23 1044.43 643.43
00000825 DELETE   808.50 98.60 504.44 706.26 882.14 315.20 1086.35 381.33 884.31 504.88 865.30 590.15 1043.20 644.51
00000826 00000016 807.98 98.96 504.82 705.87 882.25 315.25 1086.54 381.62 884.58 504.81 865.21 589.83 1043.21 644.37
00000827 00000017 802.60 105.98 515.01 703.77 881.14 318.89 1088.31 391.64 883.43 515.86 866.69 591.62 1038.18 650.43
00000828 00000018 812.72 102.26 511.94 718.28 883.62 340.30 1093.01 406.34 885.21 521.51 869.53 613.76 1037.94 666.45
00000829 DELETE   824.53 89.54 509.92 733.18 889.61 339.19 1092.18 410.42 887.28 529.69 875.42 620.55 1032.36 679.70
00000830 00000020 823.02 100.30 502.77 726.43 890.09 349.17 1091.63 415.72 889.53 534.74 876.92 629.26 1031.26 684.58
00000831 00000021 822.87 99.49 503.94 727.26 889.98 349.17 1091.82 416.07 889.32 534.75 876.87 629.49 1031.45 685.05
00000832 DELETE   820.68 110.35 500.39 722.57 883.24 354.57 1083.69 418.22 882.26 540.41 875.41 638.50 1032.67 691.34
00000833 00000023 820.49 113.33 499.78 717.89 882.62 356.11 1080.02 418.24 878.76 541.91 877.99 639.99 1034.53 691.37
00000834 DELETE   817.55 101.52 503.50 727.39 876.26 357.55 1078.09 418.69 876.57 545.06 874.54 641.62 1035.33 692.58
00000835 00000025 814.61 104.28 504.93 722.40 875.61 357.30 1074.11 418.62 871.98 544.30 872.58 636.90 1035.05 687.18
00000836 00000026 813.81 104.51 503.77 719.78 877.26 357.01 1074.72 418.39 873.90 543.41 872.98 634.99 1035.12 685.37
00000837 00000027 809.56 97.90 500.61 725.25 873.73 355.85 1072.98 417.37 871.60 542.53 868.48 632.41 1035.36 682.87
00000838 00000028 804.05 93.76 502.20 727.02 871.14 354.85 1072.73 418.67 870.19 541.64 863.43 627.75 1033.30 680.14
00000839 00000029 802.64 93.64 499.89 725.27 869.77 353.24 1070.97 418.08 869.04 541.81 862.77 625.39 1033.84 678.50
00000840 00000030 802.19 94.56 500.11 723.81 869.76 353.84 1070.94 418.62 869.74 542.01 862.75 625.14 1033.28 678.21
00000841 00000031 802.04 94.29 499.76 724.23 869.64 353.82 1070.83 418.56 869.81 542.05 862.76 625.22 1033.57 678.22
00000842 00000032 801.00 97.65 505.43 720.94 869.81 354.55 1070.76 418.25 870.05 541.62 863.18 625.13 1033.30 677.11
00000843 00000033 801.53 97.17 502.65 721.84 869.34 353.87 1070.59 418.14 870.24 543.44 863.83 625.77 1035.19 678.28
00000844 00000034 802.82 99.44 501.88 720.01 870.86 354.28 1070.68 417.85 870.80 543.45 865.42 625.42 1036.00 677.23
00000845 00000035 804.63 99.80 498.80 718.87 872.15 352.20 1071.51 418.01 871.52 544.83 866.57 622.39 1038.31 675.88
00000846 00000036 804.56 99.41 498.82 718.90 871.54 352.68 1071.44 417.35 872.28 545.01 866.67 623.12 1038.44 675.70
00000847 00000037 805.04 101.66 502.17 715.07 872.51 350.08 1073.34 416.24 872.94 543.99 867.37 619.28 1040.29 672.82
00000848 00000038 797.98 109.38 512.41 707.63 866.19 347.86 1073.54 410.68 872.89 543.79 868.68 618.20 1038.82 667.78
00000849 00000039 808.76 98.04 503.73 715.72 875.28 346.74 1072.85 410.99 874.89 540.96 872.21 614.39 1043.89 666.32
00000850 00000040 812.85 98.92 506.97 713.83 876.87 346.27 1075.34 408.70 877.63 541.23 875.33 613.93 1047.38 664.40
00000851 00000041 812.64 99.51 506.06 713.08 876.71 346.52 1074.87 408.65 877.58 541.02 875.27 614.10 1047.16 664.37
00000852 00000042 820.58 101.90 502.51 708.04 883.03 346.55 1079.23 409.38 881.80 539.27 881.42 613.81 1048.78 664.70
00000853 00000043 825.42 96.87 502.03 711.70 886.91 345.02 1085.71 409.52 888.16 538.96 884.86 612.15 1052.46 664.53
00000854 00000044 822.41 113.38 515.44 701.47 882.80 351.60 1093.85 413.43 892.27 541.97 885.65 616.62 1060.27 665.15
00000855 00000045 832.10 104.82 512.78 702.05 893.90 344.32 1097.30 409.77 898.04 538.96 893.26 611.15 1058.59 664.36
00000856 00000046 832.15 104.64 515.56 701.88 894.65 343.86 1097.65 409.62 897.99 538.46 893.73 611.50 1057.80 664.95
00000857 00000047 834.53 104.86 515.20 700.45 900.28 344.07 1102.13 408.63 904.16 537.27 900.06 613.16 1060.64 665.64
00000858 00000048 831.63 112.57 520.95 701.72 896.14 349.65 1109.31 413.60 906.27 539.30 900.80 618.63 1069.77 669.42
00000859 00000049 835.94 109.31 524.80 706.27 901.77 350.77 1111.50 412.58 910.30 539.22 907.29 621.78 1072.54 671.02
00000860 00000050 836.49 104.84 525.42 711.43 911.48 340.29 1112.51 405.67 913.63 541.47 910.44 616.91 1071.44 670.27
00000861 00000051 836.72 105.19 524.40 711.68 912.31 340.13 1112.81 405.27 914.25 540.82 910.76 617.18 1071.33 670.40
00000862 00000052 842.78 105.71 516.52 711.22 917.86 339.05 1116.88 406.02 918.73 541.04 915.47 615.36 1075.57 670.10
00000863 00000053 845.02 108.10 513.93 708.24 920.90 338.34 1121.44 408.05 922.34 541.08 916.14 612.59 1080.68 669.23
00000864 00000054 848.43 118.15 512.07 697.57 925.67 336.68 1127.21 408.47 927.63 541.72 919.04 608.41 1087.22 666.81
00000865 00000055 852.10 115.46 517.18 700.13 928.90 337.73 1129.42 407.41 927.79 540.68 922.44 609.76 1090.38 666.55
00000866 00000056 851.75 116.17 516.45 699.37 928.89 337.60 1129.60 407.40 928.01 540.27 922.08 609.90 1090.12 666.82
00000867 00000057 862.86 105.44 508.23 707.72 934.02 346.62 1130.72 414.31 931.31 539.78 929.29 609.36 1100.94 664.08
00000868 00000058 864.73 106.53 511.26 707.51 935.55 348.41 1133.33 413.37 934.17 539.61 930.81 612.66 1101.46 665.37
00000869 00000059 865.97 107.44 508.99 707.29 935.86 350.24 1132.55 414.67 934.59 541.17 932.72 614.35 1103.68 666.61
00000870 00000060 868.49 104.39 504.51 709.78 937.88 349.80 1134.95 415.33 935.91 540.91 932.86 613.71 1104.22 667.09
00000871 00000061 868.80 104.31 505.02 710.47 938.15 349.67 1134.94 415.21 935.72 540.82 933.29 614.11 1104.07 667.54
00000872 00000062 870.68 105.58 498.00 707.93 939.62 347.99 1135.65 413.51 937.38 541.66 934.78 612.05 1106.31 665.51
00000873 00000063 871.27 103.22 499.32 710.51 939.68 346.34 1138.66 411.58 939.93 541.74 934.79 611.22 1106.92 664.37
00000874 00000064 872.03 105.30 502.71 707.21 941.58 344.21 1138.06 410.51 939.30 540.19 936.42 607.80 1107.36 661.69
00000875 00000065 872.77 104.13 494.98 708.53 940.74 343.26 1138.68 407.43 941.28 539.00 935.83 608.42 1109.40 660.49
00000876 00000066 872.16 108.04 497.18 705.65 940.60 342.55 1138.95 408.28 940.07 540.32 935.84 607.29 1108.91 660.75
00000877 00000067 874.41 105.25 492.45 708.99 942.02 341.19 1140.59 405.08 942.29 539.52 937.28 608.32 1111.05 660.28
00000878 00000068 879.92 103.95 500.37 710.85 945.20 341.73 1142.51 405.50 943.63 540.29 942.45 609.31 1112.78 661.23
00000879 00000069 876.35 105.46 500.25 707.52 940.00 340.77 1145.33 402.72 949.52 543.49 944.77 610.44 1113.15 659.63
00000880 00000070 878.95 108.14 502.85 706.99 940.94 345.33 1147.74 406.07 951.73 547.17 947.15 615.77 1115.89 663.95
00000881 00000071 879.48 108.71 499.22 709.16 946.58 354.50 1149.67 410.75 953.21 543.06 946.22 618.84 1117.03 662.64
00000882 00000072 879.50 112.59 500.16 705.52 944.61 348.40 1148.05 411.33 953.80 549.82 949.33 617.59 1117.67 667.50
00000883 00000073 881.88 122.80 498.65 697.74 947.07 352.60 1150.65 416.85 956.15 552.97 948.86 619.90 1120.00 670.79
00000884 00000074 891.11 115.95 499.31 705.83 955.58 353.75 1157.60 423.23 958.98 553.40 953.77 624.89 1121.36 681.18
00000885 00000075 884.55 130.99 501.35 694.39 952.33 355.32 1163.98 424.72 960.16 558.60 948.89 625.53 1121.95 680.77
00000886 00000076 884.19 131.27 501.47 694.06 952.13 355.34 1163.95 424.70 959.97 558.80 948.82 625.40 1122.29 680.62
00000887 00000077 884.06 126.64 503.11 699.15 953.57 355.56 1164.88 426.98 960.53 559.23 949.07 624.44 1121.97 681.26
00000888 00000078 884.33 120.49 509.40 703.30 952.81 352.16 1166.92 424.89 959.41 558.45 948.07 622.84 1120.69 680.89
00000889 00000079 891.31 103.43 502.40 715.91 957.17 348.80 1160.37 421.25 958.80 549.15 951.76 619.48 1120.75 678.28
00000890 00000080 881.50 118.16 500.84 700.93 949.02 348.05 1154.13 418.13 955.67 552.12 946.95 616.17 1117.55 671.82
00000891 00000081 881.46 118.14 500.70 700.98 949.03 348.09 1153.98 418.21 955.59 552.08 947.02 616.15 1117.56 671.83
00000892 00000082 884.21 106.98 501.45 708.24 945.71 345.38 1152.57 411.46 953.72 549.93 946.82 617.25 1115.51 669.77
00000893 00000083 888.52 100.33 491.90 712.99 949.58 345.07 1151.35 405.67 954.74 540.96 946.12 615.86 1114.76 666.16
00000894 00000084 877.37 103.87 514.45 717.67 945.73 343.91 1152.39 404.99 955.80 539.88 941.08 620.39 1109.76 669.46
00000895 00000085 873.18 109.31 513.93 702.76 940.93 338.44 1147.62 403.27 946.69 538.60 940.71 607.95 1108.01 659.59
00000896 00000086 873.18 109.22 513.92 702.82 940.91 338.43 1147.59 403.26 946.66 538.58 940.71 607.94 1108.00 659.58
00000897 00000087 871.00 109.08 507.15 699.52 939.09 336.06 1147.30 401.32 945.25 536.97 939.08 607.27 1106.86 659.47
00000898 00000088 870.28 115.27 512.81 694.45 938.59 338.19 1145.71 400.30 944.75 535.56 939.11 609.79 1104.42 659.43
00000899 00000089 868.33 104.90 502.42 710.10 935.90 333.46 1140.87 391.36 940.75 531.66 932.11 614.96 1100.39 663.02
00000900 00000090 875.22 107.04 498.87 703.81 939.79 340.12 1139.09 397.16 941.14 529.98 936.76 615.38 1099.77 662.72
00000901 00000091 874.47 109.93 497.77 700.45 939.11 340.14 1140.27 395.82 943.09 530.17 936.41 616.14 1100.12 662.57
00000902 00000092 880.99 101.34 487.61 711.88 940.68 342.53 1141.09 394.32 946.90 530.41 937.23 624.71 1097.08 668.63
00000903 00000093 886.21 98.78 484.21 722.09 941.15 341.54 1143.42 391.42 947.58 532.32 938.17 632.22 1096.22 675.26
00000904 00000094 887.97 96.41 484.68 725.94 944.32 342.94 1147.28 386.19 955.18 527.81 942.81 634.76 1099.40 672.70
00000905 00000095 894.00 73.41 491.77 755.23 948.96 333.66 1151.43 373.37 957.20 515.95 948.65 634.54 1099.95 669.33
00000906 00000096 893.98 73.30 491.81 755.36 948.97 333.68 1151.46 373.39 957.21 515.95 948.66 634.54 1099.96 669.34
00000907 00000097 890.85 66.52 484.10 755.17 949.17 324.14 1153.68 364.77 960.84 508.34 945.11 625.50 1100.12 661.18
00000908 00000098 886.04 85.22 500.24 725.54 947.42 318.87 1153.65 364.43 957.39 508.06 947.73 617.52 1097.53 656.34
00000909 00000099 886.94 87.14 497.92 714.46 947.86 315.25 1152.98 363.66 957.44 506.66 948.90 610.83 1096.38 651.93
00000910 00000100 886.88 79.70 501.56 725.54 947.20 315.75 1154.20 362.96 957.43 506.77 948.56 613.40 1098.12 653.81
00000911 00000101 886.85 79.98 497.77 726.54 947.20 316.29 1153.47 362.50 957.76 506.01 948.31 614.19 1098.72 653.86
00000912 00000102 889.93 81.98 504.52 734.05 950.22 316.97 1157.85 365.40 957.80 514.59 951.36 615.71 1112.80 656.25
00000913 00000103 891.15 81.68 503.20 731.63 949.14 318.49 1159.92 364.09 959.63 517.66 953.39 616.79 1121.35 654.69
00000914 00000104 894.23 80.48 497.56 729.21 952.11 319.07 1161.58 364.76 961.51 517.95 955.37 613.78 1127.74 651.86
00000915 00000105 893.87 77.44 504.93 732.39 953.18 316.46 1163.51 366.33 962.23 518.20 956.49 611.08 1130.67 652.50
00000916 00000106 893.90 77.01 508.07 731.65 953.62 316.99 1163.63 366.91 962.23 517.91 957.34 610.71 1130.09 652.22
00000917 00000107 894.79 73.04 502.93 735.07 954.87 317.49 1164.36 367.76 963.75 519.48 958.30 608.51 1135.80 650.13
00000918 00000108 894.47 79.77 505.73 730.48 956.68 318.55 1165.80 368.02 964.48 519.71 959.68 609.83 1136.58 650.73
00000919 00000109 896.85 81.64 503.39 743.06 956.63 321.10 1165.46 367.04 964.28 519.06 961.23 616.55 1137.77 654.87
00000920 00000110 892.22 88.83 512.00 739.09 952.63 325.89 1164.23 369.48 961.41 522.33 957.67 620.91 1136.90 656.43
00000921 00000111 892.32 88.42 512.87 739.17 952.89 326.00 1164.42 369.79 961.45 521.98 957.88 620.61 1136.95 656.35
00000922 00000112 891.94 98.33 509.61 728.34 951.58 328.57 1161.83 373.96 958.74 524.96 956.38 622.98 1134.80 659.36
00000923 00000113 889.67 99.44 512.94 724.86 948.94 330.71 1160.08 378.34 956.04 526.71 953.89 623.43 1130.03 661.34
00000924 00000114 888.22 96.63 516.19 726.07 945.52 329.46 1159.42 377.82 953.65 526.07 949.57 622.48 1127.11 661.37
00000925 00000115 886.78 91.33 514.25 726.49 945.68 328.15 1157.51 375.31 953.26 524.52 950.92 620.11 1127.60 657.99
00000926 00000116 887.45 91.30 514.52 726.37 945.33 328.70 1157.47 375.25 952.26 523.48 950.95 620.72 1127.19 658.14
00000927 00000117 889.33 81.87 509.54 733.32 945.73 326.57 1154.67 372.16 952.34 523.09 951.66 616.70 1129.09 653.73
00000928 00000118 888.10 82.05 507.59 731.79 942.61 325.39 1152.21 369.61 950.48 521.28 949.60 615.49 1126.80 651.48
00000929 00000119 888.98 83.85 505.80 729.73 943.14 324.27 1152.87 368.82 950.62 521.37 949.91 614.87 1128.42 651.10
00000930 00000120 889.24 88.20 501.13 723.72 945.05 324.43 1153.08 372.74 951.22 522.46 949.74 613.56 1126.26 652.50
00000931 00000121 890.07 81.56 501.73 730.95 944.89 324.55 1153.28 371.55 951.78 522.50 949.46 614.61 1126.59 652.78
00000932 00000122 890.23 86.89 506.31 724.14 947.29 322.87 1156.09 373.29 952.70 523.20 951.37 611.95 1129.02 652.78
00000933 00000123 891.68 87.93 503.39 721.81 948.59 321.29 1158.61 371.75 954.87 522.25 952.23 610.84 1131.05 651.86
00000934 00000124 892.27 89.19 501.95 716.82 950.90 320.82 1161.82 370.78 960.30 520.79 953.43 608.43 1134.45 648.89
00000935 00000125 894.45 89.16 501.73 715.37 953.91 319.95 1163.99 369.97 963.46 521.25 957.20 608.33 1134.62 649.30
00000936 00000126 893.06 93.53 502.47 709.36 954.42 318.68 1164.35 371.62 963.65 521.34 957.25 605.38 1134.72 648.50
00000937 00000127 894.93 86.86 505.08 716.45 955.42 316.83 1165.45 370.06 963.40 521.26 959.13 605.41 1137.79 649.03
00000938 00000128 895.70 81.61 503.26 720.58 956.14 317.13 1166.31 369.97 965.31 521.12 960.52 605.23 1139.63 648.44
00000939 00000129 896.88 85.44 500.71 717.45 956.87 317.78 1167.82 369.20 967.39 520.76 961.36 605.66 1140.96 647.81
00000940 00000130 898.66 88.86 503.46 717.60 959.64 320.72 1170.26 370.99 969.86 522.12 963.72 608.71 1143.34 649.78
00000941 00000131 898.63 89.09 503.44 717.25 959.76 320.66 1170.42 371.02 970.16 522.14 963.78 608.65 1143.19 649.79
00000942 00000132 897.87 90.47 511.05 718.80 959.75 321.58 1175.38 372.67 972.31 525.09 963.96 610.60 1146.34 652.19
00000943 00000133 897.78 88.47 510.13 722.11 960.95 323.55 1175.69 374.50 973.31 526.91 965.42 612.15 1147.75 653.36
00000944 00000134 897.28 90.73 515.54 720.94 960.42 324.39 1175.67 374.48 973.12 525.95 965.26 613.53 1147.39 654.05
00000945 00000135 897.70 85.35 512.00 725.42 960.47 324.17 1175.75 373.72 974.49 525.54 965.59 613.36 1147.73 653.79
00000946 00000136 897.37 85.87 513.25 723.73 960.71 324.61 1175.95 374.38 975.66 525.82 965.33 612.97 1146.23 653.62
00000947 00000137 898.91 82.95 510.06 725.65 960.84 323.24 1176.80 374.28 975.97 525.84 965.23 610.28 1148.67 652.15
00000948 00000138 897.24 86.29 512.83 720.93 960.93 323.37 1176.39 373.94 976.11 524.45 965.20 610.10 1145.75 651.63
00000949 00000139 895.11 89.24 514.02 717.98 960.15 323.95 1175.95 374.00 976.63 525.35 964.23 609.94 1145.99 650.91
00000950 00000140 895.24 91.00 513.89 717.47 959.84 324.23 1176.32 373.39 976.53 524.80 964.58 610.83 1146.81 650.81
00000951 00000141 896.19 87.43 516.75 721.69 959.85 324.14 1175.68 373.85 975.16 525.96 964.63 610.57 1147.59 651.19
00000952 00000142 895.44 92.10 514.22 718.44 959.22 325.17 1176.74 373.71 975.81 525.65 964.71 612.24 1148.30 651.74
00000953 00000143 897.16 93.27 514.13 718.80 960.34 326.53 1177.94 376.00 976.25 526.87 964.73 613.41 1148.39 653.74
00000954 00000144 897.95 102.99 513.89 710.46 961.86 326.31 1179.40 376.73 976.36 525.94 965.67 615.09 1146.98 656.04
00000955 00000145 895.38 102.57 515.15 710.85 963.27 325.68 1179.89 377.50 977.60 523.51 964.31 615.63 1142.20 657.79
00000956 00000146 895.39 102.19 515.50 711.75 963.32 325.65 1179.91 377.71 977.54 523.80 964.53 615.71 1142.59 658.07
00000957 00000147 895.75 105.35 496.70 703.41 961.72 322.76 1173.04 374.08 976.31 518.77 961.21 614.23 1125.80 656.51
00000958 00000148 899.68 111.76 483.51 689.50 958.78 322.68 1155.54 370.23 961.62 509.97 958.55 609.10 1111.23 648.94
00000959 00000149 892.91 105.03 492.32 688.95 951.74 320.47 1149.68 369.01 953.40 504.53 944.84 606.06 1093.56 647.34
00000960 00000150 889.64 84.55 490.44 718.02 950.70 321.98 1141.86 369.65 951.20 500.84 940.84 611.05 1082.72 652.12
00000961 00000151 889.60 85.05 490.20 717.52 950.63 321.92 1141.80 369.61 951.20 500.83 940.71 610.98 1082.74 652.07
00000962 00000152 889.11 89.05 493.74 714.79 949.49 323.92 1142.58 370.48 950.20 501.17 939.97 612.83 1082.98 652.82
00000963 00000153 889.28 90.88 498.48 713.96 949.29 327.91 1142.49 375.39 948.25 505.90 942.68 613.81 1088.58 654.31
00000964 00000154 891.41 94.42 499.26 720.06 951.25 327.71 1139.15 376.08 943.24 506.71 948.13 615.57 1097.10 656.59
00000965 00000155 883.12 112.66 494.37 700.11 945.88 341.66 1139.63 381.90 942.21 514.73 948.11 615.45 1106.61 646.11
CROP_BBOX: 519 0 1592 986
