Video ID: 	pUxxCmpW88E
H: 	1080
W: 	1920
FPS: 	25.0

FRAME INDEX X0 Y0 W H [Landmarks (5 Points)]

00003975 00000000 840.67 135.73 519.27 762.40 890.53 410.90 1070.91 447.03 867.48 603.44 890.22 718.24 1034.86 749.91
00003976 00000001 841.26 134.78 517.59 757.20 889.67 402.70 1071.45 442.99 866.71 595.39 887.66 708.70 1032.20 743.91
00003977 00000002 838.36 131.27 518.57 760.14 886.74 397.48 1069.36 438.87 862.31 589.29 881.64 706.01 1026.04 742.02
00003978 00000003 835.30 131.17 521.05 760.55 885.69 394.85 1068.48 436.28 860.05 584.95 878.12 704.25 1021.94 740.30
00003979 00000004 835.53 133.41 520.14 760.77 886.42 404.16 1066.35 441.88 860.59 588.63 879.78 708.18 1022.21 741.23
00003980 00000005 837.07 137.89 519.41 758.90 882.20 411.53 1065.72 447.48 857.91 593.68 876.35 713.74 1024.60 745.34
00003981 00000006 834.55 144.66 513.78 752.79 881.63 417.12 1062.92 456.33 857.03 599.76 876.79 716.53 1024.12 750.42
00003982 00000007 833.47 148.96 512.71 748.42 877.97 421.96 1062.82 463.41 856.96 609.98 876.92 722.01 1027.30 757.32
00003983 00000008 832.04 156.30 513.42 740.01 876.19 426.26 1063.53 469.98 858.93 616.98 877.14 724.18 1027.13 761.38
00003984 DELETE   834.72 166.90 510.75 729.61 874.17 436.49 1062.96 484.94 857.46 625.65 876.33 724.96 1029.78 765.39
00003985 DELETE   832.45 166.84 521.33 751.43 870.39 442.39 1061.50 496.18 842.61 632.47 879.53 727.80 1027.39 769.01
00003986 00000011 838.21 174.37 518.18 728.01 877.07 438.34 1073.66 491.02 863.54 637.23 882.63 729.19 1040.96 772.86
00003987 00000012 839.93 176.40 523.31 728.00 881.51 437.60 1077.28 491.51 866.81 638.79 887.01 729.68 1044.98 774.24
00003988 00000013 840.48 177.41 523.78 728.90 885.22 439.81 1079.64 491.20 871.64 638.76 890.20 731.86 1044.46 774.55
00003989 00000014 846.61 181.69 518.03 720.74 890.37 439.71 1083.42 489.77 877.03 635.71 892.73 730.85 1043.26 772.90
00003990 00000015 849.26 183.51 515.01 717.40 893.12 437.83 1086.61 488.56 880.33 635.33 894.53 729.98 1043.34 772.75
00003991 00000016 852.06 179.75 515.37 722.37 896.40 433.46 1090.02 486.04 882.95 632.63 895.05 727.32 1044.16 772.00
00003992 00000017 853.80 176.24 517.07 732.22 899.06 429.00 1091.57 481.71 882.66 629.24 896.17 726.66 1044.88 771.36
00003993 00000018 856.29 172.15 517.18 740.06 903.07 426.46 1094.80 479.06 886.34 626.50 897.46 725.81 1046.10 770.50
00003994 00000019 857.69 168.51 516.98 742.95 907.28 422.94 1094.80 475.20 886.32 621.44 901.39 722.85 1045.74 767.34
00003995 00000020 862.58 164.13 511.43 741.30 910.88 421.03 1095.27 469.39 891.06 614.10 901.85 721.25 1041.01 763.00
00003996 00000021 863.92 155.68 506.33 743.12 916.62 411.12 1092.83 460.57 889.38 598.65 901.90 708.83 1034.57 751.54
00003997 00000022 863.70 146.35 511.94 745.35 920.96 400.97 1096.71 449.28 892.21 585.89 905.52 697.64 1036.31 739.57
00003998 00000023 866.33 130.07 522.17 749.88 925.34 390.69 1100.52 435.30 892.89 569.50 907.37 686.77 1036.94 726.08
00003999 DELETE   873.50 128.08 518.99 745.12 927.97 383.47 1106.96 430.38 899.24 554.82 899.59 679.23 1033.21 719.50
00004000 00000025 874.73 120.21 517.48 743.78 934.71 372.79 1110.54 424.43 901.60 541.92 901.99 664.66 1034.62 709.00
00004001 00000026 878.53 117.98 513.06 742.20 941.28 366.84 1111.96 416.13 904.60 532.82 907.08 659.75 1036.68 702.28
00004002 00000027 880.18 107.18 513.03 746.24 942.80 364.26 1115.44 412.83 909.48 528.15 909.58 654.91 1039.28 697.18
00004003 00000028 890.85 113.35 503.57 733.61 947.02 362.25 1120.64 407.39 916.53 524.24 916.06 654.52 1042.11 693.90
00004004 00000029 898.70 112.14 501.46 734.34 951.08 364.55 1127.34 407.10 923.94 523.27 920.86 655.87 1048.25 693.06
00004005 00000030 905.67 114.43 499.24 733.05 956.97 364.90 1132.54 406.63 928.55 523.54 927.94 656.97 1054.34 693.17
00004006 00000031 907.63 121.85 504.48 728.84 972.72 358.88 1143.12 407.09 934.39 524.35 934.55 653.06 1063.82 693.86
00004007 00000032 911.47 121.12 504.51 732.05 978.40 361.97 1147.66 409.34 940.30 524.04 938.93 653.31 1067.63 693.87
00004008 00000033 914.13 117.97 506.21 736.30 980.48 364.85 1150.72 410.50 944.72 525.83 942.56 654.73 1073.51 694.24
00004009 00000034 916.91 119.73 506.90 738.28 983.31 365.94 1153.59 415.33 948.02 529.04 944.69 655.20 1077.74 697.66
00004010 00000035 920.04 121.99 505.10 737.86 984.79 365.94 1157.26 418.57 951.19 532.13 946.12 655.10 1081.79 700.06
00004011 00000036 921.36 128.22 501.48 733.48 985.22 368.98 1159.34 420.80 955.71 537.85 948.30 659.60 1084.01 703.65
00004012 00000037 922.20 130.27 505.12 732.81 986.33 369.81 1162.36 424.11 958.85 542.49 950.65 661.01 1086.41 707.15
00004013 00000038 922.57 124.61 513.72 741.60 987.15 371.55 1166.10 429.10 957.73 550.29 951.35 662.69 1092.54 712.18
00004014 00000039 921.86 127.81 513.91 741.33 986.33 375.22 1167.19 430.58 959.17 553.09 950.84 667.84 1091.38 715.75
00004015 00000040 921.05 132.26 511.43 736.44 984.07 377.88 1165.79 432.06 958.02 554.91 949.17 670.52 1090.85 717.48
00004016 00000041 922.92 133.15 509.32 735.88 984.96 378.92 1166.86 432.32 959.45 555.47 950.51 672.20 1091.81 718.63
00004017 00000042 924.64 134.56 507.00 734.06 986.02 376.67 1170.60 431.87 962.87 555.36 951.14 670.60 1093.83 718.46
00004018 00000043 926.19 133.91 506.19 734.43 988.10 377.08 1172.16 432.64 965.25 553.88 953.07 668.96 1095.89 717.22
00004019 00000044 925.81 135.44 507.16 732.29 989.24 377.10 1174.28 433.12 966.36 555.02 954.09 668.34 1097.40 717.15
00004020 00000045 929.38 145.96 495.70 718.98 989.58 379.31 1170.29 433.51 966.24 553.66 953.92 671.09 1091.59 716.75
00004021 00000046 930.29 146.84 498.89 720.30 991.97 383.16 1172.38 435.30 966.94 555.47 956.41 674.14 1095.27 718.11
00004022 00000047 931.83 147.63 498.47 725.90 994.98 387.18 1172.85 438.13 968.60 558.09 960.50 678.20 1097.41 721.08
00004023 00000048 935.76 152.27 502.56 736.00 998.48 393.83 1178.54 441.83 972.18 563.84 971.70 686.07 1110.15 728.39
00004024 00000049 937.24 155.36 500.24 733.08 998.00 396.89 1178.39 446.04 973.65 570.45 973.42 687.99 1111.63 730.95
00004025 00000050 938.46 160.69 497.91 724.67 996.89 399.14 1179.33 449.64 976.84 573.99 971.23 687.38 1111.77 731.36
00004026 00000051 938.56 168.46 496.73 716.16 995.73 400.60 1177.98 453.15 975.64 578.37 971.12 690.44 1111.79 735.88
00004027 00000052 938.95 173.21 494.54 710.41 993.15 406.53 1176.47 457.87 974.99 582.31 970.55 693.78 1113.46 738.31
00004028 00000053 937.38 174.19 492.23 709.71 990.64 409.14 1175.43 460.52 974.70 585.93 969.05 695.87 1112.01 740.38
00004029 00000054 934.36 177.63 486.08 706.44 988.11 412.66 1172.85 464.01 975.25 590.86 965.78 698.49 1107.74 743.14
00004030 00000055 934.89 178.66 484.21 706.44 987.07 414.26 1170.96 465.49 973.14 593.25 964.91 701.91 1105.79 746.42
00004031 00000056 932.84 181.30 482.07 704.91 984.35 415.98 1168.63 466.72 971.81 596.93 963.79 704.80 1104.18 749.03
00004032 00000057 930.51 180.93 481.01 703.52 981.06 417.89 1166.88 467.31 971.02 599.82 962.49 706.95 1102.80 750.11
00004033 00000058 928.81 181.50 481.03 704.81 979.86 417.75 1164.41 469.33 967.87 602.00 960.88 707.92 1099.95 752.78
00004034 00000059 926.00 183.21 480.95 703.08 974.07 420.46 1162.03 469.81 965.06 604.58 957.22 711.09 1097.76 754.02
00004035 00000060 925.35 186.48 480.13 699.05 972.05 420.52 1161.30 471.34 963.90 606.71 956.45 711.23 1098.21 755.23
00004036 00000061 926.75 188.88 475.63 697.04 972.89 419.49 1160.90 471.11 964.22 608.43 958.08 712.31 1098.87 756.75
00004037 00000062 925.22 189.83 473.25 694.53 969.98 418.21 1159.85 470.69 963.70 608.00 955.56 711.89 1097.27 757.00
00004038 00000063 923.86 191.32 473.35 691.85 967.34 419.25 1157.40 469.75 961.76 608.39 954.43 712.88 1095.76 756.50
00004039 00000064 921.82 191.27 475.42 692.78 965.51 419.60 1156.02 469.72 960.14 608.14 953.40 713.75 1095.16 757.04
00004040 00000065 917.10 191.44 478.33 694.19 963.04 422.10 1151.47 471.62 955.59 609.53 951.57 715.61 1092.18 758.25
00004041 00000066 917.45 192.59 477.96 693.68 958.72 431.15 1143.65 476.99 948.11 613.66 949.92 720.94 1090.46 760.26
00004042 00000067 909.15 202.34 489.99 694.50 950.58 443.66 1137.04 492.58 928.73 620.03 942.78 724.01 1078.83 762.70
00004043 00000068 902.83 205.12 487.56 694.19 943.58 442.62 1133.71 494.17 925.14 625.75 935.75 724.75 1073.81 765.74
00004044 00000069 898.56 204.86 490.24 697.31 942.68 443.48 1130.14 493.05 921.89 628.17 935.59 727.56 1071.81 766.49
00004045 00000070 910.00 196.02 474.82 702.17 937.38 447.57 1129.08 488.99 937.99 631.41 938.51 731.49 1085.05 767.15
00004046 00000071 910.39 199.17 474.24 700.12 937.24 449.85 1128.24 490.04 938.02 633.93 938.25 733.86 1083.82 768.61
00004047 00000072 910.51 202.81 472.39 697.82 936.08 451.92 1127.00 491.34 938.50 636.74 937.85 735.31 1082.59 769.39
00004048 00000073 913.64 201.85 471.71 700.03 938.50 453.17 1127.73 492.07 940.00 637.24 940.82 736.37 1084.11 770.06
00004049 00000074 919.37 201.13 469.01 701.24 941.70 455.42 1131.98 492.57 948.67 636.36 945.65 737.30 1087.61 769.48
00004050 00000075 920.19 209.58 474.65 691.54 954.00 450.74 1144.18 493.77 950.52 636.40 957.72 735.50 1094.24 770.75
00004051 00000076 923.57 210.77 479.75 690.35 959.46 450.83 1152.56 496.70 956.92 638.29 963.15 734.89 1101.60 772.53
00004052 00000077 925.39 207.78 476.80 689.30 966.36 444.51 1161.24 491.46 964.77 635.50 962.58 731.75 1107.70 771.76
00004053 00000078 930.27 207.83 476.13 685.95 968.69 442.36 1166.19 490.27 969.60 633.57 964.59 729.21 1112.18 770.20
00004054 00000079 937.15 207.03 475.88 687.76 974.23 440.30 1170.41 488.73 975.20 633.74 970.56 728.17 1118.57 769.67
00004055 00000080 945.25 208.87 475.10 687.01 982.16 441.10 1178.34 488.18 986.98 632.20 979.07 728.72 1125.52 769.27
00004056 00000081 949.75 213.19 479.79 683.45 984.29 444.15 1184.20 490.83 992.51 634.06 982.65 729.50 1131.67 769.71
00004057 00000082 952.69 211.67 481.89 685.85 987.00 444.85 1189.57 492.74 997.37 635.95 984.46 730.14 1135.88 771.47
00004058 00000083 958.05 208.28 479.42 690.38 989.50 446.87 1190.85 492.32 999.40 636.14 988.12 732.28 1139.29 771.61
00004059 00000084 960.14 210.47 476.30 687.09 992.23 446.03 1191.44 491.68 1001.83 633.62 990.29 731.36 1139.45 770.93
00004060 00000085 959.25 210.88 476.27 685.96 990.82 445.39 1191.30 492.67 1000.49 634.48 987.60 730.16 1138.63 771.06
00004061 00000086 957.28 211.83 478.16 683.79 990.24 442.94 1189.30 491.06 998.19 632.42 986.71 728.04 1136.16 769.53
00004062 00000087 956.71 211.00 479.01 684.57 990.07 442.66 1188.67 490.71 997.44 632.63 986.36 728.06 1136.05 769.50
00004063 00000088 955.20 213.17 476.39 680.95 989.44 442.72 1186.02 489.78 997.62 631.40 986.96 726.95 1134.36 767.59
00004064 00000089 952.82 212.33 476.46 678.71 986.20 446.34 1182.44 495.10 992.74 632.37 984.27 724.89 1132.60 766.69
00004065 00000090 948.69 209.62 476.57 680.46 982.74 442.32 1180.93 490.93 990.15 630.60 979.19 724.77 1128.67 766.79
00004066 00000091 941.09 205.75 476.36 683.53 978.50 435.56 1176.07 484.70 983.60 629.92 975.89 723.44 1124.49 765.85
00004067 00000092 937.06 205.25 474.78 685.04 976.13 432.51 1171.99 483.42 978.26 630.04 972.58 723.02 1120.36 766.64
00004068 00000093 927.95 202.72 476.58 685.41 970.01 431.47 1167.63 482.54 971.34 628.53 966.80 721.98 1115.44 765.62
00004069 00000094 923.80 203.01 478.26 685.13 965.67 436.00 1162.31 485.05 966.14 628.66 962.58 723.69 1110.80 765.56
00004070 00000095 919.53 202.82 477.70 686.18 960.19 437.30 1157.39 487.23 960.83 629.65 956.42 724.31 1103.32 767.04
00004071 00000096 911.78 204.69 491.36 695.60 950.15 448.10 1150.89 499.30 945.77 633.38 949.11 728.74 1094.98 770.20
00004072 00000097 912.73 206.60 488.34 693.87 948.34 449.22 1143.84 501.86 936.39 632.72 947.63 728.32 1090.76 770.60
00004073 00000098 910.43 207.96 490.86 690.57 947.98 446.05 1144.46 496.73 938.12 632.22 945.97 729.59 1087.36 770.27
00004074 00000099 917.52 202.71 477.49 686.99 954.73 439.30 1148.05 489.22 950.22 631.57 952.15 727.47 1097.88 769.47
00004075 00000100 917.37 202.74 476.29 688.15 955.12 437.41 1148.27 486.42 951.14 630.37 953.15 727.76 1098.75 769.06
00004076 00000101 918.42 202.42 476.29 687.85 955.67 436.08 1149.77 486.02 952.33 629.92 952.97 727.02 1098.86 769.25
00004077 00000102 920.41 200.29 476.59 689.43 956.84 436.34 1152.33 485.99 954.94 630.64 953.89 726.88 1101.32 769.15
00004078 00000103 921.87 199.69 474.14 689.58 958.73 436.17 1155.40 486.37 957.29 629.54 954.11 724.80 1103.02 767.62
00004079 00000104 922.08 197.23 474.10 690.77 960.52 435.69 1157.52 486.33 959.71 628.04 954.89 722.67 1105.28 765.92
00004080 00000105 921.95 198.87 475.13 689.87 962.20 435.88 1158.88 485.82 961.89 628.25 956.66 722.99 1106.16 765.63
00004081 00000106 922.17 198.61 476.47 690.82 963.29 436.36 1160.58 486.11 963.32 627.75 956.98 722.85 1106.83 765.37
00004082 00000107 924.02 200.26 475.27 690.12 963.86 438.55 1160.64 487.98 963.63 630.22 958.02 724.86 1108.21 767.02
00004083 00000108 924.39 203.54 475.82 688.73 965.24 440.38 1161.27 490.88 964.09 632.99 959.35 726.22 1108.15 769.10
00004084 00000109 926.55 205.12 474.88 689.12 965.51 442.35 1161.44 492.58 964.79 635.05 959.91 728.68 1108.33 771.32
00004085 00000110 926.18 207.00 478.62 694.71 963.35 449.31 1157.66 498.26 962.38 637.70 964.32 731.83 1105.90 772.08
00004086 00000111 925.95 207.75 478.81 696.12 961.69 450.65 1156.28 499.27 960.38 638.39 962.56 734.50 1103.19 774.46
00004087 00000112 923.41 210.35 476.65 695.07 959.58 453.38 1154.29 500.70 958.73 640.21 961.15 737.25 1100.39 776.22
00004088 00000113 923.81 211.48 477.47 695.47 958.35 454.95 1153.16 500.80 956.54 639.79 959.93 739.07 1099.48 776.83
00004089 00000114 922.00 212.71 477.65 693.39 956.87 454.59 1150.42 500.22 953.61 640.14 958.37 738.51 1096.88 776.06
00004090 00000115 917.08 214.51 477.21 690.28 954.34 453.38 1145.69 497.70 950.49 639.20 955.77 737.89 1091.94 774.18
00004091 00000116 916.34 208.61 475.38 702.12 942.72 452.41 1133.62 498.86 954.91 641.89 948.66 738.22 1083.90 778.15
00004092 00000117 911.58 212.22 473.35 692.14 949.16 451.12 1138.22 497.49 943.55 641.17 951.25 736.77 1086.30 774.50
00004093 00000118 909.02 213.00 471.85 690.97 945.79 449.60 1135.26 496.61 939.07 641.47 947.98 735.52 1084.47 773.41
00004094 00000119 909.04 210.39 468.98 690.23 933.29 454.72 1128.52 496.28 942.92 641.16 934.29 736.56 1080.01 772.59
CROP_BBOX: 413 0 1682 1080
