Video ID: 	CnfAfFt1jjw
H: 	1080
W: 	1920
FPS: 	25.0

FRAME INDEX X0 Y0 W H [Landmarks (5 Points)]

00020438 00000000 794.47 160.71 418.53 639.21 854.08 433.91 1027.32 405.20 917.93 540.51 903.34 651.97 1041.77 626.91
00020439 00000001 788.44 163.50 421.92 639.27 849.56 432.43 1022.27 403.68 912.89 542.73 901.53 653.60 1036.89 628.72
00020440 DELETE   780.81 168.00 419.51 625.84 839.99 429.53 1014.02 405.74 901.96 543.79 894.74 651.55 1041.25 629.90
00020441 00000003 777.57 166.90 420.88 622.04 837.37 422.98 1008.06 400.15 896.15 536.32 889.31 644.99 1031.47 624.14
00020442 00000004 774.37 161.36 420.69 622.75 833.92 419.56 1006.98 394.52 891.33 527.43 883.79 641.45 1028.56 619.20
00020443 00000005 772.50 159.55 422.13 614.97 831.95 416.16 1006.45 389.69 888.76 518.54 879.39 634.28 1025.37 611.11
00020444 00000006 773.65 157.52 418.98 612.23 832.14 412.39 1005.15 388.07 887.54 515.70 875.03 628.97 1020.95 607.40
00020445 00000007 775.09 156.76 417.57 612.38 832.03 410.79 1004.30 387.14 885.61 514.29 873.48 627.64 1019.97 606.44
00020446 DELETE   774.80 156.89 417.54 613.23 832.67 411.76 1005.78 387.74 887.59 515.05 875.04 629.15 1021.35 607.73
00020447 00000009 774.98 161.67 419.32 614.31 834.96 415.22 1007.55 391.26 887.99 518.75 878.32 633.82 1023.70 612.46
00020448 00000010 776.32 162.26 420.38 621.23 834.36 418.09 1007.01 397.19 888.42 529.93 878.45 638.06 1027.68 618.59
00020449 00000011 778.42 165.77 419.61 619.68 837.55 419.94 1007.13 402.07 890.24 533.91 880.68 638.41 1026.26 621.46
00020450 00000012 780.06 166.45 418.67 621.16 839.05 421.41 1008.85 404.36 892.11 534.93 881.22 639.84 1026.33 623.76
00020451 00000013 782.03 166.05 416.45 618.47 840.21 420.24 1009.68 404.07 891.44 533.08 880.41 639.09 1023.88 623.94
00020452 00000014 783.51 165.41 413.46 619.20 842.88 417.35 1011.71 400.15 892.21 527.62 882.15 638.49 1023.82 622.78
00020453 00000015 783.52 161.20 414.13 620.28 843.59 413.25 1013.28 396.07 891.92 522.33 881.03 634.37 1024.36 618.56
00020454 00000016 782.31 162.00 415.12 609.77 845.73 406.46 1016.10 393.56 894.72 518.05 879.10 625.48 1018.37 613.09
00020455 00000017 783.39 157.47 413.03 605.91 845.54 404.38 1016.66 392.57 895.29 514.62 875.59 620.04 1017.52 608.77
00020456 00000018 784.42 155.46 412.47 608.40 845.45 404.35 1018.01 391.56 895.89 513.62 875.49 621.95 1018.95 610.08
00020457 00000019 785.27 156.16 413.02 606.99 844.63 405.58 1018.27 390.81 894.94 513.55 875.53 623.75 1021.33 610.22
00020458 00000020 786.49 156.43 411.51 608.82 846.28 408.28 1019.57 392.50 897.42 513.15 877.90 625.78 1024.94 611.41
00020459 00000021 787.55 157.61 411.11 614.57 849.34 408.16 1020.91 393.32 899.05 518.12 883.47 627.50 1029.93 613.37
00020460 00000022 788.38 158.02 411.47 621.25 848.63 412.02 1020.32 396.51 897.92 524.47 884.98 634.07 1030.06 619.63
00020461 00000023 790.01 160.55 412.00 624.60 847.53 416.68 1019.38 400.41 895.99 529.57 884.97 638.23 1031.59 623.10
00020462 00000024 793.88 162.26 408.88 625.60 846.80 431.39 1026.50 410.07 904.86 535.31 883.61 645.67 1039.74 629.38
00020463 00000025 795.54 166.02 406.41 625.10 852.05 432.19 1026.93 412.30 909.95 536.91 890.20 645.67 1041.61 630.21
00020464 00000026 795.30 166.02 408.85 626.82 852.76 430.27 1026.52 409.19 909.90 535.63 892.53 645.40 1042.06 628.56
00020465 00000027 795.58 164.78 408.70 622.69 850.96 428.90 1027.81 405.60 909.92 531.25 891.88 644.54 1043.11 626.38
00020466 00000028 792.96 159.85 410.73 621.19 850.63 413.71 1023.09 396.25 897.43 520.73 885.19 635.00 1032.41 619.12
00020467 00000029 791.94 155.15 410.54 620.71 849.69 411.34 1024.43 391.43 898.24 513.03 883.68 631.27 1034.90 613.44
00020468 00000030 790.68 152.07 410.99 626.14 853.69 405.45 1023.85 387.99 901.90 510.72 889.48 626.71 1038.08 610.44
00020469 00000031 790.25 150.86 412.92 631.29 853.80 404.76 1023.72 385.70 901.64 510.84 891.10 625.93 1043.14 608.03
00020470 00000032 792.34 150.95 412.48 628.35 855.33 406.31 1025.54 388.44 902.22 512.59 890.70 623.40 1044.17 606.46
00020471 00000033 795.18 152.72 410.09 627.70 857.03 408.33 1026.29 390.37 902.50 514.84 891.66 624.28 1044.06 607.31
00020472 00000034 796.42 155.40 409.06 625.08 858.41 410.36 1025.67 392.84 902.86 518.90 892.80 624.63 1043.25 608.11
00020473 00000035 798.60 157.72 407.75 623.00 860.17 412.81 1026.09 396.56 903.68 521.81 893.33 625.03 1041.93 609.83
00020474 00000036 799.56 157.32 406.65 619.11 860.61 412.26 1027.55 396.69 904.40 520.55 892.23 623.43 1041.03 608.83
00020475 00000037 800.27 155.33 406.98 618.23 859.39 410.17 1027.01 393.55 902.79 516.21 891.23 622.13 1040.50 606.53
00020476 00000038 798.96 153.36 409.08 618.13 858.06 408.54 1027.76 391.32 902.20 512.40 890.13 620.27 1041.54 604.12
00020477 00000039 798.78 151.22 408.97 616.36 856.94 406.87 1027.75 389.61 902.57 511.39 888.93 619.34 1041.07 603.28
00020478 00000040 798.39 151.84 410.30 615.43 856.92 406.76 1028.19 389.34 903.15 511.25 889.34 619.32 1041.62 603.06
00020479 00000041 798.38 151.32 410.38 616.94 856.05 408.82 1028.54 390.50 903.06 512.53 889.58 621.83 1041.85 604.97
00020480 00000042 799.74 153.75 409.26 615.24 857.64 409.90 1027.91 392.74 902.90 515.46 890.93 621.76 1040.47 605.83
00020481 00000043 800.44 155.13 407.01 618.43 860.14 411.50 1027.41 394.78 904.39 518.23 892.92 622.43 1040.63 606.88
00020482 00000044 801.62 156.28 406.03 618.80 861.73 412.21 1028.38 396.74 905.34 521.14 894.23 623.19 1041.08 608.69
00020483 00000045 802.84 155.76 405.46 618.77 862.39 412.86 1028.61 396.85 905.89 520.81 894.85 623.26 1040.93 608.40
00020484 00000046 803.06 155.87 406.05 617.82 862.23 412.38 1029.26 396.32 905.84 520.54 894.72 622.67 1041.81 607.70
00020485 00000047 803.07 156.14 406.22 618.14 862.67 411.25 1029.70 394.77 906.47 518.55 895.11 622.91 1041.30 607.69
00020486 00000048 804.61 154.41 419.80 625.51 865.58 416.59 1039.44 399.58 914.76 517.68 894.62 627.07 1042.54 612.25
00020487 00000049 805.34 154.07 419.76 626.26 865.85 416.24 1038.95 399.18 913.87 517.24 894.28 626.51 1041.54 611.82
00020488 00000050 804.87 153.50 420.24 625.95 866.17 416.26 1039.92 399.37 914.34 516.80 894.12 626.34 1041.69 611.75
00020489 00000051 804.36 153.60 420.41 624.56 866.12 416.76 1039.57 400.31 914.70 518.16 894.93 626.31 1041.13 611.96
00020490 00000052 804.63 155.14 419.05 623.90 866.14 418.28 1038.64 401.73 914.06 518.82 894.91 627.35 1039.84 612.96
00020491 00000053 806.78 151.95 412.82 624.82 862.22 409.08 1037.50 395.07 914.43 520.88 894.66 625.49 1039.43 611.85
00020492 00000054 807.00 151.90 412.09 623.24 862.16 408.67 1038.31 395.32 915.09 521.06 894.41 625.02 1039.35 611.99
00020493 00000055 805.94 155.37 417.66 621.68 867.08 417.80 1039.69 402.63 915.04 519.28 894.30 627.13 1038.18 613.92
00020494 00000056 805.99 154.67 418.34 624.00 867.25 416.26 1041.00 401.12 915.62 518.20 894.04 626.91 1038.85 613.84
00020495 00000057 806.61 154.38 418.16 622.30 867.40 415.18 1040.78 400.65 915.27 518.05 893.34 626.16 1038.18 613.59
00020496 00000058 805.43 153.95 418.58 623.31 867.48 416.35 1039.97 400.91 915.33 517.25 894.41 626.64 1037.13 613.35
00020497 00000059 805.02 153.73 418.49 621.02 866.89 415.34 1039.48 400.98 914.46 517.32 892.81 625.76 1036.20 613.21
00020498 00000060 802.03 158.25 407.22 611.29 861.11 410.97 1028.06 397.69 903.91 519.86 892.04 623.14 1034.85 610.52
00020499 00000061 803.70 153.94 412.13 621.18 859.09 409.80 1036.43 397.72 913.47 524.52 891.62 627.43 1034.43 615.60
00020500 00000062 802.80 156.43 412.14 618.74 858.45 410.93 1034.53 399.06 912.81 526.02 892.37 628.07 1031.21 616.47
00020501 00000063 801.89 156.82 413.23 619.29 857.25 412.44 1034.93 399.48 912.90 525.41 891.42 629.07 1031.06 616.64
00020502 00000064 799.68 159.57 406.75 612.59 857.31 413.11 1025.29 399.90 902.45 523.54 891.26 627.60 1033.14 615.12
00020503 00000065 798.79 157.45 408.34 613.29 857.17 411.42 1025.97 397.19 901.47 518.77 890.22 625.88 1033.17 612.53
00020504 00000066 798.55 156.60 408.40 611.33 857.33 409.71 1026.26 395.28 901.42 515.76 889.35 623.71 1032.94 610.32
00020505 00000067 798.29 156.63 407.93 610.63 856.54 409.09 1026.33 394.19 901.21 515.79 888.33 623.38 1033.53 609.61
00020506 00000068 798.34 157.10 408.03 610.91 856.90 410.67 1025.86 396.13 901.30 517.12 889.32 624.65 1032.86 611.17
00020507 00000069 799.91 159.94 407.43 611.16 856.45 412.29 1024.60 398.79 900.26 523.13 890.25 627.83 1032.16 615.00
00020508 00000070 803.84 156.28 413.17 620.08 857.67 412.74 1035.00 399.37 910.88 525.84 891.98 629.67 1031.40 616.92
00020509 00000071 804.01 154.97 412.10 619.81 857.08 413.78 1034.67 401.33 910.72 528.30 890.70 630.54 1029.56 618.64
00020510 00000072 802.00 163.83 406.82 612.79 853.45 425.51 1029.98 406.92 906.91 529.64 888.10 634.59 1038.67 620.14
00020511 00000073 798.60 158.94 407.15 610.62 857.13 411.17 1024.56 400.08 899.87 523.87 889.13 625.63 1031.00 614.68
00020512 00000074 798.30 157.46 406.77 611.60 857.10 409.33 1024.79 397.46 899.52 519.69 887.55 625.00 1030.07 613.60
00020513 00000075 797.75 157.87 407.04 610.02 855.75 409.81 1024.38 397.09 898.46 519.39 886.89 626.07 1029.07 614.05
00020514 00000076 797.92 157.90 406.93 611.26 855.57 410.43 1023.74 398.95 897.93 522.20 887.27 626.34 1029.59 615.15
00020515 00000077 797.35 159.44 408.10 612.57 855.30 412.13 1023.45 400.60 898.12 524.75 887.83 628.37 1028.89 617.21
00020516 00000078 797.81 160.96 407.69 610.73 854.86 412.46 1022.74 401.65 896.95 525.70 886.79 628.68 1027.40 618.17
00020517 00000079 798.14 161.09 407.28 607.43 855.19 411.21 1022.95 399.22 898.08 523.04 888.64 627.01 1029.36 615.45
00020518 00000080 798.34 160.15 407.54 605.62 854.85 409.60 1024.38 397.40 897.43 519.16 885.90 625.47 1028.55 613.91
00020519 00000081 797.88 159.08 407.56 606.14 855.15 408.94 1024.20 397.49 897.59 517.95 884.68 624.47 1026.99 613.68
00020520 00000082 797.70 160.05 407.78 605.59 855.93 408.44 1024.58 397.77 897.86 519.09 885.71 624.53 1027.22 614.21
00020521 00000083 798.47 161.33 407.81 608.36 857.57 410.00 1023.91 399.67 897.74 521.89 887.16 625.57 1026.77 615.38
00020522 00000084 799.58 160.39 408.43 609.85 857.86 410.95 1024.57 400.53 898.35 522.66 886.64 625.79 1027.62 615.54
00020523 00000085 799.39 160.76 408.13 610.35 857.95 411.05 1025.98 399.65 899.22 520.47 886.27 625.86 1028.28 615.01
00020524 00000086 800.14 158.55 406.43 609.14 859.57 407.68 1026.78 395.24 900.03 513.70 887.61 624.89 1026.48 613.50
00020525 00000087 801.40 156.75 406.09 605.92 859.13 403.44 1029.24 392.08 900.53 510.18 884.86 619.08 1030.22 608.46
00020526 00000088 803.73 152.68 406.66 612.94 860.04 403.31 1032.61 390.22 901.52 509.90 883.99 618.97 1033.28 606.73
00020527 DELETE   804.94 153.62 418.31 623.73 869.15 413.67 1042.14 402.36 914.10 511.80 892.16 622.42 1032.07 612.53
00020528 DELETE   806.63 159.14 416.41 629.47 869.24 427.95 1041.36 414.00 916.09 522.25 897.77 634.39 1036.62 622.53
00020529 DELETE   806.58 156.43 418.13 631.68 866.39 430.22 1043.65 415.83 915.30 527.60 894.05 638.46 1040.65 626.16
00020530 00000092 804.70 155.16 418.98 628.50 867.26 420.68 1043.48 408.27 914.23 518.73 891.01 629.68 1033.06 619.25
00020531 00000093 803.57 152.86 420.72 625.63 869.31 413.52 1043.69 401.94 913.95 511.27 890.60 626.45 1030.05 616.50
00020532 00000094 804.63 157.39 406.61 610.82 863.51 406.40 1032.82 394.01 905.43 510.97 889.11 624.01 1028.34 612.97
00020533 00000095 805.34 153.75 416.16 626.97 868.12 414.94 1041.57 405.78 912.88 518.17 889.28 626.86 1029.17 618.92
00020534 00000096 808.35 153.01 408.88 623.50 863.41 406.22 1038.51 399.41 912.90 522.80 889.61 624.25 1025.20 617.33
00020535 00000097 809.78 153.55 407.34 620.22 863.16 406.55 1038.38 399.63 913.17 523.77 890.05 624.03 1025.13 617.06
00020536 00000098 811.10 153.45 408.33 618.64 862.74 407.07 1039.12 399.77 912.60 524.54 889.59 624.57 1026.81 617.17
00020537 00000099 811.75 154.52 408.36 617.54 863.66 407.78 1038.48 400.38 913.04 524.77 891.60 624.44 1026.98 616.93
00020538 00000100 811.97 155.49 408.45 621.03 864.94 409.44 1038.26 402.59 912.88 526.90 891.93 626.35 1026.33 619.36
00020539 00000101 812.13 155.71 408.85 619.91 865.21 410.18 1038.90 403.09 913.36 526.98 892.39 628.25 1026.22 621.10
00020540 00000102 812.48 156.61 408.65 619.23 865.11 410.10 1039.49 404.16 912.94 528.13 891.29 627.86 1027.38 621.63
00020541 00000103 813.42 155.96 406.90 618.95 865.86 408.76 1039.82 403.92 913.31 527.67 890.49 625.63 1029.47 620.07
00020542 00000104 810.45 158.99 414.72 622.24 871.57 417.10 1043.74 411.49 916.02 524.35 890.05 627.83 1031.12 623.08
00020543 00000105 811.74 160.72 413.68 626.28 871.74 418.97 1044.68 410.87 917.31 523.30 893.36 631.39 1035.16 624.72
00020544 00000106 814.31 155.64 407.40 628.80 869.09 409.35 1042.67 401.11 916.43 523.75 896.97 631.72 1037.09 623.41
00020545 00000107 811.12 159.01 414.36 625.26 871.48 419.04 1045.51 409.04 917.91 521.43 894.38 631.74 1036.11 623.39
00020546 00000108 810.96 155.78 415.21 626.92 872.49 417.78 1045.83 409.50 916.29 521.09 891.89 629.99 1032.90 623.11
00020547 00000109 810.59 156.44 414.36 624.49 872.75 418.19 1045.15 408.71 916.42 518.25 892.38 629.18 1028.81 621.32
00020548 00000110 810.47 155.84 414.76 623.88 872.42 418.01 1045.32 409.08 916.64 519.29 890.95 629.04 1028.76 621.65
00020549 00000111 809.78 155.82 414.15 620.47 871.73 415.88 1044.04 409.30 915.67 520.40 889.96 625.72 1028.08 620.04
00020550 00000112 812.35 153.12 407.05 617.06 864.63 408.11 1040.53 402.19 912.74 521.06 888.89 624.09 1025.68 617.94
00020551 00000113 811.90 154.56 407.22 614.77 864.22 408.35 1040.52 402.09 912.98 520.52 888.51 624.16 1025.56 617.82
00020552 00000114 808.76 156.76 413.50 616.27 871.10 415.28 1042.95 408.73 914.72 518.94 888.71 624.80 1026.68 618.95
00020553 00000115 811.65 154.23 407.92 616.69 863.94 408.38 1040.13 402.12 912.00 520.05 887.67 624.07 1025.24 617.65
00020554 00000116 810.44 155.33 408.91 616.00 862.95 408.48 1039.50 401.96 911.76 519.50 886.49 623.84 1024.39 617.23
00020555 00000117 809.64 155.31 409.07 616.00 862.73 408.60 1038.88 401.65 911.74 518.82 886.58 624.00 1023.86 617.02
00020556 00000118 810.08 155.50 408.05 616.87 863.22 409.08 1038.24 401.82 911.86 519.27 887.13 624.57 1022.85 617.47
00020557 00000119 810.77 156.29 408.13 620.09 865.03 409.58 1038.09 402.46 912.56 519.56 889.59 624.10 1022.29 617.31
00020558 00000120 808.89 158.63 409.38 623.78 866.68 409.39 1037.06 403.54 912.02 518.81 889.43 623.70 1018.92 618.24
00020559 00000121 809.33 158.39 408.78 623.88 865.56 409.54 1036.85 404.07 911.09 519.82 888.46 625.56 1020.74 620.16
00020560 00000122 810.15 158.11 407.74 622.37 864.58 410.59 1036.53 403.04 911.82 519.53 889.06 625.83 1024.33 618.34
00020561 00000123 808.98 158.00 409.29 624.58 864.20 409.97 1037.75 401.22 911.89 519.61 889.99 627.63 1028.02 618.99
00020562 00000124 808.90 153.43 411.89 625.70 860.95 411.48 1041.29 399.34 910.11 519.48 886.18 631.70 1030.45 620.17
00020563 00000125 808.04 154.01 412.61 624.99 859.63 409.90 1040.93 399.38 908.60 519.59 883.04 628.22 1033.88 617.73
00020564 00000126 808.30 152.10 412.00 627.81 860.40 409.15 1041.20 398.69 908.08 517.96 882.13 627.29 1035.12 616.78
00020565 00000127 808.34 152.68 411.53 626.39 861.32 409.13 1040.46 399.25 908.71 518.59 884.42 628.57 1030.09 618.78
00020566 00000128 810.19 155.06 411.59 631.61 863.65 411.47 1040.12 400.05 911.22 521.36 890.66 633.66 1033.67 622.57
00020567 00000129 812.78 157.14 407.75 631.87 866.11 414.37 1037.68 405.71 912.89 528.82 894.80 637.59 1029.22 629.27
00020568 00000130 809.62 163.36 414.62 625.10 868.01 423.60 1043.98 419.64 913.92 533.68 888.22 639.81 1024.24 636.71
00020569 00000131 809.96 164.68 414.67 627.18 870.14 424.99 1043.55 422.59 913.90 534.75 890.19 639.60 1021.73 637.86
00020570 00000132 810.07 164.50 415.27 626.61 870.72 425.39 1043.56 422.84 915.10 535.31 891.55 639.69 1022.81 637.78
00020571 00000133 810.69 163.20 414.89 626.40 869.84 425.46 1047.39 421.73 917.29 537.16 889.83 640.25 1032.76 637.30
00020572 00000134 811.00 160.44 414.87 627.80 870.76 422.28 1049.09 416.71 920.56 533.65 891.39 637.87 1035.54 633.36
00020573 00000135 810.99 159.55 417.04 629.81 871.84 419.58 1048.64 412.12 919.34 526.73 893.07 636.56 1035.66 630.44
00020574 00000136 811.61 155.66 417.83 630.77 871.33 418.53 1047.67 406.43 918.31 520.59 894.58 636.03 1039.96 625.99
00020575 00000137 812.65 155.95 417.15 626.98 871.33 416.74 1047.33 404.49 917.97 517.66 893.03 633.25 1038.86 622.98
00020576 00000138 812.62 154.44 417.05 626.36 871.99 415.54 1047.05 405.25 916.94 516.97 890.95 630.97 1034.46 622.32
00020577 00000139 812.78 155.46 416.28 623.17 873.35 415.01 1047.14 406.11 917.43 516.74 890.57 629.52 1031.19 622.04
00020578 00000140 812.33 155.94 416.66 622.36 873.37 415.52 1049.10 408.67 918.98 520.69 890.79 628.83 1032.52 622.98
00020579 00000141 815.38 157.84 412.93 620.12 876.55 416.60 1052.57 414.81 924.01 528.90 893.25 626.60 1035.34 625.00
00020580 00000142 819.09 157.72 411.06 623.09 877.79 419.84 1056.73 417.83 927.17 530.71 894.30 628.52 1041.22 626.98
00020581 DELETE   822.18 157.56 408.78 619.37 881.35 419.77 1060.38 416.81 932.53 533.71 900.79 630.21 1047.40 627.76
00020582 00000144 825.60 157.44 407.93 618.65 884.18 417.95 1063.64 415.56 935.98 532.21 903.22 629.81 1049.92 627.90
00020583 00000145 827.80 158.33 406.66 615.19 886.17 415.19 1064.55 414.47 937.82 533.04 906.29 629.47 1048.84 628.89
00020584 00000146 828.93 158.33 407.15 614.51 888.30 413.60 1065.31 413.09 939.80 533.59 909.96 628.85 1050.11 628.55
00020585 00000147 829.14 158.46 408.20 614.63 888.82 413.73 1065.78 413.82 941.61 534.78 910.17 627.39 1051.05 627.70
00020586 00000148 831.13 159.28 406.10 611.56 890.26 412.14 1066.49 413.09 942.84 534.67 910.65 626.05 1049.81 627.14
00020587 00000149 833.86 165.17 404.88 604.43 892.24 408.72 1068.83 409.91 946.39 535.50 916.89 626.58 1057.76 625.99
00020588 00000150 834.04 158.11 403.86 612.42 892.11 411.81 1068.92 413.98 945.41 535.40 912.31 626.27 1051.98 628.47
CROP_BBOX: 564 0 1491 938
