Video ID: 	XQB-bOiMD6E
H: 	2160
W: 	3840
FPS: 	29.97002997002997

FRAME INDEX X0 Y0 W H [Landmarks (5 Points)]

00014788 00000000 1388.20 360.31 964.30 1293.40 1601.84 874.05 2067.57 822.60 1829.47 1031.62 1688.72 1349.67 2048.68 1307.30
00014789 DELETE   1401.62 341.37 976.28 1308.53 1631.91 857.31 2096.07 814.32 1861.50 1013.06 1707.36 1330.35 2078.53 1295.27
00014790 00000002 1415.44 332.94 981.68 1323.60 1652.34 846.25 2124.23 808.12 1886.25 1002.22 1722.67 1326.67 2106.58 1296.57
00014791 00000003 1423.12 326.45 993.37 1327.84 1676.87 835.78 2152.24 809.82 1920.66 999.63 1749.80 1322.56 2128.49 1302.04
00014792 00000004 1437.18 322.24 987.32 1318.60 1693.38 820.64 2176.15 808.49 1945.55 999.18 1763.35 1316.25 2143.23 1306.21
00014793 00000005 1452.04 321.23 977.00 1318.08 1706.54 812.80 2193.12 811.49 1957.41 997.58 1767.53 1309.72 2158.98 1307.94
00014794 00000006 1466.04 326.75 967.42 1305.47 1719.36 811.97 2207.26 819.32 1970.19 1004.54 1778.28 1308.23 2170.10 1313.86
00014795 00000007 1470.46 329.52 967.81 1321.09 1728.77 815.95 2217.58 828.02 1982.76 1020.04 1783.74 1316.87 2178.85 1326.76
00014796 00000008 1474.80 326.61 965.59 1338.11 1735.61 817.24 2222.86 831.78 1991.27 1032.52 1785.58 1328.71 2178.36 1341.10
00014797 00000009 1482.28 331.54 960.78 1362.22 1748.47 825.76 2238.38 847.19 2014.97 1033.82 1804.78 1347.14 2184.25 1361.24
00014798 00000010 1487.46 340.07 958.81 1376.29 1757.68 834.39 2247.88 858.54 2023.75 1041.41 1805.62 1355.30 2192.12 1372.19
00014799 00000011 1489.85 337.89 969.64 1407.60 1763.37 840.63 2251.74 865.57 2027.45 1054.36 1808.01 1367.66 2193.62 1385.71
00014800 00000012 1500.87 342.46 963.31 1384.95 1766.92 848.25 2255.70 872.05 2027.96 1068.55 1814.61 1374.56 2196.72 1390.78
00014801 00000013 1497.22 347.76 975.75 1405.87 1771.34 859.52 2256.46 890.43 2028.44 1089.61 1802.80 1378.28 2199.70 1401.21
00014802 00000014 1499.96 357.92 977.90 1407.41 1780.39 869.31 2263.24 900.59 2036.24 1105.12 1804.69 1379.64 2206.57 1403.88
00014803 00000015 1507.49 362.20 977.17 1399.36 1782.52 876.26 2269.76 904.03 2040.03 1120.77 1810.17 1396.07 2207.81 1417.39
00014804 00000016 1514.37 366.83 975.01 1427.28 1787.93 884.24 2266.07 904.54 2042.54 1133.72 1829.65 1429.41 2197.40 1444.39
00014805 00000017 1517.82 379.02 979.62 1422.41 1793.11 895.30 2270.51 912.63 2049.05 1152.85 1839.12 1437.69 2208.66 1450.61
00014806 00000018 1524.86 376.58 973.35 1444.24 1815.57 907.61 2275.27 927.17 2060.95 1165.93 1846.04 1441.11 2204.87 1457.92
00014807 00000019 1530.93 382.84 975.39 1423.99 1820.26 916.90 2281.67 933.78 2067.72 1184.26 1854.11 1447.15 2210.89 1461.91
00014808 00000020 1538.90 390.98 978.15 1406.61 1828.34 927.09 2288.45 945.85 2074.08 1205.29 1864.05 1459.52 2210.70 1476.48
00014809 00000021 1529.46 395.76 989.02 1421.73 1836.18 923.66 2308.72 959.06 2087.81 1210.70 1860.75 1460.18 2216.50 1489.84
00014810 00000022 1538.16 402.83 990.12 1455.64 1845.38 939.08 2316.56 973.25 2098.78 1234.01 1870.44 1482.72 2231.82 1511.44
00014811 00000023 1543.65 415.10 990.51 1472.14 1847.30 951.30 2319.50 986.15 2099.24 1243.24 1865.01 1494.25 2241.06 1523.50
00014812 00000024 1545.14 423.27 991.12 1493.17 1849.42 962.15 2314.94 997.10 2097.81 1253.27 1859.91 1501.67 2248.63 1531.08
00014813 00000025 1543.04 430.41 1000.13 1506.34 1850.53 974.20 2314.59 1006.55 2098.31 1259.70 1856.15 1508.40 2254.04 1535.30
00014814 00000026 1543.76 435.53 1001.15 1493.10 1845.65 980.24 2310.56 1007.72 2092.97 1264.08 1853.56 1507.55 2254.46 1530.35
00014815 00000027 1543.03 434.86 1002.73 1483.43 1842.15 982.02 2309.62 1006.71 2089.95 1267.17 1851.81 1503.77 2259.68 1524.34
00014816 00000028 1541.73 433.63 1003.24 1474.09 1838.29 979.46 2308.55 1005.76 2084.51 1269.74 1846.60 1496.82 2259.76 1518.57
00014817 00000029 1535.79 429.32 1004.57 1467.16 1832.86 974.98 2308.90 1000.80 2083.31 1264.42 1843.37 1493.94 2258.74 1515.42
00014818 00000030 1528.74 417.67 1007.39 1478.62 1826.88 965.14 2305.64 992.47 2077.65 1256.33 1836.47 1486.48 2257.36 1509.03
00014819 00000031 1520.59 415.78 1007.64 1472.89 1819.93 954.05 2300.69 984.32 2073.18 1248.75 1829.01 1479.43 2247.98 1504.48
00014820 00000032 1518.78 411.38 1005.24 1460.38 1811.59 946.20 2294.30 974.58 2062.82 1240.02 1824.64 1470.05 2242.14 1493.39
00014821 00000033 1516.77 400.37 1000.53 1448.43 1799.91 935.35 2284.96 958.69 2050.99 1229.19 1822.60 1467.09 2233.77 1486.15
00014822 00000034 1509.14 395.12 1003.14 1469.23 1791.89 924.29 2276.01 945.77 2040.92 1211.75 1812.64 1464.54 2224.30 1481.40
00014823 00000035 1499.91 374.97 1008.85 1469.92 1781.94 921.87 2258.92 934.39 2027.57 1189.35 1807.58 1448.65 2210.73 1457.24
00014824 00000036 1497.38 379.23 999.26 1447.34 1763.08 910.23 2248.58 921.24 2016.22 1173.57 1803.89 1451.89 2197.45 1459.34
00014825 00000037 1493.09 382.27 992.46 1436.74 1751.76 908.44 2241.08 913.90 2007.86 1168.69 1803.54 1456.61 2187.43 1459.19
00014826 00000038 1485.24 381.54 986.12 1423.50 1743.69 908.96 2233.09 912.57 1996.28 1170.64 1796.52 1454.24 2176.81 1455.72
00014827 00000039 1472.89 381.19 984.62 1417.38 1731.26 913.93 2213.78 912.32 1981.57 1170.00 1788.50 1454.57 2161.00 1452.54
00014828 00000040 1458.18 393.44 984.64 1400.22 1715.63 921.67 2196.23 914.05 1963.12 1180.84 1780.16 1460.01 2142.36 1453.08
00014829 00000041 1445.57 400.86 988.95 1389.58 1696.35 934.22 2178.84 921.85 1945.56 1188.07 1767.56 1466.76 2132.04 1456.40
00014830 00000042 1436.60 404.80 988.91 1393.40 1678.07 945.56 2158.85 924.09 1920.79 1195.28 1759.57 1475.14 2127.10 1457.21
00014831 00000043 1421.73 403.23 996.28 1418.13 1657.80 957.41 2134.11 925.87 1905.04 1207.11 1751.76 1484.95 2124.05 1458.68
00014832 00000044 1406.90 411.63 999.48 1420.62 1643.22 966.97 2118.09 932.69 1895.33 1221.99 1743.48 1492.50 2119.19 1463.54
00014833 00000045 1400.76 419.61 999.35 1411.53 1629.67 978.38 2111.73 939.98 1888.21 1241.37 1735.56 1502.72 2121.51 1470.14
00014834 00000046 1393.43 422.42 996.09 1410.36 1616.58 989.91 2108.02 952.42 1878.24 1259.05 1718.97 1513.79 2112.13 1481.89
00014835 00000047 1384.11 416.97 994.47 1438.58 1610.63 1001.77 2093.33 960.36 1872.69 1274.99 1709.14 1521.30 2102.08 1486.68
00014836 00000048 1370.95 421.77 1006.09 1491.11 1609.60 1016.43 2082.02 971.84 1870.01 1289.98 1702.92 1539.49 2099.50 1501.85
00014837 00000049 1356.75 429.71 1019.54 1508.90 1604.39 1028.64 2075.58 979.99 1865.25 1306.28 1691.80 1545.45 2105.00 1503.69
00014838 00000050 1348.68 446.69 1026.18 1483.31 1593.64 1044.47 2068.35 987.85 1857.47 1322.43 1688.05 1550.81 2113.10 1501.57
00014839 00000051 1331.40 449.78 1035.78 1477.41 1578.81 1056.41 2063.78 995.37 1851.76 1338.81 1676.75 1556.29 2117.04 1502.47
00014840 00000052 1325.52 448.25 1033.68 1473.77 1567.62 1068.38 2053.21 1003.30 1841.20 1348.17 1668.14 1561.16 2111.24 1503.61
00014841 00000053 1318.09 487.79 1038.58 1422.54 1562.64 1069.85 2051.41 1005.98 1841.98 1348.24 1668.89 1558.29 2101.61 1502.77
00014842 00000054 1316.82 490.57 1039.67 1421.66 1559.82 1070.65 2048.05 1007.81 1835.67 1345.51 1672.14 1565.85 2093.15 1511.14
00014843 00000055 1318.44 488.39 1040.40 1428.25 1556.71 1069.59 2048.39 1003.99 1832.24 1343.17 1679.35 1576.27 2091.66 1519.28
00014844 00000056 1325.29 447.74 1032.87 1456.52 1555.61 1074.71 2043.02 1001.84 1824.19 1345.59 1676.37 1585.69 2085.35 1523.26
00014845 00000057 1331.43 453.38 1026.55 1450.14 1560.91 1091.20 2036.61 1015.36 1824.39 1342.07 1678.18 1594.73 2076.85 1529.76
00014846 00000058 1336.47 449.87 1023.48 1465.80 1566.74 1107.29 2040.47 1030.86 1828.62 1342.78 1679.72 1602.98 2077.41 1537.00
00014847 00000059 1342.33 457.37 1028.18 1488.14 1574.73 1118.95 2038.82 1049.05 1828.92 1351.89 1683.77 1619.49 2072.50 1558.27
00014848 00000060 1344.15 463.76 1027.74 1491.41 1575.92 1135.50 2036.43 1065.59 1827.52 1365.58 1687.33 1630.42 2072.64 1568.65
00014849 00000061 1345.89 478.82 1021.97 1466.94 1569.16 1149.82 2039.37 1077.17 1824.73 1386.45 1682.25 1637.72 2074.42 1574.14
00014850 00000062 1339.17 488.24 1031.25 1474.90 1566.35 1160.32 2037.69 1092.89 1817.76 1402.39 1673.80 1643.65 2072.41 1583.74
00014851 00000063 1337.61 487.14 1035.34 1478.25 1566.98 1162.22 2035.47 1099.55 1813.10 1410.88 1674.39 1644.55 2067.59 1588.63
00014852 00000064 1338.57 480.04 1037.18 1487.57 1566.86 1163.19 2032.76 1102.29 1809.21 1412.90 1672.04 1641.73 2065.39 1587.22
00014853 00000065 1340.41 475.26 1035.91 1497.01 1569.62 1159.71 2031.61 1103.75 1806.25 1410.43 1666.79 1635.02 2061.64 1584.59
00014854 00000066 1341.99 472.23 1036.57 1500.84 1572.59 1155.53 2031.94 1103.80 1805.02 1407.04 1665.18 1628.07 2059.98 1580.84
00014855 00000067 1343.21 476.33 1033.49 1498.84 1574.56 1152.79 2031.08 1103.38 1804.81 1403.17 1664.26 1624.60 2058.07 1579.31
00014856 00000068 1346.16 478.94 1030.60 1495.28 1576.18 1150.23 2031.02 1103.05 1803.98 1401.19 1662.03 1620.46 2056.70 1577.09
00014857 00000069 1345.66 480.64 1028.28 1493.40 1576.16 1146.96 2029.39 1100.53 1803.37 1399.25 1661.02 1619.94 2053.04 1577.35
00014858 00000070 1345.42 476.96 1024.57 1495.44 1574.47 1143.63 2026.54 1097.55 1800.76 1395.78 1658.28 1617.09 2051.33 1574.86
00014859 00000071 1346.96 476.06 1021.99 1496.08 1573.20 1140.91 2024.30 1093.56 1799.27 1393.60 1658.96 1615.93 2051.78 1572.76
00014860 00000072 1344.93 475.44 1022.07 1496.12 1572.13 1141.33 2023.54 1093.45 1798.81 1393.69 1657.41 1616.01 2051.04 1572.41
00014861 00000073 1343.22 480.39 1021.07 1491.25 1570.29 1141.24 2022.04 1091.89 1797.02 1393.33 1654.80 1617.28 2048.08 1572.76
00014862 00000074 1342.22 472.41 1020.79 1501.67 1568.09 1141.03 2018.80 1092.33 1792.98 1395.30 1652.93 1619.31 2044.72 1575.46
00014863 00000075 1342.35 477.33 1017.90 1493.96 1563.80 1143.43 2014.76 1091.08 1787.92 1396.37 1648.12 1620.25 2041.85 1573.78
00014864 00000076 1342.32 469.17 1016.77 1504.00 1561.42 1140.52 2012.59 1087.24 1784.95 1390.98 1646.01 1622.02 2037.06 1575.25
00014865 00000077 1338.29 457.12 1015.84 1512.13 1555.85 1137.16 2008.72 1081.16 1782.34 1383.64 1641.12 1619.05 2033.10 1569.89
00014866 00000078 1334.73 444.29 1014.73 1515.29 1554.96 1128.95 2005.93 1075.92 1779.74 1375.76 1637.06 1611.77 2025.28 1565.44
00014867 00000079 1335.14 444.86 1013.83 1504.36 1551.68 1115.46 2008.97 1060.37 1780.96 1360.44 1636.48 1607.27 2024.84 1559.96
00014868 00000080 1337.96 433.70 1016.95 1492.86 1558.07 1098.18 2021.68 1045.03 1793.93 1345.50 1643.46 1591.93 2036.00 1546.37
00014869 00000081 1350.20 425.82 1015.18 1495.77 1572.13 1082.91 2037.01 1028.41 1812.84 1324.58 1662.97 1583.44 2048.09 1537.35
00014870 00000082 1368.06 436.64 1008.02 1480.66 1587.78 1068.88 2056.48 1016.92 1828.85 1307.34 1676.49 1572.99 2064.29 1529.79
00014871 00000083 1374.08 426.05 1012.25 1502.15 1599.32 1050.51 2072.84 1006.51 1840.53 1284.60 1678.67 1562.74 2070.23 1525.83
00014872 00000084 1382.92 435.55 1010.92 1493.09 1615.72 1044.79 2088.00 1007.60 1857.78 1271.24 1687.50 1558.94 2076.62 1528.68
00014873 00000085 1401.41 422.48 992.57 1446.02 1627.62 1039.96 2098.02 1007.15 1863.85 1259.37 1705.10 1548.74 2072.06 1521.23
00014874 00000086 1402.54 421.41 1001.72 1454.52 1636.65 1031.10 2103.13 1004.38 1866.10 1251.80 1707.53 1542.78 2074.10 1520.54
00014875 00000087 1409.43 433.64 1013.50 1495.42 1666.64 1021.99 2124.10 1013.65 1876.24 1262.93 1715.65 1538.63 2085.02 1531.37
00014876 00000088 1432.13 427.58 1000.46 1470.87 1667.91 1006.02 2129.77 997.20 1877.58 1247.43 1714.38 1529.01 2071.36 1523.43
00014877 00000089 1441.21 423.97 989.92 1444.17 1660.51 976.91 2136.42 979.03 1868.19 1238.50 1701.66 1503.83 2083.17 1506.06
00014878 00000090 1453.31 410.03 985.21 1435.77 1663.40 961.33 2149.64 968.07 1864.30 1224.50 1698.22 1487.82 2087.87 1493.35
00014879 00000091 1467.63 390.17 988.66 1447.56 1673.81 956.44 2155.22 958.29 1874.66 1202.82 1708.20 1482.06 2080.63 1484.82
00014880 00000092 1470.07 401.51 984.99 1452.21 1675.12 943.71 2159.37 959.44 1866.42 1207.12 1698.78 1477.67 2086.21 1491.82
00014881 00000093 1480.49 410.76 977.20 1430.91 1681.49 943.89 2165.55 963.29 1869.79 1213.13 1704.74 1474.99 2091.74 1491.56
00014882 00000094 1485.18 410.30 980.86 1439.43 1687.31 947.46 2171.41 972.34 1871.37 1221.58 1708.00 1480.72 2093.36 1501.63
00014883 00000095 1492.87 420.41 983.96 1440.72 1696.48 954.33 2176.41 980.64 1880.43 1236.11 1719.84 1489.84 2101.54 1511.65
00014884 00000096 1498.53 422.53 1011.10 1456.46 1722.81 954.46 2206.05 992.86 1904.55 1249.83 1738.54 1489.63 2113.59 1523.70
00014885 00000097 1509.62 423.62 1007.54 1455.84 1741.56 953.66 2227.66 995.35 1926.56 1249.60 1752.52 1490.42 2125.50 1527.18
00014886 00000098 1514.36 414.25 1014.58 1479.12 1759.93 953.28 2247.91 998.31 1948.67 1253.78 1765.08 1492.73 2147.10 1532.30
00014887 00000099 1526.34 411.13 1012.09 1467.13 1778.93 947.98 2266.13 994.70 1976.16 1254.27 1789.17 1492.69 2168.65 1533.09
00014888 00000100 1532.54 400.78 1017.40 1468.03 1795.52 944.51 2279.28 986.24 1997.25 1242.41 1812.29 1486.43 2183.24 1522.56
00014889 00000101 1542.98 399.24 1007.03 1458.02 1797.99 930.24 2292.65 966.70 2016.75 1222.85 1812.30 1478.18 2193.91 1508.07
00014890 00000102 1547.17 402.83 1009.63 1454.95 1804.70 929.80 2299.42 962.42 2027.44 1223.42 1825.19 1484.94 2201.36 1511.81
00014891 00000103 1542.16 397.03 1026.86 1495.43 1814.92 941.41 2301.30 977.50 2027.58 1241.91 1839.07 1500.40 2197.82 1532.10
00014892 00000104 1543.56 395.58 1023.40 1493.42 1814.40 942.76 2300.51 978.72 2027.30 1246.13 1842.27 1503.10 2194.79 1534.68
00014893 00000105 1544.86 406.49 1010.06 1475.53 1805.53 934.01 2295.90 964.65 2031.12 1232.34 1834.40 1500.30 2197.22 1526.46
00014894 00000106 1543.91 395.28 1009.46 1475.85 1804.56 932.12 2295.52 963.17 2028.95 1229.64 1832.51 1494.67 2197.40 1521.14
00014895 00000107 1539.02 391.53 1015.03 1482.76 1800.40 930.39 2292.81 963.46 2024.63 1225.42 1820.88 1486.30 2198.63 1514.04
00014896 00000108 1539.23 380.53 1021.17 1474.80 1792.20 929.18 2292.85 956.43 2020.39 1216.53 1820.53 1480.71 2201.67 1504.87
00014897 00000109 1530.48 377.20 1019.07 1481.44 1792.85 921.23 2291.41 953.80 2022.33 1212.33 1807.45 1471.36 2202.50 1497.71
00014898 00000110 1540.24 370.25 1012.62 1468.62 1788.54 924.09 2272.17 950.13 2018.08 1200.06 1813.86 1475.78 2189.74 1497.76
00014899 00000111 1533.97 360.92 1015.31 1478.70 1785.98 922.79 2269.34 946.22 2017.37 1194.02 1813.73 1474.01 2190.35 1493.75
00014900 00000112 1532.39 359.13 1011.35 1474.81 1783.80 918.85 2266.57 943.23 2014.83 1190.08 1811.53 1469.29 2186.11 1489.82
00014901 00000113 1529.62 360.35 1009.97 1469.42 1780.50 918.00 2263.46 939.19 2012.45 1183.85 1810.74 1467.23 2183.87 1485.20
00014902 00000114 1527.13 359.80 1007.82 1482.82 1779.55 913.02 2259.79 937.18 2010.25 1178.12 1808.72 1467.81 2179.59 1488.29
00014903 00000115 1514.02 356.32 1020.68 1484.32 1768.18 908.90 2262.20 920.56 2003.57 1178.94 1807.18 1457.32 2192.17 1465.53
00014904 00000116 1513.74 356.68 1016.15 1474.23 1762.26 907.51 2254.23 915.26 1996.19 1177.36 1807.13 1456.27 2185.93 1461.75
00014905 00000117 1517.31 362.22 1007.63 1463.50 1760.85 908.18 2252.40 913.27 1994.59 1177.84 1807.87 1457.31 2186.04 1460.77
00014906 00000118 1519.75 361.12 1006.48 1463.80 1761.94 910.64 2252.92 914.62 1995.53 1178.27 1810.90 1457.32 2187.05 1459.75
00014907 00000119 1518.23 361.64 1008.87 1472.62 1765.00 912.36 2255.72 915.69 1999.00 1176.57 1811.55 1459.91 2191.62 1461.33
00014908 00000120 1530.08 360.26 998.75 1476.47 1778.55 916.93 2252.22 931.26 2009.04 1171.58 1816.44 1466.78 2180.90 1479.14
00014909 00000121 1530.06 358.38 999.34 1472.31 1782.97 926.23 2251.61 932.05 2015.85 1169.85 1821.23 1460.85 2191.98 1465.89
00014910 00000122 1530.05 356.80 1005.00 1471.47 1787.73 928.84 2257.89 935.91 2020.89 1170.50 1821.50 1455.66 2200.87 1461.21
00014911 00000123 1534.73 351.53 1005.53 1472.35 1791.71 923.42 2261.52 929.82 2026.44 1167.06 1826.69 1452.33 2203.82 1457.68
00014912 00000124 1540.80 344.77 1004.80 1476.10 1795.73 920.60 2266.54 926.11 2030.16 1165.13 1830.10 1449.70 2207.72 1454.76
00014913 00000125 1546.30 345.82 1002.90 1476.33 1802.55 919.65 2270.02 924.35 2033.16 1160.53 1834.03 1445.37 2213.64 1449.94
00014914 00000126 1553.33 347.73 1006.02 1462.16 1805.73 912.76 2279.31 917.62 2036.53 1158.86 1839.63 1443.68 2218.53 1448.54
00014915 00000127 1557.39 350.66 1007.44 1462.59 1810.14 903.94 2284.04 907.89 2039.58 1150.58 1845.56 1439.75 2225.55 1443.82
00014916 00000128 1559.31 349.42 1005.85 1449.51 1811.11 897.60 2286.11 900.58 2040.17 1136.78 1846.64 1428.19 2229.82 1431.37
00014917 00000129 1562.29 346.42 1003.62 1441.93 1812.09 885.95 2292.73 888.02 2044.08 1126.41 1849.70 1419.34 2236.55 1421.75
00014918 00000130 1559.04 328.56 1006.98 1467.33 1815.47 875.53 2303.32 880.48 2053.77 1111.64 1846.96 1410.79 2245.14 1415.72
00014919 00000131 1562.50 327.85 1000.86 1433.22 1809.77 873.91 2300.40 872.07 2050.17 1113.11 1852.54 1402.73 2251.18 1402.10
00014920 00000132 1562.53 320.27 998.42 1430.85 1810.16 868.86 2299.69 865.82 2048.70 1106.02 1857.94 1398.73 2249.50 1397.30
00014921 00000133 1562.47 319.79 996.19 1424.44 1811.11 867.07 2299.13 865.07 2048.73 1099.55 1861.05 1397.37 2245.81 1396.59
00014922 00000134 1560.17 318.83 996.62 1426.88 1810.24 866.96 2297.17 864.51 2046.86 1096.55 1860.21 1395.67 2243.45 1394.36
00014923 00000135 1559.68 325.09 993.59 1422.18 1807.21 864.75 2292.03 862.30 2043.96 1093.09 1858.37 1395.93 2239.85 1394.62
00014924 00000136 1556.83 328.92 993.23 1419.05 1803.55 864.61 2287.90 861.45 2039.50 1093.67 1858.00 1397.20 2236.59 1395.40
00014925 00000137 1552.84 327.29 994.94 1421.31 1800.23 868.25 2285.40 862.17 2035.97 1091.58 1855.53 1396.16 2237.11 1392.01
00014926 00000138 1550.91 330.76 993.58 1420.64 1798.24 870.74 2283.13 863.90 2034.68 1093.38 1850.24 1394.76 2236.62 1389.99
00014927 00000139 1551.19 337.14 993.23 1413.08 1794.55 873.98 2280.79 864.09 2032.91 1093.56 1848.70 1396.38 2236.55 1389.18
00014928 00000140 1549.68 336.14 991.54 1402.64 1791.44 871.72 2274.92 861.57 2029.37 1092.07 1850.91 1394.79 2230.96 1387.60
00014929 00000141 1544.37 342.61 991.96 1393.29 1785.72 868.87 2266.31 857.95 2024.40 1088.12 1850.41 1393.30 2221.13 1385.30
00014930 00000142 1542.94 345.12 983.29 1381.95 1777.79 870.18 2257.54 853.98 2019.55 1088.94 1847.03 1394.66 2215.22 1382.76
00014931 00000143 1541.33 338.09 977.16 1383.92 1771.67 874.93 2253.96 855.18 2012.95 1088.05 1837.96 1394.31 2212.09 1379.29
00014932 00000144 1539.28 335.03 974.98 1366.30 1762.19 879.43 2255.17 856.31 2007.17 1093.98 1828.61 1395.03 2213.82 1377.05
00014933 00000145 1533.58 335.14 977.29 1380.00 1756.52 879.49 2253.44 857.76 2002.26 1098.65 1820.06 1398.45 2208.51 1381.75
00014934 00000146 1529.53 341.10 977.43 1380.81 1752.39 884.84 2250.85 862.29 1997.76 1099.61 1817.04 1404.84 2201.47 1387.57
00014935 00000147 1523.01 349.02 977.74 1369.95 1740.85 880.05 2237.18 868.50 1978.93 1095.77 1813.45 1410.40 2188.41 1397.36
00014936 00000148 1515.69 361.51 979.00 1382.48 1737.17 893.05 2227.86 872.58 1976.78 1104.25 1816.77 1428.22 2180.18 1409.61
00014937 00000149 1513.80 380.03 972.38 1389.37 1742.40 921.42 2215.59 893.23 1986.19 1125.59 1829.48 1451.37 2181.33 1428.47
00014938 00000150 1511.87 390.37 972.96 1382.66 1741.33 932.24 2221.47 900.74 1992.28 1139.22 1832.13 1464.09 2192.92 1438.15
00014939 00000151 1513.13 401.00 974.29 1374.28 1738.74 934.05 2230.07 898.59 1996.83 1146.94 1831.89 1469.18 2210.02 1438.34
00014940 00000152 1510.59 390.44 981.49 1383.54 1742.48 932.43 2234.72 892.60 2005.54 1142.76 1842.29 1470.52 2216.62 1435.86
00014941 00000153 1505.83 385.73 987.01 1390.50 1739.20 922.22 2236.68 884.87 2006.73 1133.66 1837.73 1463.77 2215.17 1431.12
00014942 00000154 1494.66 378.53 988.43 1401.43 1734.18 913.65 2228.25 879.81 1999.98 1129.23 1830.86 1457.87 2202.17 1428.75
00014943 00000155 1466.59 385.52 1006.09 1401.68 1720.97 911.04 2207.82 874.67 1989.67 1134.59 1826.99 1459.04 2186.06 1426.83
CROP_BBOX: 742 0 3113 2160
