Video ID: 	5eBAzP58GCE
H: 	1080
W: 	1920
FPS: 	25.0

FRAME INDEX X0 Y0 W H [Landmarks (5 Points)]

00000572 00000000 571.83 210.81 435.39 667.80 690.27 477.66 892.23 484.90 789.79 624.12 697.45 703.39 876.80 708.06
00000573 00000001 570.67 210.16 439.03 672.97 689.77 476.50 892.91 483.83 790.44 625.08 699.07 708.46 876.09 712.89
00000574 00000002 570.96 208.82 439.45 672.05 688.92 475.17 893.57 482.51 789.87 625.36 699.26 709.23 875.35 713.63
00000575 00000003 569.47 206.71 442.21 672.09 688.36 473.14 894.60 480.79 789.36 624.06 698.42 707.07 875.80 711.64
00000576 00000004 568.79 205.65 442.50 668.48 689.48 471.56 895.99 478.48 792.46 624.77 699.62 704.25 877.68 708.20
00000577 00000005 569.89 204.65 441.84 668.07 690.69 471.19 896.39 477.90 793.96 623.15 700.71 704.08 877.86 707.73
00000578 00000006 570.13 202.20 443.51 671.45 691.44 469.54 898.51 477.64 794.96 619.47 700.03 703.48 877.91 708.13
00000579 00000007 569.44 202.03 444.56 673.63 691.95 467.30 897.97 477.83 793.49 617.90 698.36 701.28 876.13 707.90
00000580 00000008 568.33 200.19 445.07 675.54 690.17 464.03 897.58 475.84 790.86 614.95 694.05 699.59 874.43 707.49
00000581 00000009 566.02 198.22 446.92 672.70 688.05 462.81 895.95 474.79 787.78 611.98 691.15 692.76 877.26 700.71
00000582 00000010 566.36 196.63 444.96 670.49 687.78 460.62 894.44 473.02 786.16 609.33 689.64 688.75 876.89 697.07
00000583 00000011 566.89 188.15 445.99 668.58 690.10 449.13 897.68 465.10 787.17 599.33 686.02 676.94 874.37 688.44
00000584 DELETE   571.90 178.43 438.80 674.59 685.12 434.48 900.29 454.75 784.15 592.60 680.62 665.23 872.43 682.63
00000585 00000013 570.96 174.25 440.12 672.92 686.31 429.79 903.47 449.17 787.98 583.84 681.65 659.93 874.38 676.62
00000586 00000014 568.88 174.30 442.28 669.33 686.18 425.92 903.64 445.93 787.55 578.31 680.82 655.23 873.57 672.56
00000587 00000015 569.00 175.31 441.83 666.00 686.71 424.30 903.87 444.16 787.90 575.15 680.92 652.01 875.12 669.22
00000588 00000016 571.20 176.16 439.43 662.28 689.97 422.71 906.49 442.68 791.55 570.91 683.04 650.00 875.23 667.41
00000589 00000017 571.35 176.50 440.05 662.03 690.52 422.15 907.72 442.98 791.76 570.44 682.03 649.04 875.65 667.15
00000590 00000018 572.80 177.41 440.22 661.23 692.26 421.95 909.66 444.01 793.00 570.42 681.74 648.79 875.63 667.91
00000591 00000019 573.43 178.59 439.80 661.06 694.10 423.92 910.65 446.19 795.06 573.15 682.41 649.52 876.20 668.88
00000592 00000020 573.15 178.95 440.39 662.76 692.14 428.90 909.79 448.33 794.57 577.80 683.22 654.43 877.02 671.44
00000593 00000021 563.07 187.67 448.87 651.52 678.52 442.53 891.74 453.90 779.06 585.29 680.05 665.47 873.37 672.89
00000594 00000022 556.76 188.65 451.85 653.75 665.73 451.28 877.03 459.97 763.81 587.99 671.07 671.94 864.81 677.07
00000595 DELETE   553.73 192.55 448.32 655.70 657.61 458.11 864.47 465.78 750.92 589.03 662.81 676.79 856.70 680.95
00000596 00000024 552.15 193.67 447.26 661.96 652.08 459.30 861.55 468.21 743.29 594.78 655.78 680.76 850.10 686.41
00000597 DELETE   552.52 195.10 447.94 664.82 655.76 456.64 864.06 468.20 745.00 596.99 658.07 680.54 850.86 688.56
00000598 DELETE   558.97 192.52 451.37 664.85 677.31 455.55 885.65 471.97 771.09 597.05 673.09 675.71 867.46 687.92
00000599 00000027 568.21 194.55 445.93 654.33 691.51 455.03 899.40 473.31 788.24 600.52 684.25 673.76 875.45 687.60
00000600 DELETE   580.71 198.10 437.32 655.52 701.73 455.97 912.57 475.21 800.89 601.22 692.40 672.22 878.44 689.27
00000601 DELETE   583.74 199.11 438.48 655.05 710.73 458.09 918.44 477.06 813.12 603.65 702.28 673.05 885.63 689.63
00000602 DELETE   585.87 200.14 438.36 657.79 715.61 456.41 923.89 476.91 820.31 605.66 707.04 675.28 890.34 692.98
00000603 00000031 591.29 201.04 437.95 656.76 715.48 457.85 925.83 480.41 818.09 611.84 709.83 682.98 888.93 702.13
00000604 00000032 590.71 201.90 437.77 656.31 712.67 459.24 922.42 481.53 813.14 613.46 707.36 684.78 884.60 703.84
00000605 00000033 590.24 202.14 437.06 656.77 708.30 457.48 918.47 480.89 806.03 611.94 702.42 685.45 878.45 705.62
00000606 00000034 590.17 203.41 437.92 658.26 704.69 454.39 915.03 480.90 797.97 611.00 698.49 687.36 872.94 710.10
00000607 00000035 591.38 203.71 436.51 659.25 702.25 450.84 912.59 480.64 791.25 608.76 694.47 688.02 867.04 713.61
00000608 00000036 589.74 203.13 440.23 658.78 706.54 450.42 916.46 480.27 796.11 607.95 695.10 681.06 874.24 706.50
00000609 00000037 590.01 202.13 442.62 660.56 711.26 452.27 921.65 480.76 804.33 608.97 699.55 679.87 882.22 703.85
00000610 DELETE   592.21 201.85 443.21 660.00 715.06 451.18 926.60 480.03 810.94 608.34 702.82 678.02 888.74 701.95
00000611 00000039 592.80 202.24 443.64 657.23 716.05 451.31 927.97 479.03 812.80 607.29 704.37 677.19 890.63 700.23
00000612 00000040 592.51 201.22 443.86 656.96 714.97 450.75 925.97 478.90 809.45 606.23 701.78 674.97 889.14 698.47
00000613 00000041 592.36 200.15 442.13 655.84 710.76 447.86 921.27 477.69 799.94 602.66 696.60 673.44 882.27 698.42
00000614 00000042 593.82 200.34 441.95 658.06 712.36 448.75 923.48 477.94 803.53 602.85 698.80 675.30 885.24 699.57
00000615 00000043 595.09 200.61 441.87 660.02 715.33 448.47 927.50 477.64 809.42 602.96 702.75 676.07 890.82 700.08
00000616 00000044 596.91 199.89 440.48 660.87 716.87 448.23 929.78 476.38 813.37 601.85 705.51 677.11 893.68 700.12
00000617 00000045 596.66 199.97 440.58 658.57 716.09 448.00 928.07 475.69 811.80 600.60 704.49 675.32 892.18 698.09
00000618 00000046 596.54 199.02 439.51 655.14 715.06 445.96 925.69 474.73 807.56 598.28 701.28 670.50 888.52 694.40
00000619 00000047 598.45 198.77 439.77 653.35 717.39 444.93 929.35 473.61 811.78 597.23 703.72 669.84 892.17 693.59
00000620 00000048 600.91 198.49 439.22 653.44 722.27 444.48 935.88 474.07 820.91 595.89 709.42 670.07 899.04 694.29
00000621 00000049 602.49 196.82 440.70 655.58 725.35 443.11 939.20 473.56 824.89 595.38 711.07 668.70 902.24 693.62
00000622 00000050 603.16 196.23 440.88 656.57 725.12 441.45 939.35 472.13 824.60 593.93 711.55 668.54 902.60 693.49
00000623 00000051 606.49 196.97 434.05 654.19 727.66 438.50 935.60 471.25 822.75 590.28 710.91 666.14 899.75 692.36
00000624 00000052 607.04 195.52 434.77 654.79 728.19 435.41 937.52 468.75 823.50 586.23 711.16 665.19 899.45 691.76
00000625 00000053 604.24 187.54 439.84 660.06 728.01 430.50 942.20 465.38 826.88 580.25 710.82 660.77 899.74 689.18
00000626 DELETE   607.67 184.44 438.70 657.27 731.95 428.51 946.78 462.49 833.27 577.61 717.65 659.83 903.70 687.75
00000627 00000055 614.49 190.75 433.58 650.44 739.63 431.01 948.53 464.21 840.38 578.33 731.07 664.38 908.16 690.09
00000628 00000056 613.75 187.77 433.36 657.02 731.94 431.65 944.91 462.84 831.01 584.68 731.15 679.10 894.11 703.58
00000629 00000057 609.05 186.19 437.58 665.69 725.56 432.32 940.05 462.16 822.52 588.14 725.65 683.70 885.19 707.71
00000630 00000058 604.38 187.74 439.19 672.46 717.67 435.13 932.26 463.40 811.89 592.28 716.13 687.52 879.27 710.82
00000631 00000059 600.88 188.39 443.98 678.29 711.81 437.08 925.90 466.32 801.66 597.27 707.68 688.96 873.61 713.42
00000632 00000060 601.97 196.00 446.62 671.43 707.93 444.33 922.90 475.70 792.79 603.70 700.87 694.28 866.09 720.71
00000633 00000061 606.46 207.83 448.47 664.81 709.99 460.86 929.15 493.42 794.63 621.08 700.14 706.90 868.83 734.26
00000634 00000062 610.36 210.72 445.52 667.40 714.97 463.43 932.03 497.33 800.43 625.12 702.02 708.26 874.11 736.31
00000635 00000063 613.96 209.17 442.72 671.55 723.72 462.32 939.23 500.00 809.14 628.04 706.72 707.84 879.57 738.87
00000636 00000064 615.36 207.09 441.32 676.29 729.17 459.41 942.49 498.51 816.81 625.93 709.13 704.07 884.19 736.11
00000637 DELETE   616.35 205.03 441.76 675.78 729.89 456.66 942.48 495.77 816.91 623.68 709.27 701.24 884.76 733.40
00000638 00000066 614.16 205.99 443.64 658.72 722.33 454.52 934.26 491.51 802.32 618.13 703.53 693.10 877.05 723.83
00000639 00000067 612.66 203.36 445.17 659.79 719.28 451.66 931.69 490.95 795.38 616.32 699.94 689.62 873.27 722.16
00000640 00000068 610.88 198.05 446.97 670.90 718.06 449.18 927.83 489.97 791.74 614.23 698.55 690.00 867.93 723.62
00000641 00000069 609.12 197.70 450.38 675.41 715.72 447.10 925.13 489.87 785.75 613.29 695.00 690.48 861.40 725.82
00000642 00000070 609.72 198.28 449.07 677.75 716.77 445.76 923.04 491.81 782.85 613.62 694.39 689.51 857.50 727.54
00000643 00000071 609.48 195.22 448.06 664.38 714.95 440.60 921.29 485.65 780.13 605.26 694.96 677.54 860.52 714.27
00000644 00000072 609.17 192.13 445.96 661.67 713.33 434.47 919.03 479.45 777.31 598.05 693.67 671.35 857.66 708.30
00000645 00000073 609.39 189.60 444.25 661.13 710.07 428.03 913.28 475.96 769.25 587.64 685.86 663.77 856.65 703.05
00000646 00000074 610.39 187.58 442.52 657.17 711.59 423.69 915.90 471.70 769.32 586.86 688.46 658.72 853.79 698.19
00000647 00000075 609.10 189.50 443.17 659.86 711.34 422.85 914.53 472.68 766.92 585.71 686.03 658.93 852.56 699.77
00000648 00000076 606.39 201.23 449.18 662.46 709.52 434.02 911.27 483.07 765.02 598.65 684.86 671.29 854.69 711.07
00000649 DELETE   605.57 207.83 448.73 655.02 709.26 444.46 913.24 495.08 766.37 611.16 683.43 673.33 857.12 714.20
00000650 DELETE   604.18 213.24 446.91 648.48 709.40 450.60 914.80 502.25 768.32 619.02 682.12 673.24 862.08 714.99
00000651 00000079 605.70 215.20 444.90 648.65 709.96 454.94 917.21 503.92 772.41 625.70 683.46 676.32 869.06 715.97
00000652 00000080 606.52 214.30 443.88 652.34 709.54 459.32 918.29 503.57 776.46 628.55 686.59 681.59 873.93 717.37
00000653 00000081 607.88 215.34 442.53 652.72 707.52 464.28 919.62 500.75 782.02 630.81 690.30 686.62 881.45 716.15
00000654 00000082 607.50 214.73 442.38 654.59 705.59 464.21 917.16 500.27 779.41 629.70 689.87 686.92 880.97 715.86
00000655 00000083 606.48 213.20 443.17 657.66 703.69 463.37 915.24 499.46 777.01 628.66 688.73 688.80 878.09 717.56
00000656 00000084 607.61 212.95 443.29 660.27 705.52 463.29 916.52 499.51 778.27 627.64 689.05 689.82 878.06 718.70
00000657 00000085 610.21 214.06 443.23 660.76 708.78 464.73 919.61 500.71 781.16 629.21 691.82 692.23 878.82 721.17
00000658 00000086 612.08 211.47 442.53 661.61 709.99 464.70 922.75 500.70 784.10 629.37 693.42 695.89 877.10 725.19
00000659 00000087 611.81 212.73 441.41 660.21 708.55 464.96 921.00 500.89 782.26 629.96 693.53 698.06 873.84 727.29
00000660 00000088 611.80 213.01 440.64 660.24 706.89 466.38 920.10 502.30 780.01 631.02 693.51 701.52 869.84 730.72
00000661 00000089 611.82 213.74 439.39 658.63 707.72 467.79 920.25 502.77 781.10 632.32 694.81 702.04 869.49 730.67
00000662 00000090 612.31 213.87 437.98 658.46 709.78 470.49 919.88 505.84 783.02 632.98 696.37 701.78 869.13 730.75
00000663 00000091 612.55 205.52 432.50 674.39 712.30 478.39 920.00 506.52 794.94 626.82 702.27 706.29 878.76 728.94
00000664 DELETE   612.13 205.97 433.79 679.71 712.86 474.43 923.77 500.87 799.26 626.01 705.14 709.23 881.22 730.59
00000665 00000093 610.90 206.47 436.12 679.69 713.47 471.74 925.49 493.60 804.41 624.79 709.55 707.05 890.46 724.57
00000666 00000094 609.16 204.61 436.11 676.63 714.59 469.12 925.18 487.39 808.46 622.20 712.96 700.52 895.46 715.17
00000667 00000095 607.88 201.33 433.89 674.23 713.98 467.64 924.96 482.64 812.91 619.92 716.45 696.55 900.66 708.44
00000668 00000096 605.02 199.30 430.10 669.11 716.72 467.44 925.79 473.59 827.69 617.49 728.30 698.11 907.94 702.66
00000669 00000097 604.44 200.70 427.01 664.45 719.36 467.60 926.80 471.12 835.55 615.54 734.37 699.79 910.58 702.16
00000670 00000098 603.99 200.10 427.54 661.85 723.49 469.45 930.77 471.32 844.65 616.60 741.84 702.09 914.61 703.17
00000671 00000099 603.37 201.02 426.63 661.11 727.44 470.91 932.24 468.25 855.37 618.99 750.94 705.33 919.64 702.83
00000672 00000100 602.30 198.60 429.00 664.67 730.85 472.90 935.13 467.21 862.55 621.82 759.11 707.88 926.12 702.73
00000673 00000101 602.41 194.76 426.72 666.38 733.31 471.51 936.87 461.63 869.51 623.89 773.29 713.61 929.96 704.73
00000674 00000102 599.08 190.39 428.25 671.64 730.46 469.83 934.26 460.38 866.63 623.75 771.58 712.81 927.44 704.22
00000675 00000103 593.61 188.68 428.21 674.97 722.26 468.06 930.29 460.29 859.33 623.40 763.55 711.78 921.69 704.63
00000676 00000104 590.51 186.21 427.87 683.67 716.55 467.73 923.51 461.13 849.54 624.22 754.51 710.88 914.29 704.96
00000677 00000105 585.00 185.42 430.15 685.71 708.52 470.33 917.65 465.38 836.50 626.60 743.55 710.49 906.01 706.26
00000678 00000106 572.53 193.92 437.22 672.60 696.56 472.82 906.01 462.08 818.75 622.23 733.46 716.67 897.54 704.68
00000679 00000107 569.41 193.77 439.68 669.22 691.68 473.73 902.71 462.84 812.58 619.37 725.91 713.04 894.95 701.03
00000680 00000108 568.31 193.77 439.55 672.70 691.07 473.93 900.81 464.32 809.87 618.77 721.66 711.17 892.23 700.36
00000681 00000109 570.18 194.74 436.88 669.42 692.48 473.86 900.99 465.96 809.18 619.35 718.44 709.39 890.59 700.34
00000682 00000110 572.56 195.71 432.92 666.31 694.76 474.94 902.76 468.02 810.57 620.56 717.55 705.75 893.63 697.55
00000683 00000111 574.79 195.39 429.41 660.44 698.32 477.29 905.17 470.09 814.73 620.74 719.74 701.98 897.72 693.60
00000684 00000112 573.98 194.40 430.03 660.06 698.79 476.25 905.16 470.00 814.68 620.33 718.22 698.58 897.92 691.23
00000685 00000113 572.92 193.34 431.81 660.72 695.45 472.69 904.05 466.94 810.27 618.08 712.75 695.75 896.15 688.94
00000686 00000114 567.33 189.64 436.80 665.22 688.32 468.55 900.11 463.98 803.38 615.38 705.41 693.90 892.43 688.16
00000687 00000115 564.87 187.04 439.93 663.95 682.12 461.34 895.40 457.82 794.86 611.32 701.05 691.15 886.42 686.02
00000688 00000116 566.81 176.40 440.88 667.70 679.24 447.39 890.87 450.55 785.57 602.27 698.07 681.95 876.84 683.55
00000689 00000117 576.63 170.74 431.07 665.72 689.61 442.82 907.57 447.29 804.53 591.52 700.51 671.29 883.24 676.16
00000690 00000118 583.99 171.22 425.08 660.33 703.01 440.03 915.41 446.01 818.29 583.92 710.21 664.86 888.02 671.05
00000691 00000119 591.78 170.21 420.53 656.88 709.91 439.20 919.04 445.34 825.78 579.73 721.10 662.82 894.51 668.86
00000692 00000120 591.40 165.43 421.84 659.32 709.23 433.86 919.84 439.08 827.00 573.41 724.05 661.39 897.25 666.52
00000693 00000121 581.25 161.37 427.60 668.14 695.07 424.38 907.79 429.07 810.40 564.40 716.12 666.63 878.37 672.12
00000694 00000122 576.21 162.08 432.03 671.36 687.81 424.27 900.73 427.67 802.32 565.94 709.84 666.60 872.41 671.20
00000695 00000123 570.93 161.41 437.31 668.63 678.11 425.19 895.07 430.61 789.55 570.19 699.36 664.87 868.25 670.73
00000696 DELETE   562.14 166.70 441.96 668.10 670.55 429.97 878.95 437.39 770.83 579.00 696.63 673.98 862.89 678.74
00000697 00000125 559.16 178.22 446.90 653.87 668.29 438.43 879.90 442.68 772.97 582.31 694.48 679.59 858.18 680.01
00000698 00000126 559.40 185.25 446.31 659.24 663.33 449.39 876.73 449.18 765.73 599.08 689.30 694.79 855.70 692.22
00000699 00000127 559.67 187.65 443.72 660.89 661.60 454.24 874.60 453.16 764.03 605.94 689.04 700.11 855.98 696.74
00000700 00000128 559.45 192.12 443.78 656.82 659.71 457.91 873.31 456.11 763.25 611.52 688.55 701.62 856.85 697.92
00000701 00000129 558.68 195.62 444.56 657.67 659.45 460.74 873.51 458.21 763.14 614.16 690.23 704.52 859.09 700.12
00000702 00000130 558.22 197.53 445.83 660.08 660.54 463.09 873.77 460.39 764.40 614.83 691.90 706.31 861.17 701.65
00000703 00000131 559.88 200.70 445.90 658.07 667.84 466.75 878.22 465.48 771.60 617.85 693.53 701.43 869.16 698.36
00000704 00000132 563.44 198.92 443.24 661.35 673.05 468.76 882.01 468.25 776.93 618.27 693.97 700.00 874.06 697.70
00000705 00000133 565.50 198.32 441.04 663.42 678.06 470.22 888.90 469.94 783.46 621.46 695.74 698.78 881.48 697.01
00000706 00000134 568.09 199.41 439.60 665.62 681.63 473.30 892.67 472.76 787.75 622.84 697.52 699.18 885.02 697.33
00000707 00000135 570.58 202.37 438.09 666.68 685.24 475.01 895.29 475.75 790.77 625.88 698.60 700.40 886.58 699.69
00000708 00000136 572.02 208.96 437.50 664.28 685.64 480.06 894.85 481.09 790.99 634.79 699.86 704.34 887.65 703.72
00000709 00000137 569.89 210.62 438.56 664.63 683.51 482.51 893.67 483.19 789.91 638.49 697.49 704.67 888.59 703.83
00000710 00000138 566.78 212.00 441.04 663.43 681.45 484.35 892.54 483.95 789.05 640.44 696.67 706.57 887.11 704.93
00000711 00000139 566.57 212.78 441.15 662.82 680.71 485.96 891.66 484.52 788.07 641.86 696.25 707.34 886.78 704.85
00000712 00000140 566.14 214.55 441.42 661.24 679.45 486.48 891.79 485.09 786.70 643.74 695.81 708.59 887.00 706.11
00000713 00000141 564.12 215.82 442.59 661.25 677.47 488.27 890.28 486.17 785.90 646.59 697.53 711.84 887.04 708.67
00000714 00000142 564.31 216.29 443.13 662.56 677.25 488.52 889.68 486.73 785.19 646.62 697.41 713.14 885.91 710.19
00000715 00000143 564.06 216.12 443.48 665.76 677.89 489.01 889.85 486.51 786.36 646.35 699.38 715.84 885.43 712.26
00000716 00000144 564.89 215.66 443.57 666.56 676.57 488.80 889.61 485.89 785.13 646.22 701.44 721.38 882.88 717.26
00000717 00000145 563.75 214.03 445.29 668.90 675.71 487.97 889.47 485.23 784.70 646.52 702.74 725.04 880.29 721.01
00000718 00000146 566.85 209.15 439.57 676.18 681.52 493.37 887.77 493.67 786.85 643.42 704.78 725.23 876.83 723.76
00000719 00000147 567.84 206.31 438.38 680.22 685.54 494.50 886.27 496.05 788.46 637.81 706.45 723.28 874.27 722.94
00000720 00000148 566.06 207.49 441.13 675.78 680.71 489.64 886.84 490.89 785.57 636.32 703.57 722.95 874.43 722.18
00000721 00000149 564.11 206.28 444.65 674.82 677.15 487.16 885.57 487.18 785.32 635.14 703.38 723.30 874.38 721.61
00000722 00000150 561.90 203.45 446.85 676.44 676.87 482.49 884.96 482.11 784.89 631.48 705.22 722.04 873.34 719.70
00000723 00000151 560.45 200.91 444.97 673.25 676.43 476.55 882.82 473.82 784.62 623.22 705.84 716.24 873.53 711.68
00000724 00000152 558.76 199.47 447.10 675.62 674.77 471.39 883.22 468.33 783.42 619.84 704.03 713.00 874.93 707.99
00000725 00000153 559.66 195.75 446.55 680.90 674.50 467.11 881.79 465.67 782.23 615.64 702.21 710.06 873.11 706.27
00000726 00000154 558.50 192.75 446.74 684.45 672.60 462.43 881.38 460.78 780.67 611.77 699.88 708.02 871.71 704.05
00000727 00000155 558.03 190.49 445.33 684.65 669.43 460.94 879.28 458.28 777.58 611.07 699.20 708.92 871.05 704.16
00000728 DELETE   557.75 186.62 442.75 681.95 672.82 465.34 877.07 466.08 776.86 605.29 696.10 700.39 868.87 698.35
00000729 DELETE   558.71 186.62 441.27 678.34 672.51 460.61 878.49 458.94 777.89 602.55 695.73 697.49 871.08 693.49
00000730 00000158 557.65 182.50 443.64 680.69 668.66 453.87 881.85 450.20 778.56 599.30 694.73 696.52 873.27 691.14
00000731 DELETE   558.30 180.62 442.28 674.32 667.52 449.42 881.15 444.88 778.47 596.86 695.58 692.07 873.83 685.88
00000732 00000160 557.14 180.28 441.62 671.09 664.22 447.25 877.69 439.78 775.92 592.56 697.18 691.42 871.64 682.45
00000733 00000161 554.96 179.84 443.22 669.37 659.42 443.91 873.84 434.07 771.21 587.96 696.27 690.43 868.91 679.28
00000734 00000162 554.64 179.47 443.57 670.64 659.88 444.73 874.24 434.73 772.06 587.95 696.65 690.39 869.85 679.16
00000735 00000163 555.80 178.55 443.60 670.20 663.16 447.17 876.19 437.76 775.66 589.64 697.63 688.51 871.66 678.13
00000736 00000164 557.87 182.61 443.47 659.88 664.01 451.80 879.37 442.05 778.18 592.96 695.54 686.49 877.05 675.95
00000737 00000165 558.48 183.30 443.46 658.52 664.28 454.58 880.73 444.25 778.22 596.86 695.79 688.77 879.04 677.85
00000738 00000166 558.76 186.59 442.95 660.95 665.63 459.04 882.40 447.37 780.78 602.80 699.36 696.33 879.92 684.25
00000739 00000167 559.49 187.67 441.14 660.46 666.18 462.56 884.52 450.17 782.87 606.01 700.55 700.49 881.44 687.87
00000740 00000168 559.54 187.98 440.33 662.71 667.53 463.85 883.81 451.79 783.89 608.94 701.35 702.36 879.52 690.03
00000741 00000169 558.82 189.00 439.82 661.65 667.12 465.39 883.34 453.29 783.76 610.68 701.59 704.20 878.86 691.91
00000742 00000170 558.37 188.51 440.71 660.18 666.65 464.85 883.12 452.92 783.97 610.11 702.48 704.63 877.81 692.50
