Video ID: 	tuPWFeFHHfg
H: 	1080
W: 	1920
FPS: 	25.0

FRAME INDEX X0 Y0 W H [Landmarks (5 Points)]

00003559 00000000 1056.72 72.08 382.72 553.79 1140.50 300.10 1315.03 306.01 1216.17 417.68 1165.43 499.78 1298.21 505.97
00003560 00000001 1057.30 70.89 385.12 555.02 1142.89 301.55 1317.67 305.96 1220.72 418.03 1171.28 501.31 1302.43 506.45
00003561 00000002 1056.55 73.26 385.67 554.13 1145.01 302.87 1317.99 305.59 1224.56 419.30 1177.05 505.55 1302.74 509.38
00003562 00000003 1056.47 77.57 384.52 552.73 1145.64 305.58 1317.82 307.14 1226.40 421.03 1178.62 510.45 1300.65 513.49
00003563 00000004 1054.87 75.83 385.11 555.30 1144.55 307.86 1316.66 308.73 1226.61 421.94 1178.62 512.56 1298.93 514.97
00003564 00000005 1057.90 73.21 381.61 560.37 1135.73 310.77 1319.54 308.51 1226.73 431.28 1167.10 522.06 1300.75 521.22
00003565 00000006 1053.23 66.73 376.80 568.24 1127.68 316.05 1309.88 315.63 1215.50 433.50 1153.46 518.15 1299.11 517.90
00003566 00000007 1044.11 74.66 382.11 560.95 1117.63 309.64 1298.10 311.02 1197.15 431.73 1146.68 516.02 1287.84 517.50
00003567 DELETE   1038.75 77.76 384.16 559.58 1106.05 308.55 1291.44 307.87 1187.55 433.59 1137.68 522.05 1277.01 522.23
00003568 00000009 1038.62 80.30 381.38 559.26 1106.60 320.07 1277.34 312.82 1178.06 437.94 1137.68 521.16 1272.13 515.87
00003569 DELETE   1033.98 77.74 379.13 561.76 1101.90 317.80 1269.56 311.96 1172.74 433.14 1132.51 520.21 1261.74 516.96
00003570 DELETE   1028.01 76.43 380.18 563.65 1096.09 317.25 1262.80 309.87 1165.66 429.17 1127.10 519.88 1255.82 515.92
00003571 DELETE   1024.69 79.05 380.23 563.52 1090.33 313.65 1258.90 306.14 1158.46 425.27 1120.39 518.53 1251.71 514.94
00003572 00000013 1022.03 79.80 379.05 560.93 1086.49 310.66 1255.11 304.43 1154.45 423.05 1115.25 515.37 1248.23 513.06
00003573 00000014 1019.64 79.65 379.27 558.57 1084.25 308.53 1252.42 304.63 1150.73 421.96 1112.54 513.36 1244.86 512.76
00003574 00000015 1017.73 79.92 379.13 555.78 1082.94 306.37 1249.94 304.14 1149.02 421.08 1110.19 510.79 1241.04 511.52
00003575 00000016 1013.42 76.46 378.62 558.16 1079.20 302.43 1244.20 304.28 1138.00 417.81 1108.11 504.11 1235.08 507.69
00003576 00000017 1012.18 75.91 376.67 555.58 1077.50 300.09 1241.44 302.66 1134.70 416.00 1106.02 501.67 1232.00 505.73
00003577 00000018 1010.05 77.27 375.07 552.98 1074.64 299.04 1235.93 301.68 1130.81 415.98 1103.79 501.79 1226.77 505.81
00003578 00000019 1006.53 79.34 375.65 547.66 1071.77 299.79 1232.31 300.85 1127.11 414.27 1101.93 501.48 1223.44 503.98
00003579 00000020 1001.78 77.67 376.77 547.34 1069.34 298.74 1228.64 299.70 1125.05 412.02 1099.80 500.72 1219.63 503.07
00003580 00000021 993.58 75.02 378.09 547.42 1065.93 295.39 1227.00 296.80 1124.32 407.16 1096.57 498.07 1216.18 500.78
00003581 00000022 994.73 82.71 372.33 537.02 1053.58 291.52 1225.89 292.28 1120.98 413.63 1090.58 501.31 1216.01 501.01
00003582 00000023 990.59 84.17 370.52 532.94 1045.41 288.94 1216.94 287.13 1114.07 409.95 1083.05 498.27 1209.26 495.83
00003583 00000024 987.09 85.37 365.84 532.25 1037.91 286.85 1208.55 284.02 1106.16 407.69 1075.62 495.97 1201.81 492.52
00003584 00000025 982.42 83.35 364.73 531.86 1034.04 288.51 1201.85 285.34 1101.15 406.02 1070.86 495.32 1193.75 491.25
00003585 00000026 970.17 75.41 375.66 540.86 1026.97 293.97 1193.84 282.15 1094.09 406.74 1067.09 501.43 1192.78 492.71
00003586 00000027 967.56 86.98 370.76 528.60 1019.69 303.59 1186.86 287.21 1087.67 410.02 1064.20 506.14 1189.08 493.64
00003587 00000028 969.15 89.95 362.21 528.73 1024.30 311.64 1184.20 299.79 1085.69 409.06 1056.87 503.98 1188.34 496.40
00003588 00000029 961.56 91.45 364.88 528.61 1019.15 310.00 1178.94 297.61 1080.63 408.38 1050.76 504.03 1182.49 496.57
00003589 00000030 953.36 85.96 366.30 531.07 1013.29 308.89 1168.03 298.54 1069.73 407.69 1050.64 497.25 1170.11 490.48
00003590 DELETE   948.72 85.18 366.74 532.54 1008.84 305.38 1163.06 296.17 1065.45 407.55 1046.94 496.89 1164.98 490.70
00003591 00000032 944.02 80.78 367.30 536.22 1004.70 306.49 1159.66 295.92 1063.20 407.49 1044.39 498.05 1162.70 490.58
00003592 00000033 939.11 82.83 369.27 534.23 1002.09 308.94 1157.54 297.09 1061.65 407.59 1042.07 498.68 1160.73 490.17
00003593 00000034 935.77 79.02 370.09 537.52 999.99 310.67 1155.42 298.76 1061.31 408.00 1040.80 498.83 1159.35 490.27
00003594 00000035 932.83 77.73 371.68 541.85 998.39 312.05 1154.26 299.72 1060.90 410.18 1039.83 501.00 1158.27 492.12
00003595 00000036 929.98 81.31 372.99 541.04 997.58 314.08 1155.97 301.14 1063.02 412.90 1039.84 503.65 1158.84 494.45
00003596 00000037 929.07 80.90 373.17 544.15 997.36 316.01 1159.37 304.00 1066.61 416.90 1039.48 505.73 1161.92 497.26
00003597 00000038 929.19 78.52 373.15 550.19 997.61 320.10 1161.86 308.89 1069.84 421.50 1040.48 508.30 1165.60 500.45
00003598 00000039 930.29 81.49 373.15 550.52 1000.48 322.51 1164.51 311.49 1074.25 426.83 1042.70 512.17 1165.68 504.51
00003599 DELETE   931.53 88.57 375.20 549.60 1002.22 328.58 1167.73 314.56 1081.19 433.78 1040.70 521.55 1172.09 511.97
00003600 00000041 932.39 91.28 374.58 550.31 1004.50 329.53 1171.33 316.11 1083.19 434.55 1040.95 521.65 1175.82 512.37
00003601 00000042 933.05 96.83 373.50 544.71 1006.14 330.29 1173.31 317.28 1084.46 436.64 1041.97 523.24 1177.03 514.06
00003602 00000043 933.72 102.88 372.37 538.91 1008.24 331.66 1173.94 319.03 1085.49 439.67 1044.29 525.12 1177.74 515.74
00003603 00000044 933.85 106.42 371.26 536.73 1009.66 334.07 1173.82 319.76 1087.71 441.57 1048.99 528.29 1179.67 517.12
00003604 00000045 933.80 111.77 372.89 532.95 1010.59 335.93 1174.92 320.72 1089.37 444.18 1052.30 530.44 1181.67 518.27
00003605 00000046 935.12 113.24 372.33 531.68 1012.72 336.03 1178.15 320.78 1092.22 444.37 1054.61 530.83 1183.95 518.58
00003606 00000047 937.23 111.05 372.82 534.60 1014.52 336.83 1180.74 320.93 1094.92 444.35 1057.01 531.23 1187.46 518.38
00003607 00000048 938.82 114.10 372.24 529.10 1017.12 337.17 1183.62 321.14 1098.08 445.02 1060.65 531.60 1189.57 518.59
00003608 00000049 940.88 111.60 372.92 530.79 1018.45 337.90 1186.59 322.42 1099.47 446.75 1063.21 532.52 1192.37 519.88
00003609 00000050 942.60 114.34 374.62 528.80 1020.11 337.35 1188.81 322.22 1101.09 448.25 1065.88 533.00 1195.00 520.53
00003610 00000051 946.52 113.40 374.75 530.09 1023.79 336.17 1191.66 322.48 1104.05 450.65 1068.79 533.31 1196.94 522.03
00003611 00000052 949.57 108.21 374.05 535.98 1026.18 334.37 1194.00 322.84 1105.67 452.29 1069.86 533.05 1198.67 523.46
00003612 00000053 951.31 103.10 374.47 540.93 1028.63 333.81 1195.44 324.08 1107.05 454.02 1071.53 532.59 1200.01 524.28
00003613 00000054 953.66 108.00 373.25 535.47 1032.24 334.04 1197.53 324.72 1110.95 454.33 1073.96 532.19 1200.59 524.53
00003614 00000055 955.69 105.57 373.61 536.94 1034.51 333.62 1199.78 324.26 1113.29 454.69 1076.84 532.65 1202.00 524.87
00003615 DELETE   956.97 108.21 373.54 534.13 1036.25 333.73 1201.13 323.72 1115.59 454.34 1078.63 532.09 1203.64 523.94
00003616 00000057 959.36 110.35 372.54 530.96 1038.56 332.79 1203.62 322.43 1118.28 454.02 1081.39 532.37 1204.82 524.10
00003617 00000058 962.19 111.16 371.83 527.19 1041.36 332.00 1207.27 321.55 1120.82 453.37 1084.28 531.66 1206.54 523.22
00003618 00000059 964.04 112.49 373.41 523.78 1043.74 330.45 1210.34 318.45 1124.23 451.94 1088.00 530.30 1210.18 520.59
00003619 00000060 965.11 112.38 373.91 521.88 1046.11 329.71 1213.20 317.62 1127.16 452.37 1090.11 529.89 1212.01 520.24
00003620 00000061 966.16 109.08 376.35 525.36 1046.83 330.78 1215.47 317.32 1129.27 452.51 1092.13 530.97 1215.39 520.05
00003621 00000062 967.96 109.52 377.46 525.55 1048.97 330.97 1218.68 316.82 1130.96 452.65 1093.72 531.56 1218.22 520.21
00003622 00000063 968.86 109.80 376.97 524.43 1050.29 331.02 1221.18 317.34 1133.12 452.26 1094.28 532.29 1218.76 521.46
00003623 00000064 970.06 103.30 377.11 530.81 1050.86 332.14 1223.82 318.63 1134.43 453.68 1094.86 533.36 1222.56 522.34
00003624 00000065 971.47 101.73 377.61 532.37 1052.38 332.87 1226.20 319.06 1136.95 454.04 1098.00 535.37 1225.56 524.10
00003625 00000066 970.63 102.46 380.54 532.53 1054.20 332.97 1228.49 318.58 1139.48 455.06 1098.88 533.98 1229.84 522.21
00003626 DELETE   971.21 100.57 381.14 536.04 1054.88 333.18 1229.91 318.99 1140.52 454.72 1099.84 534.32 1232.29 522.63
00003627 00000068 972.10 99.18 380.15 539.67 1054.68 333.71 1231.23 320.01 1139.73 458.14 1098.48 535.70 1233.71 524.47
00003628 00000069 971.51 99.93 380.43 538.99 1054.14 334.97 1231.29 320.93 1139.63 459.22 1098.68 536.57 1234.21 525.09
00003629 00000070 970.40 98.48 382.29 539.81 1053.35 335.70 1232.29 324.09 1139.37 461.03 1094.83 534.29 1235.61 524.87
00003630 00000071 969.68 101.50 382.99 537.76 1052.78 336.77 1232.00 324.82 1139.98 461.96 1095.15 534.44 1236.83 524.74
00003631 00000072 969.13 101.79 384.40 537.35 1052.60 337.03 1231.05 324.29 1138.96 461.33 1097.37 537.21 1234.92 526.68
00003632 00000073 968.94 99.88 384.19 541.18 1052.78 337.92 1230.48 324.75 1139.13 461.48 1099.25 539.83 1233.60 528.76
00003633 00000074 966.82 99.51 385.40 543.39 1052.39 338.82 1230.71 326.20 1139.47 463.15 1099.05 540.80 1233.72 530.19
00003634 00000075 966.25 99.22 386.55 543.45 1053.01 340.24 1230.99 327.50 1140.93 465.63 1101.11 542.10 1234.40 531.28
00003635 00000076 966.44 98.19 387.96 545.15 1053.98 341.04 1233.40 330.32 1141.46 468.43 1100.39 542.72 1235.20 533.59
00003636 00000077 966.97 99.28 389.29 547.15 1056.20 342.69 1235.43 333.95 1144.32 471.48 1099.60 542.41 1235.75 535.00
00003637 00000078 968.43 100.91 390.44 548.49 1058.09 345.59 1237.27 337.80 1146.61 475.66 1100.00 543.50 1237.79 536.75
00003638 00000079 968.91 103.98 383.80 543.80 1052.10 339.16 1232.51 332.00 1145.34 473.74 1096.46 543.18 1233.37 536.90
00003639 00000080 971.90 108.07 381.62 541.30 1052.45 342.33 1232.49 332.89 1146.69 476.06 1098.72 546.65 1236.84 538.41
00003640 00000081 972.13 115.59 383.52 538.54 1053.49 344.93 1231.55 333.51 1149.16 476.06 1102.16 550.56 1239.10 540.59
00003641 00000082 969.77 107.73 385.93 545.61 1052.57 343.84 1230.55 331.84 1147.89 474.43 1102.83 550.91 1238.26 540.36
00003642 00000083 968.64 105.86 390.42 547.48 1056.97 351.22 1236.06 337.75 1147.67 476.30 1107.34 553.73 1238.28 542.15
00003643 00000084 967.88 99.22 387.90 553.20 1053.56 341.44 1232.97 333.27 1146.60 472.07 1104.29 549.89 1231.96 542.35
00003644 00000085 969.24 106.46 387.31 546.94 1054.16 341.96 1233.59 332.65 1148.56 473.20 1104.11 549.51 1233.18 541.05
00003645 00000086 969.61 103.99 386.21 546.51 1053.62 342.41 1233.88 332.24 1149.29 475.12 1103.69 547.78 1237.24 538.71
00003646 00000087 970.67 106.01 386.04 538.47 1052.47 342.23 1234.14 330.47 1149.25 474.80 1102.47 544.17 1241.13 533.89
00003647 00000088 970.08 104.79 387.02 540.28 1053.60 340.33 1234.77 329.23 1149.80 472.95 1103.07 542.21 1240.45 532.54
00003648 00000089 969.07 96.49 388.22 552.74 1054.28 337.84 1234.89 328.28 1149.43 470.66 1105.92 543.20 1238.66 534.67
00003649 00000090 972.80 91.70 391.36 561.02 1059.80 344.09 1240.23 333.16 1149.33 472.67 1108.78 549.49 1242.51 539.58
00003650 00000091 971.92 92.34 391.23 559.79 1059.77 342.11 1240.32 330.18 1149.57 470.89 1109.32 548.84 1242.51 538.09
00003651 00000092 972.24 87.57 391.57 563.22 1060.14 341.85 1241.79 330.47 1150.53 471.56 1109.18 548.98 1243.01 538.68
00003652 00000093 972.92 87.99 391.62 562.86 1061.34 341.25 1244.04 329.75 1152.86 472.10 1110.37 548.59 1245.10 538.20
00003653 00000094 973.16 89.15 389.08 567.03 1069.18 335.90 1244.76 329.38 1160.87 459.26 1110.32 540.69 1245.03 535.70
00003654 00000095 973.92 89.24 389.60 568.07 1069.90 336.88 1245.27 329.79 1161.94 459.79 1111.49 541.15 1246.81 535.62
00003655 00000096 973.27 86.14 389.98 573.03 1069.29 337.53 1244.84 329.50 1162.06 460.11 1111.62 542.75 1247.67 536.42
00003656 00000097 973.05 86.41 389.83 572.65 1069.06 337.80 1244.68 329.42 1162.00 460.21 1111.77 542.08 1248.59 535.43
00003657 00000098 972.91 85.83 390.51 572.84 1068.75 338.24 1244.91 329.54 1161.76 460.76 1111.18 542.01 1248.76 535.09
00003658 00000099 972.88 85.73 390.69 572.00 1068.56 336.65 1244.81 327.06 1162.03 458.75 1112.12 541.33 1249.59 533.59
00003659 00000100 973.87 85.48 392.08 566.84 1064.13 337.71 1246.63 324.27 1158.22 469.02 1113.05 545.88 1250.28 533.73
00003660 00000101 972.94 86.87 393.40 562.67 1064.92 333.90 1247.93 320.96 1158.61 464.12 1112.11 542.18 1250.15 530.46
00003661 00000102 976.63 89.46 387.95 562.28 1070.54 329.00 1248.46 319.30 1163.41 450.91 1112.70 533.59 1249.34 525.62
00003662 00000103 979.23 87.58 387.05 562.63 1073.02 329.36 1250.46 319.47 1166.39 450.59 1114.61 532.54 1251.81 524.33
00003663 00000104 983.65 87.62 385.45 560.75 1077.07 329.27 1253.84 320.23 1170.48 450.02 1117.89 531.95 1255.09 524.10
00003664 00000105 987.05 90.20 385.04 556.38 1081.62 328.53 1257.78 319.09 1175.20 446.52 1122.72 531.24 1258.13 523.10
00003665 00000106 989.42 85.53 384.89 555.57 1082.47 327.48 1262.40 317.53 1177.80 443.85 1125.34 522.12 1261.40 514.65
00003666 00000107 990.05 84.01 385.32 552.21 1084.91 326.48 1264.97 316.89 1180.76 441.15 1125.97 517.88 1263.82 510.74
00003667 00000108 990.88 81.68 385.26 550.08 1086.09 324.73 1266.41 314.49 1182.24 438.68 1126.76 515.27 1265.50 507.59
00003668 00000109 991.68 81.12 384.33 548.35 1086.21 324.39 1266.77 313.90 1182.61 437.27 1126.96 514.69 1266.01 506.75
00003669 00000110 990.99 79.49 383.69 549.22 1085.65 323.82 1265.99 313.54 1182.32 435.93 1126.43 513.23 1266.33 505.33
00003670 00000111 988.42 80.61 383.92 547.25 1084.26 323.90 1265.23 313.33 1181.92 434.57 1125.52 512.33 1265.92 504.18
00003671 00000112 988.38 84.16 382.62 543.66 1083.89 325.72 1264.22 314.23 1181.00 435.77 1125.89 513.03 1264.91 504.17
00003672 00000113 986.76 79.01 382.96 548.42 1082.26 326.07 1262.78 315.85 1179.40 436.54 1125.47 513.07 1264.44 505.03
00003673 00000114 985.08 78.52 383.83 550.44 1080.04 326.99 1261.53 316.16 1177.19 439.16 1123.41 514.76 1263.35 506.07
00003674 00000115 985.06 84.19 383.34 545.81 1078.41 329.17 1260.58 317.64 1175.19 442.15 1122.24 517.28 1261.87 508.00
00003675 00000116 986.31 87.01 380.94 545.19 1077.77 330.23 1260.96 319.20 1174.03 444.60 1120.20 519.55 1259.99 510.80
00003676 00000117 986.47 83.62 382.71 557.93 1078.44 331.27 1260.34 321.60 1173.76 448.11 1118.59 523.83 1257.92 516.43
00003677 00000118 988.49 80.72 381.53 565.87 1080.14 331.24 1260.68 322.14 1174.67 447.74 1119.63 527.87 1255.82 521.14
00003678 00000119 990.41 84.61 378.26 563.48 1084.87 328.87 1259.79 322.31 1177.44 447.60 1121.93 534.64 1255.87 528.80
00003679 00000120 992.03 83.71 377.92 564.56 1086.63 328.59 1261.22 322.82 1179.47 448.07 1122.40 534.27 1256.46 529.09
00003680 00000121 994.10 89.33 376.76 558.74 1088.94 327.49 1263.45 322.07 1182.18 448.42 1123.65 533.73 1256.88 529.09
00003681 00000122 995.16 86.37 377.87 562.77 1091.44 325.92 1265.53 320.61 1185.61 446.84 1124.30 533.54 1257.34 529.05
00003682 00000123 995.99 87.68 378.24 561.85 1095.34 324.24 1267.76 319.55 1189.12 443.41 1127.76 533.34 1256.19 529.82
00003683 00000124 996.65 93.03 378.04 554.52 1097.84 324.80 1268.93 320.89 1190.72 443.12 1127.82 530.34 1256.95 527.68
CROP_BBOX: 771 0 1600 777
