Video ID: 	rbcL4uWUE2M
H: 	1080
W: 	1920
FPS: 	25.0

FRAME INDEX X0 Y0 W H [Landmarks (5 Points)]

00025946 00000000 734.53 176.32 477.79 653.66 861.15 468.85 1071.50 433.88 988.92 611.01 937.48 699.05 1096.04 670.73
00025947 00000001 733.60 170.36 479.36 661.95 859.19 465.80 1066.61 431.73 984.13 609.46 936.07 696.68 1094.08 668.96
00025948 00000002 730.87 171.64 482.40 659.39 857.73 464.22 1066.93 431.48 982.84 609.64 933.48 695.67 1092.38 669.12
00025949 00000003 733.55 169.52 480.15 655.43 858.52 463.06 1066.70 430.57 981.68 608.85 931.93 692.41 1091.01 666.06
00025950 00000004 732.20 168.79 481.36 650.85 859.96 461.31 1069.54 430.40 983.83 610.06 933.11 691.43 1090.77 666.44
00025951 00000005 731.73 168.23 485.10 660.84 860.14 460.24 1071.36 429.52 984.75 609.83 934.50 696.64 1092.62 672.06
00025952 00000006 732.86 167.89 480.48 650.58 860.48 461.66 1070.60 430.38 984.70 609.31 933.59 690.92 1090.26 665.84
00025953 00000007 731.80 169.17 480.16 648.24 859.19 461.61 1069.67 431.69 982.95 608.45 931.64 690.39 1087.97 666.42
00025954 00000008 729.90 166.38 478.78 648.72 857.81 459.63 1068.92 430.33 981.07 608.12 928.87 688.81 1085.40 665.41
00025955 00000009 733.58 155.02 471.71 647.12 855.17 457.21 1064.95 430.67 976.00 605.34 924.31 682.93 1079.76 661.91
00025956 00000010 733.89 151.86 470.49 644.97 853.55 449.75 1063.62 426.84 971.92 597.78 919.89 676.66 1075.28 658.58
00025957 00000011 726.03 143.71 472.90 642.21 845.10 439.90 1060.65 417.97 966.96 586.47 911.69 671.79 1071.22 654.18
00025958 00000012 729.30 135.32 467.20 643.57 843.39 433.26 1057.47 416.02 959.38 577.27 898.98 657.28 1062.83 642.91
00025959 DELETE   737.53 136.41 454.11 637.33 840.04 425.90 1049.28 407.69 950.96 567.18 895.16 652.70 1047.08 637.90
00025960 00000014 737.36 135.61 452.54 633.20 834.11 416.65 1047.77 402.16 943.68 561.19 888.04 651.64 1039.25 640.43
00025961 00000015 735.00 132.83 453.76 632.69 830.97 414.92 1043.85 399.88 938.01 553.84 880.07 646.30 1032.91 634.82
00025962 00000016 736.59 125.49 451.94 629.02 829.93 408.84 1041.99 393.98 936.12 549.83 879.92 639.54 1033.93 628.44
00025963 00000017 733.98 121.77 454.86 641.23 827.01 407.07 1037.15 391.66 931.36 544.76 879.40 639.57 1034.92 627.92
00025964 00000018 733.67 119.88 455.11 638.62 826.73 404.02 1036.58 388.22 931.63 541.88 881.10 639.12 1033.27 627.20
00025965 00000019 734.52 120.46 455.28 639.23 826.13 401.89 1035.71 388.14 928.15 539.30 876.93 635.15 1031.70 624.89
00025966 00000020 732.40 118.99 457.33 639.25 824.89 401.28 1035.20 386.17 928.02 538.11 878.12 635.31 1033.54 623.92
00025967 00000021 731.60 118.82 457.70 651.32 822.99 399.10 1034.48 384.58 925.04 538.47 874.65 639.22 1033.09 628.35
00025968 00000022 731.64 119.65 458.19 654.23 821.91 398.60 1034.60 383.15 924.53 538.40 873.57 640.22 1034.45 628.57
00025969 00000023 731.16 119.73 455.31 645.21 822.25 399.76 1033.00 383.61 925.08 537.51 874.55 638.36 1031.37 626.32
00025970 00000024 730.72 119.20 454.43 646.85 821.73 396.88 1031.93 382.26 923.70 533.83 873.68 636.01 1029.87 625.20
00025971 00000025 733.65 117.86 454.17 651.91 822.40 395.91 1031.27 381.20 922.72 533.39 874.16 639.23 1027.26 628.37
00025972 00000026 733.62 120.50 455.77 654.56 822.48 397.06 1032.15 381.50 923.42 534.54 874.44 640.44 1030.46 628.76
00025973 00000027 732.87 118.90 456.67 658.09 821.59 397.27 1032.52 382.05 923.11 535.78 874.51 641.92 1031.68 630.57
00025974 00000028 734.35 122.41 451.96 654.52 822.43 400.06 1030.46 385.12 921.94 539.67 874.69 642.47 1030.59 631.19
00025975 00000029 729.32 121.56 452.48 649.43 820.12 402.32 1029.09 388.14 921.14 540.04 870.55 643.31 1022.69 632.85
00025976 00000030 727.87 124.49 450.57 649.99 816.15 402.45 1025.38 389.77 916.88 544.73 865.32 642.64 1021.01 633.41
00025977 00000031 727.82 128.34 447.53 649.14 814.58 405.11 1023.14 391.54 915.50 547.11 866.06 649.05 1017.03 639.29
00025978 00000032 723.89 131.76 448.19 647.32 813.02 410.70 1021.75 393.82 916.18 551.85 867.78 653.60 1016.84 641.35
00025979 00000033 721.86 132.79 450.74 649.22 812.18 412.10 1022.58 394.51 916.34 556.32 866.42 654.59 1018.03 641.82
00025980 00000034 724.64 134.16 448.35 651.92 814.20 414.41 1023.30 396.35 918.01 559.51 869.38 656.78 1021.21 643.31
00025981 00000035 723.94 134.38 453.62 650.71 816.06 418.36 1025.85 398.87 922.30 565.42 875.98 659.42 1027.72 644.48
00025982 00000036 727.20 135.58 453.97 644.18 820.11 421.63 1028.99 399.92 926.91 569.63 882.52 659.60 1033.21 642.56
00025983 00000037 729.66 139.81 453.77 636.55 824.86 422.25 1031.90 399.19 931.56 568.37 887.68 657.28 1036.40 639.09
00025984 00000038 728.54 137.26 459.76 644.33 825.82 420.53 1034.73 397.63 932.24 568.48 890.19 660.39 1041.36 641.94
00025985 00000039 731.83 136.91 455.08 640.91 827.21 420.18 1034.70 398.56 932.09 568.10 890.02 659.06 1038.89 641.83
00025986 00000040 729.55 136.47 460.41 645.67 826.32 421.44 1034.18 397.86 932.85 570.28 891.97 661.52 1042.14 642.57
00025987 00000041 725.39 138.56 459.35 648.63 825.69 422.38 1034.47 398.00 935.78 569.35 891.32 663.31 1040.09 644.22
00025988 00000042 724.05 138.40 458.78 650.68 823.44 424.84 1032.52 397.45 936.21 572.26 892.05 665.34 1043.23 643.68
00025989 00000043 722.67 139.96 460.07 651.56 822.97 424.43 1031.72 397.00 934.51 572.87 891.46 662.99 1045.81 640.96
00025990 00000044 715.73 130.03 463.25 664.98 821.15 418.24 1033.92 393.47 939.05 571.33 888.30 656.50 1060.04 636.32
00025991 00000045 713.83 125.93 465.67 675.92 824.61 421.41 1033.42 398.35 941.99 573.69 891.07 662.79 1056.30 644.52
00025992 00000046 716.05 130.11 466.01 680.44 824.46 425.53 1028.98 402.22 937.90 578.76 894.09 669.08 1055.55 650.66
00025993 00000047 717.70 138.24 468.81 670.57 826.66 427.25 1031.50 405.50 938.81 580.11 894.53 671.95 1053.02 654.89
00025994 00000048 716.51 146.05 472.25 671.34 826.96 430.15 1031.75 405.68 938.51 587.82 899.17 679.27 1055.86 659.71
00025995 00000049 722.35 145.59 468.42 679.40 828.74 433.25 1030.78 406.93 936.87 593.53 905.07 687.63 1059.58 666.33
00025996 00000050 723.39 145.75 470.66 677.64 834.17 435.51 1034.53 407.45 942.31 596.28 910.91 687.85 1063.73 665.15
00025997 00000051 723.64 148.51 471.98 667.46 836.65 436.64 1041.65 409.82 949.58 598.31 913.16 684.94 1067.29 663.77
00025998 00000052 726.08 155.18 474.09 664.43 838.66 439.40 1044.81 411.31 953.19 600.94 919.25 687.59 1072.79 665.53
00025999 00000053 726.56 159.37 475.36 662.08 840.19 441.65 1046.12 414.04 954.34 606.37 921.57 690.79 1074.50 669.09
00026000 00000054 732.44 156.42 469.95 675.17 844.65 444.68 1046.00 418.22 954.39 609.02 925.59 696.17 1077.73 674.60
00026001 00000055 735.80 153.89 474.50 689.70 841.13 448.58 1044.48 423.98 949.29 617.65 924.45 710.13 1067.59 688.56
00026002 00000056 738.68 148.82 474.89 705.33 845.63 450.62 1046.27 425.23 952.17 617.64 929.98 716.80 1071.87 694.35
00026003 00000057 745.98 151.83 471.09 714.76 848.80 451.98 1050.70 429.99 951.47 617.37 926.00 720.21 1070.65 700.93
00026004 00000058 750.11 158.20 465.16 703.68 851.23 453.11 1051.70 435.63 952.78 616.65 925.94 716.05 1067.12 700.63
00026005 00000059 754.44 164.50 464.09 682.72 853.98 453.33 1059.09 437.57 957.14 618.60 921.63 711.68 1066.80 698.47
00026006 00000060 757.92 164.65 464.51 685.47 857.97 453.98 1067.02 441.36 963.65 623.93 923.68 713.42 1073.73 702.87
00026007 00000061 770.75 168.26 455.65 674.16 863.12 459.22 1072.11 445.76 969.54 625.86 928.15 710.86 1079.95 700.06
00026008 00000062 768.74 174.59 462.74 669.46 865.57 456.88 1077.97 444.67 975.12 626.40 931.66 710.65 1085.12 701.12
00026009 00000063 766.93 175.12 463.88 665.56 866.10 454.58 1081.51 441.61 978.21 628.75 932.22 707.19 1086.40 697.36
00026010 00000064 765.29 175.61 465.70 666.83 864.51 457.27 1078.70 443.33 976.93 630.12 935.87 710.24 1089.40 699.05
00026011 00000065 762.20 174.03 468.74 671.95 864.53 455.43 1077.02 441.03 976.45 631.33 938.08 709.38 1091.37 697.69
00026012 00000066 758.30 171.88 469.91 667.65 862.71 456.45 1074.43 438.92 976.47 630.64 941.90 707.67 1092.56 693.32
00026013 00000067 752.67 174.76 473.95 655.13 862.12 455.79 1069.50 435.02 973.26 620.85 944.75 706.10 1089.03 689.14
00026014 00000068 750.67 177.96 476.52 655.55 861.12 455.22 1069.12 434.61 973.95 620.04 944.24 707.57 1089.08 690.76
00026015 00000069 748.15 176.45 477.56 663.05 860.43 454.91 1065.98 432.96 972.19 617.55 943.60 708.36 1088.12 690.46
00026016 00000070 748.64 174.80 472.28 653.88 857.67 456.26 1062.33 430.37 971.10 619.40 944.49 705.21 1089.62 684.02
00026017 00000071 745.01 166.33 477.55 676.61 857.40 457.37 1060.11 430.25 970.61 614.87 943.66 710.28 1088.67 687.87
00026018 00000072 743.35 171.64 478.69 669.88 854.92 456.70 1058.93 429.07 969.67 614.61 941.38 708.75 1087.37 685.79
00026019 00000073 742.57 170.35 479.11 675.65 853.72 455.87 1056.46 427.54 968.72 613.53 939.54 708.35 1086.95 684.85
00026020 00000074 743.37 173.64 474.91 666.87 852.88 456.88 1054.09 426.42 967.97 614.40 939.78 706.76 1087.05 681.61
00026021 00000075 742.43 171.38 476.05 670.47 852.26 457.77 1052.43 427.32 966.05 614.00 940.19 708.65 1085.73 683.57
00026022 00000076 743.40 170.62 474.12 669.21 852.66 457.09 1051.42 427.56 964.77 613.56 940.49 707.01 1084.48 682.73
00026023 00000077 743.25 171.17 474.98 668.62 851.27 455.90 1051.50 426.53 963.67 614.78 939.22 707.46 1084.57 683.33
00026024 00000078 743.73 169.05 475.09 672.28 851.86 455.30 1053.28 426.33 964.09 613.53 937.34 707.38 1084.15 683.43
00026025 00000079 742.49 169.27 475.49 665.49 852.17 456.18 1053.15 426.13 964.45 614.14 938.07 705.41 1084.17 680.85
00026026 00000080 743.33 167.25 474.98 670.14 852.35 456.18 1053.03 425.49 963.70 612.77 936.95 707.43 1083.31 682.36
00026027 00000081 742.32 162.72 473.51 672.51 851.28 454.16 1053.87 425.23 964.10 613.31 935.40 707.40 1082.96 683.79
00026028 00000082 741.30 162.15 475.81 676.81 851.59 453.92 1053.90 425.25 963.57 613.57 935.26 708.45 1082.81 685.00
00026029 00000083 742.72 163.90 475.03 675.00 851.51 454.00 1053.87 426.14 963.45 612.93 935.61 707.81 1082.27 685.02
00026030 00000084 743.47 163.19 475.70 677.41 850.92 452.62 1054.57 425.20 962.78 613.95 934.83 707.80 1082.94 685.23
00026031 00000085 745.21 164.51 474.49 668.89 853.00 453.48 1054.99 425.21 963.29 613.34 935.46 706.71 1081.14 683.64
00026032 00000086 744.51 161.29 479.15 672.47 854.87 453.88 1056.83 424.51 964.90 613.48 939.14 706.27 1085.00 682.10
00026033 00000087 743.79 162.60 476.17 665.24 854.70 452.95 1058.68 424.27 966.53 613.87 938.87 702.82 1085.32 679.27
00026034 00000088 744.22 162.03 477.61 663.88 854.92 451.93 1059.06 424.00 965.64 614.84 939.64 700.93 1085.99 677.82
00026035 00000089 740.90 160.39 480.67 663.66 854.18 450.46 1061.88 423.71 967.88 615.09 938.70 698.88 1086.42 676.83
00026036 00000090 742.32 159.36 481.73 669.07 855.88 449.14 1062.45 423.39 967.95 613.84 940.06 698.73 1089.21 677.35
00026037 00000091 740.67 156.18 485.16 662.14 857.34 448.69 1064.59 422.03 971.48 612.04 941.57 693.72 1090.24 671.60
00026038 00000092 742.81 155.67 481.16 661.45 857.95 448.41 1063.92 421.59 969.38 611.35 942.92 695.87 1089.00 673.68
00026039 00000093 742.11 153.19 485.11 664.44 857.37 446.14 1065.88 417.70 969.45 611.20 941.01 694.43 1092.46 670.59
00026040 00000094 739.50 153.28 489.24 663.00 859.72 443.89 1068.54 415.77 973.54 608.73 942.69 690.71 1094.52 667.19
00026041 00000095 737.63 151.45 490.94 663.62 857.25 444.38 1066.21 415.67 971.23 604.34 936.74 685.90 1092.12 661.97
00026042 00000096 734.93 150.85 487.16 663.29 856.52 444.36 1063.18 416.57 970.47 602.11 935.75 680.83 1090.94 657.79
00026043 00000097 732.68 146.56 484.16 664.99 855.15 445.96 1060.70 420.57 968.66 601.39 931.29 678.75 1086.33 657.82
00026044 00000098 732.33 144.78 480.90 662.04 849.94 445.87 1057.23 415.79 966.63 596.09 927.98 676.26 1086.59 651.17
00026045 00000099 728.13 140.93 472.72 661.58 845.10 446.06 1049.70 413.69 964.07 589.93 925.82 673.33 1085.00 646.59
00026046 00000100 725.07 145.42 472.42 652.95 841.78 443.07 1046.58 410.99 960.37 589.83 924.67 672.34 1083.19 645.85
00026047 00000101 725.87 144.33 470.06 663.47 841.01 441.95 1042.68 410.09 956.86 593.38 922.51 675.82 1080.71 649.56
00026048 00000102 725.60 145.36 468.70 661.46 839.85 441.35 1040.74 412.82 954.08 596.05 919.19 676.81 1074.22 653.79
00026049 00000103 723.07 144.59 468.64 658.59 836.03 439.95 1036.11 412.75 949.23 596.71 917.31 673.74 1070.55 651.77
00026050 00000104 721.21 144.11 466.55 660.23 833.35 440.85 1032.62 411.71 946.31 592.40 911.98 673.02 1065.01 649.61
00026051 00000105 716.81 145.79 468.81 663.63 829.24 440.16 1029.35 410.51 942.87 591.56 906.51 673.41 1062.89 649.35
00026052 00000106 715.46 143.14 469.70 667.99 829.03 437.59 1027.82 410.00 940.20 590.46 903.74 674.57 1056.70 652.50
00026053 00000107 714.95 141.92 469.47 668.30 829.04 437.53 1027.43 409.77 940.64 590.43 904.18 672.69 1057.75 650.36
00026054 00000108 717.80 145.06 467.83 664.12 830.74 438.97 1028.41 411.98 941.41 592.05 904.77 672.65 1058.17 651.18
00026055 00000109 722.02 147.35 466.67 661.25 832.58 440.00 1029.34 412.59 942.90 592.08 908.12 672.21 1061.13 650.25
00026056 00000110 721.53 149.10 469.06 659.64 834.61 438.69 1031.57 413.13 943.62 593.59 909.70 672.81 1061.49 652.36
00026057 00000111 721.98 148.82 469.34 660.19 834.50 438.35 1031.01 412.02 943.38 594.69 911.85 673.72 1063.64 652.46
00026058 00000112 719.16 144.88 470.00 660.14 831.28 438.18 1031.36 411.22 943.12 591.94 906.87 671.36 1061.57 649.79
00026059 00000113 715.03 138.75 474.29 679.77 828.80 434.20 1027.15 405.83 939.92 588.32 902.75 675.29 1057.28 652.52
00026060 00000114 712.47 140.79 470.93 674.68 827.29 428.34 1026.16 403.57 939.06 584.33 898.05 669.16 1052.25 649.58
00026061 00000115 713.18 141.73 471.11 663.94 821.99 423.83 1024.64 402.57 934.12 581.26 894.98 665.72 1048.76 649.20
00026062 00000116 716.77 134.24 469.73 682.41 823.07 422.79 1023.38 400.39 932.46 577.36 893.01 668.65 1050.47 650.92
00026063 00000117 721.44 130.22 463.60 680.65 822.77 419.36 1020.97 400.35 927.45 572.76 887.36 664.61 1044.09 649.77
00026064 00000118 717.93 119.45 466.84 688.18 817.03 416.94 1022.03 397.36 924.33 569.92 883.94 659.36 1047.50 643.61
00026065 00000119 724.53 123.45 456.82 668.85 812.86 420.30 1019.35 392.58 921.64 564.32 884.41 658.18 1043.35 635.12
00026066 00000120 725.54 124.72 454.54 667.23 811.21 415.48 1018.91 388.06 920.62 560.01 883.21 655.35 1044.04 632.79
00026067 00000121 727.28 124.86 455.50 664.24 814.21 412.74 1020.46 386.96 920.80 559.47 884.66 648.31 1048.74 626.96
00026068 00000122 727.98 124.16 464.56 672.04 817.23 410.99 1024.94 383.95 925.42 558.65 888.31 650.83 1055.05 628.09
00026069 00000123 733.30 123.82 465.24 664.91 820.98 408.92 1025.49 382.34 925.26 553.67 890.31 644.70 1056.88 622.23
00026070 00000124 735.35 122.70 458.95 653.80 820.82 406.57 1025.22 383.18 921.78 551.12 883.63 637.93 1050.13 618.29
00026071 00000125 732.77 119.32 457.45 649.17 820.00 403.09 1022.27 381.56 918.19 544.59 878.62 629.76 1045.36 611.82
00026072 00000126 728.19 113.30 456.11 646.96 816.36 399.54 1018.94 381.11 914.42 537.65 870.65 626.13 1034.33 611.39
00026073 00000127 725.37 104.22 454.99 649.67 806.60 394.94 1008.49 382.38 897.33 536.15 856.22 622.66 1017.82 613.01
00026074 00000128 723.89 96.82 451.63 654.08 797.80 391.85 996.52 380.11 883.59 532.69 847.95 624.25 1005.69 615.36
00026075 00000129 724.83 100.63 447.95 660.77 794.66 386.73 989.47 374.65 874.46 531.43 845.22 623.17 1004.25 614.14
00026076 00000130 723.64 96.68 449.46 658.30 797.74 392.02 994.72 380.12 882.86 536.78 849.90 622.00 1010.08 612.90
00026077 00000131 723.32 111.36 449.20 654.85 800.15 405.03 996.22 386.30 890.27 552.02 860.66 633.33 1019.92 618.51
00026078 00000132 722.57 123.03 450.20 663.60 804.37 416.37 1002.05 396.53 898.52 570.11 873.91 650.58 1026.67 634.24
00026079 00000133 715.73 129.78 465.10 680.62 812.08 423.68 1016.63 403.96 915.23 575.80 878.06 659.72 1044.39 643.00
00026080 00000134 716.72 142.12 469.39 670.11 820.55 433.82 1021.78 411.30 928.05 587.05 888.57 663.60 1055.18 645.01
00026081 00000135 716.78 157.89 475.10 658.61 822.32 437.47 1021.72 411.14 929.91 595.28 895.24 672.90 1054.68 651.53
00026082 00000136 717.27 147.70 473.08 666.19 823.27 429.75 1024.62 409.34 930.10 585.46 887.97 664.72 1050.65 648.19
00026083 00000137 717.97 132.55 469.95 687.02 819.87 419.22 1025.65 400.39 927.90 576.68 884.58 663.10 1051.33 647.89
00026084 00000138 718.36 122.47 472.44 687.02 820.82 411.48 1025.41 389.47 929.77 562.18 888.06 653.92 1055.38 635.53
00026085 00000139 723.03 118.85 474.48 684.73 822.77 408.04 1027.96 384.20 931.53 556.91 894.84 653.84 1057.26 633.92
00026086 00000140 721.53 116.43 479.27 686.86 824.05 408.88 1030.01 382.17 935.10 558.38 900.68 656.08 1061.91 633.94
00026087 00000141 719.33 122.38 482.01 683.80 821.85 410.80 1029.53 385.23 933.75 562.83 899.11 660.78 1061.65 639.75
00026088 00000142 720.54 125.17 475.41 685.29 821.48 412.21 1026.35 386.94 930.97 565.79 895.95 660.78 1060.08 640.10
00026089 00000143 718.30 127.20 472.25 682.52 818.46 413.08 1024.77 387.36 929.56 565.65 893.07 660.90 1058.46 639.86
00026090 00000144 716.22 123.24 472.14 685.25 817.51 413.61 1022.68 388.24 928.99 566.16 893.39 662.31 1054.48 641.76
00026091 00000145 715.52 123.74 472.84 688.39 820.82 412.91 1020.68 388.13 928.98 567.87 896.49 665.30 1050.42 645.46
00026092 00000146 715.41 124.49 474.09 683.02 822.47 413.37 1023.91 389.14 932.79 568.29 897.02 658.96 1053.92 639.63
00026093 00000147 715.93 126.40 474.40 675.00 819.34 412.89 1025.78 388.27 934.18 564.96 895.17 657.34 1054.72 637.92
00026094 00000148 713.40 125.47 476.37 671.68 819.00 417.37 1030.54 391.32 938.20 562.75 894.25 655.52 1058.60 634.89
00026095 00000149 711.26 122.91 478.58 671.89 820.90 415.65 1033.34 387.41 941.95 554.89 895.96 650.98 1061.73 628.19
00026096 00000150 717.97 123.17 472.70 661.64 826.15 416.81 1035.13 385.47 941.94 552.39 896.08 647.23 1061.23 621.54
00026097 00000151 711.81 118.59 480.40 662.59 824.22 410.10 1036.97 379.76 941.02 548.67 890.11 638.94 1062.98 614.21
00026098 00000152 704.99 112.36 486.62 666.00 821.87 403.55 1035.74 372.02 942.41 544.37 888.18 631.51 1065.61 605.93
00026099 00000153 707.36 113.75 482.66 657.35 826.86 401.76 1036.48 367.49 948.05 538.51 893.63 625.60 1067.26 598.18
00026100 00000154 705.07 115.12 481.54 643.66 829.98 401.81 1041.26 364.38 955.73 535.10 898.35 620.31 1068.21 590.52
00026101 00000155 704.55 116.20 489.08 641.08 840.97 403.22 1052.57 360.70 975.47 527.55 910.89 616.71 1081.33 582.52
00026102 00000156 704.32 121.19 492.29 646.34 848.85 404.92 1057.50 354.74 991.63 521.73 919.57 615.40 1102.18 572.29
00026103 00000157 705.33 124.55 491.96 643.04 853.95 407.15 1059.47 354.61 997.15 523.54 918.94 614.58 1102.91 570.57
00026104 00000158 706.97 128.33 487.90 634.54 851.64 411.81 1057.44 360.47 994.39 527.06 921.92 619.17 1098.80 576.20
00026105 00000159 708.83 127.09 484.08 639.98 843.41 410.66 1050.64 364.92 978.08 532.10 918.88 625.81 1083.94 588.87
00026106 00000160 699.74 119.72 489.07 649.32 829.11 410.60 1039.45 370.46 956.86 539.91 900.43 632.75 1068.09 600.65
00026107 00000161 696.10 108.61 477.98 658.09 815.93 407.56 1025.35 373.56 933.05 533.54 875.36 623.43 1048.95 595.89
00026108 DELETE   701.35 113.12 463.70 643.95 798.80 403.33 1004.76 379.74 901.41 538.36 853.45 624.85 1019.42 606.11
00026109 00000163 707.40 112.62 453.51 644.28 786.52 404.20 991.90 384.13 883.03 543.74 840.72 629.13 1005.10 613.66
00026110 00000164 707.11 108.16 456.42 668.26 785.12 400.78 984.98 382.77 875.20 547.94 840.35 636.32 1002.43 621.97
00026111 00000165 704.69 116.53 454.58 669.23 785.05 408.20 984.68 392.20 875.48 561.58 842.35 647.32 999.68 634.46
00026112 00000166 704.19 120.98 462.62 702.29 793.67 419.52 986.31 404.40 879.57 572.33 856.05 668.29 1007.89 655.96
00026113 00000167 704.31 134.18 459.63 685.15 795.55 433.49 992.35 419.84 886.78 589.12 859.79 679.96 1004.26 669.26
