Video ID: 	yUybpYGGZIs
H: 	1080
W: 	1920
FPS: 	59.94006309148265

FRAME INDEX X0 Y0 W H [Landmarks (5 Points)]

00013527 00000000 818.55 256.86 423.30 577.67 902.05 489.03 1094.35 462.29 998.65 626.65 970.31 718.18 1116.72 696.12
00013528 00000001 820.23 257.57 424.20 577.47 904.11 487.48 1097.16 461.27 1000.89 625.81 973.32 715.78 1119.32 694.15
00013529 00000002 826.66 257.07 418.09 574.26 909.21 485.82 1098.70 461.26 1002.99 622.98 976.57 712.94 1119.92 692.56
00013530 DELETE   828.80 260.33 416.42 571.01 913.78 484.27 1100.42 461.34 1005.91 621.15 979.95 711.05 1119.06 692.18
00013531 00000004 832.44 261.85 414.90 567.34 917.15 483.33 1100.20 460.06 1007.30 617.97 984.05 708.03 1120.85 688.57
00013532 00000005 833.92 257.41 415.67 569.07 918.22 481.87 1103.03 458.96 1009.72 616.74 986.51 706.90 1122.83 687.47
00013533 00000006 838.05 256.91 413.45 567.90 922.12 481.30 1104.80 458.78 1011.02 613.42 989.10 705.64 1122.61 686.34
00013534 00000007 841.05 253.43 413.09 571.19 925.94 480.77 1107.65 458.55 1013.82 610.33 991.26 703.98 1124.27 684.73
00013535 00000008 843.89 252.32 412.66 570.73 928.01 480.93 1108.66 456.77 1016.04 609.07 994.99 702.79 1128.95 681.53
00013536 00000009 848.04 253.97 410.76 567.14 932.14 481.04 1112.04 457.29 1018.94 606.56 996.25 701.07 1130.36 680.09
00013537 00000010 852.76 253.91 408.25 563.92 936.70 480.66 1114.85 456.52 1023.03 604.41 999.24 699.18 1133.26 677.76
00013538 00000011 856.22 253.92 406.38 561.44 941.29 481.37 1118.18 457.54 1028.00 603.68 1002.27 697.38 1136.20 676.34
00013539 00000012 858.31 253.35 406.91 559.09 943.94 481.56 1120.40 457.48 1030.81 603.34 1004.78 695.78 1138.00 674.58
00013540 00000013 861.10 254.44 405.95 556.24 946.74 480.39 1122.47 456.03 1033.40 602.81 1008.50 695.03 1139.95 673.47
00013541 00000014 863.64 254.63 404.60 554.37 948.69 480.02 1123.92 455.77 1035.36 602.03 1010.22 693.41 1142.12 672.06
00013542 00000015 865.12 252.53 402.50 554.17 951.31 479.84 1124.12 455.70 1038.72 601.02 1012.79 691.64 1142.56 670.76
00013543 00000016 866.71 251.50 403.06 554.67 952.86 479.48 1123.35 455.84 1038.82 599.80 1014.35 690.53 1142.68 669.82
00013544 00000017 869.26 250.66 400.87 553.04 954.47 477.56 1124.14 454.58 1039.66 598.93 1014.65 688.72 1142.68 668.36
00013545 00000018 870.55 250.40 400.87 551.07 955.87 475.62 1125.52 452.73 1040.59 597.31 1016.07 687.32 1143.58 667.12
00013546 00000019 872.41 248.02 400.55 552.58 956.88 473.79 1127.16 450.81 1041.49 596.20 1016.72 686.25 1145.06 666.10
00013547 00000020 872.16 247.27 402.35 552.98 957.63 472.95 1126.85 450.13 1041.68 594.81 1017.65 685.28 1144.73 665.35
00013548 00000021 874.05 246.48 401.69 552.41 958.07 472.43 1126.47 448.99 1041.16 593.87 1019.27 684.63 1145.89 664.30
00013549 00000022 875.91 245.48 400.43 552.17 957.98 472.29 1125.50 448.22 1039.76 593.21 1019.42 684.00 1146.16 663.11
00013550 00000023 876.78 247.39 399.87 549.09 958.26 471.61 1124.97 447.31 1039.28 592.38 1019.80 683.13 1145.55 662.20
00013551 00000024 877.72 247.26 399.12 549.12 958.05 471.18 1123.98 446.30 1038.22 591.53 1019.36 683.05 1145.18 661.67
00013552 00000025 878.47 246.98 398.26 549.14 958.58 471.54 1123.47 446.87 1038.05 590.97 1019.39 682.50 1144.71 661.32
00013553 00000026 878.65 246.63 398.12 548.46 958.23 472.11 1122.97 447.69 1037.60 591.19 1019.14 682.50 1144.11 661.61
00013554 00000027 879.85 246.01 396.53 549.19 957.88 473.12 1122.37 448.27 1036.86 591.90 1019.03 683.17 1144.32 661.95
00013555 00000028 879.54 247.22 397.25 548.07 957.82 474.65 1121.58 448.50 1036.60 592.21 1019.30 683.68 1144.55 661.49
00013556 00000029 880.62 246.98 395.71 547.54 957.77 475.25 1121.32 449.60 1036.37 592.80 1019.26 683.42 1144.55 661.72
00013557 00000030 881.38 248.87 394.57 545.69 958.47 477.15 1119.93 452.24 1035.48 593.61 1018.99 682.90 1143.23 661.88
00013558 00000031 881.02 249.83 394.12 544.37 958.46 479.94 1118.85 455.35 1035.26 594.52 1018.23 683.07 1142.09 662.45
00013559 00000032 880.71 254.15 393.57 540.99 958.27 481.10 1117.20 456.43 1033.85 595.49 1017.96 683.00 1140.87 662.29
00013560 00000033 880.25 256.17 394.26 538.60 957.37 481.91 1116.98 457.88 1033.28 596.93 1016.76 683.12 1139.65 662.97
00013561 00000034 880.06 257.61 393.38 537.04 956.48 482.66 1117.32 459.35 1032.46 597.61 1014.52 682.79 1139.18 663.15
00013562 00000035 880.28 256.35 393.09 537.38 956.03 483.67 1116.37 460.76 1030.48 598.35 1014.43 683.07 1138.88 663.80
00013563 00000036 880.46 256.41 393.52 539.07 954.89 485.13 1114.60 462.48 1027.10 598.86 1012.38 683.62 1137.69 664.44
00013564 00000037 880.55 258.82 392.51 536.54 954.07 485.26 1112.26 462.66 1024.82 598.44 1011.23 683.18 1135.63 664.14
00013565 00000038 880.35 260.45 392.47 534.84 952.78 485.51 1111.77 462.75 1022.89 598.21 1009.35 683.09 1134.89 663.93
00013566 00000039 881.34 263.32 389.25 531.89 952.74 484.86 1110.65 462.64 1021.90 597.52 1008.73 683.16 1132.16 664.66
00013567 00000040 880.90 263.65 389.18 531.75 951.73 485.20 1110.16 462.98 1021.00 597.03 1007.66 683.25 1131.47 664.80
00013568 00000041 880.93 263.27 389.01 531.97 951.13 485.79 1109.19 463.42 1020.09 597.43 1007.47 683.92 1131.00 665.32
00013569 00000042 881.03 264.19 388.95 531.17 950.99 485.67 1108.82 463.05 1019.47 596.92 1007.16 683.93 1130.37 665.17
00013570 00000043 881.36 264.57 388.47 530.47 951.25 485.43 1108.56 463.10 1019.35 596.88 1006.88 683.44 1129.98 664.95
00013571 00000044 882.13 264.70 387.88 529.92 951.40 485.48 1108.13 463.38 1018.72 596.44 1006.29 682.85 1129.47 664.62
00013572 00000045 882.18 264.70 387.77 529.58 951.36 485.69 1107.76 463.43 1018.46 595.90 1005.76 682.24 1129.26 663.87
00013573 00000046 882.93 264.67 387.42 529.13 951.60 485.88 1107.71 463.60 1018.33 596.19 1005.75 682.01 1129.23 663.66
00013574 00000047 883.20 265.33 387.33 528.05 951.67 486.33 1107.05 463.67 1018.10 595.88 1005.97 681.66 1129.04 663.01
00013575 00000048 883.11 266.96 386.66 526.00 951.47 485.71 1107.06 463.26 1018.18 595.87 1005.54 681.64 1128.22 663.25
00013576 00000049 882.70 266.05 387.24 527.36 950.97 485.80 1106.31 463.23 1017.00 595.17 1005.08 681.62 1127.56 663.09
00013577 00000050 882.45 265.82 386.97 528.11 950.36 484.51 1105.55 462.47 1015.96 595.35 1004.89 681.98 1126.36 663.93
00013578 00000051 882.61 266.68 385.65 527.81 949.72 483.90 1104.28 462.25 1014.81 594.96 1003.54 681.96 1124.64 664.32
00013579 00000052 883.18 265.20 384.90 528.52 949.11 483.68 1102.60 462.31 1013.19 594.55 1002.99 681.16 1123.55 663.67
00013580 00000053 883.04 264.97 384.38 528.92 948.96 483.53 1101.84 462.08 1013.19 594.53 1003.48 681.45 1123.04 663.85
00013581 00000054 882.72 264.56 384.74 529.10 948.16 483.53 1101.88 462.12 1012.76 595.33 1003.41 682.33 1123.26 664.74
00013582 00000055 882.63 264.63 384.90 529.37 947.98 483.91 1102.37 462.01 1012.73 595.10 1003.70 683.10 1123.87 665.11
00013583 00000056 882.78 264.57 384.46 528.47 948.26 483.71 1101.87 462.31 1012.59 594.89 1003.57 682.09 1123.22 664.52
00013584 00000057 882.66 264.38 384.91 527.75 947.91 483.19 1101.88 461.95 1012.18 594.78 1002.97 681.68 1122.84 664.19
00013585 00000058 882.31 265.18 385.43 526.05 948.02 482.52 1102.81 461.85 1012.45 594.47 1002.02 680.63 1122.51 663.66
00013586 00000059 882.20 264.46 385.58 526.00 948.08 482.26 1103.59 461.35 1012.62 594.40 1002.16 681.01 1122.94 663.80
00013587 00000060 882.72 263.45 385.60 527.25 948.30 481.43 1103.53 461.12 1012.44 594.41 1002.27 680.83 1122.51 664.06
00013588 00000061 882.95 263.74 384.81 527.17 947.98 481.64 1103.57 460.94 1012.30 594.52 1002.03 681.31 1122.78 664.17
00013589 00000062 883.06 262.74 384.05 529.42 947.63 481.57 1102.51 460.26 1011.60 594.20 1002.52 682.28 1122.40 664.59
00013590 00000063 883.14 263.20 383.48 529.46 948.31 481.15 1102.75 460.24 1012.61 594.27 1003.42 682.68 1122.11 665.39
00013591 00000064 883.09 265.67 382.84 527.08 950.03 480.37 1102.87 460.31 1013.94 594.27 1005.22 682.50 1120.79 666.19
00013592 00000065 882.96 267.38 382.60 524.65 951.47 480.30 1102.80 460.20 1015.36 594.42 1007.64 682.60 1120.13 666.38
00013593 00000066 883.15 264.92 383.07 527.51 952.50 478.66 1103.92 459.07 1015.97 593.83 1008.72 682.14 1120.67 666.25
00013594 00000067 882.02 264.18 385.63 528.78 952.40 477.31 1104.36 456.61 1016.37 592.89 1009.79 681.98 1122.12 664.96
00013595 00000068 882.63 262.51 385.96 529.52 952.71 475.84 1105.27 455.67 1016.27 592.46 1009.73 680.91 1122.90 664.23
00013596 00000069 882.70 258.19 386.02 533.45 953.64 475.16 1105.53 454.88 1017.61 591.42 1010.97 680.02 1123.93 663.17
00013597 00000070 882.73 257.32 385.96 534.11 954.34 473.52 1106.58 452.88 1019.06 590.13 1011.13 678.91 1124.52 661.76
00013598 00000071 884.32 255.31 384.79 535.40 954.87 471.47 1108.66 450.29 1020.27 588.50 1012.11 678.50 1127.42 660.68
00013599 00000072 884.16 254.09 385.18 535.62 954.85 470.87 1108.22 449.48 1020.61 586.89 1011.67 676.80 1128.02 658.65
00013600 00000073 883.59 253.26 386.37 536.08 954.14 470.83 1108.88 449.65 1020.59 585.23 1009.47 676.23 1127.68 658.36
00013601 00000074 883.03 252.00 387.86 537.66 954.88 469.46 1110.74 448.42 1021.98 583.25 1009.48 674.50 1129.05 656.74
00013602 00000075 881.66 250.82 389.75 538.71 954.87 467.38 1112.01 446.80 1023.33 581.83 1009.04 673.05 1129.01 655.59
00013603 00000076 881.36 249.32 388.90 538.89 954.02 466.15 1112.76 445.44 1023.61 579.53 1009.25 672.63 1129.15 655.14
00013604 00000077 882.09 248.67 388.97 539.49 954.07 466.08 1114.01 444.46 1024.24 578.32 1008.99 672.11 1131.02 653.88
00013605 00000078 882.69 247.65 388.55 539.12 953.60 465.21 1114.12 443.31 1024.78 576.64 1008.43 670.82 1131.69 652.39
00013606 00000079 882.98 247.75 388.29 539.16 953.77 463.64 1115.90 441.46 1025.83 575.68 1008.08 669.91 1132.89 651.13
00013607 00000080 883.45 245.81 387.78 539.56 953.04 462.24 1116.10 439.96 1026.00 574.22 1007.01 668.84 1132.74 650.06
00013608 00000081 883.45 245.20 388.26 538.36 952.40 461.88 1116.50 438.94 1026.24 572.87 1006.52 668.23 1133.08 649.07
00013609 00000082 883.48 244.87 387.72 537.29 952.53 460.46 1117.34 438.73 1026.92 572.13 1005.09 666.24 1132.67 648.15
00013610 00000083 883.71 242.98 386.82 537.70 952.01 459.44 1117.29 438.61 1026.36 571.10 1003.88 665.16 1131.58 647.92
00013611 00000084 883.46 241.29 385.71 538.37 951.54 459.25 1116.88 438.36 1025.60 570.21 1003.09 664.97 1130.63 647.73
00013612 00000085 882.62 240.73 385.86 538.76 950.70 458.04 1116.73 437.59 1025.38 569.13 1002.23 664.37 1130.12 647.68
00013613 00000086 882.85 240.74 384.96 538.55 950.80 457.49 1116.75 436.91 1024.71 567.36 1001.82 664.06 1130.22 647.32
00013614 00000087 882.08 240.89 385.01 537.76 949.65 456.70 1115.52 435.89 1023.55 566.81 1001.13 664.60 1128.68 647.84
00013615 00000088 882.51 239.46 383.64 538.59 949.04 455.60 1115.12 434.69 1022.96 565.39 1000.09 664.26 1127.87 647.72
00013616 00000089 882.15 239.05 382.57 538.76 948.13 454.41 1114.82 433.57 1022.04 564.69 998.80 664.14 1126.56 647.83
00013617 00000090 881.91 239.37 382.96 539.23 947.35 454.54 1113.48 433.77 1020.10 564.18 997.46 663.60 1124.97 647.32
00013618 00000091 881.32 240.49 383.01 540.53 946.04 454.68 1111.23 433.39 1017.81 563.48 996.28 663.88 1123.23 647.28
00013619 00000092 880.25 240.66 383.15 540.67 944.90 454.17 1109.01 433.22 1016.49 563.96 995.66 663.67 1121.00 647.32
00013620 00000093 878.72 241.76 383.68 540.70 943.38 453.78 1106.17 432.30 1014.65 564.38 995.36 664.52 1118.63 647.73
00013621 00000094 877.83 242.77 383.79 539.96 941.94 452.76 1104.31 431.40 1012.74 564.05 994.21 664.65 1116.26 648.04
00013622 00000095 877.11 241.23 383.36 542.79 940.46 452.66 1102.87 431.55 1011.40 564.31 992.93 665.27 1114.93 648.93
00013623 00000096 876.55 240.50 382.53 543.74 939.39 453.39 1101.55 431.72 1010.50 564.27 992.47 666.02 1114.09 649.30
00013624 00000097 875.62 241.78 382.25 544.85 937.86 453.39 1098.49 432.31 1007.48 564.08 990.07 665.25 1112.01 648.92
00013625 00000098 873.26 241.58 385.08 545.45 935.38 453.85 1096.36 433.54 1004.82 565.15 987.39 665.78 1110.54 649.58
00013626 00000099 871.00 241.97 386.44 546.56 933.36 455.80 1093.03 434.11 1002.06 565.38 985.90 666.72 1108.76 649.39
00013627 00000100 868.98 241.57 387.53 546.82 931.32 456.28 1092.51 434.49 1000.40 565.34 983.33 667.32 1108.28 649.96
00013628 00000101 867.34 241.96 388.34 546.17 929.93 455.62 1092.24 434.31 998.91 565.34 981.82 668.21 1107.18 651.23
00013629 00000102 865.33 241.45 389.56 547.18 928.78 456.37 1092.06 434.92 997.92 565.48 980.40 669.17 1106.69 652.06
00013630 00000103 863.93 241.28 390.11 547.36 927.49 455.92 1091.55 434.52 996.93 565.80 979.33 669.82 1105.95 652.61
00013631 00000104 862.62 240.79 390.47 547.27 925.91 455.06 1090.73 434.01 995.48 565.80 977.97 669.98 1104.66 652.96
00013632 00000105 861.61 241.34 390.02 547.22 925.53 454.33 1089.82 433.43 995.09 565.27 977.94 669.85 1103.72 653.01
00013633 00000106 860.75 239.90 390.00 548.91 924.75 453.47 1088.40 433.12 993.96 564.25 976.27 668.64 1102.02 652.50
00013634 00000107 859.90 239.81 389.70 548.02 923.48 452.57 1087.06 432.63 991.67 563.74 974.22 668.16 1099.98 652.29
00013635 00000108 858.83 239.22 390.09 548.58 922.27 452.34 1086.23 432.17 990.88 563.89 973.44 668.76 1099.98 652.63
00013636 00000109 858.26 239.06 390.29 549.57 921.71 452.92 1085.32 432.89 989.80 563.11 971.91 668.29 1099.53 652.29
00013637 00000110 857.00 237.42 391.42 551.52 920.51 453.12 1084.91 432.85 988.90 563.56 970.82 668.90 1099.69 652.80
00013638 00000111 855.48 237.45 392.16 553.17 919.39 452.32 1084.25 432.57 988.19 563.87 969.95 668.94 1098.43 653.24
00013639 00000112 853.91 236.16 393.14 554.76 918.10 452.16 1083.59 432.64 987.10 564.16 968.97 669.24 1097.24 653.73
00013640 00000113 852.63 235.99 394.15 556.06 916.75 452.03 1083.49 432.06 985.70 564.02 967.95 669.40 1097.00 653.45
00013641 00000114 851.46 236.53 394.93 555.60 915.68 452.07 1083.54 432.42 984.39 564.68 966.44 669.87 1096.96 654.04
00013642 00000115 849.91 236.16 396.32 555.97 913.62 452.37 1082.71 432.35 982.65 564.78 963.91 670.62 1095.91 654.38
00013643 00000116 849.44 235.21 396.26 556.31 912.22 452.64 1082.07 432.39 980.73 565.91 962.29 671.68 1095.36 655.17
00013644 00000117 847.81 235.60 397.37 556.37 910.39 453.02 1080.74 432.60 979.29 566.07 960.37 672.35 1093.60 655.75
00013645 00000118 846.21 235.20 397.95 557.90 909.67 452.38 1079.55 433.05 978.04 566.21 958.20 672.21 1090.47 656.14
00013646 00000119 845.94 234.89 397.86 559.10 909.09 450.37 1078.48 432.33 976.21 566.32 957.04 673.11 1086.66 657.93
00013647 00000120 844.67 232.31 397.69 564.20 906.70 450.38 1076.43 431.03 973.12 566.42 955.66 675.56 1085.85 659.32
00013648 00000121 843.68 231.02 397.59 567.99 902.82 451.27 1073.69 428.94 968.73 566.15 954.06 678.45 1086.10 659.68
00013649 00000122 842.04 230.55 399.55 572.14 900.72 451.50 1071.25 428.61 966.29 567.52 953.92 678.96 1086.35 659.62
00013650 00000123 839.59 232.28 399.98 569.45 897.51 452.02 1067.06 428.55 963.87 568.89 952.97 678.36 1081.66 658.55
00013651 00000124 837.09 233.03 402.18 567.47 893.28 454.50 1062.41 428.83 960.22 570.81 951.01 679.58 1077.64 657.91
00013652 00000125 830.29 230.50 410.47 568.68 890.45 452.80 1062.17 426.59 959.07 573.43 955.49 677.68 1075.78 655.20
00013653 00000126 828.08 233.44 412.64 563.03 886.67 455.70 1057.00 429.49 950.84 572.78 949.95 676.65 1069.09 654.23
00013654 DELETE   824.78 232.10 414.22 563.36 884.08 458.19 1053.34 431.82 946.71 573.78 946.20 676.73 1066.19 654.24
00013655 00000128 823.05 232.63 412.27 564.46 880.63 460.85 1048.49 433.43 942.10 572.80 941.16 678.14 1061.92 654.79
00013656 DELETE   819.66 232.01 411.76 565.90 876.19 462.30 1041.43 436.05 933.95 574.43 937.64 678.80 1052.85 656.39
00013657 DELETE   821.42 235.76 410.35 562.13 875.07 464.25 1035.09 436.60 928.82 574.59 935.61 679.74 1048.64 656.58
00013658 DELETE   817.67 235.36 411.52 563.95 868.62 465.59 1029.00 437.93 923.91 577.50 930.52 682.25 1042.42 658.94
00013659 00000132 814.99 234.03 409.52 566.06 861.49 465.65 1026.94 436.43 916.74 578.43 924.40 685.73 1037.78 660.97
00013660 00000133 811.58 232.90 408.15 567.25 855.96 465.96 1025.80 434.95 912.52 580.72 919.40 689.07 1035.61 663.11
00013661 00000134 810.32 235.30 409.91 566.56 853.94 468.01 1022.23 434.90 907.24 580.00 915.77 691.05 1033.01 663.52
00013662 DELETE   809.05 236.85 409.63 566.49 851.14 470.13 1014.75 437.01 900.41 578.26 913.81 692.32 1024.29 664.59
00013663 00000136 806.86 238.82 409.33 568.44 848.47 475.37 1004.99 439.87 892.27 576.92 914.92 694.54 1021.13 664.29
00013664 DELETE   808.55 248.82 394.01 563.45 854.13 473.86 988.11 445.44 883.42 575.51 911.17 688.42 1015.78 664.76
00013665 DELETE   807.83 246.71 395.32 568.26 852.35 472.89 983.00 448.23 878.59 581.87 911.43 689.00 1014.76 667.96
00013666 DELETE   805.46 241.15 397.88 575.51 847.77 471.53 979.88 450.04 871.95 584.89 905.89 688.71 1011.88 669.89
00013667 00000140 800.56 240.67 399.72 576.45 845.74 472.83 974.84 452.79 869.72 588.55 902.81 689.54 1007.10 671.66
00013668 DELETE   789.89 234.02 405.52 581.20 832.66 469.85 981.05 444.35 869.98 588.43 895.76 691.87 1000.60 670.64
00013669 00000142 791.56 237.02 404.19 579.14 829.84 471.93 975.03 445.00 865.05 588.02 891.41 692.38 995.03 670.06
CROP_BBOX: 349 0 1431 1080
