Video ID: 	SXrsp4Qd8LE
H: 	1080
W: 	1920
FPS: 	25.0

FRAME INDEX X0 Y0 W H [Landmarks (5 Points)]

00002350 00000000 698.53 119.67 443.18 585.32 807.90 373.23 1017.01 372.14 905.86 474.37 833.94 575.83 1002.74 573.95
00002351 00000001 699.09 116.07 443.79 576.99 804.01 364.00 1016.58 363.44 903.37 458.13 831.18 563.59 1006.36 561.59
00002352 00000002 700.22 114.55 442.02 579.10 800.93 363.35 1016.04 363.29 898.68 455.68 824.69 560.60 1006.30 559.19
00002353 00000003 701.97 114.30 440.58 585.88 803.87 368.75 1016.49 370.05 897.07 461.87 822.47 565.17 1003.25 565.13
00002354 00000004 704.29 119.04 438.04 590.29 813.55 374.63 1023.52 379.70 903.37 474.78 825.26 573.17 1001.61 576.64
00002355 00000005 712.41 120.95 435.78 603.52 828.07 379.86 1036.79 388.71 919.13 488.33 837.73 586.69 1008.38 592.85
00002356 DELETE   728.50 134.24 441.25 597.22 851.64 391.39 1061.63 398.77 950.86 493.69 858.37 590.08 1029.17 597.43
00002357 DELETE   741.25 138.58 444.52 602.07 876.84 403.02 1084.55 413.32 981.34 508.35 886.98 601.23 1054.36 610.25
00002358 DELETE   755.80 145.21 442.14 602.03 903.38 409.04 1110.93 424.34 1014.03 522.80 908.78 610.64 1076.66 622.45
00002359 00000009 769.35 159.75 438.85 597.60 926.70 423.24 1126.24 437.41 1044.92 535.88 946.24 623.81 1105.53 634.14
00002360 00000010 785.01 171.78 437.34 597.93 948.90 437.64 1147.27 442.50 1068.32 536.75 967.01 633.99 1121.68 638.92
00002361 00000011 793.95 178.83 435.42 597.35 960.36 446.30 1153.95 445.23 1084.48 548.51 980.88 643.56 1131.88 644.32
00002362 00000012 798.92 180.95 432.50 599.38 964.64 450.99 1155.88 446.32 1091.02 551.92 987.22 646.38 1139.35 644.03
00002363 00000013 797.31 182.61 432.99 599.29 959.13 453.91 1151.51 445.32 1086.03 552.62 983.28 646.35 1140.41 640.60
00002364 00000014 790.36 180.10 436.53 603.98 948.50 452.89 1143.38 440.98 1075.74 548.63 973.19 641.94 1138.12 633.25
00002365 00000015 786.52 178.56 436.27 603.30 942.40 452.28 1141.21 440.67 1069.41 547.00 965.41 638.92 1135.34 630.31
00002366 00000016 784.32 180.44 436.18 601.85 935.58 456.90 1137.36 442.08 1062.66 551.29 961.59 642.68 1134.14 631.18
00002367 00000017 783.10 188.05 437.62 598.00 932.06 462.78 1135.64 445.08 1060.29 557.47 961.36 648.00 1134.19 634.20
00002368 00000018 783.79 190.81 438.42 596.73 929.86 466.82 1135.66 445.31 1060.17 563.43 966.01 655.61 1137.21 638.75
00002369 00000019 786.14 198.72 439.48 592.64 928.05 476.93 1133.95 448.85 1059.97 571.24 972.21 663.85 1142.74 641.53
00002370 00000020 782.34 203.28 436.44 583.42 919.74 478.98 1125.76 451.10 1055.98 575.07 971.70 677.72 1140.20 651.48
00002371 00000021 780.49 204.99 435.01 583.46 917.84 478.02 1122.16 450.27 1051.66 574.92 970.85 678.38 1134.93 652.25
00002372 00000022 780.71 203.32 432.02 583.15 915.31 473.80 1118.43 446.46 1047.59 570.86 969.98 677.62 1130.06 651.66
00002373 00000023 771.53 197.75 435.78 593.71 914.88 469.91 1109.93 445.75 1042.17 574.55 966.79 672.64 1117.90 650.78
00002374 00000024 768.89 191.59 436.39 592.52 911.84 463.43 1107.59 439.83 1038.68 569.87 964.64 667.45 1115.10 646.35
00002375 00000025 765.21 187.31 439.02 596.33 907.49 461.06 1103.67 436.58 1034.19 567.32 960.83 665.99 1112.45 644.30
00002376 00000026 762.73 183.99 441.07 607.67 905.69 459.52 1101.48 435.85 1032.55 566.68 957.70 667.57 1110.89 646.49
00002377 00000027 760.47 182.03 442.07 624.07 904.31 457.74 1099.10 434.06 1031.91 564.66 953.73 670.42 1110.13 649.41
00002378 00000028 759.00 180.35 444.40 633.21 901.93 455.16 1099.48 432.49 1031.07 563.04 947.03 669.25 1111.08 649.15
00002379 00000029 758.13 179.72 443.97 633.77 899.73 454.78 1099.93 432.54 1029.39 562.55 940.23 665.77 1111.27 646.12
00002380 00000030 757.92 177.71 443.10 634.22 899.15 452.97 1099.95 431.84 1028.74 562.02 937.43 662.60 1111.39 643.95
00002381 00000031 756.44 176.04 443.17 629.81 897.14 450.53 1099.75 430.77 1026.65 560.68 933.34 657.71 1110.92 640.52
00002382 00000032 755.86 175.14 442.40 623.47 896.07 447.35 1099.58 428.73 1025.10 558.02 930.32 652.36 1109.87 636.46
00002383 00000033 754.21 172.52 441.78 616.82 893.45 444.74 1099.07 427.66 1022.07 553.04 926.61 646.97 1107.15 632.63
00002384 00000034 753.00 171.17 440.87 610.62 890.84 440.19 1097.24 423.79 1019.26 546.52 923.94 640.85 1105.78 627.16
00002385 00000035 751.91 172.83 439.40 603.15 888.04 435.81 1094.81 421.15 1014.72 541.30 920.15 635.43 1102.98 623.16
00002386 00000036 750.34 172.48 438.96 598.69 883.14 432.39 1091.41 418.86 1008.59 537.61 915.40 632.09 1099.27 620.88
00002387 00000037 748.47 170.61 437.70 597.52 877.94 430.24 1086.40 418.52 1001.02 534.52 911.59 630.56 1093.87 620.77
00002388 00000038 746.36 168.29 436.56 594.93 873.56 427.44 1081.39 417.29 994.34 531.32 908.87 627.32 1089.31 618.33
00002389 00000039 742.89 168.85 437.65 589.10 869.57 425.96 1077.47 416.22 988.41 527.19 905.31 624.15 1084.28 615.21
00002390 00000040 739.07 164.52 438.55 587.86 867.91 423.30 1075.26 415.14 985.73 521.70 900.45 618.06 1078.79 610.23
00002391 00000041 736.68 165.92 438.61 584.31 863.97 426.71 1072.33 415.96 980.86 521.30 898.30 620.15 1073.15 610.42
00002392 00000042 732.78 170.32 436.32 583.61 858.21 441.10 1065.97 425.12 974.15 529.35 894.60 631.10 1066.01 617.71
00002393 DELETE   729.53 179.18 438.13 589.71 849.53 458.34 1058.67 440.62 962.02 551.57 885.02 650.99 1054.08 636.59
00002394 00000044 716.28 195.89 436.68 591.51 840.42 474.87 1038.28 464.02 945.48 576.92 875.90 674.64 1026.64 664.08
00002395 00000045 716.31 205.24 436.50 589.72 839.67 484.29 1039.31 475.06 943.45 588.04 872.51 683.49 1025.23 674.45
00002396 DELETE   726.77 211.61 438.16 584.31 848.18 489.24 1060.89 472.98 961.37 585.81 881.22 681.74 1047.33 669.60
00002397 00000047 734.68 208.90 437.51 579.18 865.80 479.23 1072.49 463.28 982.01 578.25 901.25 671.70 1061.47 659.91
00002398 00000048 740.62 199.89 436.14 582.30 876.04 466.36 1084.49 452.19 997.04 570.28 912.05 669.75 1070.56 659.41
00002399 00000049 744.93 196.97 432.90 584.56 880.50 463.17 1087.26 452.05 1000.75 567.62 914.48 667.26 1072.20 659.25
00002400 00000050 741.29 193.68 436.66 588.04 873.28 458.68 1082.22 451.34 990.18 564.43 904.68 663.64 1064.57 658.99
00002401 00000051 734.58 190.79 440.29 592.96 861.60 458.43 1072.47 449.12 975.90 564.38 891.62 663.55 1054.68 657.27
00002402 00000052 730.08 187.61 439.56 602.20 853.14 458.58 1062.51 450.84 964.16 563.04 881.37 664.15 1043.37 658.94
00002403 00000053 728.28 188.39 439.82 608.50 850.02 462.52 1060.54 455.03 960.89 566.63 875.89 665.70 1043.48 660.42
00002404 00000054 727.93 191.45 441.57 612.58 853.17 465.99 1062.02 456.83 966.05 571.21 881.41 667.21 1050.37 660.50
00002405 00000055 729.48 191.59 442.67 616.89 858.79 465.90 1064.22 455.65 972.81 571.11 885.98 666.05 1054.95 658.63
00002406 00000056 732.11 190.18 441.87 617.24 862.22 461.95 1069.29 451.98 979.17 569.36 889.14 664.85 1060.29 657.64
00002407 00000057 733.12 187.94 440.82 614.08 863.02 459.12 1071.95 449.48 981.48 566.68 890.13 663.76 1061.45 656.87
00002408 00000058 732.90 187.79 440.07 607.84 862.88 458.60 1072.55 450.06 980.41 566.27 888.69 661.67 1059.25 655.66
00002409 00000059 730.85 190.21 439.43 598.07 860.11 458.63 1069.35 449.11 975.43 563.71 885.61 658.46 1055.29 651.64
00002410 00000060 727.00 188.96 440.40 599.00 855.37 459.80 1066.16 449.46 970.15 563.67 880.55 658.54 1052.73 650.83
00002411 00000061 724.74 188.67 439.27 600.43 851.09 458.70 1062.48 449.35 964.52 564.42 874.92 658.91 1047.60 652.12
00002412 00000062 723.86 186.59 438.18 601.16 849.76 457.09 1060.53 448.69 962.27 563.75 872.54 658.09 1044.42 652.17
00002413 00000063 723.14 184.65 439.46 603.81 850.21 455.40 1061.06 447.44 963.04 562.96 873.33 657.70 1045.04 652.16
00002414 00000064 723.78 184.69 440.92 611.34 852.28 455.75 1062.62 447.77 966.34 564.04 876.45 660.57 1047.02 655.12
00002415 00000065 725.16 192.32 440.80 607.01 855.06 458.37 1065.89 450.19 970.94 568.20 880.36 663.53 1050.31 657.90
00002416 00000066 727.55 198.90 439.18 601.85 859.17 461.86 1067.26 454.32 975.22 574.51 885.86 665.95 1051.75 661.00
00002417 00000067 729.42 201.70 439.17 599.53 862.55 463.99 1070.12 455.00 980.69 577.27 890.32 667.12 1056.15 661.04
00002418 00000068 732.33 201.46 439.27 597.77 869.59 463.98 1075.88 454.13 989.70 577.48 897.23 665.46 1063.21 658.67
00002419 00000069 739.55 195.67 436.74 602.28 883.39 461.68 1089.43 453.81 1008.60 574.41 910.27 666.12 1074.07 660.83
00002420 00000070 746.54 181.86 439.80 617.62 906.67 454.16 1107.90 448.23 1037.80 570.36 934.01 665.90 1092.38 661.41
00002421 00000071 771.03 179.63 431.31 615.46 955.13 444.37 1139.02 446.06 1088.03 559.43 978.21 656.78 1123.72 655.96
00002422 00000072 791.94 179.41 431.41 615.07 990.45 446.47 1164.74 443.65 1126.47 554.99 1017.97 657.11 1149.93 655.61
00002423 00000073 815.73 182.03 413.61 611.68 1028.71 450.66 1190.45 450.85 1173.04 553.04 1053.94 652.44 1179.18 654.30
00002424 00000074 838.27 185.45 402.57 603.41 1063.24 455.96 1202.32 455.81 1201.67 555.17 1091.30 662.41 1190.97 661.22
00002425 00000075 856.74 180.22 389.30 604.63 1084.64 451.75 1217.56 451.72 1226.92 555.35 1105.94 661.31 1204.14 662.04
00002426 00000076 866.60 177.05 384.06 602.92 1092.16 449.76 1224.34 448.95 1234.84 553.56 1110.29 657.31 1210.51 658.09
00002427 00000077 870.24 179.22 382.61 599.89 1093.99 448.64 1226.46 448.61 1235.65 553.92 1110.74 657.10 1211.01 658.42
00002428 00000078 866.56 182.54 386.24 601.24 1093.15 451.97 1228.03 451.19 1236.81 559.31 1109.39 662.73 1209.26 663.27
00002429 00000079 866.82 185.33 386.35 605.02 1095.28 457.94 1229.46 454.60 1238.60 567.59 1108.51 670.92 1206.84 669.57
00002430 00000080 869.83 193.47 385.76 603.52 1099.19 462.24 1231.88 459.46 1240.00 572.54 1109.05 674.95 1207.95 674.06
00002431 00000081 871.97 192.75 385.60 605.52 1102.00 463.72 1232.74 459.68 1243.03 574.31 1111.57 675.68 1210.11 673.98
00002432 00000082 873.31 191.61 386.57 605.63 1101.77 462.65 1233.98 457.30 1243.51 572.90 1112.30 674.77 1212.39 671.92
00002433 00000083 873.96 191.69 386.79 600.24 1100.50 460.32 1233.49 456.48 1242.75 568.66 1113.88 671.77 1213.19 670.07
00002434 00000084 874.81 188.22 386.13 599.70 1097.05 458.25 1234.05 454.64 1240.37 566.85 1112.37 669.68 1214.55 667.96
00002435 00000085 873.25 186.67 387.20 601.87 1094.99 457.09 1233.73 453.19 1239.77 566.41 1110.75 669.89 1214.83 667.94
00002436 00000086 870.61 186.82 388.63 602.38 1092.56 457.57 1233.05 453.74 1238.35 566.86 1108.54 670.90 1213.84 668.88
00002437 00000087 867.22 186.94 391.14 604.87 1089.85 456.76 1231.92 454.50 1235.21 566.35 1106.24 671.94 1211.90 671.11
00002438 00000088 862.00 188.22 394.75 604.45 1085.52 455.67 1229.89 455.86 1229.16 565.41 1102.12 671.62 1207.54 672.34
00002439 00000089 858.22 188.44 397.07 603.87 1081.07 455.00 1226.17 457.62 1222.64 563.18 1099.53 669.45 1204.64 671.68
00002440 00000090 854.26 188.06 400.39 600.95 1076.29 455.49 1222.07 460.34 1214.90 561.33 1095.26 666.12 1201.40 669.78
00002441 00000091 845.91 185.96 406.23 600.38 1062.60 455.13 1215.31 457.64 1199.57 561.26 1086.71 666.21 1194.37 667.04
00002442 00000092 835.45 185.23 408.56 602.79 1046.82 455.61 1203.65 454.53 1185.03 560.40 1073.75 665.36 1184.94 663.10
00002443 00000093 821.79 189.18 417.26 599.80 1025.77 454.19 1193.70 456.24 1161.19 560.85 1052.70 664.46 1170.79 664.67
00002444 00000094 808.86 188.30 422.10 600.25 1001.52 459.63 1177.51 450.46 1136.57 565.32 1031.74 668.24 1157.86 662.10
00002445 00000095 794.26 189.07 432.35 607.56 973.99 456.84 1164.12 450.12 1110.35 566.63 1005.57 668.63 1144.48 665.27
00002446 00000096 775.60 190.09 432.15 603.16 949.42 453.79 1141.92 453.86 1084.92 567.05 983.46 672.82 1127.06 669.70
00002447 DELETE   748.39 182.38 442.16 610.51 907.00 456.00 1110.10 450.00 1037.02 572.49 939.11 669.47 1091.63 664.87
00002448 00000098 737.66 187.99 438.29 595.19 873.93 447.26 1082.78 441.17 995.34 559.76 903.44 655.36 1069.27 651.15
00002449 00000099 718.61 179.82 440.85 605.76 847.21 445.73 1057.98 439.79 959.58 556.53 869.78 652.70 1041.70 648.69
00002450 00000100 701.37 176.81 441.00 608.89 821.87 443.29 1028.21 441.55 928.78 558.00 853.99 656.96 1015.67 653.89
00002451 00000101 693.21 170.38 445.82 605.16 807.62 433.91 1019.83 433.50 913.62 545.36 838.58 646.41 1009.54 644.03
00002452 00000102 688.69 170.60 444.52 598.74 797.28 429.76 1008.73 429.88 900.79 539.84 828.15 644.14 997.49 642.42
00002453 00000103 683.56 179.15 443.95 595.40 787.08 438.37 998.52 439.10 884.52 553.21 810.72 651.27 982.12 650.37
00002454 00000104 679.05 186.31 444.00 591.65 780.65 448.17 986.87 451.56 870.93 561.70 799.45 657.65 962.85 660.13
00002455 00000105 672.89 184.85 441.63 591.71 772.39 444.23 976.42 448.27 859.56 556.80 791.22 655.65 949.35 659.39
00002456 00000106 665.27 176.40 440.20 593.33 759.63 433.56 967.71 433.51 849.06 545.27 783.37 650.45 944.48 650.23
00002457 00000107 653.39 165.43 437.51 598.19 748.51 434.04 957.52 434.58 832.85 544.54 774.22 646.86 935.10 646.15
00002458 00000108 645.42 168.58 440.13 598.46 742.21 433.88 951.23 436.73 827.65 545.56 767.57 650.43 927.61 651.38
00002459 00000109 638.84 176.97 441.72 604.21 731.26 443.10 941.19 443.58 816.36 558.73 760.36 667.51 918.01 666.50
CROP_BBOX: 457 0 1436 953
