Video ID: 	zz4kBXiqAu4
H: 	1080
W: 	1920
FPS: 	29.97002997002997

FRAME INDEX X0 Y0 W H [Landmarks (5 Points)]

00061889 00000000 658.80 263.62 439.96 533.16 769.26 379.57 956.83 431.96 810.63 514.37 737.42 601.77 885.49 645.54
00061890 00000001 660.80 268.12 441.44 529.25 772.61 384.57 962.23 435.25 815.58 516.34 741.29 604.71 890.65 647.05
00061891 DELETE   663.79 270.56 439.69 528.52 775.18 383.97 967.57 433.78 822.68 515.84 745.02 606.79 895.94 648.42
00061892 DELETE   674.37 266.99 431.93 536.23 777.46 388.49 967.46 429.15 833.17 519.29 752.64 608.82 908.15 641.98
00061893 00000004 680.62 259.80 433.15 543.81 783.72 383.99 975.37 427.30 840.03 520.60 757.93 604.15 915.69 639.71
00061894 00000005 682.89 257.27 439.64 542.64 789.86 383.40 983.87 424.09 850.25 520.28 765.79 602.76 923.60 636.04
00061895 DELETE   683.03 259.49 442.70 538.08 794.50 383.44 991.14 422.67 859.12 520.10 771.59 602.13 931.74 634.08
00061896 DELETE   683.62 259.06 443.35 535.80 801.16 382.30 998.04 422.38 869.54 518.78 778.46 600.20 937.36 632.70
00061897 00000008 688.23 258.94 444.36 535.47 809.87 381.92 1004.75 423.88 877.24 519.10 784.82 598.81 944.07 632.91
00061898 00000009 691.86 251.70 439.86 541.08 816.29 379.57 1011.78 424.85 883.05 518.11 789.23 597.61 947.13 634.16
00061899 00000010 693.55 252.94 439.79 539.47 821.75 380.10 1016.10 427.14 888.60 517.14 791.12 595.88 950.64 634.02
00061900 00000011 695.99 252.43 440.34 538.43 825.33 378.75 1018.97 427.09 892.51 518.32 793.51 595.03 952.56 634.32
00061901 00000012 700.32 257.03 440.01 532.74 828.63 379.29 1022.07 428.51 894.41 517.61 794.99 593.80 955.36 634.22
00061902 00000013 701.02 252.28 441.86 538.01 831.83 377.00 1024.57 428.07 895.57 517.46 796.25 592.46 955.42 634.49
00061903 00000014 701.17 251.34 444.64 539.25 834.17 376.93 1025.93 427.95 895.93 516.98 798.13 592.28 955.56 634.26
00061904 00000015 704.20 251.89 443.78 539.36 835.82 376.54 1027.29 427.32 897.20 516.16 799.07 592.13 956.53 634.03
00061905 00000016 703.92 250.97 445.94 540.60 836.78 376.32 1029.23 428.16 897.94 515.46 798.81 592.38 957.27 635.25
00061906 00000017 705.44 250.81 445.01 540.30 838.27 376.12 1029.61 428.80 897.75 514.41 799.10 591.95 956.93 635.55
00061907 00000018 705.57 251.42 443.78 539.50 838.82 375.79 1029.58 428.24 897.99 514.43 799.31 591.41 957.02 634.86
00061908 00000019 704.40 249.44 445.79 541.09 837.37 375.74 1029.18 427.52 897.25 513.08 798.85 591.30 957.41 634.23
00061909 00000020 706.23 251.06 442.55 538.85 836.95 375.75 1028.39 426.64 898.57 511.09 799.70 591.09 958.15 633.37
00061910 00000021 704.98 248.00 439.82 540.31 835.25 374.57 1026.75 423.90 900.63 508.21 799.46 589.63 960.32 630.86
00061911 00000022 699.12 247.31 444.35 538.29 832.13 372.95 1024.15 420.10 900.50 507.30 799.80 587.52 961.03 626.71
00061912 00000023 697.52 247.18 444.07 536.06 826.57 371.29 1021.13 414.70 897.53 506.03 799.49 588.55 961.23 624.65
00061913 00000024 694.07 252.09 444.17 530.30 821.29 371.38 1015.74 411.03 893.79 504.73 798.36 589.98 959.10 622.51
00061914 00000025 698.38 254.12 436.94 528.06 815.12 373.30 1011.24 410.86 888.45 502.36 795.02 592.13 956.22 622.78
00061915 00000026 693.86 254.45 439.11 527.29 809.78 373.34 1006.25 408.71 882.80 502.60 790.90 592.75 952.74 621.55
00061916 00000027 692.58 253.76 440.12 528.61 806.27 371.43 1002.91 406.55 878.23 502.12 787.83 592.40 950.74 620.98
00061917 00000028 688.51 256.64 444.53 524.62 803.06 370.32 1000.58 404.04 876.22 502.63 787.16 592.78 949.52 620.11
00061918 00000029 689.45 254.81 442.60 527.63 800.96 370.68 997.43 403.21 872.80 501.14 785.85 593.30 946.33 619.54
00061919 00000030 686.06 254.69 444.10 528.69 799.51 370.62 994.31 402.82 871.47 501.85 784.24 591.65 944.93 617.57
00061920 00000031 686.25 256.14 442.45 528.54 798.97 370.63 992.48 402.14 870.30 501.22 783.04 591.27 943.62 616.71
00061921 00000032 686.19 254.56 441.24 530.60 797.23 368.96 990.33 400.16 867.81 501.29 781.90 590.56 941.78 615.74
00061922 00000033 688.90 252.28 432.54 535.50 796.79 368.87 988.34 399.69 865.98 501.12 780.36 589.72 940.83 614.69
00061923 00000034 687.20 248.17 431.95 542.18 794.80 368.80 986.14 399.20 863.85 501.61 779.19 590.28 940.16 614.82
00061924 00000035 683.83 248.46 433.91 543.83 792.32 368.84 982.78 398.90 861.05 502.04 777.30 589.52 938.05 613.87
00061925 00000036 680.00 250.39 435.78 542.64 787.75 370.40 979.62 401.04 857.52 503.86 774.57 591.40 934.80 615.96
00061926 00000037 678.20 253.02 433.32 537.60 783.12 376.18 974.54 404.82 852.28 505.14 771.34 594.10 930.27 616.92
00061927 00000038 676.95 257.15 423.67 533.24 780.99 384.32 969.44 412.20 847.73 506.93 767.43 597.00 925.02 619.58
00061928 00000039 674.34 258.64 425.73 536.59 777.31 390.11 965.09 418.81 843.16 510.39 761.82 599.79 920.13 622.92
00061929 00000040 670.98 265.55 427.92 531.83 771.83 389.94 963.52 420.34 839.35 517.20 757.11 604.19 916.99 628.49
00061930 00000041 669.72 265.15 426.71 531.79 770.30 390.59 959.09 421.19 836.20 520.10 756.43 605.17 912.14 629.54
00061931 00000042 662.90 266.50 434.69 527.14 771.69 388.12 963.25 423.88 833.34 518.51 755.44 607.77 906.53 637.34
00061932 00000043 661.35 266.58 433.81 527.55 768.46 389.11 960.24 424.35 831.13 519.92 753.58 608.20 904.99 637.43
00061933 00000044 658.75 267.35 433.67 527.19 766.07 388.61 958.75 423.48 830.59 520.49 751.60 608.46 904.35 637.56
00061934 00000045 656.81 263.31 434.92 530.95 763.82 389.11 957.92 423.30 829.20 519.76 750.34 608.20 903.82 636.60
00061935 00000046 655.31 264.46 435.30 529.77 762.44 389.55 956.08 423.61 827.90 520.37 748.54 607.56 902.16 635.71
00061936 00000047 654.23 262.37 435.82 533.09 761.52 388.27 955.65 422.88 826.93 521.68 746.66 606.16 902.53 634.82
00061937 00000048 653.98 262.97 434.49 533.20 760.66 388.54 954.12 422.82 825.42 522.99 745.61 605.13 902.89 633.45
00061938 00000049 652.78 263.12 434.51 534.09 758.54 388.45 952.77 423.32 823.63 525.20 742.84 603.75 902.34 632.69
00061939 00000050 651.74 264.73 434.83 532.54 757.46 387.46 951.51 422.82 823.00 526.08 741.35 603.11 901.68 632.57
00061940 00000051 649.63 265.31 435.26 532.79 756.10 387.82 949.78 423.24 822.08 526.40 739.72 602.81 901.17 632.35
00061941 00000052 648.28 264.81 436.99 534.17 754.52 387.98 948.66 424.24 820.01 527.52 736.80 601.78 899.92 632.07
00061942 00000053 647.29 263.20 436.01 536.27 752.20 389.22 947.19 424.54 818.32 526.97 735.23 603.09 899.30 632.49
00061943 00000054 645.33 263.61 438.20 536.50 751.11 389.40 945.71 425.00 816.57 527.27 733.28 605.11 895.54 634.77
00061944 00000055 645.35 263.43 436.20 537.02 749.54 389.09 945.25 425.03 815.79 528.85 731.55 607.08 893.24 637.14
00061945 00000056 645.37 262.33 437.91 540.06 749.05 389.72 944.37 426.21 813.65 528.40 729.91 608.19 889.35 638.66
00061946 00000057 643.30 264.31 437.73 535.39 747.49 389.71 942.92 425.79 813.69 529.00 729.99 608.03 888.22 638.24
00061947 00000058 643.20 265.92 436.53 533.57 747.11 389.47 941.92 426.13 812.39 529.67 728.51 606.85 886.36 637.63
00061948 00000059 642.74 263.40 435.53 536.07 746.14 387.66 940.67 424.56 811.27 528.87 726.39 605.16 885.96 636.08
00061949 00000060 640.94 262.23 436.67 537.73 744.95 384.86 940.41 421.22 811.59 528.23 725.80 603.65 886.51 634.00
00061950 00000061 641.25 262.67 436.22 536.36 744.76 385.14 939.20 421.21 810.82 526.40 725.55 602.81 886.21 632.84
00061951 00000062 642.20 262.47 434.92 536.00 745.06 385.52 939.18 421.83 810.36 526.66 725.93 602.39 887.14 632.58
00061952 00000063 641.96 261.68 435.06 536.65 744.78 386.88 938.80 422.54 810.45 526.07 726.14 602.55 887.46 632.16
00061953 00000064 641.40 261.77 435.85 536.35 744.42 387.21 939.02 422.35 810.84 526.15 726.29 603.08 887.71 632.22
00061954 00000065 641.51 264.48 435.13 532.52 743.71 387.64 938.12 422.31 810.78 526.39 726.54 603.62 887.50 632.43
00061955 00000066 641.47 263.88 435.02 531.55 743.27 387.81 937.30 422.92 809.51 525.97 725.16 603.14 886.03 632.30
00061956 00000067 642.11 267.86 431.58 525.10 742.38 388.03 935.03 422.23 809.16 525.23 725.56 602.58 884.66 631.18
00061957 00000068 641.28 266.30 432.41 525.76 740.73 388.98 933.82 421.50 807.72 523.89 725.56 603.23 884.64 630.24
00061958 00000069 642.80 267.85 430.75 523.72 740.73 389.33 932.79 421.58 806.32 523.60 726.55 603.72 884.48 630.54
00061959 00000070 642.10 264.78 432.11 528.91 740.17 389.29 933.04 422.24 804.87 523.56 725.63 605.37 882.66 632.72
00061960 00000071 643.18 265.86 430.61 524.34 741.09 389.00 933.16 422.05 805.67 522.97 727.39 605.39 880.43 633.04
00061961 00000072 642.33 264.72 431.81 525.76 740.46 388.84 932.90 422.23 805.36 523.47 726.82 606.20 878.31 634.10
00061962 00000073 642.95 265.23 430.60 524.38 741.06 389.31 932.76 422.66 805.67 523.92 727.59 606.91 876.56 635.00
00061963 00000074 644.10 265.41 428.41 524.41 741.77 389.46 933.75 422.75 806.25 524.47 728.63 608.40 877.09 636.52
00061964 00000075 644.91 263.26 428.49 526.14 741.74 391.20 933.99 423.54 805.39 524.60 730.02 610.96 877.31 638.38
00061965 00000076 644.98 262.54 427.49 527.40 741.49 393.41 933.82 424.69 805.97 525.42 731.08 612.83 878.71 639.37
00061966 00000077 645.68 265.07 427.62 523.72 741.59 395.57 933.66 426.38 805.20 526.07 731.51 613.95 878.43 640.25
00061967 00000078 645.17 267.48 426.75 522.16 740.69 397.45 932.36 426.72 805.37 526.92 731.79 615.36 879.59 640.42
00061968 00000079 644.03 268.46 427.69 520.54 739.58 398.28 931.56 427.09 805.07 527.58 731.57 615.69 879.77 640.23
00061969 00000080 643.27 268.74 427.64 520.54 739.24 398.04 931.05 426.70 805.02 527.49 731.97 616.24 879.80 640.58
00061970 00000081 643.47 271.00 428.27 517.86 739.18 397.87 931.18 426.57 804.44 528.05 732.00 616.17 879.77 640.61
00061971 00000082 643.43 273.88 429.46 513.87 738.30 398.32 930.09 427.11 802.87 527.92 731.65 615.51 880.34 640.03
00061972 00000083 643.73 273.50 430.40 515.11 738.28 398.83 929.30 427.75 801.22 527.56 730.82 613.98 881.27 638.61
00061973 00000084 642.47 274.20 431.67 514.02 737.73 397.88 928.91 426.45 801.68 527.75 731.23 613.41 881.39 637.69
00061974 00000085 643.73 271.70 433.12 517.77 737.71 396.96 928.12 425.18 800.28 526.98 731.84 612.77 880.22 636.79
00061975 00000086 643.43 269.86 435.11 519.90 739.22 396.15 930.28 425.80 801.50 526.44 731.81 611.01 881.93 636.18
00061976 00000087 645.27 269.10 432.28 521.80 740.98 393.94 932.27 425.19 802.69 525.79 731.51 609.78 883.17 636.28
00061977 00000088 645.42 269.22 431.77 520.22 741.89 394.39 932.62 426.44 802.98 525.05 732.59 610.12 881.91 637.21
00061978 00000089 646.47 270.54 429.68 518.11 743.22 393.63 934.17 426.10 805.30 525.40 733.12 610.08 882.07 637.57
00061979 00000090 647.54 273.71 430.41 514.53 744.12 395.31 934.55 427.02 805.47 525.74 735.07 610.40 883.13 637.26
00061980 00000091 647.58 275.40 431.33 514.39 744.23 395.55 934.98 427.23 806.00 526.59 735.67 612.07 882.84 638.83
00061981 00000092 647.18 274.94 432.44 516.55 744.21 396.80 935.63 428.55 806.22 528.02 735.65 613.43 883.08 640.30
00061982 00000093 647.28 277.34 432.23 514.08 745.45 397.57 936.68 429.98 807.74 529.31 737.12 614.16 882.68 641.70
00061983 00000094 647.13 275.43 433.61 516.82 745.44 397.63 937.32 429.47 808.25 530.05 737.20 614.59 882.94 641.62
00061984 00000095 646.52 275.66 433.58 516.47 744.99 398.02 937.30 429.68 808.83 530.20 737.11 615.40 882.42 642.35
00061985 00000096 647.35 274.65 432.19 517.10 745.18 397.98 936.98 429.74 808.36 530.03 736.65 615.28 881.71 642.31
00061986 00000097 646.67 271.76 434.58 522.30 744.57 397.09 937.28 427.97 808.27 529.50 736.15 615.08 883.45 641.25
00061987 00000098 646.08 270.17 433.35 526.96 744.22 395.03 936.09 428.02 806.23 530.49 731.80 611.14 882.77 639.10
00061988 00000099 645.95 272.78 434.14 528.27 742.89 391.92 933.99 424.81 804.88 528.83 730.12 610.14 881.58 637.80
00061989 00000100 642.92 274.33 433.15 527.26 739.53 388.92 929.26 421.74 802.74 527.06 723.99 604.92 883.94 632.45
00061990 00000101 642.47 267.78 432.73 532.33 736.95 388.52 927.03 416.90 800.25 519.84 723.63 602.40 887.89 625.80
00061991 00000102 639.05 261.58 432.73 539.83 729.85 390.93 920.05 415.50 794.49 519.39 719.14 603.50 887.39 623.34
00061992 00000103 631.59 260.48 433.87 543.17 722.06 394.10 913.18 416.06 788.58 523.41 716.22 608.87 884.20 626.46
00061993 00000104 628.17 263.94 438.09 550.79 717.07 403.14 907.31 423.88 781.40 533.34 712.96 615.71 881.84 632.12
00061994 00000105 621.16 292.67 439.83 541.37 711.49 411.28 900.22 421.67 780.41 541.34 716.36 628.63 887.06 635.58
00061995 00000106 615.93 300.16 436.75 542.14 704.82 421.55 894.07 431.49 777.89 555.76 714.02 637.63 884.89 644.16
00061996 00000107 611.56 306.95 442.97 544.14 699.87 431.67 889.46 441.58 774.20 564.17 708.62 643.74 885.34 650.44
00061997 00000108 606.34 314.87 446.98 546.34 692.22 432.93 884.36 445.46 766.52 569.29 699.08 645.19 883.32 653.65
CROP_BBOX: 359 14 1282 1029
