Video ID: 	3qypcEj611U
H: 	1080
W: 	1920
FPS: 	25.0

FRAME INDEX X0 Y0 W H [Landmarks (5 Points)]

00015184 00000000 586.71 154.20 383.26 566.84 794.19 384.27 932.63 379.09 942.70 457.27 825.86 578.03 947.01 573.19
00015185 00000001 585.75 154.86 380.75 564.97 788.75 385.86 928.11 377.35 936.64 457.41 822.01 577.84 945.21 570.31
00015186 DELETE   580.53 158.53 382.81 561.72 781.47 386.01 921.31 374.21 929.39 458.30 818.04 579.22 941.14 569.11
00015187 00000003 571.60 158.83 386.77 561.56 773.08 387.25 915.99 374.58 923.49 457.85 813.28 580.38 937.07 569.14
00015188 00000004 563.29 156.62 391.76 564.48 764.38 389.27 911.13 373.74 916.91 457.99 808.91 582.78 933.94 568.85
00015189 00000005 554.55 155.74 394.19 569.92 755.89 390.40 902.51 374.64 908.18 458.30 805.03 585.57 929.04 571.18
00015190 00000006 548.81 162.29 395.86 568.44 748.44 388.98 893.74 372.32 897.63 459.71 798.77 587.41 921.98 571.95
00015191 00000007 544.63 164.51 395.07 570.38 741.93 389.82 888.39 371.95 889.57 462.10 794.04 589.52 918.44 572.72
00015192 00000008 542.71 162.39 394.56 579.18 738.06 392.77 882.41 372.10 886.44 463.71 791.14 592.19 915.33 573.02
00015193 00000009 539.07 161.60 396.13 586.62 735.66 395.31 877.83 374.41 882.48 466.08 787.56 594.19 911.67 574.76
00015194 DELETE   537.85 160.88 396.23 590.95 732.86 397.48 873.77 374.19 880.06 467.80 786.40 596.50 909.37 575.23
00015195 00000011 537.55 159.24 395.44 594.85 731.67 397.81 871.69 374.23 878.64 467.96 785.36 597.31 907.71 575.90
00015196 00000012 537.48 157.06 395.09 596.60 731.40 398.05 871.34 373.96 878.37 467.12 785.35 596.98 907.54 575.18
00015197 00000013 539.01 159.29 394.51 594.86 732.32 396.93 872.93 373.86 879.66 465.72 784.77 595.95 909.37 574.95
00015198 00000014 541.00 158.48 394.56 594.35 734.55 395.27 875.39 372.52 882.34 464.07 788.02 595.81 912.27 574.95
00015199 00000015 543.03 160.26 394.43 590.51 736.98 394.95 879.48 372.30 885.70 464.44 789.98 596.05 914.42 575.35
00015200 00000016 546.70 161.60 392.76 584.52 740.34 396.01 885.24 372.37 889.84 463.79 795.14 595.78 921.32 574.01
00015201 00000017 550.51 162.77 391.39 576.94 743.76 397.94 890.80 371.15 895.39 463.93 799.47 594.90 926.20 570.69
00015202 00000018 553.34 164.65 393.92 575.78 746.00 398.54 896.54 371.96 899.21 464.27 800.30 595.33 930.75 571.17
00015203 00000019 556.02 170.47 395.99 569.17 748.25 398.67 901.78 372.02 903.43 464.49 803.35 596.43 935.26 572.15
00015204 00000020 561.29 168.12 395.32 571.81 752.11 401.62 906.38 372.87 907.25 465.87 804.95 598.41 938.66 572.69
00015205 00000021 563.88 167.22 394.20 575.62 757.09 401.42 907.89 373.58 910.69 467.01 806.40 599.10 938.33 574.44
00015206 DELETE   569.60 166.23 391.57 587.64 762.58 400.30 909.81 375.18 914.07 467.59 808.44 602.17 940.49 580.12
00015207 00000023 574.10 162.21 388.50 590.25 766.33 400.95 911.30 375.25 917.34 468.50 812.68 602.32 942.78 579.71
00015208 DELETE   576.03 162.39 387.10 588.97 768.46 400.77 912.97 375.83 919.03 468.44 814.40 601.75 944.20 579.79
00015209 00000025 574.65 165.18 388.56 582.73 768.58 400.59 914.64 374.39 919.86 469.31 814.84 601.02 944.60 577.91
00015210 00000026 574.51 163.32 391.10 580.56 769.92 401.77 916.90 373.27 923.60 469.74 819.80 601.53 948.89 576.19
00015211 00000027 575.45 162.97 391.23 571.63 771.02 399.77 915.58 369.89 925.59 466.10 824.96 597.94 950.92 571.54
00015212 00000028 574.66 160.31 392.32 571.72 770.37 397.39 914.02 367.89 924.82 462.09 824.04 594.47 949.57 568.51
00015213 00000029 574.27 158.08 390.71 574.15 769.34 395.59 913.81 367.83 924.34 460.60 822.23 593.19 948.89 568.80
00015214 00000030 571.68 157.17 391.33 576.86 767.15 394.01 910.20 368.97 919.60 458.61 818.45 592.00 944.24 570.02
00015215 00000031 566.74 157.48 393.55 578.61 763.07 392.34 908.25 369.06 914.76 458.17 812.79 591.51 940.28 571.02
00015216 00000032 563.85 159.95 395.10 575.06 759.36 391.30 906.40 369.62 910.66 458.13 808.26 590.29 936.96 571.11
00015217 00000033 562.08 160.48 395.70 571.33 755.66 391.54 904.59 369.58 906.87 457.72 805.74 589.20 934.68 569.70
00015218 00000034 560.16 159.05 395.19 570.39 754.25 391.14 901.77 370.30 904.45 457.51 804.60 588.23 931.43 569.68
00015219 00000035 558.54 159.06 397.42 573.49 753.35 390.44 901.25 369.35 904.16 456.05 805.94 589.18 933.20 570.20
00015220 00000036 559.55 157.02 396.33 578.79 756.62 390.37 904.09 367.37 910.84 455.85 812.30 591.41 939.50 570.65
00015221 00000037 564.65 155.52 394.85 580.29 761.66 388.06 907.67 364.68 916.19 455.17 816.24 591.19 943.02 570.36
00015222 DELETE   568.97 159.65 393.24 577.18 764.84 385.57 907.85 362.19 918.91 452.18 819.50 589.99 945.62 569.37
00015223 00000039 570.15 162.45 392.95 577.39 765.82 384.51 906.91 363.97 917.33 452.81 818.41 589.92 943.92 571.69
00015224 00000040 567.13 162.46 395.54 577.54 761.71 385.97 905.73 363.60 913.91 453.47 812.83 589.20 941.67 569.57
00015225 00000041 558.73 159.78 399.34 586.12 754.49 388.72 901.13 367.59 906.00 456.15 803.87 592.00 935.29 573.16
00015226 00000042 552.56 160.29 402.22 592.60 748.42 389.33 895.69 369.76 898.00 459.01 796.75 594.72 928.30 576.97
00015227 00000043 548.55 161.33 402.35 583.04 745.75 388.98 892.96 370.16 893.45 459.78 795.57 592.67 923.00 575.34
00015228 00000044 549.64 159.35 400.30 577.60 745.40 389.21 893.54 368.32 894.75 458.68 796.59 589.64 924.21 570.53
00015229 00000045 552.52 159.18 398.34 572.68 746.52 388.76 895.93 366.75 897.57 455.21 799.25 587.52 927.40 567.48
00015230 00000046 554.18 157.97 397.65 572.88 749.22 387.79 896.59 365.37 901.45 453.36 803.52 587.46 930.13 567.36
00015231 00000047 554.15 158.79 396.16 574.67 748.36 388.83 894.22 365.64 900.24 454.69 802.58 588.43 929.28 567.75
00015232 00000048 553.09 160.99 396.46 575.09 745.95 389.45 890.46 365.71 896.01 455.00 799.61 588.74 926.75 567.53
00015233 00000049 550.47 158.43 397.64 579.68 742.65 390.29 887.77 366.05 891.75 456.37 795.77 589.31 924.05 567.52
00015234 00000050 547.61 157.90 399.87 579.52 738.95 391.88 886.25 367.38 888.04 456.11 791.65 588.24 922.11 566.00
00015235 00000051 547.77 157.86 399.58 578.49 739.01 391.58 886.11 367.15 888.04 455.82 791.97 587.64 922.24 565.42
00015236 00000052 548.61 158.56 399.40 576.46 740.49 392.21 886.99 366.32 890.87 455.70 793.27 587.11 923.90 563.73
00015237 00000053 550.43 160.28 398.79 572.63 742.84 393.35 889.00 366.61 894.00 455.99 795.24 586.96 925.46 563.04
00015238 00000054 551.35 159.79 398.88 573.72 743.26 393.81 889.21 367.07 894.04 456.10 795.41 587.41 925.62 563.55
00015239 00000055 550.52 159.84 398.99 574.66 743.81 394.61 888.93 367.80 894.59 456.92 794.94 587.44 925.05 563.49
00015240 00000056 549.86 162.46 398.81 577.09 742.50 396.05 887.73 370.32 891.85 459.38 792.46 589.45 923.54 566.31
00015241 00000057 548.40 164.93 399.31 576.98 743.18 397.93 886.83 371.50 892.92 461.86 791.11 591.09 920.81 567.59
00015242 00000058 547.67 165.66 399.96 580.75 743.26 397.92 886.32 373.05 892.31 463.49 789.71 592.74 919.02 570.57
00015243 00000059 547.23 163.86 400.13 585.16 742.39 399.34 885.61 372.90 892.13 464.70 789.22 594.83 919.18 571.39
00015244 00000060 547.37 162.56 399.52 586.66 742.00 400.14 885.43 373.56 891.28 465.50 788.78 595.15 918.87 571.47
00015245 00000061 546.60 161.68 399.50 588.68 740.67 399.87 884.63 374.62 889.06 465.53 786.93 595.12 917.57 572.47
00015246 00000062 544.98 162.53 400.19 589.43 738.30 400.85 883.68 374.81 887.43 466.49 783.60 595.55 916.71 572.19
00015247 00000063 547.39 164.68 401.19 600.04 745.15 397.76 884.01 372.76 893.48 476.35 789.25 604.93 910.74 583.78
00015248 00000064 547.33 164.90 400.65 598.92 743.98 396.65 882.83 372.08 890.24 475.63 789.33 604.49 910.15 583.63
00015249 00000065 542.89 160.47 398.61 586.04 735.44 397.17 881.14 372.29 882.10 465.69 784.24 593.75 913.38 571.24
00015250 00000066 546.38 159.05 394.51 568.91 736.58 393.02 883.33 365.92 884.11 459.10 791.81 586.56 917.20 561.99
00015251 00000067 548.04 157.19 393.85 564.55 740.04 391.68 884.12 364.57 887.77 454.77 797.32 583.37 919.46 558.88
00015252 00000068 546.78 158.25 397.07 560.73 740.03 390.50 885.64 363.46 888.87 452.02 797.18 581.20 920.42 556.60
00015253 00000069 545.89 157.16 395.70 563.27 737.18 389.33 882.70 361.97 886.01 452.51 796.29 581.86 919.34 556.99
00015254 00000070 542.89 153.57 396.78 572.47 735.53 390.07 880.20 362.56 884.23 453.57 795.59 584.06 918.06 558.77
00015255 00000071 540.91 153.17 397.17 576.07 733.22 390.44 878.80 362.08 882.73 454.63 796.96 587.12 918.66 560.90
00015256 00000072 539.60 151.27 399.86 579.49 733.38 396.27 878.11 365.57 883.80 454.86 798.20 588.42 921.46 559.87
00015257 00000073 539.03 156.82 400.99 571.72 734.20 395.58 881.11 365.27 886.93 453.79 801.78 588.27 925.45 559.99
00015258 00000074 538.09 156.27 401.01 574.72 733.05 393.80 877.25 362.05 886.17 453.03 804.65 589.89 925.77 560.49
00015259 DELETE   537.63 155.14 401.90 578.25 731.07 392.02 872.29 358.07 884.26 452.76 806.94 592.17 925.68 561.50
00015260 00000076 535.75 156.59 402.11 577.49 727.90 389.11 865.40 353.70 882.11 452.12 809.44 593.33 923.70 561.85
00015261 00000077 532.76 155.38 404.51 584.58 724.89 389.35 860.32 352.05 876.83 451.22 805.71 594.93 920.12 562.13
00015262 00000078 529.88 158.50 407.23 583.81 719.92 389.40 855.11 350.71 872.23 451.56 803.86 595.39 917.88 561.41
00015263 00000079 528.32 155.89 405.85 588.57 716.18 389.54 848.79 348.84 865.68 450.60 800.17 595.41 912.17 559.98
00015264 00000080 525.26 156.57 405.51 586.69 713.75 390.28 843.68 347.92 862.47 450.16 798.46 593.01 909.59 556.31
00015265 00000081 524.32 158.95 405.71 578.44 712.94 387.88 844.08 346.59 862.79 448.74 799.21 589.38 909.64 553.35
00015266 00000082 524.63 158.08 407.68 576.79 713.34 387.23 845.80 345.38 863.91 447.07 799.74 588.68 910.34 552.19
00015267 00000083 526.88 158.96 408.51 574.84 715.04 387.24 849.02 345.81 867.09 446.01 802.25 588.76 914.79 552.56
00015268 00000084 529.67 156.19 408.72 575.30 718.84 387.78 855.99 346.71 871.88 444.29 803.51 588.00 919.68 551.56
00015269 00000085 531.97 156.01 408.78 576.33 721.19 387.01 859.99 346.40 874.72 443.60 802.80 587.53 921.45 551.26
00015270 00000086 533.96 153.75 407.70 579.59 724.44 384.64 863.18 344.88 879.21 441.71 804.79 587.47 923.53 551.82
00015271 00000087 536.11 155.68 405.89 576.29 726.69 381.22 866.05 344.35 881.95 440.20 805.53 585.44 924.39 552.26
00015272 00000088 535.68 157.16 405.93 574.87 728.57 378.95 867.91 344.36 885.19 439.02 806.10 583.88 925.04 552.62
00015273 00000089 536.93 160.06 404.46 571.78 730.73 375.69 868.55 342.68 887.04 437.98 806.51 581.76 924.79 552.10
00015274 00000090 538.01 158.84 403.13 572.36 731.71 373.50 868.59 341.77 888.62 436.55 807.46 580.67 925.02 552.19
00015275 00000091 537.71 158.87 403.40 574.03 731.88 371.92 867.09 340.74 889.19 434.43 807.50 579.36 924.80 551.36
00015276 00000092 535.74 157.19 404.67 573.59 730.68 370.24 865.31 339.20 889.09 431.58 808.12 577.34 923.58 549.50
00015277 00000093 534.05 157.28 405.78 570.16 729.51 366.17 863.91 334.73 888.63 429.73 809.65 575.50 922.50 547.15
00015278 00000094 528.70 150.88 406.69 573.30 726.21 361.68 862.28 332.73 883.53 426.51 807.95 572.24 919.84 545.75
00015279 00000095 526.71 152.66 407.46 571.41 723.14 357.29 857.86 331.96 879.43 424.29 804.41 568.98 916.18 545.59
00015280 00000096 523.52 152.40 406.83 572.49 719.17 351.60 848.87 329.93 869.91 420.75 796.78 564.02 907.26 543.70
00015281 00000097 519.48 148.39 407.78 574.55 714.94 350.29 840.67 328.29 866.12 416.54 794.49 561.45 901.82 541.03
00015282 DELETE   516.66 142.89 407.26 567.74 712.74 351.30 838.70 326.80 864.39 411.97 796.03 555.53 901.11 533.47
00015283 00000099 513.22 136.42 409.42 560.98 710.92 357.52 833.31 327.02 862.97 408.13 798.10 548.04 901.22 521.15
00015284 00000100 514.23 135.67 408.69 551.44 710.26 358.49 835.75 325.30 862.65 405.47 799.19 543.03 903.90 513.93
00015285 00000101 514.36 136.34 409.06 543.93 711.48 357.35 837.93 324.06 863.07 406.65 800.15 541.84 903.43 512.61
00015286 00000102 516.22 136.26 408.34 545.02 712.71 356.48 838.16 324.11 863.78 408.05 800.32 543.47 902.82 515.18
00015287 DELETE   517.38 138.99 407.17 550.55 715.49 352.67 837.98 324.14 865.23 409.35 802.57 546.36 901.94 521.39
00015288 00000104 520.26 136.35 405.09 565.16 717.24 348.35 839.23 323.51 865.51 408.52 801.83 551.95 901.49 529.90
00015289 00000105 521.24 136.61 403.56 569.03 720.10 344.66 840.80 322.39 869.39 408.41 804.53 552.52 904.08 532.47
00015290 00000106 523.96 134.79 403.69 576.47 722.36 344.99 842.98 321.85 871.68 409.01 805.91 555.22 907.08 534.58
00015291 00000107 526.32 133.13 402.28 579.11 725.60 346.96 844.02 321.60 873.57 410.24 808.92 556.22 909.56 533.87
00015292 00000108 528.54 135.39 403.64 577.45 726.58 351.35 849.44 322.78 878.60 413.26 812.21 558.72 916.72 533.41
00015293 00000109 532.14 143.55 402.35 560.71 732.75 356.45 856.43 325.00 884.75 419.98 815.52 560.88 917.51 532.93
00015294 00000110 533.79 150.18 403.52 546.96 736.76 363.13 861.16 327.01 892.07 424.80 823.56 564.00 922.51 532.03
00015295 00000111 538.59 154.43 405.58 539.25 743.33 366.64 866.30 328.93 900.56 426.19 830.51 565.83 928.27 533.05
00015296 00000112 541.52 151.66 405.42 541.70 746.48 366.90 869.52 329.04 904.17 425.09 833.56 566.59 930.87 533.91
00015297 00000113 542.09 151.66 407.08 543.71 747.80 365.98 872.82 329.07 905.47 424.06 832.00 565.04 931.77 532.98
00015298 00000114 543.33 151.55 404.51 546.28 748.73 361.59 873.40 329.02 905.54 422.21 831.40 563.34 929.99 534.98
00015299 00000115 543.07 152.32 404.85 550.52 749.14 358.66 873.39 327.66 904.05 422.58 828.11 563.21 927.33 536.14
00015300 00000116 542.72 149.39 406.12 554.67 749.04 358.22 874.25 326.71 903.95 422.35 827.63 563.79 927.60 536.25
00015301 00000117 543.10 151.39 404.22 551.57 747.47 361.28 874.10 331.14 903.82 420.93 827.36 562.66 929.24 536.02
00015302 00000118 542.10 150.84 401.93 551.02 742.76 364.50 873.19 332.73 901.36 420.89 826.36 563.68 931.42 535.42
00015303 00000119 538.70 148.38 401.70 552.88 737.44 366.67 871.59 333.10 896.19 423.43 822.47 565.64 928.90 535.39
00015304 DELETE   534.27 147.94 403.31 555.46 731.30 367.04 870.38 336.33 888.84 425.44 815.00 566.59 924.92 538.44
00015305 00000121 530.17 150.00 405.95 562.56 725.52 365.68 867.66 339.34 881.10 427.25 804.50 568.16 919.05 543.63
00015306 DELETE   528.81 150.69 404.73 569.23 719.87 364.25 862.57 338.31 873.30 426.94 797.84 570.09 914.79 546.31
00015307 00000123 526.10 151.70 403.98 571.89 715.88 362.39 855.54 336.56 866.37 426.51 792.62 568.19 908.34 544.54
00015308 00000124 523.61 148.36 403.61 573.82 713.35 363.22 850.52 336.54 863.19 425.54 790.39 566.18 904.77 542.03
00015309 DELETE   522.52 150.26 402.35 567.56 711.83 364.43 849.05 338.68 861.59 426.19 788.46 563.93 902.15 540.81
00015310 00000126 521.87 150.71 403.36 555.59 711.76 366.07 848.41 339.83 859.58 427.06 785.80 558.59 898.40 535.29
00015311 00000127 522.29 151.24 402.96 551.86 712.76 367.17 850.11 341.30 860.53 428.39 786.77 558.54 898.56 535.45
00015312 DELETE   522.97 152.22 402.36 551.92 713.96 369.97 852.37 342.80 863.29 431.78 786.16 560.37 899.38 536.22
00015313 00000129 523.81 154.96 404.07 552.40 715.11 373.22 855.27 346.54 866.04 434.34 787.71 563.21 902.24 539.20
00015314 00000130 527.36 156.17 405.42 552.28 718.11 377.29 859.63 348.63 868.75 434.95 789.46 564.60 907.55 538.65
00015315 00000131 530.79 156.32 406.52 552.88 721.39 380.30 864.31 350.00 872.79 436.00 793.09 566.27 912.35 538.54
00015316 00000132 533.49 155.69 406.34 555.45 724.66 381.83 867.37 351.30 876.96 437.98 798.12 570.50 917.01 542.23
00015317 00000133 535.20 155.80 405.65 557.32 726.07 384.08 868.99 353.27 878.90 439.54 799.44 573.64 919.00 545.04
00015318 00000134 536.41 158.14 403.10 552.59 726.71 384.23 870.10 354.18 878.77 440.96 798.67 572.88 917.58 544.99
00015319 00000135 536.47 157.36 403.63 555.74 726.93 384.63 870.14 354.27 878.76 441.32 797.96 573.78 917.98 545.73
00015320 00000136 537.10 157.26 402.43 562.59 726.78 383.97 870.44 354.13 878.61 442.57 796.97 577.23 918.75 549.76
00015321 00000137 537.92 157.22 400.42 565.98 726.27 383.26 870.48 353.81 878.05 443.75 795.66 578.54 918.27 551.40
00015322 00000138 539.09 154.58 399.04 565.06 727.29 385.48 870.87 353.83 879.67 442.75 797.21 576.55 919.75 547.48
00015323 00000139 540.10 152.78 400.00 562.55 729.23 385.36 874.64 352.59 884.27 440.70 802.50 576.15 924.42 546.06
00015324 00000140 540.33 153.12 399.95 563.53 730.05 383.72 875.94 351.74 885.71 439.99 803.84 576.54 925.59 547.12
00015325 00000141 542.64 154.13 398.34 564.41 732.03 382.89 876.96 352.78 886.09 440.69 803.42 577.63 924.57 550.00
00015326 00000142 544.69 157.05 398.09 562.45 733.60 380.58 877.61 351.99 886.34 440.57 803.33 578.44 924.09 552.50
00015327 00000143 545.07 157.21 401.45 561.09 733.02 379.44 879.67 348.42 887.38 438.80 803.90 577.32 926.98 549.17
00015328 00000144 546.39 156.04 402.74 563.22 733.19 376.66 881.76 344.50 888.36 437.87 804.44 578.60 928.29 549.69
00015329 DELETE   547.33 156.31 402.21 562.97 733.60 377.45 882.70 345.42 888.66 439.17 803.39 578.40 928.29 549.59
00015330 00000146 547.80 154.57 402.47 565.31 734.65 380.61 882.52 347.61 889.06 440.17 802.15 578.62 927.77 548.98
00015331 00000147 549.89 154.51 400.96 564.43 736.98 383.48 883.94 350.59 890.27 440.33 800.78 577.57 927.49 548.23
00015332 00000148 549.29 156.19 401.87 559.73 738.36 383.45 885.25 351.87 892.04 440.09 801.36 575.71 927.14 547.31
00015333 00000149 550.89 155.01 402.00 555.94 741.19 381.41 886.17 348.85 894.28 438.06 805.23 573.40 928.09 544.31
00015334 00000150 550.02 154.60 402.27 557.87 740.52 379.71 885.29 347.37 893.52 437.21 805.51 573.64 927.72 544.78
00015335 00000151 550.14 151.16 398.13 566.99 740.57 379.13 882.88 348.18 891.50 438.10 804.38 576.47 925.34 549.04
00015336 00000152 547.64 153.61 398.94 567.73 738.69 379.46 881.05 350.27 889.26 440.10 802.40 578.28 923.53 552.17
00015337 00000153 545.93 155.43 400.13 565.82 737.25 380.48 881.60 351.57 888.75 442.22 800.73 578.10 922.73 551.94
00015338 00000154 545.07 156.56 399.83 565.42 736.41 382.30 880.70 352.43 888.15 443.80 799.83 578.78 922.33 551.74
00015339 00000155 542.91 157.52 401.49 567.74 735.93 386.56 879.84 354.53 888.57 447.47 795.90 580.23 920.30 551.47
00015340 00000156 543.47 154.81 400.74 573.85 738.21 388.96 879.63 358.58 889.74 449.62 795.14 582.53 919.32 555.40
00015341 00000157 544.71 155.53 400.51 574.24 737.77 393.06 880.20 364.39 887.14 452.12 792.78 584.07 918.36 558.21
00015342 00000158 544.78 155.97 401.11 578.47 736.95 399.64 880.70 365.45 888.64 456.08 789.23 587.48 918.71 557.42
00015343 00000159 542.61 162.83 404.08 579.08 736.28 405.87 878.41 368.90 888.44 461.76 783.78 591.22 915.51 559.32
00015344 00000160 541.51 164.12 405.69 584.19 735.78 411.22 877.97 371.23 889.50 465.74 780.67 595.76 913.90 561.85
00015345 00000161 542.22 165.66 405.69 587.59 736.73 415.40 878.78 373.26 892.43 468.67 781.50 600.31 915.08 564.96
00015346 00000162 546.83 168.87 407.72 590.87 747.25 410.66 883.46 374.30 898.06 480.30 788.28 605.15 914.40 574.58
00015347 00000163 549.34 170.16 407.33 592.51 748.35 411.40 884.16 375.95 898.41 482.47 788.39 607.08 914.05 577.37
00015348 00000164 551.12 171.44 406.18 591.51 749.85 411.74 885.67 376.08 900.12 482.72 790.48 608.47 915.45 578.68
00015349 00000165 551.60 170.97 407.12 590.40 750.92 410.39 887.67 374.15 902.53 482.30 792.24 608.94 917.05 578.55
00015350 00000166 552.56 171.62 406.77 589.43 751.37 409.77 888.41 374.62 903.03 482.26 792.96 608.69 917.86 579.08
00015351 00000167 552.65 172.43 407.38 587.93 751.23 409.50 889.39 374.35 902.98 482.20 793.27 608.44 918.85 578.69
00015352 00000168 554.01 173.19 406.16 587.62 752.00 409.40 890.05 375.35 903.82 482.59 793.77 608.97 918.66 580.24
00015353 00000169 554.40 172.85 407.09 589.96 751.99 409.54 890.34 375.28 904.04 482.41 793.99 609.50 919.80 580.48
00015354 00000170 554.51 172.26 406.61 590.65 752.31 409.82 890.73 375.72 904.38 482.92 793.98 609.84 920.16 581.08
