Video ID: 	XHAs-ale88Y
H: 	1080
W: 	1920
FPS: 	25.0

FRAME INDEX X0 Y0 W H [Landmarks (5 Points)]

00004871 00000000 492.70 171.04 358.45 522.91 571.69 369.20 719.50 363.34 644.04 467.15 606.23 561.76 720.72 557.84
00004872 DELETE   484.69 168.12 361.19 523.87 558.78 373.17 717.08 355.36 636.33 465.94 600.32 568.98 726.39 554.05
00004873 00000002 478.19 160.86 359.77 527.93 547.40 369.38 704.13 352.30 622.50 459.29 588.76 565.53 714.56 551.33
00004874 00000003 472.38 157.69 360.78 532.63 541.44 366.66 695.41 352.56 614.09 458.92 576.78 560.98 704.37 550.02
00004875 00000004 466.87 159.77 359.46 534.90 534.26 369.18 686.56 352.85 603.96 453.70 566.35 559.74 697.11 547.77
00004876 00000005 456.53 158.99 361.97 537.31 526.69 366.75 681.16 349.87 597.06 450.73 559.92 559.48 686.76 547.81
00004877 00000006 447.14 164.77 365.46 531.07 519.42 364.92 671.64 346.30 589.20 447.72 555.59 558.57 679.71 545.55
00004878 00000007 442.37 158.70 360.85 538.11 515.28 360.58 663.62 343.70 584.63 444.21 551.97 555.78 673.97 544.87
00004879 00000008 433.67 159.48 362.48 532.27 509.00 357.08 658.17 341.68 580.50 442.85 548.59 554.97 666.36 544.82
00004880 00000009 415.79 144.19 374.36 532.99 497.37 357.55 652.65 345.29 569.01 446.22 543.43 551.79 662.79 542.14
00004881 00000010 410.45 141.57 372.56 531.09 492.71 354.50 646.33 345.17 564.79 445.05 539.24 547.35 657.88 539.72
00004882 00000011 407.10 141.34 373.82 533.88 490.66 353.31 640.08 344.54 560.32 443.07 534.76 546.59 651.02 539.51
00004883 00000012 406.36 141.54 375.46 535.18 490.33 352.42 639.66 343.86 558.57 442.07 533.39 547.06 649.36 540.35
00004884 00000013 408.29 141.20 373.74 534.72 491.80 352.55 639.75 343.74 559.86 442.46 535.53 547.04 649.44 540.28
00004885 00000014 411.80 141.56 374.95 534.77 494.51 354.94 643.52 344.79 562.86 445.08 540.42 549.25 654.54 541.28
00004886 00000015 418.98 142.40 374.48 535.38 498.58 357.70 648.13 344.57 565.66 447.70 544.70 551.61 659.02 541.50
00004887 00000016 426.01 143.31 370.93 535.04 503.76 360.23 652.47 345.04 570.54 448.86 549.07 553.80 662.99 542.23
00004888 00000017 430.22 144.63 370.47 534.35 507.24 362.66 657.57 347.16 573.63 449.79 551.60 555.18 665.93 543.66
00004889 00000018 440.10 157.07 370.08 535.74 511.27 363.73 661.19 342.92 576.88 446.18 552.74 560.78 670.09 546.05
00004890 00000019 440.70 160.31 371.46 539.13 511.61 368.89 658.62 345.97 576.12 449.01 554.86 563.51 672.90 546.72
00004891 00000020 441.27 164.98 373.98 541.33 512.09 372.71 658.11 348.31 575.25 452.03 556.17 566.81 676.29 548.28
00004892 00000021 441.98 164.24 376.84 541.31 513.78 373.30 661.41 348.79 577.25 452.39 556.65 568.11 676.70 549.66
00004893 00000022 441.49 163.24 379.05 540.75 513.27 373.75 664.94 349.16 579.36 454.11 556.07 568.40 679.11 549.81
00004894 00000023 443.71 153.93 376.99 546.09 513.59 373.70 669.83 348.11 581.36 453.39 554.55 566.59 682.83 547.37
00004895 00000024 446.48 150.02 375.12 545.31 513.17 371.67 673.53 345.12 584.38 454.06 554.02 567.34 686.66 547.31
00004896 00000025 447.02 144.58 375.75 548.79 514.67 368.27 675.61 342.12 586.62 452.44 556.77 565.50 688.66 545.41
00004897 00000026 444.99 144.15 378.10 551.44 515.38 368.16 675.83 342.22 589.27 451.30 558.03 564.24 689.81 544.28
00004898 00000027 444.82 145.39 378.59 552.40 516.17 369.27 676.86 342.58 591.82 452.51 559.43 564.83 693.15 544.17
00004899 00000028 444.20 149.14 379.22 553.22 516.79 371.52 674.11 345.44 591.27 454.28 560.61 565.40 692.30 545.49
00004900 00000029 444.09 152.19 378.49 549.38 517.54 372.12 673.56 346.99 592.87 457.19 561.62 564.85 693.09 545.51
00004901 00000030 443.48 152.85 380.50 547.82 517.82 373.92 674.31 348.63 593.40 458.57 562.16 565.01 694.11 545.46
00004902 00000031 445.33 151.95 379.78 546.86 519.29 375.55 674.80 349.51 594.37 458.81 562.99 564.63 695.75 544.42
00004903 00000032 445.85 151.26 379.35 546.05 521.06 374.58 678.54 349.78 597.95 459.84 564.30 564.49 696.57 545.34
00004904 00000033 445.22 151.99 380.55 546.34 521.27 375.29 678.06 350.68 598.63 461.87 565.29 565.06 696.95 545.90
00004905 00000034 444.85 153.22 379.23 545.62 521.71 374.14 679.01 350.97 600.01 463.54 565.75 565.47 697.22 547.29
00004906 00000035 443.29 156.52 379.14 544.52 522.00 376.13 678.29 352.59 601.23 465.97 567.90 566.43 699.65 547.68
00004907 00000036 441.92 155.54 379.29 546.61 521.96 377.12 675.26 353.51 600.40 466.52 568.01 565.50 698.47 546.89
00004908 00000037 439.39 156.92 379.94 542.74 519.98 375.82 673.90 352.84 599.90 467.10 567.87 565.13 695.42 547.16
00004909 00000038 436.75 154.48 381.61 545.62 517.65 375.98 672.42 352.13 597.95 467.09 566.28 565.88 694.78 547.13
00004910 00000039 435.50 156.97 382.05 544.24 516.68 375.79 672.23 351.55 597.95 467.23 565.50 566.52 694.31 547.43
00004911 00000040 434.57 156.02 383.53 546.61 516.93 373.64 671.70 350.84 597.53 466.10 565.77 565.13 693.38 547.04
00004912 00000041 433.18 150.81 387.79 551.98 515.67 371.83 672.36 349.47 596.62 464.62 565.71 564.42 693.73 546.34
00004913 00000042 437.25 151.78 385.12 548.43 518.62 368.24 672.62 345.46 597.83 460.31 567.75 561.42 692.80 543.57
00004914 00000043 440.13 147.09 384.24 551.57 520.17 368.06 678.22 343.33 600.72 458.17 569.28 562.12 696.64 542.91
00004915 00000044 441.52 146.77 385.22 550.58 520.75 368.06 678.99 343.12 600.88 458.21 570.24 562.41 697.28 542.87
00004916 00000045 443.01 146.57 383.35 550.57 521.41 366.98 679.18 343.09 600.69 459.54 570.76 562.60 697.27 543.73
00004917 00000046 443.69 147.68 382.06 550.52 522.46 368.85 678.17 344.78 601.43 459.92 571.41 563.15 697.77 544.23
00004918 00000047 443.71 148.17 384.36 551.03 522.41 368.76 678.58 345.88 600.66 461.84 571.37 564.66 697.17 546.52
00004919 00000048 446.55 150.05 382.37 550.04 525.32 370.27 681.01 348.08 603.31 462.70 572.86 564.85 699.51 547.32
00004920 00000049 450.85 150.29 380.40 550.55 528.09 370.28 682.14 348.03 604.68 463.18 575.01 565.02 702.36 547.16
00004921 00000050 454.21 149.80 380.49 551.31 531.58 372.18 686.54 348.44 609.18 464.86 579.94 567.66 708.87 547.95
00004922 00000051 457.35 148.91 379.83 553.07 534.20 372.02 687.44 349.25 610.29 466.31 583.29 568.34 710.64 549.23
00004923 00000052 462.90 148.33 377.38 552.36 536.81 372.84 691.41 349.65 611.46 467.37 586.39 568.71 715.12 549.02
00004924 00000053 464.47 148.80 379.24 551.68 538.24 375.06 692.91 349.67 612.86 468.14 590.94 570.72 719.49 548.83
00004925 00000054 464.32 149.56 381.50 548.46 539.65 373.86 696.62 348.42 617.03 465.62 592.78 570.00 721.23 548.20
00004926 00000055 464.57 146.44 381.07 548.19 540.83 370.81 699.98 346.31 621.00 463.91 595.10 568.04 722.90 546.85
00004927 00000056 465.11 144.00 381.01 546.23 541.98 370.45 702.47 344.48 624.89 462.95 598.11 568.46 725.01 545.77
00004928 00000057 465.15 146.85 383.68 544.76 542.52 371.59 701.87 344.10 625.46 464.26 599.94 567.95 727.83 543.83
00004929 00000058 466.86 144.71 382.65 546.53 544.06 372.15 705.07 344.38 629.06 465.63 601.26 568.59 730.26 544.06
00004930 00000059 465.14 135.56 382.59 562.94 549.90 363.29 706.12 349.63 626.81 460.46 601.77 557.93 727.20 546.70
00004931 00000060 465.44 133.93 386.44 566.30 554.04 362.66 711.17 350.65 631.41 460.26 604.58 556.97 730.87 546.83
00004932 00000061 467.67 137.16 387.11 563.23 557.34 363.79 715.94 350.73 636.91 461.82 608.53 558.11 736.20 547.00
00004933 00000062 469.27 141.99 390.87 561.01 559.23 366.50 721.15 350.58 640.97 464.99 611.36 560.92 742.69 547.61
00004934 00000063 477.78 148.58 388.08 562.04 563.00 369.23 721.83 352.11 647.52 468.00 616.80 567.25 745.20 553.03
00004935 00000064 480.92 151.78 388.17 560.31 565.31 374.61 724.09 354.82 650.22 471.69 622.23 569.31 752.14 552.97
00004936 00000065 484.47 153.68 388.51 559.95 568.61 376.78 726.76 357.61 652.40 472.54 624.66 570.04 754.48 554.17
00004937 00000066 486.51 154.62 386.51 558.03 570.63 375.72 727.97 357.05 654.67 472.59 626.23 568.90 755.49 553.37
00004938 00000067 491.28 152.72 382.60 558.33 573.90 375.43 730.54 354.75 657.99 470.03 628.28 567.27 758.77 550.42
00004939 00000068 497.14 153.40 382.76 556.12 577.81 372.92 736.80 350.67 660.60 465.66 630.91 567.15 761.83 548.99
00004940 00000069 502.59 153.50 382.05 555.59 585.55 374.06 742.42 350.63 668.55 466.88 636.08 567.57 766.26 548.39
00004941 00000070 507.11 151.12 382.11 557.25 589.63 371.92 745.11 350.02 671.18 466.19 637.29 565.73 767.11 547.97
00004942 00000071 512.64 147.95 378.60 559.20 594.57 369.54 751.34 347.15 675.97 462.51 641.23 565.39 769.90 547.25
00004943 00000072 516.33 147.87 377.61 552.30 601.66 365.70 758.02 340.22 685.94 456.78 649.85 562.04 774.21 541.36
00004944 00000073 512.97 141.38 373.13 541.07 608.51 373.01 766.21 345.90 700.50 464.09 661.56 559.94 787.64 537.60
00004945 00000074 506.10 137.01 379.20 544.76 604.60 374.98 765.17 337.43 705.14 462.26 666.29 562.51 794.28 531.22
00004946 00000075 488.88 130.87 391.54 556.82 589.88 379.62 750.34 341.36 688.54 464.15 655.73 564.91 782.36 532.83
00004947 00000076 476.49 135.80 397.92 557.90 579.85 379.15 739.25 345.59 675.01 463.83 643.02 563.64 770.26 535.41
00004948 00000077 473.33 135.82 400.11 562.39 577.13 377.63 736.76 347.85 670.82 466.83 637.51 562.37 766.31 537.39
00004949 00000078 482.69 146.45 398.61 559.93 585.25 373.86 744.63 341.99 683.00 458.56 640.56 561.01 775.85 535.28
00004950 00000079 490.67 147.80 389.72 557.15 596.40 370.93 755.01 336.33 697.50 455.78 650.96 561.57 783.96 533.34
00004951 00000080 489.03 151.57 388.02 547.34 604.12 363.06 763.55 331.63 709.58 450.62 658.66 558.87 784.81 532.97
00004952 00000081 491.10 142.18 387.00 552.53 607.14 363.20 766.17 328.99 714.15 448.81 663.65 560.51 785.75 531.87
00004953 00000082 475.69 128.16 391.68 557.50 602.31 367.51 760.85 331.56 711.90 457.59 657.46 556.82 780.57 527.69
00004954 00000083 473.34 122.79 392.45 559.53 598.58 369.27 756.75 331.45 708.13 453.63 656.88 556.08 781.49 525.03
00004955 00000084 467.58 126.36 393.13 553.11 591.45 368.58 750.64 332.53 700.12 456.50 651.51 553.29 777.11 523.80
00004956 00000085 454.64 133.31 397.55 550.53 573.02 374.26 735.59 334.04 684.72 462.07 642.57 556.18 769.65 523.05
00004957 00000086 455.61 133.05 389.38 552.18 560.51 388.82 720.44 335.40 679.06 460.66 632.46 572.23 759.53 525.97
00004958 00000087 454.39 135.58 393.61 552.59 562.88 386.86 722.42 330.98 683.07 458.04 636.82 573.27 762.43 524.69
00004959 00000088 453.72 129.64 397.97 563.79 576.33 372.87 738.67 334.27 688.36 461.82 644.96 558.96 772.27 527.39
00004960 00000089 460.73 126.81 395.11 565.06 586.77 374.21 745.88 336.05 698.37 458.07 650.09 559.20 776.85 528.08
00004961 00000090 465.04 128.27 393.20 563.34 592.90 374.25 750.95 336.76 704.12 458.67 653.64 560.25 779.63 529.52
00004962 00000091 467.04 122.74 392.94 568.61 594.97 373.29 753.56 335.56 706.72 460.07 654.92 559.78 781.30 528.81
00004963 00000092 467.27 126.18 391.91 564.80 596.37 375.02 754.64 336.87 709.03 461.89 655.85 559.84 782.48 528.43
00004964 00000093 466.93 126.97 392.34 561.97 598.61 377.33 756.72 339.96 711.06 463.31 656.78 560.33 782.29 529.64
00004965 00000094 466.16 130.14 391.67 559.18 600.13 379.45 758.22 341.15 713.71 465.56 657.90 561.30 782.59 529.98
00004966 00000095 470.32 126.76 387.23 565.10 600.01 383.35 758.28 345.01 712.41 467.11 656.99 563.76 783.33 532.34
00004967 00000096 468.47 124.98 388.34 568.26 596.87 379.38 754.69 344.73 707.38 465.37 655.20 562.11 780.25 533.73
00004968 00000097 466.04 130.13 389.43 560.12 591.54 376.95 751.55 343.35 701.68 462.05 651.27 561.11 777.27 533.80
00004969 00000098 465.57 135.52 388.53 556.92 589.07 372.73 749.67 338.77 698.39 459.07 648.21 559.99 774.25 532.39
00004970 00000099 464.39 130.31 392.25 560.44 587.79 368.71 747.91 334.37 696.05 455.33 647.88 557.81 773.93 529.89
00004971 00000100 465.96 126.62 392.08 563.15 589.87 368.08 747.55 332.25 699.13 453.22 650.67 556.71 776.14 527.52
00004972 00000101 469.64 126.69 390.62 562.91 595.33 371.92 752.94 334.01 707.08 454.18 655.83 559.08 781.20 527.88
00004973 00000102 480.70 143.23 391.16 555.47 605.25 368.17 759.15 331.19 715.75 449.74 666.90 563.21 787.09 532.07
00004974 00000103 483.86 140.13 389.53 562.88 607.45 371.78 758.57 334.86 717.01 451.93 669.64 566.29 787.54 535.35
00004975 00000104 485.93 144.71 388.89 559.50 611.16 371.82 761.62 335.91 719.89 452.01 672.08 565.72 790.46 535.63
00004976 00000105 487.96 145.70 387.90 554.62 611.60 371.54 761.38 334.59 720.42 450.35 673.73 565.43 789.51 534.66
00004977 00000106 488.75 146.24 388.40 547.98 610.59 372.90 760.26 331.84 720.12 450.21 672.92 564.77 789.94 530.57
00004978 00000107 489.00 145.73 389.69 547.37 607.16 375.61 759.84 330.78 718.47 449.93 670.85 566.41 792.60 528.67
00004979 00000108 487.60 145.44 391.41 548.01 609.13 376.56 760.98 332.25 720.68 451.92 672.14 565.93 792.32 528.56
00004980 00000109 487.66 145.08 391.97 555.62 608.49 379.56 760.20 334.64 719.48 455.93 671.55 568.49 794.24 530.42
00004981 00000110 489.45 153.71 389.81 550.77 610.74 379.69 761.50 337.40 721.44 458.46 673.95 573.03 792.09 537.59
00004982 00000111 495.14 154.37 383.07 547.87 617.51 381.76 766.85 342.56 727.72 463.21 676.59 572.99 791.87 540.36
00004983 00000112 497.32 153.13 382.62 549.25 618.46 384.25 769.17 342.75 731.05 464.46 679.41 576.05 795.65 541.38
00004984 00000113 493.07 157.23 387.43 545.37 618.91 386.54 769.89 344.23 733.23 463.87 680.59 575.89 796.76 540.58
00004985 00000114 491.47 159.44 389.73 544.04 622.37 386.12 772.83 343.53 737.13 461.48 682.83 574.42 798.46 538.86
00004986 00000115 497.18 148.39 389.04 552.60 627.68 387.33 779.02 340.97 747.20 458.68 689.45 575.38 807.51 536.42
00004987 00000116 503.56 135.96 383.30 558.67 630.44 389.85 781.22 340.12 751.10 457.69 693.93 574.73 812.77 532.77
00004988 00000117 500.95 133.61 385.58 558.35 630.05 393.75 782.11 339.91 753.77 458.36 695.40 576.08 815.91 530.67
00004989 00000118 494.16 142.28 386.67 551.76 620.61 391.94 772.17 339.11 743.36 461.62 689.60 577.95 806.29 533.56
00004990 00000119 479.16 149.70 388.90 551.58 606.45 392.86 762.46 348.74 724.18 475.04 669.27 580.53 789.03 544.55
00004991 00000120 474.59 155.35 377.87 541.71 596.98 395.37 757.61 358.07 709.03 483.92 651.54 571.20 785.10 541.08
00004992 00000121 485.65 155.99 380.01 546.47 605.77 391.31 759.62 353.79 715.91 475.86 661.95 577.62 783.07 547.60
00004993 00000122 490.78 161.97 380.19 536.68 609.33 394.98 765.09 354.19 720.76 482.06 667.99 580.58 789.96 547.04
00004994 00000123 488.68 162.86 380.75 536.39 606.31 397.84 763.79 359.93 716.15 489.16 662.78 584.80 784.85 554.22
00004995 00000124 489.51 170.64 376.82 528.58 605.94 401.44 763.64 366.14 714.30 494.19 658.93 586.02 782.14 557.97
00004996 00000125 492.32 173.43 377.92 523.93 612.13 400.35 767.89 361.76 723.05 489.21 671.13 586.67 788.41 555.48
00004997 00000126 492.17 169.10 381.47 526.68 616.11 399.34 773.00 357.97 731.95 485.14 674.71 583.49 794.93 549.65
00004998 00000127 493.16 165.90 380.35 529.08 614.66 397.84 771.26 356.96 728.69 485.02 671.54 581.16 793.63 547.92
00004999 00000128 496.51 163.86 375.74 531.65 612.79 394.18 769.09 355.35 724.04 482.33 670.73 581.57 790.42 549.83
00005000 00000129 496.20 163.78 378.56 533.56 615.17 393.34 771.24 353.49 728.44 480.37 674.20 580.60 794.64 547.56
00005001 00000130 501.41 163.63 377.62 539.77 622.47 396.89 774.80 355.30 735.54 480.43 679.06 581.99 797.74 547.63
00005002 00000131 502.87 162.68 377.41 541.24 623.85 400.94 775.35 358.83 737.45 481.13 683.62 583.52 802.43 548.38
00005003 00000132 502.89 167.88 380.26 535.52 626.52 401.21 780.46 356.50 742.29 480.11 686.89 584.40 807.19 547.08
00005004 00000133 507.18 164.18 377.56 537.79 629.33 399.94 783.60 355.27 745.60 479.74 688.15 583.42 809.17 546.10
00005005 00000134 507.96 155.21 376.89 544.22 629.21 398.31 785.32 353.78 747.34 475.22 686.51 581.28 811.88 543.93
00005006 00000135 509.90 157.20 376.89 537.90 633.32 394.53 788.33 348.05 752.85 469.26 690.87 577.47 814.30 538.58
00005007 00000136 506.10 153.73 379.39 540.59 633.67 389.77 790.31 343.44 755.13 466.07 691.81 576.38 813.75 537.40
00005008 00000137 507.25 151.72 377.08 541.01 633.22 387.16 789.15 342.93 753.54 465.11 690.66 575.83 810.83 538.76
00005009 00000138 502.50 155.63 378.72 539.42 632.76 384.23 785.02 342.93 750.52 463.79 689.42 573.62 805.39 539.10
00005010 00000139 502.47 149.88 377.14 542.87 630.09 381.10 783.67 341.31 748.11 462.84 686.54 574.05 801.79 540.86
00005011 00000140 501.75 147.63 377.13 543.45 629.79 381.19 783.48 340.53 748.79 461.84 687.81 573.42 803.37 539.44
00005012 00000141 505.13 151.60 377.03 540.58 635.30 382.44 786.60 339.38 753.68 459.07 690.63 571.69 807.80 535.85
00005013 00000142 509.72 143.50 376.67 548.07 641.01 381.56 789.92 338.25 760.33 453.88 697.04 570.41 813.64 534.52
00005014 00000143 515.94 137.43 375.95 550.92 644.39 379.07 797.23 336.79 765.80 450.56 700.56 568.22 821.69 533.06
00005015 00000144 517.97 127.65 375.75 561.39 642.75 377.95 798.20 336.17 766.49 448.95 698.15 568.46 823.45 533.79
00005016 00000145 519.69 128.29 375.63 560.68 644.06 376.04 800.77 336.19 768.67 446.40 698.64 567.17 825.92 534.06
00005017 00000146 524.58 127.74 367.57 548.57 650.90 378.89 806.25 333.04 773.18 453.26 703.65 560.97 831.67 523.18
00005018 00000147 532.36 117.56 365.67 545.51 658.83 374.72 822.09 327.59 786.86 446.77 712.92 553.79 847.05 514.81
00005019 00000148 538.45 120.91 363.92 541.34 664.37 369.97 828.91 321.82 796.09 439.33 719.24 547.22 857.03 507.28
00005020 00000149 547.39 120.81 354.51 540.52 680.92 358.35 832.10 324.83 803.60 431.27 734.30 537.14 858.06 509.94
00005021 00000150 552.06 111.07 357.26 552.33 688.91 352.11 834.00 322.09 807.80 425.37 740.92 533.54 858.64 509.47
00005022 00000151 561.35 117.67 351.61 540.19 696.46 346.02 843.48 314.83 818.31 421.20 746.65 531.68 864.05 507.27
00005023 00000152 561.51 123.04 351.74 531.62 698.70 338.38 846.37 309.16 822.46 415.41 746.42 524.73 864.79 501.76
00005024 00000153 563.03 120.76 348.84 532.77 702.86 336.23 845.67 308.52 824.29 412.86 747.36 521.06 863.20 499.49
00005025 00000154 563.27 122.41 346.45 534.47 701.75 336.76 845.09 310.35 824.29 413.15 746.94 523.48 861.94 502.97
00005026 00000155 560.83 121.69 350.39 540.10 698.57 345.17 843.53 316.75 820.95 420.65 745.29 530.38 861.37 508.20
00005027 00000156 555.04 123.89 354.91 543.27 697.81 354.57 844.77 326.60 823.67 433.39 747.90 539.53 862.22 517.15
00005028 00000157 553.51 121.89 355.45 546.89 696.11 359.79 845.95 331.92 821.22 435.95 747.04 542.00 865.85 519.37
00005029 00000158 552.53 124.25 355.44 540.40 694.95 358.95 845.94 331.66 821.07 436.06 747.30 540.95 865.56 518.80
00005030 00000159 549.64 117.11 356.14 544.81 694.14 355.85 844.31 330.80 819.96 433.88 747.21 538.93 863.54 518.29
00005031 00000160 548.25 121.13 355.50 541.03 691.31 356.52 841.45 329.50 817.25 431.67 745.60 539.92 861.75 518.02
00005032 00000161 545.75 126.75 357.39 535.51 689.53 358.67 840.82 330.08 816.91 434.11 743.83 541.11 861.99 517.92
00005033 00000162 547.05 123.34 359.38 539.61 688.05 361.88 842.12 329.73 817.35 438.12 744.78 545.34 865.00 518.99
00005034 00000163 547.38 124.69 360.09 539.65 688.16 362.90 841.33 330.17 815.96 438.61 744.96 544.94 865.56 518.06
00005035 00000164 544.87 129.27 361.20 538.19 686.64 362.50 837.13 330.39 813.18 435.62 742.64 544.66 861.38 518.62
00005036 00000165 543.29 134.68 360.98 535.61 683.97 360.83 834.53 327.18 810.54 433.55 739.11 543.37 858.97 516.17
00005037 00000166 542.94 125.84 361.54 545.19 681.53 362.07 832.37 328.44 806.25 432.11 735.51 544.18 855.75 517.10
00005038 00000167 541.99 123.75 361.83 548.49 678.74 362.73 830.69 328.11 803.42 432.86 734.21 546.08 856.02 518.08
00005039 00000168 541.01 123.57 361.16 547.82 677.91 360.44 828.63 326.53 801.85 432.13 733.30 543.70 854.41 516.40
00005040 00000169 542.08 126.50 362.52 543.55 675.03 361.43 834.90 323.87 803.22 427.38 724.00 544.09 859.13 512.77
00005041 00000170 537.82 115.90 363.80 549.04 671.31 353.68 829.73 314.88 798.55 421.88 718.96 537.26 854.71 505.44
