Video ID: 	Kue7997Zr7k
H: 	1080
W: 	1920
FPS: 	25.0

FRAME INDEX X0 Y0 W H [Landmarks (5 Points)]

00007466 00000000 941.24 280.28 392.10 578.61 991.09 561.76 1093.61 575.54 971.41 676.65 1018.96 750.13 1088.02 759.44
00007467 00000001 937.32 280.30 391.86 583.74 989.99 564.14 1087.93 577.72 967.52 678.14 1021.43 753.23 1083.75 762.26
00007468 00000002 931.90 292.04 387.46 574.39 987.01 566.32 1080.62 582.14 964.91 683.37 1024.39 753.60 1084.36 764.41
00007469 00000003 925.93 297.78 382.82 572.21 982.60 573.88 1073.14 590.16 961.46 692.35 1026.66 758.59 1084.02 769.26
00007470 00000004 912.87 310.36 376.67 582.04 974.19 604.66 1043.21 621.29 962.46 714.28 1027.16 777.87 1083.19 787.37
00007471 00000005 909.50 320.51 371.79 573.71 972.36 621.39 1035.92 636.39 961.48 728.27 1022.53 788.71 1070.86 796.78
00007472 00000006 903.31 335.84 370.14 557.97 969.72 624.44 1030.72 641.96 955.70 735.07 1015.50 791.47 1059.03 801.66
00007473 00000007 904.77 357.41 363.35 537.62 966.81 628.99 1033.08 648.69 954.53 740.90 1010.74 795.77 1057.94 807.77
00007474 00000008 901.88 365.07 360.44 537.36 960.44 623.12 1030.54 654.68 952.88 743.09 1017.10 790.66 1058.96 811.87
00007475 00000009 902.23 362.67 369.13 541.97 961.35 628.02 1035.57 655.34 957.72 746.11 1028.43 791.98 1074.98 810.21
00007476 00000010 910.52 347.84 372.25 552.72 972.62 634.30 1042.86 650.13 965.04 750.93 1034.96 795.44 1088.80 804.02
00007477 00000011 919.97 334.63 372.37 568.85 979.80 629.27 1058.90 643.53 975.20 742.21 1040.10 796.53 1098.66 804.55
00007478 00000012 921.49 341.49 381.86 555.97 986.04 622.49 1069.30 640.93 985.74 738.55 1057.90 796.00 1109.43 807.62
00007479 00000013 927.28 344.00 383.57 554.97 991.37 617.95 1079.57 639.86 991.72 740.87 1059.03 794.79 1116.05 809.69
00007480 00000014 932.12 349.27 379.88 547.62 996.52 625.29 1085.56 645.76 997.77 741.70 1057.22 800.73 1111.00 814.99
00007481 00000015 933.92 345.41 381.10 551.45 998.04 625.80 1088.03 646.72 999.75 742.49 1058.02 802.22 1111.89 817.07
00007482 00000016 945.22 339.05 382.87 563.30 1007.18 621.67 1095.44 634.72 1009.46 738.61 1054.42 795.49 1119.29 802.54
00007483 00000017 960.86 331.66 385.13 575.39 1014.80 615.47 1115.05 621.59 1022.29 725.99 1062.78 792.32 1139.29 794.00
00007484 00000018 980.80 318.80 398.90 583.42 1025.44 601.13 1149.19 604.00 1039.32 707.21 1077.94 782.79 1170.35 782.63
00007485 DELETE   1020.51 286.11 422.78 592.06 1084.20 547.95 1249.40 536.07 1139.05 660.96 1135.26 743.83 1263.02 734.29
00007486 DELETE   1046.43 260.79 421.39 597.86 1114.74 525.90 1291.95 505.80 1187.03 633.13 1165.52 726.94 1314.40 710.69
00007487 DELETE   1066.66 249.49 421.67 602.08 1148.98 514.82 1324.11 490.38 1232.54 620.28 1204.31 713.07 1352.49 692.45
00007488 00000022 1081.57 240.67 426.43 603.43 1180.66 504.86 1361.40 476.25 1275.80 604.91 1232.22 708.51 1380.19 684.09
00007489 00000023 1109.27 226.65 417.08 608.65 1200.63 491.66 1395.52 463.88 1309.96 600.40 1256.95 699.70 1418.16 677.25
00007490 00000024 1137.09 234.43 412.83 597.80 1244.02 487.51 1434.66 469.82 1353.58 587.68 1282.37 687.47 1448.42 672.50
00007491 00000025 1146.37 229.89 413.88 598.12 1255.12 482.52 1448.74 465.57 1367.62 587.41 1289.05 682.56 1461.48 668.58
00007492 00000026 1153.35 222.85 413.31 599.98 1263.68 475.69 1457.65 463.89 1374.47 588.42 1290.67 675.07 1466.69 664.96
00007493 DELETE   1160.48 219.44 408.55 598.07 1269.55 469.39 1463.70 464.04 1377.85 588.09 1287.59 666.67 1468.47 662.39
00007494 DELETE   1166.86 210.50 406.30 603.38 1272.86 465.86 1466.30 465.02 1376.24 585.39 1284.73 661.99 1467.27 661.74
00007495 00000029 1176.08 208.55 403.01 600.17 1274.37 453.91 1467.94 464.23 1362.16 575.94 1274.70 652.84 1453.71 661.70
00007496 00000030 1178.97 207.42 405.32 598.27 1276.56 444.57 1467.75 464.87 1355.85 564.15 1268.40 644.55 1437.34 663.19
00007497 00000031 1178.95 205.20 405.23 593.32 1275.46 440.12 1466.51 467.21 1348.42 562.26 1261.13 639.19 1429.25 663.18
00007498 00000032 1178.88 201.60 402.59 587.58 1274.95 435.41 1467.16 466.03 1346.90 558.02 1255.88 633.09 1425.24 659.43
00007499 00000033 1176.42 199.11 403.66 588.60 1274.39 430.32 1467.88 463.95 1345.37 554.22 1251.32 629.65 1422.34 658.14
00007500 00000034 1167.10 195.43 405.60 592.90 1264.47 422.22 1460.55 458.32 1333.97 550.11 1238.14 626.72 1409.28 657.38
00007501 00000035 1153.93 195.32 410.50 592.60 1253.22 419.88 1444.38 458.85 1313.59 550.70 1229.65 623.88 1395.04 656.80
00007502 00000036 1148.96 192.29 407.92 595.41 1246.17 418.76 1437.52 458.94 1307.32 552.14 1221.74 624.58 1387.28 658.53
00007503 00000037 1143.97 192.23 407.55 593.49 1238.69 418.46 1430.61 457.50 1299.29 549.51 1214.33 624.34 1379.72 657.56
00007504 00000038 1136.60 190.34 406.97 594.33 1232.95 418.51 1424.19 458.63 1295.72 548.78 1208.71 624.81 1371.43 658.65
00007505 00000039 1118.23 186.75 410.42 594.77 1219.11 418.61 1407.77 454.09 1281.74 549.32 1196.06 622.59 1356.92 652.68
00007506 00000040 1111.55 185.17 409.62 599.14 1212.51 418.21 1402.09 453.64 1275.02 549.02 1189.55 623.14 1352.33 653.11
00007507 00000041 1107.44 186.15 405.19 598.20 1205.65 420.58 1397.55 454.10 1271.17 551.41 1184.16 627.21 1347.36 655.92
00007508 00000042 1101.93 183.34 406.46 604.05 1197.76 418.32 1392.30 451.32 1264.80 553.38 1177.04 629.50 1341.79 657.56
00007509 00000043 1091.48 178.76 412.30 612.40 1184.84 414.75 1386.20 448.04 1255.20 552.66 1164.75 629.54 1335.58 657.90
00007510 00000044 1070.97 181.37 412.29 612.32 1159.39 416.25 1358.90 451.12 1223.73 551.66 1139.35 631.53 1311.61 660.71
00007511 00000045 1056.71 173.16 412.07 618.41 1143.88 419.81 1341.22 453.12 1207.77 555.03 1127.63 629.77 1299.67 657.20
00007512 00000046 1045.68 174.91 410.88 614.26 1127.59 424.16 1326.83 449.88 1193.47 554.83 1115.68 632.65 1292.13 653.96
00007513 00000047 1030.38 167.44 407.14 620.17 1103.36 422.48 1306.12 441.21 1173.07 550.00 1098.23 630.98 1283.10 645.48
00007514 00000048 1008.88 167.98 410.68 626.03 1073.64 419.24 1263.65 437.26 1126.69 551.41 1075.26 631.53 1245.90 645.98
00007515 00000049 976.26 145.90 414.53 638.56 1028.92 412.81 1208.98 422.97 1073.83 537.31 1032.36 626.69 1192.10 636.47
00007516 DELETE   956.87 140.38 423.25 633.15 1014.59 408.16 1192.41 412.90 1058.20 529.11 1026.73 622.79 1173.65 626.84
00007517 00000051 942.15 137.96 414.88 621.23 994.38 402.53 1168.33 402.58 1038.52 521.68 1015.45 613.40 1160.06 612.96
00007518 00000052 933.35 138.29 409.41 613.44 981.18 394.05 1152.58 392.40 1023.60 518.42 1008.10 608.85 1147.85 608.03
00007519 00000053 929.45 137.68 409.89 614.20 974.71 393.47 1136.02 390.90 1005.02 510.24 1000.41 605.20 1134.18 603.22
00007520 00000054 920.89 138.17 401.27 606.32 960.82 396.44 1113.13 384.17 989.62 502.33 988.77 605.50 1115.22 595.84
00007521 00000055 919.40 138.20 395.22 606.23 958.11 395.51 1106.61 386.80 981.48 502.75 982.40 604.52 1107.09 597.58
00007522 00000056 919.24 140.90 394.57 602.72 958.74 397.51 1104.52 388.93 980.93 503.14 982.13 604.26 1105.56 597.31
00007523 00000057 919.65 142.45 392.86 601.34 960.13 399.78 1105.17 390.90 983.24 503.43 984.56 603.71 1107.67 596.31
00007524 00000058 920.43 143.73 392.75 600.18 961.58 401.83 1107.55 390.74 986.31 503.30 988.50 605.30 1112.05 596.13
00007525 00000059 918.95 150.08 393.77 595.61 959.45 409.60 1107.43 396.73 989.64 512.30 992.18 609.74 1116.09 598.91
00007526 00000060 919.82 153.01 392.11 594.42 958.20 412.98 1104.40 400.86 987.23 515.89 990.44 612.90 1112.14 602.52
00007527 00000061 921.12 157.82 388.13 591.99 958.90 414.75 1103.14 404.90 987.62 520.35 989.88 614.98 1109.41 606.34
00007528 00000062 922.22 158.89 390.10 596.24 959.56 420.97 1104.01 409.41 987.07 521.42 988.31 620.12 1106.84 610.36
00007529 00000063 922.02 167.13 391.11 591.77 960.00 431.16 1104.90 418.14 989.88 527.72 991.47 627.74 1107.15 616.62
00007530 00000064 932.43 183.72 388.42 599.15 976.86 448.21 1117.37 438.55 1005.79 556.19 1021.18 642.94 1145.77 634.10
00007531 00000065 932.28 194.71 400.70 605.27 978.92 463.84 1124.10 448.99 1016.81 575.33 1033.71 657.54 1165.92 644.03
00007532 00000066 933.30 206.22 402.84 600.16 980.12 481.43 1123.24 458.83 1019.84 587.96 1043.01 670.53 1172.79 650.18
00007533 00000067 932.41 208.52 401.88 598.92 978.45 488.44 1119.36 462.37 1018.38 589.61 1042.57 672.53 1171.64 649.27
00007534 00000068 933.84 207.80 400.95 598.06 980.42 486.83 1120.21 460.97 1018.81 586.03 1042.24 670.83 1170.01 648.01
00007535 00000069 939.79 204.07 401.78 602.77 985.54 478.52 1128.00 456.74 1022.10 580.84 1040.56 664.65 1173.79 645.23
00007536 00000070 941.97 203.47 403.38 602.22 987.86 472.32 1134.26 452.78 1027.51 577.23 1039.91 659.08 1178.92 641.42
00007537 00000071 941.98 215.74 405.36 584.51 994.92 476.42 1145.62 454.14 1040.69 580.75 1042.52 662.60 1185.92 641.38
00007538 00000072 948.02 211.47 404.36 590.97 999.01 477.51 1153.68 458.58 1046.17 588.96 1046.63 667.40 1192.04 648.69
00007539 00000073 953.28 204.51 406.07 614.96 1003.04 481.77 1167.92 463.55 1057.71 596.12 1054.79 675.30 1199.33 659.69
00007540 00000074 960.46 217.46 409.31 599.19 1016.57 486.03 1187.60 477.51 1076.13 603.47 1062.58 681.18 1205.86 672.65
00007541 00000075 970.27 223.10 402.33 596.59 1023.77 488.68 1187.95 477.76 1077.25 599.14 1068.05 678.11 1206.39 669.57
00007542 00000076 962.16 218.27 409.18 599.52 1019.71 485.59 1192.59 478.31 1081.12 602.80 1063.56 681.94 1205.61 674.55
00007543 00000077 963.99 218.42 409.58 598.65 1022.08 486.62 1195.92 479.91 1084.75 604.60 1065.53 682.52 1209.11 675.64
00007544 00000078 974.59 229.41 401.95 588.18 1029.96 492.92 1197.06 483.05 1086.39 602.25 1072.74 677.74 1214.69 669.91
00007545 00000079 974.21 214.18 404.53 603.05 1034.97 484.09 1207.87 481.22 1101.09 608.74 1069.27 679.34 1219.16 676.48
00007546 00000080 979.30 217.16 402.50 602.29 1039.95 482.54 1214.71 480.49 1105.88 605.54 1070.44 677.37 1222.48 675.34
00007547 00000081 985.11 223.37 399.86 595.95 1048.91 483.42 1216.56 481.80 1107.42 602.77 1078.87 676.86 1229.13 672.94
00007548 00000082 989.53 224.28 395.07 596.67 1055.12 483.65 1222.18 483.77 1111.90 603.33 1081.29 674.50 1236.01 671.79
00007549 00000083 991.70 221.54 394.33 598.27 1057.51 482.56 1225.75 484.47 1113.84 603.01 1081.55 673.45 1237.91 672.23
00007550 00000084 990.55 218.57 397.55 592.89 1057.08 480.64 1229.52 481.48 1117.52 604.33 1082.66 668.64 1244.88 666.50
00007551 00000085 991.24 218.13 400.72 591.18 1058.95 477.89 1233.18 478.73 1121.40 603.56 1084.60 667.69 1246.44 665.87
00007552 00000086 997.65 212.98 400.40 603.29 1058.72 473.49 1239.00 472.74 1120.48 596.23 1082.39 664.35 1249.10 663.45
00007553 00000087 1001.68 212.99 401.26 599.28 1062.34 468.92 1243.60 470.36 1124.58 592.89 1084.91 662.54 1249.29 663.47
00007554 00000088 1003.01 211.23 403.71 597.60 1072.20 468.06 1250.09 470.58 1136.14 592.04 1092.61 663.14 1257.76 664.54
00007555 00000089 1016.33 205.40 398.37 594.62 1074.79 459.54 1255.03 462.99 1132.80 585.09 1097.08 658.35 1254.78 661.19
00007556 00000090 1019.43 195.07 399.92 606.28 1076.10 461.38 1266.72 461.86 1150.59 585.74 1101.54 664.34 1261.50 664.95
00007557 00000091 1025.37 194.19 396.93 607.44 1081.51 461.42 1271.67 464.20 1154.78 584.64 1103.14 665.36 1262.75 668.02
00007558 00000092 1032.68 194.20 395.55 614.34 1088.79 459.98 1278.74 467.20 1157.30 589.34 1109.46 668.38 1268.82 674.90
00007559 00000093 1041.39 193.07 394.20 618.88 1099.06 462.27 1287.49 472.87 1164.47 590.58 1114.95 668.84 1273.74 678.43
00007560 00000094 1050.07 197.78 399.38 614.14 1118.08 466.28 1303.98 477.41 1183.51 590.33 1130.00 667.07 1286.03 676.71
00007561 00000095 1051.59 197.44 401.00 613.43 1120.56 465.93 1310.50 477.89 1188.10 589.68 1128.44 661.67 1292.08 671.81
00007562 00000096 1052.39 195.99 402.42 615.78 1121.62 465.13 1313.18 477.97 1188.97 590.18 1129.12 660.49 1295.79 671.17
00007563 00000097 1054.78 193.58 402.01 617.52 1122.64 464.56 1314.09 477.31 1189.91 589.34 1130.05 661.74 1296.47 672.31
00007564 00000098 1056.02 195.42 401.28 614.82 1123.79 464.20 1309.46 477.33 1186.75 587.86 1132.61 661.96 1291.96 673.10
00007565 00000099 1052.88 191.77 399.85 613.38 1120.03 461.70 1304.54 473.04 1184.54 579.37 1127.71 656.38 1287.81 666.37
00007566 00000100 1050.35 191.06 400.08 612.26 1116.37 460.40 1302.14 470.94 1181.02 577.37 1123.86 654.28 1286.90 663.59
00007567 00000101 1049.04 189.39 398.64 613.46 1112.98 457.80 1297.36 468.94 1176.41 575.70 1120.15 651.82 1283.65 661.56
00007568 00000102 1048.48 189.76 399.55 612.37 1109.67 455.45 1293.61 466.98 1171.03 574.97 1117.40 650.38 1281.89 660.34
00007569 00000103 1048.92 192.98 397.42 610.03 1108.38 456.08 1290.59 466.91 1166.96 574.81 1117.09 651.37 1280.40 660.78
00007570 00000104 1048.31 188.92 398.60 608.54 1103.18 451.80 1283.89 462.13 1157.70 573.10 1115.67 651.47 1275.43 660.06
00007571 00000105 1048.40 186.54 399.68 609.71 1103.75 450.82 1284.45 459.68 1158.90 573.05 1118.13 652.48 1276.07 659.91
00007572 00000106 1048.28 184.77 400.18 611.37 1103.95 451.32 1286.35 458.47 1161.25 572.33 1119.89 654.19 1277.55 660.37
00007573 00000107 1049.07 186.41 401.05 612.49 1106.41 452.84 1286.90 459.27 1163.72 572.43 1123.25 657.54 1277.15 663.48
00007574 00000108 1047.27 185.49 403.27 618.86 1108.23 455.10 1288.20 459.54 1166.92 574.59 1128.19 663.93 1276.45 668.48
00007575 00000109 1044.71 188.27 403.98 620.49 1107.40 458.45 1287.51 462.96 1168.98 581.11 1131.08 672.13 1271.86 676.80
00007576 00000110 1044.11 187.72 404.69 623.59 1106.62 460.81 1287.72 465.07 1168.97 583.00 1130.22 675.89 1270.42 680.40
00007577 00000111 1043.10 189.91 406.29 623.45 1105.08 461.69 1286.89 466.20 1168.08 585.47 1129.45 678.29 1270.02 683.05
00007578 00000112 1042.56 190.90 404.84 622.90 1105.10 462.57 1286.46 467.42 1168.17 586.89 1129.75 679.58 1268.45 684.67
00007579 00000113 1042.39 187.97 405.50 624.97 1105.50 463.29 1286.90 467.76 1169.29 587.55 1131.36 679.85 1270.18 684.53
00007580 00000114 1042.54 193.77 406.86 616.19 1107.25 465.96 1289.45 470.46 1173.07 591.61 1134.23 681.31 1271.69 686.06
00007581 00000115 1042.84 197.81 407.22 612.89 1107.61 474.33 1289.26 478.11 1174.39 599.61 1135.45 683.23 1274.32 687.02
00007582 00000116 1045.25 204.25 406.64 607.19 1109.65 479.48 1290.82 484.11 1174.57 603.77 1135.04 685.05 1273.32 689.57
00007583 00000117 1044.52 210.97 407.88 603.57 1109.39 483.77 1290.78 489.60 1172.65 608.14 1132.80 687.11 1270.34 692.67
00007584 00000118 1045.49 211.00 406.97 605.05 1107.51 486.53 1288.06 493.20 1169.38 611.50 1130.99 688.58 1268.07 694.58
00007585 00000119 1037.51 206.82 406.92 619.10 1101.31 489.29 1280.68 493.14 1169.43 619.60 1133.80 697.65 1266.93 701.48
00007586 00000120 1034.29 203.84 409.48 627.60 1102.46 498.10 1279.12 496.34 1175.26 626.94 1146.43 706.05 1273.95 705.21
CROP_BBOX: 647 0 1838 1077
