Video ID: 	WRHhdRaOd2M
H: 	1440
W: 	2560
FPS: 	23.976023976023978

FRAME INDEX X0 Y0 W H [Landmarks (5 Points)]

00000502 00000000 968.38 275.85 605.04 856.33 1078.05 601.91 1357.34 587.66 1195.19 771.03 1127.45 924.56 1333.82 912.95
00000503 DELETE   955.42 276.58 613.53 864.71 1076.94 610.35 1352.28 594.16 1189.02 776.45 1123.56 927.07 1336.18 915.42
00000504 DELETE   948.40 291.05 605.73 850.44 1061.94 611.07 1339.62 593.37 1176.12 793.13 1125.88 944.20 1335.10 925.41
00000505 DELETE   941.58 282.63 613.04 886.32 1053.19 629.59 1334.72 605.49 1179.95 813.41 1115.85 954.75 1331.50 934.99
00000506 00000004 936.33 293.33 613.83 883.20 1051.38 643.49 1331.40 619.14 1179.24 831.07 1115.14 966.33 1330.11 946.54
00000507 00000005 931.54 296.04 614.62 885.24 1048.20 650.56 1326.74 628.48 1175.83 843.55 1113.81 973.30 1328.19 955.35
00000508 00000006 931.40 295.00 612.12 884.45 1047.59 651.91 1325.58 630.22 1175.07 843.16 1112.94 974.58 1326.47 957.07
00000509 00000007 932.82 291.79 607.31 891.50 1052.61 659.36 1327.35 637.25 1179.46 837.18 1112.86 975.97 1330.51 957.69
00000510 00000008 924.39 300.79 612.78 891.37 1046.64 667.63 1326.91 652.72 1170.85 844.77 1111.34 981.35 1337.48 967.43
00000511 DELETE   921.74 304.71 612.50 881.54 1044.26 669.61 1330.09 661.19 1168.61 855.47 1104.97 982.36 1333.60 974.00
00000512 00000010 922.17 304.97 612.05 878.95 1047.43 679.48 1337.70 676.60 1173.98 872.66 1100.95 990.31 1332.76 987.06
00000513 DELETE   926.44 318.64 609.89 883.17 1056.82 691.93 1353.29 694.42 1187.78 894.28 1093.42 996.30 1345.01 998.22
00000514 DELETE   927.35 337.69 614.33 874.69 1066.71 701.37 1370.13 709.24 1200.56 905.10 1090.84 1000.14 1356.22 1006.48
00000515 00000013 927.44 341.14 621.22 877.25 1071.43 706.25 1376.94 719.72 1205.89 915.51 1091.92 1008.05 1356.05 1018.70
00000516 00000014 915.99 277.98 610.67 863.01 1047.62 609.76 1331.98 605.15 1169.60 771.49 1088.46 920.02 1327.33 913.61
00000517 00000015 917.13 276.17 610.97 868.97 1049.28 609.61 1335.76 607.14 1171.72 775.34 1088.23 923.64 1330.13 918.80
00000518 00000016 919.99 284.00 608.59 868.15 1052.17 610.71 1337.09 606.92 1173.36 780.11 1089.15 927.27 1332.02 921.39
00000519 00000017 927.39 283.45 606.91 871.86 1054.50 609.18 1340.50 608.01 1171.71 784.62 1091.25 934.26 1329.27 930.34
00000520 00000018 932.34 285.36 608.90 870.52 1061.83 611.43 1350.85 621.64 1177.22 800.17 1089.23 939.28 1323.45 945.36
00000521 00000019 934.75 288.04 607.65 876.16 1067.88 619.24 1355.68 634.91 1182.26 816.61 1088.92 946.90 1324.15 957.95
00000522 00000020 940.31 283.18 609.43 892.83 1070.55 619.39 1358.19 632.51 1189.78 827.06 1091.57 949.15 1318.66 960.66
00000523 00000021 944.33 283.87 607.87 892.56 1075.32 618.75 1361.62 635.70 1193.09 828.85 1091.63 946.04 1315.97 960.56
00000524 00000022 947.25 281.25 614.11 895.00 1080.28 621.19 1365.96 634.91 1191.48 821.79 1094.93 943.14 1318.66 956.16
00000525 00000023 950.72 278.34 615.49 897.15 1076.89 614.19 1369.73 626.38 1196.95 823.31 1104.61 949.35 1332.86 959.33
00000526 00000024 954.53 282.34 613.62 885.17 1079.28 613.64 1370.77 627.39 1195.34 819.97 1104.05 946.96 1327.59 958.28
00000527 00000025 958.17 282.55 609.63 883.02 1081.80 612.88 1369.47 629.10 1193.84 820.02 1103.07 945.01 1323.27 958.52
00000528 00000026 960.75 277.94 608.66 891.91 1082.62 610.79 1369.45 627.20 1190.59 813.98 1100.18 945.97 1323.36 959.35
00000529 00000027 965.04 279.86 606.08 881.60 1082.57 599.26 1369.57 620.02 1182.38 803.88 1098.20 934.59 1322.78 950.85
00000530 00000028 966.00 269.01 606.74 877.88 1093.92 590.64 1368.25 617.18 1183.19 785.13 1098.57 917.45 1308.17 941.05
00000531 00000029 961.92 267.27 605.59 854.80 1088.39 588.63 1366.54 617.78 1185.21 776.29 1096.53 901.11 1306.45 927.18
00000532 00000030 955.35 262.75 612.16 858.71 1084.30 585.57 1364.64 614.58 1183.25 774.45 1092.60 898.01 1305.65 923.95
00000533 00000031 955.06 264.63 614.24 869.57 1088.73 586.62 1365.87 610.44 1180.60 768.30 1095.28 902.22 1300.57 923.90
00000534 00000032 952.69 269.31 614.63 872.35 1084.98 588.61 1366.90 610.49 1179.29 767.22 1093.28 910.31 1293.63 930.74
00000535 00000033 951.03 272.76 614.49 878.35 1083.26 588.22 1364.92 610.05 1176.06 766.79 1092.87 917.98 1286.25 938.56
00000536 00000034 947.63 270.79 616.33 879.62 1080.27 588.74 1364.03 608.29 1175.27 765.12 1091.33 921.13 1286.33 939.81
00000537 00000035 943.98 278.79 604.63 853.69 1068.99 577.99 1358.18 600.70 1168.04 760.61 1083.83 910.95 1296.85 927.23
00000538 00000036 940.52 277.83 605.58 855.24 1067.72 575.91 1354.91 593.80 1169.45 755.39 1085.35 906.60 1299.63 918.49
00000539 00000037 937.97 277.26 607.49 849.06 1064.57 576.49 1351.66 590.42 1171.12 752.87 1087.14 901.66 1307.87 909.98
00000540 00000038 936.89 273.25 606.22 843.24 1062.96 577.96 1351.21 590.62 1172.81 751.00 1086.53 897.60 1311.79 904.91
00000541 00000039 935.58 276.67 605.49 834.90 1063.14 578.35 1350.51 589.68 1174.49 751.37 1086.35 892.05 1313.31 898.72
00000542 00000040 935.89 275.15 605.33 839.57 1063.59 578.79 1351.50 587.15 1177.90 750.24 1089.21 893.40 1320.34 897.33
00000543 00000041 936.86 274.95 606.91 844.88 1064.68 579.85 1351.67 585.12 1179.67 750.99 1096.78 900.90 1320.29 901.79
00000544 00000042 939.76 280.13 603.59 846.58 1064.77 581.17 1348.41 585.89 1174.52 756.48 1096.11 906.78 1315.87 907.19
00000545 00000043 941.94 281.48 603.11 860.11 1069.03 584.11 1352.55 588.67 1178.70 763.54 1102.46 916.47 1323.05 916.63
00000546 00000044 943.16 280.43 602.42 861.18 1068.65 589.86 1353.22 591.83 1180.86 767.77 1104.21 921.64 1327.69 919.66
00000547 00000045 941.55 279.54 605.06 856.29 1067.50 592.71 1353.91 596.32 1180.18 774.82 1105.59 922.91 1327.17 922.39
00000548 00000046 941.14 281.64 604.75 851.84 1067.79 597.16 1351.37 602.09 1178.62 781.78 1102.75 919.71 1328.60 920.10
00000549 00000047 940.21 283.75 604.36 848.75 1064.87 602.42 1349.55 606.70 1176.97 789.09 1100.60 925.88 1326.10 926.08
00000550 00000048 940.26 284.49 602.94 848.64 1063.96 604.73 1346.83 608.98 1175.60 792.58 1097.93 925.01 1326.14 925.14
00000551 00000049 940.03 285.33 605.61 850.31 1065.27 606.12 1348.05 612.89 1175.88 796.70 1095.34 924.54 1324.03 926.98
00000552 00000050 939.53 285.11 605.63 846.27 1065.63 608.07 1346.67 615.90 1175.94 798.46 1094.40 922.78 1320.65 926.48
00000553 00000051 939.21 287.94 602.23 858.90 1063.12 601.89 1344.51 612.74 1168.05 789.01 1087.88 928.27 1310.35 934.70
00000554 00000052 938.82 286.09 601.49 856.13 1061.75 593.28 1338.58 605.57 1159.49 779.48 1084.89 919.17 1300.49 926.62
00000555 00000053 938.10 281.23 606.40 855.81 1064.95 595.23 1342.08 613.12 1162.08 780.10 1078.36 906.72 1305.71 918.87
00000556 00000054 940.22 286.68 607.19 860.67 1071.26 603.62 1345.61 628.59 1161.28 789.27 1076.80 909.19 1308.35 927.23
00000557 00000055 945.56 283.14 610.39 874.01 1073.74 606.77 1356.22 637.02 1174.05 806.20 1076.35 919.40 1303.65 944.35
00000558 00000056 951.82 290.85 611.05 885.71 1079.34 616.60 1360.39 650.62 1177.86 821.19 1079.29 936.04 1303.23 964.48
00000559 00000057 956.50 299.71 614.28 883.79 1092.10 621.49 1374.43 659.52 1194.47 831.46 1089.39 943.36 1315.30 974.88
00000560 00000058 961.08 301.64 622.52 886.03 1103.07 623.99 1382.80 659.59 1203.27 831.84 1097.42 944.55 1318.93 976.66
00000561 00000059 968.74 304.22 621.02 873.87 1110.04 612.11 1396.81 651.88 1208.34 822.63 1102.37 939.23 1330.89 972.26
00000562 00000060 966.74 294.58 627.43 881.67 1118.26 608.77 1407.93 647.50 1220.63 806.31 1107.69 931.91 1339.82 963.91
00000563 00000061 969.88 289.94 624.86 881.63 1124.76 610.32 1410.63 650.78 1224.90 801.18 1110.85 924.99 1343.27 957.98
00000564 00000062 966.39 285.93 626.55 885.68 1123.18 609.75 1408.86 648.12 1226.94 803.49 1111.97 924.99 1345.51 956.35
00000565 00000063 961.08 288.18 630.21 875.90 1121.54 605.31 1409.35 642.89 1227.55 797.07 1112.40 920.28 1344.59 950.74
00000566 00000064 958.79 284.49 629.11 865.85 1118.40 598.90 1409.02 629.51 1230.88 781.04 1115.37 913.16 1346.52 938.08
00000567 00000065 960.38 268.00 616.46 880.47 1108.92 591.67 1396.39 612.04 1224.04 762.02 1120.83 907.03 1335.44 923.74
00000568 00000066 957.78 264.66 607.66 881.71 1102.34 583.82 1389.60 592.33 1223.06 753.40 1126.30 904.59 1346.11 910.71
00000569 00000067 943.03 271.70 604.09 850.49 1087.42 576.00 1381.82 579.65 1219.47 735.43 1118.04 896.73 1356.97 895.24
00000570 00000068 934.07 267.44 607.62 850.88 1077.47 571.90 1369.54 570.37 1212.40 727.79 1115.36 893.15 1349.25 887.68
00000571 00000069 926.38 278.42 607.78 840.24 1073.88 577.54 1360.72 572.16 1204.05 714.91 1113.50 888.37 1347.78 879.61
00000572 00000070 920.28 279.95 611.47 836.22 1068.39 579.76 1352.54 569.61 1201.89 713.33 1114.66 888.68 1346.26 876.12
00000573 00000071 915.97 277.49 607.37 841.01 1064.17 581.57 1347.30 564.95 1202.69 711.79 1114.92 890.54 1346.88 873.22
00000574 00000072 912.99 279.44 608.98 838.38 1060.25 579.66 1346.84 559.08 1205.37 709.83 1115.74 892.00 1350.12 871.76
00000575 00000073 910.80 283.15 608.86 833.88 1057.65 576.34 1346.68 554.83 1206.60 710.64 1114.07 891.77 1350.95 870.44
00000576 00000074 911.70 280.48 609.78 836.57 1057.83 574.09 1347.17 552.97 1208.19 710.56 1114.04 893.16 1348.83 872.28
00000577 00000075 912.66 278.00 607.64 837.42 1057.62 573.39 1347.87 552.30 1209.53 711.11 1115.11 895.34 1347.10 874.47
00000578 00000076 913.72 273.22 607.25 836.97 1058.33 573.03 1348.58 551.70 1211.31 710.21 1119.28 896.26 1347.27 875.10
00000579 00000077 915.25 275.00 602.32 825.29 1057.51 575.04 1350.02 556.82 1209.48 712.19 1120.26 897.75 1345.67 879.05
00000580 00000078 915.11 283.30 601.15 823.01 1054.77 574.58 1346.46 562.27 1200.39 728.75 1111.49 899.81 1333.92 886.69
00000581 00000079 917.54 285.46 601.28 827.31 1053.89 580.76 1344.09 575.24 1195.07 744.96 1100.71 901.43 1324.47 894.06
00000582 00000080 918.92 288.68 603.72 833.58 1052.82 582.51 1340.69 586.26 1181.19 751.39 1085.96 901.15 1313.71 901.95
00000583 00000081 923.10 286.04 602.89 840.86 1055.69 580.11 1342.02 591.27 1171.56 754.49 1076.27 903.09 1300.15 910.14
00000584 00000082 924.52 281.58 604.68 848.52 1056.94 581.99 1341.28 598.50 1165.51 763.44 1073.16 903.00 1298.69 914.74
00000585 00000083 928.32 280.95 605.44 836.56 1054.96 586.74 1342.51 604.56 1162.83 773.41 1072.07 900.17 1306.21 913.20
00000586 00000084 929.01 279.74 607.22 842.06 1055.77 588.01 1341.86 606.65 1160.98 776.72 1072.89 901.72 1304.74 915.25
00000587 00000085 932.51 282.31 604.20 851.00 1058.36 588.59 1342.72 603.28 1161.76 771.50 1074.41 906.80 1308.43 916.27
00000588 00000086 932.75 280.53 604.31 861.93 1060.40 587.76 1346.09 597.18 1169.85 767.83 1082.61 910.58 1318.66 915.12
00000589 00000087 932.44 278.68 603.52 868.84 1062.14 584.81 1348.00 589.93 1176.07 759.88 1089.17 910.47 1328.65 910.76
00000590 00000088 935.06 274.29 604.96 848.63 1060.63 580.08 1351.70 583.68 1179.26 753.38 1095.70 906.38 1325.37 905.52
00000591 00000089 934.18 271.13 607.20 833.14 1062.24 578.15 1355.77 580.56 1188.63 752.62 1103.80 899.20 1333.85 897.71
00000592 00000090 931.42 270.09 610.02 832.74 1061.53 579.75 1355.11 578.78 1191.81 751.13 1106.45 898.89 1337.78 894.71
00000593 00000091 929.70 271.20 610.07 830.53 1059.03 585.30 1353.84 582.96 1193.47 754.82 1103.42 899.09 1343.34 893.99
00000594 00000092 928.14 275.41 610.29 833.79 1057.86 587.80 1351.38 585.64 1193.09 757.97 1102.37 901.01 1343.33 895.91
00000595 00000093 927.36 276.96 609.33 833.56 1055.41 594.21 1347.20 587.49 1189.97 763.73 1105.22 911.50 1340.32 902.52
00000596 00000094 927.02 275.70 608.48 842.34 1053.36 597.77 1344.57 589.05 1186.04 768.58 1103.73 916.78 1341.32 906.12
00000597 00000095 925.06 277.72 609.46 847.20 1051.77 598.98 1341.95 588.32 1183.39 766.19 1102.87 917.09 1342.93 904.73
00000598 00000096 924.53 276.68 609.53 844.57 1050.46 599.50 1341.02 589.30 1182.20 767.53 1102.40 917.09 1341.01 905.14
00000599 00000097 924.28 277.74 609.27 842.56 1050.44 600.26 1341.30 590.80 1182.78 768.79 1100.41 915.76 1340.74 904.76
00000600 00000098 923.71 275.57 609.62 833.51 1051.17 599.61 1342.45 592.28 1184.55 768.02 1101.61 914.95 1335.30 905.84
00000601 00000099 922.95 280.19 611.24 830.89 1054.24 597.89 1338.67 592.50 1184.72 764.11 1100.99 906.70 1328.71 899.68
00000602 00000100 923.53 279.51 609.15 823.07 1055.05 597.24 1339.19 593.52 1187.07 767.04 1100.70 900.67 1330.80 894.96
00000603 00000101 924.49 279.94 609.64 822.94 1057.99 596.23 1340.65 594.70 1188.92 767.43 1098.25 896.86 1329.33 893.02
00000604 00000102 925.11 277.43 607.04 829.93 1060.60 593.13 1343.73 594.89 1190.55 766.03 1097.40 898.44 1326.50 897.28
00000605 00000103 926.75 278.55 607.60 831.78 1063.06 592.32 1348.25 596.70 1192.29 765.65 1099.22 902.09 1325.33 903.02
00000606 00000104 929.59 277.16 607.29 841.31 1067.70 595.80 1354.82 602.17 1194.78 770.53 1102.01 910.68 1326.21 913.22
00000607 00000105 931.11 282.40 605.62 844.45 1080.70 609.85 1360.06 622.43 1205.12 780.01 1110.48 919.52 1329.90 926.94
00000608 DELETE   931.70 285.09 609.91 849.62 1089.01 623.31 1369.39 633.42 1219.68 794.54 1120.79 927.06 1348.78 932.48
00000609 00000107 936.61 287.65 606.89 848.51 1094.14 632.98 1374.16 642.09 1227.70 798.96 1124.44 929.65 1355.19 934.39
00000610 00000108 941.19 289.81 606.03 847.33 1097.32 634.37 1383.39 638.32 1234.44 803.32 1131.66 935.01 1368.56 935.47
00000611 00000109 939.11 286.17 606.94 846.46 1093.48 632.71 1380.19 631.48 1233.78 802.31 1134.06 936.00 1370.38 932.09
00000612 00000110 942.75 283.62 603.70 853.21 1097.66 625.66 1380.96 625.35 1235.05 798.66 1133.66 933.10 1370.69 929.35
00000613 00000111 942.66 278.16 604.07 855.84 1096.87 618.69 1379.84 618.39 1233.19 793.51 1133.08 928.89 1369.70 925.05
00000614 00000112 944.62 272.82 603.33 853.75 1097.52 613.03 1380.14 611.48 1234.18 787.93 1135.41 924.27 1368.80 919.56
00000615 00000113 946.93 272.91 603.25 850.03 1100.39 606.48 1379.81 607.87 1233.19 783.48 1139.28 919.37 1365.14 916.75
00000616 00000114 950.51 269.31 601.42 842.16 1101.76 601.62 1383.96 604.42 1235.31 774.12 1137.67 908.32 1367.40 906.87
00000617 00000115 953.93 260.19 594.70 836.64 1104.77 600.80 1388.47 606.67 1240.32 769.81 1137.49 904.19 1365.48 905.32
00000618 00000116 955.24 266.79 594.06 832.37 1111.40 596.35 1388.21 608.42 1240.76 762.89 1134.49 892.18 1363.87 898.51
00000619 DELETE   955.28 268.86 594.22 833.62 1104.00 589.85 1378.75 604.23 1222.73 755.08 1126.47 891.38 1344.69 899.25
00000620 DELETE   955.87 272.03 594.87 832.76 1091.71 581.98 1369.07 605.32 1191.22 751.23 1101.47 887.51 1313.64 903.72
00000621 DELETE   954.69 270.18 594.43 838.04 1082.42 579.42 1353.10 613.79 1161.29 745.30 1076.32 883.02 1281.61 909.39
00000622 00000120 954.32 276.34 597.66 832.94 1080.16 583.55 1346.59 623.89 1149.10 755.47 1068.38 881.76 1278.74 912.60
00000623 00000121 958.01 266.28 600.85 866.93 1076.74 585.13 1343.78 619.58 1154.43 766.89 1071.09 890.76 1270.12 921.00
00000624 00000122 958.78 264.59 601.99 877.57 1077.38 584.97 1349.50 619.84 1156.80 772.57 1074.01 897.74 1273.92 928.22
00000625 00000123 957.62 266.42 605.22 881.18 1078.31 595.87 1357.03 631.25 1161.26 781.26 1076.18 910.00 1289.26 941.93
00000626 00000124 950.55 267.10 615.16 888.17 1078.73 593.98 1355.85 629.38 1160.44 786.88 1072.17 905.97 1291.22 937.05
00000627 00000125 950.83 270.71 611.10 888.08 1065.62 587.94 1347.24 621.85 1151.25 791.21 1068.47 906.77 1291.40 935.39
00000628 00000126 950.84 274.88 611.72 879.21 1064.83 590.67 1348.71 621.14 1154.03 794.35 1073.43 911.75 1290.76 937.54
00000629 00000127 949.16 274.53 613.52 890.32 1063.70 592.19 1347.40 618.34 1155.37 795.58 1073.46 920.22 1292.04 942.33
00000630 00000128 948.02 273.13 616.55 897.18 1063.17 593.70 1347.89 616.33 1156.54 795.20 1075.37 925.43 1295.61 944.71
00000631 00000129 946.71 273.16 616.00 898.28 1061.85 595.73 1345.55 615.14 1157.93 794.12 1076.75 926.61 1298.82 942.98
00000632 00000130 942.38 271.32 619.22 897.77 1066.23 602.72 1348.74 621.56 1160.92 786.95 1075.58 923.96 1299.99 939.60
00000633 00000131 938.75 282.79 613.16 873.52 1068.95 610.83 1353.19 635.64 1160.52 783.58 1075.20 923.12 1309.11 940.47
00000634 00000132 936.61 284.99 613.72 864.88 1067.80 607.85 1351.40 631.73 1161.07 783.46 1077.07 920.10 1309.10 936.72
00000635 00000133 934.25 284.93 613.95 860.54 1067.55 603.49 1352.49 625.12 1166.55 780.04 1079.44 914.83 1313.94 929.64
00000636 00000134 931.53 287.36 612.22 850.22 1062.58 604.10 1351.11 617.79 1171.52 777.17 1080.88 912.29 1321.42 920.74
00000637 00000135 928.42 282.22 614.14 853.39 1056.16 604.04 1344.35 607.33 1171.45 774.77 1083.67 912.40 1328.19 912.30
00000638 00000136 924.83 276.59 615.90 851.46 1049.24 599.58 1342.57 600.24 1171.02 769.86 1085.01 913.90 1327.87 911.54
00000639 00000137 921.01 273.33 615.37 855.73 1043.83 595.05 1339.53 591.25 1170.17 763.90 1084.43 916.24 1326.72 910.35
00000640 00000138 917.35 271.86 616.96 864.74 1041.47 590.83 1337.02 583.00 1169.88 761.86 1087.28 915.76 1329.67 906.27
00000641 00000139 913.70 272.45 618.70 864.07 1041.93 589.42 1340.49 580.06 1176.55 756.35 1089.72 914.58 1333.61 904.00
00000642 00000140 911.72 272.65 619.64 868.60 1042.43 588.28 1340.80 576.60 1179.77 755.32 1092.14 915.38 1337.08 902.84
00000643 00000141 911.37 273.07 619.68 867.96 1042.64 587.51 1342.45 574.63 1182.65 754.31 1095.10 916.03 1340.62 902.27
00000644 00000142 910.95 273.68 620.42 869.46 1043.41 586.66 1343.31 572.48 1184.66 754.15 1097.59 916.99 1341.58 901.98
00000645 00000143 911.90 273.98 620.43 869.44 1046.48 593.68 1343.77 578.30 1187.84 755.07 1099.76 916.91 1346.49 900.90
00000646 00000144 913.03 280.93 616.85 859.26 1055.31 597.66 1345.34 587.34 1194.20 750.41 1101.70 911.43 1346.38 899.35
00000647 00000145 914.44 280.27 615.21 855.19 1055.82 597.81 1345.50 589.14 1194.85 750.96 1102.28 910.76 1345.43 900.01
00000648 00000146 914.48 281.68 615.38 847.74 1054.74 598.53 1345.33 593.27 1191.72 754.80 1099.47 908.58 1344.70 900.54
00000649 00000147 917.77 280.18 611.13 838.01 1050.10 604.05 1344.51 598.22 1187.86 763.28 1096.99 912.78 1341.24 904.89
00000650 00000148 916.17 275.95 610.61 841.73 1049.64 603.12 1340.43 597.94 1187.20 761.95 1097.93 909.33 1333.68 901.91
00000651 00000149 915.33 278.18 610.91 840.98 1050.15 601.55 1336.30 598.17 1185.22 764.53 1094.77 907.33 1325.12 901.69
00000652 00000150 915.93 279.10 610.10 836.77 1050.95 599.48 1336.56 599.52 1183.38 767.03 1092.96 907.12 1316.88 904.59
00000653 00000151 916.04 279.47 610.29 836.66 1051.37 598.58 1336.76 599.73 1183.21 767.35 1091.83 904.24 1317.12 902.57
00000654 00000152 917.12 281.97 608.48 842.16 1054.31 600.75 1338.30 602.36 1184.35 767.51 1093.70 908.67 1320.80 907.40
00000655 00000153 917.68 279.05 612.29 860.04 1053.73 603.29 1339.97 600.24 1183.59 769.80 1098.53 922.08 1326.58 916.88
00000656 00000154 919.68 271.13 612.35 873.55 1059.09 606.82 1348.58 606.77 1190.76 778.87 1097.33 923.92 1336.92 921.01
00000657 00000155 920.81 276.47 614.18 868.75 1062.11 612.22 1352.90 614.29 1194.11 784.33 1097.80 924.32 1342.67 923.39
00000658 00000156 921.15 283.02 614.49 862.15 1063.53 619.81 1356.29 620.13 1199.63 795.82 1100.32 928.33 1349.19 926.40
00000659 00000157 923.31 283.79 614.31 869.02 1067.15 627.97 1359.56 627.70 1202.21 805.82 1100.26 935.88 1351.80 933.87
00000660 00000158 926.05 283.51 613.77 870.81 1071.38 632.99 1362.23 632.70 1206.55 810.63 1105.32 941.61 1354.75 939.48
00000661 00000159 932.32 282.46 611.43 876.35 1079.58 634.38 1367.66 634.91 1215.78 811.19 1113.16 944.42 1359.97 942.64
00000662 00000160 938.01 284.51 610.89 878.09 1088.76 636.19 1378.10 638.75 1227.32 813.10 1121.14 946.78 1368.25 946.48
00000663 00000161 946.65 286.90 604.60 886.79 1101.34 639.13 1387.33 640.96 1239.41 812.96 1131.81 949.78 1377.87 948.60
00000664 00000162 955.21 277.95 602.08 896.07 1106.24 627.28 1394.96 632.95 1248.17 816.23 1133.27 943.29 1377.53 947.86
00000665 00000163 961.09 276.75 599.23 896.36 1113.30 626.34 1400.88 631.97 1253.74 813.37 1137.11 942.82 1381.54 947.27
