Video ID: 	bKQqr6UNVyw
H: 	1080
W: 	1920
FPS: 	25.0

FRAME INDEX X0 Y0 W H [Landmarks (5 Points)]

00007170 00000000 470.10 108.04 376.32 559.12 551.57 334.73 732.54 312.26 646.31 412.73 604.62 544.23 722.93 528.41
00007171 00000001 484.74 92.86 370.51 566.87 561.87 332.40 742.03 316.18 655.71 411.76 612.48 537.87 730.88 526.34
00007172 00000002 496.40 88.81 374.82 567.87 572.15 325.88 755.43 306.83 663.99 410.61 624.78 532.47 749.12 517.52
00007173 00000003 510.75 89.56 368.98 563.63 586.76 324.44 761.29 303.80 673.21 404.41 635.45 526.47 762.13 510.74
00007174 00000004 526.79 83.21 363.17 567.32 600.94 321.22 778.10 303.96 685.79 400.21 638.63 520.65 774.14 507.37
00007175 DELETE   539.68 80.94 364.73 556.59 614.82 314.34 790.40 297.70 699.67 385.04 642.01 504.70 789.07 490.63
00007176 DELETE   523.52 77.12 388.38 553.21 628.11 300.94 809.47 282.98 730.76 365.37 661.24 498.66 807.38 482.58
00007177 00000007 546.89 58.32 374.57 559.69 649.16 293.17 835.08 286.83 750.10 363.64 685.37 486.77 823.88 483.03
00007178 00000008 551.85 62.72 375.38 558.17 658.56 298.93 839.06 290.73 762.58 366.13 697.60 488.83 834.15 483.04
00007179 00000009 561.79 80.41 377.49 558.86 666.21 302.10 847.16 296.04 770.91 368.01 698.91 497.44 838.98 493.07
00007180 00000010 580.18 74.15 367.15 580.74 673.22 309.85 863.57 302.48 779.02 381.80 701.46 515.83 859.33 511.32
00007181 00000011 585.55 85.76 373.25 579.08 687.25 311.75 881.15 308.20 803.09 399.88 713.19 526.24 872.10 523.24
00007182 00000012 595.32 86.44 377.61 570.78 707.61 318.02 894.70 318.38 824.13 408.01 731.17 527.03 883.05 528.37
00007183 00000013 616.46 85.89 373.15 562.59 725.90 318.65 912.18 316.56 840.06 413.36 747.93 521.74 899.14 520.88
00007184 00000014 630.35 91.14 369.51 559.13 747.76 311.60 927.00 317.33 858.36 400.02 773.67 514.44 911.17 519.37
00007185 00000015 642.23 88.83 368.74 563.32 756.25 313.20 936.23 319.11 867.06 402.69 778.32 514.39 923.02 519.22
00007186 00000016 642.64 87.33 371.36 574.49 757.76 312.47 942.95 321.00 872.46 400.94 776.33 517.48 927.39 524.48
00007187 00000017 638.03 85.74 374.70 582.35 751.01 309.34 942.32 319.78 868.02 397.75 765.32 516.47 928.30 525.17
00007188 00000018 637.01 88.03 372.05 573.89 742.34 311.19 937.34 321.09 855.54 396.91 755.86 515.34 923.82 523.78
00007189 00000019 629.62 89.97 370.58 565.62 731.06 317.61 921.33 321.37 839.53 401.75 752.02 516.65 912.29 519.96
00007190 00000020 619.48 89.02 370.48 557.32 714.42 325.97 902.07 316.29 814.12 410.77 741.14 525.81 892.65 518.39
00007191 00000021 605.74 88.04 373.63 565.48 697.38 327.01 882.38 315.97 797.35 411.59 730.48 533.82 875.22 524.72
00007192 00000022 590.39 89.39 366.58 584.10 678.72 325.88 861.57 315.76 777.20 407.45 713.24 536.94 855.37 528.96
00007193 00000023 572.50 85.02 375.41 584.63 661.59 325.87 848.79 313.16 761.43 410.74 700.77 535.71 843.65 525.23
00007194 00000024 563.46 87.99 375.85 573.15 648.06 326.79 839.57 314.58 749.33 412.31 687.69 530.86 834.14 521.38
00007195 00000025 562.30 88.91 382.00 571.48 651.69 322.87 839.76 312.04 753.92 410.07 692.15 529.44 832.79 520.67
00007196 00000026 564.55 86.29 382.40 574.43 659.61 321.45 846.66 314.00 762.65 408.28 697.77 527.37 838.55 520.95
00007197 00000027 569.07 83.91 384.61 583.45 669.77 324.16 853.44 315.77 776.07 413.18 710.24 530.86 849.67 523.08
00007198 00000028 571.16 83.64 383.97 592.44 672.72 329.24 858.26 318.50 779.10 416.77 712.02 539.60 855.19 530.11
00007199 00000029 575.22 86.84 381.81 598.15 671.06 337.58 858.78 325.62 777.10 427.11 710.31 545.74 863.36 534.74
00007200 00000030 576.60 90.28 378.61 595.74 670.51 345.98 856.31 333.50 775.15 435.87 714.09 550.56 864.70 539.25
00007201 00000031 580.25 92.39 380.43 587.06 674.48 349.15 859.25 335.58 778.23 436.38 718.81 550.08 867.27 537.90
00007202 00000032 585.65 93.23 383.00 580.99 682.02 346.17 864.15 333.04 785.00 432.70 724.76 546.26 869.72 534.62
00007203 00000033 591.59 94.04 386.11 577.09 688.44 342.05 870.67 327.95 791.55 431.21 728.84 543.95 874.04 531.74
00007204 00000034 598.51 90.54 387.21 576.45 698.70 338.45 884.57 323.15 803.73 428.16 738.70 542.70 885.34 529.59
00007205 00000035 608.39 90.80 386.22 580.77 719.81 338.72 903.32 324.97 832.48 426.36 757.92 546.41 900.49 535.67
00007206 00000036 625.69 87.28 386.48 588.47 744.50 346.03 921.01 346.45 851.52 424.14 776.86 542.71 908.98 542.58
00007207 DELETE   635.01 84.29 387.45 598.16 757.89 343.07 937.05 341.97 874.06 426.68 796.06 549.51 930.74 547.87
00007208 00000038 643.31 87.27 382.45 606.23 764.52 348.44 944.93 344.54 880.97 438.48 799.06 559.87 936.22 556.46
00007209 00000039 648.21 93.30 381.41 612.35 763.84 352.95 950.75 347.94 881.37 446.74 795.80 565.99 942.99 561.92
00007210 00000040 645.91 96.98 385.82 605.69 765.01 354.87 954.76 349.99 886.21 451.30 800.00 567.09 947.30 563.01
00007211 00000041 646.32 97.50 387.07 600.22 767.39 357.54 954.38 350.11 887.90 451.48 805.70 565.61 950.75 559.17
00007212 00000042 646.90 98.27 388.27 600.83 768.68 358.09 955.36 349.78 890.49 451.18 807.85 566.35 954.27 559.09
00007213 00000043 650.55 100.83 385.97 601.33 771.06 357.34 957.46 349.66 892.44 451.01 809.94 568.68 955.30 561.94
00007214 00000044 648.75 99.61 385.59 603.46 770.75 356.12 957.14 349.41 893.43 451.30 809.56 570.07 952.23 564.37
00007215 00000045 642.48 95.60 389.36 602.33 769.68 354.74 955.43 348.63 893.64 451.31 811.97 569.52 950.39 563.91
00007216 00000046 641.23 91.51 387.77 604.60 769.87 352.68 952.93 346.03 892.75 448.87 812.09 568.76 946.37 562.61
00007217 00000047 639.41 92.08 382.50 598.70 768.90 349.63 946.58 344.98 889.89 440.17 809.55 563.98 936.46 559.82
00007218 00000048 641.80 90.16 379.02 595.22 766.88 345.07 942.84 341.58 885.27 434.25 806.30 556.41 934.53 553.22
00007219 00000049 639.29 89.67 381.04 592.37 762.83 342.36 939.90 338.85 880.87 431.31 802.54 549.77 935.43 546.25
00007220 00000050 638.95 91.83 379.21 591.25 758.97 344.23 936.84 338.92 877.17 432.69 800.94 549.42 935.50 544.25
00007221 00000051 635.49 93.31 379.07 590.02 755.38 345.99 933.20 338.53 874.28 433.33 800.29 549.27 935.43 542.04
00007222 00000052 631.73 95.30 380.75 586.90 754.96 346.85 931.41 339.50 874.21 434.82 802.07 552.50 931.60 545.55
00007223 00000053 629.57 94.91 382.44 586.41 756.20 347.49 932.17 339.29 877.65 437.50 804.84 556.20 930.44 548.70
00007224 00000054 630.45 94.77 383.17 588.18 755.69 349.90 933.75 340.53 876.41 440.54 805.03 557.60 933.67 549.01
00007225 00000055 633.10 96.16 383.07 591.12 755.34 354.29 934.99 343.15 875.57 444.40 804.74 560.76 936.86 550.81
00007226 00000056 638.41 97.86 378.44 587.80 755.76 353.27 937.59 342.62 875.21 442.61 804.51 558.02 940.13 548.46
00007227 00000057 639.83 96.00 376.97 584.30 754.68 348.35 939.58 341.85 874.12 437.53 799.42 548.95 943.46 542.40
00007228 00000058 634.62 95.23 380.70 585.91 751.12 345.71 937.03 338.89 872.16 436.32 794.45 548.26 940.42 541.37
00007229 00000059 626.14 93.91 383.42 586.62 748.16 345.85 928.78 338.07 870.05 437.17 793.72 552.80 928.10 545.82
00007230 00000060 625.12 93.75 374.37 582.57 744.32 342.81 918.40 336.01 860.73 435.74 788.13 552.93 912.50 547.87
00007231 00000061 619.01 91.18 377.22 577.30 727.78 335.18 911.30 326.99 845.90 433.28 767.55 550.56 904.45 543.71
00007232 00000062 614.22 87.55 374.38 578.47 721.57 328.91 905.85 319.04 838.83 419.34 758.82 542.45 897.79 535.08
00007233 00000063 604.27 82.69 379.15 580.05 721.76 323.43 905.21 314.44 845.47 410.59 760.51 538.23 900.01 531.67
00007234 00000064 608.30 83.57 375.46 579.04 727.08 326.16 906.97 316.32 850.66 410.88 763.13 533.97 904.96 526.77
00007235 00000065 611.42 81.59 372.92 581.02 726.03 331.52 907.33 318.86 850.13 418.19 763.06 535.18 909.55 525.73
00007236 00000066 611.35 84.66 373.29 581.31 730.06 334.78 908.58 323.36 855.78 421.04 766.72 539.86 910.35 531.46
00007237 00000067 617.07 90.30 369.92 580.23 741.18 332.36 914.36 324.99 868.07 415.39 777.89 539.82 915.51 534.34
00007238 00000068 621.86 92.43 364.28 572.23 753.76 324.21 918.12 321.29 880.00 402.41 797.93 531.67 919.27 529.66
00007239 00000069 624.85 89.02 362.14 566.12 755.58 319.61 918.50 314.93 878.56 393.97 798.45 517.23 921.82 514.29
00007240 00000070 628.56 81.54 357.76 556.07 745.58 314.09 916.41 306.98 871.61 393.26 781.56 511.34 920.49 505.84
00007241 00000071 620.80 78.86 363.67 553.66 734.14 315.37 914.97 307.34 859.12 395.37 770.79 513.06 915.95 506.61
00007242 00000072 611.09 79.13 371.72 552.20 729.79 315.63 915.16 308.18 858.25 398.75 764.00 512.62 914.96 506.52
00007243 00000073 612.38 85.16 371.25 555.57 730.09 319.18 915.09 312.11 857.39 401.12 762.52 516.41 915.77 510.89
00007244 00000074 618.90 84.34 367.10 578.69 729.81 323.44 913.72 317.45 852.39 408.47 755.60 525.63 912.22 521.76
00007245 00000075 613.93 85.91 370.79 580.20 729.04 325.05 913.86 319.01 854.35 410.98 755.39 530.37 910.99 526.74
00007246 00000076 615.52 86.03 370.26 574.27 730.02 330.06 917.09 323.22 855.60 418.57 760.69 535.01 914.22 529.77
00007247 00000077 614.18 88.66 372.66 573.97 730.42 331.49 916.90 323.38 857.35 419.52 763.15 538.06 915.02 531.82
00007248 00000078 617.54 88.49 371.38 576.32 730.00 330.41 917.00 321.42 855.39 416.90 763.86 538.42 915.78 531.50
00007249 00000079 618.12 88.03 370.97 574.99 730.05 329.16 916.39 320.54 854.88 414.88 762.84 535.23 914.79 528.66
00007250 00000080 618.57 88.12 370.89 569.14 729.98 329.30 917.80 320.82 854.22 415.87 763.29 533.41 915.83 526.67
00007251 00000081 616.39 90.31 373.89 566.81 730.66 331.60 917.28 322.08 855.66 418.88 763.66 533.70 916.67 525.91
00007252 00000082 618.76 90.62 372.86 568.33 731.82 332.59 918.06 321.92 856.80 419.67 766.18 536.75 916.92 528.06
00007253 00000083 620.85 92.00 371.96 573.19 734.55 332.42 918.84 322.70 859.32 418.06 770.04 539.28 918.19 531.24
00007254 00000084 617.51 93.16 376.01 576.06 736.16 331.60 918.49 323.89 861.46 417.11 772.75 540.84 917.45 534.54
00007255 00000085 618.52 92.30 375.00 580.20 742.11 332.82 918.33 328.60 863.75 413.14 779.07 538.50 913.48 535.31
00007256 00000086 619.02 92.67 375.48 580.29 742.18 332.73 920.06 329.44 864.11 413.50 778.05 538.07 914.91 535.52
00007257 00000087 621.35 92.04 375.43 581.40 741.98 332.43 922.77 330.94 864.04 414.22 776.31 537.03 917.80 535.67
00007258 00000088 620.30 93.12 376.75 577.04 740.64 331.84 923.96 331.15 864.23 414.19 776.34 535.47 921.65 534.58
00007259 00000089 621.01 94.20 376.47 573.45 740.51 332.12 924.92 331.08 864.59 415.26 777.11 535.16 923.68 533.95
00007260 00000090 622.43 93.36 376.36 574.23 742.20 332.37 924.70 331.40 865.99 414.87 779.16 534.65 924.69 533.29
00007261 00000091 621.04 94.76 377.42 570.50 743.63 335.27 921.89 330.71 865.71 416.80 785.16 537.42 921.20 533.32
00007262 00000092 621.70 93.65 376.44 574.70 743.47 335.37 923.73 330.90 867.58 418.59 785.59 541.14 922.02 537.22
00007263 00000093 624.82 99.39 373.52 571.63 748.20 342.06 922.09 337.64 868.69 422.31 785.43 544.06 917.40 540.59
00007264 00000094 624.06 95.90 373.90 576.44 748.59 346.36 922.01 343.73 867.70 423.11 782.08 541.35 918.48 539.20
00007265 00000095 623.28 96.51 377.46 576.73 747.97 341.96 924.99 341.53 867.27 421.42 779.77 538.43 920.17 537.96
00007266 00000096 624.66 96.30 376.34 579.10 746.92 340.13 926.12 338.74 868.84 422.17 780.21 539.93 922.01 538.46
00007267 00000097 627.91 92.47 373.93 585.79 746.05 338.12 926.76 335.58 869.73 423.56 781.19 542.61 924.16 539.92
00007268 00000098 627.91 92.41 373.94 589.48 744.37 335.94 927.34 334.29 869.98 423.60 778.99 544.09 925.22 541.91
00007269 00000099 628.30 91.73 373.70 590.84 744.50 335.04 926.64 332.65 870.47 423.83 779.82 544.22 925.29 541.37
00007270 00000100 628.28 92.29 373.98 588.85 744.41 334.67 926.95 331.44 871.08 422.94 780.71 544.52 925.42 541.12
00007271 00000101 629.12 92.71 372.85 588.37 745.15 333.28 926.25 330.71 870.57 420.27 780.74 542.50 924.19 539.75
00007272 00000102 626.84 92.15 374.43 587.77 743.93 332.78 924.71 330.15 868.45 418.70 781.17 542.32 921.68 539.62
00007273 00000103 624.87 91.10 375.68 589.05 741.51 332.01 924.29 329.73 864.91 418.36 777.87 542.21 919.28 539.99
00007274 00000104 622.74 92.27 377.61 588.02 738.19 331.89 923.67 330.23 859.28 418.53 773.95 542.04 916.98 540.37
00007275 00000105 622.42 91.13 376.85 589.90 737.24 331.43 920.65 331.52 855.46 419.76 771.01 542.35 912.69 542.32
00007276 00000106 620.62 91.83 377.05 589.63 735.50 330.10 919.00 330.75 852.83 418.95 768.69 541.61 910.39 542.23
00007277 00000107 621.06 97.46 376.67 583.33 728.79 334.12 917.22 323.39 849.32 422.17 763.63 548.86 913.82 539.80
00007278 00000108 621.78 93.88 374.94 585.83 728.49 332.61 916.16 322.22 848.38 420.56 761.57 545.56 913.80 536.91
00007279 00000109 621.70 92.06 374.17 586.90 729.04 332.42 915.14 321.46 849.27 419.33 760.96 542.24 914.54 533.31
00007280 00000110 624.54 90.52 372.60 590.72 728.59 331.97 917.20 319.23 847.92 416.97 760.64 541.61 917.30 531.61
00007281 00000111 622.81 90.48 373.69 590.71 726.87 329.81 915.87 317.77 845.23 415.80 756.47 538.01 915.57 528.62
00007282 00000112 621.16 89.32 372.15 587.57 723.51 328.91 913.80 316.52 840.56 412.95 752.07 535.03 913.33 525.58
00007283 00000113 619.05 88.82 372.62 581.99 720.19 327.42 911.65 313.75 836.17 410.88 750.24 533.25 911.83 522.87
00007284 00000114 617.69 88.36 371.87 579.80 719.21 324.77 910.25 311.55 833.45 408.36 748.93 529.78 910.37 519.50
00007285 00000115 614.09 85.11 373.06 583.13 716.12 322.62 906.58 308.04 831.79 404.50 748.69 529.99 907.57 518.94
00007286 00000116 607.69 81.99 378.78 581.87 713.36 321.94 903.61 305.77 834.33 406.66 751.96 533.39 905.65 520.26
00007287 00000117 607.72 80.79 378.66 578.56 712.04 323.85 902.60 306.69 831.36 408.49 750.02 530.95 906.39 516.95
00007288 00000118 607.82 79.44 378.89 581.80 709.67 323.25 900.90 303.51 827.49 407.58 747.32 529.11 908.62 512.67
00007289 00000119 607.80 78.14 379.79 577.52 707.29 323.99 901.61 303.82 824.55 407.80 744.16 526.36 910.92 509.42
00007290 00000120 605.96 77.29 381.14 567.67 706.53 324.60 903.91 306.41 826.17 411.22 742.47 523.52 912.51 508.32
00007291 00000121 605.85 77.37 380.98 561.29 707.40 324.80 905.62 307.81 828.06 413.04 742.42 520.42 914.32 506.13
00007292 00000122 604.71 80.67 382.68 560.35 707.96 327.21 906.70 310.67 830.58 415.13 744.20 522.44 915.98 508.46
00007293 00000123 597.22 86.68 389.27 571.02 706.10 335.00 901.63 316.57 830.60 421.32 742.33 529.67 914.43 514.43
00007294 00000124 589.92 95.79 389.05 590.93 698.13 347.76 885.50 324.52 823.18 437.68 739.52 549.01 903.39 529.37
00007295 00000125 577.07 106.27 391.97 607.53 688.10 369.32 872.51 333.71 819.71 458.03 742.24 583.76 891.94 551.50
00007296 00000126 569.41 120.82 388.18 603.68 676.85 389.76 857.68 347.35 808.35 479.43 745.38 604.39 886.00 567.45
00007297 00000127 560.85 134.16 391.31 599.93 669.35 403.57 858.12 360.82 806.16 490.77 740.06 615.09 888.35 578.41
00007298 00000128 557.10 140.02 391.04 604.30 669.44 411.18 854.04 369.61 803.86 501.34 737.34 619.56 883.71 583.67
00007299 00000129 553.20 143.59 391.42 608.81 667.83 414.22 853.33 373.12 804.02 505.84 733.86 622.51 883.41 587.05
00007300 00000130 548.13 149.16 393.95 609.23 662.51 416.08 848.44 375.97 799.21 509.38 727.20 624.48 880.96 590.17
00007301 00000131 540.94 149.26 394.28 609.26 654.90 416.49 840.46 376.90 791.96 510.83 718.64 623.33 877.03 589.59
00007302 00000132 537.56 145.85 392.67 610.38 651.15 412.22 837.24 373.02 789.19 507.80 716.07 622.71 874.06 589.15
00007303 00000133 531.55 148.82 398.20 597.24 647.10 411.48 836.02 370.74 787.88 506.10 707.40 621.73 865.29 587.76
00007304 00000134 528.85 144.29 397.18 596.32 644.00 410.32 831.66 369.00 782.74 501.17 705.27 619.46 859.60 585.77
00007305 00000135 522.99 138.29 399.04 595.94 639.10 410.08 826.31 369.53 776.47 497.94 701.14 617.24 852.72 584.10
00007306 00000136 519.90 133.26 400.51 594.67 635.07 404.15 825.07 367.04 770.94 495.57 694.58 611.80 847.74 581.19
00007307 00000137 518.78 128.70 399.51 593.04 631.39 399.14 821.98 364.27 763.98 493.37 689.13 606.70 842.23 577.70
00007308 00000138 513.58 127.83 401.12 603.19 631.56 396.66 816.79 364.02 756.86 493.53 686.29 605.90 835.59 577.71
00007309 00000139 517.69 123.48 400.36 597.91 629.11 387.55 817.46 355.18 755.86 484.13 685.12 601.00 832.31 573.27
00007310 00000140 520.51 121.60 401.38 601.57 625.96 382.58 817.74 350.85 748.15 482.63 678.62 597.61 832.48 570.06
00007311 00000141 523.55 116.75 399.43 604.90 623.80 378.41 815.40 343.78 743.02 474.36 677.38 594.98 831.47 564.55
00007312 00000142 527.54 114.64 397.01 609.49 623.49 374.65 811.72 340.57 737.65 472.50 674.16 589.62 830.54 560.63
00007313 00000143 527.58 110.55 398.12 595.83 622.43 372.76 810.53 334.27 735.72 462.64 677.11 578.34 834.27 545.32
00007314 00000144 534.05 100.10 401.78 590.10 624.89 361.60 819.63 325.35 740.25 448.55 688.61 561.56 854.01 531.05
CROP_BBOX: 263 0 1243 898
