Video ID: 	Cf-DGhK939o
H: 	1080
W: 	1920
FPS: 	23.976023976023978

FRAME INDEX X0 Y0 W H [Landmarks (5 Points)]

00000892 00000000 1078.90 145.04 418.24 663.93 1184.37 409.48 1383.42 415.35 1277.29 541.10 1176.09 602.34 1395.88 605.81
00000893 DELETE   1075.93 138.80 418.18 657.58 1179.73 403.79 1376.08 406.73 1272.50 535.02 1177.47 599.07 1389.00 599.60
00000894 DELETE   1072.43 136.56 420.45 651.53 1175.44 403.30 1369.05 404.06 1270.04 535.50 1177.80 597.90 1384.48 596.77
00000895 00000003 1070.44 137.60 420.01 646.34 1174.27 406.36 1366.73 405.27 1270.60 537.60 1179.48 600.57 1381.60 597.96
00000896 DELETE   1072.99 139.62 416.73 643.90 1175.05 409.44 1367.00 406.50 1271.38 537.74 1185.71 608.00 1378.74 603.98
00000897 00000005 1072.77 142.01 418.84 645.99 1174.74 413.75 1368.90 409.81 1272.58 539.14 1191.73 622.16 1373.94 617.57
00000898 DELETE   1074.21 146.99 418.76 644.08 1177.31 426.54 1375.54 425.25 1274.84 551.38 1197.65 638.07 1370.43 636.18
00000899 DELETE   1075.75 153.20 414.49 646.92 1178.15 436.83 1372.41 439.22 1270.89 561.95 1199.25 650.68 1361.45 651.71
00000900 00000008 1077.33 156.00 411.17 641.99 1175.45 440.18 1370.36 448.15 1263.92 568.72 1196.31 656.51 1352.63 662.20
00000901 00000009 1074.19 159.53 412.68 642.75 1172.53 439.13 1367.43 450.12 1259.59 569.53 1190.49 658.55 1344.69 667.27
00000902 00000010 1072.62 159.93 410.93 642.27 1167.45 437.50 1362.51 450.88 1253.02 566.26 1181.96 655.77 1338.11 666.68
00000903 00000011 1070.62 160.12 410.49 640.53 1162.59 435.68 1358.05 451.72 1245.20 564.04 1174.20 651.67 1333.49 664.55
00000904 00000012 1068.48 160.38 409.99 643.43 1157.23 434.28 1353.34 452.17 1236.05 562.53 1165.80 650.13 1327.62 664.40
00000905 00000013 1066.52 160.43 408.92 640.77 1155.36 433.12 1351.14 452.62 1231.28 560.17 1160.95 647.36 1322.25 663.04
00000906 00000014 1063.45 159.62 408.25 640.79 1153.44 433.08 1349.19 452.77 1229.89 559.02 1157.81 645.50 1319.79 661.18
00000907 00000015 1062.78 158.59 408.60 638.78 1153.49 432.91 1348.73 452.59 1229.86 557.53 1158.35 644.38 1319.27 660.01
00000908 00000016 1062.69 157.55 410.33 641.50 1154.99 432.47 1351.62 452.29 1231.85 554.60 1159.22 643.23 1322.64 658.96
00000909 DELETE   1060.87 156.21 413.39 644.37 1156.97 431.92 1355.07 450.30 1239.36 553.82 1161.15 641.67 1329.47 655.97
00000910 00000018 1060.46 155.67 415.70 649.32 1159.42 433.28 1358.50 449.86 1245.81 555.80 1165.08 644.28 1335.16 657.13
00000911 00000019 1059.11 154.46 417.84 653.67 1162.24 435.20 1361.91 449.09 1253.37 555.61 1169.20 645.49 1340.62 656.14
00000912 00000020 1061.35 152.23 416.76 660.26 1165.49 433.08 1365.98 445.62 1259.40 556.20 1172.66 646.41 1346.13 656.11
00000913 00000021 1059.78 148.73 417.27 666.86 1167.54 432.50 1367.27 443.41 1264.43 555.42 1175.20 646.07 1350.04 654.22
00000914 00000022 1057.35 148.38 419.49 669.69 1168.11 430.86 1367.82 440.71 1267.52 550.74 1175.40 642.54 1355.27 649.38
00000915 00000023 1056.69 149.35 418.86 677.26 1167.61 428.30 1367.08 436.52 1268.34 547.48 1173.24 640.07 1361.46 645.33
00000916 00000024 1057.02 153.35 416.67 680.19 1169.26 428.21 1359.16 434.98 1272.03 542.83 1172.32 639.52 1359.45 642.85
00000917 00000025 1052.28 150.33 419.18 681.51 1165.40 425.19 1356.13 431.78 1269.70 539.23 1168.90 639.31 1356.06 642.69
00000918 00000026 1051.68 151.67 414.24 678.71 1163.62 422.21 1355.42 429.70 1265.93 535.24 1169.84 646.94 1342.46 651.35
00000919 00000027 1051.23 145.87 414.03 665.29 1160.71 417.81 1351.79 427.00 1257.45 533.13 1169.62 641.33 1332.24 648.96
00000920 00000028 1051.39 144.59 410.12 650.67 1157.19 416.99 1350.08 428.96 1252.13 530.45 1169.23 636.08 1325.09 645.74
00000921 00000029 1050.13 143.83 408.52 646.86 1154.33 413.89 1349.60 427.07 1247.34 529.83 1164.18 633.15 1321.17 643.64
00000922 00000030 1047.97 140.01 410.09 648.94 1150.75 411.61 1347.72 427.09 1241.39 526.98 1157.64 628.83 1318.13 640.87
00000923 DELETE   1045.12 136.10 410.20 657.51 1148.35 410.32 1344.98 425.61 1237.91 523.72 1152.45 626.03 1317.69 637.61
00000924 00000032 1044.32 135.62 410.08 660.27 1146.47 409.09 1342.28 424.72 1232.67 522.30 1146.78 624.12 1315.23 635.89
00000925 00000033 1042.17 135.07 411.11 664.07 1144.61 411.16 1339.63 426.67 1230.09 523.74 1144.33 624.86 1314.43 636.41
00000926 00000034 1041.55 138.90 410.14 658.54 1143.15 415.56 1338.60 430.94 1229.13 529.64 1141.95 625.14 1314.54 636.71
00000927 00000035 1040.26 142.35 408.98 648.51 1138.07 420.22 1334.29 435.32 1224.27 536.29 1137.14 621.15 1315.61 632.22
00000928 00000036 1038.62 146.14 409.38 639.85 1134.38 424.13 1332.73 439.05 1221.11 540.71 1133.23 617.65 1317.99 628.35
00000929 00000037 1036.42 147.19 415.54 642.26 1132.43 428.48 1327.08 440.85 1218.22 542.06 1134.34 615.00 1318.50 624.79
00000930 00000038 1033.81 149.26 418.21 641.24 1131.42 429.86 1327.36 441.71 1219.33 544.63 1132.43 610.32 1324.27 619.62
00000931 00000039 1030.99 151.50 420.60 638.73 1129.63 430.01 1328.10 441.16 1218.94 546.15 1129.23 607.84 1327.42 616.68
00000932 00000040 1029.64 151.19 421.77 637.58 1127.49 429.80 1327.57 441.00 1216.49 546.66 1126.44 606.30 1327.66 615.32
00000933 00000041 1028.90 151.57 422.54 637.31 1125.17 428.68 1326.30 440.37 1213.92 546.34 1123.42 604.58 1327.68 614.11
00000934 00000042 1030.38 152.70 418.96 633.48 1124.26 428.89 1324.84 441.53 1211.85 545.74 1122.34 604.44 1324.38 614.80
00000935 00000043 1027.72 156.05 408.63 628.02 1123.40 432.27 1317.63 437.35 1210.89 556.35 1122.44 613.01 1319.03 616.66
00000936 00000044 1029.71 152.75 406.97 638.44 1125.32 430.49 1317.43 438.40 1211.91 555.05 1127.63 621.66 1312.65 627.88
00000937 00000045 1031.41 150.42 405.00 640.97 1126.32 430.81 1317.10 438.30 1212.66 554.98 1133.29 629.40 1307.42 635.30
00000938 00000046 1032.62 149.51 403.86 635.60 1126.91 430.52 1316.27 438.16 1211.68 553.00 1134.92 629.75 1303.32 635.96
00000939 00000047 1032.93 148.98 404.08 635.66 1126.02 430.09 1316.37 438.09 1210.05 553.77 1134.52 630.03 1303.31 636.40
00000940 00000048 1032.93 148.06 404.25 635.22 1125.25 429.42 1316.37 438.57 1208.85 553.92 1133.80 630.30 1302.01 637.58
00000941 00000049 1032.57 147.74 404.03 634.07 1124.97 429.85 1316.36 439.36 1208.20 553.58 1133.55 630.80 1301.10 638.31
00000942 00000050 1033.71 147.56 404.11 634.56 1125.41 430.29 1316.39 440.51 1207.74 554.41 1133.65 631.34 1300.22 639.40
00000943 00000051 1038.30 148.41 408.24 640.26 1130.93 428.64 1327.58 447.41 1214.07 548.29 1132.39 630.74 1300.76 645.87
00000944 00000052 1038.91 149.45 408.19 639.69 1131.56 430.89 1328.29 449.13 1214.82 550.34 1134.51 633.33 1300.73 648.20
00000945 00000053 1039.57 151.60 408.73 636.09 1132.02 431.59 1329.80 449.09 1215.42 550.41 1135.35 632.53 1303.73 646.61
00000946 00000054 1039.96 152.30 408.68 635.55 1133.28 431.36 1330.78 449.12 1217.24 549.99 1135.59 630.96 1305.49 645.12
00000947 00000055 1040.29 151.86 409.41 634.07 1133.21 431.85 1331.76 448.92 1218.36 550.91 1137.30 631.45 1307.65 644.98
00000948 00000056 1040.13 151.90 409.96 634.64 1133.02 432.27 1332.72 449.46 1218.58 551.44 1136.63 631.26 1309.24 644.76
00000949 00000057 1038.89 153.15 410.79 631.72 1132.05 430.89 1333.43 448.82 1217.93 550.83 1133.59 627.44 1311.95 641.26
00000950 00000058 1039.29 153.77 409.76 631.84 1132.43 429.74 1332.36 447.68 1217.55 550.17 1130.91 620.62 1317.19 634.08
00000951 00000059 1038.20 153.32 409.65 630.93 1130.73 430.14 1331.91 445.67 1217.97 550.86 1128.55 614.40 1324.43 625.56
00000952 00000060 1035.93 148.28 416.22 641.62 1126.89 428.27 1324.85 444.25 1211.14 546.43 1126.07 610.86 1319.04 623.80
00000953 00000061 1032.00 154.60 408.59 629.17 1124.55 431.98 1321.31 438.48 1211.35 557.77 1123.17 615.05 1320.36 619.94
00000954 00000062 1036.49 152.66 410.73 648.33 1128.68 429.65 1328.31 444.22 1213.91 551.67 1122.88 614.32 1326.83 624.27
00000955 00000063 1034.65 154.31 410.33 653.77 1129.01 431.57 1324.94 448.08 1210.42 552.65 1123.70 619.51 1320.10 631.18
00000956 00000064 1030.79 164.13 402.79 644.44 1123.13 433.61 1316.19 447.52 1204.52 561.78 1122.52 626.97 1311.03 637.82
00000957 00000065 1029.93 163.09 401.46 643.03 1120.64 432.94 1313.78 448.60 1199.79 561.96 1121.89 628.99 1305.96 641.16
00000958 00000066 1030.04 159.04 400.77 638.64 1117.25 429.30 1308.17 446.09 1193.12 558.44 1119.41 625.24 1298.18 638.44
00000959 00000067 1028.32 153.42 400.46 636.64 1114.01 425.29 1302.07 442.74 1186.77 551.80 1116.92 622.56 1290.20 636.27
00000960 00000068 1026.61 154.38 401.23 637.61 1110.27 424.13 1298.03 439.54 1181.73 547.62 1114.58 623.39 1287.17 635.25
00000961 00000069 1026.33 153.56 401.22 638.90 1109.53 422.80 1297.11 437.68 1180.63 545.01 1114.07 623.20 1286.30 634.65
00000962 00000070 1026.51 152.07 401.48 639.08 1109.70 422.17 1297.61 435.80 1181.04 542.70 1114.98 622.86 1286.96 633.18
00000963 00000071 1028.02 151.28 400.65 638.48 1111.26 422.15 1300.36 434.80 1183.74 543.06 1116.34 622.38 1290.37 631.95
00000964 00000072 1029.59 150.67 401.02 642.44 1113.14 420.40 1303.30 431.85 1187.35 541.20 1118.71 621.45 1296.02 629.99
00000965 00000073 1032.57 151.52 399.75 650.46 1116.94 417.50 1306.80 427.93 1191.89 538.99 1118.55 619.64 1301.07 627.52
00000966 00000074 1034.87 150.03 398.84 658.45 1121.02 415.77 1311.08 425.66 1197.41 536.39 1120.22 619.53 1306.16 627.04
00000967 00000075 1036.58 145.84 402.08 662.83 1124.59 413.52 1316.27 423.82 1201.68 533.25 1122.29 617.34 1311.68 625.29
00000968 00000076 1039.28 143.77 401.48 669.91 1128.94 411.16 1319.37 421.40 1206.35 532.37 1126.09 616.94 1316.62 624.58
00000969 00000077 1035.92 137.58 411.74 674.44 1134.62 409.03 1323.54 420.13 1211.44 528.28 1127.84 614.82 1315.68 622.24
00000970 00000078 1037.11 135.22 412.81 676.26 1137.91 406.23 1326.15 417.16 1214.85 526.03 1130.90 612.93 1318.51 620.15
00000971 00000079 1037.56 132.19 413.22 679.42 1140.04 401.52 1325.71 412.61 1216.02 521.83 1133.31 612.16 1318.07 619.59
00000972 00000080 1038.72 130.86 412.88 679.72 1140.76 400.07 1327.10 410.87 1216.61 519.28 1133.81 611.61 1318.79 618.80
00000973 00000081 1039.20 129.62 413.18 681.16 1140.78 398.20 1328.35 408.80 1217.75 517.77 1133.11 609.87 1321.24 616.79
00000974 00000082 1040.37 131.24 410.61 669.19 1141.48 399.70 1328.78 410.53 1219.19 518.42 1133.27 605.26 1321.12 612.23
00000975 00000083 1040.79 133.09 408.87 652.47 1140.38 402.50 1331.51 415.39 1219.87 521.15 1131.68 600.33 1322.18 609.06
00000976 00000084 1036.93 131.23 416.16 654.04 1135.09 405.02 1328.85 417.29 1214.18 516.48 1132.63 598.35 1322.65 607.64
00000977 00000085 1038.57 134.04 414.89 650.03 1133.49 409.66 1327.91 420.87 1213.88 520.26 1132.60 599.80 1322.90 608.45
00000978 00000086 1038.64 135.92 414.61 650.66 1132.93 413.49 1327.26 423.69 1214.46 523.03 1132.69 602.83 1322.34 611.00
00000979 00000087 1038.93 139.66 414.26 647.70 1133.13 417.22 1327.19 427.46 1215.68 525.05 1131.97 603.71 1321.28 612.01
00000980 00000088 1039.36 141.27 414.87 651.24 1132.97 419.50 1327.18 430.87 1214.77 529.29 1131.40 606.61 1321.29 615.76
00000981 00000089 1037.65 142.09 416.66 658.38 1132.54 421.97 1327.59 433.72 1217.07 532.78 1129.88 608.39 1324.21 617.75
00000982 00000090 1036.98 147.98 414.06 674.41 1135.31 425.97 1331.08 438.35 1218.67 545.50 1127.09 622.86 1326.08 631.24
00000983 00000091 1043.17 156.26 407.80 683.30 1137.72 428.98 1326.06 438.21 1223.00 549.43 1135.94 632.82 1332.47 638.23
00000984 00000092 1042.82 158.78 407.88 681.58 1138.92 431.94 1326.34 440.85 1224.51 552.25 1137.50 635.46 1332.57 640.67
00000985 00000093 1037.43 152.55 413.86 673.60 1135.64 433.95 1330.39 446.31 1220.10 550.66 1130.42 627.28 1326.04 635.72
00000986 00000094 1037.32 151.11 414.19 650.00 1133.08 431.19 1333.84 443.01 1222.51 550.55 1131.72 619.14 1330.04 627.19
00000987 00000095 1038.53 148.21 417.52 644.32 1131.74 431.47 1329.57 441.72 1220.47 545.40 1135.41 614.60 1326.78 622.51
00000988 00000096 1038.58 146.05 420.19 644.47 1132.70 430.03 1330.61 438.82 1221.67 541.93 1136.63 612.16 1329.51 618.81
00000989 00000097 1039.72 145.91 422.45 641.46 1134.69 428.47 1332.17 434.40 1223.30 537.48 1139.59 609.78 1332.92 613.97
00000990 00000098 1041.21 143.71 423.66 642.70 1136.15 424.61 1332.88 430.05 1222.97 534.85 1141.73 608.16 1333.81 611.85
00000991 00000099 1040.03 142.31 425.20 640.32 1137.37 422.73 1334.09 427.39 1224.25 530.99 1143.69 606.22 1334.75 609.21
00000992 00000100 1043.67 141.39 423.07 640.42 1139.33 420.77 1333.83 426.48 1223.49 528.29 1144.44 605.93 1331.60 609.89
00000993 00000101 1045.55 135.81 422.18 650.22 1141.64 417.68 1336.95 425.34 1223.81 527.14 1147.86 614.33 1324.43 620.05
00000994 00000102 1047.28 138.14 417.71 641.56 1144.02 411.78 1347.25 424.42 1234.05 525.89 1149.97 621.95 1323.99 630.62
00000995 00000103 1051.32 137.82 413.09 639.73 1146.48 409.04 1346.00 421.18 1233.42 525.18 1155.72 626.08 1319.44 634.93
00000996 00000104 1054.49 136.54 410.49 638.57 1150.20 407.49 1345.43 420.14 1235.09 525.31 1159.38 627.75 1312.96 637.53
00000997 00000105 1055.91 133.57 411.90 643.01 1149.01 407.03 1348.69 419.96 1235.00 525.04 1156.59 628.26 1317.02 637.93
00000998 00000106 1055.91 136.48 411.67 641.01 1149.51 408.94 1350.14 423.70 1234.66 526.78 1155.38 629.09 1316.33 640.36
00000999 00000107 1057.88 140.93 411.02 645.07 1152.15 413.86 1347.02 429.10 1236.46 530.55 1159.30 630.38 1318.43 642.26
00001000 00000108 1058.97 143.90 409.74 650.16 1153.25 417.85 1346.10 431.94 1236.75 533.36 1158.68 629.75 1324.18 640.25
00001001 00000109 1058.46 145.67 410.36 648.79 1152.72 421.42 1344.26 433.29 1235.63 535.90 1158.33 627.22 1330.49 635.62
00001002 00000110 1059.30 145.41 411.57 653.07 1153.83 422.04 1345.48 434.01 1236.42 536.83 1157.65 626.32 1333.82 634.53
00001003 00000111 1059.74 142.45 413.88 659.56 1155.13 419.36 1347.23 431.14 1238.11 534.81 1156.61 624.84 1336.86 632.64
00001004 00000112 1061.27 140.68 413.08 653.33 1158.16 414.80 1349.51 428.06 1241.31 529.33 1159.28 616.27 1341.14 625.00
00001005 00000113 1061.75 135.40 412.97 651.12 1159.49 409.87 1349.97 422.88 1242.51 525.26 1161.24 607.90 1346.11 615.98
00001006 00000114 1061.97 134.29 414.08 644.59 1159.69 408.45 1352.20 419.12 1246.74 520.07 1163.91 603.08 1350.98 609.60
00001007 00000115 1062.61 133.71 414.99 651.91 1162.02 406.74 1351.43 416.36 1247.30 518.09 1165.06 603.31 1352.16 609.10
00001008 00000116 1063.08 133.31 415.54 657.17 1163.13 406.83 1350.31 415.73 1246.79 518.49 1165.30 605.06 1352.17 610.19
00001009 00000117 1063.11 134.26 414.29 653.25 1161.89 408.52 1349.85 417.03 1245.98 521.10 1164.90 604.62 1352.00 609.49
00001010 00000118 1063.27 136.58 412.77 646.19 1159.68 411.31 1348.65 419.92 1243.79 524.59 1164.96 605.21 1351.41 609.79
00001011 00000119 1063.09 139.75 411.92 641.88 1157.80 413.13 1347.63 422.38 1241.42 528.00 1163.12 605.84 1350.11 610.72
00001012 00000120 1062.64 142.13 411.64 636.59 1155.80 414.80 1346.73 422.73 1240.61 529.91 1163.36 606.66 1349.98 610.50
00001013 00000121 1062.74 142.11 411.35 635.28 1156.24 414.12 1346.82 422.36 1240.80 528.15 1163.74 605.64 1349.82 609.69
00001014 00000122 1062.09 140.32 411.18 635.80 1156.79 412.40 1346.02 419.66 1242.27 524.17 1164.18 602.96 1349.98 606.27
00001015 00000123 1062.30 139.02 411.61 634.92 1156.13 410.77 1345.36 416.39 1242.73 522.28 1164.86 600.38 1352.17 602.62
00001016 00000124 1062.91 136.80 412.13 636.66 1158.28 407.95 1346.29 414.21 1245.04 517.56 1166.06 598.41 1352.44 601.35
00001017 00000125 1062.42 132.08 413.18 646.63 1161.01 403.75 1346.11 410.21 1246.33 512.71 1165.96 597.61 1351.16 600.79
00001018 00000126 1061.17 124.57 415.20 664.39 1160.44 398.18 1344.09 401.73 1245.61 508.72 1163.66 599.62 1350.70 600.17
00001019 00000127 1060.79 119.12 415.76 672.05 1157.56 393.00 1343.23 393.34 1241.39 499.36 1163.14 599.45 1351.11 597.12
00001020 00000128 1059.13 112.98 415.04 676.31 1153.77 384.60 1343.85 384.03 1237.86 488.62 1159.99 595.73 1350.03 592.66
00001021 00000129 1057.60 108.69 413.12 679.52 1150.85 377.78 1339.36 377.11 1232.54 481.55 1154.77 590.71 1346.26 587.58
00001022 00000130 1051.27 104.31 409.70 678.34 1145.78 365.83 1332.87 368.47 1225.95 471.51 1145.92 580.92 1335.73 581.07
00001023 DELETE   1047.56 102.19 406.48 675.26 1137.82 354.54 1326.11 359.67 1213.77 462.55 1135.91 570.83 1323.19 573.68
00001024 DELETE   1043.20 103.47 402.78 665.51 1132.47 349.20 1321.68 355.75 1208.84 460.79 1131.72 562.03 1316.03 566.47
00001025 00000133 1031.53 100.83 409.68 639.52 1120.52 355.92 1319.02 357.13 1204.38 465.76 1124.50 561.28 1316.63 561.52
00001026 00000134 1029.72 99.82 408.80 639.21 1110.45 354.61 1310.05 352.16 1193.12 468.94 1121.91 563.75 1308.91 561.45
00001027 00000135 1020.82 105.20 416.86 626.96 1105.91 366.19 1306.59 361.36 1195.36 478.45 1120.49 565.95 1312.12 560.56
00001028 00000136 1020.44 106.48 417.15 627.13 1103.13 370.08 1302.32 365.99 1191.42 488.37 1120.27 571.52 1308.13 566.78
00001029 00000137 1018.53 108.04 418.66 629.55 1100.67 375.74 1299.94 368.51 1190.25 493.84 1121.80 582.60 1302.37 575.36
00001030 00000138 1019.25 110.53 413.71 635.72 1101.64 377.12 1295.92 367.09 1189.52 496.46 1130.76 599.21 1292.90 589.77
00001031 00000139 1020.81 112.69 409.57 644.87 1105.19 377.08 1291.58 365.64 1188.36 497.69 1136.44 609.23 1284.18 598.76
00001032 00000140 1019.30 111.83 407.00 651.33 1104.40 375.77 1288.13 363.34 1186.95 496.09 1137.04 612.28 1281.23 600.74
00001033 00000141 1018.24 108.66 406.52 652.88 1104.06 373.61 1286.77 362.38 1185.35 495.26 1136.63 612.71 1275.27 602.34
00001034 00000142 1019.62 106.58 405.15 652.67 1104.85 371.28 1288.11 361.23 1186.96 494.19 1136.89 611.75 1275.05 602.45
00001035 00000143 1020.90 104.38 404.43 653.40 1106.22 368.56 1291.91 360.83 1188.38 492.53 1134.76 608.92 1275.04 601.41
00001036 00000144 1020.84 103.22 404.69 651.02 1107.07 366.32 1294.26 360.22 1190.20 491.27 1134.29 606.74 1274.81 600.47
00001037 00000145 1022.47 101.76 402.54 648.43 1107.27 366.61 1295.87 360.09 1191.49 491.62 1134.61 605.62 1276.44 599.20
00001038 00000146 1024.56 100.06 400.57 646.29 1107.45 366.88 1297.37 360.57 1191.15 491.67 1134.12 603.75 1277.94 597.52
00001039 00000147 1023.56 98.87 402.69 646.05 1106.30 367.36 1298.21 360.90 1190.79 490.83 1133.53 601.29 1281.96 594.79
00001040 00000148 1022.73 99.87 403.68 644.40 1106.47 365.70 1298.14 359.46 1191.02 489.21 1133.51 598.94 1281.67 592.61
00001041 00000149 1023.54 102.14 408.76 649.89 1108.27 363.57 1302.55 357.91 1192.85 483.94 1131.45 593.73 1289.82 587.88
00001042 00000150 1029.18 103.56 407.77 655.31 1111.28 374.13 1306.78 367.57 1194.87 484.92 1129.41 591.30 1304.07 585.07
00001043 DELETE   1033.82 113.14 413.54 661.71 1121.21 386.67 1308.44 380.82 1200.89 487.54 1134.39 596.33 1314.49 590.08
00001044 00000152 1036.47 116.44 414.08 662.14 1126.41 395.56 1315.00 388.93 1209.81 498.01 1137.99 599.76 1324.83 592.30
00001045 00000153 1038.54 120.62 412.65 658.86 1131.46 402.42 1321.04 398.70 1218.08 513.52 1140.04 601.69 1331.25 596.28
00001046 00000154 1041.13 123.70 412.17 660.37 1136.05 408.30 1325.00 405.52 1222.80 520.98 1143.59 601.72 1337.25 596.83
00001047 DELETE   1042.33 126.82 418.80 664.58 1136.77 410.96 1329.86 408.48 1223.10 515.42 1146.52 598.54 1343.80 594.83
00001048 00000156 1044.21 126.71 413.02 663.88 1140.54 412.17 1330.84 408.91 1230.25 525.84 1147.89 601.88 1346.25 596.26
00001049 00000157 1044.28 125.19 416.12 670.91 1142.63 408.89 1333.23 405.19 1233.19 523.39 1147.73 601.51 1348.88 595.77
00001050 00000158 1042.93 124.62 419.20 679.08 1144.12 407.63 1334.07 403.73 1234.66 521.42 1147.16 603.04 1349.01 597.13
00001051 00000159 1044.35 123.78 420.99 683.47 1146.58 404.93 1336.16 402.29 1235.27 518.72 1148.86 604.90 1349.59 599.90
00001052 00000160 1047.05 125.18 417.91 677.24 1148.19 406.06 1338.20 405.89 1236.05 519.99 1149.79 604.75 1348.41 601.82
00001053 00000161 1048.44 132.12 414.27 661.56 1147.87 413.92 1337.82 416.31 1235.49 528.69 1149.03 605.71 1343.01 605.34
00001054 00000162 1044.24 137.70 426.44 648.39 1139.83 421.98 1336.00 421.16 1227.73 530.95 1147.71 605.95 1343.27 604.09
