Video ID: 	y1TEj8cBBII
H: 	1080
W: 	1920
FPS: 	23.976023976023978

FRAME INDEX X0 Y0 W H [Landmarks (5 Points)]

00058095 00000000 523.60 153.94 426.46 630.06 641.14 378.94 846.33 386.40 750.00 518.99 652.74 618.27 818.65 624.82
00058096 DELETE   530.25 147.13 422.70 636.52 648.53 369.31 853.16 380.56 758.37 510.93 655.52 615.20 821.63 624.61
00058097 00000002 533.65 142.81 424.75 638.74 656.33 365.22 861.86 383.04 768.07 505.23 658.92 610.36 826.91 625.02
00058098 00000003 534.57 139.18 429.09 644.35 664.54 361.97 870.34 384.54 776.27 502.48 661.42 607.42 830.19 625.91
00058099 00000004 538.53 136.40 429.86 648.05 669.98 361.45 875.55 385.50 782.68 499.98 664.55 607.79 833.30 627.28
00058100 00000005 541.58 134.13 428.42 650.88 675.98 359.01 879.03 383.79 788.09 498.74 667.75 605.75 836.23 625.48
00058101 00000006 541.59 134.15 429.28 649.84 677.54 356.57 880.89 380.50 790.92 496.33 671.30 603.20 840.23 621.99
00058102 00000007 542.92 132.93 427.47 648.41 679.54 354.70 881.05 378.80 793.55 491.54 675.03 600.74 842.34 619.42
00058103 00000008 544.42 131.00 425.56 647.11 679.79 353.14 881.70 376.52 793.27 487.59 677.39 598.10 844.72 615.83
00058104 00000009 543.98 129.82 426.91 644.69 679.26 351.44 882.38 374.53 793.84 484.05 678.68 595.42 847.04 612.89
00058105 00000010 544.18 127.74 425.88 644.97 678.60 350.20 882.46 372.74 793.81 480.76 679.89 593.36 847.88 610.41
00058106 00000011 544.60 127.20 424.53 644.02 676.67 347.88 881.97 369.37 792.19 478.34 679.88 591.71 847.55 607.83
00058107 00000012 543.66 128.83 423.80 640.15 674.52 345.89 881.14 366.51 790.61 475.37 679.24 590.38 846.30 605.92
00058108 00000013 542.41 128.75 425.32 640.21 672.57 344.97 880.58 364.69 789.16 473.47 678.42 589.61 845.77 604.37
00058109 00000014 541.00 130.24 425.73 636.23 670.37 343.57 878.90 362.75 787.12 472.37 675.85 588.53 843.12 602.96
00058110 00000015 540.37 133.21 424.49 632.48 666.61 342.36 876.68 360.36 784.45 471.10 673.56 588.99 841.08 602.61
00058111 00000016 539.05 132.05 424.53 634.65 663.85 341.53 874.44 358.58 781.55 470.94 671.26 589.33 839.44 602.20
00058112 00000017 538.22 132.05 423.29 632.82 661.97 342.91 870.91 358.62 778.80 471.67 668.52 589.01 836.38 600.80
00058113 00000018 536.39 131.68 424.06 635.36 659.08 343.22 868.47 358.16 776.57 472.40 666.25 590.34 835.11 601.57
00058114 00000019 534.24 132.18 424.50 637.23 658.25 343.98 867.38 358.97 775.77 473.38 664.61 592.14 834.56 603.52
00058115 00000020 532.92 131.32 425.69 637.96 657.55 345.52 866.38 360.94 774.28 474.48 663.54 592.75 834.82 604.57
00058116 00000021 532.36 133.80 424.70 632.98 656.23 346.89 865.22 363.13 771.39 477.80 661.52 593.74 832.44 606.43
00058117 00000022 532.64 136.40 424.20 629.23 655.26 348.37 864.15 364.83 768.49 480.20 659.74 593.62 831.13 606.41
00058118 00000023 532.52 134.28 424.37 637.55 654.75 349.79 862.18 367.30 766.29 482.50 657.39 594.99 829.48 608.65
00058119 00000024 533.16 132.83 426.44 639.17 654.04 351.10 861.95 368.16 764.56 484.14 658.20 594.89 828.61 608.14
00058120 00000025 534.83 133.82 424.51 633.30 652.37 351.09 860.23 367.27 763.19 486.21 659.19 594.00 827.07 606.53
00058121 00000026 535.17 134.69 422.48 626.53 651.79 352.24 861.26 369.35 763.30 486.82 657.96 594.91 826.55 608.50
00058122 00000027 533.53 135.06 420.28 626.62 649.60 359.70 859.14 375.99 762.20 486.31 654.18 595.84 830.00 608.42
00058123 00000028 533.75 130.57 419.98 628.58 653.07 362.90 856.74 384.21 760.46 482.07 651.88 589.28 829.28 605.78
00058124 00000029 533.04 133.95 418.93 616.51 652.83 356.22 857.33 376.73 761.75 475.19 656.49 582.38 827.89 598.53
00058125 00000030 532.59 129.03 421.77 614.66 652.46 350.86 858.09 370.15 762.69 467.63 659.88 574.67 829.25 589.85
00058126 00000031 531.61 126.98 423.87 611.66 652.82 342.42 857.61 362.94 760.94 461.69 660.63 568.36 825.70 584.68
00058127 00000032 531.81 127.11 422.83 619.71 653.92 339.83 857.86 360.77 761.46 461.58 657.59 570.54 824.02 587.46
00058128 00000033 531.38 129.23 421.56 621.03 652.67 343.07 858.02 362.77 762.21 465.60 658.55 576.29 825.30 592.08
00058129 00000034 531.09 133.61 421.05 617.24 652.14 347.49 858.67 365.89 762.76 469.85 659.82 580.40 828.76 594.85
00058130 00000035 532.87 136.15 422.56 618.48 654.14 349.11 860.64 368.55 763.73 475.03 660.15 583.87 828.38 599.23
00058131 00000036 534.00 136.55 422.90 623.65 655.03 350.87 863.41 369.71 765.75 480.01 660.89 590.39 829.14 605.23
00058132 00000037 535.08 135.96 423.36 628.26 656.16 351.80 864.90 368.98 768.46 483.04 664.35 595.37 830.72 608.70
00058133 00000038 536.89 133.75 422.42 626.03 658.67 350.61 865.64 368.31 769.88 481.90 669.02 593.45 828.40 607.35
00058134 00000039 540.45 135.57 421.07 621.74 660.66 348.74 866.71 368.16 770.24 479.19 669.92 588.56 831.14 603.80
00058135 00000040 539.36 136.30 422.89 618.87 661.03 346.54 867.26 366.05 772.12 477.30 670.31 586.42 829.91 601.58
00058136 00000041 541.10 135.26 421.27 622.43 661.66 346.04 866.88 363.89 772.34 477.68 672.74 589.53 826.74 603.55
00058137 00000042 540.13 135.71 422.61 624.11 661.00 347.02 867.76 365.04 771.35 478.63 673.40 592.38 828.00 606.47
00058138 00000043 538.47 137.72 421.70 624.05 659.95 349.86 867.01 367.28 771.28 482.42 670.72 597.49 826.28 611.43
00058139 00000044 537.00 138.09 422.69 633.40 658.55 351.25 867.22 367.38 770.83 487.45 668.43 604.75 826.60 617.67
00058140 00000045 535.92 140.12 421.88 634.92 655.80 352.66 864.77 368.23 767.93 488.56 663.87 606.73 824.65 619.29
00058141 00000046 534.38 140.53 422.35 634.77 652.80 353.21 862.63 369.17 765.31 486.83 659.88 605.08 825.34 617.95
00058142 00000047 533.87 138.35 421.57 634.07 652.37 351.81 862.46 367.63 764.98 483.64 661.98 603.22 826.07 615.92
00058143 00000048 531.63 137.34 422.50 630.45 653.17 350.83 859.54 367.12 764.05 481.38 663.71 598.48 822.31 611.60
00058144 00000049 531.70 134.74 420.54 623.96 653.04 348.83 857.03 364.94 763.47 478.18 665.05 591.66 817.55 604.90
00058145 00000050 530.85 133.05 419.78 621.86 652.87 347.78 856.45 365.07 762.95 477.17 662.95 586.58 818.40 600.77
00058146 00000051 528.69 132.41 420.44 620.97 651.82 350.44 855.86 366.97 763.60 477.82 662.87 585.64 820.99 599.01
00058147 00000052 526.97 129.28 421.17 625.56 652.03 360.50 853.92 377.80 764.10 479.10 663.72 587.57 825.55 601.09
00058148 00000053 523.92 128.97 426.60 620.67 654.51 375.64 859.26 386.23 768.46 489.06 667.00 590.13 835.14 599.74
00058149 00000054 524.29 135.53 428.08 622.82 657.27 385.89 866.34 390.16 779.24 497.34 674.64 601.77 846.46 605.69
00058150 00000055 529.91 139.47 423.95 630.51 666.50 385.42 871.45 396.81 792.11 500.89 680.53 609.24 853.99 618.12
00058151 00000056 532.80 142.19 424.38 630.99 671.90 386.03 877.76 397.52 799.76 505.27 686.49 611.55 860.03 620.57
00058152 00000057 534.13 141.07 425.86 633.90 674.78 386.37 879.88 397.83 804.09 506.59 687.99 609.00 866.09 617.74
00058153 00000058 534.82 141.63 425.86 630.53 677.49 383.55 881.80 395.92 807.22 505.27 689.22 604.44 868.69 614.03
00058154 00000059 534.57 140.10 426.36 629.65 679.48 380.81 883.66 395.09 809.19 502.01 688.82 600.58 868.03 611.67
00058155 00000060 535.14 139.39 425.11 628.90 679.14 379.37 884.01 394.59 808.31 500.87 687.36 599.00 867.57 610.84
00058156 00000061 536.36 140.09 424.71 627.56 678.66 379.72 885.77 394.73 807.73 501.64 685.89 599.01 868.65 610.78
00058157 00000062 537.37 141.30 424.61 626.09 678.16 380.88 886.72 394.91 807.48 502.99 687.29 600.97 869.58 611.88
00058158 00000063 538.06 142.11 423.50 626.44 677.87 382.39 886.40 396.47 806.97 504.32 687.92 603.00 870.40 613.90
00058159 00000064 539.94 141.89 424.17 627.69 678.03 383.20 886.88 395.73 807.01 505.90 690.05 605.36 871.36 614.95
00058160 00000065 540.14 142.23 423.98 627.33 678.48 384.27 886.77 396.11 807.18 507.10 692.86 607.21 871.70 616.10
00058161 00000066 541.21 143.92 423.89 624.08 678.16 383.96 888.11 393.85 807.77 506.69 696.75 609.70 873.49 616.74
00058162 00000067 541.33 141.71 424.90 629.51 678.71 382.25 887.74 391.57 809.05 505.14 701.15 612.36 873.44 618.48
00058163 00000068 541.03 139.97 425.40 635.16 679.22 381.14 886.43 390.27 809.61 503.90 701.56 613.34 872.70 619.32
00058164 00000069 539.37 137.15 429.22 646.12 679.24 379.47 886.02 389.60 809.18 505.69 697.54 615.09 870.03 622.02
00058165 00000070 538.26 138.08 430.15 647.46 680.36 379.78 884.88 391.32 807.40 507.56 694.90 615.62 867.09 623.82
00058166 00000071 537.28 139.88 430.40 647.08 679.54 379.67 883.54 391.34 806.32 508.71 692.69 616.76 865.75 625.14
00058167 00000072 536.37 140.88 430.84 649.96 680.11 380.50 881.91 390.51 808.08 512.47 691.74 618.37 865.31 625.58
00058168 00000073 535.21 139.97 433.14 655.92 679.73 381.41 881.34 392.46 807.19 513.29 687.56 616.49 865.45 624.52
00058169 00000074 534.02 140.33 434.17 656.08 679.33 381.34 881.43 392.31 807.26 513.94 687.83 616.64 865.71 624.57
00058170 00000075 534.93 140.04 433.07 655.19 679.61 380.41 881.47 391.45 806.72 514.20 689.58 617.73 864.32 625.68
00058171 00000076 535.18 140.14 432.55 653.96 680.00 379.20 881.12 390.43 806.01 513.74 689.76 617.98 861.81 626.18
00058172 00000077 535.76 139.60 431.64 652.34 678.61 379.10 882.63 390.05 805.57 513.39 689.99 618.60 862.97 626.50
00058173 00000078 535.25 138.43 432.58 656.97 677.99 379.49 881.75 390.06 805.89 513.46 687.96 617.40 865.12 624.98
00058174 00000079 534.18 139.30 434.10 658.10 677.58 379.40 882.54 390.48 804.99 514.07 687.86 619.33 864.62 627.37
00058175 00000080 534.28 138.88 433.67 658.69 677.30 379.90 882.41 390.25 805.01 514.68 688.12 619.63 865.30 627.04
00058176 00000081 535.97 138.94 432.07 658.42 675.66 380.88 881.57 389.84 804.64 514.95 687.59 622.17 864.64 628.64
00058177 00000082 536.45 139.06 432.03 656.96 676.13 381.38 882.89 390.65 804.74 515.91 688.32 623.46 863.80 630.23
00058178 00000083 536.35 140.23 432.37 655.34 675.37 380.77 882.96 390.44 804.63 515.59 688.37 624.14 862.99 631.41
00058179 00000084 536.82 141.18 431.65 651.50 674.62 379.52 882.35 390.73 803.85 513.02 687.75 622.60 861.40 631.16
00058180 00000085 535.46 140.67 432.47 651.90 674.14 379.60 881.94 391.02 803.54 512.32 687.85 622.37 860.21 631.14
00058181 00000086 534.87 139.99 430.70 649.67 673.98 385.10 879.92 398.44 800.85 511.82 686.69 620.93 858.26 631.26
00058182 00000087 534.03 138.16 428.85 649.09 673.36 391.06 876.50 406.23 797.42 511.11 684.31 618.35 855.30 630.57
00058183 00000088 529.82 141.19 432.09 646.83 669.21 389.78 874.94 403.13 794.80 509.57 682.51 619.03 855.03 629.58
00058184 00000089 531.06 142.79 430.54 644.73 667.16 386.86 872.94 397.21 792.92 509.94 682.69 620.09 853.87 628.30
00058185 00000090 529.53 143.52 430.09 643.54 664.54 385.38 870.10 395.07 790.89 509.09 680.11 619.97 850.73 627.74
00058186 00000091 528.13 147.47 429.90 635.14 660.98 383.09 869.85 391.21 788.35 507.05 677.69 617.70 850.31 624.27
00058187 00000092 528.20 147.24 428.30 632.37 660.31 381.63 869.65 390.31 787.69 504.94 677.44 616.59 849.29 623.65
00058188 00000093 527.13 146.53 429.46 636.12 659.25 380.42 868.06 388.74 786.30 503.83 675.00 616.20 847.82 622.95
00058189 00000094 526.55 145.46 430.30 639.46 659.34 379.82 866.13 388.38 785.08 504.35 673.10 615.69 845.03 622.61
00058190 00000095 526.76 145.69 429.10 638.88 659.32 378.28 866.26 386.99 784.34 503.21 672.60 615.97 844.29 623.13
00058191 00000096 527.05 145.11 429.03 639.45 659.58 377.23 866.30 386.65 784.60 502.57 672.47 615.49 844.68 623.24
00058192 00000097 526.85 146.39 429.79 638.24 660.04 375.82 867.30 385.50 785.45 500.93 672.88 614.27 845.41 622.24
00058193 00000098 527.02 145.91 429.94 638.90 660.58 376.00 867.85 386.11 785.62 501.14 672.33 614.24 845.48 622.57
00058194 00000099 527.35 145.07 429.88 640.87 660.53 376.69 867.50 386.48 785.86 501.90 672.65 615.01 846.21 623.02
00058195 00000100 528.10 147.66 428.45 639.44 659.97 377.07 866.46 386.03 785.91 501.59 673.45 616.15 846.48 623.50
00058196 00000101 528.29 146.67 428.75 640.04 660.52 377.07 867.13 386.09 786.26 502.08 673.65 616.18 846.40 623.60
00058197 00000102 527.49 148.51 429.79 637.32 660.55 376.34 867.66 385.93 785.79 501.22 673.84 615.60 846.16 623.50
00058198 00000103 527.88 146.43 429.34 636.49 661.57 376.92 867.69 386.52 786.30 500.95 675.52 614.82 846.54 622.68
00058199 00000104 528.55 149.53 429.66 631.47 662.19 376.71 868.98 386.61 787.64 500.67 676.32 613.69 848.09 621.84
00058200 00000105 528.81 149.54 428.67 629.74 663.51 376.86 870.42 387.03 789.38 501.25 677.66 613.22 849.27 621.58
00058201 00000106 529.85 147.47 429.39 634.23 662.79 377.92 870.10 387.09 788.42 502.86 677.97 615.50 849.52 623.01
00058202 00000107 529.55 148.06 429.74 635.47 659.42 378.57 868.00 386.09 784.51 504.16 676.83 618.07 847.14 624.24
00058203 00000108 529.65 144.85 427.70 638.48 655.53 384.30 861.81 397.73 773.20 507.51 665.98 612.50 841.58 623.29
00058204 00000109 530.07 142.10 422.49 638.05 649.56 383.16 852.39 400.67 755.29 509.53 650.06 608.88 825.27 622.89
00058205 DELETE   523.57 143.40 422.58 637.47 637.76 378.91 843.28 394.40 735.90 512.34 638.96 611.55 811.19 624.45
00058206 00000111 523.94 144.23 419.05 638.41 635.88 372.93 841.18 391.80 726.16 510.07 633.42 608.79 804.62 624.57
00058207 DELETE   524.58 142.12 419.47 638.18 639.01 369.38 844.08 388.63 731.68 508.50 637.84 605.62 811.05 621.24
00058208 00000113 527.26 145.78 425.87 632.80 644.78 368.69 849.29 385.84 743.65 504.97 645.81 605.94 819.67 619.82
00058209 00000114 532.89 147.62 427.49 632.95 653.82 366.71 861.78 384.96 763.71 502.76 656.66 608.83 827.24 623.89
00058210 00000115 535.59 139.66 432.12 644.26 666.30 367.60 873.77 389.22 781.18 501.95 666.72 608.02 840.91 625.51
00058211 00000116 538.50 132.71 433.30 654.32 676.33 366.21 879.43 389.77 791.85 503.76 673.97 606.73 845.92 625.30
00058212 00000117 538.72 135.40 437.09 654.91 682.44 364.20 880.40 390.65 791.98 506.13 676.98 608.77 839.13 629.77
00058213 00000118 539.46 139.33 436.33 649.38 679.76 362.77 880.84 390.35 786.73 507.77 673.55 610.57 834.74 632.72
00058214 00000119 539.07 138.93 435.56 648.18 676.40 362.57 879.47 391.31 782.13 506.91 667.33 607.07 834.33 630.24
00058215 00000120 540.27 139.59 433.52 644.38 674.62 362.84 879.62 391.91 780.20 506.46 665.11 606.40 835.28 630.00
00058216 00000121 541.43 138.89 433.79 642.21 674.78 364.57 882.06 391.95 783.37 503.98 667.81 607.24 840.73 629.29
00058217 00000122 542.59 140.14 432.87 641.19 678.29 363.90 884.24 390.54 789.15 502.83 670.85 608.76 840.49 630.34
00058218 00000123 542.01 138.17 433.11 643.06 679.68 369.30 883.57 396.36 792.41 500.50 674.05 606.63 846.03 628.44
00058219 00000124 543.49 135.46 430.19 643.19 685.56 373.14 881.62 402.59 795.57 499.84 679.35 602.44 847.37 625.89
00058220 00000125 543.14 138.86 430.08 637.56 680.86 374.04 882.31 399.48 794.32 500.62 678.53 604.72 849.81 624.83
00058221 00000126 542.42 139.81 432.00 636.67 677.49 370.90 879.60 396.82 789.88 500.46 673.21 603.56 846.90 624.29
00058222 00000127 539.77 137.04 433.23 640.76 676.08 366.54 879.46 393.03 788.07 502.49 670.10 603.55 841.41 624.80
00058223 00000128 539.27 139.85 433.08 636.67 673.56 366.27 878.39 392.65 786.44 501.74 668.29 603.47 839.97 624.83
00058224 00000129 538.64 141.11 432.91 635.20 673.63 366.41 878.87 391.96 787.31 501.87 670.36 604.99 839.11 625.68
00058225 00000130 538.20 142.19 431.52 636.05 673.61 367.30 879.36 391.40 790.35 502.77 672.79 608.86 840.81 628.39
00058226 00000131 537.57 141.76 431.11 638.13 674.42 366.42 878.63 390.75 789.93 502.84 672.24 609.08 838.30 628.93
00058227 00000132 536.87 139.27 430.93 636.70 671.60 366.65 876.39 390.86 786.52 501.59 670.59 607.18 837.10 626.83
00058228 00000133 535.81 140.82 431.86 633.40 668.76 365.23 872.05 389.82 781.25 500.21 667.96 602.95 832.51 623.07
00058229 00000134 535.22 140.28 431.36 633.94 666.86 365.19 871.52 388.88 780.11 499.62 667.36 603.79 832.22 623.18
00058230 00000135 535.38 140.62 430.29 632.39 666.74 366.02 873.05 389.29 781.98 500.19 668.07 605.52 836.23 624.48
00058231 00000136 534.93 140.30 429.86 631.75 666.56 366.18 872.24 390.07 781.25 500.58 667.02 604.78 833.99 624.30
00058232 00000137 534.07 139.74 429.13 632.46 664.60 365.85 870.29 389.88 778.36 500.59 665.14 604.82 831.01 624.54
00058233 00000138 533.89 141.26 428.34 629.01 663.33 365.43 868.85 388.26 776.42 499.46 664.80 603.83 829.44 622.58
00058234 00000139 533.39 140.09 427.58 628.97 662.63 364.89 868.22 387.70 774.95 498.70 663.83 602.56 828.57 621.31
00058235 00000140 533.01 142.09 427.40 627.52 661.36 365.73 868.85 387.69 774.50 498.36 662.85 602.83 830.47 620.93
00058236 00000141 532.34 143.29 426.36 626.40 659.72 366.08 867.95 385.96 774.41 497.96 663.64 604.52 831.41 620.89
00058237 00000142 531.44 142.27 426.44 634.35 658.94 366.91 867.93 385.39 773.45 500.27 660.36 608.59 829.36 624.08
00058238 00000143 529.44 138.98 427.39 646.94 657.82 365.05 865.85 383.52 772.71 500.55 655.52 610.05 829.40 625.47
00058239 00000144 528.16 140.94 426.04 643.62 653.94 362.80 863.07 380.07 769.33 498.09 653.41 609.24 827.39 623.79
00058240 00000145 530.46 140.00 422.88 639.07 653.01 361.76 860.85 377.56 767.40 496.60 655.08 608.15 825.66 621.51
00058241 00000146 529.50 136.38 421.52 639.49 650.74 362.01 858.38 376.36 766.51 495.03 656.03 605.78 827.30 617.70
00058242 00000147 528.42 138.77 422.47 633.80 649.55 362.54 857.03 377.17 763.63 493.76 655.30 603.98 825.32 616.17
00058243 00000148 528.17 138.57 422.88 629.91 650.32 360.73 856.92 375.89 763.55 493.76 657.01 603.00 820.81 615.94
00058244 00000149 528.83 139.00 423.35 626.74 651.38 361.68 859.44 376.60 766.97 494.41 660.60 603.62 823.98 616.28
00058245 00000150 533.75 136.41 417.93 627.71 656.25 373.77 860.29 389.42 770.82 494.84 664.72 604.05 828.65 616.98
00058246 00000151 528.31 136.91 427.89 629.99 664.52 384.96 870.15 394.42 783.46 499.56 674.44 601.65 846.24 609.70
00058247 00000152 532.07 141.05 428.51 627.36 675.21 391.37 884.29 403.07 798.70 508.37 684.31 606.83 859.15 616.13
00058248 00000153 533.87 146.37 428.45 625.73 679.37 392.46 884.72 404.49 807.05 513.19 692.14 609.01 868.83 618.38
00058249 00000154 536.84 148.52 428.03 626.91 681.50 393.72 887.08 401.79 810.36 517.93 695.97 612.95 873.14 619.01
00058250 00000155 537.33 149.48 430.14 627.15 683.88 392.83 890.15 398.24 814.68 518.33 700.60 614.70 877.36 618.64
00058251 00000156 537.79 148.14 429.64 628.50 682.98 392.09 890.49 396.35 814.77 517.88 702.35 616.68 878.14 619.51
00058252 00000157 537.75 148.39 428.32 626.96 682.46 392.44 888.78 396.25 813.00 517.81 701.24 615.50 877.23 617.99
00058253 00000158 536.90 149.91 427.46 626.00 682.20 392.26 887.63 396.24 811.36 519.17 699.94 615.95 876.04 618.68
00058254 00000159 535.83 151.00 427.53 624.87 679.42 393.80 886.80 396.05 809.82 519.29 699.90 618.47 875.54 619.74
00058255 00000160 536.51 152.57 425.42 623.37 677.70 394.44 885.69 396.55 807.85 520.94 700.94 621.23 873.51 622.19
00058256 00000161 535.54 154.74 426.30 622.95 675.76 396.21 884.90 398.21 806.36 521.99 699.37 622.64 873.15 623.58
00058257 00000162 533.44 155.39 428.36 627.40 674.80 398.34 881.83 401.01 804.49 523.45 697.73 624.61 870.35 626.13
00058258 00000163 530.55 153.41 429.83 631.58 675.04 403.65 880.56 408.25 802.55 525.24 696.52 625.36 865.88 628.71
00058259 00000164 531.49 154.03 426.93 630.38 675.47 408.21 878.07 412.69 801.36 525.57 695.56 626.05 863.27 629.40
00058260 00000165 530.56 152.74 427.56 633.01 673.66 405.56 875.65 410.12 799.12 525.95 695.21 626.70 861.44 630.19
00058261 00000166 529.76 151.16 429.26 638.92 672.25 402.79 874.02 405.49 799.27 525.24 693.83 629.27 860.67 631.21
00058262 00000167 526.69 155.29 430.75 638.99 670.33 398.98 870.95 401.67 798.38 523.49 692.89 630.84 858.60 633.11
00058263 00000168 527.65 154.22 429.41 642.00 669.21 395.56 869.19 399.46 797.64 522.06 689.06 629.74 855.43 633.06
00058264 00000169 526.74 154.74 429.00 641.89 666.94 395.38 867.65 399.68 795.55 521.59 687.21 629.70 853.31 633.40
00058265 00000170 527.59 153.89 428.24 642.16 665.71 395.41 867.47 399.25 794.82 520.63 686.27 629.46 853.64 632.75
