Video ID: 	VMM6D9vuHkY
H: 	2160
W: 	3840
FPS: 	29.97002997002997

FRAME INDEX X0 Y0 W H [Landmarks (5 Points)]

00116437 00000000 1689.01 361.62 797.08 1184.41 1826.43 829.71 2120.73 803.79 1923.89 1047.89 1897.28 1232.60 2175.21 1206.41
00116438 00000001 1695.41 358.61 786.26 1193.62 1834.92 831.16 2130.48 820.63 1928.12 1061.66 1893.73 1238.72 2164.88 1225.64
00116439 DELETE   1705.12 360.07 786.17 1181.84 1852.60 836.28 2145.37 822.92 1953.56 1055.56 1914.55 1230.05 2181.98 1215.20
00116440 DELETE   1720.20 343.65 791.14 1186.48 1874.79 824.69 2176.92 802.31 1987.21 1031.98 1928.31 1210.28 2213.37 1187.70
00116441 00000004 1731.28 332.72 798.14 1186.92 1891.91 790.30 2193.68 773.08 1996.84 997.71 1937.08 1189.10 2224.38 1171.51
00116442 DELETE   1750.31 322.03 774.05 1159.74 1896.58 757.44 2185.95 736.65 2002.49 963.59 1952.85 1148.31 2231.87 1128.64
00116443 00000006 1761.13 298.73 761.26 1151.73 1896.00 724.82 2192.27 708.80 1997.52 911.92 1944.94 1112.34 2221.97 1098.52
00116444 00000007 1765.67 272.53 754.84 1149.13 1895.61 707.37 2190.18 693.64 1991.45 882.00 1941.58 1082.06 2218.64 1070.16
00116445 00000008 1761.55 278.14 760.77 1138.55 1898.05 696.90 2185.07 683.86 1992.35 870.07 1946.39 1062.05 2226.03 1049.47
00116446 00000009 1762.17 289.22 760.74 1132.65 1896.35 705.99 2179.07 696.54 1985.91 880.16 1939.41 1063.69 2220.47 1053.81
00116447 00000010 1763.83 313.53 754.93 1116.99 1909.84 726.84 2178.04 728.29 1989.34 899.68 1944.06 1079.08 2215.32 1079.48
00116448 DELETE   1762.88 331.13 764.00 1110.48 1910.25 754.68 2179.07 744.93 2000.41 935.21 1956.62 1105.12 2227.77 1095.49
00116449 00000012 1763.89 347.95 778.96 1115.76 1924.44 785.03 2194.48 778.17 2015.59 976.10 1962.83 1125.78 2238.14 1118.27
00116450 00000013 1767.45 352.37 781.27 1123.41 1926.67 799.49 2206.01 792.90 2021.58 1001.51 1964.28 1149.05 2238.54 1142.34
00116451 00000014 1767.07 356.55 780.75 1115.13 1922.28 804.82 2210.15 797.69 2025.30 1014.49 1965.57 1156.35 2242.46 1149.84
00116452 00000015 1772.70 354.03 778.96 1121.01 1922.60 802.48 2206.53 796.90 2016.43 1010.32 1960.68 1155.60 2236.06 1149.77
00116453 00000016 1775.71 346.90 783.54 1128.30 1924.16 794.65 2212.86 791.49 2015.51 1002.80 1959.18 1147.40 2243.83 1143.03
00116454 00000017 1780.34 334.73 776.38 1125.65 1924.32 788.72 2210.45 786.25 2015.50 992.56 1959.14 1139.16 2240.32 1135.57
00116455 00000018 1780.12 325.03 776.65 1136.39 1929.73 783.57 2217.73 777.30 2028.28 981.29 1963.06 1129.43 2253.01 1122.02
00116456 DELETE   1788.07 314.02 773.05 1142.32 1940.48 771.57 2235.73 768.86 2042.36 968.67 1974.50 1124.48 2264.73 1120.51
00116457 DELETE   1798.05 322.14 774.98 1142.86 1958.15 763.20 2263.24 769.96 2062.31 964.13 1981.26 1123.67 2280.51 1128.15
00116458 DELETE   1809.96 330.84 777.40 1136.73 1977.63 748.02 2288.39 782.28 2078.83 966.13 1993.88 1119.82 2271.67 1148.06
00116459 00000022 1825.91 338.12 770.35 1133.49 1993.95 757.07 2300.17 797.29 2089.04 984.76 2007.01 1136.17 2274.34 1169.71
00116460 00000023 1833.78 345.87 780.14 1137.83 2002.01 773.00 2306.03 815.58 2089.18 998.14 2009.21 1145.63 2283.37 1179.83
00116461 00000024 1832.11 348.23 782.04 1155.58 2000.97 782.71 2302.64 830.54 2078.68 1020.89 2003.66 1166.44 2267.89 1205.28
00116462 00000025 1832.75 351.46 787.19 1153.80 1997.50 780.15 2303.11 823.15 2074.76 1015.26 2000.70 1168.50 2267.15 1203.39
00116463 00000026 1834.32 350.56 785.06 1129.10 1997.66 771.87 2302.10 811.94 2081.31 999.80 2005.31 1154.29 2266.55 1187.66
00116464 00000027 1841.12 344.87 784.51 1132.01 2007.56 751.69 2312.30 794.20 2088.76 981.51 2009.95 1132.05 2285.98 1166.72
00116465 00000028 1847.92 337.56 782.63 1130.71 2014.47 737.84 2315.88 779.92 2100.74 964.52 2018.86 1117.49 2294.99 1151.94
00116466 00000029 1852.24 332.88 776.42 1126.25 2018.56 729.20 2321.86 771.18 2105.06 951.53 2018.97 1107.59 2294.30 1142.94
00116467 00000030 1855.30 326.86 778.07 1133.45 2020.02 725.61 2321.81 764.05 2104.25 941.75 2022.55 1106.95 2293.88 1139.61
00116468 00000031 1855.76 326.88 776.55 1139.03 2022.04 729.30 2324.12 762.33 2111.65 946.73 2031.98 1115.92 2298.58 1143.72
00116469 00000032 1865.08 333.41 770.78 1136.94 2024.79 738.18 2323.22 769.98 2112.04 967.69 2034.06 1122.69 2307.70 1148.83
00116470 00000033 1856.82 336.95 777.34 1147.12 2025.56 750.03 2326.66 783.54 2115.14 988.69 2030.84 1137.79 2308.21 1164.91
00116471 00000034 1851.43 341.26 783.38 1147.46 2020.73 763.75 2324.80 794.43 2112.99 998.06 2031.07 1151.86 2305.02 1176.56
00116472 00000035 1843.94 339.51 787.32 1148.12 2015.01 765.50 2322.26 797.80 2109.99 999.79 2026.53 1152.11 2303.06 1177.91
00116473 00000036 1842.49 340.26 781.16 1142.52 2012.21 763.08 2316.27 797.24 2104.39 1000.01 2024.01 1145.40 2302.85 1172.27
00116474 00000037 1840.76 339.92 776.41 1139.02 2008.98 759.80 2308.86 795.67 2098.62 999.20 2021.77 1141.01 2293.54 1169.54
00116475 00000038 1834.46 340.12 780.23 1138.26 2000.94 761.91 2302.02 797.74 2088.88 997.28 2011.44 1143.32 2279.88 1172.15
00116476 00000039 1837.28 338.81 780.33 1138.77 1999.53 760.86 2302.38 793.58 2091.47 1003.49 2015.53 1147.87 2282.38 1174.54
00116477 00000040 1840.60 338.41 779.79 1148.18 2005.64 759.25 2308.96 790.22 2098.79 1004.62 2021.15 1149.67 2293.23 1174.06
00116478 00000041 1838.67 334.90 785.35 1152.29 2005.93 759.55 2310.38 788.40 2101.40 999.83 2029.30 1154.60 2292.39 1177.69
00116479 00000042 1841.04 334.71 784.80 1150.22 2006.52 755.04 2310.68 781.67 2105.11 992.41 2030.15 1150.93 2293.86 1171.98
00116480 00000043 1843.09 332.15 778.68 1142.39 2005.43 747.49 2309.61 778.26 2101.77 985.33 2029.40 1141.19 2290.15 1166.46
00116481 00000044 1842.80 329.16 775.18 1141.87 2003.79 744.36 2306.18 776.04 2098.90 981.56 2021.19 1131.88 2290.27 1157.42
00116482 00000045 1838.15 329.87 781.34 1143.23 1999.39 748.41 2305.23 777.42 2096.10 974.79 2013.44 1130.41 2291.58 1153.71
00116483 00000046 1842.26 334.03 774.50 1125.58 2002.16 747.48 2302.99 776.85 2099.36 980.73 2022.00 1126.89 2292.87 1150.30
00116484 00000047 1839.27 339.70 784.38 1125.52 2002.50 751.23 2303.96 776.99 2103.39 980.92 2021.43 1129.49 2296.74 1149.50
00116485 00000048 1840.89 338.42 785.78 1131.12 2007.30 748.22 2311.77 775.80 2106.91 977.33 2026.03 1128.70 2303.84 1150.05
00116486 00000049 1841.93 339.06 786.38 1132.11 2008.66 745.25 2312.74 773.31 2108.11 971.82 2024.98 1124.55 2307.61 1146.07
00116487 00000050 1840.69 333.28 779.22 1133.97 2006.50 740.95 2311.87 770.44 2108.69 964.36 2023.90 1118.90 2303.73 1142.28
00116488 00000051 1839.64 340.10 780.80 1118.86 2001.63 739.05 2302.49 767.32 2097.03 958.04 2021.88 1113.32 2298.77 1135.21
00116489 00000052 1841.54 332.13 771.47 1127.51 2001.46 738.06 2300.05 764.77 2097.66 960.72 2022.52 1116.96 2295.74 1138.02
00116490 00000053 1839.77 334.46 777.82 1129.92 1999.40 739.51 2296.92 764.67 2092.28 953.85 2016.81 1119.08 2292.29 1138.57
00116491 00000054 1835.92 338.40 786.91 1129.87 1999.54 742.96 2302.65 769.95 2095.72 958.58 2013.32 1120.93 2294.88 1142.07
00116492 00000055 1832.84 340.83 783.58 1121.78 1996.05 744.39 2302.78 772.98 2094.56 965.14 2009.62 1123.32 2287.20 1146.72
00116493 00000056 1835.25 337.27 780.80 1131.57 1995.27 746.69 2300.33 775.25 2089.25 967.72 2009.32 1129.15 2283.84 1152.64
00116494 00000057 1830.66 332.27 784.95 1139.25 1992.02 749.68 2301.59 776.16 2091.56 967.17 2006.20 1134.39 2283.01 1157.10
00116495 00000058 1831.44 332.92 783.21 1128.49 1991.11 747.89 2297.02 776.73 2086.93 965.87 2005.03 1125.52 2280.03 1149.17
00116496 00000059 1828.38 336.70 778.10 1122.02 1988.27 747.28 2295.09 777.77 2088.49 971.54 2000.94 1124.42 2279.20 1149.63
00116497 00000060 1829.90 338.19 775.71 1115.80 1986.63 748.06 2293.40 776.84 2086.73 970.50 2000.41 1122.63 2278.27 1146.05
00116498 00000061 1829.47 334.42 776.17 1119.43 1986.71 749.12 2291.04 779.14 2083.42 973.15 1998.69 1128.08 2267.80 1153.21
00116499 00000062 1827.82 335.79 779.40 1118.16 1987.57 749.44 2293.91 779.29 2086.55 974.01 2000.56 1121.85 2278.80 1146.13
00116500 00000063 1828.60 335.34 779.22 1121.69 1985.59 750.12 2294.11 780.43 2081.71 975.01 1999.98 1126.03 2273.09 1150.91
00116501 00000064 1826.81 338.96 782.66 1115.04 1986.72 754.70 2293.32 787.01 2080.60 974.60 1997.09 1125.35 2270.58 1151.84
00116502 00000065 1828.48 341.24 787.03 1121.87 1985.18 758.30 2289.18 787.57 2075.57 975.83 1995.60 1133.81 2268.46 1157.41
00116503 00000066 1827.60 340.02 781.62 1122.74 1983.98 756.47 2290.42 788.42 2074.87 979.61 1992.69 1133.53 2266.53 1159.35
00116504 00000067 1825.90 338.10 780.26 1121.23 1983.26 758.71 2289.32 788.55 2076.55 982.45 1995.65 1140.11 2258.66 1165.72
00116505 00000068 1824.72 337.93 785.84 1124.26 1984.64 760.15 2289.46 791.42 2075.80 979.34 1996.62 1142.07 2253.73 1169.10
00116506 00000069 1822.43 335.75 776.36 1124.83 1979.68 761.70 2283.73 790.23 2073.62 981.67 1995.37 1145.95 2249.45 1170.77
00116507 00000070 1822.87 335.70 775.60 1122.78 1976.30 764.53 2279.66 792.34 2065.14 980.07 1992.08 1148.05 2240.42 1172.60
00116508 00000071 1818.19 338.14 770.66 1115.40 1970.50 765.57 2275.25 789.83 2062.17 978.78 1989.00 1147.05 2236.31 1168.82
00116509 00000072 1816.35 340.29 778.05 1121.44 1967.67 765.67 2271.19 790.48 2056.70 980.23 1982.99 1150.78 2231.57 1172.93
00116510 00000073 1813.64 341.14 777.58 1119.12 1962.57 768.06 2266.28 789.28 2051.74 980.38 1978.67 1153.60 2223.90 1173.24
00116511 00000074 1816.63 341.08 772.86 1122.83 1965.15 766.81 2270.97 789.87 2056.87 982.47 1980.89 1156.13 2229.79 1177.27
00116512 00000075 1814.84 342.98 786.09 1124.42 1965.04 766.91 2274.33 788.00 2058.02 979.90 1981.80 1158.44 2232.84 1177.64
00116513 00000076 1819.03 338.05 775.22 1114.26 1966.39 772.63 2275.45 793.34 2060.26 981.78 1979.87 1162.58 2227.81 1181.67
00116514 00000077 1819.59 340.26 779.51 1133.77 1969.89 772.82 2276.04 795.15 2056.63 979.95 1982.52 1163.99 2233.47 1184.59
00116515 00000078 1823.24 341.56 773.04 1121.50 1972.34 775.91 2269.78 799.77 2053.69 985.37 1985.08 1161.89 2219.96 1183.75
00116516 00000079 1822.13 337.35 765.38 1134.21 1972.34 777.34 2266.86 800.36 2055.49 983.54 1986.15 1169.74 2216.19 1191.09
00116517 00000080 1821.53 337.15 769.86 1134.77 1972.41 773.55 2271.29 797.69 2057.73 987.36 1986.56 1171.01 2219.94 1193.09
00116518 00000081 1819.79 332.83 764.82 1126.22 1966.23 778.73 2266.51 798.44 2056.86 991.89 1984.43 1172.85 2215.35 1191.06
00116519 00000082 1818.25 333.24 776.67 1143.16 1966.55 774.15 2270.55 794.38 2054.97 990.01 1984.38 1174.18 2219.14 1193.14
00116520 00000083 1814.38 338.48 783.99 1143.67 1961.82 774.03 2268.19 788.31 2052.00 985.81 1982.56 1178.27 2215.29 1192.52
00116521 00000084 1812.90 339.34 786.67 1139.34 1959.73 777.00 2268.26 789.93 2050.86 984.38 1979.08 1180.84 2213.44 1194.23
00116522 00000085 1812.23 332.19 777.81 1148.65 1959.65 773.32 2265.64 785.46 2052.89 985.01 1981.06 1182.33 2213.19 1195.04
00116523 00000086 1814.88 331.76 767.03 1144.27 1960.44 775.20 2262.14 784.67 2053.05 983.66 1984.99 1181.38 2212.31 1192.06
00116524 00000087 1813.67 331.08 768.31 1140.29 1958.42 777.63 2264.10 786.13 2054.01 981.96 1981.77 1181.59 2212.90 1191.67
00116525 00000088 1814.85 330.22 771.65 1153.02 1956.39 782.47 2268.33 790.61 2034.34 984.02 1980.31 1191.37 2215.48 1198.59
00116526 00000089 1815.42 325.85 776.14 1164.94 1957.55 781.14 2269.78 790.01 2032.30 984.48 1982.48 1195.97 2214.50 1203.73
00116527 00000090 1815.86 324.97 777.12 1159.72 1956.68 779.60 2272.97 787.74 2035.64 985.34 1985.91 1199.02 2216.07 1206.01
00116528 00000091 1809.94 326.04 780.57 1171.43 1955.50 770.79 2267.55 775.64 2056.79 979.22 1986.48 1202.13 2220.80 1208.82
00116529 00000092 1811.69 311.35 783.55 1185.46 1950.14 772.84 2272.20 775.56 2034.40 968.80 1975.73 1200.07 2212.34 1203.33
00116530 00000093 1811.59 309.78 781.58 1185.94 1949.17 771.51 2274.03 775.23 2035.70 970.72 1977.88 1198.03 2216.76 1201.95
00116531 00000094 1811.94 331.31 782.38 1157.87 1955.01 769.05 2271.76 775.93 2053.90 983.68 1984.59 1195.97 2223.08 1204.21
00116532 00000095 1811.51 328.96 787.79 1168.89 1955.00 768.31 2274.06 777.02 2051.54 984.11 1979.62 1193.68 2223.83 1204.10
00116533 00000096 1813.39 332.90 793.64 1164.95 1956.98 765.62 2274.97 775.58 2051.04 982.64 1982.04 1188.19 2230.14 1198.95
00116534 00000097 1812.94 331.85 788.36 1156.07 1955.96 767.71 2273.47 778.20 2052.41 981.28 1980.36 1183.05 2229.04 1194.27
00116535 00000098 1812.74 335.84 788.12 1144.14 1956.24 768.18 2276.20 779.99 2055.03 979.12 1978.94 1177.58 2231.55 1189.61
00116536 00000099 1812.45 336.13 792.54 1162.97 1955.41 769.03 2274.95 778.88 2051.83 982.11 1981.28 1182.96 2239.18 1192.93
00116537 00000100 1813.72 333.61 784.39 1153.10 1957.79 768.77 2273.15 780.04 2053.07 984.07 1982.65 1176.99 2234.15 1187.95
00116538 00000101 1813.05 331.67 788.16 1158.69 1958.15 769.68 2276.39 779.69 2055.01 983.51 1984.48 1178.82 2243.59 1188.44
00116539 00000102 1813.45 332.00 794.63 1162.06 1955.43 771.40 2277.17 777.79 2054.03 981.96 1987.15 1185.67 2248.88 1192.15
00116540 00000103 1813.51 329.70 787.62 1158.88 1953.52 771.68 2277.87 782.55 2052.96 982.74 1980.42 1187.41 2237.97 1198.79
00116541 00000104 1811.12 330.20 782.32 1159.46 1953.31 769.43 2277.24 782.88 2053.44 983.59 1975.31 1182.27 2236.53 1195.82
00116542 00000105 1813.90 333.85 778.80 1149.25 1954.89 767.79 2278.66 784.12 2053.42 984.66 1975.14 1177.91 2236.61 1193.67
00116543 00000106 1815.76 329.05 775.72 1153.29 1957.30 769.14 2278.59 786.43 2054.98 986.32 1975.97 1178.03 2237.14 1194.29
00116544 00000107 1816.58 325.89 780.57 1163.81 1967.70 771.41 2277.55 791.02 2055.72 978.27 1980.04 1171.27 2238.90 1188.85
00116545 00000108 1816.44 329.94 780.62 1161.31 1973.37 773.42 2277.72 797.29 2061.60 978.96 1984.47 1168.43 2240.83 1189.58
00116546 00000109 1818.12 329.79 777.04 1161.96 1969.86 772.69 2279.19 792.45 2060.12 979.93 1985.18 1170.90 2242.90 1188.85
00116547 00000110 1818.99 329.24 779.37 1166.42 1967.11 769.82 2280.75 788.87 2058.55 982.60 1981.91 1175.21 2243.62 1192.56
00116548 00000111 1819.82 329.91 784.32 1164.94 1964.69 768.66 2279.76 786.05 2055.90 985.36 1981.45 1177.55 2242.14 1193.43
00116549 00000112 1820.13 330.28 786.45 1159.34 1962.97 767.34 2277.95 782.64 2052.42 984.25 1982.05 1174.81 2240.06 1189.12
00116550 00000113 1818.40 329.47 788.42 1163.44 1963.63 762.80 2278.34 780.63 2051.57 982.42 1979.46 1171.47 2240.96 1186.95
00116551 00000114 1817.82 328.44 786.83 1165.24 1961.52 765.07 2277.63 780.22 2052.80 981.47 1980.68 1175.17 2245.54 1188.35
00116552 00000115 1816.23 327.23 785.14 1165.34 1958.10 766.26 2276.65 780.71 2050.43 982.03 1979.45 1177.31 2241.81 1190.42
00116553 00000116 1813.18 327.85 784.84 1162.08 1957.60 767.03 2275.94 781.15 2051.68 981.69 1978.42 1176.98 2237.55 1190.15
00116554 00000117 1815.89 330.73 779.78 1148.07 1957.54 769.64 2278.30 783.29 2055.27 982.34 1981.27 1175.13 2241.23 1188.01
00116555 00000118 1817.29 332.46 785.25 1154.30 1962.32 770.42 2276.65 784.86 2053.93 981.28 1984.77 1181.06 2233.04 1194.97
00116556 00000119 1821.58 335.91 777.28 1145.00 1963.16 768.97 2277.28 785.54 2054.10 985.67 1986.14 1181.03 2230.30 1196.84
00116557 00000120 1821.23 336.08 781.03 1145.64 1964.73 773.07 2273.21 786.45 2056.62 983.40 1991.15 1181.93 2227.61 1195.80
00116558 00000121 1826.81 335.91 772.81 1141.93 1972.03 772.23 2274.95 789.94 2057.69 981.24 1994.60 1174.31 2232.39 1191.42
00116559 00000122 1829.57 331.91 767.92 1150.59 1984.52 778.24 2265.09 802.62 2058.87 978.20 2000.08 1171.53 2224.00 1194.23
00116560 00000123 1833.17 333.52 762.21 1141.94 1986.03 773.91 2269.36 796.57 2066.12 971.90 2007.17 1165.05 2237.56 1186.00
00116561 00000124 1833.10 332.07 762.34 1145.44 1989.76 769.60 2271.45 794.48 2067.00 966.93 2004.89 1157.27 2238.27 1180.32
00116562 00000125 1835.71 323.22 757.69 1156.07 1990.33 768.55 2273.02 789.73 2069.88 960.26 2010.24 1157.55 2243.54 1177.60
00116563 00000126 1838.50 326.77 762.85 1159.51 1994.43 765.21 2292.24 783.60 2085.10 955.79 2017.09 1157.51 2268.85 1174.29
CROP_BBOX: 1213 0 3078 1857
