Video ID: 	VB9ZSYN-H6k
H: 	1080
W: 	1920
FPS: 	25.0

FRAME INDEX X0 Y0 W H [Landmarks (5 Points)]

00007576 00000000 855.48 217.38 382.08 520.45 922.13 423.81 1088.40 440.47 973.98 525.30 929.17 608.94 1062.40 620.41
00007577 00000001 846.16 223.60 381.44 508.76 909.17 422.24 1078.19 443.12 957.85 525.74 914.86 606.80 1047.73 622.04
00007578 00000002 839.87 213.45 384.19 522.51 893.26 421.46 1065.38 444.88 941.32 531.39 899.76 606.90 1040.83 624.09
00007579 DELETE   836.69 203.38 383.75 532.33 888.52 427.88 1055.31 448.42 933.04 532.05 896.52 609.54 1033.70 624.33
00007580 00000004 830.86 211.50 386.20 526.83 884.97 436.94 1050.76 455.35 928.72 537.96 893.28 616.59 1030.03 629.64
00007581 00000005 826.05 223.33 388.77 521.06 879.57 444.96 1043.71 458.77 924.66 549.48 894.22 623.92 1030.30 632.69
00007582 00000006 820.69 229.03 390.84 516.20 874.57 449.22 1037.93 461.22 919.78 555.54 890.45 625.76 1026.73 632.77
00007583 00000007 819.35 236.35 390.90 513.92 870.91 458.46 1033.69 467.95 917.10 563.41 889.23 632.03 1028.60 636.69
00007584 00000008 818.22 246.57 393.13 512.72 868.11 451.09 1033.77 466.42 910.38 566.92 891.52 631.26 1029.29 643.13
00007585 00000009 817.40 248.27 392.18 511.95 867.50 451.61 1031.42 467.67 909.40 567.42 891.77 630.13 1029.92 642.63
00007586 00000010 818.07 244.80 389.99 515.26 867.54 452.00 1029.94 467.81 909.07 567.49 892.05 629.02 1030.39 641.33
00007587 00000011 818.15 248.09 389.65 512.64 867.61 451.27 1030.10 466.31 909.27 565.98 892.74 629.05 1030.78 640.98
00007588 00000012 817.69 248.78 391.23 511.34 868.24 451.08 1031.05 464.26 911.29 565.04 894.70 630.15 1030.94 640.43
00007589 00000013 818.35 238.43 391.97 521.23 870.87 457.51 1032.38 466.18 916.20 563.27 893.92 633.77 1030.42 637.68
00007590 00000014 819.66 229.44 392.55 529.36 873.06 457.39 1034.55 464.10 920.57 562.15 896.57 632.94 1034.16 635.49
00007591 00000015 821.12 222.24 392.21 534.21 876.45 453.97 1037.79 461.67 925.42 560.61 898.88 630.51 1037.18 634.12
00007592 00000016 822.60 224.43 393.01 531.92 878.56 452.48 1040.85 460.57 928.38 559.81 901.32 629.66 1039.57 633.60
00007593 00000017 824.11 221.76 393.09 535.24 880.60 450.92 1043.93 458.94 932.33 558.69 904.02 630.04 1044.25 633.96
00007594 00000018 824.76 219.34 393.26 539.73 881.80 449.69 1046.15 458.60 934.32 558.75 906.08 631.20 1046.55 635.89
00007595 00000019 825.98 219.50 392.97 538.66 883.40 449.73 1047.26 459.00 935.22 558.27 907.60 630.41 1048.02 635.42
00007596 00000020 827.70 217.44 391.60 538.96 884.68 449.21 1048.91 458.30 936.75 556.74 908.52 628.90 1048.55 633.96
00007597 00000021 833.04 223.47 387.31 528.80 887.72 446.24 1049.41 455.55 936.89 551.73 910.45 626.71 1047.58 631.95
00007598 DELETE   839.61 197.81 380.12 548.05 890.01 456.54 1051.57 464.52 941.30 544.75 912.33 624.01 1050.77 628.22
00007599 DELETE   837.51 212.21 386.39 529.00 901.72 448.70 1062.05 452.09 956.53 539.45 928.35 619.46 1062.74 619.43
00007600 00000024 838.95 208.70 391.92 531.89 904.37 438.86 1073.04 438.40 966.56 534.99 935.12 621.70 1067.32 618.68
00007601 00000025 842.99 215.60 389.42 522.40 912.48 432.26 1083.95 429.80 978.91 526.49 943.55 617.89 1076.84 613.45
00007602 00000026 845.09 215.11 392.71 518.42 919.27 425.31 1091.84 421.39 987.86 516.77 951.00 611.99 1082.95 606.21
00007603 00000027 844.35 217.74 394.99 513.45 925.73 422.14 1096.21 416.50 997.53 505.20 959.36 606.17 1085.57 599.08
00007604 00000028 842.20 214.71 396.88 514.99 929.18 414.36 1104.55 408.65 1005.75 496.87 959.35 600.27 1090.12 593.44
00007605 00000029 839.21 200.63 399.57 524.06 925.98 408.29 1110.70 402.96 1007.23 490.32 960.56 594.52 1103.03 590.38
00007606 00000030 838.14 192.90 401.64 534.47 929.88 405.26 1113.40 401.32 1013.91 487.96 965.74 593.10 1107.12 590.22
00007607 00000031 840.21 193.15 396.12 534.66 934.45 417.22 1113.74 412.76 1018.33 490.10 970.70 595.27 1112.30 591.85
00007608 00000032 840.94 187.96 396.79 540.77 937.42 418.76 1115.63 414.71 1022.05 489.77 973.39 595.75 1114.51 592.58
00007609 00000033 840.81 190.00 399.12 537.93 939.17 418.38 1117.77 415.70 1024.51 491.61 974.97 594.79 1116.55 592.55
00007610 00000034 838.69 194.79 402.26 524.68 938.81 419.44 1121.66 414.42 1026.00 490.33 974.53 593.74 1117.72 589.74
00007611 00000035 838.87 197.89 401.51 512.74 940.09 422.90 1123.24 417.74 1027.52 491.54 973.43 592.59 1116.59 588.40
00007612 00000036 839.44 200.51 401.60 505.42 941.83 425.41 1124.11 419.87 1029.52 493.89 974.26 592.13 1116.23 587.43
00007613 00000037 841.35 202.29 400.96 502.44 943.13 426.14 1125.09 420.62 1031.13 494.98 976.58 592.15 1118.35 587.41
00007614 00000038 843.14 202.36 400.20 504.99 944.77 426.29 1127.38 421.94 1034.61 497.35 979.69 594.34 1122.25 590.68
00007615 00000039 845.36 202.76 398.28 507.87 945.67 427.12 1128.68 423.55 1035.86 500.32 981.52 596.06 1125.23 593.03
00007616 00000040 847.53 206.84 396.04 503.71 947.99 429.36 1130.32 426.82 1037.14 501.88 982.83 596.54 1125.39 594.38
00007617 00000041 851.98 206.18 394.17 502.96 952.25 428.70 1135.16 428.21 1041.30 506.52 985.18 596.47 1129.11 596.22
00007618 00000042 852.69 207.41 394.51 504.86 954.09 428.16 1135.99 428.81 1043.22 507.34 987.13 596.85 1130.06 597.54
00007619 00000043 853.10 204.71 396.40 513.69 956.46 427.76 1135.11 428.65 1044.79 510.23 990.00 600.70 1127.04 601.54
00007620 00000044 855.51 205.53 391.25 521.00 959.83 433.51 1133.83 438.54 1045.16 511.58 989.91 601.93 1125.26 605.91
00007621 00000045 855.34 203.22 391.48 520.32 958.64 430.87 1134.35 436.32 1044.87 509.00 988.78 599.55 1127.58 603.94
00007622 00000046 854.59 198.80 395.17 524.30 959.60 425.44 1138.75 430.87 1049.51 504.30 990.83 599.47 1130.60 603.89
00007623 00000047 855.18 197.67 396.89 526.94 961.24 422.90 1141.12 427.22 1052.21 503.73 993.13 602.41 1129.65 606.03
00007624 00000048 856.23 204.04 397.11 522.37 962.27 423.34 1143.27 427.58 1052.89 505.33 992.61 605.67 1127.21 609.33
00007625 00000049 859.32 209.84 395.04 514.20 964.39 425.05 1146.83 431.42 1054.20 509.95 992.81 606.53 1127.94 611.88
00007626 00000050 861.05 214.32 397.02 503.89 964.97 426.23 1147.47 433.21 1052.87 511.68 993.75 605.00 1128.79 610.71
00007627 00000051 859.13 217.36 397.54 496.75 961.83 423.65 1148.42 430.67 1052.55 509.09 992.61 602.40 1131.98 607.96
00007628 00000052 855.78 216.16 396.80 496.80 957.02 421.17 1145.46 428.23 1048.68 504.92 987.14 598.71 1131.73 604.54
00007629 00000053 848.99 215.69 398.21 497.63 952.61 420.45 1139.83 427.06 1042.71 503.14 980.24 596.05 1125.16 601.69
00007630 00000054 845.35 215.04 394.55 498.18 946.82 421.42 1135.43 427.67 1034.74 504.50 972.27 594.95 1119.89 600.38
00007631 00000055 844.63 217.57 393.27 498.58 943.21 423.24 1132.42 428.00 1030.23 508.83 970.31 599.15 1117.85 603.20
00007632 00000056 843.02 221.64 396.23 499.46 945.94 424.84 1136.21 432.50 1032.60 516.96 970.47 601.60 1118.14 608.05
00007633 00000057 842.71 224.08 395.66 494.41 947.98 428.07 1136.20 434.90 1033.72 519.60 968.34 600.01 1115.00 605.82
00007634 00000058 844.98 228.96 399.11 487.15 948.05 432.54 1129.53 438.62 1033.48 524.53 968.27 602.23 1111.38 604.92
00007635 00000059 846.73 229.47 397.84 489.59 948.69 434.06 1129.61 439.69 1034.18 526.33 969.67 604.94 1109.45 607.49
00007636 00000060 847.65 230.48 397.28 491.77 950.02 434.98 1130.55 439.75 1036.76 527.75 972.08 610.94 1110.27 612.86
00007637 00000061 842.43 224.49 399.22 507.02 953.68 432.12 1135.79 437.60 1040.81 528.79 978.27 611.79 1113.10 616.69
00007638 00000062 847.51 228.95 396.65 496.94 951.20 435.58 1130.99 439.78 1038.81 528.19 972.30 610.24 1111.87 612.05
00007639 00000063 847.39 228.01 397.11 500.04 951.21 437.73 1130.71 442.97 1038.31 528.52 970.13 610.82 1111.97 613.67
00007640 00000064 848.58 231.61 397.52 497.77 952.81 441.16 1130.96 445.46 1038.98 529.37 972.56 612.00 1112.45 613.99
00007641 00000065 850.33 233.14 398.58 494.07 955.47 440.79 1133.17 445.91 1040.75 528.68 976.01 611.15 1113.20 613.33
00007642 00000066 853.27 235.48 398.22 491.54 957.48 439.79 1135.81 446.33 1041.84 527.66 978.51 612.46 1115.47 615.67
00007643 00000067 855.11 233.85 397.65 493.86 959.83 437.46 1140.39 445.03 1045.68 526.62 981.15 613.40 1119.23 617.27
00007644 00000068 857.03 233.15 397.59 493.39 961.38 437.05 1142.27 443.50 1047.39 524.87 983.82 613.11 1122.06 615.96
00007645 00000069 857.20 228.27 399.11 499.44 963.66 436.21 1144.39 441.45 1051.19 523.95 986.50 613.34 1124.56 615.30
00007646 00000070 858.92 225.76 399.01 505.83 964.94 435.10 1146.84 440.31 1054.06 525.19 989.58 617.27 1123.42 619.31
00007647 00000071 860.50 224.40 397.89 503.87 966.66 435.98 1146.59 440.32 1055.19 524.17 990.43 615.36 1124.60 616.67
00007648 00000072 860.75 225.98 398.17 499.08 967.97 436.85 1147.46 443.22 1055.74 523.32 986.66 609.12 1132.32 612.25
00007649 00000073 861.19 225.28 397.31 500.76 968.22 434.38 1147.04 439.26 1056.45 521.22 988.30 609.44 1131.56 611.34
00007650 00000074 854.69 221.05 398.56 505.49 965.32 429.78 1149.39 437.31 1056.69 519.73 993.06 606.99 1132.67 613.31
00007651 00000075 854.40 211.37 396.54 516.29 963.41 425.66 1146.50 432.88 1054.20 514.57 989.76 604.08 1131.10 610.42
00007652 00000076 850.41 217.57 395.64 506.40 956.99 422.43 1141.31 428.21 1046.57 511.33 984.88 603.22 1124.91 608.50
00007653 00000077 849.44 206.28 392.40 510.36 954.14 421.40 1135.28 428.43 1039.96 506.93 978.94 596.88 1117.00 603.24
00007654 00000078 845.42 207.10 391.58 503.23 941.86 420.20 1124.79 426.80 1021.43 499.68 962.50 589.60 1106.76 595.24
00007655 00000079 841.73 207.43 384.06 497.36 927.91 407.81 1104.55 415.84 1001.97 494.52 938.06 583.03 1084.11 588.16
00007656 DELETE   835.66 209.22 382.31 494.50 908.22 403.43 1085.32 413.29 973.47 493.01 920.47 585.71 1065.13 592.37
00007657 00000081 827.48 216.14 383.01 485.99 889.08 400.30 1069.82 414.41 951.59 498.07 898.23 583.24 1048.15 593.88
00007658 00000082 820.73 208.93 389.54 502.60 879.61 406.92 1053.70 422.07 924.40 500.96 877.38 584.00 1030.38 594.72
00007659 00000083 816.51 207.33 387.41 508.65 874.38 409.16 1042.49 421.66 915.99 502.41 873.63 587.57 1018.64 596.03
00007660 00000084 812.97 203.68 386.79 512.62 870.18 411.33 1034.90 422.99 909.97 504.14 870.83 588.84 1013.58 596.42
00007661 00000085 813.32 197.10 384.90 519.67 869.26 412.32 1030.47 425.31 905.58 505.50 870.46 589.26 1012.22 597.72
00007662 00000086 813.24 202.78 384.68 516.12 868.74 414.24 1028.21 427.22 904.30 509.40 872.15 592.34 1011.14 600.59
00007663 00000087 815.00 199.01 383.93 523.91 870.04 414.68 1027.97 430.64 902.65 515.06 871.59 593.62 1012.87 604.05
00007664 00000088 815.02 199.11 384.81 526.51 869.35 417.51 1027.26 433.71 902.28 518.79 872.29 597.03 1012.69 607.48
00007665 00000089 814.67 199.99 384.01 528.26 870.30 418.58 1026.69 433.79 903.68 517.59 874.85 599.19 1009.13 608.87
00007666 00000090 814.16 204.51 382.42 530.33 870.04 419.41 1025.80 432.03 906.35 516.70 882.60 607.12 1004.36 614.53
00007667 00000091 814.18 204.23 381.15 534.48 869.67 420.69 1024.76 431.22 906.38 516.69 885.13 610.34 1004.03 615.91
00007668 00000092 814.23 207.69 382.32 528.55 868.74 422.99 1024.08 432.03 904.35 516.88 882.87 606.69 1004.69 611.28
00007669 00000093 813.61 203.85 382.59 528.14 868.39 422.43 1023.53 431.16 903.42 515.31 880.71 604.04 1004.93 608.68
00007670 00000094 813.44 200.26 383.02 530.37 868.42 422.27 1023.34 431.05 903.20 515.44 881.23 602.60 1007.27 607.05
00007671 00000095 813.44 209.46 384.63 519.81 868.21 420.62 1025.49 429.21 904.84 515.11 882.36 601.16 1010.86 605.28
00007672 00000096 813.15 203.87 386.50 523.97 870.02 420.04 1026.36 428.47 907.21 512.82 883.04 599.44 1012.26 603.50
00007673 00000097 817.52 206.19 382.53 521.92 874.26 433.28 1029.43 439.93 908.31 511.57 885.60 600.49 1017.66 602.82
00007674 00000098 821.71 196.59 381.59 530.54 877.42 433.51 1037.49 440.35 917.53 511.16 891.83 599.53 1023.77 602.29
00007675 DELETE   821.27 210.76 383.45 505.73 877.73 427.02 1044.80 434.45 926.33 510.85 893.16 597.39 1027.74 601.00
00007676 00000100 823.06 220.35 385.82 494.96 883.47 424.04 1053.12 427.68 938.87 507.13 901.70 598.92 1031.53 600.12
00007677 00000101 820.46 208.84 389.72 504.26 890.84 421.45 1061.09 421.16 951.51 501.96 910.80 597.64 1038.24 595.96
00007678 00000102 821.53 213.24 391.91 494.46 895.73 415.87 1070.55 412.49 960.84 493.92 914.95 591.88 1047.62 588.05
00007679 00000103 823.31 199.21 388.23 498.81 898.73 409.56 1074.40 406.33 972.28 490.87 926.65 590.19 1055.24 586.53
00007680 00000104 819.03 188.31 399.48 511.27 901.97 407.14 1077.65 402.75 972.08 488.79 928.75 587.27 1066.49 583.20
00007681 00000105 824.17 191.56 392.02 509.93 908.87 409.92 1085.83 402.84 988.00 486.30 940.89 593.17 1064.43 586.25
00007682 00000106 818.73 186.45 403.16 515.19 909.34 407.57 1087.85 402.01 986.35 490.05 939.59 589.33 1078.86 583.68
00007683 00000107 824.44 194.06 393.18 503.78 914.17 406.06 1093.09 401.22 998.55 488.35 944.31 586.93 1075.61 581.55
00007684 00000108 825.20 195.88 393.95 502.40 915.54 408.35 1094.82 401.73 1001.78 489.02 947.41 588.35 1078.82 581.26
00007685 00000109 830.28 189.10 390.40 509.39 925.98 425.94 1098.25 415.29 1007.36 488.37 952.68 588.53 1083.06 577.78
00007686 00000110 833.34 193.58 390.35 504.56 931.32 427.25 1107.30 415.86 1016.91 489.05 957.08 587.54 1091.96 576.33
00007687 DELETE   833.51 200.37 400.69 501.08 939.05 423.88 1117.92 419.35 1021.88 493.06 966.59 585.82 1106.58 581.72
00007688 00000112 833.38 199.73 403.23 505.15 939.93 420.92 1120.10 416.94 1024.96 492.95 970.78 587.75 1107.64 584.05
00007689 00000113 833.80 198.60 404.35 509.01 941.06 419.92 1121.02 414.86 1028.36 493.26 975.49 591.46 1108.64 586.78
00007690 00000114 835.03 200.46 403.76 508.18 942.73 419.74 1124.27 414.62 1031.33 494.42 976.45 591.19 1112.41 586.52
00007691 00000115 838.45 202.00 399.89 503.27 945.97 421.88 1127.55 418.45 1035.20 495.53 977.90 590.87 1117.41 587.73
00007692 00000116 840.28 204.92 398.21 498.69 947.99 423.01 1129.18 419.69 1039.00 497.94 981.76 591.28 1121.62 588.25
00007693 00000117 840.87 203.82 398.58 500.26 949.52 422.75 1130.36 420.04 1040.97 498.68 983.33 591.65 1123.04 589.24
00007694 00000118 839.07 201.62 401.74 507.06 950.40 422.29 1130.44 419.52 1042.03 499.03 985.78 594.25 1121.88 591.65
00007695 00000119 841.11 201.62 400.84 510.73 951.75 423.21 1133.15 420.69 1044.86 499.57 987.35 596.47 1124.72 594.28
00007696 00000120 847.06 201.46 395.15 508.50 955.79 429.67 1135.44 430.05 1046.27 500.64 988.85 595.69 1129.14 595.93
00007697 00000121 850.03 203.66 392.14 506.35 956.58 436.04 1135.69 435.87 1046.68 504.12 990.80 598.86 1130.81 598.27
00007698 00000122 849.39 207.43 395.21 504.88 956.61 433.72 1139.67 432.38 1050.55 506.26 993.66 601.82 1134.99 600.29
00007699 00000123 851.76 212.34 394.04 496.40 958.32 434.23 1141.45 432.36 1051.94 507.70 996.04 602.19 1136.46 600.55
00007700 00000124 851.56 216.55 395.02 491.38 958.97 433.55 1143.92 431.44 1054.56 508.58 997.06 602.97 1138.10 601.14
00007701 00000125 851.33 213.48 395.85 500.83 959.46 431.93 1144.52 429.88 1055.61 510.58 997.65 605.04 1138.82 603.23
00007702 00000126 848.90 212.21 399.12 513.57 961.00 431.31 1143.25 430.35 1056.08 515.47 998.27 609.19 1134.61 608.25
00007703 00000127 848.50 213.96 400.44 515.16 960.54 432.61 1145.65 431.71 1057.69 517.35 998.90 611.29 1139.23 610.23
00007704 00000128 848.70 214.98 402.15 515.45 960.43 433.44 1147.32 433.04 1058.74 518.00 998.54 611.17 1142.87 610.28
00007705 00000129 848.76 215.84 402.40 514.04 960.88 433.43 1148.23 432.99 1060.21 518.06 998.72 610.03 1144.74 609.11
00007706 00000130 848.77 216.55 402.55 512.94 961.20 433.38 1148.62 432.73 1060.97 518.51 999.43 610.15 1145.08 609.08
00007707 00000131 849.61 215.20 402.67 514.42 962.39 432.15 1149.45 431.74 1061.97 517.40 1000.44 609.30 1145.93 608.32
00007708 00000132 851.90 214.90 398.96 515.49 964.70 433.85 1149.15 433.46 1062.99 516.74 1002.00 609.05 1146.15 608.02
00007709 00000133 854.10 208.88 397.81 522.32 969.96 439.29 1148.59 441.15 1064.45 513.64 1001.66 606.38 1144.92 607.20
00007710 00000134 854.72 206.35 398.37 526.67 970.00 439.47 1149.94 438.81 1066.39 513.97 1003.46 609.37 1147.32 608.08
00007711 00000135 855.24 206.18 400.99 527.98 970.83 438.58 1153.67 436.83 1069.83 515.27 1006.10 611.92 1150.59 609.73
00007712 00000136 857.90 208.69 400.07 527.24 971.88 438.42 1155.46 435.38 1071.30 517.33 1007.35 614.68 1151.35 611.55
00007713 00000137 864.48 216.74 395.78 522.28 973.16 438.08 1153.15 429.49 1071.67 518.87 1006.96 621.67 1146.26 612.48
00007714 00000138 866.00 219.20 395.48 520.33 974.05 438.50 1154.00 429.03 1072.62 520.11 1008.28 622.75 1146.25 612.96
00007715 00000139 868.80 221.37 394.13 518.48 975.72 438.85 1154.53 429.29 1073.35 520.78 1010.32 623.14 1147.00 613.39
00007716 00000140 871.78 222.69 393.97 517.70 977.27 439.00 1156.08 429.54 1074.45 520.13 1011.63 622.86 1148.65 613.13
00007717 00000141 873.00 223.45 395.27 516.82 979.17 439.28 1157.78 429.95 1076.36 520.31 1014.60 623.64 1150.25 613.89
00007718 00000142 875.29 221.93 393.49 517.06 981.35 440.99 1159.29 431.31 1078.62 520.51 1016.46 623.47 1153.35 613.43
00007719 00000143 876.28 222.24 395.19 516.36 983.38 442.32 1161.04 431.81 1080.73 520.72 1018.43 623.47 1156.50 612.89
00007720 00000144 878.96 220.37 394.34 517.04 985.62 443.61 1162.86 432.67 1083.37 520.82 1020.05 623.76 1159.22 613.08
00007721 00000145 880.48 221.97 394.55 514.30 986.48 444.62 1163.61 433.04 1083.87 520.13 1021.06 624.22 1160.24 612.96
00007722 00000146 881.27 223.26 396.39 512.09 987.56 445.19 1164.66 434.19 1084.33 521.19 1021.28 623.76 1161.15 612.99
00007723 00000147 881.23 223.81 398.29 509.27 988.12 444.25 1165.96 434.96 1084.29 521.42 1020.15 620.83 1163.48 611.52
00007724 00000148 880.29 224.64 397.56 501.23 987.56 441.97 1166.44 435.40 1083.23 521.82 1016.27 614.69 1164.56 607.76
00007725 00000149 876.30 222.84 403.93 501.50 988.18 436.17 1171.68 439.01 1083.71 521.90 1016.57 606.34 1162.32 608.65
00007726 00000150 875.94 223.59 403.46 497.03 987.56 436.00 1172.35 438.63 1083.93 521.73 1015.53 604.64 1162.89 606.98
00007727 00000151 874.83 223.48 403.87 493.92 986.42 435.83 1171.83 437.83 1082.65 521.14 1013.89 602.88 1162.27 604.77
00007728 00000152 874.10 221.92 405.24 494.42 985.55 436.13 1170.33 437.40 1080.97 521.06 1011.44 600.87 1161.27 602.20
00007729 00000153 872.21 220.51 407.16 496.90 985.08 437.67 1169.21 439.68 1080.23 522.03 1010.26 600.85 1159.54 602.62
00007730 00000154 871.47 221.72 406.21 496.98 984.87 438.49 1167.87 440.16 1080.05 522.59 1010.08 601.94 1158.18 603.46
00007731 00000155 870.95 222.84 406.93 498.02 984.76 439.17 1167.22 441.40 1079.68 523.75 1008.60 602.09 1157.02 604.00
00007732 00000156 873.63 229.77 400.57 487.43 982.64 442.42 1162.30 439.76 1078.32 522.77 1006.42 607.31 1160.84 603.80
00007733 00000157 873.79 228.67 400.10 489.17 982.58 442.46 1162.36 440.48 1077.77 523.14 1005.93 607.63 1160.32 604.67
00007734 00000158 868.54 222.59 405.62 497.51 982.71 440.83 1165.94 443.48 1077.36 525.00 1007.13 604.04 1154.63 606.24
00007735 00000159 867.11 223.92 406.34 495.70 980.85 440.73 1164.20 443.48 1075.23 524.95 1006.38 604.39 1152.89 606.56
00007736 00000160 871.41 229.45 399.93 488.67 979.65 443.49 1159.42 442.14 1073.00 524.71 1002.51 609.41 1154.81 606.81
00007737 00000161 870.16 228.74 400.47 492.40 978.75 443.24 1159.32 443.04 1071.77 524.83 1000.30 610.57 1152.93 609.01
00007738 00000162 870.59 230.73 400.17 499.23 977.74 443.70 1158.39 441.33 1070.60 524.70 1002.30 615.35 1150.69 611.83
00007739 00000163 871.28 225.58 397.59 506.59 975.01 443.23 1154.80 439.17 1067.07 523.35 1006.72 624.25 1140.16 618.59
00007740 00000164 868.54 221.24 395.74 503.73 969.17 441.95 1147.65 437.56 1060.07 522.37 1001.50 619.51 1136.08 613.22
00007741 00000165 859.40 217.89 398.81 502.53 963.68 435.29 1141.90 441.07 1048.08 520.29 994.16 607.26 1127.30 611.94
00007742 DELETE   855.95 220.64 396.26 499.65 953.15 431.55 1132.79 436.55 1035.13 518.54 981.84 604.35 1115.22 608.61
