Video ID: 	dcvre63VqLQ
H: 	1080
W: 	1920
FPS: 	25.0

FRAME INDEX X0 Y0 W H [Landmarks (5 Points)]

00007072 00000000 726.60 183.23 375.46 623.49 796.37 450.72 967.80 450.87 861.87 560.86 817.17 662.36 958.52 661.72
00007073 00000001 726.96 175.74 375.95 625.77 794.74 446.49 963.45 449.61 855.49 556.75 814.14 653.25 955.10 656.05
00007074 DELETE   726.09 179.30 375.16 623.64 793.42 451.92 965.34 452.17 857.49 560.16 812.66 658.06 959.59 657.27
00007075 DELETE   726.13 182.47 374.27 622.59 793.83 452.64 964.99 451.95 857.80 560.06 813.35 660.76 958.72 659.52
00007076 00000004 725.24 183.85 374.96 620.24 793.96 453.12 966.28 452.57 858.50 559.44 811.99 660.07 959.55 658.94
00007077 DELETE   724.91 184.30 376.03 617.83 794.54 452.25 968.12 453.46 859.45 559.81 811.11 658.84 959.80 659.13
00007078 00000006 724.96 185.41 375.78 616.54 795.23 451.90 968.84 453.99 860.25 560.57 810.79 658.31 960.44 659.32
00007079 00000007 724.12 187.70 377.47 615.15 795.78 450.49 970.07 452.69 861.94 560.35 811.17 658.32 961.32 659.36
00007080 00000008 722.68 186.84 380.15 613.16 797.76 447.10 973.90 451.34 865.43 561.32 811.02 656.16 961.92 658.73
00007081 00000009 723.56 179.04 380.49 621.05 798.89 441.57 973.86 449.28 866.00 557.24 811.67 650.72 958.71 657.67
00007082 00000010 723.04 180.82 381.46 618.27 800.57 441.48 976.99 449.36 868.46 556.16 812.12 649.56 960.25 656.79
00007083 00000011 722.40 178.19 382.71 619.36 801.71 439.94 979.53 447.77 872.50 554.15 814.02 648.67 962.33 655.84
00007084 00000012 721.99 174.65 384.11 622.44 803.90 437.78 981.30 445.95 876.78 553.85 817.34 648.43 964.00 655.79
00007085 00000013 721.70 170.90 384.05 624.63 805.32 431.74 984.39 439.86 879.99 552.64 819.43 646.41 966.76 653.54
00007086 00000014 720.96 170.61 384.26 623.23 807.26 426.58 987.66 435.71 883.92 550.01 821.29 644.93 969.07 652.88
00007087 00000015 719.75 168.93 385.70 622.65 808.03 424.71 988.72 433.88 886.50 546.66 822.49 643.57 969.65 651.56
00007088 00000016 719.76 170.19 385.92 620.07 809.93 423.76 989.06 432.64 888.24 544.01 824.59 642.40 970.06 650.31
00007089 00000017 718.12 172.20 387.65 617.66 809.90 422.30 989.62 431.06 889.75 543.45 824.99 641.70 970.28 649.50
00007090 00000018 717.38 168.96 388.97 621.42 810.44 422.31 989.50 431.02 891.10 541.86 825.61 640.60 971.41 648.28
00007091 00000019 718.79 168.62 387.09 620.67 810.73 427.41 988.83 435.77 892.35 542.13 825.65 640.26 972.45 647.83
00007092 00000020 718.23 168.86 387.52 621.15 812.06 431.18 989.02 439.17 895.18 544.60 828.09 642.25 973.85 649.55
00007093 00000021 718.05 169.66 388.57 621.28 812.94 432.88 989.98 440.46 896.24 546.68 829.83 644.04 974.96 650.99
00007094 00000022 718.27 170.30 388.09 621.03 813.35 434.44 990.49 441.99 896.66 548.23 830.06 644.67 975.62 651.56
00007095 00000023 718.24 170.91 388.08 621.08 812.71 435.24 989.77 442.29 895.77 548.82 829.75 645.19 975.33 651.66
00007096 00000024 718.63 171.99 387.55 619.73 811.86 435.45 989.31 442.08 894.42 548.78 829.21 645.28 975.06 651.35
00007097 00000025 719.16 171.52 387.25 620.62 811.17 435.26 988.39 441.61 893.57 547.90 828.97 645.54 974.55 651.43
00007098 00000026 720.42 170.03 385.54 621.03 810.78 434.86 987.87 441.72 892.37 546.26 828.13 644.91 973.62 651.19
00007099 00000027 723.49 167.71 382.05 621.99 811.81 437.36 987.18 444.78 891.14 545.66 828.12 643.97 973.34 650.39
00007100 00000028 725.34 169.07 381.75 620.16 810.97 438.72 986.77 445.22 888.26 545.47 826.97 644.03 973.08 649.72
00007101 00000029 725.52 167.78 382.19 621.16 810.73 438.33 987.19 445.00 887.75 545.00 826.59 643.92 972.77 649.65
00007102 00000030 726.85 169.31 380.61 620.19 810.47 439.22 986.37 445.49 885.82 545.35 826.25 644.15 972.34 649.70
00007103 00000031 727.77 168.87 379.66 620.84 811.01 438.95 986.71 445.26 885.97 545.89 827.20 645.42 972.00 651.07
00007104 00000032 729.99 168.62 378.48 621.53 811.73 440.08 987.32 446.96 885.25 547.70 827.05 646.50 971.60 652.54
00007105 00000033 730.65 168.48 379.04 622.07 811.16 440.70 986.20 448.15 882.73 549.31 826.47 646.29 970.89 652.69
00007106 00000034 731.39 171.92 378.91 619.14 810.42 441.24 985.64 449.24 879.80 551.69 825.23 646.23 970.57 653.14
00007107 00000035 731.85 172.50 379.01 618.60 810.23 440.97 985.39 450.14 878.61 553.26 824.32 646.59 969.15 654.42
00007108 DELETE   731.94 171.59 379.57 620.39 808.77 441.40 983.88 450.81 875.90 554.55 823.18 647.28 968.32 655.18
00007109 00000037 731.67 173.56 379.31 618.50 806.66 443.85 981.84 452.13 873.38 554.65 821.89 647.00 968.13 653.95
00007110 00000038 730.89 173.15 380.16 619.87 804.22 445.93 980.36 453.49 869.94 555.50 819.56 646.33 968.29 652.46
00007111 00000039 729.30 177.12 380.52 615.89 802.01 446.65 977.03 454.90 865.79 558.22 816.53 646.01 964.82 652.79
00007112 00000040 726.97 178.43 379.85 616.21 797.67 447.22 970.35 453.51 860.17 561.27 815.09 647.98 961.20 653.07
00007113 DELETE   725.84 178.77 379.65 618.02 795.88 448.35 966.90 454.48 856.97 562.11 813.32 649.06 958.13 654.09
00007114 00000042 724.64 180.36 378.90 617.90 794.00 449.65 965.22 455.44 856.03 563.80 811.97 651.52 956.21 656.36
00007115 00000043 723.22 179.49 381.01 621.33 792.58 452.06 964.22 456.76 855.74 565.71 811.99 653.77 957.04 657.53
00007116 DELETE   722.28 180.30 381.69 620.20 791.82 453.21 963.84 457.12 856.39 566.77 812.15 656.19 955.89 659.35
00007117 00000045 721.59 178.28 382.20 623.40 791.98 453.01 963.57 456.43 856.65 566.34 813.40 656.74 956.75 659.38
00007118 00000046 721.12 179.02 381.87 623.91 792.15 451.61 963.81 454.63 856.93 565.51 814.25 657.23 956.73 659.77
00007119 00000047 720.11 178.60 383.11 622.74 793.95 447.83 966.12 452.35 860.03 564.06 814.58 654.90 957.54 658.73
00007120 00000048 718.83 176.19 384.30 625.42 794.65 444.81 968.19 450.11 863.04 561.98 813.03 651.63 959.80 655.88
00007121 00000049 718.37 173.92 384.68 625.75 795.21 441.87 969.64 447.60 865.04 559.10 812.93 649.33 960.65 653.83
00007122 00000050 718.39 173.02 383.42 624.84 794.18 439.29 968.59 445.53 863.43 557.09 812.78 649.68 958.40 654.61
00007123 00000051 718.57 174.41 383.04 622.43 793.67 440.44 967.55 446.86 861.65 556.63 811.81 649.53 956.74 654.70
00007124 00000052 718.69 174.44 382.63 621.51 792.54 440.41 966.07 447.14 858.78 555.75 809.44 648.64 954.63 654.12
00007125 00000053 718.13 170.72 381.30 621.34 791.72 437.20 965.38 446.13 856.75 551.95 806.07 644.83 951.65 652.09
00007126 00000054 719.28 163.56 379.48 632.25 792.57 435.29 965.77 444.84 855.98 547.20 805.79 643.56 951.31 651.35
00007127 00000055 721.37 160.53 377.66 634.79 792.67 436.65 967.11 441.54 856.99 541.42 808.50 643.85 954.72 647.73
00007128 00000056 719.53 160.99 381.90 627.63 796.87 429.79 972.27 438.32 863.47 538.76 810.11 638.00 955.85 645.10
00007129 DELETE   720.86 163.26 382.59 621.00 801.86 422.67 975.74 432.00 869.39 533.81 811.81 630.44 959.84 638.46
00007130 00000058 721.17 161.53 384.80 620.74 805.16 418.86 979.66 426.51 875.93 532.38 815.53 628.19 964.85 635.02
00007131 00000059 721.30 161.83 388.09 614.28 807.66 414.53 985.72 421.43 882.94 529.43 818.79 624.95 971.40 631.11
00007132 00000060 722.34 161.75 391.07 610.60 811.39 411.70 990.40 417.94 888.57 525.19 822.15 622.80 975.40 628.40
00007133 00000061 724.09 154.91 392.79 616.34 816.97 410.32 996.46 415.88 896.51 521.96 828.25 620.90 981.72 625.71
00007134 00000062 725.55 150.86 393.75 621.13 821.80 409.52 999.84 414.95 902.88 518.14 835.08 621.80 985.25 626.28
00007135 00000063 727.14 149.02 396.46 625.33 826.74 407.62 1004.25 414.61 909.19 518.82 837.44 619.24 989.89 624.69
00007136 00000064 728.86 146.55 396.15 627.54 829.28 408.14 1006.01 415.63 912.38 518.66 841.07 619.00 992.77 624.78
00007137 00000065 731.32 149.19 393.42 622.13 830.67 407.04 1004.96 414.76 912.21 517.08 843.98 620.04 990.29 626.36
00007138 00000066 733.12 150.43 393.14 619.24 833.01 406.91 1004.86 413.38 912.20 515.45 848.04 621.80 987.45 627.35
00007139 00000067 734.28 151.89 392.12 615.54 831.06 407.67 1003.89 413.48 909.00 515.07 846.07 621.55 986.83 626.69
00007140 00000068 733.91 152.83 391.89 614.42 827.79 407.06 1002.76 414.25 903.95 515.93 839.61 619.31 985.31 625.57
00007141 00000069 733.95 153.33 390.94 613.50 826.48 409.05 1000.24 416.65 901.78 519.86 838.55 620.18 983.41 626.72
00007142 00000070 733.62 158.35 391.54 605.18 823.78 411.65 1001.22 419.92 897.92 523.49 833.73 619.63 982.98 626.90
00007143 00000071 733.26 158.50 391.09 606.74 822.60 408.91 999.20 416.83 894.79 522.99 830.61 618.52 980.37 625.74
00007144 00000072 734.02 158.35 389.76 608.09 822.14 406.37 998.58 413.40 893.21 520.87 831.08 618.01 980.30 624.64
00007145 00000073 734.51 157.88 388.80 610.75 822.77 403.83 998.10 410.29 893.40 518.39 831.91 618.20 979.75 624.25
00007146 00000074 734.43 156.38 390.19 608.83 824.25 402.19 1000.11 407.93 896.26 516.44 834.87 617.09 981.53 622.42
00007147 00000075 734.06 155.09 390.24 608.17 825.19 399.71 1001.02 406.16 897.69 513.13 834.78 614.77 981.38 620.65
00007148 00000076 733.57 154.13 389.85 608.90 825.97 397.19 1001.77 403.84 899.56 508.89 835.09 611.79 983.19 617.74
00007149 00000077 732.69 151.67 389.77 611.86 826.12 394.28 1002.70 401.28 902.14 503.79 834.88 609.81 984.24 615.97
00007150 00000078 730.56 150.44 391.23 611.83 824.96 396.25 1001.79 401.03 903.14 502.51 836.00 609.73 985.66 614.17
00007151 00000079 727.66 148.00 390.94 616.28 821.69 398.82 997.08 402.82 901.36 500.56 834.06 610.08 983.95 613.62
00007152 00000080 722.98 149.38 393.51 614.47 815.75 398.08 993.06 401.84 896.82 497.13 829.14 609.45 979.64 612.53
00007153 DELETE   720.60 151.28 392.09 610.63 810.76 398.67 987.39 402.05 890.23 496.32 824.48 608.36 975.52 611.11
00007154 00000082 715.16 153.23 393.67 606.96 804.99 399.64 983.67 401.63 885.29 496.24 819.42 606.16 974.14 607.46
00007155 00000083 711.42 152.75 392.23 609.18 802.30 399.32 980.99 402.92 882.41 497.11 816.26 606.87 971.13 609.41
00007156 00000084 708.24 151.49 392.67 611.68 799.64 397.07 979.08 401.26 879.13 497.38 812.55 607.29 966.89 610.20
00007157 00000085 706.30 152.04 393.98 611.95 797.97 396.08 979.23 400.00 877.56 496.73 810.76 607.94 965.06 610.60
00007158 00000086 705.47 153.29 393.62 611.63 798.02 395.69 978.80 400.46 877.00 497.52 809.87 607.90 963.23 611.31
00007159 00000087 704.96 154.89 394.63 611.09 797.58 395.90 980.09 400.46 876.92 497.86 809.44 609.61 963.75 612.92
00007160 00000088 705.69 155.41 395.29 612.41 798.87 396.95 980.22 403.41 876.50 500.86 808.79 610.53 962.75 615.52
00007161 00000089 707.56 156.10 395.91 614.01 800.16 398.94 981.79 404.97 877.09 504.61 809.79 613.26 963.26 618.24
00007162 00000090 709.04 156.85 396.03 613.90 801.53 399.26 983.10 405.81 878.26 506.29 810.78 613.81 964.58 619.29
00007163 00000091 710.83 156.76 395.98 616.24 803.40 399.92 984.02 405.98 879.82 510.28 812.69 615.83 966.12 620.83
00007164 00000092 713.81 157.63 394.04 617.94 804.76 402.22 984.64 407.96 880.37 514.34 814.75 618.36 968.10 623.20
00007165 00000093 718.14 157.55 390.35 621.13 806.85 410.00 984.56 416.22 881.33 518.65 816.71 621.32 969.36 626.96
00007166 00000094 720.13 159.34 389.06 620.16 808.10 414.95 984.85 422.00 882.21 522.86 818.45 623.89 970.33 630.37
00007167 00000095 722.69 160.30 386.67 620.79 808.58 417.12 984.82 423.24 882.10 526.77 819.95 627.00 970.78 632.80
00007168 00000096 724.29 159.75 385.39 622.60 810.00 418.49 985.95 425.10 882.89 527.64 820.88 628.33 971.54 634.61
00007169 00000097 725.01 159.97 384.79 622.55 810.22 419.47 986.14 425.62 882.29 528.24 821.42 629.82 971.18 635.83
00007170 00000098 726.06 160.15 383.51 622.55 810.89 420.21 986.84 426.33 883.73 529.93 822.89 630.98 972.16 636.90
00007171 00000099 726.38 158.21 383.45 625.42 811.05 420.81 987.19 427.39 883.65 530.30 822.76 631.40 972.44 637.57
00007172 00000100 727.17 160.81 382.16 622.39 810.98 421.11 987.31 428.55 882.53 531.52 821.70 631.16 972.66 638.04
00007173 00000101 727.43 160.23 380.85 623.45 809.57 423.88 985.74 430.10 880.92 532.26 821.09 632.28 971.81 638.04
00007174 00000102 727.58 163.01 380.05 619.98 807.89 425.59 982.43 431.42 877.76 533.51 819.71 632.18 969.39 637.68
00007175 00000103 727.82 161.26 378.37 623.38 805.48 428.16 980.03 434.08 875.02 535.04 818.08 633.82 968.05 639.03
00007176 00000104 727.43 161.72 377.21 623.83 802.92 429.92 978.37 435.83 871.28 535.24 815.23 634.70 965.76 639.75
00007177 00000105 725.06 161.69 378.53 623.81 800.96 431.10 975.46 437.93 867.99 535.92 813.16 634.65 962.27 640.37
00007178 00000106 723.07 160.57 378.24 625.50 798.72 430.58 971.78 437.64 865.27 536.38 811.33 634.91 958.83 640.77
00007179 00000107 721.44 158.62 377.51 626.64 797.59 430.89 969.47 438.55 862.92 536.46 809.58 634.50 955.72 640.84
00007180 00000108 720.09 156.95 377.85 628.88 796.05 430.67 967.44 437.97 861.49 536.65 809.07 635.26 955.07 641.16
00007181 00000109 718.87 156.63 378.73 629.20 795.43 430.10 966.58 437.84 860.74 537.02 808.43 635.04 954.14 641.23
00007182 00000110 717.28 159.12 380.54 627.17 795.54 429.56 967.14 437.68 861.50 537.03 807.73 634.55 953.80 641.20
00007183 00000111 716.14 161.72 382.08 624.73 795.52 424.13 967.79 432.38 862.48 535.38 807.35 633.81 953.23 640.89
00007184 00000112 715.00 160.82 383.62 625.49 796.03 422.33 969.66 431.09 863.84 534.99 807.71 633.21 954.46 640.61
00007185 00000113 714.63 161.54 383.76 625.54 796.44 421.77 970.52 430.13 865.42 535.60 808.80 633.69 956.01 640.75
00007186 00000114 713.88 160.61 385.58 625.98 797.46 420.88 972.27 429.83 867.23 535.30 809.54 633.11 956.89 640.66
00007187 00000115 714.30 160.50 386.01 626.07 798.72 420.91 973.90 429.28 869.23 534.03 811.32 632.86 958.76 639.96
00007188 00000116 715.49 159.88 385.73 625.51 799.42 421.38 976.37 429.59 871.43 533.92 811.89 632.60 961.08 639.65
00007189 00000117 717.20 160.23 384.78 624.65 801.60 422.55 979.99 430.35 875.68 533.56 813.99 632.38 964.87 639.19
00007190 00000118 717.69 160.73 385.17 624.69 803.89 423.13 982.76 430.99 880.34 535.14 816.20 633.12 967.36 639.94
00007191 00000119 719.47 158.98 383.41 626.32 806.70 425.17 985.02 434.22 884.89 537.36 819.41 634.91 968.87 642.75
00007192 00000120 719.56 162.38 384.14 622.88 807.81 426.03 986.98 435.50 887.16 538.72 821.00 636.05 970.50 644.32
00007193 00000121 719.79 162.23 384.37 624.14 808.98 427.38 987.18 436.81 889.15 539.55 823.19 637.91 970.91 646.16
00007194 00000122 721.15 162.45 384.05 625.03 809.97 428.95 988.33 438.09 890.75 541.41 824.76 639.99 972.15 647.98
00007195 00000123 721.60 165.98 383.68 622.32 810.16 429.77 988.42 438.45 890.75 542.33 825.07 640.86 972.60 648.59
00007196 00000124 721.88 167.17 383.83 621.10 810.79 429.80 989.11 438.50 891.75 542.71 825.53 641.25 972.94 649.02
00007197 00000125 722.77 165.91 383.34 622.18 811.65 429.27 990.26 438.28 892.43 542.91 826.17 641.24 973.79 649.31
00007198 00000126 723.91 165.52 383.15 622.68 812.60 428.92 991.36 437.87 893.01 542.84 826.83 641.23 974.40 649.27
00007199 00000127 724.31 165.06 383.48 622.89 813.34 428.74 991.82 437.80 893.46 543.32 827.79 641.18 975.18 649.23
00007200 00000128 725.59 166.31 382.99 621.83 814.32 429.04 992.13 438.05 893.63 544.10 828.59 640.96 976.14 648.98
00007201 00000129 726.21 166.87 382.72 620.83 815.27 429.18 992.40 438.00 894.21 543.84 829.48 640.56 976.45 648.47
00007202 00000130 726.31 166.80 383.06 621.40 815.49 429.04 992.88 437.87 894.33 543.62 829.25 640.52 976.62 648.48
00007203 00000131 726.69 166.12 382.56 621.41 815.11 430.25 991.17 438.48 893.06 543.30 829.61 640.50 975.88 647.94
00007204 00000132 726.50 166.93 382.69 620.92 813.31 430.24 989.93 437.23 890.56 543.15 828.47 641.03 975.19 647.51
00007205 00000133 725.80 167.68 382.05 620.28 811.61 430.84 987.79 437.54 888.86 543.09 826.68 640.73 973.41 646.95
00007206 00000134 724.96 166.64 381.51 620.79 808.30 431.93 985.50 438.53 885.18 543.77 824.41 640.81 971.96 646.71
00007207 00000135 722.87 166.90 382.64 621.23 805.01 433.59 982.21 440.12 879.93 545.78 822.17 641.57 969.36 647.32
00007208 00000136 722.61 167.51 381.90 621.51 803.22 434.73 978.91 441.14 875.85 546.58 819.83 640.38 967.60 645.81
00007209 00000137 720.67 167.05 381.97 622.03 800.26 434.90 974.87 441.25 871.82 546.94 817.44 640.84 964.62 646.01
00007210 00000138 719.92 165.37 380.40 623.96 797.66 437.66 969.93 443.00 867.81 547.41 816.52 642.84 961.23 646.93
00007211 00000139 717.56 166.51 381.67 624.09 795.50 439.71 966.74 445.11 864.43 548.10 814.40 643.46 958.71 647.52
00007212 00000140 716.11 164.94 381.46 626.98 793.62 440.41 964.74 446.38 861.98 548.79 812.50 644.66 955.86 649.07
00007213 00000141 713.40 166.34 382.94 629.57 791.49 441.52 963.42 446.63 860.50 551.77 812.04 647.47 955.69 651.12
00007214 00000142 711.18 168.70 384.91 630.78 789.76 444.37 961.85 448.70 859.45 554.16 811.43 650.42 954.37 653.45
00007215 00000143 709.01 169.14 385.03 630.67 789.17 445.15 961.59 451.53 859.27 555.74 810.13 651.48 951.42 656.25
00007216 00000144 708.37 172.52 385.03 629.56 787.24 446.93 960.16 452.97 857.82 556.98 808.20 653.45 949.78 658.05
00007217 00000145 708.15 171.92 384.41 630.25 786.82 448.80 960.00 455.53 856.97 558.19 807.20 653.65 948.94 658.79
00007218 00000146 708.69 172.44 382.11 630.03 787.91 454.71 962.75 461.61 857.30 559.35 808.16 654.34 951.47 659.63
00007219 00000147 708.59 174.10 381.81 629.18 788.94 456.25 964.59 463.78 858.84 561.17 808.20 655.04 952.09 661.01
00007220 00000148 708.12 172.55 382.24 631.66 788.81 456.75 964.33 465.06 859.70 563.04 808.58 655.83 951.58 662.39
00007221 00000149 707.96 177.64 382.77 627.48 788.97 455.93 962.04 464.96 860.17 564.63 808.87 656.02 950.39 663.24
00007222 00000150 707.49 178.97 384.39 625.89 789.61 454.34 963.55 463.22 861.22 565.05 809.39 655.49 951.46 662.70
00007223 00000151 706.85 178.46 385.90 625.52 790.04 452.92 965.82 461.52 862.99 564.35 809.16 654.23 953.07 661.17
00007224 00000152 707.43 176.67 386.61 627.12 791.25 451.23 966.77 459.78 863.82 563.88 808.73 652.40 953.80 659.25
00007225 00000153 708.67 177.23 386.24 624.87 792.69 449.20 967.29 458.18 864.36 562.41 809.48 651.22 953.09 658.65
00007226 00000154 710.21 176.80 386.02 625.22 794.46 447.28 968.23 455.90 865.92 561.10 811.55 652.01 953.26 659.27
00007227 00000155 710.46 175.76 385.27 627.60 795.24 441.71 967.51 450.92 866.83 558.17 812.17 653.66 949.77 661.78
00007228 00000156 710.86 171.16 385.47 629.22 794.30 437.98 967.38 448.13 864.81 553.98 809.81 648.88 951.35 657.43
00007229 00000157 711.82 164.26 385.89 633.24 794.22 435.26 967.25 445.11 862.19 549.55 806.64 642.49 952.69 650.48
00007230 00000158 711.91 165.59 386.17 631.43 794.02 433.55 967.23 443.69 860.52 546.99 804.62 639.81 952.42 648.15
00007231 00000159 712.79 168.09 384.93 630.10 794.15 431.40 965.52 440.77 859.40 542.92 805.66 640.37 949.75 648.58
00007232 00000160 714.45 168.09 383.37 627.86 794.13 429.61 965.83 438.87 860.20 540.65 806.57 640.71 949.81 648.82
00007233 00000161 715.62 166.96 383.80 630.05 796.14 425.48 969.17 434.15 863.48 541.49 809.04 641.25 953.44 648.85
00007234 00000162 715.67 166.62 384.76 630.67 798.53 422.81 973.43 431.65 867.55 542.56 811.70 641.54 956.80 649.03
00007235 00000163 717.51 168.50 383.73 628.00 800.37 422.63 976.16 430.68 870.45 543.32 814.25 642.30 959.62 649.13
00007236 00000164 719.02 167.87 384.87 629.20 804.13 423.00 982.35 430.70 876.85 544.53 818.47 643.19 965.64 649.87
00007237 00000165 721.75 167.25 384.26 627.31 807.15 422.73 987.55 431.03 882.24 545.06 821.07 643.33 968.81 650.55
00007238 00000166 723.19 165.96 384.06 626.64 809.56 421.19 989.12 429.77 885.61 543.21 823.33 641.94 970.60 649.32
00007239 00000167 724.12 165.30 384.03 625.18 811.23 419.79 989.99 428.37 887.40 541.83 824.92 640.29 971.69 647.68
00007240 00000168 726.38 165.29 383.34 622.98 814.25 424.33 989.47 434.60 888.84 540.55 825.81 637.13 971.76 646.19
00007241 00000169 728.03 163.12 382.44 624.19 815.59 425.97 990.51 436.89 890.99 538.95 825.92 634.26 974.21 643.61
00007242 00000170 728.19 163.92 382.88 621.91 817.15 424.93 991.72 435.64 892.76 538.39 827.60 633.57 975.45 642.74
