Video ID: 	covKk3tvFXQ
H: 	2160
W: 	3840
FPS: 	25.0

FRAME INDEX X0 Y0 W H [Landmarks (5 Points)]

00001525 00000000 1231.87 183.22 614.60 996.39 1593.13 664.73 1795.23 642.84 1819.11 801.44 1645.72 989.91 1802.19 978.56
00001526 00000001 1230.73 188.95 605.07 997.11 1580.67 667.02 1795.49 639.09 1810.51 792.83 1640.30 993.37 1803.61 978.82
00001527 DELETE   1204.72 184.54 622.61 1006.93 1555.28 664.65 1782.79 639.32 1786.23 802.26 1611.42 995.06 1782.38 981.73
00001528 DELETE   1179.45 184.62 639.26 1001.37 1527.72 660.36 1765.81 643.54 1752.46 803.41 1574.08 982.64 1756.21 974.70
00001529 DELETE   1159.52 184.74 648.56 1015.14 1489.45 660.34 1740.87 648.86 1705.16 809.83 1526.55 983.47 1727.56 977.71
00001530 00000005 1159.40 205.30 654.77 1001.98 1476.18 659.20 1728.32 661.94 1683.84 813.62 1494.50 982.26 1704.45 986.84
00001531 DELETE   1159.56 218.52 660.57 992.10 1484.08 664.50 1735.25 664.90 1692.52 816.22 1504.35 984.94 1714.79 987.74
00001532 DELETE   1170.03 192.65 648.72 1015.89 1506.99 668.74 1750.37 662.17 1715.78 814.53 1540.14 988.64 1731.57 986.55
00001533 DELETE   1182.52 199.18 640.59 996.48 1522.89 662.30 1766.45 657.21 1738.16 808.13 1548.25 982.32 1746.58 981.30
00001534 00000009 1183.26 202.17 643.17 988.29 1524.90 656.34 1769.03 653.43 1739.72 802.84 1546.97 975.10 1748.53 975.84
00001535 DELETE   1174.64 188.84 652.21 1002.28 1509.31 654.36 1760.31 652.14 1722.90 802.17 1537.60 976.07 1738.62 977.36
00001536 00000011 1170.69 186.69 650.37 1006.05 1497.46 651.78 1749.88 651.28 1709.45 804.69 1526.63 975.79 1728.21 978.13
00001537 00000012 1168.22 182.59 653.42 1008.47 1497.20 651.00 1749.42 650.71 1710.03 804.28 1525.60 974.59 1727.92 977.35
00001538 DELETE   1171.95 187.05 653.82 999.79 1509.51 653.54 1758.30 649.22 1725.20 799.85 1542.06 974.13 1739.23 974.02
00001539 00000014 1182.48 188.07 629.95 991.47 1521.07 650.87 1763.84 644.09 1742.49 794.45 1559.21 969.22 1748.48 967.86
00001540 00000015 1187.05 189.63 625.25 986.77 1519.93 648.77 1763.57 644.33 1738.57 789.06 1562.44 964.21 1749.34 963.77
00001541 DELETE   1172.95 187.93 655.99 1000.82 1511.79 643.53 1754.94 646.27 1720.38 789.12 1543.77 963.38 1734.44 967.88
00001542 00000017 1174.53 192.86 652.46 994.32 1497.82 641.03 1746.29 643.03 1702.76 791.42 1529.96 963.29 1724.91 966.93
00001543 DELETE   1179.16 193.84 661.45 991.00 1508.20 628.49 1760.96 638.44 1716.08 797.26 1540.27 966.10 1729.27 975.18
00001544 00000019 1189.35 194.04 630.97 984.41 1517.61 638.77 1760.11 637.74 1730.58 787.37 1561.25 963.33 1741.47 965.05
00001545 00000020 1197.49 191.33 628.75 988.15 1530.58 636.77 1769.56 633.59 1746.60 788.43 1572.70 965.00 1754.14 965.64
00001546 00000021 1201.02 189.53 625.70 989.38 1532.52 635.38 1772.10 629.75 1750.19 787.79 1570.99 961.57 1755.97 960.72
00001547 00000022 1196.75 186.77 629.44 986.17 1527.00 635.85 1769.61 633.04 1742.89 784.81 1564.90 957.99 1750.34 959.06
00001548 00000023 1193.88 196.58 631.02 976.22 1521.91 633.96 1763.66 633.43 1731.90 783.79 1558.42 956.50 1741.36 958.89
00001549 00000024 1198.56 199.24 630.07 974.21 1523.95 633.61 1766.51 635.89 1731.10 784.85 1553.49 955.83 1738.88 960.44
00001550 00000025 1205.31 192.18 627.76 984.52 1533.45 633.34 1774.80 634.99 1744.79 787.27 1562.80 957.81 1748.72 962.23
00001551 DELETE   1211.78 186.58 648.23 1009.66 1553.42 621.27 1790.22 632.20 1770.89 789.22 1584.63 970.01 1767.27 980.53
00001552 DELETE   1229.52 203.77 649.04 982.21 1590.31 625.95 1815.06 629.54 1805.60 789.81 1634.20 970.66 1799.27 975.71
00001553 00000028 1248.03 196.49 642.95 987.45 1623.93 625.98 1840.88 634.25 1842.35 791.04 1660.95 964.05 1826.77 972.58
00001554 DELETE   1265.85 244.43 635.03 931.72 1646.96 634.66 1849.80 646.73 1880.37 782.61 1691.89 960.29 1848.22 969.22
00001555 00000030 1276.56 261.30 636.13 908.41 1662.45 633.47 1854.17 643.69 1892.14 781.93 1706.01 957.79 1850.63 965.68
00001556 00000031 1272.30 250.27 634.46 928.44 1653.40 636.29 1851.68 642.70 1882.37 781.12 1703.08 961.44 1849.14 966.29
00001557 DELETE   1264.60 233.83 627.27 950.29 1635.58 639.99 1842.58 647.32 1858.21 788.68 1687.48 973.07 1838.57 977.83
00001558 00000033 1253.29 217.43 634.81 978.78 1622.66 640.37 1837.70 640.33 1842.07 799.37 1666.38 978.11 1829.14 981.45
00001559 00000034 1241.42 204.85 638.56 990.00 1597.62 638.41 1825.25 642.79 1814.59 802.59 1633.78 979.70 1806.98 986.15
00001560 DELETE   1208.37 176.37 660.51 1035.76 1566.23 642.76 1800.02 654.71 1780.45 810.82 1598.49 988.49 1778.38 999.47
00001561 DELETE   1204.74 193.90 655.44 1012.99 1538.53 638.28 1782.26 656.93 1744.00 807.29 1556.99 979.60 1745.89 995.85
00001562 DELETE   1200.69 207.90 654.60 1003.91 1497.08 642.41 1765.09 676.34 1706.63 795.42 1515.04 967.80 1724.75 998.94
00001563 00000038 1181.35 206.33 660.09 1006.24 1492.74 636.49 1751.14 661.64 1688.20 809.32 1500.28 974.29 1705.33 995.10
00001564 00000039 1199.35 204.32 653.42 1008.33 1495.63 643.81 1763.06 672.79 1708.57 794.47 1518.06 969.51 1726.64 996.66
00001565 00000040 1199.77 189.60 658.08 1016.17 1531.41 635.58 1776.73 652.05 1739.74 802.50 1550.74 978.89 1742.81 993.77
00001566 00000041 1214.59 183.77 639.91 1022.97 1549.19 635.11 1783.00 642.74 1764.34 800.88 1578.02 979.93 1761.71 988.59
00001567 00000042 1214.28 190.06 642.61 1013.31 1548.56 632.00 1785.16 641.12 1762.86 797.23 1572.63 974.68 1760.85 984.34
00001568 00000043 1204.46 189.21 648.95 1007.93 1539.34 629.52 1780.37 641.91 1746.38 794.38 1554.17 967.25 1747.62 979.31
00001569 00000044 1205.91 194.12 633.05 993.27 1528.47 635.35 1776.82 643.81 1737.03 796.41 1545.00 964.32 1739.16 973.74
00001570 00000045 1203.96 190.94 648.35 1005.12 1536.48 629.86 1777.85 640.80 1744.00 795.46 1556.66 968.95 1747.23 979.69
00001571 00000046 1211.88 192.79 643.38 1009.44 1545.40 632.13 1783.26 640.93 1758.32 797.25 1568.10 973.42 1757.64 982.85
00001572 00000047 1216.62 194.92 640.52 1006.13 1549.72 631.09 1788.83 641.66 1765.34 797.57 1570.32 973.45 1762.74 984.13
00001573 00000048 1216.68 196.77 640.80 1001.68 1548.00 628.32 1789.27 641.77 1763.01 797.57 1564.88 970.24 1759.81 982.96
00001574 00000049 1214.08 192.90 643.37 1004.76 1544.83 626.14 1785.49 639.98 1756.17 794.13 1558.24 966.63 1752.82 979.61
00001575 00000050 1211.79 197.13 644.53 999.04 1542.50 625.23 1784.03 639.24 1752.85 791.78 1556.85 964.22 1751.05 977.28
00001576 00000051 1213.81 192.15 644.12 1007.74 1542.03 625.43 1783.76 639.84 1751.06 790.66 1558.36 966.69 1749.81 979.78
00001577 00000052 1211.95 191.40 646.83 1011.75 1542.14 624.90 1782.11 640.14 1748.79 791.04 1557.89 967.83 1746.69 981.48
00001578 00000053 1209.26 194.75 647.43 1009.98 1536.57 626.36 1779.26 643.37 1740.74 794.50 1547.76 969.13 1740.26 984.06
00001579 00000054 1202.93 191.35 656.42 1018.90 1531.61 632.47 1778.27 653.05 1738.95 801.16 1540.42 975.13 1738.88 993.31
00001580 00000055 1210.34 205.69 655.71 1020.95 1519.43 651.05 1787.46 683.13 1744.43 804.28 1537.08 977.61 1753.62 1008.61
00001581 00000056 1214.97 197.44 657.00 1038.47 1522.81 658.28 1791.56 688.28 1750.31 813.87 1541.50 986.48 1757.81 1016.20
00001582 00000057 1218.49 210.32 657.52 1030.47 1525.87 660.19 1796.63 687.64 1752.39 821.26 1541.38 991.00 1759.56 1018.42
00001583 00000058 1220.92 205.01 657.40 1033.81 1525.89 663.99 1794.31 685.60 1752.62 826.38 1546.56 996.91 1758.64 1019.75
00001584 00000059 1224.07 208.67 655.78 1032.27 1527.02 661.09 1791.01 685.34 1744.07 828.45 1544.04 996.42 1750.58 1021.25
00001585 00000060 1225.64 203.22 657.22 1037.27 1527.96 659.54 1791.61 684.29 1745.42 827.34 1542.03 993.36 1752.06 1018.97
00001586 00000061 1228.72 195.66 654.88 1038.90 1529.09 658.29 1797.02 683.52 1752.76 821.25 1543.98 989.43 1759.58 1015.76
00001587 00000062 1231.40 194.13 654.09 1033.98 1530.49 657.81 1800.01 679.95 1757.65 819.46 1549.17 989.23 1764.34 1013.26
00001588 00000063 1232.12 191.98 651.77 1031.65 1529.51 657.16 1797.72 677.16 1756.48 817.35 1553.07 989.62 1764.65 1011.96
00001589 00000064 1229.15 192.67 652.15 1032.47 1530.74 656.44 1797.57 677.19 1758.88 815.44 1555.37 988.10 1766.83 1010.83
00001590 00000065 1211.01 182.20 654.12 1034.06 1543.66 646.42 1789.34 656.57 1756.79 820.74 1568.00 991.21 1762.27 1001.59
00001591 00000066 1208.29 184.78 654.12 1023.43 1542.57 644.14 1786.63 655.46 1755.74 813.71 1565.18 984.69 1759.79 995.95
00001592 00000067 1207.23 195.42 649.32 1005.85 1542.95 639.37 1783.31 649.02 1755.52 806.80 1566.33 977.94 1757.54 988.07
00001593 00000068 1202.01 185.55 653.47 1010.51 1541.47 635.14 1781.10 639.88 1754.38 800.38 1568.59 974.14 1757.61 980.71
00001594 00000069 1207.02 185.70 644.58 1007.28 1540.16 629.89 1778.79 633.61 1754.30 796.08 1568.47 971.55 1756.86 977.29
00001595 00000070 1206.78 184.09 642.96 999.16 1538.42 625.68 1780.91 630.67 1753.76 790.99 1563.77 965.82 1757.58 972.51
00001596 00000071 1211.42 194.45 622.98 983.49 1535.96 633.45 1781.03 633.07 1753.60 793.42 1562.93 961.85 1756.52 965.17
00001597 00000072 1208.29 193.91 624.18 985.13 1535.58 634.30 1777.92 632.69 1752.00 793.69 1565.97 963.98 1754.91 966.26
00001598 00000073 1208.08 191.01 623.84 994.20 1536.73 634.49 1776.19 633.87 1751.28 793.11 1569.90 968.00 1752.63 970.57
00001599 00000074 1206.67 195.22 627.30 992.07 1536.63 633.54 1780.31 635.21 1754.34 794.60 1561.90 966.29 1756.17 971.00
00001600 00000075 1206.44 191.26 625.63 996.07 1538.27 637.38 1780.51 635.38 1758.32 796.95 1564.90 969.39 1758.37 971.72
00001601 00000076 1203.29 178.86 645.00 1016.14 1544.36 630.72 1781.37 634.37 1761.92 795.11 1573.58 973.27 1761.25 979.21
00001602 00000077 1203.57 186.93 646.30 1008.54 1546.82 630.14 1782.04 635.65 1762.98 795.85 1574.35 973.18 1759.33 980.23
00001603 00000078 1203.47 184.99 648.09 1012.40 1548.26 630.43 1780.96 637.48 1760.89 798.84 1574.57 973.82 1756.16 981.78
00001604 00000079 1209.50 189.28 644.24 1013.00 1550.36 630.09 1783.78 638.55 1763.05 801.10 1574.86 977.27 1756.61 986.06
00001605 00000080 1216.57 188.95 639.55 1016.41 1553.45 630.58 1787.11 639.59 1767.10 799.89 1579.06 980.76 1759.15 989.76
00001606 00000081 1216.86 178.75 645.31 1028.31 1556.32 628.40 1792.66 640.71 1771.21 801.29 1578.52 979.59 1762.66 991.16
00001607 00000082 1216.67 173.00 649.62 1028.83 1557.83 629.21 1800.17 642.07 1775.83 800.87 1574.34 973.75 1770.06 986.43
00001608 00000083 1218.29 183.83 648.29 1022.08 1555.26 629.05 1804.04 645.51 1776.06 804.44 1560.46 974.61 1768.81 990.08
00001609 00000084 1216.79 180.85 647.04 1022.79 1551.38 633.00 1796.86 645.83 1769.93 808.54 1559.92 976.51 1763.75 989.32
00001610 00000085 1212.78 182.13 649.61 1015.93 1551.79 637.00 1791.08 644.87 1765.88 809.79 1575.10 979.85 1764.15 988.32
00001611 00000086 1211.30 178.79 651.77 1025.77 1552.62 643.33 1789.29 649.01 1765.79 814.81 1584.54 989.49 1767.29 995.94
00001612 00000087 1211.09 176.65 652.61 1031.81 1553.89 645.51 1790.51 651.74 1766.68 820.84 1589.23 995.78 1768.73 1002.48
00001613 00000088 1212.87 181.65 652.83 1033.37 1554.49 648.25 1793.39 652.50 1767.02 825.75 1586.88 998.98 1769.39 1004.20
00001614 00000089 1211.83 176.74 654.14 1036.29 1553.76 650.67 1795.71 657.02 1766.99 830.92 1580.62 1001.51 1766.56 1008.21
00001615 00000090 1212.15 178.77 654.02 1037.45 1554.46 653.07 1796.29 659.42 1766.57 833.90 1577.71 1003.22 1764.75 1009.93
00001616 00000091 1212.51 181.09 653.67 1038.07 1554.23 652.37 1794.60 659.59 1764.25 835.55 1576.61 1005.55 1760.55 1012.57
00001617 00000092 1210.37 182.75 654.32 1038.12 1554.44 652.21 1793.36 659.73 1763.95 835.69 1576.52 1007.26 1758.23 1014.42
00001618 00000093 1210.02 181.03 653.39 1038.91 1553.79 651.42 1791.32 659.43 1763.76 830.28 1578.02 1003.94 1759.29 1011.67
00001619 00000094 1210.09 181.26 651.98 1039.63 1552.53 650.41 1791.06 657.22 1766.10 828.75 1576.07 999.39 1762.17 1006.87
00001620 00000095 1209.23 183.70 651.64 1032.94 1550.34 648.60 1793.61 656.16 1768.96 826.79 1569.65 995.79 1764.69 1004.17
00001621 00000096 1208.69 180.89 653.55 1033.92 1550.49 646.97 1795.00 655.23 1770.00 825.93 1572.20 994.92 1767.53 1003.76
00001622 00000097 1211.91 186.95 651.38 1028.23 1553.83 647.02 1793.18 653.15 1768.59 824.71 1579.53 996.20 1766.66 1002.93
00001623 00000098 1214.35 188.26 649.10 1028.47 1556.39 645.62 1794.08 653.14 1768.62 822.84 1581.38 997.03 1764.79 1004.48
00001624 00000099 1216.54 187.48 649.68 1031.77 1557.80 646.65 1795.44 653.67 1769.69 823.20 1580.61 996.07 1766.20 1003.31
00001625 00000100 1217.07 189.85 650.24 1028.21 1558.62 647.07 1796.23 653.12 1771.03 823.10 1581.97 995.62 1767.87 1002.17
00001626 00000101 1219.38 194.17 647.23 1019.41 1559.80 647.37 1797.74 652.01 1773.59 822.50 1584.27 993.70 1770.52 999.23
00001627 00000102 1222.23 194.79 645.16 1019.44 1560.61 647.38 1801.22 652.26 1775.62 821.89 1584.17 993.88 1773.96 999.56
00001628 00000103 1221.15 196.64 648.93 1022.19 1565.66 647.59 1803.78 650.83 1777.92 822.51 1586.21 995.08 1774.60 999.44
00001629 00000104 1220.76 190.59 649.84 1024.65 1564.87 649.12 1805.40 654.47 1778.73 823.57 1588.79 996.17 1777.81 1002.02
00001630 00000105 1221.53 183.15 648.66 1027.99 1564.43 652.60 1804.53 656.98 1778.34 828.96 1590.68 999.22 1777.55 1004.28
00001631 00000106 1223.24 178.98 647.64 1035.02 1566.56 654.86 1804.10 659.02 1777.55 833.00 1592.23 1002.85 1776.04 1007.87
00001632 00000107 1221.76 179.35 649.43 1041.11 1567.62 653.99 1805.08 659.89 1778.27 831.93 1593.38 1005.03 1775.79 1011.20
00001633 00000108 1222.32 184.90 650.33 1035.32 1567.61 651.49 1806.21 656.66 1780.37 828.70 1592.60 1001.52 1777.63 1007.12
00001634 00000109 1222.04 188.60 651.79 1031.94 1566.65 649.48 1806.45 654.22 1780.45 824.13 1591.41 998.41 1779.53 1003.78
00001635 00000110 1221.63 189.84 653.34 1029.74 1567.07 649.82 1807.99 653.30 1780.70 824.90 1591.43 998.14 1780.89 1002.51
00001636 00000111 1222.35 189.87 653.56 1035.13 1571.89 651.39 1809.72 655.70 1783.08 829.14 1593.24 1000.36 1780.32 1005.17
00001637 00000112 1223.70 179.43 653.70 1049.17 1577.04 653.63 1810.71 661.68 1784.51 832.59 1596.88 1003.98 1779.24 1011.48
00001638 00000113 1229.26 185.18 649.77 1039.99 1581.83 654.93 1815.03 663.07 1790.55 832.00 1601.48 1002.74 1784.16 1010.34
00001639 00000114 1233.20 184.76 646.40 1032.84 1584.42 654.22 1819.76 662.95 1795.54 829.14 1604.75 998.57 1790.85 1006.83
00001640 00000115 1233.89 183.86 648.99 1033.67 1587.36 653.22 1823.38 660.44 1799.17 830.31 1609.01 999.82 1795.01 1006.77
00001641 00000116 1232.69 183.50 650.84 1034.52 1588.34 653.20 1822.63 660.95 1798.03 829.81 1610.83 999.64 1794.09 1007.04
00001642 00000117 1232.84 187.12 651.69 1036.07 1589.36 656.29 1822.83 666.41 1796.94 833.58 1611.39 1003.47 1792.90 1012.59
00001643 00000118 1237.83 200.61 655.55 1034.79 1592.53 656.01 1826.89 668.39 1795.57 839.78 1607.82 1010.58 1788.14 1019.86
00001644 00000119 1241.88 222.72 657.93 1016.25 1597.81 659.70 1832.51 673.51 1799.96 845.42 1611.18 1013.08 1792.84 1023.47
00001645 00000120 1244.98 235.75 662.78 1006.10 1604.87 665.90 1839.76 682.71 1805.06 849.60 1615.73 1016.21 1798.07 1029.21
00001646 00000121 1252.85 234.85 664.65 999.95 1607.61 667.91 1849.11 685.72 1810.89 859.58 1612.46 1019.14 1795.41 1032.95
00001647 00000122 1255.64 235.55 665.53 1001.07 1609.47 668.91 1853.22 688.93 1813.98 860.96 1610.26 1018.69 1797.94 1034.57
00001648 00000123 1256.17 236.57 668.12 998.41 1608.93 667.97 1854.85 688.07 1813.05 860.39 1608.31 1017.24 1798.21 1033.24
00001649 00000124 1256.90 223.60 667.68 1009.28 1608.61 664.74 1855.58 684.73 1812.11 859.00 1605.89 1013.57 1797.64 1030.17
00001650 00000125 1257.48 221.04 664.97 1011.32 1606.85 663.10 1853.03 682.61 1810.38 857.36 1606.02 1011.21 1797.28 1027.48
00001651 00000126 1254.77 226.14 664.91 1002.95 1608.02 660.11 1852.43 677.96 1813.37 854.98 1607.93 1008.32 1799.33 1023.31
00001652 00000127 1253.78 215.41 663.72 1009.59 1607.56 660.29 1853.73 675.38 1814.98 853.88 1611.97 1006.29 1804.10 1019.50
00001653 00000128 1253.46 217.83 663.92 1005.49 1608.99 660.91 1853.42 675.00 1816.25 855.60 1614.87 1006.55 1805.68 1018.89
00001654 00000129 1254.55 225.65 665.89 1000.66 1611.81 663.28 1855.39 676.76 1818.33 858.24 1615.50 1007.45 1807.87 1019.44
00001655 00000130 1258.39 226.12 667.17 1004.65 1615.75 666.40 1859.16 682.63 1819.57 864.61 1619.51 1013.66 1808.14 1027.31
00001656 00000131 1248.06 227.28 678.51 1024.48 1596.70 678.13 1868.31 707.65 1817.21 851.35 1616.09 1012.69 1812.27 1037.12
00001657 00000132 1245.39 229.22 679.60 1025.23 1596.06 680.22 1869.23 713.85 1816.43 850.46 1612.06 1014.09 1810.43 1041.47
00001658 00000133 1241.90 223.22 681.49 1022.20 1586.37 682.64 1865.45 719.64 1809.59 842.20 1606.85 1011.67 1808.59 1041.91
00001659 00000134 1246.44 235.13 671.14 999.94 1612.60 682.05 1853.81 705.89 1810.22 860.51 1615.62 1020.48 1802.65 1038.47
CROP_BBOX: 764 0 2309 1478
