Video ID: 	0AmPa3t8dj4
H: 	1080
W: 	1920
FPS: 	23.976023976023978

FRAME INDEX X0 Y0 W H [Landmarks (5 Points)]

00006541 00000000 671.52 129.97 354.19 525.82 756.60 360.00 923.17 377.93 826.76 456.63 768.91 528.80 909.35 544.07
00006542 00000001 670.75 128.16 350.81 525.29 753.37 357.76 916.93 375.76 821.90 454.65 765.00 527.99 900.24 543.75
00006543 00000002 670.48 124.99 349.01 531.01 752.52 355.36 913.76 372.79 820.95 452.40 765.87 530.67 894.94 546.44
00006544 00000003 671.47 125.23 349.41 532.58 754.66 356.34 917.16 370.69 826.74 451.83 772.25 532.39 902.28 545.36
00006545 00000004 671.61 123.99 351.03 536.63 757.12 356.20 922.94 369.42 831.41 451.14 773.11 530.29 913.02 542.01
00006546 00000005 671.02 126.81 351.06 530.38 756.87 356.75 922.95 370.16 831.41 451.04 773.70 528.27 914.03 539.99
00006547 00000006 670.46 128.04 350.95 526.00 753.82 358.55 921.01 373.51 826.24 451.31 767.66 527.05 910.61 539.85
00006548 00000007 668.47 131.13 348.99 526.68 748.92 362.13 914.48 379.11 817.07 455.05 755.96 524.68 902.90 539.21
00006549 00000008 666.34 137.39 348.14 519.95 745.74 366.01 908.61 384.83 811.24 462.21 752.02 525.39 895.81 541.16
00006550 00000009 665.63 146.51 351.18 518.92 745.93 373.82 906.95 390.34 811.87 467.87 756.12 533.44 895.29 547.50
00006551 00000010 667.73 160.55 350.34 518.07 749.46 386.63 906.14 399.60 815.83 480.07 761.90 544.62 898.86 556.08
00006552 00000011 667.86 172.85 349.34 512.34 747.89 398.29 903.12 407.42 817.43 491.54 764.15 556.06 898.70 564.32
00006553 00000012 668.52 181.84 351.52 508.98 752.01 406.14 905.09 416.41 821.68 500.71 767.11 564.11 899.72 573.01
00006554 00000013 670.65 183.01 354.68 511.37 756.26 408.00 908.95 420.36 828.20 506.89 771.75 572.26 901.56 582.47
00006555 DELETE   673.44 181.09 353.67 513.42 759.21 408.80 913.05 421.44 833.20 507.35 775.38 575.42 903.55 585.83
00006556 00000015 674.94 179.61 357.47 515.06 764.42 406.13 921.08 417.97 841.96 501.24 782.08 572.25 913.80 581.87
00006557 00000016 675.65 174.21 358.66 517.89 767.87 402.74 931.15 414.63 851.39 497.24 782.72 567.94 925.27 577.98
00006558 00000017 677.52 170.66 358.54 519.06 771.86 398.34 935.05 410.02 857.11 493.19 784.45 560.75 931.17 570.87
00006559 00000018 680.86 169.13 355.45 523.68 778.06 395.41 943.59 402.08 862.49 492.85 794.21 562.13 937.43 567.35
00006560 00000019 682.71 165.72 354.08 523.06 780.19 391.01 946.34 398.34 866.05 490.31 800.13 563.75 938.11 569.60
00006561 00000020 692.30 159.36 344.35 524.46 792.00 382.54 946.65 390.23 873.14 483.41 796.88 558.45 937.40 566.17
00006562 00000021 694.82 155.11 345.26 528.07 795.69 380.39 948.56 387.59 876.00 479.11 800.51 555.42 939.06 562.68
00006563 00000022 690.81 153.16 351.93 530.59 787.31 382.97 955.39 392.13 872.51 482.52 804.20 558.50 943.10 566.02
00006564 00000023 697.37 149.42 341.14 525.94 795.49 379.64 944.56 387.47 872.29 472.45 797.15 547.06 935.86 554.85
00006565 00000024 696.26 149.02 342.23 525.19 794.11 378.12 943.21 386.49 870.17 470.88 793.11 543.68 934.90 551.58
00006566 00000025 694.10 147.48 341.90 523.35 791.58 376.89 942.14 383.95 867.52 469.32 790.98 538.87 934.54 545.41
00006567 00000026 693.36 146.15 342.50 523.31 791.06 375.22 941.85 381.67 866.72 466.39 790.81 536.73 934.52 542.57
00006568 00000027 692.56 146.02 343.66 524.30 791.11 375.73 941.91 381.68 868.03 466.56 791.91 538.57 934.94 544.02
00006569 00000028 693.17 144.73 343.25 527.84 790.53 377.56 941.42 383.90 868.99 469.28 791.74 545.25 933.11 551.45
00006570 00000029 685.47 147.39 353.21 526.75 779.31 380.23 947.16 393.19 861.39 477.46 794.58 552.54 931.32 563.38
00006571 00000030 684.65 148.89 352.71 524.83 777.87 380.03 946.25 392.77 859.04 476.84 792.64 551.42 931.13 562.24
00006572 00000031 685.42 149.06 352.10 527.31 777.16 380.48 945.81 393.14 858.09 477.11 791.13 551.52 931.61 562.26
00006573 00000032 686.91 148.73 351.67 529.63 779.61 379.42 948.37 392.72 861.40 476.59 792.57 551.16 934.36 562.18
00006574 00000033 693.15 145.98 343.01 527.56 792.95 376.18 942.51 385.04 870.64 468.04 792.06 544.89 930.20 553.56
00006575 00000034 693.68 146.36 343.59 521.16 795.27 374.61 943.28 383.18 872.48 464.34 796.16 541.89 930.03 550.31
00006576 00000035 692.24 145.45 344.85 519.42 794.87 375.50 941.54 381.51 872.10 463.77 797.18 539.28 931.75 545.42
00006577 00000036 691.39 146.55 344.03 519.31 792.25 377.61 941.39 380.94 871.10 465.62 794.21 539.95 934.34 543.54
00006578 00000037 690.33 148.49 344.96 520.74 791.83 379.71 941.01 382.40 871.06 467.37 793.97 541.14 934.92 544.07
00006579 00000038 682.42 154.27 351.90 517.90 780.65 385.05 947.71 392.59 867.02 477.31 799.20 547.40 940.79 552.98
00006580 00000039 679.66 152.75 353.05 520.53 778.82 385.58 945.07 390.41 865.50 477.14 797.67 549.69 938.03 553.51
00006581 00000040 677.95 153.28 352.84 521.09 777.75 385.19 943.06 388.35 865.48 476.30 798.03 549.50 938.45 551.95
00006582 00000041 675.63 150.35 354.43 528.90 774.75 384.33 941.51 388.22 863.27 477.60 796.63 554.82 935.13 558.21
00006583 00000042 675.06 146.96 355.45 539.06 774.74 383.21 942.49 386.35 863.98 476.33 795.69 558.02 936.78 560.91
00006584 00000043 676.00 146.42 354.53 539.00 775.29 380.65 943.39 385.29 863.20 474.40 793.73 555.27 936.46 559.40
00006585 00000044 678.48 145.91 352.61 539.18 776.64 378.93 945.32 384.17 864.48 473.95 794.97 554.73 938.50 559.19
00006586 00000045 679.66 143.68 351.69 541.34 778.64 378.15 946.57 383.83 866.83 472.87 796.30 554.02 938.90 558.79
00006587 00000046 678.46 144.70 352.63 541.89 779.64 376.84 946.56 382.14 868.23 471.54 795.80 551.40 940.55 555.92
00006588 00000047 679.26 145.87 348.73 543.36 780.66 385.57 946.80 387.70 867.32 471.23 794.28 551.50 943.34 553.02
00006589 00000048 681.81 148.06 348.46 544.67 784.55 387.62 948.54 388.36 872.40 471.95 797.54 551.60 948.37 551.58
00006590 00000049 680.23 157.15 350.61 533.40 794.08 392.07 955.94 390.28 890.08 480.53 809.42 555.73 955.20 554.10
00006591 DELETE   686.07 153.28 343.63 530.70 807.12 384.59 958.57 377.02 908.53 476.97 821.56 553.07 965.49 547.45
00006592 00000051 689.17 161.25 342.84 522.50 804.45 399.29 965.47 388.59 920.99 486.88 835.02 566.36 975.58 559.32
00006593 00000052 685.64 165.30 343.35 525.17 806.97 407.02 962.60 392.38 924.55 491.02 838.28 571.73 975.17 561.44
00006594 00000053 681.12 168.15 346.29 527.95 801.31 408.61 957.15 393.98 917.64 489.50 833.21 572.00 972.02 561.25
00006595 00000054 673.57 172.34 349.68 525.20 789.82 410.85 948.05 394.79 903.22 492.14 821.06 573.45 961.93 561.10
00006596 00000055 666.49 168.73 354.63 530.01 783.47 410.47 941.51 394.39 895.43 495.61 820.86 579.11 953.72 565.97
00006597 00000056 663.12 167.88 355.99 535.04 782.77 408.67 939.81 395.19 893.63 494.48 822.39 582.66 949.27 571.45
00006598 00000057 664.73 167.41 355.95 540.43 785.32 407.08 941.60 394.29 896.93 493.92 826.42 585.60 950.26 575.05
00006599 00000058 665.67 166.05 355.76 540.06 786.51 407.02 942.70 393.65 898.77 493.47 829.35 586.33 951.79 575.15
00006600 00000059 665.76 162.83 355.93 543.60 786.89 406.04 941.67 391.78 899.65 492.46 829.98 585.72 951.00 573.86
00006601 00000060 665.02 163.53 356.97 539.31 783.24 408.34 939.22 390.03 895.25 491.92 826.04 582.89 951.77 567.71
00006602 00000061 661.93 166.64 357.95 535.17 774.59 411.28 929.07 389.06 881.89 493.63 820.31 580.67 948.26 562.06
00006603 00000062 655.87 172.91 363.04 534.08 766.81 411.96 923.74 389.46 872.28 496.12 812.82 584.26 941.90 565.08
00006604 00000063 650.92 172.83 364.01 532.18 761.76 410.04 918.96 388.50 866.46 493.64 810.25 583.18 937.56 564.75
00006605 00000064 651.36 170.14 362.17 533.93 759.36 408.38 916.16 387.69 864.66 490.89 808.99 581.65 937.51 563.74
00006606 00000065 652.88 166.79 361.78 538.75 758.14 405.53 913.81 384.84 862.12 487.69 805.77 578.37 936.98 560.43
00006607 00000066 653.05 163.03 360.53 545.29 756.57 400.77 912.02 379.90 860.50 483.68 802.45 577.17 934.62 559.46
00006608 00000067 652.59 161.09 358.99 542.97 752.29 401.07 906.52 380.16 854.42 482.80 797.58 573.99 931.40 556.73
00006609 00000068 644.30 159.54 360.51 543.07 750.18 406.25 907.40 388.37 850.10 487.63 793.06 570.87 932.32 555.59
00006610 00000069 639.55 156.06 361.32 537.82 744.35 402.69 902.62 387.92 841.87 481.79 785.93 564.35 923.47 551.94
00006611 00000070 634.25 146.99 365.02 543.34 735.65 398.11 897.36 385.77 831.21 475.25 776.70 559.96 916.21 549.70
00006612 00000071 629.39 141.80 367.75 543.55 728.86 390.49 889.26 379.34 822.33 469.07 771.09 554.55 909.31 544.89
00006613 00000072 630.97 141.65 363.66 545.42 722.27 385.46 875.85 364.40 815.96 467.02 760.97 559.55 899.55 540.45
00006614 00000073 629.34 139.99 359.15 543.17 716.25 383.67 867.67 363.42 807.21 466.34 752.58 556.87 891.37 538.50
00006615 00000074 628.58 141.92 356.45 539.90 710.62 384.60 862.47 364.82 797.64 467.25 745.52 554.66 886.66 536.54
00006616 00000075 630.05 141.53 353.74 537.23 708.16 384.34 859.63 367.98 791.80 471.65 741.30 556.20 879.19 541.13
00006617 00000076 631.47 141.74 353.42 537.15 711.03 382.10 861.02 367.62 792.96 469.56 744.24 554.06 877.77 540.65
00006618 00000077 634.72 139.84 355.33 535.68 719.03 380.05 870.60 365.12 804.87 464.84 749.43 551.48 885.60 537.80
00006619 DELETE   638.64 138.03 359.02 530.92 728.83 383.81 880.92 364.27 815.56 458.71 763.06 548.13 894.27 530.87
00006620 00000079 645.07 130.78 355.87 532.24 741.14 372.51 903.31 373.57 828.95 454.82 774.06 538.76 904.89 540.48
00006621 00000080 648.42 127.84 353.44 535.16 739.56 370.49 901.78 372.51 826.72 453.65 771.61 538.62 903.03 541.25
00006622 00000081 648.28 126.47 346.43 528.73 731.13 365.02 893.03 372.91 811.30 451.76 758.26 534.98 888.06 542.54
00006623 00000082 651.87 131.16 340.41 530.79 727.11 370.56 872.98 362.27 794.72 454.40 747.68 539.54 875.03 532.47
00006624 00000083 649.86 130.99 338.46 539.14 722.28 368.24 867.81 365.59 783.45 458.44 733.16 538.84 864.36 536.65
00006625 00000084 649.09 132.10 340.21 541.66 723.16 368.58 867.34 366.44 781.66 457.21 734.88 540.28 863.18 538.16
00006626 00000085 649.81 134.67 342.42 536.84 725.08 371.49 870.89 368.11 785.80 458.54 735.64 538.36 867.90 535.24
00006627 00000086 654.27 141.40 342.94 524.76 727.83 377.13 880.24 369.55 797.71 463.49 742.56 538.00 885.82 531.20
00006628 DELETE   647.12 145.59 355.39 524.32 735.45 381.40 897.02 389.51 807.93 467.62 749.85 533.45 895.25 540.41
00006629 00000088 650.81 152.65 353.47 522.38 738.80 388.05 900.07 395.68 813.75 476.88 755.78 541.74 899.83 548.28
00006630 00000089 649.20 159.32 352.19 524.98 735.49 389.74 892.94 401.82 806.92 482.42 750.86 552.02 883.87 563.16
00006631 00000090 649.60 154.65 348.66 536.84 732.91 385.55 888.50 400.48 801.07 482.16 746.43 562.57 868.62 576.93
00006632 00000091 654.49 150.37 346.32 541.86 734.67 380.30 890.62 398.00 799.38 480.27 743.36 558.98 866.72 575.96
00006633 00000092 656.08 144.26 350.29 543.23 738.23 379.44 898.22 396.16 805.49 474.88 744.75 550.42 878.60 566.28
00006634 00000093 656.26 137.73 352.34 541.62 742.25 371.81 907.47 389.41 813.85 469.83 747.16 541.21 888.26 557.02
00006635 00000094 657.13 129.63 353.59 538.14 744.50 364.33 913.41 384.93 818.80 463.47 749.99 534.63 893.58 552.27
00006636 00000095 660.99 128.43 350.32 544.01 745.30 360.48 912.92 382.79 814.91 459.94 747.37 532.87 891.52 552.22
00006637 00000096 661.94 129.99 351.17 541.89 744.97 359.13 909.00 384.10 807.07 457.50 742.50 530.82 882.53 552.62
00006638 00000097 660.46 130.60 353.13 541.89 744.17 359.76 906.63 385.70 802.94 456.92 738.66 529.66 878.07 552.14
00006639 00000098 661.17 132.11 353.02 535.55 744.27 359.28 909.59 385.82 805.77 458.24 740.66 525.12 885.65 547.54
00006640 00000099 666.18 135.25 351.19 526.03 751.15 360.11 916.94 382.36 817.97 459.41 753.32 523.91 899.09 542.86
00006641 00000100 667.10 135.45 356.76 530.00 759.82 362.04 928.02 382.84 834.22 461.39 765.15 528.89 911.71 546.61
00006642 00000101 669.47 141.87 356.86 529.79 765.65 367.47 931.86 384.81 842.48 464.79 773.47 534.72 917.25 549.50
00006643 00000102 668.23 143.11 356.69 527.88 765.00 370.02 930.03 387.13 841.37 466.65 774.08 536.45 915.32 551.05
00006644 00000103 666.61 145.17 355.79 523.91 760.51 374.61 925.06 391.43 834.34 469.19 768.63 536.02 911.28 550.30
00006645 00000104 666.28 150.62 352.30 518.35 753.97 380.59 915.88 397.12 823.87 472.93 764.54 540.34 902.34 554.55
00006646 00000105 665.94 154.53 354.39 522.64 753.12 385.10 912.90 400.27 820.90 477.88 763.69 545.11 901.99 558.50
00006647 00000106 668.55 157.37 354.98 528.30 755.85 385.23 914.08 401.26 825.25 481.57 765.77 549.47 902.14 563.63
00006648 00000107 672.39 159.55 353.43 525.88 761.58 385.91 918.39 399.36 834.51 482.60 772.39 549.51 909.33 561.31
00006649 00000108 673.75 161.55 352.58 522.89 767.08 385.80 927.41 399.17 843.94 482.37 775.66 547.93 917.21 559.52
00006650 00000109 673.97 160.26 353.82 527.11 768.82 384.09 930.87 398.51 847.65 483.65 778.56 550.83 920.13 563.21
00006651 00000110 671.15 156.23 354.39 528.58 761.30 383.07 921.72 397.15 835.40 481.08 773.75 550.20 911.33 562.60
00006652 00000111 663.27 149.12 356.97 534.30 748.00 381.80 909.19 399.12 814.04 477.29 756.75 546.48 895.39 561.65
00006653 00000112 661.18 146.72 352.52 535.33 737.92 378.56 896.70 398.41 795.66 473.34 739.01 539.93 878.78 557.35
00006654 00000113 657.70 142.75 351.28 538.15 734.42 378.09 891.33 398.91 788.87 470.29 731.95 537.05 870.16 555.37
00006655 00000114 656.24 137.46 351.75 541.85 736.47 376.19 893.57 397.90 793.84 468.80 735.12 537.17 871.74 556.04
00006656 00000115 657.43 142.15 350.70 534.78 739.04 375.61 897.65 395.11 800.14 468.17 739.48 538.40 876.18 555.60
00006657 00000116 656.88 145.45 351.78 536.19 741.70 377.99 901.76 395.85 807.69 472.53 744.61 542.96 882.86 558.89
00006658 00000117 656.92 145.85 351.41 536.15 742.26 379.52 902.14 397.87 807.98 472.89 744.06 542.64 883.01 558.84
00006659 00000118 656.20 150.37 350.97 530.24 742.59 382.79 900.83 402.80 806.25 475.67 740.98 541.32 879.42 559.00
00006660 00000119 656.86 154.32 351.07 525.28 741.78 385.13 900.42 406.37 804.73 477.93 739.12 539.81 880.26 558.24
00006661 00000120 659.17 152.98 350.75 526.50 744.13 386.20 902.55 407.65 807.43 479.85 742.63 540.56 882.34 559.26
00006662 00000121 661.35 158.83 351.93 522.69 748.65 387.55 906.06 409.70 812.57 482.47 750.39 544.23 886.52 563.74
00006663 00000122 663.64 159.12 354.86 530.79 750.46 389.76 907.65 410.73 815.56 485.24 754.17 550.73 891.06 569.25
00006664 00000123 665.48 159.86 356.60 534.07 751.96 389.96 908.94 411.36 816.72 487.30 756.47 553.18 893.28 571.85
00006665 00000124 666.97 159.32 355.34 534.51 751.60 390.47 907.57 412.18 815.44 487.93 756.15 553.29 892.12 572.11
00006666 00000125 665.49 159.29 355.76 534.26 748.82 390.82 904.61 413.77 811.41 488.10 753.33 552.88 888.72 572.76
00006667 00000126 665.04 158.31 355.49 530.64 747.95 390.41 904.41 413.74 809.97 487.96 752.49 551.89 886.77 572.22
00006668 00000127 666.05 160.23 354.51 531.39 748.99 391.34 904.64 414.61 811.04 488.43 752.39 552.17 887.64 572.42
00006669 00000128 665.57 160.07 353.27 526.87 747.92 392.38 903.81 414.85 810.32 488.47 752.54 551.76 886.79 571.32
00006670 00000129 664.58 161.75 352.16 522.88 747.74 393.55 903.62 415.36 810.09 488.59 751.15 550.39 885.97 569.60
00006671 00000130 664.03 162.20 351.30 523.65 747.32 395.21 903.04 417.24 809.63 488.46 750.07 549.56 886.86 568.89
00006672 00000131 662.38 161.75 351.29 519.83 745.81 394.59 902.00 415.81 807.87 487.04 748.96 547.45 884.80 566.01
00006673 00000132 662.48 161.39 349.79 521.37 746.00 394.74 901.87 415.49 808.40 486.66 748.73 546.49 886.09 564.68
00006674 00000133 663.64 161.70 348.15 522.02 746.88 394.86 902.21 414.72 809.86 486.38 750.68 546.02 889.04 563.37
00006675 00000134 663.57 162.09 348.67 520.97 748.70 395.37 903.76 413.99 813.19 485.17 753.32 545.26 892.90 561.49
00006676 00000135 662.82 163.97 348.82 519.07 752.04 394.59 908.72 411.24 819.11 480.29 753.31 541.09 899.82 555.55
00006677 DELETE   662.21 160.65 350.88 519.32 754.65 392.75 913.51 409.97 823.13 476.47 755.06 540.29 902.04 555.07
00006678 DELETE   658.69 148.79 354.13 534.77 748.30 386.54 911.33 403.38 818.90 474.13 751.37 544.19 897.21 559.14
00006679 00000138 654.23 145.02 352.66 536.04 740.23 383.98 901.62 404.48 806.15 472.94 739.57 540.21 882.69 558.15
00006680 00000139 652.58 143.53 352.78 537.76 737.92 383.03 898.03 405.10 800.95 470.75 734.95 538.38 877.10 557.57
00006681 00000140 655.58 152.90 351.79 529.93 741.92 383.63 901.24 405.27 806.51 474.53 739.72 540.96 881.16 559.99
00006682 00000141 658.34 154.13 351.96 522.65 747.06 383.73 908.35 404.60 815.18 475.62 748.14 540.74 889.29 558.78
00006683 00000142 658.49 153.60 352.01 525.77 746.34 382.76 907.38 404.62 812.68 475.76 745.33 539.90 887.32 558.83
00006684 00000143 656.59 156.73 351.96 525.43 744.18 384.25 900.86 406.85 808.00 478.31 742.27 538.55 882.67 558.16
00006685 00000144 657.89 162.61 350.46 520.38 743.18 389.34 899.91 408.36 809.60 483.93 745.69 542.52 886.24 558.98
00006686 00000145 661.58 168.51 349.90 517.39 747.38 396.17 904.39 411.00 815.86 488.64 752.48 549.98 893.07 563.25
00006687 00000146 662.61 169.29 350.38 519.63 750.17 396.48 907.00 411.41 821.71 489.83 756.92 553.74 895.42 567.33
00006688 00000147 663.04 166.35 350.13 523.57 749.10 394.64 905.07 408.97 819.66 489.65 759.63 555.73 894.13 568.90
00006689 00000148 661.00 164.46 351.60 530.62 746.46 393.95 902.80 409.43 814.57 488.51 753.70 554.82 891.16 568.99
00006690 00000149 661.13 161.31 351.19 534.35 745.73 393.83 902.19 408.98 813.48 487.46 752.83 554.24 890.74 568.20
00006691 00000150 660.24 161.89 352.92 533.42 746.41 393.14 903.20 408.59 815.63 487.64 754.66 554.76 891.61 568.94
00006692 00000151 662.49 161.27 352.24 531.93 748.99 391.12 905.98 406.26 819.32 486.15 758.84 554.74 894.68 568.79
00006693 00000152 661.80 160.41 354.24 531.07 751.09 389.06 908.80 405.81 823.11 485.27 761.75 554.14 896.92 569.38
00006694 00000153 660.99 158.95 354.34 537.12 750.50 388.88 906.64 403.20 822.62 483.57 762.91 555.35 897.76 568.61
00006695 00000154 659.83 158.38 354.16 541.32 748.70 390.11 904.64 402.81 818.84 481.64 758.81 554.25 897.47 566.04
00006696 00000155 659.68 158.44 354.56 540.80 747.45 391.70 903.44 403.72 817.90 482.89 758.65 555.14 897.47 566.26
00006697 00000156 659.44 158.79 351.96 539.66 746.63 393.38 902.87 404.02 816.64 482.23 756.24 553.91 897.76 563.89
00006698 00000157 658.14 158.80 351.84 540.29 744.94 394.47 902.03 404.25 816.38 483.56 755.50 554.99 897.53 564.15
00006699 00000158 658.36 162.07 348.09 528.66 744.66 396.04 902.60 407.51 815.93 486.03 751.83 549.53 897.29 559.85
00006700 00000159 657.60 162.64 346.41 525.86 743.76 396.00 900.63 407.80 815.17 486.28 751.70 549.55 894.24 560.08
00006701 00000160 657.00 161.70 346.48 528.06 742.90 394.02 900.87 406.12 815.70 486.05 753.28 552.39 893.05 563.40
00006702 00000161 657.01 160.19 346.69 527.41 743.77 390.82 902.39 402.16 816.73 482.59 755.32 551.27 893.91 561.86
00006703 00000162 655.10 154.04 347.86 529.10 743.42 386.53 904.41 398.06 817.88 478.09 754.84 547.46 894.95 558.27
00006704 00000163 653.26 146.93 349.79 531.63 743.70 383.91 905.12 394.00 820.89 472.79 758.31 545.88 896.88 555.26
00006705 00000164 650.01 142.31 350.20 532.56 742.26 376.59 903.07 387.50 820.97 464.19 757.34 541.75 892.98 551.89
00006706 00000165 648.11 137.57 349.58 527.21 740.74 365.79 902.04 381.25 817.67 453.74 752.90 534.06 883.27 548.19
00006707 00000166 650.86 131.08 349.10 531.84 742.94 361.69 905.93 382.39 816.77 449.92 748.64 527.96 883.54 546.19
00006708 00000167 652.24 130.60 349.27 535.86 743.80 360.80 906.58 381.36 815.45 450.70 746.56 524.65 887.45 542.63
00006709 00000168 652.49 130.39 349.14 540.01 742.24 364.60 904.65 383.48 813.59 453.68 747.14 529.54 886.74 546.24
00006710 00000169 649.78 130.99 350.11 541.77 735.57 366.82 901.16 385.91 806.92 454.93 739.84 533.20 882.02 549.49
00006711 00000170 648.78 147.98 347.20 524.11 733.15 370.13 889.20 380.69 798.50 461.69 733.03 539.20 866.27 547.99
