Video ID: 	MT7xrj1Tz-o
H: 	1080
W: 	1920
FPS: 	23.976023976023978

FRAME INDEX X0 Y0 W H [Landmarks (5 Points)]

00004142 00000000 471.95 120.45 401.18 569.27 643.58 363.11 811.44 393.56 744.88 480.49 619.71 544.43 756.27 571.70
00004143 00000001 476.12 124.04 399.65 564.43 644.64 367.34 814.33 396.72 746.60 481.92 625.52 549.38 758.88 575.85
00004144 00000002 482.71 128.62 395.89 563.37 647.38 372.19 815.72 399.71 749.80 485.51 632.47 555.99 763.22 580.83
00004145 DELETE   493.52 125.63 390.58 570.43 654.70 371.06 824.87 398.84 758.35 484.90 635.73 563.31 765.87 587.77
00004146 DELETE   499.45 128.75 395.68 574.52 659.95 376.41 830.80 402.28 762.97 490.03 640.52 568.16 769.66 591.70
00004147 00000005 501.53 130.74 397.84 575.04 662.39 378.98 835.01 405.00 765.41 493.50 640.49 569.89 771.54 593.86
00004148 00000006 503.14 136.44 397.71 570.59 664.60 382.54 837.51 405.57 767.84 496.46 644.87 572.13 775.12 594.03
00004149 00000007 507.80 137.50 397.26 569.42 667.50 386.45 838.57 408.88 769.74 497.44 650.80 571.95 779.97 593.37
00004150 00000008 513.08 141.89 394.81 569.74 673.05 387.95 842.54 409.17 776.21 502.03 655.72 574.33 787.02 595.21
00004151 00000009 518.29 143.68 394.50 571.97 679.63 387.06 847.16 409.88 780.46 502.75 660.85 574.40 791.00 596.75
00004152 00000010 524.88 142.42 397.69 574.91 684.86 387.61 852.46 411.61 784.85 504.18 667.66 575.66 797.59 598.90
00004153 DELETE   530.46 140.40 399.55 578.34 692.86 388.82 861.53 415.03 792.39 503.85 676.41 577.56 805.24 602.25
00004154 00000012 537.25 144.30 400.82 578.23 702.77 394.03 872.11 421.38 801.30 510.31 679.90 579.14 813.76 604.70
00004155 00000013 546.36 140.52 395.72 585.89 709.47 392.32 879.87 419.64 810.49 517.32 687.03 584.39 821.57 609.88
00004156 00000014 550.05 146.63 395.58 577.24 712.17 393.20 882.29 420.35 813.10 518.64 692.70 586.24 823.79 611.62
00004157 00000015 553.47 151.05 398.68 575.00 713.68 395.58 885.82 420.01 815.77 521.62 697.76 590.91 827.73 614.15
00004158 00000016 557.21 151.27 395.91 576.89 716.60 397.03 888.68 422.86 819.71 521.38 697.42 590.06 830.69 614.72
00004159 00000017 560.88 155.82 395.75 574.35 720.64 398.39 891.57 424.12 823.14 520.80 700.10 589.13 834.40 614.06
00004160 00000018 559.70 158.29 395.18 565.64 724.83 395.92 890.22 423.33 829.06 518.57 711.44 594.74 835.96 618.00
00004161 00000019 565.47 160.17 392.21 569.25 732.26 396.43 890.36 424.62 833.25 519.63 716.08 597.80 833.09 622.30
00004162 00000020 567.84 161.42 392.08 573.15 739.37 398.53 894.55 426.79 840.97 522.52 721.77 598.77 837.71 623.72
00004163 00000021 573.09 161.49 391.37 567.91 738.81 401.40 902.93 427.40 848.21 523.29 725.95 596.52 853.66 619.41
00004164 00000022 577.99 162.17 391.31 566.82 741.71 404.86 907.79 428.14 853.96 525.34 732.64 599.51 863.00 619.95
00004165 00000023 584.42 163.06 389.84 566.11 748.00 406.58 912.84 428.92 859.69 527.87 741.04 603.83 867.32 623.66
00004166 00000024 591.08 165.16 391.40 562.13 751.66 406.73 920.04 429.67 863.15 529.13 748.74 606.54 875.56 626.32
00004167 00000025 594.98 166.19 393.43 562.18 755.23 404.71 927.20 430.76 864.27 531.66 749.49 606.13 881.04 628.25
00004168 00000026 597.62 168.56 393.00 559.37 758.23 405.05 930.13 432.03 865.95 531.83 751.65 605.19 883.90 628.15
00004169 00000027 600.78 166.96 391.73 559.83 761.16 404.27 934.43 431.23 869.09 532.32 754.51 605.03 887.64 628.01
00004170 00000028 603.01 162.00 391.46 566.25 762.43 401.05 937.70 425.03 872.34 529.95 758.83 606.34 892.53 626.64
00004171 00000029 606.93 165.30 390.76 563.24 772.87 406.66 940.05 426.35 875.79 528.30 760.74 598.21 886.66 617.75
00004172 00000030 602.42 163.12 390.19 567.75 776.69 405.28 935.56 425.17 880.63 531.69 762.06 607.82 878.93 625.72
00004173 00000031 600.35 167.57 392.46 570.93 779.12 408.65 934.21 432.73 877.76 538.49 757.51 607.68 872.40 629.55
00004174 00000032 601.11 172.26 396.05 575.74 781.59 411.31 936.09 440.03 878.29 542.54 751.92 608.23 869.75 634.35
00004175 00000033 603.37 173.04 398.55 575.14 790.15 412.47 941.89 438.51 887.91 543.43 759.39 608.58 873.71 632.57
00004176 00000034 609.04 173.53 402.49 572.74 798.21 411.88 951.46 438.81 896.79 539.61 768.57 608.14 881.96 632.63
00004177 00000035 613.28 179.43 400.09 566.13 808.36 416.78 956.17 445.29 907.50 539.51 779.55 607.10 888.93 632.67
00004178 00000036 620.72 180.77 396.78 565.10 814.05 418.43 962.40 450.65 913.20 541.33 784.61 606.58 895.93 635.42
00004179 00000037 624.40 182.18 396.89 560.93 817.49 417.78 965.44 447.17 916.88 540.40 789.10 606.96 899.10 633.67
00004180 00000038 627.15 181.46 394.44 563.08 817.62 418.64 966.04 445.07 918.25 541.01 792.11 607.90 902.67 631.99
00004181 00000039 628.40 181.12 394.49 555.79 816.69 417.09 967.84 441.18 918.32 538.02 794.01 606.38 905.03 628.29
00004182 00000040 629.81 178.80 393.21 555.17 817.45 415.57 968.81 438.50 920.89 534.73 797.01 604.56 909.06 625.59
00004183 00000041 627.15 175.38 393.50 562.22 813.34 413.97 967.32 437.89 919.21 533.42 796.25 605.83 910.39 627.45
00004184 00000042 619.38 175.18 398.67 567.63 807.07 416.50 961.48 441.54 910.61 537.31 790.14 608.68 903.88 631.04
00004185 00000043 616.23 176.42 398.33 564.48 801.94 415.02 955.29 440.35 899.07 537.81 779.06 610.70 888.45 633.40
00004186 00000044 610.09 169.76 399.78 570.21 797.66 410.00 950.37 437.55 895.15 535.31 768.13 605.87 880.81 630.55
00004187 00000045 603.78 163.90 392.71 570.84 786.04 405.89 941.08 429.64 890.41 529.86 764.15 603.22 881.61 624.51
00004188 00000046 600.27 163.73 391.92 571.11 769.72 401.39 937.54 426.92 880.03 531.56 758.71 605.22 891.47 627.10
00004189 00000047 592.35 165.62 394.97 572.54 759.10 406.39 932.21 431.85 873.78 530.57 752.54 609.33 887.31 630.81
00004190 00000048 586.14 168.88 396.20 571.23 750.77 411.83 923.81 435.53 863.55 537.78 743.87 613.12 877.13 633.31
00004191 00000049 583.68 168.81 393.83 573.66 756.11 411.71 920.37 431.97 865.34 534.39 738.44 612.44 865.30 631.53
00004192 00000050 583.63 166.04 393.45 577.78 756.54 408.86 918.90 429.77 863.93 533.44 738.68 611.76 864.15 631.32
00004193 00000051 583.76 166.60 393.29 576.71 747.68 411.41 913.69 432.69 858.31 534.30 743.99 614.90 869.53 633.45
00004194 00000052 583.66 164.62 393.25 577.18 746.95 410.74 912.71 430.90 857.63 532.38 744.83 614.07 869.29 631.69
00004195 00000053 583.64 166.83 392.69 577.18 747.30 411.55 911.31 432.10 856.64 533.07 742.41 613.77 867.10 631.93
00004196 00000054 584.26 169.65 392.04 573.70 745.57 415.70 910.76 436.09 854.04 535.45 740.60 615.88 865.51 633.98
00004197 00000055 584.66 166.71 393.57 582.12 749.93 417.58 915.88 437.77 857.12 534.86 735.07 615.51 861.63 634.52
00004198 00000056 584.68 168.64 393.74 582.01 750.31 421.10 917.36 440.79 859.30 535.86 737.24 617.41 865.18 635.87
00004199 00000057 584.74 171.63 391.85 580.24 754.07 423.04 919.55 441.04 866.21 538.60 743.20 619.74 869.42 637.06
00004200 00000058 586.89 171.55 391.38 576.32 761.86 425.01 925.17 441.07 874.58 538.50 754.83 619.01 878.66 634.26
00004201 00000059 586.87 172.59 392.21 575.12 766.42 428.74 930.24 440.21 882.03 541.00 759.89 619.95 885.41 631.62
00004202 00000060 584.98 172.75 392.73 579.74 759.62 429.35 927.13 441.35 876.65 542.59 753.21 620.35 884.78 632.63
00004203 00000061 582.39 173.79 393.55 580.79 748.44 429.25 920.76 442.21 863.29 543.68 735.98 617.73 878.17 630.80
00004204 00000062 576.21 177.08 392.50 573.78 736.28 432.90 909.84 447.65 850.14 549.70 728.80 621.02 869.83 634.73
00004205 00000063 575.05 174.64 393.26 576.34 737.17 431.82 910.18 444.76 852.19 548.45 732.25 622.84 870.88 634.94
00004206 00000064 577.28 171.92 395.76 577.96 742.17 429.04 915.06 441.35 858.75 546.15 743.30 628.85 873.79 639.95
00004207 00000065 578.81 171.39 395.26 571.49 745.14 429.77 917.18 438.77 861.41 549.17 751.33 635.20 873.09 643.29
00004208 00000066 577.28 171.15 401.18 573.79 743.27 430.26 912.16 442.24 852.34 551.56 744.18 636.62 861.25 647.55
00004209 00000067 571.38 176.92 401.52 553.50 731.24 424.34 899.55 441.89 832.71 544.75 728.83 624.94 845.88 640.39
00004210 00000068 565.85 167.62 403.41 561.34 720.66 413.11 889.48 435.99 818.92 534.64 714.58 614.21 835.01 633.91
00004211 00000069 569.14 163.11 399.85 558.05 727.41 399.38 894.15 423.98 829.71 524.08 719.65 602.94 839.33 623.80
00004212 00000070 580.64 157.24 395.20 562.49 740.65 391.49 908.50 409.52 847.33 513.55 727.67 588.96 850.65 607.75
00004213 00000071 581.76 146.52 395.28 567.02 748.46 379.18 915.28 400.37 857.69 500.46 732.44 576.90 857.63 598.02
00004214 00000072 579.78 138.82 395.69 563.80 745.71 372.11 912.59 392.94 853.69 492.92 733.42 572.79 854.87 592.99
00004215 00000073 575.49 135.96 392.80 568.04 737.49 367.83 907.53 398.74 842.71 489.88 717.79 565.57 848.19 593.54
00004216 00000074 564.40 142.02 397.48 558.52 724.20 372.50 894.51 402.28 828.03 492.17 714.15 566.18 842.76 592.88
00004217 00000075 568.41 135.55 390.24 569.58 729.95 363.20 897.50 399.06 831.35 486.25 707.90 561.70 837.80 593.14
00004218 00000076 563.87 139.45 391.52 557.38 725.87 370.16 893.77 397.88 831.39 486.95 719.00 566.21 842.13 591.15
00004219 00000077 563.55 136.29 390.15 560.64 723.05 369.71 893.50 396.62 830.30 485.77 716.41 563.81 845.94 587.87
00004220 00000078 560.10 131.64 391.20 563.36 718.70 366.54 888.85 391.68 824.71 483.93 713.65 563.39 841.77 585.82
00004221 00000079 555.37 131.07 392.67 562.44 715.92 364.87 882.34 390.15 817.21 484.54 710.34 562.94 831.93 585.65
00004222 00000080 553.91 129.67 392.60 570.41 714.09 365.28 880.56 392.71 815.01 485.34 703.28 562.81 828.90 587.37
00004223 00000081 550.67 133.18 394.63 576.12 713.56 367.86 880.08 395.82 816.75 488.96 697.43 562.66 830.25 587.57
00004224 00000082 550.95 135.03 393.81 573.40 713.24 373.99 879.51 398.63 816.49 492.84 699.12 565.18 830.67 587.48
00004225 00000083 549.90 140.19 397.09 571.09 712.52 382.20 880.95 403.56 815.01 500.34 701.21 572.02 833.07 591.77
00004226 00000084 551.16 144.01 396.84 570.93 711.68 388.73 882.42 407.06 814.37 509.16 700.89 579.91 833.10 597.30
00004227 00000085 551.69 144.96 398.46 573.47 711.67 387.10 882.86 407.33 814.27 507.34 703.09 586.38 829.87 605.37
00004228 00000086 553.75 146.04 397.82 572.24 715.40 386.78 884.05 406.52 816.96 507.24 706.46 588.18 829.16 606.96
00004229 00000087 554.39 146.51 398.88 571.81 715.27 387.66 886.10 405.46 818.96 509.38 707.20 588.74 833.10 605.91
00004230 00000088 551.69 145.51 397.99 577.83 711.38 389.52 881.81 407.84 815.41 513.01 702.96 588.71 831.49 606.14
00004231 00000089 545.74 149.08 399.83 574.60 696.13 393.06 871.02 412.70 796.49 519.45 686.50 588.48 820.24 607.31
00004232 00000090 537.03 150.02 387.50 574.30 676.19 395.69 844.88 407.37 781.10 524.07 678.42 604.18 808.78 614.66
00004233 00000091 528.56 154.34 392.83 573.48 657.58 404.27 831.32 413.57 761.53 528.02 669.62 608.70 801.75 617.20
00004234 00000092 520.75 152.03 393.91 576.89 651.31 405.39 825.35 411.63 758.46 527.62 667.99 611.25 798.15 616.92
00004235 00000093 516.47 154.42 392.02 574.73 648.63 406.52 824.55 411.38 758.80 527.29 667.75 612.50 799.74 616.83
00004236 00000094 512.60 156.89 391.60 575.03 645.05 407.31 821.74 412.05 755.77 526.69 664.85 612.78 798.63 617.06
00004237 00000095 509.05 159.81 391.90 574.04 640.63 411.55 818.15 415.46 750.19 532.69 660.72 617.25 793.90 620.91
00004238 00000096 506.43 160.72 394.48 578.69 639.41 414.46 819.46 418.30 749.84 537.06 658.01 620.13 795.75 623.67
00004239 00000097 507.94 159.90 393.44 574.81 639.96 414.19 820.72 418.22 751.37 535.25 658.16 618.49 796.60 622.09
00004240 00000098 510.24 158.46 391.88 569.54 641.59 411.66 821.75 417.38 752.47 530.20 659.65 614.92 796.55 619.73
00004241 00000099 511.72 157.48 390.87 567.05 641.49 411.39 821.39 415.95 752.47 527.94 660.25 612.50 798.43 616.29
00004242 00000100 511.01 158.80 392.47 566.67 641.76 411.71 822.47 417.62 752.22 529.80 659.58 613.04 797.65 617.99
00004243 00000101 509.80 159.66 395.51 565.23 642.88 413.52 825.87 419.65 754.02 534.17 659.97 615.89 798.75 621.02
00004244 00000102 511.46 159.62 395.93 567.61 646.55 413.90 829.62 420.62 757.95 536.91 664.45 618.97 800.25 624.67
00004245 00000103 512.55 160.31 396.41 571.05 648.98 413.10 829.01 417.83 760.34 536.85 669.12 622.79 798.43 626.94
00004246 00000104 510.83 158.49 398.29 576.24 647.92 415.61 827.38 418.02 760.09 536.76 668.92 626.11 797.27 628.36
00004247 00000105 509.88 159.76 396.14 575.98 643.30 417.55 816.54 422.95 747.53 534.89 661.62 622.59 786.00 627.41
00004248 00000106 508.86 156.72 399.31 579.02 638.60 411.58 817.18 418.47 743.16 531.81 654.56 616.98 788.98 622.81
00004249 00000107 509.27 156.06 400.70 575.53 640.81 405.96 819.69 418.63 745.05 529.33 651.29 609.76 790.51 620.36
00004250 00000108 511.85 154.97 400.17 575.78 644.39 403.70 823.38 416.23 749.86 529.63 655.96 611.01 791.94 621.50
00004251 00000109 516.35 155.90 397.84 570.53 647.22 403.54 825.01 413.14 752.72 531.07 662.65 613.48 793.24 621.73
00004252 00000110 515.88 154.35 397.72 572.75 649.28 400.14 822.72 409.37 752.84 528.51 665.77 615.47 787.72 623.51
00004253 00000111 513.68 151.24 397.74 567.34 641.65 396.22 819.99 409.42 743.73 523.03 655.02 606.74 785.13 617.56
00004254 00000112 511.77 156.14 394.93 565.66 641.98 396.19 816.13 410.77 736.72 521.81 643.41 594.69 777.85 608.27
00004255 00000113 512.44 155.83 397.09 563.67 643.77 397.07 820.43 410.10 741.37 521.74 645.67 594.87 781.62 607.15
00004256 00000114 516.45 154.76 395.05 563.12 650.94 397.70 825.28 405.59 752.14 523.72 660.18 599.80 789.52 607.71
00004257 00000115 519.49 153.58 393.30 565.78 656.33 394.68 825.90 403.87 756.37 521.53 665.15 599.15 790.38 608.33
00004258 00000116 514.93 150.54 395.33 568.32 650.39 391.71 822.75 402.31 750.52 515.19 657.77 595.47 786.61 605.92
00004259 00000117 511.07 143.00 397.00 578.84 642.09 383.36 818.54 404.40 741.45 506.05 645.64 589.92 782.46 606.81
00004260 00000118 508.91 141.41 396.22 581.79 640.92 378.72 818.15 401.25 740.79 500.67 643.17 586.69 781.58 604.68
00004261 00000119 508.46 132.70 396.95 578.22 646.97 375.83 823.12 393.26 747.13 495.28 649.20 578.02 787.20 594.06
00004262 00000120 515.46 120.94 391.98 579.92 653.73 368.91 829.03 381.34 759.05 488.06 660.81 571.94 799.66 583.17
00004263 00000121 518.76 115.77 388.45 578.73 662.25 364.23 831.57 378.25 768.01 481.05 670.42 566.18 802.81 578.65
00004264 00000122 518.93 119.54 386.78 580.26 668.03 369.71 835.90 381.77 775.99 485.16 675.25 570.73 808.01 581.58
00004265 00000123 525.01 122.58 382.03 576.76 677.64 367.02 844.70 380.74 791.48 480.32 685.05 564.66 815.78 578.04
00004266 00000124 529.55 119.53 383.43 574.93 690.63 366.97 860.46 375.76 809.74 479.06 696.90 562.54 830.79 571.87
00004267 DELETE   534.11 117.72 384.08 563.77 709.47 368.09 877.82 376.61 831.72 467.89 716.45 555.72 844.75 563.89
00004268 DELETE   537.99 118.17 386.98 561.84 722.02 369.85 888.90 377.27 850.36 463.80 730.12 555.73 854.63 562.71
00004269 00000127 544.44 121.60 384.44 568.28 736.01 372.09 896.52 381.09 866.30 476.18 738.88 561.15 866.05 569.80
00004270 00000128 548.50 123.49 383.61 570.09 739.30 377.77 901.03 384.33 870.50 482.56 743.84 568.17 869.94 575.15
00004271 DELETE   549.47 123.76 385.28 568.68 740.28 380.44 903.08 384.85 873.64 484.25 745.62 570.22 872.39 575.65
00004272 00000130 550.20 124.51 385.42 568.08 740.26 381.58 904.34 387.97 871.60 485.79 740.03 569.02 870.50 576.17
00004273 00000131 550.91 125.84 391.73 569.61 737.31 379.03 906.56 389.00 865.98 487.05 734.29 568.54 867.40 578.69
00004274 00000132 547.36 129.13 394.35 570.20 732.53 375.99 900.29 392.09 853.55 491.61 719.84 568.33 850.04 583.76
00004275 00000133 547.39 128.55 396.16 573.73 727.68 369.43 895.70 397.04 839.18 492.35 707.96 564.01 839.80 588.63
00004276 00000134 543.43 133.38 401.85 565.92 717.17 372.10 886.54 393.17 824.30 490.56 704.50 567.60 831.48 587.36
00004277 00000135 544.07 134.02 402.20 566.58 714.09 372.79 885.24 393.81 820.84 492.74 703.85 571.16 830.10 590.91
00004278 00000136 550.02 129.63 401.10 580.13 716.96 371.74 888.15 399.90 821.09 498.99 701.47 577.29 826.70 602.34
00004279 00000137 539.38 133.85 403.82 577.22 707.60 377.98 878.18 397.11 812.57 504.46 699.67 583.19 819.94 601.51
00004280 00000138 536.27 137.39 398.41 567.39 696.19 379.81 870.16 397.24 801.80 504.34 688.99 581.31 814.32 598.56
00004281 00000139 530.66 140.78 397.80 565.46 683.23 381.58 850.94 395.73 781.36 509.02 674.76 578.19 796.01 593.57
00004282 00000140 528.20 145.57 392.08 569.10 675.33 387.39 842.28 400.68 771.63 515.55 667.51 581.56 788.86 596.59
00004283 00000141 522.19 160.26 393.49 561.06 671.27 396.06 837.58 412.04 771.53 528.60 665.12 592.27 794.97 606.30
00004284 00000142 523.71 153.32 392.60 557.93 667.77 395.04 844.56 413.78 775.89 530.81 670.71 601.02 799.53 616.77
00004285 00000143 524.63 151.78 394.21 563.30 672.21 396.40 848.99 412.31 784.13 530.24 680.12 607.79 806.05 620.82
00004286 00000144 530.71 147.18 394.01 580.16 690.24 392.56 857.36 401.71 794.99 522.35 686.92 596.11 804.70 607.57
00004287 DELETE   532.37 139.28 394.60 586.82 707.61 387.04 873.42 397.40 817.84 507.99 700.88 592.45 816.56 604.47
00004288 00000146 534.97 137.04 392.00 593.78 725.28 388.69 885.18 400.47 836.42 501.04 716.77 593.86 830.03 606.63
00004289 00000147 540.85 135.43 396.41 601.05 738.46 398.19 896.72 406.72 861.44 510.00 732.86 601.20 841.82 612.09
00004290 00000148 549.31 143.81 390.71 591.65 749.88 407.89 903.09 408.51 871.57 513.81 745.26 602.45 851.25 607.79
00004291 00000149 558.34 142.62 385.65 587.74 757.22 405.36 910.74 406.47 885.16 510.26 752.23 596.45 864.56 602.05
00004292 00000150 561.57 139.20 382.06 572.86 755.35 397.37 912.58 396.25 889.77 501.71 756.02 585.94 875.67 588.93
00004293 00000151 554.78 131.65 385.39 567.16 752.02 390.12 911.94 392.84 889.02 493.45 755.53 578.63 877.09 583.75
00004294 00000152 550.23 129.89 386.50 568.45 748.64 390.97 908.85 394.80 884.73 492.38 750.83 577.21 872.79 583.28
00004295 00000153 546.38 133.24 390.11 579.20 744.74 402.70 902.80 403.93 875.10 503.49 738.35 584.73 858.44 589.60
CROP_BBOX: 267 0 1195 887
