Video ID: 	v2B_AElIuL0
H: 	1080
W: 	1920
FPS: 	23.976023976023978

FRAME INDEX X0 Y0 W H [Landmarks (5 Points)]

00002687 00000000 855.29 124.83 486.13 692.00 889.65 411.07 1087.00 435.96 916.47 572.87 919.84 676.41 1060.01 697.17
00002688 DELETE   849.35 124.41 485.16 703.94 883.15 418.69 1069.77 442.59 895.55 575.15 912.16 682.95 1042.33 703.15
00002689 DELETE   845.43 127.52 482.62 711.03 879.19 418.33 1062.88 444.61 886.92 578.51 909.67 685.01 1035.91 706.99
00002690 00000003 847.38 127.51 481.27 720.66 880.10 423.86 1058.16 446.80 881.64 578.65 911.13 691.70 1032.41 710.56
00002691 DELETE   848.02 126.59 480.32 721.51 879.63 422.25 1057.79 446.84 878.27 579.42 909.48 692.04 1030.00 712.30
00002692 00000005 847.30 126.12 482.19 716.95 879.17 420.93 1057.63 447.02 878.49 579.69 908.45 688.94 1031.39 710.41
00002693 00000006 846.85 140.32 484.66 694.95 880.79 422.69 1060.61 449.47 881.43 578.38 909.64 685.96 1031.38 708.37
00002694 00000007 846.44 135.62 484.29 696.97 880.55 421.72 1060.20 447.68 882.13 577.62 909.51 685.34 1030.92 707.08
00002695 00000008 847.43 136.82 482.95 693.09 880.97 420.12 1060.68 446.86 881.16 575.62 907.45 682.63 1029.90 705.07
00002696 00000009 845.00 129.61 485.16 700.53 880.16 415.17 1060.07 442.86 878.85 571.43 904.86 680.79 1026.64 703.81
00002697 00000010 844.22 138.01 484.91 694.73 879.49 414.64 1060.73 442.43 878.68 569.78 905.31 682.02 1025.44 705.08
00002698 00000011 843.57 136.53 483.66 692.94 879.79 412.16 1061.33 442.73 880.67 569.85 904.72 677.45 1027.33 702.89
00002699 00000012 843.62 140.26 481.36 686.29 879.35 411.85 1060.95 443.17 881.12 571.04 903.83 672.85 1029.91 698.86
00002700 00000013 845.00 141.02 481.09 683.47 880.20 411.80 1062.23 443.16 882.54 570.89 903.96 672.37 1030.11 698.59
00002701 00000014 844.52 139.68 480.69 684.96 877.94 411.29 1061.00 442.27 881.62 571.53 901.90 674.75 1026.92 700.60
00002702 00000015 843.32 139.70 481.29 687.63 877.35 411.33 1058.75 442.32 878.91 571.54 901.57 676.17 1023.72 702.02
00002703 00000016 843.37 138.27 481.98 690.73 876.53 408.27 1058.87 437.25 879.04 570.22 901.47 676.70 1024.84 700.84
00002704 00000017 841.39 127.03 484.35 703.94 874.44 405.32 1057.64 431.74 877.54 568.30 900.46 680.16 1023.17 702.12
00002705 00000018 839.40 116.11 484.97 712.43 873.65 400.69 1058.06 428.67 878.49 566.93 899.06 676.54 1023.35 699.84
00002706 00000019 837.85 111.30 484.47 714.27 872.31 397.07 1057.63 424.00 879.35 562.48 896.79 673.14 1022.07 695.81
00002707 00000020 838.39 110.21 482.03 713.51 871.93 397.90 1059.23 423.56 881.59 561.61 896.73 672.30 1024.97 694.12
00002708 00000021 839.21 112.18 482.12 711.00 871.43 400.14 1062.37 424.03 884.56 563.20 897.33 673.51 1029.51 694.01
00002709 00000022 835.29 111.78 483.73 711.14 869.08 405.74 1062.37 427.61 886.66 567.23 898.18 676.38 1031.90 695.09
00002710 00000023 832.41 118.86 485.11 705.38 868.94 411.27 1066.26 431.38 891.19 567.49 896.76 677.70 1033.89 695.14
00002711 00000024 833.61 120.84 486.68 704.03 870.35 410.15 1070.20 427.71 895.08 568.17 899.21 680.28 1038.56 695.72
00002712 00000025 836.54 132.12 489.70 689.91 873.93 416.90 1074.36 428.85 898.74 573.30 897.01 685.30 1040.00 696.29
00002713 00000026 833.05 124.74 489.65 708.94 871.81 417.71 1073.83 431.85 900.83 571.86 903.48 689.93 1041.88 702.57
00002714 00000027 834.63 128.13 486.80 710.29 874.56 426.24 1072.74 440.53 902.09 573.96 906.06 693.55 1042.68 706.18
00002715 00000028 832.78 126.95 490.78 711.73 875.74 435.10 1072.67 449.37 907.56 578.28 910.40 697.00 1044.96 708.83
00002716 00000029 831.65 115.20 493.05 726.01 875.92 437.12 1074.27 448.70 909.03 577.86 911.51 699.97 1048.50 709.18
00002717 00000030 830.49 110.81 496.41 731.33 873.43 432.35 1076.62 444.57 908.71 576.21 908.43 700.24 1049.19 710.18
00002718 00000031 833.88 98.04 498.13 744.09 874.15 428.41 1074.45 439.63 907.07 572.61 901.43 693.76 1040.81 704.09
00002719 00000032 822.57 111.44 504.22 727.04 876.36 423.09 1088.78 433.97 912.65 571.54 906.93 696.06 1054.47 704.98
00002720 00000033 832.01 114.90 502.05 713.05 878.77 419.01 1090.89 424.75 918.09 573.80 904.38 691.82 1054.11 698.14
00002721 00000034 825.12 108.56 509.68 725.30 882.14 412.02 1099.31 427.63 924.13 571.05 914.44 691.80 1060.97 704.37
00002722 00000035 827.16 105.73 509.35 725.04 885.93 411.60 1103.26 425.45 929.80 567.55 917.19 690.33 1063.68 701.36
00002723 00000036 826.17 102.86 513.23 726.54 887.70 408.06 1106.83 423.40 933.49 566.88 918.66 687.01 1066.87 699.19
00002724 00000037 830.38 104.49 506.20 716.09 880.48 408.78 1098.31 417.06 924.58 565.91 903.94 683.86 1057.67 692.67
00002725 00000038 828.98 103.24 501.81 716.33 878.28 408.37 1092.47 418.60 918.13 565.06 898.46 681.65 1051.27 692.35
00002726 00000039 818.53 103.97 509.70 722.20 878.79 406.75 1100.94 426.06 924.73 568.65 906.40 684.09 1058.54 699.99
00002727 00000040 828.66 91.34 511.85 737.89 893.01 411.08 1101.96 426.08 943.35 570.66 920.46 680.92 1070.72 693.42
00002728 00000041 834.96 94.64 512.80 733.73 902.58 409.93 1114.64 422.79 957.29 564.44 930.18 677.51 1082.43 688.65
00002729 00000042 841.69 95.59 519.36 728.11 900.00 410.61 1126.62 414.59 957.71 559.72 926.88 677.32 1093.84 682.82
00002730 00000043 846.74 86.46 519.83 743.84 905.78 408.80 1132.93 417.37 961.12 561.14 927.69 677.22 1098.04 686.65
00002731 00000044 851.90 84.30 517.94 743.08 909.14 406.83 1137.05 418.53 963.86 560.27 927.93 673.94 1100.11 686.05
00002732 00000045 855.49 83.71 516.67 738.02 910.69 406.10 1139.18 419.40 966.52 558.09 926.54 671.68 1097.42 685.17
00002733 00000046 858.61 88.59 513.59 730.43 913.73 407.68 1141.34 420.01 970.65 556.30 928.41 671.11 1099.62 683.82
00002734 00000047 858.03 80.56 507.77 742.30 914.54 407.69 1135.77 419.94 971.03 558.37 935.92 673.14 1100.59 684.60
00002735 00000048 856.87 78.78 507.24 747.92 915.74 408.50 1136.18 418.90 973.21 558.99 938.02 674.87 1100.89 684.86
00002736 00000049 861.74 88.97 507.78 734.30 913.88 410.67 1143.00 417.76 975.70 560.63 936.30 679.91 1104.66 688.32
00002737 00000050 861.43 94.16 507.79 734.08 914.54 412.64 1142.78 419.57 975.56 559.82 935.54 683.20 1100.08 691.42
00002738 00000051 858.54 86.12 504.14 747.33 915.29 412.78 1135.36 422.88 971.31 559.59 938.85 683.28 1095.62 693.06
00002739 00000052 859.01 78.84 504.89 751.39 918.63 408.75 1139.93 419.67 975.40 557.19 940.29 679.30 1099.85 689.80
00002740 00000053 858.50 79.79 506.89 749.12 920.69 406.04 1143.60 416.67 979.38 554.21 942.30 677.04 1102.58 687.36
00002741 00000054 858.15 81.18 506.45 746.94 921.11 405.42 1145.08 414.02 982.26 551.88 942.70 676.83 1102.79 685.65
00002742 00000055 858.77 75.98 503.69 750.65 919.47 405.58 1143.10 414.46 981.10 551.52 941.25 675.85 1103.08 684.79
00002743 00000056 855.30 68.82 504.61 754.11 912.58 410.43 1136.90 420.89 973.44 553.92 933.24 673.74 1098.53 683.55
00002744 00000057 846.07 75.88 510.74 747.47 908.95 414.25 1132.40 426.93 966.52 557.59 928.80 671.08 1093.67 681.71
00002745 00000058 838.75 75.89 508.75 750.92 903.76 415.73 1120.24 426.49 954.15 553.98 926.33 670.91 1085.11 679.79
00002746 DELETE   834.82 75.23 500.96 743.07 895.47 415.62 1101.94 426.04 942.55 551.15 916.17 667.55 1070.64 676.69
00002747 00000060 827.66 81.12 503.70 739.98 881.11 403.17 1089.09 415.11 917.72 553.29 899.37 664.39 1060.56 676.26
00002748 00000061 823.77 92.88 498.69 737.27 878.40 405.68 1076.86 415.53 908.36 555.67 896.25 671.09 1048.55 681.15
00002749 00000062 820.77 96.79 491.01 733.48 870.00 406.22 1066.85 416.22 899.45 557.91 888.74 673.58 1037.78 683.58
00002750 00000063 818.59 97.92 489.38 728.93 864.94 407.12 1060.47 414.30 892.86 554.25 884.21 673.79 1030.01 681.72
00002751 00000064 811.12 91.80 495.22 735.30 850.26 405.48 1046.58 416.51 883.33 547.42 873.82 670.94 1017.93 681.47
00002752 00000065 808.56 86.20 494.72 736.79 846.16 403.13 1043.75 415.07 880.23 546.79 869.55 668.56 1015.89 679.78
00002753 00000066 805.24 87.23 497.19 729.30 843.96 401.67 1041.75 413.94 879.47 545.69 868.05 665.27 1013.58 676.70
00002754 00000067 805.36 84.93 497.29 727.81 843.32 400.36 1041.57 413.68 877.73 542.53 864.76 663.92 1007.51 676.34
00002755 00000068 802.99 87.49 501.65 721.29 842.62 399.42 1040.80 414.27 875.77 542.93 863.34 661.62 1005.84 675.29
00002756 00000069 799.72 82.49 503.67 730.41 841.15 399.18 1039.89 413.89 873.53 543.09 862.60 664.34 1004.54 677.70
00002757 00000070 801.55 82.29 500.46 739.04 842.20 399.14 1037.55 414.04 871.37 543.50 865.53 667.68 1004.56 681.04
00002758 00000071 796.44 70.19 500.97 756.34 837.46 398.84 1032.43 414.89 864.28 544.62 859.83 669.84 999.89 684.02
00002759 00000072 795.90 77.75 496.84 743.61 832.97 394.60 1024.50 414.72 851.70 546.10 854.99 665.29 993.91 682.50
00002760 00000073 790.57 98.45 495.49 717.10 825.91 394.87 1014.21 414.15 841.12 546.79 849.79 664.12 983.11 680.68
00002761 00000074 784.89 96.90 493.04 712.48 828.26 390.32 1015.12 418.01 836.52 538.25 850.64 656.20 973.75 678.62
00002762 00000075 786.74 97.13 482.00 705.42 824.26 388.14 1007.29 415.90 829.98 536.41 844.50 651.62 964.51 674.25
00002763 00000076 784.32 89.94 479.78 713.29 821.69 387.40 998.46 415.12 819.70 531.52 839.73 650.11 955.34 672.63
00002764 00000077 783.39 93.46 481.40 710.42 820.18 385.95 999.14 413.96 818.50 532.03 841.72 649.24 958.64 671.89
00002765 00000078 782.93 92.03 481.17 713.49 819.72 386.19 998.91 412.66 818.81 531.76 842.24 649.76 959.67 671.27
00002766 00000079 780.92 90.56 480.64 713.12 817.96 386.21 995.61 411.30 814.73 530.69 839.30 647.91 957.62 668.26
00002767 00000080 778.75 99.38 480.10 700.45 815.39 389.72 994.36 417.21 814.59 532.62 834.13 646.60 956.16 669.26
00002768 00000081 778.76 89.36 480.22 712.30 813.74 393.19 999.01 417.33 820.58 533.26 834.05 649.96 960.84 669.80
00002769 00000082 780.07 94.23 480.08 719.58 815.80 397.38 1002.34 417.61 825.85 537.46 837.11 658.53 964.65 675.27
00002770 00000083 778.20 91.66 486.80 734.27 819.58 399.71 1005.72 417.64 832.00 541.88 843.02 663.77 973.47 678.42
00002771 00000084 776.73 91.62 493.74 729.70 821.88 402.90 1009.82 419.36 835.18 542.01 847.02 665.02 978.34 678.22
00002772 00000085 776.96 92.47 496.78 726.10 820.23 403.72 1014.69 420.20 838.98 544.10 847.88 667.25 981.53 680.60
00002773 00000086 778.32 86.42 501.06 728.89 825.35 406.00 1022.23 420.78 848.15 545.04 855.02 668.06 990.50 679.90
00002774 00000087 776.12 89.98 507.22 728.85 828.13 408.54 1027.67 423.00 855.45 548.16 859.87 670.67 996.71 682.22
00002775 00000088 774.08 94.76 513.70 721.89 828.55 408.32 1032.24 422.03 859.49 550.34 860.81 671.69 998.79 682.63
00002776 00000089 773.49 92.90 513.02 725.68 829.87 408.95 1032.87 421.55 862.21 549.57 861.70 671.02 1001.85 681.01
00002777 00000090 773.35 96.80 513.94 722.49 828.87 406.00 1035.68 419.47 864.05 549.59 860.91 670.42 1002.25 681.17
00002778 00000091 771.73 92.33 518.37 726.88 830.60 406.63 1039.00 416.61 868.21 547.55 862.14 670.45 1005.22 678.46
00002779 00000092 773.07 89.65 522.10 728.96 834.73 406.19 1044.16 417.09 873.66 548.72 864.49 668.65 1008.67 677.40
00002780 00000093 783.52 80.42 516.55 739.09 838.75 408.52 1044.66 414.59 884.44 551.21 871.29 672.13 1019.59 677.74
00002781 00000094 791.75 74.67 513.03 743.77 845.30 414.06 1052.37 418.86 893.33 554.99 876.42 671.98 1032.08 676.46
00002782 00000095 799.91 79.00 507.35 733.67 846.98 414.01 1052.61 417.42 895.63 555.37 877.70 671.51 1031.44 675.13
00002783 00000096 805.99 83.25 503.35 730.41 849.79 410.98 1051.88 415.20 893.58 552.42 878.39 670.40 1028.09 675.05
00002784 00000097 807.70 81.38 502.21 734.27 850.77 409.59 1048.75 414.09 889.25 547.84 878.23 668.88 1025.71 673.71
00002785 00000098 813.73 78.31 495.12 723.23 856.94 410.93 1054.14 410.43 893.30 550.23 884.26 666.65 1034.50 668.49
00002786 00000099 815.87 82.18 493.89 714.81 859.33 405.64 1056.90 407.30 895.25 547.34 884.20 661.97 1033.62 665.52
00002787 00000100 805.73 85.89 501.33 715.36 855.95 400.07 1060.61 413.72 890.87 543.35 886.01 658.02 1032.44 668.93
00002788 00000101 813.86 73.47 499.32 729.51 850.58 402.90 1049.30 411.89 887.95 543.74 874.83 659.41 1023.17 668.19
00002789 00000102 811.00 79.00 500.79 732.46 851.55 403.06 1047.03 412.95 886.31 545.65 875.85 662.30 1020.38 671.77
00002790 00000103 810.00 77.34 500.28 737.54 850.10 403.20 1045.99 414.86 882.99 545.27 871.54 664.08 1015.00 675.14
00002791 00000104 806.20 78.52 499.85 738.27 846.04 402.26 1043.15 414.34 879.79 546.01 867.79 665.90 1010.91 677.31
00002792 00000105 807.08 82.88 499.16 736.52 846.53 405.10 1044.22 419.69 880.45 549.54 867.74 666.24 1011.78 679.78
00002793 00000106 808.69 86.04 498.32 737.62 846.84 410.69 1046.03 422.83 880.43 551.36 868.16 672.73 1012.37 684.12
00002794 00000107 808.98 84.92 500.27 741.92 849.47 415.24 1048.12 426.43 882.72 554.51 872.35 677.62 1016.05 687.95
00002795 00000108 812.63 81.56 497.78 744.69 851.82 419.58 1050.60 429.60 887.07 556.01 875.68 678.56 1019.56 687.95
00002796 00000109 801.85 99.66 500.11 718.17 855.92 424.44 1061.37 436.11 894.13 561.52 886.47 679.55 1031.83 688.63
00002797 00000110 803.31 101.73 497.93 715.17 858.19 427.57 1060.88 437.86 897.04 563.34 890.12 681.58 1032.20 689.43
00002798 00000111 803.86 102.69 496.14 712.51 858.66 429.11 1063.79 440.46 899.87 568.20 890.47 682.63 1035.37 691.27
00002799 00000112 803.73 101.84 497.03 714.49 858.80 431.68 1066.26 443.80 901.67 574.18 890.78 685.20 1038.13 694.61
00002800 00000113 801.47 97.99 501.18 721.79 858.94 437.11 1067.81 447.41 902.25 580.68 893.41 691.62 1044.00 699.29
00002801 00000114 802.22 92.70 501.94 729.79 859.00 437.55 1068.05 445.54 900.51 581.60 894.98 694.20 1047.12 699.90
00002802 00000115 802.00 94.78 505.33 728.58 858.89 436.45 1071.53 443.14 902.15 579.27 894.56 694.95 1048.61 700.00
00002803 00000116 802.82 92.89 504.42 731.28 860.04 436.79 1071.22 442.66 902.85 579.58 896.77 695.56 1049.20 699.94
00002804 00000117 815.27 75.30 499.50 758.80 858.62 436.11 1060.45 436.97 901.74 578.31 892.18 698.74 1037.26 700.19
00002805 00000118 809.30 91.81 509.03 730.62 865.38 429.22 1073.83 433.17 910.72 580.84 899.31 689.86 1051.33 694.29
00002806 00000119 811.72 93.09 510.10 725.01 868.33 426.45 1078.15 430.27 914.21 577.10 901.36 687.06 1055.76 691.49
00002807 00000120 813.13 91.10 512.02 728.45 871.43 425.31 1080.66 427.70 917.73 573.89 904.61 685.59 1057.83 689.01
00002808 00000121 811.53 81.70 517.21 749.50 874.08 428.22 1082.31 430.51 923.70 568.50 907.08 690.94 1056.55 692.15
00002809 00000122 830.70 89.10 500.20 742.31 874.23 418.48 1079.98 419.98 917.44 565.07 909.53 686.73 1055.89 689.00
00002810 00000123 832.74 119.72 499.50 706.47 875.56 417.02 1077.75 418.56 919.43 562.97 915.31 676.34 1061.83 677.52
00002811 DELETE   833.07 124.98 494.40 687.31 875.51 424.25 1069.01 416.90 919.97 557.69 918.66 671.04 1059.72 665.28
00002812 00000125 818.68 128.38 498.94 678.51 862.32 411.35 1067.15 408.74 907.61 547.85 909.97 666.38 1049.45 664.60
00002813 DELETE   816.34 116.44 495.84 674.51 860.71 406.56 1060.22 397.04 903.83 533.95 912.60 659.30 1042.06 652.14
00002814 DELETE   815.62 110.54 495.78 670.28 860.00 397.04 1057.14 388.56 898.91 520.08 912.84 649.97 1036.68 642.95
00002815 00000128 812.95 89.03 494.27 684.17 857.38 382.33 1052.39 374.93 894.09 508.48 911.23 638.97 1033.11 632.84
00002816 00000129 812.88 83.37 491.47 687.98 858.40 381.07 1048.47 373.41 894.07 506.94 911.40 635.58 1032.01 629.30
00002817 00000130 812.74 81.34 496.39 692.28 855.40 382.05 1056.79 370.34 898.27 505.16 911.10 640.81 1037.50 631.34
00002818 DELETE   813.07 89.15 496.93 688.07 857.97 380.99 1063.97 369.78 902.20 511.82 910.62 645.17 1039.84 636.89
00002819 DELETE   815.11 91.45 508.25 704.80 867.63 381.96 1056.72 372.15 901.27 510.94 907.04 641.04 1032.31 633.99
00002820 00000133 816.68 93.20 507.08 711.22 868.31 380.47 1058.49 372.41 903.01 515.25 908.57 646.14 1032.67 640.65
00002821 00000134 814.50 93.52 496.65 695.97 862.88 384.17 1065.98 380.25 905.29 525.43 911.73 653.18 1041.66 650.60
00002822 00000135 811.52 100.45 497.86 693.60 859.56 387.95 1065.46 386.89 905.20 536.60 908.61 655.03 1045.23 654.88
00002823 00000136 811.49 99.45 499.82 701.85 857.01 390.91 1069.75 393.05 904.63 543.13 904.37 661.31 1044.79 663.62
00002824 DELETE   815.48 108.06 500.77 698.69 856.33 407.70 1050.64 403.36 896.01 542.87 892.61 665.54 1026.55 663.51
00002825 DELETE   809.10 122.89 500.81 699.76 851.13 413.02 1039.10 416.04 885.05 558.06 887.58 674.49 1017.28 678.08
00002826 00000139 803.69 134.90 490.35 693.39 844.50 413.67 1037.42 428.70 870.13 570.45 886.65 685.04 1008.52 697.17
00002827 00000140 803.36 122.46 494.52 729.18 837.82 429.90 1023.02 440.87 854.22 582.18 880.08 703.00 1004.63 712.54
00002828 00000141 798.98 132.11 488.44 728.93 833.24 436.31 1020.43 449.07 851.85 592.12 876.07 708.45 1003.06 719.59
00002829 00000142 792.87 129.11 494.44 734.44 831.98 436.51 1018.43 452.76 848.61 597.21 875.38 709.69 1001.83 723.27
00002830 00000143 791.57 128.01 490.61 724.20 829.82 434.79 1016.74 452.54 848.30 596.05 871.45 705.38 998.48 720.21
00002831 00000144 790.28 124.76 488.96 722.21 828.16 433.93 1015.08 452.39 847.55 594.16 868.12 704.37 991.66 719.78
00002832 00000145 787.45 123.24 489.01 724.74 825.11 431.95 1014.18 451.02 843.28 592.70 864.03 705.44 986.45 721.32
00002833 00000146 784.26 135.74 491.23 709.69 823.02 430.84 1014.57 451.94 842.85 592.54 860.12 702.76 982.46 720.44
00002834 00000147 783.83 141.71 489.14 702.48 821.73 430.16 1012.20 452.47 840.18 592.27 857.57 701.60 979.32 720.26
00002835 00000148 785.61 143.16 486.09 701.07 821.99 429.83 1010.40 452.99 837.88 590.26 855.31 699.29 976.00 718.85
00002836 00000149 782.80 149.92 483.89 699.33 818.49 430.62 1007.34 454.14 835.80 592.88 854.02 701.13 974.03 721.06
00002837 00000150 776.74 152.67 489.34 708.77 815.16 427.17 1004.85 452.56 830.06 593.67 853.22 704.17 973.51 725.61
00002838 00000151 775.46 159.72 489.66 703.58 813.17 427.09 1000.93 453.23 826.04 592.83 851.60 704.18 969.02 726.02
00002839 00000152 772.72 159.53 489.06 695.10 809.59 426.10 996.93 449.85 822.75 592.17 848.82 702.16 966.62 722.07
00002840 00000153 773.62 154.59 485.96 688.10 807.73 420.79 996.68 442.72 820.95 587.73 846.50 696.62 969.04 715.02
00002841 00000154 774.12 144.58 484.09 695.11 808.10 416.13 998.78 438.43 822.78 583.57 844.77 693.75 968.80 712.42
00002842 00000155 771.54 135.42 487.17 698.42 807.70 411.42 999.54 433.45 822.95 578.17 842.37 688.99 967.07 707.67
00002843 00000156 770.42 129.18 487.95 699.71 807.23 407.82 999.37 429.98 822.76 574.95 839.51 683.71 967.50 702.57
00002844 00000157 768.90 120.75 490.69 707.83 807.49 403.30 1000.39 425.38 824.38 571.61 838.63 681.52 969.11 700.25
00002845 00000158 768.14 117.50 494.77 711.30 807.12 401.36 1003.39 422.09 826.86 569.33 838.81 681.27 972.17 698.87
00002846 00000159 769.02 102.81 500.26 728.19 808.73 401.00 1007.61 418.08 831.85 566.88 840.87 683.88 977.31 698.55
00002847 00000160 767.80 108.40 508.23 723.99 816.78 406.55 1020.84 423.95 842.01 566.67 849.32 686.23 984.01 699.95
00002848 00000161 771.08 109.47 507.31 722.56 819.55 406.84 1025.65 422.26 849.51 565.26 854.72 686.37 990.95 698.48
00002849 00000162 773.67 114.92 507.11 716.43 823.18 408.28 1033.42 423.16 859.37 567.42 859.43 687.28 998.35 698.93
00002850 00000163 785.39 110.52 502.36 724.33 828.18 417.98 1028.54 426.18 858.70 568.11 863.05 688.77 1000.82 696.43
00002851 00000164 788.53 118.55 504.48 721.68 831.87 430.65 1031.77 434.27 864.48 572.89 868.50 697.39 1006.11 701.19
00002852 00000165 790.56 122.07 510.11 725.07 838.99 444.41 1038.84 443.37 880.52 583.14 880.62 706.80 1020.04 706.41
00002853 DELETE   794.40 98.43 511.54 756.77 848.09 448.30 1051.91 448.57 895.06 587.71 887.85 709.88 1031.60 710.51
00002854 DELETE   811.17 97.56 505.82 761.81 858.35 455.54 1073.68 452.01 911.99 596.49 898.01 715.57 1055.42 713.91
00002855 00000168 812.53 103.62 509.20 761.60 866.43 456.14 1083.85 454.65 924.44 602.00 906.12 717.98 1063.23 717.76
