Video ID: 	CJpqLE9FxjQ
H: 	1080
W: 	1920
FPS: 	25.0

FRAME INDEX X0 Y0 W H [Landmarks (5 Points)]

00026571 00000000 503.51 231.31 415.86 561.24 686.69 451.90 866.73 505.47 803.92 549.05 666.83 644.16 808.56 689.21
00026572 00000001 501.92 223.25 429.10 579.66 693.77 439.98 871.45 491.00 802.17 552.75 664.35 641.77 805.10 686.26
00026573 00000002 507.08 231.00 415.14 565.95 696.59 440.83 870.90 491.55 814.55 547.48 674.22 644.23 812.00 687.26
00026574 00000003 508.66 234.66 416.11 562.57 698.58 440.42 875.12 493.70 816.48 549.86 675.86 644.95 815.04 689.97
00026575 00000004 509.63 240.18 417.26 558.58 699.71 445.12 876.16 498.67 817.46 553.75 677.43 647.73 816.45 693.16
00026576 00000005 504.65 244.00 423.98 555.27 702.19 450.70 871.18 503.45 812.55 564.51 676.18 650.49 812.62 694.34
00026577 00000006 505.20 246.85 424.34 551.56 703.66 452.12 873.18 506.31 813.42 566.50 676.26 652.17 812.48 697.21
00026578 00000007 506.21 243.85 422.82 555.29 703.52 450.42 872.57 504.43 813.39 565.09 677.11 651.09 812.86 695.91
00026579 00000008 504.49 243.00 423.15 555.59 702.30 446.27 871.61 501.57 813.54 562.05 676.98 649.23 812.88 695.04
00026580 00000009 505.24 240.64 422.44 557.67 703.30 445.09 871.92 499.44 814.25 559.92 679.19 645.52 813.83 690.53
00026581 00000010 512.82 238.45 414.72 556.01 703.10 440.26 881.22 493.35 822.09 551.26 681.78 644.40 822.40 689.30
00026582 00000011 514.34 238.64 413.56 555.43 703.97 439.17 881.54 491.88 823.42 549.74 682.68 643.74 823.14 688.40
00026583 00000012 508.67 236.66 419.19 560.73 705.39 442.33 873.49 495.61 818.35 556.13 683.68 643.25 817.04 687.30
00026584 00000013 509.76 235.42 418.20 562.13 707.54 442.85 875.04 496.55 820.90 557.00 686.07 644.11 818.56 688.55
00026585 00000014 509.59 236.21 418.57 560.62 707.91 444.14 876.05 498.38 822.19 558.15 686.72 645.66 819.43 690.56
00026586 00000015 509.44 235.76 418.63 561.63 708.19 444.47 876.41 498.68 822.81 558.48 687.35 646.19 819.77 691.09
00026587 00000016 509.37 235.51 418.43 561.10 707.99 444.52 875.85 498.09 822.55 558.04 687.51 646.28 819.62 690.66
00026588 00000017 509.07 235.14 418.64 561.21 709.34 450.60 875.17 502.75 822.96 557.86 689.20 646.27 819.67 689.51
00026589 00000018 512.20 232.13 414.62 565.05 714.13 454.14 877.88 504.69 827.20 557.59 694.26 645.62 820.69 687.56
00026590 00000019 510.66 235.01 419.03 554.99 723.65 452.36 879.48 501.07 834.46 551.96 706.38 635.66 824.15 675.42
00026591 DELETE   525.10 213.61 413.95 562.01 743.30 430.74 898.61 482.89 860.69 538.31 724.91 622.87 846.43 667.55
00026592 DELETE   529.27 198.50 404.87 556.43 748.14 413.50 905.11 468.13 871.84 516.62 738.06 608.43 861.76 653.33
00026593 DELETE   525.93 182.17 398.77 554.78 736.65 408.28 900.80 451.69 871.01 489.93 744.34 588.53 869.79 623.21
00026594 00000023 517.32 174.47 401.42 555.00 728.21 397.63 894.81 444.82 862.87 480.80 735.45 577.39 863.55 615.38
00026595 00000024 520.73 167.47 394.44 561.14 723.10 382.55 896.02 420.62 866.45 475.98 725.71 585.42 858.33 616.57
00026596 00000025 513.12 166.34 397.23 564.29 716.89 386.29 893.06 428.67 864.29 475.64 720.52 588.10 856.66 622.45
00026597 00000026 509.62 168.95 397.36 571.43 717.88 389.36 892.14 432.66 864.04 477.92 720.96 591.00 855.30 626.58
00026598 00000027 502.05 175.95 403.74 564.32 714.39 394.18 878.81 443.17 850.79 490.14 722.83 589.07 849.91 629.03
00026599 00000028 499.39 180.41 407.78 565.18 713.53 396.12 876.41 442.85 847.25 495.57 720.41 593.88 846.50 632.41
00026600 00000029 498.84 182.88 408.14 567.91 709.63 398.33 873.22 443.49 842.74 499.37 716.92 598.21 843.11 635.50
00026601 00000030 498.77 184.41 407.25 572.67 706.46 398.06 873.59 447.19 840.75 503.81 710.93 604.16 840.82 644.98
00026602 00000031 498.32 188.49 408.19 573.55 706.10 397.77 873.53 448.33 839.15 508.28 705.63 607.27 836.22 649.66
00026603 00000032 497.29 188.41 406.78 570.17 705.05 397.45 871.90 448.67 838.12 504.09 704.96 602.09 837.03 644.91
00026604 00000033 494.71 184.17 405.48 568.10 703.72 394.96 870.40 448.63 837.75 495.17 703.95 595.05 837.94 639.58
00026605 00000034 492.32 183.07 404.26 565.79 697.93 389.79 864.93 443.89 832.00 488.80 699.58 592.02 834.74 636.61
00026606 00000035 494.19 176.62 394.19 574.24 698.99 395.29 865.19 442.93 834.92 483.58 692.74 593.13 825.45 633.13
00026607 00000036 491.56 182.65 399.52 567.13 690.13 389.30 855.33 440.91 820.17 490.68 688.90 593.48 823.10 636.51
00026608 00000037 489.19 187.27 400.33 567.93 689.02 393.35 855.03 441.55 819.70 497.33 687.70 598.54 822.54 639.14
00026609 00000038 486.08 189.85 405.41 575.15 688.60 400.09 856.74 450.99 819.37 509.75 684.48 608.42 818.79 651.26
00026610 00000039 484.67 197.95 410.01 584.36 688.55 408.78 859.66 459.77 819.60 521.73 678.76 619.96 813.89 663.37
00026611 00000040 488.55 204.27 412.43 588.33 689.50 416.74 861.74 465.30 817.40 531.64 675.85 630.17 809.97 672.27
00026612 00000041 499.37 213.99 400.64 574.98 690.56 425.69 860.81 471.16 818.47 533.11 679.93 637.63 811.07 675.46
00026613 00000042 499.67 213.38 401.72 574.60 690.15 426.57 862.04 472.38 818.56 532.79 681.48 637.87 813.67 675.76
00026614 00000043 489.84 205.24 415.19 587.54 690.28 419.73 863.10 466.38 819.07 532.17 681.56 633.39 814.97 673.80
00026615 00000044 486.69 203.72 418.57 582.97 690.26 416.16 865.26 465.56 822.20 528.77 683.22 628.86 819.15 670.95
00026616 00000045 487.55 201.13 416.91 580.73 690.73 412.82 865.93 462.23 822.68 523.60 685.16 623.00 821.96 664.91
00026617 00000046 487.69 200.46 416.54 581.30 690.82 410.96 866.58 462.36 822.48 522.13 683.51 622.54 820.46 666.09
00026618 00000047 488.78 201.62 415.08 583.36 690.98 411.30 865.06 461.19 821.32 524.18 681.83 624.43 817.83 667.01
00026619 00000048 499.29 209.13 402.09 576.61 687.89 417.97 862.15 469.85 819.88 521.10 676.63 629.24 813.41 672.01
00026620 00000049 498.76 213.00 403.17 583.54 693.27 425.70 859.80 474.21 821.81 525.41 679.30 633.86 812.78 674.31
00026621 00000050 492.36 197.95 414.57 591.40 691.24 427.15 868.07 473.41 819.16 527.28 681.50 629.67 822.21 669.43
00026622 00000051 492.83 193.30 410.05 576.13 690.61 413.95 870.21 460.26 824.88 508.93 691.78 612.18 838.50 651.19
00026623 00000052 494.38 182.21 398.78 573.97 686.14 408.69 867.36 449.38 826.36 492.37 691.92 606.20 835.59 639.85
00026624 00000053 486.79 185.62 403.11 566.48 681.34 395.24 856.11 440.50 816.83 495.86 687.33 602.95 829.15 640.69
00026625 00000054 485.12 178.97 398.49 569.19 674.78 403.64 851.30 440.76 809.26 490.98 681.85 601.00 818.13 631.97
00026626 00000055 482.37 180.21 399.77 571.47 668.63 406.66 846.52 440.04 801.66 498.56 677.04 606.77 812.96 634.91
00026627 00000056 477.84 182.58 402.69 570.66 662.33 414.01 845.25 445.02 797.17 505.11 675.31 613.29 811.65 639.07
00026628 00000057 476.39 188.63 401.03 574.08 658.39 424.73 842.43 452.13 792.29 513.98 675.64 624.01 811.84 646.37
00026629 00000058 481.87 204.89 402.14 568.94 657.38 426.19 837.75 454.86 788.83 522.52 675.39 634.53 806.50 656.40
00026630 00000059 478.87 214.55 401.73 566.42 654.28 437.39 833.63 462.10 783.93 534.28 671.59 643.78 801.18 662.81
00026631 00000060 475.32 224.00 401.46 564.62 652.58 445.37 834.30 471.81 782.89 545.47 667.81 654.31 796.74 674.70
00026632 00000061 471.22 227.49 402.25 567.22 648.29 449.99 831.91 476.31 779.42 552.01 659.15 657.14 792.64 678.17
00026633 00000062 465.95 229.80 403.51 570.52 645.94 449.38 829.01 478.01 777.63 554.07 653.51 659.95 788.07 683.30
00026634 00000063 459.80 230.14 405.06 566.61 640.93 448.17 823.84 476.27 773.12 552.32 648.23 657.62 785.13 680.28
00026635 00000064 457.08 226.72 401.95 561.52 637.06 445.11 818.78 472.47 768.68 550.31 644.32 653.67 782.46 675.63
00026636 00000065 453.42 211.05 406.24 568.41 635.77 441.55 821.78 463.75 766.14 545.26 643.52 645.82 782.68 665.51
00026637 00000066 461.21 223.21 395.20 553.69 628.61 442.12 813.23 464.44 759.72 539.52 632.53 646.52 780.51 665.05
00026638 00000067 457.24 219.79 396.54 559.19 623.06 441.99 810.76 464.25 756.11 537.56 628.90 648.01 778.64 666.18
00026639 00000068 454.16 220.81 398.43 567.58 625.89 442.43 808.33 466.08 758.22 539.35 628.26 649.45 776.01 669.11
00026640 00000069 450.68 222.02 400.87 575.06 625.72 442.87 808.17 468.42 759.33 541.16 626.67 653.13 774.18 674.42
00026641 00000070 448.45 218.69 398.83 574.49 617.69 444.46 809.11 469.87 754.05 543.71 625.36 658.05 775.19 678.87
00026642 00000071 445.37 226.98 397.77 561.09 609.95 447.10 807.59 469.89 747.42 552.33 622.89 663.12 773.73 681.62
00026643 00000072 438.03 230.45 405.19 569.42 605.73 453.21 802.54 476.48 743.31 557.78 620.94 671.17 768.93 690.48
00026644 00000073 433.90 240.73 410.91 564.27 602.45 463.41 798.20 483.88 738.67 572.01 617.86 680.23 763.40 697.13
00026645 DELETE   431.86 255.33 407.59 560.03 600.86 471.48 796.46 488.77 734.05 586.60 620.33 691.09 759.28 705.15
00026646 00000075 430.61 273.58 406.31 549.51 595.21 480.04 789.78 494.56 729.18 606.00 608.17 701.33 752.61 712.92
00026647 00000076 430.92 282.19 405.77 549.24 593.54 489.22 787.70 504.65 724.75 612.48 605.51 710.51 748.92 722.63
00026648 00000077 433.07 288.27 401.50 544.67 590.32 493.07 786.97 507.20 721.76 613.94 604.93 715.44 748.59 726.57
00026649 00000078 430.60 284.00 405.82 549.25 588.50 491.53 786.40 505.06 721.87 614.16 602.82 711.66 751.21 722.31
00026650 00000079 426.34 275.70 408.91 554.25 584.46 484.79 783.61 496.83 718.98 607.88 601.33 707.44 750.07 716.33
00026651 00000080 426.42 273.74 406.19 554.72 585.16 480.30 780.56 491.62 719.79 603.73 599.06 705.04 744.77 713.91
00026652 00000081 425.25 261.16 408.68 566.45 586.37 478.82 787.90 492.82 718.97 594.92 610.33 699.81 755.25 711.28
00026653 00000082 426.12 257.87 407.18 561.70 586.30 477.52 789.26 491.94 719.12 591.54 611.93 696.57 757.37 708.28
00026654 00000083 425.09 256.29 407.50 564.71 586.30 476.91 788.88 491.99 719.30 592.15 611.76 698.00 755.58 710.37
00026655 00000084 424.80 260.02 406.97 566.84 586.25 479.13 787.51 493.56 718.47 596.54 610.62 701.37 753.46 713.29
00026656 00000085 422.45 272.51 408.92 552.25 585.53 479.17 781.56 493.33 718.09 601.58 602.04 702.05 746.70 712.41
00026657 00000086 421.65 263.23 408.67 566.39 585.80 482.78 786.69 497.56 718.48 600.67 609.99 702.86 752.48 714.92
00026658 00000087 421.23 263.24 408.10 561.57 584.73 481.10 787.00 495.83 718.17 600.04 611.10 700.75 752.96 712.67
00026659 00000088 422.91 259.68 406.15 562.37 584.92 478.99 786.20 494.07 716.71 595.02 611.48 697.89 753.48 710.15
00026660 00000089 423.68 257.48 405.32 559.92 584.91 478.10 787.00 494.65 716.75 591.73 610.83 695.68 753.55 709.10
00026661 00000090 422.99 256.44 402.15 558.62 582.63 489.81 779.71 507.37 709.97 592.00 605.96 693.34 749.97 707.66
00026662 00000091 422.35 254.31 400.72 560.27 582.42 492.92 775.88 508.15 708.52 591.15 603.04 691.19 747.72 703.70
00026663 00000092 422.63 253.84 399.93 560.80 582.31 491.90 775.18 507.83 707.74 590.19 603.42 691.35 747.32 704.43
00026664 00000093 422.55 253.15 398.94 560.81 582.76 490.75 776.31 506.92 709.45 588.02 604.31 690.06 748.68 703.33
00026665 00000094 422.65 253.36 399.58 561.17 582.18 488.72 775.59 507.10 708.19 584.55 600.98 687.03 747.40 702.25
00026666 00000095 422.51 247.91 400.04 566.41 581.40 488.44 771.91 505.55 706.59 581.72 602.93 688.77 747.12 702.91
00026667 00000096 420.71 247.74 401.43 570.86 581.70 485.07 770.96 503.55 708.05 578.02 602.44 687.15 746.43 702.46
00026668 00000097 421.57 246.74 401.42 571.57 582.50 482.51 771.71 501.86 708.12 572.69 601.05 684.26 745.95 700.58
00026669 00000098 421.00 243.80 401.94 576.54 583.68 480.10 770.58 500.62 708.17 570.86 599.48 681.49 743.28 699.01
00026670 00000099 420.82 240.68 402.45 580.33 584.33 476.60 771.15 497.71 710.43 566.09 598.90 678.76 743.80 696.86
00026671 00000100 420.94 239.06 402.65 572.70 586.90 474.10 772.34 494.94 714.05 561.31 602.74 675.42 744.59 693.17
00026672 00000101 422.11 239.50 403.35 565.51 588.68 470.12 774.99 491.68 716.66 559.04 604.25 670.39 746.26 688.64
00026673 00000102 423.81 238.55 403.01 564.24 590.39 468.50 776.89 489.49 719.90 558.06 606.12 668.56 748.46 686.31
00026674 00000103 424.08 235.32 402.62 567.52 590.34 468.65 779.54 492.49 718.82 556.55 604.92 667.43 750.97 687.21
00026675 00000104 424.60 231.72 402.56 565.82 590.35 463.37 780.27 486.46 721.42 552.38 606.71 666.20 750.91 685.17
00026676 00000105 423.86 229.79 401.89 567.85 590.13 458.18 780.71 478.19 723.11 549.82 608.34 665.08 751.16 681.50
00026677 00000106 425.36 228.32 400.42 565.69 590.83 455.20 781.04 473.91 723.89 549.61 609.52 663.82 751.02 679.03
00026678 00000107 424.04 228.69 401.72 562.85 591.65 451.72 782.45 469.85 724.23 547.26 611.28 661.58 751.23 676.06
00026679 00000108 424.06 227.91 402.79 559.75 591.72 449.68 783.28 467.98 723.76 546.25 612.43 659.93 751.43 674.09
00026680 00000109 423.82 228.91 402.91 554.59 590.12 448.47 783.77 467.61 722.17 545.64 609.28 656.32 751.81 670.90
00026681 00000110 423.25 227.62 403.70 555.42 590.03 446.40 784.62 465.24 722.96 545.10 607.52 655.10 752.07 669.41
00026682 00000111 423.55 223.83 402.58 556.94 590.36 444.04 784.75 464.25 723.83 541.08 606.62 651.72 752.45 667.19
00026683 00000112 423.69 221.72 402.97 554.60 589.94 443.27 782.65 466.46 720.91 535.37 608.67 649.08 752.18 666.77
00026684 00000113 427.84 214.81 398.01 557.89 592.08 440.21 782.03 466.78 723.28 528.72 608.18 644.22 750.68 665.06
00026685 00000114 426.72 199.57 398.62 565.96 587.22 430.57 783.23 460.48 726.16 515.41 606.38 633.90 755.87 657.11
00026686 00000115 423.16 193.62 401.80 565.23 588.33 420.64 784.09 448.35 729.36 509.73 608.90 626.25 757.71 647.15
00026687 00000116 421.22 182.38 398.44 573.00 592.51 418.47 784.77 440.35 728.42 506.02 613.26 620.35 760.72 638.22
00026688 00000117 420.61 181.09 397.05 572.13 592.45 416.36 784.82 439.05 728.80 504.15 613.16 618.08 760.11 636.65
00026689 00000118 419.94 180.67 398.27 571.45 591.53 416.90 784.44 439.44 727.92 504.26 612.94 618.89 760.13 637.21
00026690 00000119 420.02 184.93 398.37 571.37 591.18 419.80 783.61 441.26 726.51 508.00 613.48 622.46 759.99 639.83
00026691 00000120 420.75 188.83 397.96 573.02 592.29 421.81 784.74 443.29 728.11 513.22 613.61 625.92 759.57 643.43
00026692 00000121 424.43 195.10 397.49 567.03 592.72 417.63 783.88 443.53 733.51 510.60 612.49 625.31 758.47 645.06
00026693 00000122 426.29 196.33 398.49 564.16 593.41 419.38 786.30 444.88 734.62 510.98 613.14 625.28 761.20 644.59
00026694 00000123 425.62 197.56 399.40 563.73 593.21 419.14 784.59 443.17 733.76 511.02 612.64 624.48 760.14 642.71
00026695 00000124 425.45 195.11 399.85 564.28 590.16 417.71 781.27 442.58 731.53 505.43 612.00 623.12 759.07 641.77
00026696 00000125 422.30 183.01 399.71 572.40 593.44 415.90 785.97 439.36 729.59 502.63 615.66 618.61 762.23 637.56
00026697 00000126 420.32 176.44 402.47 568.99 591.90 409.47 786.09 434.00 729.75 492.07 615.67 611.18 764.06 630.90
00026698 00000127 418.32 171.40 403.37 570.54 589.34 403.41 782.43 430.09 726.03 482.26 611.19 603.40 760.82 625.02
00026699 00000128 416.40 168.89 404.72 569.36 587.52 399.00 781.83 429.07 723.43 477.23 606.56 598.03 758.13 622.26
00026700 00000129 411.61 169.41 406.23 565.90 583.61 396.44 780.17 428.30 720.63 472.91 602.73 595.53 756.67 620.73
00026701 00000130 409.26 169.76 405.81 564.25 580.33 395.51 775.94 426.57 715.69 473.34 599.06 594.95 751.52 619.54
00026702 00000131 407.96 170.70 405.06 564.06 579.96 395.92 775.36 427.01 714.53 476.74 597.29 595.54 748.84 620.25
00026703 00000132 408.02 170.98 404.18 564.99 576.43 399.04 772.12 427.09 709.36 482.65 597.60 600.11 748.36 622.16
00026704 00000133 406.20 171.35 404.52 567.56 572.06 402.66 769.53 426.60 706.39 489.04 596.65 605.93 748.59 624.70
00026705 00000134 405.17 175.79 404.23 565.14 571.11 407.57 769.55 428.66 704.95 498.17 597.86 612.30 747.60 629.07
00026706 00000135 404.47 182.88 403.11 562.24 570.07 415.79 767.68 433.48 704.22 508.82 596.34 619.09 745.66 633.39
00026707 00000136 402.06 189.21 403.97 564.28 568.17 423.13 767.84 440.76 703.01 518.92 592.59 629.89 743.05 644.55
00026708 00000137 407.77 199.12 400.87 563.49 567.91 420.41 763.77 446.36 703.84 525.32 583.72 636.49 732.78 656.90
00026709 00000138 407.78 206.11 399.43 561.99 567.35 424.88 760.16 449.97 700.58 527.06 583.29 641.03 727.79 660.66
00026710 00000139 407.16 210.57 399.40 559.55 566.65 430.37 759.31 454.31 699.53 530.72 583.97 644.96 727.69 663.70
00026711 00000140 407.99 212.19 398.79 558.43 566.49 432.09 759.91 455.09 699.39 532.43 583.15 646.19 728.35 664.21
00026712 00000141 408.68 210.72 399.84 559.31 567.14 430.61 760.84 454.05 700.16 531.49 584.98 645.49 729.33 663.74
00026713 00000142 409.19 206.03 400.10 561.32 568.17 426.10 762.18 449.80 702.13 528.21 586.39 642.17 731.24 660.54
00026714 00000143 409.69 202.77 399.74 561.02 568.39 420.51 763.42 445.01 702.77 522.82 587.25 638.20 733.46 657.03
00026715 00000144 401.66 190.45 404.39 571.57 568.22 424.06 766.28 442.96 702.66 519.74 590.24 634.33 739.18 650.40
00026716 00000145 403.50 186.57 405.30 570.74 568.06 420.36 766.96 438.50 701.31 514.15 592.64 629.30 741.84 644.54
00026717 00000146 403.18 184.31 405.80 570.29 568.53 418.53 767.61 436.76 702.29 512.08 594.29 627.51 743.30 642.66
00026718 00000147 402.88 183.75 404.90 570.52 567.91 418.61 766.68 436.23 702.08 512.06 593.61 627.71 742.53 642.36
00026719 00000148 401.95 185.12 405.09 572.49 566.77 420.60 765.76 438.18 701.61 514.18 590.35 630.20 740.90 644.93
00026720 00000149 397.92 188.81 406.20 573.01 566.12 422.78 764.90 442.32 702.20 519.14 586.80 633.81 736.84 650.55
00026721 00000150 397.59 192.59 404.19 573.31 567.18 429.62 764.49 450.42 701.80 522.73 582.43 635.35 733.57 653.26
00026722 00000151 398.78 201.39 401.58 570.24 571.45 443.35 762.72 464.42 700.72 530.72 579.89 638.74 728.54 657.20
00026723 00000152 403.70 215.76 400.07 564.16 567.58 445.04 756.22 470.51 698.14 532.72 581.43 646.37 727.54 666.56
00026724 00000153 401.55 206.61 401.09 574.92 572.03 452.29 761.81 469.47 700.92 538.38 579.96 648.34 729.70 663.90
00026725 00000154 395.04 205.63 405.19 571.25 565.30 451.17 756.44 470.05 693.52 533.15 575.00 645.20 725.04 661.97
00026726 00000155 391.35 201.05 406.31 564.37 554.91 443.43 752.16 462.66 682.00 525.91 571.05 640.69 722.54 657.15
00026727 00000156 386.19 195.49 406.71 557.77 547.43 429.40 752.38 449.94 678.56 515.64 568.22 635.24 726.13 652.55
00026728 00000157 378.42 190.14 410.97 553.83 542.84 418.81 749.56 440.25 676.75 507.71 567.11 625.73 726.53 643.45
00026729 00000158 376.66 183.85 408.90 558.66 541.06 412.12 743.94 432.31 674.28 502.33 565.41 620.44 720.05 637.16
00026730 00000159 375.61 179.43 405.18 565.08 538.34 412.01 739.43 430.73 676.90 499.11 561.83 620.63 716.74 635.83
00026731 00000160 372.79 183.37 410.26 562.71 539.24 410.05 738.26 429.23 672.37 501.18 564.36 618.90 715.95 635.03
00026732 00000161 373.54 185.57 408.76 564.64 538.13 413.94 737.23 431.77 670.61 504.61 563.26 622.72 714.26 638.00
00026733 00000162 372.91 191.08 408.51 566.07 538.51 421.73 735.89 438.34 671.75 513.03 562.89 629.64 713.92 644.13
00026734 00000163 375.59 198.32 406.82 567.04 540.06 430.23 736.47 444.33 671.00 523.28 562.10 636.40 711.85 649.08
00026735 00000164 385.36 216.09 394.43 551.27 534.89 443.01 729.94 454.63 669.71 532.19 551.26 646.18 707.01 655.51
00026736 00000165 383.55 224.70 394.36 551.50 537.48 448.56 732.72 462.27 670.25 544.87 551.55 655.35 704.68 666.48
00026737 00000166 380.25 230.78 396.20 550.96 538.89 452.19 734.23 468.05 672.10 553.48 552.01 660.55 703.31 673.73
00026738 00000167 378.55 232.88 397.87 553.57 538.63 454.82 734.84 473.51 672.70 556.20 552.04 665.34 702.52 680.97
00026739 00000168 375.99 233.00 398.34 555.20 534.42 455.26 732.41 474.61 669.67 556.04 549.57 666.42 700.24 682.58
00026740 00000169 370.72 232.83 400.75 555.80 531.46 454.54 726.07 472.72 665.82 551.68 547.93 663.54 696.52 678.61
00026741 00000170 368.31 228.71 398.78 556.99 527.12 449.75 720.41 466.74 661.87 546.87 543.41 659.36 692.83 673.29
