Video ID: 	C8ZHopTbD1I
H: 	1920
W: 	1080
FPS: 	29.97002997002997

FRAME INDEX X0 Y0 W H [Landmarks (5 Points)]

00004979 00000000 409.38 235.10 309.60 516.10 443.34 469.73 575.86 469.44 482.81 576.32 472.47 646.78 575.32 645.71
00004980 00000001 414.75 238.94 311.31 510.65 448.40 474.76 574.59 472.91 481.97 574.28 482.56 647.49 578.17 644.61
00004981 00000002 417.87 237.54 313.88 511.78 452.12 473.86 574.58 473.92 477.40 575.64 482.56 648.48 579.34 646.92
00004982 00000003 427.06 239.58 309.08 518.35 455.88 476.96 571.95 477.05 477.03 578.95 485.66 647.69 579.21 647.99
00004983 00000004 432.33 237.25 306.68 521.04 461.13 476.72 576.62 478.07 481.10 578.67 489.42 649.80 580.62 651.22
00004984 00000005 436.43 233.37 305.04 520.49 462.58 475.01 578.26 477.55 482.35 576.41 488.91 649.36 576.42 652.04
00004985 00000006 434.50 232.85 307.71 518.15 462.71 471.05 589.05 472.89 482.04 575.20 486.07 652.90 579.49 653.86
00004986 00000007 432.55 230.61 308.96 518.46 465.30 467.25 587.14 470.92 482.08 568.99 488.61 648.96 578.27 650.54
00004987 00000008 440.62 226.97 301.84 521.38 464.32 462.10 585.12 465.44 490.80 565.68 494.88 643.21 579.47 646.85
00004988 00000009 438.78 219.60 304.45 534.75 468.78 461.69 589.61 461.35 497.66 561.27 499.57 642.41 587.41 642.75
00004989 00000010 435.92 219.34 306.04 538.43 469.16 465.84 596.97 457.70 504.50 559.24 500.22 642.96 599.41 636.64
00004990 DELETE   434.95 215.88 306.75 541.21 467.05 462.15 607.46 453.03 513.37 555.89 493.61 640.42 606.86 633.36
00004991 00000012 424.38 216.01 313.03 534.20 471.84 451.15 614.97 449.41 520.68 552.32 497.51 631.62 614.00 628.77
00004992 00000013 421.60 207.41 313.06 542.65 480.06 445.10 627.89 446.43 538.86 546.85 501.81 625.67 621.40 626.03
00004993 00000014 424.05 208.34 308.92 540.86 489.99 441.87 637.41 445.99 556.71 544.18 506.18 623.37 625.56 625.88
00004994 00000015 415.23 206.15 314.01 550.53 493.15 445.89 643.72 449.91 566.41 547.08 507.87 627.07 627.47 629.43
00004995 00000016 411.08 213.65 315.93 547.97 493.26 450.92 645.52 457.13 569.73 558.72 504.06 632.34 625.47 636.82
00004996 00000017 405.20 219.65 314.53 537.26 488.65 455.67 641.70 460.62 568.14 563.51 501.10 633.90 621.73 637.47
00004997 00000018 393.34 217.44 313.61 543.87 481.26 458.58 636.03 462.02 566.16 564.87 494.19 635.47 615.25 637.92
00004998 00000019 376.34 221.10 317.43 537.69 474.60 459.01 622.78 461.50 553.30 569.56 490.66 643.70 608.15 644.04
00004999 00000020 364.19 218.71 320.94 545.62 464.33 459.56 615.78 466.65 543.58 572.68 477.41 646.14 595.41 650.14
00005000 00000021 354.82 228.14 318.02 537.59 448.29 464.96 605.06 471.55 533.45 576.70 460.02 650.09 578.66 654.81
00005001 DELETE   337.76 231.90 319.68 541.19 435.30 470.72 589.82 476.44 521.73 581.57 443.26 650.78 559.32 655.51
00005002 00000023 316.18 233.38 325.31 535.38 427.08 473.46 572.97 475.03 511.20 582.64 442.56 659.67 555.30 658.78
00005003 00000024 304.75 235.03 328.16 536.20 412.85 474.94 562.87 478.25 500.49 586.73 429.92 660.86 545.48 661.55
00005004 00000025 302.61 231.37 325.91 542.64 403.19 473.53 558.30 480.43 485.35 584.93 415.24 657.77 532.73 662.37
00005005 00000026 291.93 232.36 325.60 544.39 394.48 475.13 549.14 479.08 486.81 584.68 409.21 658.40 529.39 660.76
00005006 00000027 284.12 236.22 324.61 540.95 388.18 478.38 544.54 480.93 482.51 587.71 399.90 658.14 524.35 659.93
00005007 00000028 278.03 238.78 325.46 540.77 382.77 479.59 539.46 482.52 477.83 588.51 393.64 657.86 519.85 660.18
00005008 00000029 274.60 235.66 323.57 546.24 379.67 477.77 536.68 482.11 473.87 589.04 388.20 656.25 516.54 659.72
00005009 00000030 272.42 229.76 324.04 550.60 378.12 475.80 534.92 480.70 471.89 587.56 386.85 654.57 515.39 658.39
00005010 00000031 279.19 231.93 320.29 546.95 378.21 473.97 535.92 475.34 470.12 582.34 389.60 653.23 512.74 654.03
00005011 00000032 281.83 221.56 321.98 555.22 383.29 465.37 542.09 466.64 478.39 571.54 396.86 648.08 521.22 648.46
00005012 00000033 284.47 221.98 324.54 551.28 390.87 456.52 549.70 456.78 488.80 566.07 406.07 645.52 530.53 645.25
00005013 00000034 288.17 222.19 323.93 542.60 398.56 453.00 553.73 450.75 496.76 563.48 415.69 641.47 538.24 638.93
00005014 00000035 292.92 220.13 322.63 537.58 402.73 449.81 556.99 443.45 503.17 558.32 424.51 637.27 546.63 631.16
00005015 00000036 296.86 216.65 321.75 538.87 409.78 445.87 559.63 438.15 511.44 553.42 433.19 633.77 552.14 626.36
00005016 00000037 301.75 214.87 320.53 533.01 417.71 443.09 564.95 434.91 518.72 547.78 443.98 631.85 559.21 623.86
00005017 00000038 306.20 211.16 319.57 541.43 425.92 440.30 573.41 428.23 534.33 540.10 457.51 634.68 570.77 622.24
00005018 00000039 310.67 205.95 321.06 545.81 432.10 440.20 579.32 428.03 537.92 541.96 464.15 634.43 580.77 622.28
00005019 00000040 326.07 203.91 310.33 538.41 442.44 440.00 582.51 423.69 553.13 535.43 478.69 622.77 591.30 608.77
00005020 00000041 336.38 211.15 311.23 532.56 451.52 443.53 593.85 423.69 563.46 535.77 489.23 624.79 605.44 607.67
00005021 00000042 346.83 213.38 309.37 527.05 465.09 439.68 605.77 420.50 572.86 534.23 501.70 624.01 612.45 607.27
00005022 00000043 353.97 214.30 312.60 530.64 475.58 440.74 616.21 420.57 586.71 531.74 514.71 629.28 620.62 610.35
00005023 00000044 359.53 212.74 315.30 528.25 482.45 441.85 624.18 421.98 592.49 534.51 522.39 629.02 632.72 610.81
00005024 00000045 372.54 207.83 311.88 526.89 493.67 443.38 637.14 416.30 606.55 527.44 533.40 630.28 644.54 606.38
00005025 00000046 387.21 211.37 304.67 525.24 500.12 444.35 637.54 418.40 612.09 532.64 543.91 621.94 655.14 600.19
00005026 00000047 395.01 215.64 306.93 519.94 506.84 444.48 646.33 418.79 618.61 531.89 550.19 621.33 662.45 599.33
00005027 00000048 401.73 215.13 308.22 518.21 513.72 441.55 655.21 417.73 623.52 532.00 555.98 621.44 666.59 600.64
00005028 00000049 405.74 214.71 308.91 516.19 517.12 439.94 658.52 417.07 624.53 530.66 558.33 619.44 668.88 599.45
00005029 00000050 406.41 212.72 312.28 517.81 518.22 434.66 659.63 414.73 623.43 528.78 558.52 620.13 666.11 602.67
00005030 00000051 405.24 204.66 315.85 528.02 514.97 432.45 658.72 414.83 617.42 526.56 552.51 619.28 661.98 603.68
00005031 00000052 402.22 202.09 316.29 535.56 504.86 434.97 647.67 420.30 601.60 521.54 540.00 617.08 653.43 604.04
00005032 DELETE   394.94 194.31 311.68 536.84 487.79 427.99 631.87 415.33 579.90 516.84 519.76 608.93 638.73 597.81
00005033 DELETE   376.49 195.01 317.88 536.71 460.78 423.64 608.97 410.43 544.29 512.96 492.82 611.66 609.04 599.18
00005034 DELETE   370.19 190.34 309.72 524.31 429.51 415.93 575.43 410.38 494.63 511.99 456.45 603.24 574.18 597.29
00005035 00000056 356.66 191.05 311.48 529.87 405.56 411.82 554.32 410.31 457.63 511.73 419.28 598.81 541.12 597.11
00005036 00000057 347.47 185.35 312.68 538.32 384.29 404.79 528.65 410.32 425.22 509.27 396.75 598.93 505.13 604.43
00005037 00000058 332.95 188.00 308.32 529.45 366.57 404.37 509.17 412.48 400.85 506.79 376.65 595.31 480.55 602.83
00005038 00000059 328.61 187.74 305.51 529.00 353.25 404.71 492.48 412.56 381.03 507.12 362.41 594.99 464.28 603.29
00005039 00000060 325.63 187.21 305.39 530.32 350.75 406.00 490.19 412.92 377.66 506.99 358.41 595.30 462.26 603.00
00005040 00000061 327.98 189.02 306.04 534.43 356.53 405.75 499.98 411.62 388.61 507.98 367.59 600.12 473.59 606.40
00005041 00000062 330.37 191.60 313.94 539.40 367.76 409.54 515.47 411.26 409.20 512.27 383.24 604.70 495.66 606.59
00005042 00000063 338.17 191.29 317.78 534.54 379.91 415.43 531.53 412.94 428.27 516.27 394.74 605.71 515.36 604.53
00005043 00000064 341.85 188.78 316.12 536.21 395.45 413.18 544.54 406.86 453.58 509.63 413.28 598.25 535.72 593.04
00005044 00000065 344.19 189.22 314.13 535.34 402.54 411.44 552.64 407.42 468.23 512.10 423.53 599.69 542.23 596.52
00005045 00000066 338.37 185.32 316.54 537.30 397.25 410.67 545.01 401.47 460.99 506.41 418.94 595.80 541.13 588.17
00005046 00000067 338.25 185.85 310.43 533.76 387.17 403.78 538.77 400.90 449.95 508.90 408.83 597.65 526.02 595.97
00005047 00000068 323.68 189.96 313.27 517.61 368.18 407.27 513.44 402.57 415.54 504.62 389.84 595.61 506.76 590.72
00005048 00000069 315.12 191.09 313.12 518.68 357.23 403.16 501.37 404.36 399.04 503.15 370.67 591.28 484.78 591.69
00005049 00000070 309.60 183.90 310.09 527.84 341.90 403.28 483.91 400.65 379.04 498.73 355.35 591.23 462.62 591.21
00005050 00000071 296.94 184.13 315.67 530.51 330.93 405.09 469.93 403.07 358.48 497.74 342.18 593.36 446.92 593.50
00005051 00000072 289.85 187.63 318.20 538.34 326.75 405.45 458.83 400.97 342.82 494.41 337.15 597.66 438.91 595.36
00005052 00000073 285.43 188.55 316.82 536.48 323.12 405.27 455.71 402.62 339.61 496.41 333.03 598.71 435.41 597.61
00005053 00000074 281.93 189.80 316.10 529.91 319.24 406.87 455.34 403.90 340.62 496.85 329.19 596.85 433.23 595.52
00005054 00000075 281.34 189.54 315.22 526.20 317.15 406.12 457.11 404.63 343.84 499.65 328.42 596.76 433.85 596.70
00005055 00000076 283.47 187.07 312.15 533.70 318.13 401.25 458.77 403.64 349.97 501.05 332.61 598.34 435.59 601.42
00005056 00000077 285.18 188.11 314.81 530.21 322.25 402.54 464.25 403.36 357.09 501.22 336.63 596.95 441.12 598.63
00005057 00000078 289.62 189.16 317.55 524.81 324.94 409.69 466.91 403.82 358.07 501.72 339.92 597.62 446.58 594.30
00005058 00000079 292.95 188.17 317.22 529.28 329.25 409.49 470.14 405.86 362.91 503.05 342.45 595.15 450.04 593.89
00005059 00000080 296.07 188.53 317.65 530.59 333.33 411.48 471.97 407.18 366.71 504.97 347.27 596.24 453.58 594.43
00005060 00000081 298.39 188.32 316.01 532.68 336.98 411.53 475.28 407.38 370.37 507.35 351.87 597.11 458.00 595.44
00005061 00000082 299.66 188.00 316.20 532.77 338.96 410.01 477.88 405.51 373.77 506.01 353.86 597.01 459.84 595.15
00005062 00000083 299.34 186.73 316.19 532.57 338.30 408.46 478.65 403.42 374.28 503.36 352.79 596.35 459.42 594.09
00005063 00000084 298.99 186.29 315.72 531.95 337.02 407.24 478.03 402.44 374.65 502.84 351.60 595.64 458.73 593.54
00005064 00000085 297.23 186.97 316.45 530.19 336.21 407.52 477.49 401.87 374.56 502.79 351.33 594.81 459.12 591.95
00005065 00000086 295.46 187.54 316.76 529.46 334.15 407.02 476.86 402.23 373.69 502.62 348.55 593.71 456.79 591.59
00005066 00000087 292.64 186.89 316.95 527.28 332.51 407.20 476.53 401.91 372.64 502.40 347.24 593.33 456.90 590.64
00005067 00000088 291.81 186.21 316.03 527.02 332.32 406.82 476.51 401.24 371.92 500.38 345.91 592.08 456.01 589.06
00005068 00000089 292.38 185.85 314.50 527.14 332.38 406.01 476.39 400.08 371.88 500.51 346.80 592.50 455.10 589.16
00005069 00000090 293.64 185.42 313.94 526.40 333.82 404.57 476.27 397.93 372.31 497.28 349.67 591.22 454.92 587.25
00005070 00000091 297.58 181.48 312.07 527.98 336.70 402.09 478.02 394.49 375.17 492.53 353.22 588.99 457.07 584.31
00005071 00000092 301.83 179.27 308.51 525.62 341.09 397.19 480.66 390.88 378.36 488.29 358.85 584.03 460.62 580.17
00005072 00000093 305.57 179.38 309.58 524.17 346.01 392.76 484.63 386.68 382.54 480.77 364.52 578.65 466.66 574.87
00005073 00000094 309.48 181.07 308.73 522.73 352.79 390.33 492.41 384.51 389.71 475.68 369.25 573.27 480.42 569.32
00005074 00000095 311.35 181.45 307.98 522.91 356.35 388.54 495.62 380.07 393.55 474.74 370.45 571.81 492.31 563.92
00005075 00000096 316.85 184.65 304.44 512.74 358.85 388.29 499.52 379.73 398.22 473.36 373.44 566.56 500.70 557.99
00005076 00000097 319.33 187.12 307.71 506.13 361.77 388.60 502.49 379.07 401.88 472.49 377.44 564.78 506.75 555.22
00005077 00000098 320.92 188.77 311.65 505.04 363.29 390.25 505.49 381.25 404.30 477.20 380.14 566.13 510.44 556.82
00005078 00000099 322.74 184.95 314.24 515.86 367.83 392.59 509.96 388.08 405.71 484.47 383.52 571.82 509.44 566.41
00005079 00000100 322.19 183.49 317.96 527.86 368.29 394.77 510.11 392.76 403.30 491.52 383.35 578.30 507.46 574.65
00005080 00000101 320.30 184.51 319.09 533.59 367.35 394.54 507.85 393.47 401.25 492.82 383.46 582.25 503.90 579.45
00005081 00000102 319.79 183.48 318.17 532.24 366.78 392.88 505.47 391.63 399.45 490.14 381.48 579.13 501.11 576.10
00005082 00000103 319.16 183.42 314.34 522.38 363.13 390.75 502.30 388.41 395.85 485.20 376.13 575.33 495.63 571.86
00005083 00000104 318.83 177.72 315.90 527.92 357.88 384.66 505.07 383.64 400.21 481.69 370.64 571.23 496.50 569.27
00005084 00000105 317.02 173.73 317.06 527.25 355.56 381.42 503.22 379.86 396.39 476.91 369.04 568.14 495.49 565.74
00005085 00000106 317.65 174.39 316.13 522.02 355.35 381.95 502.26 378.80 395.15 474.74 368.21 566.28 494.46 562.70
00005086 00000107 319.04 176.90 314.63 518.85 356.33 384.49 501.57 380.27 395.68 476.17 369.66 566.05 495.50 561.65
00005087 00000108 318.54 177.88 316.05 522.20 355.82 388.75 502.33 382.37 396.80 481.03 371.39 571.39 497.29 565.06
00005088 00000109 322.74 176.03 314.62 529.70 356.19 394.09 503.58 383.35 399.25 485.70 375.52 576.96 499.84 568.69
00005089 00000110 315.77 182.63 320.25 530.02 360.90 399.82 499.41 389.52 396.28 488.35 381.35 582.35 502.34 571.86
00005090 00000111 315.62 185.54 322.73 533.25 360.61 403.50 499.03 391.36 398.38 493.15 385.57 586.82 507.03 574.70
00005091 00000112 320.30 186.82 319.34 537.06 362.94 404.22 504.47 393.16 403.84 498.09 385.39 586.29 511.34 576.07
00005092 00000113 319.69 189.15 320.37 538.32 361.50 407.15 505.11 395.31 405.31 504.13 384.30 587.26 514.38 576.17
00005093 00000114 313.19 196.61 321.24 533.13 359.37 413.14 497.99 401.74 402.84 510.58 387.10 595.07 514.34 583.11
00005094 00000115 313.69 193.51 322.02 540.62 356.54 414.47 500.92 402.89 397.32 514.75 380.25 593.03 512.84 582.14
00005095 00000116 308.19 194.76 323.32 540.32 351.95 414.89 495.91 403.99 391.33 515.54 374.41 591.93 508.66 581.65
00005096 00000117 303.57 193.98 323.85 539.66 347.04 413.03 490.94 403.23 387.36 513.54 366.56 588.84 501.27 579.97
00005097 00000118 301.50 188.05 320.79 539.95 344.04 408.79 488.19 401.46 383.46 509.78 358.82 582.58 495.08 576.14
00005098 00000119 299.77 185.12 319.51 537.40 343.52 404.90 486.18 400.77 380.54 504.77 355.39 577.59 490.39 574.09
00005099 00000120 299.60 184.55 315.65 531.94 343.03 403.10 486.79 400.09 382.38 502.32 354.44 574.99 488.31 572.55
00005100 00000121 302.66 182.49 312.54 531.95 346.02 401.57 489.96 399.95 385.64 500.59 356.37 576.31 487.34 575.05
00005101 00000122 300.74 186.01 314.49 530.93 353.53 398.02 496.08 400.00 395.42 497.82 362.17 577.71 492.18 577.99
00005102 00000123 306.52 186.72 309.63 528.19 363.59 398.50 505.78 402.01 409.71 497.04 372.21 578.42 499.58 579.89
00005103 00000124 311.38 184.74 310.98 534.18 374.69 401.40 520.93 404.55 430.26 498.72 383.72 583.54 513.89 584.57
00005104 00000125 314.04 183.72 312.67 537.87 387.29 401.84 533.62 404.38 453.66 501.07 400.52 587.71 527.64 587.97
00005105 00000126 319.07 188.51 314.83 537.52 398.39 409.30 548.77 408.51 472.94 504.70 414.13 593.96 541.69 591.49
00005106 00000127 322.84 195.03 316.95 534.39 409.43 415.73 557.89 411.95 490.30 512.87 430.86 601.24 552.80 596.54
00005107 00000128 330.09 190.22 320.03 542.07 419.10 419.86 574.98 419.26 506.06 523.58 433.42 601.77 567.76 600.80
00005108 00000129 337.08 200.73 321.62 536.79 431.83 424.80 586.88 425.85 521.65 528.21 445.98 608.28 577.86 608.73
00005109 00000130 345.23 204.71 321.58 539.25 442.69 429.84 599.92 431.42 536.66 533.36 457.01 614.70 589.16 615.16
00005110 00000131 351.07 204.15 320.98 542.10 453.74 430.64 608.01 431.82 547.40 535.44 468.94 617.57 597.79 617.49
00005111 00000132 351.68 199.47 325.04 544.84 460.26 426.84 612.52 426.51 556.12 531.89 477.18 616.64 603.43 615.26
00005112 00000133 353.05 195.19 326.88 548.02 463.56 422.86 615.48 420.09 562.01 526.54 483.55 615.02 609.68 611.40
00005113 00000134 355.35 190.05 325.47 547.63 469.05 419.89 616.78 416.11 565.83 520.67 490.93 612.13 612.84 607.36
00005114 00000135 356.82 188.31 325.73 545.65 473.89 416.50 620.19 413.66 570.95 513.96 494.08 607.62 615.64 603.44
00005115 00000136 357.90 185.98 326.65 546.80 476.44 413.48 621.77 410.65 572.85 509.54 497.00 604.91 617.63 600.53
00005116 00000137 360.83 184.90 324.93 549.24 478.75 412.30 624.37 407.75 576.87 507.61 500.05 605.33 621.29 599.39
00005117 00000138 363.33 184.91 323.34 547.92 481.13 411.54 626.56 406.69 578.82 506.58 501.31 603.72 623.20 597.60
00005118 00000139 365.88 184.98 321.00 549.11 483.36 410.45 627.87 405.24 581.04 506.35 502.04 603.04 624.99 596.67
00005119 00000140 367.66 185.66 318.98 547.81 484.61 410.60 628.10 404.91 581.73 505.29 504.40 602.65 626.11 595.79
00005120 00000141 368.65 186.38 318.25 542.75 483.37 414.64 627.36 407.65 581.02 505.44 505.27 603.45 625.56 595.49
CROP_BBOX: 28 0 944 952
