Video ID: 	Jh-J8GIz6YQ
H: 	1080
W: 	1920
FPS: 	25.0

FRAME INDEX X0 Y0 W H [Landmarks (5 Points)]

00000226 00000000 644.23 106.24 345.21 537.37 735.38 336.46 895.93 328.86 822.20 431.71 758.60 512.10 901.72 506.47
00000227 DELETE   640.41 107.94 347.07 535.79 721.51 335.60 892.34 325.12 808.87 438.04 745.97 513.66 896.85 506.68
00000228 DELETE   627.53 106.88 355.83 535.06 710.73 336.24 879.99 325.91 798.39 440.08 737.73 515.51 885.47 508.64
00000229 00000003 616.35 108.77 361.11 532.50 698.97 337.31 868.37 324.78 785.25 441.06 730.36 519.61 874.52 510.50
00000230 00000004 609.53 120.96 358.27 517.80 692.25 340.56 858.60 327.23 777.82 443.59 725.84 520.16 865.43 510.67
00000231 00000005 608.15 119.68 356.00 518.50 688.36 340.55 854.01 328.43 771.45 444.64 722.25 519.85 861.33 511.12
00000232 00000006 607.35 119.02 355.30 516.54 684.74 339.24 850.40 328.17 766.55 445.74 720.03 518.27 859.62 510.26
00000233 00000007 607.52 112.91 356.16 520.40 683.99 339.23 849.70 327.09 766.16 444.49 721.55 518.28 860.72 509.16
00000234 00000008 608.11 112.25 358.97 522.06 686.28 339.87 852.08 326.26 770.12 443.60 725.23 520.39 862.55 510.22
00000235 00000009 610.63 112.70 360.88 521.65 689.26 341.21 856.98 325.65 773.83 443.77 729.53 521.53 867.24 509.88
00000236 00000010 616.89 107.93 362.74 526.44 695.41 342.68 864.72 325.37 782.02 444.46 733.37 520.46 875.37 507.17
00000237 00000011 627.38 109.88 358.29 525.75 703.83 341.92 875.69 326.01 788.48 444.47 737.95 519.74 884.22 507.68
00000238 00000012 634.32 110.01 353.90 525.51 709.95 343.07 882.73 328.53 795.16 449.91 740.83 518.02 890.42 507.38
00000239 00000013 641.86 102.95 342.66 533.43 716.09 339.89 880.53 326.06 797.67 442.40 750.75 520.00 891.64 508.83
00000240 00000014 649.62 107.52 346.85 532.96 729.94 343.27 890.37 333.22 810.27 443.94 759.53 517.68 899.03 509.92
00000241 00000015 652.43 114.98 349.91 523.26 734.80 344.80 896.66 334.14 817.90 442.18 766.70 518.34 905.85 510.13
00000242 00000016 656.38 115.51 350.73 522.07 738.41 344.95 899.45 333.99 822.70 443.97 771.26 518.48 909.90 510.03
00000243 00000017 658.73 116.74 349.37 519.90 741.44 344.73 904.53 334.79 828.28 446.76 775.37 519.76 913.88 511.84
00000244 00000018 663.81 124.25 348.36 511.95 746.15 345.43 909.35 334.85 833.03 448.15 779.38 520.23 917.68 511.87
00000245 00000019 666.90 125.06 349.10 513.62 752.09 345.00 916.00 333.16 841.88 448.56 786.70 523.35 922.98 514.17
00000246 00000020 670.84 122.16 352.07 519.10 757.50 345.21 922.63 331.24 850.01 452.99 793.26 527.88 929.05 516.97
00000247 00000021 674.53 122.91 353.16 519.49 761.84 348.47 927.00 332.43 855.03 455.71 797.90 530.75 931.91 518.19
00000248 00000022 676.51 119.13 352.88 524.28 765.02 349.45 931.45 333.70 858.90 457.76 801.73 534.43 934.71 522.10
00000249 00000023 676.98 114.19 353.42 531.51 766.50 349.81 932.99 334.29 860.20 458.07 803.71 536.65 935.56 524.57
00000250 00000024 677.33 116.89 352.45 528.45 768.24 349.97 935.42 334.00 864.00 458.35 803.53 536.22 937.64 523.81
00000251 00000025 677.24 110.71 352.06 531.20 769.17 349.08 937.02 334.33 865.58 454.50 802.27 533.62 937.24 522.27
00000252 00000026 676.31 105.43 350.92 535.82 771.77 347.08 939.39 335.26 869.70 451.93 804.90 531.35 938.83 522.12
00000253 00000027 679.53 105.56 349.04 530.93 774.28 345.00 941.16 333.49 870.99 448.27 806.79 528.59 938.55 519.99
00000254 DELETE   686.57 96.61 349.40 537.72 781.12 338.84 949.64 329.69 878.60 446.25 810.56 524.15 945.57 517.70
00000255 DELETE   691.38 97.76 347.63 538.95 789.73 334.47 958.91 326.52 889.46 447.99 817.22 524.78 952.29 519.81
00000256 00000030 700.85 106.03 339.72 539.85 797.30 335.32 965.71 329.23 897.77 450.61 818.78 524.97 959.27 521.49
00000257 00000031 704.28 107.32 341.27 542.19 803.24 332.63 971.86 330.04 903.94 449.07 821.15 522.28 963.89 521.54
00000258 00000032 706.63 109.08 341.06 542.31 810.47 328.09 979.17 328.62 915.19 447.16 824.48 517.74 969.32 519.95
00000259 00000033 708.90 107.63 342.44 538.06 812.11 328.10 984.20 327.33 919.48 446.34 825.85 516.46 973.22 518.08
00000260 00000034 707.97 108.41 342.90 528.37 811.18 329.07 988.62 327.06 920.27 449.43 825.05 513.64 977.54 514.76
00000261 00000035 706.54 111.83 344.85 525.52 810.40 332.20 988.65 327.05 921.75 453.24 827.70 517.91 978.88 516.29
00000262 00000036 705.67 112.88 346.28 527.94 810.57 334.18 987.65 325.98 923.31 453.88 833.02 522.91 980.46 518.42
00000263 00000037 706.34 108.22 346.59 532.05 810.46 333.15 988.33 325.47 923.01 450.39 835.36 524.68 980.78 520.34
00000264 00000038 705.88 98.77 347.00 535.88 810.87 329.48 990.28 325.33 922.44 449.01 833.94 521.12 980.27 519.59
00000265 00000039 703.79 97.23 346.90 537.50 808.61 327.52 986.40 325.00 918.67 446.29 832.58 521.72 975.25 521.27
00000266 00000040 700.62 96.38 346.67 544.34 807.68 324.51 980.51 322.63 916.39 444.11 830.66 522.39 967.91 522.32
00000267 00000041 697.57 95.66 349.30 550.80 805.02 324.09 977.95 323.76 912.55 441.49 825.18 523.12 964.28 524.20
00000268 00000042 693.66 95.45 350.47 552.44 802.53 325.29 975.26 324.80 910.98 442.15 820.58 521.96 962.80 523.22
00000269 00000043 691.63 96.96 349.39 550.39 800.23 326.73 974.09 326.34 908.14 445.19 815.43 521.68 961.12 523.51
00000270 00000044 690.07 99.51 348.70 547.55 797.72 330.46 972.17 329.28 905.15 451.22 813.07 524.51 958.73 526.24
00000271 00000045 689.22 105.34 348.78 545.96 795.85 334.02 970.78 331.71 903.62 454.73 813.24 529.55 958.62 530.23
00000272 00000046 687.64 109.27 349.49 544.83 794.40 336.38 968.74 333.32 901.73 456.31 812.32 530.58 958.77 530.37
00000273 00000047 688.50 107.85 348.56 542.03 794.40 335.95 970.59 333.35 903.00 456.35 811.51 528.44 960.03 528.90
00000274 00000048 685.68 107.93 349.66 538.69 793.68 334.81 969.02 331.85 903.18 454.32 809.65 525.25 957.80 525.84
00000275 00000049 682.68 108.15 349.88 539.66 791.27 334.68 967.67 330.49 902.61 453.96 808.20 526.75 956.51 526.35
00000276 00000050 682.05 108.50 350.11 541.45 790.57 335.43 966.39 331.45 901.40 455.30 807.66 528.50 955.07 528.13
00000277 00000051 685.00 111.01 349.75 537.72 791.74 335.70 968.04 331.70 901.43 456.25 810.13 528.53 957.65 527.94
00000278 00000052 685.92 108.82 353.06 537.23 794.54 335.89 972.57 331.43 904.88 457.71 813.32 528.01 962.13 526.58
00000279 00000053 688.28 107.93 352.93 539.17 798.04 335.11 975.50 331.66 909.59 457.83 814.31 524.82 966.28 524.34
00000280 00000054 691.27 107.48 353.39 539.10 801.84 332.51 979.23 330.72 913.21 456.60 819.47 523.48 970.35 524.20
00000281 00000055 692.63 104.08 356.46 542.14 803.88 330.37 984.92 328.63 919.44 454.18 822.14 522.67 976.24 523.15
00000282 00000056 696.81 102.07 355.85 546.62 807.13 328.50 989.11 327.06 923.81 452.75 825.17 523.48 980.07 524.14
00000283 00000057 702.59 103.15 353.75 550.13 811.57 329.51 991.57 326.25 928.17 452.57 827.53 524.17 982.85 523.51
00000284 00000058 702.52 104.80 355.22 545.95 815.35 329.34 997.50 323.95 936.31 452.85 830.73 522.10 989.63 520.13
00000285 00000059 708.48 100.90 349.70 550.78 821.15 326.73 999.65 320.57 941.72 448.31 835.13 518.16 994.24 515.82
00000286 00000060 701.71 95.13 354.92 558.58 822.97 324.80 1001.56 319.09 947.19 443.51 834.93 517.68 994.76 515.77
00000287 00000061 700.09 93.49 351.77 559.15 821.77 324.40 998.21 317.83 947.11 442.71 833.47 518.12 990.30 515.65
00000288 00000062 697.40 90.14 351.19 562.93 817.74 326.77 995.30 318.52 944.04 447.93 829.53 519.91 988.59 516.01
00000289 00000063 693.85 90.64 352.19 558.30 812.41 326.32 994.36 319.01 939.06 448.75 827.02 521.37 986.02 518.03
00000290 00000064 692.59 88.34 352.59 557.87 810.40 325.61 993.59 319.37 936.82 447.10 826.59 522.25 983.82 519.57
00000291 00000065 690.28 82.06 352.10 560.52 809.06 323.23 993.84 314.95 939.27 440.49 831.24 525.05 982.62 520.64
00000292 00000066 688.36 80.79 351.40 558.94 807.27 322.75 991.87 314.14 939.26 435.26 835.40 526.87 981.65 521.65
00000293 00000067 688.40 84.19 351.49 559.96 806.45 322.12 992.80 319.02 935.74 436.24 832.07 529.54 978.96 528.43
00000294 00000068 690.05 90.86 355.93 570.01 808.32 328.09 989.34 328.14 931.11 446.99 828.24 538.61 971.24 540.13
00000295 00000069 695.36 119.56 356.77 553.57 813.99 340.97 990.32 347.45 929.72 466.61 829.86 551.77 965.84 557.95
00000296 00000070 698.00 138.77 357.56 553.00 817.95 353.03 990.42 364.29 928.40 477.09 824.66 557.60 962.29 568.14
00000297 00000071 696.01 128.19 360.34 559.83 827.87 347.26 999.54 366.94 937.71 470.72 826.22 548.65 959.64 566.95
00000298 00000072 699.15 124.58 358.56 551.92 830.20 342.10 1001.57 358.91 941.02 463.24 833.15 542.68 966.03 558.44
00000299 00000073 705.40 115.69 353.49 551.21 832.20 336.66 1001.18 352.05 941.85 458.30 836.99 537.03 968.05 551.68
00000300 00000074 706.86 112.20 353.32 550.52 833.62 330.92 1002.99 346.78 943.53 454.55 838.42 533.55 969.58 548.43
00000301 00000075 709.62 116.16 351.16 545.53 834.33 332.31 1004.33 351.60 942.50 454.38 837.60 531.69 971.20 549.44
00000302 00000076 709.33 120.33 352.97 543.98 835.41 335.52 1006.78 355.56 942.52 459.28 841.53 537.63 971.21 555.92
00000303 00000077 705.26 129.17 356.88 541.14 834.61 340.62 1007.61 360.02 943.97 463.85 840.71 545.44 969.96 563.32
00000304 00000078 707.63 128.52 357.76 543.29 835.34 339.06 1007.73 358.15 944.61 464.14 843.16 552.31 967.71 570.02
00000305 00000079 710.45 126.92 356.29 542.46 835.66 333.51 1008.70 355.95 944.40 457.51 842.99 548.24 966.70 568.71
00000306 00000080 710.30 118.63 356.84 550.67 838.59 328.62 1007.29 354.41 943.66 450.89 842.32 541.50 959.36 564.58
00000307 00000081 709.22 114.01 356.74 554.47 839.42 321.52 1006.01 352.95 940.81 443.30 832.83 531.24 954.70 558.85
00000308 00000082 706.02 115.79 356.55 547.59 836.55 319.93 1003.46 352.79 936.64 444.18 826.10 526.03 952.95 555.01
00000309 00000083 701.89 121.84 360.94 543.12 832.38 324.82 1004.09 359.43 932.45 449.64 821.26 529.27 952.88 559.46
00000310 00000084 700.88 130.28 364.49 540.70 832.79 329.60 1006.35 366.75 931.56 455.13 816.51 533.23 951.04 565.70
00000311 00000085 703.11 128.63 367.54 544.50 834.96 330.09 1007.62 368.49 930.87 455.57 815.39 532.53 948.37 566.15
00000312 00000086 705.47 121.01 368.36 552.92 837.44 329.18 1008.41 369.87 930.29 455.56 815.97 531.80 946.76 567.16
00000313 00000087 703.46 122.49 370.26 556.43 836.42 330.32 1007.81 371.17 930.08 458.86 814.57 533.62 947.87 569.14
00000314 00000088 703.17 125.56 370.14 557.32 835.97 334.63 1008.64 374.14 931.26 463.44 814.72 538.04 948.63 572.63
00000315 00000089 704.55 132.19 369.96 555.62 835.71 336.81 1009.21 377.12 929.48 467.78 811.81 539.57 948.85 575.03
00000316 00000090 706.68 130.51 367.06 557.75 836.10 341.01 1008.72 382.14 927.22 470.62 811.31 540.23 947.72 576.44
00000317 00000091 705.95 129.90 366.52 551.35 835.37 340.37 1007.19 379.03 927.56 468.00 812.99 538.65 947.78 572.66
00000318 00000092 706.31 135.39 364.33 539.40 835.15 338.34 1005.75 375.18 927.22 462.07 814.59 533.93 948.75 566.32
00000319 00000093 706.84 129.00 363.97 538.06 835.70 334.09 1005.12 369.98 925.97 456.89 816.96 530.97 947.64 562.45
00000320 00000094 709.47 125.37 360.23 535.58 835.98 330.74 1005.30 365.90 926.24 453.17 818.13 525.68 949.79 556.69
00000321 00000095 711.34 122.02 358.47 537.28 836.50 328.11 1006.37 361.87 928.18 451.19 820.33 522.79 953.66 552.82
00000322 00000096 711.26 119.44 359.95 541.20 838.06 325.70 1008.08 361.67 932.01 448.82 821.13 520.48 956.00 552.29
00000323 00000097 710.53 116.53 364.49 547.03 839.19 321.89 1012.24 357.91 936.31 447.48 822.38 521.65 959.47 553.49
00000324 00000098 713.26 113.01 363.21 552.06 841.61 319.01 1016.66 355.47 940.10 444.29 824.85 520.43 962.90 552.74
00000325 00000099 719.50 116.51 358.59 546.43 844.96 317.02 1018.46 353.59 940.69 440.01 826.39 516.01 965.48 548.81
00000326 00000100 717.65 115.48 358.87 546.63 844.12 316.68 1017.59 353.13 941.31 438.66 825.21 515.08 964.99 547.66
00000327 00000101 716.61 116.73 357.37 539.39 844.46 319.27 1015.58 352.68 941.37 443.49 826.71 514.15 964.49 544.34
00000328 00000102 718.52 120.00 354.91 530.51 844.25 323.34 1014.89 355.56 940.90 449.41 828.45 515.49 964.07 544.63
00000329 00000103 717.09 124.76 356.06 527.56 843.41 327.78 1015.58 356.55 943.61 452.08 831.76 519.83 966.87 546.17
00000330 00000104 719.21 125.32 353.38 527.67 844.64 327.53 1015.86 355.97 944.60 451.09 833.17 519.62 968.11 545.85
00000331 00000105 721.01 123.24 351.74 527.38 846.26 324.94 1017.03 353.71 945.13 447.12 834.96 518.01 968.70 544.36
00000332 00000106 722.81 121.07 349.23 528.20 847.48 322.54 1017.28 352.15 945.59 441.45 835.75 515.74 968.99 542.72
00000333 00000107 723.92 119.44 348.02 527.24 847.75 319.14 1018.72 348.71 945.88 436.38 837.00 513.70 970.93 540.75
00000334 00000108 720.82 116.15 351.10 528.93 849.92 316.99 1021.09 344.68 953.71 432.75 840.16 512.89 974.01 538.43
00000335 00000109 723.51 114.42 349.83 527.69 852.82 312.67 1023.30 339.87 955.74 425.44 844.50 511.07 975.16 536.02
00000336 00000110 725.28 111.83 345.55 531.19 852.37 306.77 1022.46 336.12 956.20 422.46 842.88 507.96 973.62 534.52
00000337 00000111 721.40 105.01 348.84 538.80 849.05 301.00 1017.36 330.34 948.95 418.83 837.66 502.04 969.21 528.21
00000338 00000112 718.88 101.48 343.60 539.34 845.55 296.80 1011.59 326.39 947.17 414.74 830.02 499.96 961.49 526.29
00000339 00000113 717.04 100.12 341.54 538.85 842.67 296.33 1006.61 322.78 946.49 412.63 828.85 499.04 959.75 522.71
00000340 00000114 716.55 102.34 338.80 536.01 839.80 299.80 1001.75 326.84 942.41 415.44 825.12 501.15 954.94 525.60
00000341 00000115 715.80 103.41 335.67 535.44 837.69 302.03 998.56 327.04 940.30 419.09 824.82 503.85 952.96 526.64
00000342 00000116 720.12 112.65 336.65 526.49 829.57 305.69 1004.44 323.87 932.45 422.92 827.55 506.99 966.48 525.43
00000343 00000117 716.67 111.47 336.49 527.06 825.06 309.83 999.83 326.37 929.72 425.32 826.22 511.47 961.49 528.43
00000344 00000118 704.22 114.99 340.58 524.42 817.94 313.74 990.90 328.50 926.52 429.59 823.39 513.51 957.01 528.76
00000345 00000119 702.06 119.45 336.98 519.28 814.46 318.88 986.81 331.34 924.99 434.51 822.76 517.23 955.55 530.57
00000346 00000120 701.05 126.52 335.64 516.55 817.88 322.78 988.82 330.58 931.58 434.47 829.44 520.22 962.93 529.76
00000347 00000121 705.67 125.21 333.89 524.15 824.29 327.32 991.83 323.94 945.30 438.16 842.83 527.75 974.92 527.76
00000348 00000122 701.75 123.87 339.35 527.09 824.17 334.90 992.74 324.31 951.75 444.35 848.47 534.42 981.89 528.07
00000349 00000123 697.54 121.04 341.22 534.25 821.67 345.23 986.49 327.82 950.24 452.92 849.08 542.93 977.63 530.31
00000350 00000124 694.99 126.28 337.43 524.09 808.83 351.11 978.20 335.61 932.05 459.42 842.86 546.18 971.20 534.83
00000351 00000125 684.73 131.28 342.75 523.43 801.96 353.35 968.99 336.84 923.54 462.79 838.09 547.08 964.62 534.81
00000352 00000126 681.57 132.01 341.66 525.55 794.37 354.98 960.85 335.59 914.53 462.33 831.77 547.24 960.47 532.55
00000353 00000127 679.57 127.50 342.00 530.34 791.42 354.01 959.23 333.70 912.84 462.22 829.04 550.48 957.61 535.12
00000354 00000128 676.66 126.18 343.84 531.57 790.02 354.88 959.36 333.82 911.86 462.56 827.84 550.60 957.36 534.48
00000355 00000129 681.15 125.96 344.20 529.06 795.37 352.67 965.16 333.72 916.10 464.97 835.00 550.84 962.02 536.25
00000356 00000130 687.47 125.18 344.94 528.56 801.94 350.37 971.13 332.30 922.59 464.84 842.62 550.77 967.46 536.83
00000357 00000131 692.08 119.36 344.40 537.28 804.21 347.82 973.80 329.47 925.67 461.67 848.77 554.64 972.92 540.20
00000358 00000132 692.33 116.34 344.54 541.62 802.61 344.21 973.77 326.24 923.92 458.18 847.36 554.10 972.21 540.16
00000359 00000133 685.53 112.04 346.75 535.42 798.56 342.32 972.62 324.42 922.54 457.90 843.78 551.06 968.28 537.28
00000360 00000134 681.72 108.24 347.32 531.82 794.57 341.03 970.12 323.38 918.37 456.15 838.68 546.25 966.27 532.62
00000361 00000135 683.72 108.26 344.93 531.80 793.37 340.31 968.19 321.67 915.98 456.89 838.02 546.29 964.76 531.85
00000362 00000136 683.59 107.52 345.11 533.89 793.00 339.73 966.60 320.96 913.58 456.34 837.01 545.78 963.04 531.38
00000363 00000137 683.81 107.11 345.22 535.03 792.38 337.86 964.92 321.00 910.07 453.31 835.74 544.39 959.85 531.63
00000364 00000138 684.76 109.03 345.02 530.60 791.09 338.94 965.46 323.08 908.09 456.49 833.96 544.11 960.50 532.14
00000365 00000139 685.00 109.17 346.52 527.49 789.02 339.99 966.25 324.89 903.83 455.73 828.95 540.82 961.01 529.61
00000366 00000140 684.24 105.47 346.86 529.59 784.87 339.17 962.59 322.76 896.63 452.21 824.27 537.31 958.79 525.48
00000367 00000141 681.97 97.66 346.46 536.62 782.77 334.74 957.44 320.07 892.59 445.12 821.52 531.90 953.89 521.57
00000368 00000142 677.80 94.40 348.73 542.51 779.92 331.45 950.30 317.19 889.08 439.10 818.81 529.37 948.46 519.22
00000369 00000143 678.21 93.25 348.44 544.67 780.38 329.99 952.42 316.52 889.53 437.43 814.16 526.03 949.39 516.83
00000370 00000144 680.06 96.12 348.23 542.31 783.13 332.83 956.97 321.10 892.54 442.88 811.23 523.92 953.60 516.68
00000371 00000145 679.64 99.08 348.79 540.22 783.13 335.89 957.90 322.00 893.00 452.40 813.41 529.89 953.18 520.82
00000372 00000146 678.96 100.02 348.34 539.37 782.68 336.68 956.51 320.81 893.35 454.39 819.13 533.87 953.19 522.89
00000373 00000147 675.79 98.45 348.51 543.61 781.03 337.79 953.37 318.50 892.86 455.82 822.42 537.73 951.01 523.81
00000374 00000148 673.20 102.93 347.06 543.69 778.98 340.33 947.81 321.22 889.69 457.84 822.29 540.82 946.31 526.74
00000375 00000149 669.68 106.28 349.06 543.14 775.20 341.81 944.60 322.67 886.90 458.03 819.25 543.68 943.20 529.40
00000376 00000150 669.28 107.79 348.48 539.05 771.57 341.88 943.09 324.51 882.13 458.39 812.73 540.58 942.42 527.56
00000377 00000151 663.06 106.83 350.21 539.63 766.27 340.47 937.33 321.97 877.28 455.92 806.63 537.85 938.08 523.73
00000378 00000152 656.31 102.48 349.76 545.45 759.04 338.05 930.63 320.92 868.57 451.20 796.26 535.41 928.54 522.29
00000379 00000153 649.23 91.92 348.83 550.35 753.39 332.66 923.21 315.85 864.40 441.96 789.66 529.86 923.36 516.94
00000380 00000154 642.33 86.33 350.81 551.52 747.07 327.03 916.20 313.71 858.60 434.85 783.21 524.87 918.21 514.23
00000381 00000155 635.32 89.19 352.17 551.41 741.67 323.95 910.34 312.32 851.94 432.42 777.45 523.52 912.86 514.31
00000382 00000156 638.05 91.68 352.95 544.31 733.32 328.07 912.45 312.66 840.40 439.15 767.67 526.51 909.99 515.14
00000383 00000157 637.72 91.78 352.97 550.65 733.03 328.70 911.16 313.53 840.46 441.54 766.49 528.20 909.68 516.98
00000384 00000158 640.05 92.38 351.87 552.80 732.40 328.43 910.54 314.86 838.52 441.60 763.71 525.45 910.09 515.65
00000385 00000159 638.83 91.39 351.66 551.57 731.06 328.68 910.36 314.79 837.69 441.45 762.76 524.35 911.14 514.22
00000386 00000160 635.56 90.17 352.90 550.57 727.42 329.49 907.62 315.72 833.48 440.25 757.81 522.36 908.60 512.62
00000387 00000161 632.57 88.15 351.57 552.08 724.53 326.68 903.95 312.50 831.04 437.93 754.17 520.43 905.43 510.73
00000388 00000162 625.11 85.02 356.41 552.49 720.28 324.10 902.95 309.04 829.05 436.18 750.69 517.87 904.63 507.34
00000389 00000163 626.46 85.09 355.87 550.67 719.76 324.34 903.00 310.27 828.34 436.04 748.90 515.82 905.23 506.39
00000390 00000164 627.70 90.68 354.71 543.88 720.08 322.14 904.54 310.84 828.36 434.69 747.81 514.50 903.83 507.03
00000391 00000165 626.15 87.11 356.36 546.61 720.58 320.54 905.09 312.28 828.79 432.02 745.91 511.72 902.92 506.67
00000392 00000166 635.00 80.39 349.84 554.48 729.79 314.48 912.56 307.58 838.62 427.97 751.47 505.62 911.40 501.66
00000393 00000167 642.83 84.34 347.50 549.20 743.38 312.30 923.58 305.61 853.92 420.28 762.57 503.59 920.25 499.95
00000394 00000168 647.03 78.64 344.71 561.20 758.93 310.76 927.14 303.62 874.43 413.71 777.38 505.20 923.16 501.11
00000395 00000169 658.60 79.19 337.54 560.40 765.71 312.22 933.63 304.79 879.15 418.05 783.25 505.62 928.37 501.84
00000396 00000170 662.47 82.91 339.29 563.71 771.51 313.22 941.86 308.94 886.47 422.80 787.45 510.76 932.24 509.33
