Video ID: 	jA_Y49jAuVc
H: 	1080
W: 	1920
FPS: 	23.976023976023978

FRAME INDEX X0 Y0 W H [Landmarks (5 Points)]

00000970 00000000 599.51 175.59 511.39 716.05 727.77 491.45 941.23 461.63 846.52 616.15 795.69 743.45 960.79 718.33
00000971 00000001 598.41 177.87 514.34 713.75 724.75 488.42 939.71 460.07 842.46 616.80 793.25 744.02 957.20 720.24
00000972 00000002 597.72 168.84 512.53 726.78 722.09 486.71 934.32 460.24 835.27 617.18 787.25 744.59 950.01 722.28
00000973 00000003 595.15 158.24 517.58 741.94 718.47 485.61 929.42 461.84 824.37 618.42 780.29 746.40 941.18 725.93
00000974 00000004 598.95 174.54 512.74 729.13 714.82 485.87 920.41 466.77 809.82 621.56 771.67 745.79 930.00 729.45
00000975 00000005 601.38 172.41 507.38 723.63 709.38 489.71 910.53 469.31 799.27 624.58 768.38 748.35 919.73 730.98
00000976 00000006 602.99 169.44 501.34 722.07 707.63 492.12 906.42 471.29 795.95 624.69 764.48 747.90 913.06 730.52
00000977 00000007 600.55 167.00 504.11 726.94 711.98 492.31 911.31 471.75 803.60 624.46 773.05 750.30 917.22 732.98
00000978 00000008 599.34 173.64 503.67 731.21 720.93 489.80 919.63 473.90 818.31 625.29 782.86 751.81 925.24 738.58
00000979 DELETE   603.22 178.74 500.70 733.37 733.02 488.43 929.21 471.70 838.71 620.30 794.80 751.88 939.85 738.30
00000980 00000010 601.58 186.86 510.07 721.55 740.86 489.22 945.07 470.10 852.74 615.07 800.21 746.60 952.89 731.06
00000981 00000011 603.06 180.94 511.72 722.88 745.87 490.77 955.48 464.66 866.99 612.91 809.00 743.18 969.70 721.35
00000982 00000012 603.83 168.62 513.94 728.52 748.45 490.49 957.12 461.76 870.98 610.95 812.55 739.24 973.85 714.77
00000983 00000013 604.97 166.85 514.20 730.47 744.70 488.81 955.36 460.98 865.54 610.19 809.63 739.66 971.89 715.80
00000984 00000014 607.16 166.59 511.73 729.72 738.67 487.09 950.05 463.49 853.45 611.27 799.41 739.70 961.41 719.67
00000985 00000015 605.14 177.71 510.70 721.25 730.07 485.29 942.52 462.58 840.94 613.82 790.71 741.23 951.85 722.26
00000986 00000016 606.40 168.56 508.04 733.06 724.99 483.94 934.21 462.15 829.45 612.99 783.87 741.32 946.11 722.74
00000987 00000017 606.05 169.72 507.28 734.21 723.69 483.22 933.21 462.51 826.90 613.82 780.56 740.61 944.38 722.89
00000988 00000018 604.93 171.08 510.10 727.14 726.46 481.59 938.03 459.13 834.51 611.33 785.55 737.90 950.34 718.93
00000989 00000019 609.87 165.40 510.31 723.82 735.22 483.95 948.78 459.64 849.16 608.25 796.37 734.12 962.06 713.35
00000990 00000020 611.56 165.35 510.89 717.52 739.32 481.94 954.58 455.46 856.49 606.73 805.10 731.68 968.36 709.05
00000991 00000021 612.19 168.94 511.19 714.85 738.64 482.51 951.56 454.62 854.07 604.52 804.95 731.84 965.87 708.20
00000992 00000022 611.86 158.43 509.29 724.73 735.88 482.91 944.51 456.22 846.08 604.21 799.05 730.93 958.78 708.18
00000993 00000023 610.69 165.39 506.86 728.65 730.14 481.50 937.61 455.39 836.19 604.33 789.02 733.76 950.40 711.88
00000994 00000024 609.43 166.28 507.28 728.31 725.70 481.66 934.24 456.17 828.92 605.69 782.99 735.69 946.04 714.07
00000995 00000025 608.86 160.71 507.31 733.81 724.42 480.70 933.28 455.61 827.05 605.23 780.63 736.11 944.10 714.60
00000996 00000026 610.26 165.32 504.36 730.28 727.13 480.09 933.43 454.82 831.25 603.70 783.35 733.63 948.03 712.15
00000997 00000027 609.71 172.82 503.83 719.48 728.11 478.13 935.53 452.10 836.95 602.94 787.24 729.87 953.08 707.64
00000998 00000028 609.53 169.64 504.94 719.36 731.05 480.41 939.25 453.31 840.91 602.21 791.14 729.80 956.13 707.01
00000999 00000029 607.96 166.76 507.15 719.37 731.05 481.30 937.97 453.52 840.83 603.45 793.43 730.51 955.62 706.98
00001000 00000030 605.44 172.71 510.29 717.40 724.13 482.45 934.98 455.10 830.52 606.68 785.32 734.01 948.49 711.20
00001001 00000031 606.46 165.69 507.06 717.76 709.38 493.52 924.83 463.46 816.50 616.82 773.52 745.32 935.99 719.48
00001002 00000032 604.64 165.95 507.80 720.98 703.67 497.58 917.58 467.62 806.00 620.43 767.45 748.87 929.49 723.21
00001003 00000033 602.42 171.11 509.66 715.07 701.27 498.40 914.68 468.99 802.12 623.04 766.42 750.43 927.54 725.05
00001004 00000034 603.16 165.17 509.18 722.92 703.35 500.08 916.94 470.79 805.35 623.29 767.93 751.25 929.99 725.96
00001005 00000035 604.40 162.91 509.37 726.12 705.58 500.62 918.78 470.30 809.38 623.45 771.25 751.46 933.43 725.17
00001006 00000036 605.22 159.95 509.80 730.40 709.55 499.88 925.02 470.86 816.84 622.79 775.74 751.20 938.54 725.86
00001007 00000037 604.83 165.05 508.80 724.89 712.41 500.36 927.49 470.22 821.33 622.90 778.59 750.95 939.96 724.85
00001008 00000038 605.04 159.32 509.88 729.41 708.76 500.51 925.02 471.48 816.40 624.54 775.05 752.10 938.83 726.83
00001009 00000039 603.90 161.96 510.57 730.46 718.56 495.93 922.41 468.98 814.99 616.46 776.60 746.44 935.17 723.47
00001010 00000040 603.08 165.62 507.67 722.07 704.22 501.60 916.06 472.11 806.22 625.02 769.16 751.49 929.26 726.18
00001011 00000041 600.82 160.42 509.67 729.97 704.56 501.93 917.38 472.03 809.25 625.54 770.10 752.16 933.09 726.13
00001012 00000042 600.12 159.68 510.68 733.45 705.28 501.62 919.64 472.41 812.29 626.99 772.20 752.86 936.58 727.22
00001013 00000043 602.70 165.13 509.50 732.87 717.43 497.95 919.59 470.50 814.22 619.38 777.18 749.77 934.36 726.37
00001014 00000044 604.21 181.71 504.37 722.57 715.09 499.79 914.17 474.41 808.17 622.27 773.14 750.70 928.57 729.11
00001015 00000045 602.04 183.32 504.36 720.10 715.21 497.31 913.12 476.51 807.79 625.08 772.89 750.50 926.54 732.72
00001016 00000046 600.59 181.06 507.00 719.72 718.88 496.13 920.38 476.35 816.78 626.96 775.08 749.81 931.58 732.86
00001017 00000047 597.92 176.37 512.17 723.69 718.52 493.96 927.18 472.24 824.47 628.86 778.32 751.52 940.49 733.05
00001018 00000048 595.39 175.50 516.95 727.20 715.31 494.65 930.55 470.02 824.20 631.80 779.51 757.10 940.62 736.36
00001019 00000049 600.16 191.54 513.33 724.22 711.93 499.08 924.21 475.18 813.88 640.58 775.37 767.56 934.56 747.94
00001020 DELETE   601.10 208.87 512.17 709.34 702.47 503.09 915.34 485.41 797.66 652.26 762.87 768.54 927.98 753.54
00001021 DELETE   606.06 207.55 503.20 713.49 695.06 504.71 900.81 494.31 777.46 666.42 752.37 773.34 913.28 764.26
00001022 00000052 607.30 213.07 499.16 717.54 692.64 515.32 895.51 505.69 772.61 674.78 745.27 781.50 905.22 772.78
00001023 00000053 607.54 219.04 502.81 715.89 695.63 519.52 903.72 506.69 780.72 679.99 753.18 787.82 915.80 776.51
00001024 00000054 607.19 224.39 504.17 709.61 702.37 517.69 915.10 499.02 795.47 673.94 764.41 787.45 928.79 771.60
00001025 00000055 606.49 220.09 505.35 708.78 704.13 511.89 919.17 493.10 801.35 667.72 768.62 782.95 932.01 767.09
00001026 00000056 608.94 227.86 504.52 696.74 705.07 505.98 922.62 489.84 801.28 661.94 767.96 778.41 931.26 765.07
00001027 00000057 609.46 229.82 503.30 691.02 705.66 505.28 923.88 488.59 803.22 657.70 767.34 776.17 930.21 762.54
00001028 00000058 610.97 228.65 500.25 686.12 706.54 503.59 922.57 487.37 803.50 654.95 768.16 773.20 928.78 760.07
00001029 00000059 607.98 221.90 502.48 684.33 706.38 503.37 920.43 486.72 802.62 649.93 765.82 766.19 924.71 752.78
00001030 00000060 605.71 201.80 504.27 699.56 706.43 499.86 912.79 481.44 797.70 641.68 764.40 759.65 920.17 744.40
00001031 00000061 604.68 184.22 504.66 715.41 706.89 494.77 911.71 474.84 797.90 633.41 765.04 754.93 920.50 738.17
00001032 00000062 605.82 181.87 506.42 714.90 708.08 490.08 913.55 469.91 800.13 629.31 768.50 752.47 923.72 735.57
00001033 00000063 605.61 177.86 506.08 718.60 708.28 488.02 913.13 468.22 799.44 628.06 767.86 749.75 923.75 732.95
00001034 00000064 604.49 182.52 505.97 711.54 706.37 488.24 910.57 468.66 796.30 627.51 767.94 750.41 919.88 733.92
00001035 00000065 605.12 184.08 505.27 715.23 705.87 485.80 909.99 467.31 793.92 626.01 767.03 751.76 917.69 736.24
00001036 00000066 605.09 183.16 507.61 726.39 708.23 484.29 911.13 466.18 794.56 624.78 768.96 753.00 920.17 737.74
00001037 00000067 603.21 186.55 509.71 719.64 707.06 486.22 912.13 466.35 796.75 626.69 766.35 749.28 924.87 732.16
00001038 00000068 603.29 185.80 508.37 711.21 704.74 487.00 911.68 467.37 796.00 627.82 764.46 749.01 922.78 732.37
00001039 00000069 602.01 181.80 508.82 714.75 705.67 486.47 912.57 466.91 797.98 627.09 765.19 748.14 922.98 731.53
00001040 00000070 602.78 186.24 509.50 708.95 707.42 486.68 915.34 466.17 801.95 628.15 769.07 749.80 924.05 732.82
00001041 00000071 602.37 186.15 510.86 718.06 708.32 484.72 913.27 466.75 799.27 627.47 772.49 752.87 919.35 738.18
00001042 00000072 603.66 180.11 507.23 728.45 707.99 486.83 904.53 469.83 791.19 624.66 769.40 756.75 907.71 743.12
00001043 00000073 605.35 183.01 501.90 725.21 698.45 486.51 894.39 470.37 776.83 629.76 758.24 756.73 900.95 743.27
00001044 00000074 605.86 182.55 496.96 730.86 694.74 486.51 889.42 471.74 769.78 631.88 753.04 756.71 901.96 743.91
00001045 00000075 600.54 182.64 506.06 730.92 695.23 490.25 894.57 472.45 777.26 635.85 757.04 757.66 910.20 742.18
00001046 00000076 601.37 180.09 507.11 728.67 697.72 494.49 900.74 473.51 784.82 638.45 761.76 760.11 919.99 741.82
00001047 00000077 601.13 180.83 507.56 727.21 699.96 496.51 903.30 475.43 788.06 638.73 762.70 759.76 921.80 741.42
00001048 00000078 602.90 176.86 502.67 724.42 697.99 495.46 897.62 476.80 781.09 637.73 759.82 758.18 910.53 742.02
00001049 00000079 604.37 177.32 501.23 724.32 698.49 494.66 898.80 476.70 781.38 636.62 757.98 757.04 908.33 741.72
00001050 00000080 603.21 177.21 503.95 724.08 701.45 493.19 902.60 474.93 787.25 634.11 762.24 755.72 913.45 739.99
00001051 00000081 600.87 178.09 507.68 723.35 702.52 493.05 907.19 471.31 792.87 634.08 766.66 756.77 921.19 738.07
00001052 00000082 602.65 179.32 506.41 721.00 702.77 493.54 905.60 471.87 790.90 632.53 765.95 755.69 918.50 737.13
00001053 00000083 603.41 172.98 503.65 726.20 698.58 493.61 897.86 472.80 782.42 633.84 761.55 756.31 909.21 738.31
00001054 00000084 602.61 182.36 501.84 716.34 696.10 491.51 895.31 473.83 779.26 634.37 758.38 754.83 904.70 739.64
00001055 00000085 601.90 179.51 502.85 716.95 696.65 493.03 896.32 471.10 781.82 631.92 760.80 755.79 907.52 737.18
00001056 00000086 601.67 181.25 504.35 714.27 702.21 492.61 905.32 469.96 792.87 630.92 767.25 756.53 916.36 737.28
00001057 00000087 599.59 177.50 511.93 720.44 707.23 491.58 913.78 468.16 801.69 629.02 772.00 754.92 926.76 734.84
00001058 00000088 602.10 178.19 511.03 720.64 708.58 490.58 913.22 469.11 799.70 628.67 771.63 753.74 924.25 735.27
00001059 00000089 605.49 176.53 506.75 721.16 706.38 489.33 905.19 470.00 790.28 627.79 767.43 752.84 912.39 736.40
00001060 00000090 607.62 177.89 503.42 719.99 702.40 488.36 899.70 470.59 783.73 627.51 763.16 752.57 905.66 737.57
00001061 00000091 606.58 176.05 505.65 725.83 706.37 487.07 904.69 469.86 789.23 626.82 767.27 753.31 910.33 738.73
00001062 00000092 605.14 180.10 509.82 723.21 709.01 488.19 911.31 468.79 796.32 627.63 769.63 753.48 920.27 736.99
00001063 00000093 605.65 180.72 510.42 722.64 709.09 488.24 911.88 468.87 796.40 627.43 769.79 753.22 921.08 736.72
00001064 00000094 608.53 182.97 504.73 718.18 708.62 487.38 907.67 470.32 791.65 627.87 767.94 752.13 914.22 737.77
00001065 00000095 608.73 175.35 504.03 725.98 708.96 485.27 908.16 469.61 791.38 626.19 766.96 750.79 912.07 737.51
00001066 00000096 607.96 177.22 508.74 718.58 709.81 484.20 911.74 467.01 796.18 624.61 769.27 749.65 916.92 735.01
00001067 00000097 607.06 175.50 510.43 719.30 709.45 483.92 911.01 466.10 795.96 624.33 771.49 750.12 916.58 735.10
00001068 00000098 609.24 173.54 504.89 724.38 707.96 485.32 907.36 468.91 790.99 625.26 767.18 751.66 910.16 737.84
00001069 00000099 608.91 177.65 504.93 720.04 707.43 484.29 905.66 468.47 790.17 625.30 768.12 750.94 908.91 737.68
00001070 00000100 608.48 166.94 508.49 740.83 712.11 482.15 913.82 466.19 796.23 623.39 768.81 751.95 920.10 738.28
00001071 00000101 607.46 163.57 506.81 743.33 715.95 488.61 914.12 471.16 801.08 623.79 769.94 746.55 927.16 731.03
00001072 00000102 608.29 163.53 504.58 737.71 712.01 488.39 911.06 471.34 796.17 624.67 767.52 746.43 926.17 730.83
00001073 00000103 611.20 184.32 499.38 717.62 705.40 487.49 899.47 473.13 781.00 626.14 760.46 745.11 913.61 731.75
00001074 00000104 610.64 162.44 494.92 739.12 702.76 490.41 892.91 477.08 773.54 624.11 753.10 745.69 901.14 733.54
00001075 00000105 609.05 168.94 493.94 727.42 696.18 489.56 889.05 477.99 767.34 626.47 748.08 746.49 894.35 736.19
00001076 00000106 606.35 174.50 495.25 717.52 693.18 490.07 886.74 476.85 766.57 626.29 748.30 746.59 894.47 734.98
00001077 00000107 602.68 170.05 499.70 730.01 696.41 487.46 890.97 471.98 772.99 624.06 753.50 747.99 900.99 734.29
00001078 00000108 600.70 166.80 503.81 731.53 699.24 490.43 894.99 470.14 779.86 624.13 760.25 749.03 907.29 731.25
00001079 00000109 602.17 169.33 501.59 725.33 696.89 489.86 893.35 470.73 776.92 624.78 756.93 748.38 904.41 731.70
00001080 00000110 604.74 177.14 496.43 709.53 688.62 487.49 888.29 474.99 764.76 625.19 742.22 742.86 893.96 731.88
00001081 00000111 603.71 176.25 494.01 710.44 685.79 486.22 883.65 475.29 758.88 624.41 737.10 740.70 887.88 731.10
00001082 00000112 602.28 171.23 496.95 718.82 690.34 488.07 889.19 474.06 767.72 624.65 744.42 743.40 896.48 731.03
00001083 00000113 601.33 162.75 498.21 731.27 698.00 491.89 895.32 471.94 780.53 625.80 756.59 747.82 905.16 730.46
00001084 00000114 600.13 164.37 502.20 727.09 699.98 493.40 897.96 471.43 784.46 625.78 760.22 747.58 908.74 728.55
00001085 00000115 602.77 164.25 500.86 733.32 698.97 489.63 893.36 470.02 777.90 623.36 758.44 747.87 905.60 730.71
00001086 00000116 602.18 174.48 500.81 726.15 692.44 484.01 888.26 469.68 766.85 623.73 747.81 745.35 899.36 732.64
00001087 00000117 602.44 171.84 498.73 723.48 689.86 481.14 888.57 467.85 765.64 623.69 744.94 743.03 897.14 731.12
00001088 00000118 603.76 176.36 497.64 716.32 691.28 480.31 889.85 465.72 769.22 624.18 748.18 743.89 898.76 731.13
00001089 00000119 603.22 177.82 498.58 719.29 691.34 481.15 891.69 465.64 770.59 624.96 749.11 745.90 900.97 732.45
00001090 00000120 604.51 185.03 495.99 710.34 689.15 482.08 890.47 467.60 767.75 625.65 745.83 745.48 898.16 733.00
00001091 00000121 603.37 171.54 498.05 723.96 693.37 481.11 892.61 464.83 774.17 623.97 751.31 745.95 901.49 731.85
00001092 00000122 602.13 177.38 504.70 724.05 695.88 480.36 897.68 462.07 780.07 625.12 757.10 749.15 908.69 733.35
00001093 00000123 603.20 184.95 508.69 721.81 699.01 479.95 899.96 461.17 781.09 625.06 761.71 749.72 913.17 733.40
00001094 00000124 604.09 174.27 505.39 738.44 699.41 481.32 894.91 462.38 777.44 624.77 759.72 750.18 911.57 733.58
00001095 00000125 605.01 167.19 503.25 742.16 699.23 481.86 893.66 463.60 776.26 624.74 758.60 749.67 908.86 733.59
00001096 00000126 602.62 176.74 507.29 727.54 697.43 480.66 898.83 462.69 780.10 624.77 757.45 748.70 909.20 733.12
00001097 00000127 601.73 177.26 512.18 721.93 700.16 479.35 904.21 460.82 784.81 622.00 760.39 745.37 912.84 729.33
00001098 00000128 602.21 175.13 511.27 719.00 699.43 477.70 903.67 459.29 784.97 621.09 760.59 744.45 910.92 728.69
00001099 00000129 604.16 170.96 508.36 721.67 696.60 476.90 898.04 460.37 778.79 622.64 756.76 744.80 904.51 730.60
00001100 00000130 608.26 167.75 498.61 721.18 687.75 477.93 892.86 462.64 768.94 629.70 745.82 747.36 901.15 734.18
00001101 00000131 607.80 166.85 493.94 719.79 697.56 488.48 892.69 471.86 777.44 624.33 754.06 746.99 900.13 732.59
00001102 00000132 603.98 180.54 496.59 708.98 697.73 487.71 892.62 468.64 780.91 624.80 758.00 748.28 905.25 731.67
00001103 00000133 601.71 168.02 499.40 720.74 699.32 490.96 896.38 469.82 784.06 623.95 760.19 748.36 906.10 730.20
00001104 00000134 603.25 164.77 497.94 731.59 699.06 492.90 894.34 472.09 780.67 622.26 758.74 751.68 901.20 734.02
00001105 00000135 602.56 164.71 501.02 741.93 698.10 487.94 891.40 469.94 776.39 622.22 758.12 754.77 900.34 739.38
00001106 00000136 604.25 162.41 499.62 750.75 699.09 485.64 891.14 468.51 774.89 620.67 756.98 754.30 901.68 739.54
00001107 00000137 602.70 168.10 501.96 729.47 697.99 489.47 893.92 469.24 778.35 621.07 757.63 749.37 903.10 731.84
00001108 00000138 603.63 165.89 502.45 724.21 700.18 490.30 899.70 467.93 785.01 621.73 759.63 745.74 907.71 726.63
00001109 00000139 603.87 159.59 503.64 727.05 691.89 494.03 898.82 468.52 782.02 628.72 753.80 750.11 910.62 728.01
00001110 00000140 605.08 161.39 504.63 728.85 692.87 493.74 899.19 469.00 781.19 627.52 754.75 752.71 908.24 731.50
00001111 00000141 608.33 160.51 501.44 734.43 703.22 489.83 899.02 469.87 783.46 620.94 761.54 749.16 903.64 732.34
00001112 00000142 609.02 173.32 497.81 719.18 701.12 491.82 896.11 473.26 779.48 622.58 757.79 747.91 903.04 732.06
00001113 00000143 606.55 170.52 498.36 723.67 699.94 493.25 894.51 472.63 779.47 622.03 758.51 750.71 901.08 733.23
00001114 00000144 605.36 166.27 498.66 729.37 701.13 492.91 895.01 471.69 781.07 621.30 760.64 751.31 902.39 733.26
00001115 00000145 604.65 161.60 498.01 733.65 700.58 492.68 893.91 470.18 781.53 620.37 761.29 751.29 902.71 732.17
00001116 00000146 605.75 163.17 497.62 730.59 698.77 491.08 893.09 470.00 778.62 620.02 759.14 750.56 900.68 732.57
00001117 00000147 605.12 163.09 498.07 729.69 698.44 491.02 892.51 470.08 778.07 619.72 759.15 750.63 900.06 732.65
00001118 00000148 604.63 160.66 497.39 731.78 700.69 493.89 893.37 471.82 781.36 620.15 761.04 751.18 901.37 732.40
00001119 00000149 603.86 164.37 501.87 734.86 702.62 493.07 896.05 470.58 784.07 622.05 763.38 752.98 907.10 733.82
00001120 00000150 602.26 160.95 505.00 738.06 702.73 491.88 899.12 466.76 786.91 621.23 764.76 750.54 915.03 728.83
00001121 00000151 603.09 161.64 503.60 737.93 700.55 490.10 896.35 467.27 782.58 622.43 761.42 748.76 912.58 728.71
00001122 00000152 604.93 168.88 500.59 733.97 698.12 487.84 893.88 469.06 775.73 621.89 754.49 744.80 907.47 728.10
00001123 00000153 602.43 164.84 500.51 736.41 696.93 487.44 889.86 472.18 770.71 621.41 748.26 739.52 903.28 725.72
00001124 00000154 599.36 171.53 504.85 737.60 693.58 489.52 889.14 474.07 766.83 625.18 741.31 733.16 914.20 718.26
00001125 00000155 596.82 171.06 505.02 747.40 693.48 490.74 889.99 474.16 769.28 628.45 741.02 735.11 922.40 718.96
00001126 00000156 596.98 175.55 503.41 746.91 689.57 491.56 888.43 477.12 762.43 631.82 734.16 735.94 920.55 721.61
00001127 00000157 598.44 190.53 496.90 732.51 687.22 493.78 883.11 484.53 754.21 636.10 727.86 735.35 913.42 725.32
CROP_BBOX: 278 0 1453 1080
