Video ID: 	d5nr2VnTIAA
H: 	1080
W: 	1920
FPS: 	29.97002997002997

FRAME INDEX X0 Y0 W H [Landmarks (5 Points)]

00002331 00000000 913.84 113.12 406.83 609.15 1005.25 350.81 1203.81 367.77 1083.88 480.13 1001.52 545.65 1194.05 559.51
00002332 00000001 910.60 116.44 406.63 604.77 1002.72 352.88 1201.64 369.87 1082.57 480.59 999.19 545.94 1192.17 559.76
00002333 00000002 907.59 114.26 406.39 605.77 1000.52 352.30 1199.01 368.93 1081.16 479.26 997.41 545.59 1189.15 558.98
00002334 00000003 905.79 113.51 406.48 606.98 997.59 350.98 1196.91 368.37 1078.09 479.32 993.29 544.82 1187.54 558.75
00002335 00000004 903.76 112.33 408.18 607.94 995.78 349.24 1195.44 367.05 1076.22 478.97 991.71 544.80 1185.10 558.96
00002336 00000005 902.05 111.21 407.24 609.38 994.96 349.71 1195.05 367.76 1076.14 478.75 990.54 545.07 1184.55 559.34
00002337 DELETE   901.43 111.36 406.84 611.26 994.69 349.93 1195.82 368.94 1075.60 479.37 989.49 546.81 1183.74 561.96
00002338 00000007 901.33 111.82 406.04 614.33 995.29 351.69 1195.06 371.30 1076.21 480.28 989.16 548.70 1182.96 564.27
00002339 DELETE   900.70 117.03 404.86 612.75 996.63 355.02 1194.45 373.83 1078.36 482.01 991.85 551.40 1183.48 566.47
00002340 DELETE   899.13 120.65 405.74 613.95 996.47 360.62 1195.10 376.31 1080.03 484.11 992.85 555.72 1186.46 568.46
00002341 00000010 901.60 119.15 405.32 617.79 997.76 363.01 1196.90 378.08 1080.59 485.62 994.35 558.09 1188.12 570.31
00002342 00000011 903.26 120.43 405.58 616.99 999.54 362.78 1198.66 377.78 1082.46 486.34 996.23 558.14 1189.67 570.30
00002343 00000012 904.09 120.58 405.90 618.08 1001.06 361.96 1199.34 376.69 1084.03 486.32 997.83 557.58 1191.17 569.50
00002344 00000013 905.49 121.61 405.90 616.16 1002.71 360.84 1200.96 375.50 1085.67 485.78 999.25 557.05 1191.41 569.12
00002345 00000014 906.22 120.87 407.32 614.73 1005.14 357.05 1203.60 373.45 1087.68 483.55 1000.80 554.84 1191.77 568.48
00002346 00000015 908.21 119.10 406.99 612.40 1007.72 352.71 1206.52 370.93 1090.21 481.99 1001.92 550.97 1193.40 566.27
00002347 00000016 910.48 117.71 406.35 610.87 1011.60 348.81 1210.42 368.53 1094.57 480.28 1004.65 547.60 1196.40 564.09
00002348 00000017 919.88 137.97 399.16 594.23 1018.10 352.62 1208.52 374.93 1097.48 475.83 1008.25 543.68 1195.50 561.18
00002349 00000018 921.18 138.26 400.04 593.92 1020.88 352.45 1212.01 376.52 1099.96 476.20 1009.13 543.71 1197.89 562.75
00002350 00000019 921.39 135.88 400.98 600.02 1022.11 354.26 1214.66 378.26 1102.00 477.68 1010.83 546.71 1200.53 565.65
00002351 00000020 921.32 136.88 401.69 602.10 1021.71 357.23 1215.50 379.53 1102.66 478.84 1010.97 550.18 1201.40 567.77
00002352 00000021 915.76 153.55 490.63 737.35 1060.88 441.69 1295.11 462.40 1177.84 597.52 1056.37 711.59 1236.38 730.39
00002353 00000022 916.78 150.52 489.62 735.36 1059.77 438.57 1294.86 458.62 1177.96 595.30 1057.47 709.00 1237.38 727.35
00002354 00000023 917.64 143.49 485.27 727.24 1059.59 432.99 1295.63 453.26 1180.76 585.15 1056.89 698.84 1237.85 717.07
00002355 00000024 915.59 138.66 482.19 722.92 1057.42 427.93 1295.24 448.32 1180.90 576.72 1052.71 689.61 1237.86 707.70
00002356 00000025 912.24 139.09 483.13 717.55 1054.07 426.66 1294.16 445.98 1178.94 575.97 1050.05 686.95 1237.89 704.34
00002357 00000026 910.78 140.16 481.72 715.35 1049.39 426.94 1291.82 445.64 1174.98 579.31 1047.75 688.74 1236.03 705.72
00002358 00000027 907.52 145.56 480.86 707.53 1043.89 431.99 1279.96 453.21 1162.53 584.24 1049.20 695.44 1229.95 712.53
00002359 00000028 906.71 147.42 481.46 708.16 1041.77 434.08 1278.75 455.93 1158.94 586.67 1047.31 699.01 1227.25 716.71
00002360 00000029 905.25 146.59 483.16 715.25 1041.22 432.44 1277.77 456.40 1156.61 587.04 1043.58 698.63 1225.76 718.08
00002361 00000030 904.77 145.22 483.56 718.25 1039.30 429.69 1275.41 454.19 1154.11 584.46 1041.76 698.03 1223.71 718.08
00002362 00000031 903.32 145.43 481.97 711.62 1036.91 429.08 1273.67 452.30 1153.46 581.28 1042.13 695.71 1223.11 714.73
00002363 00000032 902.36 144.67 481.66 711.64 1035.21 428.75 1272.83 451.84 1151.84 579.28 1039.41 694.35 1221.28 713.34
00002364 00000033 900.37 145.09 483.54 714.93 1032.35 429.29 1271.49 453.47 1147.57 581.71 1034.87 695.39 1219.75 715.32
00002365 00000034 898.98 146.34 485.27 719.14 1031.18 430.08 1270.91 456.15 1144.71 585.71 1031.61 697.99 1218.29 719.54
00002366 00000035 898.17 148.46 488.97 730.50 1029.56 431.40 1270.56 459.50 1141.95 589.16 1027.40 704.05 1217.66 727.62
00002367 00000036 898.08 150.09 490.84 740.66 1029.38 431.81 1273.00 462.78 1140.57 592.57 1025.15 711.75 1217.74 737.94
00002368 00000037 900.33 155.91 494.86 742.08 1034.37 437.56 1275.86 472.05 1144.25 600.87 1019.68 716.34 1211.31 746.38
00002369 00000038 893.36 164.70 496.80 727.44 1026.71 435.44 1273.86 472.11 1140.29 600.50 1015.82 718.58 1204.92 749.87
00002370 00000039 889.63 166.28 495.94 722.77 1022.87 435.02 1267.12 473.98 1130.99 601.41 1012.97 709.53 1202.32 742.21
00002371 00000040 888.88 160.18 493.57 732.50 1020.20 434.90 1263.35 472.34 1121.94 597.90 1009.30 708.41 1201.61 739.74
00002372 00000041 887.37 154.41 494.21 737.21 1015.41 433.07 1261.98 471.01 1115.92 597.25 1003.15 707.84 1199.15 739.71
00002373 00000042 889.89 155.68 490.15 726.09 1011.90 430.86 1259.87 468.42 1110.95 597.85 1002.85 708.61 1195.01 740.49
00002374 00000043 892.45 151.42 489.99 730.98 1012.85 430.39 1259.70 465.98 1112.24 596.52 1006.99 709.79 1195.99 739.98
00002375 00000044 894.35 149.99 488.75 733.48 1016.06 430.31 1259.43 462.84 1116.59 592.66 1013.53 709.59 1196.75 736.92
00002376 00000045 888.71 156.30 495.95 720.26 1017.59 427.74 1260.81 458.39 1121.33 593.11 1016.75 710.00 1187.80 735.51
00002377 00000046 889.36 157.98 494.16 722.52 1019.20 428.53 1260.81 460.99 1122.08 595.36 1016.99 711.55 1185.72 738.66
00002378 00000047 889.12 159.88 493.62 720.31 1018.90 429.47 1260.33 463.01 1121.02 597.06 1015.83 711.10 1186.10 739.09
00002379 00000048 886.61 160.85 494.86 718.02 1017.04 429.82 1259.93 462.52 1121.52 595.95 1014.51 708.46 1190.12 735.61
00002380 00000049 885.29 155.11 496.93 724.31 1014.74 429.66 1260.35 461.24 1121.41 595.37 1012.22 708.11 1194.64 734.31
00002381 00000050 892.02 151.63 484.40 728.33 1011.80 438.67 1256.32 468.04 1113.74 594.89 1008.04 710.14 1197.56 735.14
00002382 00000051 892.82 149.55 480.08 728.89 1010.29 444.38 1255.61 471.49 1112.56 596.58 1006.60 710.86 1200.09 734.02
00002383 00000052 891.31 149.51 480.54 731.78 1011.77 445.01 1255.38 472.59 1114.89 597.59 1008.29 710.77 1200.70 734.25
00002384 00000053 891.20 151.64 481.25 727.39 1012.58 446.18 1257.32 473.06 1116.67 597.67 1009.06 709.84 1201.82 732.47
00002385 00000054 896.32 153.65 475.06 709.12 1014.45 445.98 1259.48 471.79 1119.29 598.39 1013.98 709.12 1199.10 730.90
00002386 00000055 898.34 151.74 475.12 710.60 1016.57 444.24 1258.98 469.07 1121.71 596.95 1020.30 711.95 1197.39 733.00
00002387 00000056 897.78 150.93 476.89 710.25 1017.13 444.05 1259.42 468.35 1122.90 596.04 1021.74 711.72 1197.74 732.38
00002388 00000057 896.00 150.30 481.12 709.91 1018.27 444.03 1261.85 467.63 1125.66 595.88 1022.62 710.49 1200.81 730.59
00002389 00000058 895.75 150.15 482.65 710.39 1018.08 445.12 1262.85 468.10 1126.43 596.33 1022.83 711.39 1202.64 730.98
00002390 00000059 895.13 152.16 482.58 709.78 1017.71 447.89 1263.27 470.86 1125.97 599.53 1020.60 712.59 1203.87 732.28
00002391 00000060 895.37 156.58 480.19 705.43 1018.21 452.17 1263.93 476.34 1126.43 601.56 1019.11 713.48 1204.86 733.99
00002392 00000061 895.61 159.32 479.59 702.93 1019.21 455.09 1264.32 477.76 1128.20 605.08 1020.35 714.52 1207.40 733.67
00002393 00000062 895.46 160.57 480.39 702.15 1020.10 456.03 1264.91 478.40 1129.09 605.06 1021.19 714.38 1208.70 733.19
00002394 00000063 896.63 160.46 479.20 701.28 1020.74 456.43 1265.49 478.86 1130.11 605.42 1021.02 713.20 1210.02 731.98
00002395 00000064 896.58 161.23 480.73 699.86 1021.59 456.62 1266.84 479.58 1130.64 604.83 1020.16 711.54 1211.20 730.68
00002396 00000065 897.15 161.13 480.29 700.03 1021.70 456.26 1266.93 479.88 1130.01 604.80 1020.36 711.62 1211.27 731.26
00002397 00000066 897.48 161.43 479.81 699.81 1022.08 456.69 1266.09 480.96 1129.66 605.57 1022.39 714.09 1208.38 734.44
00002398 00000067 896.90 160.61 480.74 701.47 1020.86 457.22 1265.51 480.52 1129.07 607.04 1022.68 714.93 1209.59 734.49
00002399 00000068 896.22 162.37 480.60 699.78 1020.11 457.96 1264.60 481.67 1128.49 608.65 1022.50 714.87 1209.85 734.62
00002400 00000069 895.69 162.26 480.16 698.70 1019.11 458.55 1264.06 482.33 1127.17 609.71 1021.27 715.42 1208.22 735.27
00002401 00000070 894.50 162.56 479.39 698.49 1017.65 458.74 1261.77 482.05 1125.51 609.56 1020.08 715.30 1206.59 734.86
00002402 00000071 892.59 161.56 478.30 699.89 1016.22 458.42 1260.69 481.55 1124.72 609.69 1018.23 715.07 1205.56 734.59
00002403 00000072 891.64 160.97 477.97 701.02 1015.11 457.74 1258.56 480.78 1123.52 609.23 1016.88 714.87 1203.55 734.40
00002404 00000073 891.08 160.35 477.50 702.12 1013.33 456.63 1256.81 479.92 1121.12 609.38 1014.71 714.51 1201.81 734.35
00002405 00000074 889.14 157.52 479.04 706.00 1011.62 455.65 1255.49 478.55 1119.65 607.44 1013.21 713.91 1201.27 733.55
00002406 00000075 887.28 157.21 479.70 706.90 1010.57 455.01 1252.91 477.68 1118.67 606.91 1011.97 713.41 1199.07 732.92
00002407 00000076 885.85 156.98 480.94 707.63 1009.92 454.93 1252.37 478.02 1117.91 606.32 1010.40 713.08 1197.40 733.02
00002408 00000077 886.47 157.90 478.82 706.47 1007.79 454.14 1250.75 477.87 1114.87 606.54 1008.49 714.41 1195.18 735.01
00002409 00000078 885.33 156.44 480.70 708.11 1006.77 453.60 1250.47 477.81 1113.69 606.35 1006.30 713.81 1194.04 734.87
00002410 00000079 885.67 155.34 481.01 709.33 1006.02 453.22 1250.64 478.16 1112.20 605.58 1004.72 713.65 1193.27 735.38
00002411 00000080 886.11 155.68 478.93 708.22 1006.38 453.85 1250.38 478.31 1112.79 606.37 1005.47 713.19 1194.38 734.48
00002412 00000081 886.99 158.24 479.92 705.11 1008.88 454.85 1252.27 479.71 1114.36 606.53 1008.73 714.66 1195.52 736.38
00002413 00000082 887.82 159.23 479.00 705.23 1010.04 456.55 1252.83 480.60 1116.25 607.98 1010.31 715.09 1198.32 736.02
00002414 00000083 887.53 159.66 480.23 705.44 1011.27 457.24 1253.67 480.79 1118.20 607.92 1012.29 715.90 1198.57 736.45
00002415 00000084 886.61 159.42 481.70 705.80 1011.79 457.36 1253.82 481.29 1118.54 607.81 1012.19 715.46 1198.03 736.34
00002416 00000085 884.87 159.16 481.74 705.79 1010.43 458.78 1252.00 482.84 1117.93 610.06 1010.78 715.60 1196.71 736.64
00002417 00000086 881.66 162.48 482.17 702.69 1008.05 459.44 1249.17 484.02 1115.48 613.52 1007.74 714.94 1194.08 736.56
00002418 00000087 880.90 161.29 479.86 703.98 1006.58 460.39 1246.14 485.35 1112.59 614.27 1005.80 715.15 1190.97 737.15
00002419 00000088 878.45 161.61 479.88 703.88 1004.70 460.05 1243.51 484.74 1110.61 612.98 1003.77 713.85 1188.94 735.69
00002420 00000089 877.19 161.74 481.38 703.48 1003.83 460.35 1242.98 484.54 1110.24 612.92 1003.54 713.68 1188.83 735.12
00002421 00000090 876.41 160.30 480.95 705.74 1003.62 460.59 1242.38 483.94 1110.91 612.55 1003.43 713.22 1189.29 733.96
00002422 00000091 877.03 160.25 482.50 706.13 1004.25 460.33 1243.03 484.17 1110.70 612.52 1004.41 713.60 1189.69 734.68
00002423 00000092 877.29 160.19 482.66 706.00 1003.81 459.38 1243.22 482.23 1110.52 611.93 1004.43 712.90 1191.30 733.15
00002424 00000093 878.78 158.09 481.28 706.50 1003.57 458.94 1243.99 481.14 1110.73 610.57 1004.04 712.03 1191.82 731.61
00002425 00000094 877.84 157.95 483.15 706.03 1002.48 459.35 1243.53 481.19 1109.21 610.04 1002.53 711.40 1191.30 730.64
00002426 00000095 876.71 157.34 484.04 708.70 1001.81 457.14 1242.62 479.85 1107.92 607.95 1001.12 711.24 1189.37 731.28
00002427 00000096 877.21 156.05 484.26 709.67 999.59 456.22 1242.21 478.33 1105.31 605.96 999.40 711.49 1188.59 731.08
00002428 00000097 875.80 155.63 485.91 710.16 997.85 456.67 1240.80 478.12 1103.72 606.21 997.52 711.82 1186.36 730.97
00002429 00000098 875.78 156.83 483.77 708.30 998.30 459.02 1239.28 479.84 1104.02 609.20 999.24 713.15 1184.58 731.75
00002430 00000099 875.37 156.16 481.85 706.97 996.06 457.39 1236.67 479.60 1100.76 607.29 996.61 713.24 1177.00 733.25
00002431 00000100 874.85 155.52 480.48 708.04 993.73 454.59 1234.52 477.82 1098.30 604.94 993.31 712.15 1172.32 733.13
00002432 00000101 873.58 153.39 483.02 711.93 992.35 452.48 1233.26 477.03 1095.64 602.78 990.49 711.69 1168.77 733.86
00002433 00000102 873.61 153.24 482.62 711.78 991.61 451.52 1232.99 477.06 1094.72 602.64 989.25 711.23 1168.50 734.15
00002434 00000103 873.69 152.93 481.82 712.48 991.39 451.46 1232.90 477.01 1094.31 602.04 988.26 711.10 1169.01 733.97
00002435 00000104 871.89 151.45 484.93 713.68 990.38 449.38 1233.87 475.20 1094.37 601.08 986.45 709.39 1170.63 732.47
00002436 00000105 872.08 151.26 485.14 713.13 990.05 449.95 1234.55 475.55 1094.80 601.67 986.22 709.18 1172.78 731.99
00002437 00000106 873.15 152.20 484.24 712.72 990.58 451.44 1235.05 476.63 1094.72 603.10 985.92 709.70 1173.96 732.19
00002438 00000107 873.89 153.54 482.63 711.25 990.32 453.30 1234.20 477.38 1094.73 603.55 987.67 711.84 1174.08 733.37
00002439 00000108 874.42 152.65 481.82 712.03 990.94 452.74 1233.72 477.63 1094.80 603.13 987.39 711.08 1173.01 733.26
00002440 00000109 877.83 151.83 482.18 712.42 994.57 453.42 1238.38 478.91 1097.40 603.34 990.08 712.35 1176.11 735.05
00002441 00000110 881.01 152.02 481.20 712.03 995.87 453.30 1241.46 478.56 1098.34 603.02 991.77 713.90 1179.30 736.25
00002442 00000111 883.30 153.39 481.86 710.35 998.81 451.37 1243.73 477.97 1099.76 602.10 994.72 713.11 1181.15 736.42
00002443 00000112 885.04 152.55 482.82 711.99 999.97 450.31 1244.75 478.24 1099.41 602.05 995.72 712.51 1182.67 736.82
00002444 00000113 885.46 152.12 483.39 713.53 999.75 447.50 1244.23 477.90 1097.58 600.97 994.73 711.68 1180.73 737.92
00002445 00000114 885.23 153.32 480.51 712.17 997.13 446.97 1241.06 478.28 1092.60 599.87 990.86 711.18 1176.37 738.16
00002446 00000115 877.52 146.97 474.98 722.00 989.62 443.97 1228.68 476.41 1085.44 594.67 982.55 707.38 1162.60 735.42
00002447 00000116 861.23 139.11 481.01 725.28 977.13 443.92 1223.09 474.94 1077.23 586.93 970.04 702.30 1158.02 729.54
00002448 00000117 857.27 137.95 485.81 726.05 968.10 437.40 1215.35 476.39 1058.26 584.51 955.60 699.89 1144.07 733.69
00002449 00000118 853.20 133.87 488.61 729.21 959.02 434.19 1200.64 475.94 1036.62 583.58 945.44 697.51 1130.21 733.12
00002450 00000119 860.27 139.37 482.19 725.26 956.22 423.83 1188.60 475.13 1028.14 592.35 943.23 694.32 1121.06 738.24
00002451 00000120 857.04 140.72 483.94 722.21 952.54 424.21 1184.74 476.14 1023.46 594.00 939.47 693.25 1117.71 737.62
00002452 00000121 853.95 138.98 487.18 721.65 949.16 423.38 1182.20 474.40 1019.61 592.51 936.21 689.80 1116.59 733.42
00002453 00000122 853.74 140.92 487.21 724.89 944.99 423.10 1179.98 472.61 1015.82 594.01 935.50 695.72 1114.21 738.39
00002454 00000123 852.82 144.39 486.75 720.58 943.50 425.74 1179.05 475.22 1014.81 595.67 933.69 700.04 1110.15 742.55
00002455 00000124 850.55 146.66 486.00 717.52 943.26 429.38 1179.60 477.83 1017.32 597.86 934.17 700.89 1112.03 742.42
00002456 00000125 848.60 148.42 489.43 715.76 942.34 430.60 1178.18 476.58 1015.99 597.23 935.06 701.50 1112.32 740.85
00002457 00000126 842.37 151.73 488.40 715.58 932.81 430.60 1175.43 472.89 1004.99 598.16 926.50 704.49 1112.00 739.00
00002458 00000127 841.33 152.04 487.92 714.65 931.84 430.44 1174.49 472.56 1004.08 596.69 924.89 704.51 1110.01 738.98
00002459 00000128 841.89 150.56 485.53 716.74 932.16 431.85 1175.17 472.87 1006.70 597.57 925.68 705.42 1111.97 738.87
00002460 00000129 843.92 152.47 484.76 715.69 934.54 432.65 1177.67 472.49 1010.96 599.43 930.36 706.38 1117.47 738.49
00002461 00000130 850.85 148.77 484.03 719.84 944.26 432.85 1182.77 474.40 1026.01 598.27 940.62 703.16 1122.93 738.77
00002462 00000131 851.89 148.05 486.42 720.52 945.58 432.80 1184.52 474.70 1027.69 598.82 942.67 703.72 1124.77 739.58
00002463 00000132 853.82 147.25 484.14 718.77 946.78 432.84 1184.85 474.98 1029.38 599.49 944.39 704.54 1124.07 740.69
00002464 00000133 853.52 147.98 485.60 717.25 946.05 432.78 1184.32 476.00 1027.42 599.89 942.58 704.50 1123.14 741.55
00002465 00000134 852.97 147.53 485.59 718.44 945.74 432.62 1184.05 476.84 1026.09 599.94 940.81 704.37 1121.49 742.29
00002466 00000135 852.93 149.14 485.14 716.84 946.38 432.37 1183.71 476.83 1026.57 600.60 941.64 704.38 1120.63 742.50
00002467 00000136 853.64 149.03 485.47 717.37 946.77 432.21 1184.86 476.76 1027.10 601.09 941.82 704.61 1121.69 742.79
00002468 00000137 854.59 148.62 484.83 717.71 946.53 431.41 1184.21 475.06 1026.15 600.72 942.75 705.07 1121.95 742.62
00002469 00000138 854.46 149.27 484.11 717.68 946.14 431.84 1183.91 474.92 1026.35 600.84 942.90 705.22 1122.50 742.16
00002470 00000139 854.06 147.76 482.97 719.05 946.33 432.93 1183.78 475.07 1027.43 600.80 943.42 705.37 1123.35 741.52
00002471 00000140 853.41 150.51 485.20 717.17 945.87 432.89 1184.08 474.72 1027.30 601.57 943.49 705.57 1123.95 741.39
00002472 00000141 853.62 150.71 486.53 716.07 945.73 432.96 1184.37 474.64 1027.10 601.55 943.89 705.70 1124.68 741.38
00002473 00000142 853.17 151.01 485.76 714.44 945.59 432.98 1184.21 474.62 1027.40 601.26 943.72 705.23 1123.72 740.91
00002474 00000143 853.58 151.82 487.60 713.50 945.91 432.99 1184.80 474.53 1028.04 601.71 944.34 705.60 1124.48 741.16
00002475 00000144 853.25 153.15 488.31 713.17 946.81 433.60 1184.98 475.24 1028.47 601.24 944.94 704.75 1124.97 740.37
CROP_BBOX: 529 0 1662 1059
