Video ID: 	RMncFUvDY9w
H: 	1080
W: 	1920
FPS: 	29.97002997002997

FRAME INDEX X0 Y0 W H [Landmarks (5 Points)]

00004477 00000000 791.90 137.35 370.12 543.29 828.40 353.62 981.30 371.51 846.43 446.76 832.54 548.57 941.49 562.49
00004478 00000001 792.64 129.20 366.10 547.71 828.89 350.36 979.18 370.17 842.61 442.94 832.28 544.16 939.79 559.55
00004479 DELETE   796.28 128.04 359.32 546.66 831.01 351.74 979.99 375.23 840.68 441.62 831.20 541.46 938.12 559.62
00004480 00000003 792.43 140.88 358.81 537.17 825.10 358.29 976.95 383.34 839.01 449.66 825.75 544.63 935.92 564.00
00004481 00000004 792.66 150.45 357.53 530.47 826.42 359.40 978.43 388.24 837.58 454.70 822.52 547.44 933.43 569.92
00004482 DELETE   791.04 150.48 361.64 532.35 826.37 362.47 975.79 390.88 837.41 457.32 819.96 550.43 930.07 572.51
00004483 00000006 787.93 149.34 363.06 531.98 824.15 357.67 976.24 386.45 837.20 453.87 818.35 547.51 930.15 570.05
00004484 00000007 788.55 145.10 362.58 534.22 823.84 355.45 975.88 381.08 836.76 448.13 820.21 545.44 930.83 565.52
00004485 00000008 786.98 141.66 366.13 534.66 823.97 354.19 975.06 377.45 837.10 444.66 821.35 543.25 932.05 561.47
00004486 00000009 785.96 139.76 363.14 535.02 822.37 353.13 973.18 377.61 834.80 444.81 820.44 542.69 930.96 561.88
00004487 00000010 784.18 143.97 361.49 533.26 820.41 356.15 971.48 381.75 834.16 448.72 819.25 545.64 928.99 565.54
00004488 00000011 783.13 148.78 359.21 531.19 815.44 360.04 968.88 384.99 830.77 454.68 815.21 551.84 926.35 571.35
00004489 00000012 780.99 152.81 360.52 529.28 813.80 361.46 967.16 386.91 828.38 457.72 813.42 553.40 924.91 573.24
00004490 00000013 780.57 153.68 365.34 528.25 812.93 361.47 966.22 385.69 826.31 457.97 812.38 554.02 924.36 572.70
00004491 00000014 779.01 152.62 367.49 528.89 812.33 360.06 966.47 385.29 824.98 457.56 811.56 552.15 925.41 571.62
00004492 00000015 777.95 152.06 369.42 528.17 812.81 360.18 967.01 386.43 824.19 457.49 810.79 549.74 926.23 570.02
00004493 00000016 777.82 156.00 368.10 524.40 813.12 360.13 966.09 388.07 823.36 459.63 810.34 549.05 925.87 570.61
00004494 00000017 777.36 153.76 368.92 528.55 812.53 360.52 965.23 389.29 821.84 460.30 809.02 550.83 923.79 573.09
00004495 00000018 777.27 156.31 369.60 526.62 812.03 360.73 964.48 390.08 821.09 461.58 808.33 551.38 922.99 574.07
00004496 00000019 778.81 158.66 371.09 525.64 812.96 362.38 965.17 389.71 821.97 462.93 808.65 553.03 923.84 574.27
00004497 00000020 779.17 159.15 370.73 525.95 812.86 363.38 965.03 390.43 822.29 463.48 808.67 554.53 923.27 575.55
00004498 00000021 779.19 159.90 370.42 525.43 813.57 364.17 965.71 391.60 823.01 464.19 808.55 554.94 922.96 576.26
00004499 00000022 779.20 160.88 369.64 524.44 813.94 364.55 966.45 392.32 823.89 464.90 809.34 554.97 923.72 576.46
00004500 00000023 779.41 160.91 370.32 524.82 814.59 364.11 967.07 392.87 823.94 465.00 809.16 554.82 923.86 577.08
00004501 00000024 779.25 160.24 370.42 526.75 814.12 363.25 967.19 393.56 823.22 464.76 807.87 554.21 922.34 577.69
00004502 00000025 780.63 159.58 369.34 527.56 814.96 362.51 967.93 393.77 823.90 464.88 808.25 554.59 921.36 578.87
00004503 00000026 780.48 161.93 368.81 524.93 815.68 362.41 967.70 394.20 824.57 464.99 808.56 553.34 920.99 578.02
00004504 00000027 781.56 162.63 366.50 524.26 817.15 360.04 969.06 393.43 825.45 463.60 809.30 551.14 922.54 577.07
00004505 00000028 780.64 160.42 367.11 529.31 817.68 358.45 970.88 392.63 826.79 461.76 808.68 550.76 922.04 577.54
00004506 00000029 783.93 165.15 370.06 521.72 825.76 361.26 967.41 380.81 830.81 460.78 814.94 552.57 924.20 569.22
00004507 00000030 783.41 165.40 369.49 523.52 826.60 360.98 968.18 381.52 831.61 460.83 815.83 551.44 925.81 568.97
00004508 00000031 782.76 166.91 368.16 524.91 826.63 361.37 968.54 382.37 832.20 461.23 816.57 552.01 927.40 570.12
00004509 00000032 783.02 167.07 367.65 529.08 826.74 361.83 969.42 383.21 832.89 463.65 817.28 553.94 930.39 572.66
00004510 00000033 784.33 168.74 366.47 528.90 828.67 362.44 969.99 384.71 833.91 465.44 820.08 554.65 934.07 573.99
00004511 00000034 785.13 174.17 366.34 527.55 830.61 363.01 971.34 386.77 833.16 467.29 822.18 555.66 940.50 575.88
00004512 00000035 787.07 176.12 362.69 531.20 831.54 366.10 971.71 388.29 833.18 470.60 825.67 560.29 943.09 579.17
00004513 00000036 790.02 178.79 361.18 533.25 832.95 368.03 972.87 389.73 832.67 473.90 829.68 563.35 948.24 581.62
00004514 00000037 792.12 181.32 358.73 533.68 833.76 370.50 970.86 393.05 830.57 478.26 834.13 565.54 952.03 583.91
00004515 00000038 793.07 185.12 356.94 532.47 833.99 373.72 968.42 395.42 830.22 481.32 837.51 567.19 954.17 584.52
00004516 00000039 792.29 186.71 361.50 532.26 834.12 375.40 968.11 397.09 830.83 483.42 836.84 568.26 953.63 585.51
00004517 00000040 792.28 188.26 363.03 532.68 834.29 376.35 968.26 397.76 830.80 484.47 837.91 569.91 954.94 586.81
00004518 00000041 793.34 189.19 363.28 532.10 834.67 376.07 968.97 396.76 831.65 484.25 840.21 570.46 956.74 586.74
00004519 00000042 794.57 186.09 364.55 535.29 836.57 376.09 971.04 396.61 833.82 482.63 842.64 570.52 959.02 586.78
00004520 00000043 795.35 185.40 364.11 536.22 837.85 375.70 972.67 396.00 835.45 482.58 844.57 570.95 961.14 587.14
00004521 00000044 796.01 184.10 364.42 536.79 839.17 375.54 974.29 395.38 837.78 481.50 845.48 570.83 961.57 586.87
00004522 00000045 796.66 184.89 365.58 534.47 839.99 375.21 975.31 394.51 838.70 480.35 846.71 569.48 963.25 585.10
00004523 DELETE   800.03 181.96 358.32 537.90 842.87 376.56 975.51 398.93 840.63 480.60 850.17 567.97 966.41 586.17
00004524 00000047 800.29 183.05 360.66 535.74 844.38 374.65 978.61 395.97 843.96 478.46 851.65 566.96 968.84 584.62
00004525 00000048 800.88 179.71 362.94 535.83 845.82 372.88 982.78 390.35 847.84 475.90 850.94 568.52 968.59 583.44
00004526 00000049 801.28 175.95 367.90 532.99 845.55 370.39 986.59 387.82 849.72 473.90 848.84 566.60 968.44 581.36
00004527 00000050 803.11 172.72 367.99 534.29 847.33 367.76 986.97 385.43 851.21 471.01 850.84 563.42 969.01 578.57
00004528 00000051 804.40 169.19 369.98 541.99 849.10 363.69 990.85 380.86 853.97 468.10 853.40 563.77 973.06 578.85
00004529 00000052 805.85 165.78 365.99 553.55 851.19 360.31 993.58 376.08 856.60 463.78 857.36 566.93 977.71 581.42
00004530 00000053 806.82 164.99 362.16 557.44 851.94 356.95 995.66 371.88 857.37 460.52 861.19 568.46 982.58 582.33
00004531 00000054 807.64 167.21 365.38 548.75 853.83 354.41 995.67 369.76 860.02 458.17 860.97 561.32 983.90 575.55
00004532 00000055 804.99 162.28 373.23 538.29 849.99 350.50 995.11 368.56 860.25 452.88 853.19 547.32 980.92 563.10
00004533 00000056 802.10 155.70 376.80 522.12 845.03 349.51 996.02 365.71 860.83 448.46 844.81 539.92 972.77 553.98
00004534 00000057 801.93 150.62 377.67 519.87 844.03 346.93 997.86 362.09 861.19 445.19 842.40 536.50 973.44 549.60
00004535 00000058 802.84 146.98 378.08 523.68 844.52 345.86 999.05 359.28 861.89 442.96 843.90 536.47 973.95 548.30
00004536 00000059 803.02 147.13 376.47 524.49 844.49 345.31 997.51 358.25 862.40 442.10 844.72 536.52 970.84 548.11
00004537 00000060 802.41 146.18 377.14 526.22 844.19 344.46 997.65 358.00 861.96 441.60 842.90 536.39 968.96 548.58
00004538 00000061 802.63 144.92 374.65 524.56 843.94 344.30 997.39 357.59 862.71 441.77 842.29 536.11 967.26 548.13
00004539 00000062 803.51 144.52 372.30 521.31 844.21 344.10 996.26 357.97 861.77 442.10 842.14 534.46 966.85 546.84
00004540 00000063 803.46 145.83 372.45 517.23 844.16 344.12 995.28 358.41 860.37 442.40 840.96 533.62 966.34 546.14
00004541 00000064 798.72 141.98 374.09 530.54 840.35 350.28 994.67 367.51 857.51 439.08 838.99 538.36 955.96 551.71
00004542 00000065 798.27 140.70 375.19 534.08 838.89 349.43 994.11 365.58 856.90 438.75 838.48 539.39 955.38 551.95
00004543 00000066 796.99 142.23 372.29 540.95 838.34 349.24 994.58 365.02 853.44 438.30 837.96 541.63 956.06 553.83
00004544 00000067 800.82 148.72 371.38 525.93 843.30 342.73 992.74 354.83 859.52 439.13 843.62 534.02 967.87 544.99
00004545 00000068 801.38 147.03 369.75 525.98 843.56 342.96 994.33 355.78 860.39 440.03 842.52 534.69 967.66 546.25
00004546 00000069 799.48 140.74 372.42 537.55 839.66 350.56 995.53 366.18 858.24 439.17 838.02 542.26 951.85 554.52
00004547 00000070 802.76 135.42 371.15 540.12 838.69 351.22 992.91 366.09 856.86 437.36 833.42 544.17 942.66 556.11
00004548 00000071 803.52 136.90 368.20 537.35 837.83 351.01 992.12 366.41 855.20 438.14 831.94 544.36 940.54 556.84
00004549 00000072 803.46 143.66 367.46 528.17 850.95 352.72 998.37 370.18 853.08 432.17 839.52 543.34 943.65 558.39
00004550 00000073 804.93 146.62 367.06 527.88 852.65 353.73 1000.86 370.52 855.77 431.94 842.14 544.14 946.85 558.34
00004551 00000074 805.36 145.82 367.10 526.08 854.03 353.06 1002.10 371.95 856.08 431.64 842.34 541.58 949.54 557.38
00004552 00000075 808.90 140.21 369.88 524.40 846.34 345.98 997.53 359.87 860.28 444.92 838.04 538.43 959.20 550.66
00004553 00000076 808.76 139.81 369.00 523.30 847.09 345.30 997.13 359.40 860.63 444.23 838.56 536.26 959.66 548.65
00004554 00000077 805.37 141.38 366.30 525.98 854.60 352.18 1000.63 370.03 852.83 426.50 842.37 535.57 948.68 550.28
00004555 00000078 808.81 136.54 357.77 525.71 857.76 347.75 999.15 369.56 851.69 424.06 841.85 530.20 944.46 548.14
00004556 DELETE   810.66 131.04 354.31 532.71 858.79 346.80 997.79 366.23 849.75 419.34 841.99 530.02 942.34 546.02
00004557 00000080 812.24 122.36 356.45 542.52 858.04 349.90 998.02 356.44 849.15 413.14 845.83 536.25 941.64 541.92
00004558 00000081 811.97 120.22 366.89 534.32 850.71 344.01 998.76 344.27 865.87 412.56 842.75 529.02 948.56 529.42
00004559 00000082 813.63 117.98 368.88 528.51 854.24 339.68 1003.96 337.38 872.26 405.92 848.67 522.31 957.92 520.62
00004560 00000083 820.87 121.63 369.15 524.40 869.54 325.53 1012.59 331.36 878.96 401.96 861.90 515.05 974.82 522.95
00004561 00000084 825.75 117.83 374.39 525.17 880.92 324.31 1031.70 330.98 896.31 401.14 871.28 506.39 995.38 514.85
00004562 DELETE   831.95 116.90 379.88 520.19 898.82 321.46 1063.27 333.31 927.92 397.93 881.76 496.04 1021.64 508.89
00004563 DELETE   850.00 124.70 369.97 508.58 926.20 320.17 1087.83 340.84 951.14 385.22 905.10 494.93 1030.38 514.06
00004564 DELETE   856.49 122.41 373.99 503.93 936.66 311.43 1099.59 334.06 981.75 379.77 920.35 486.55 1053.22 506.29
00004565 00000088 860.56 122.31 376.85 502.63 942.09 303.62 1107.58 332.33 984.56 373.63 920.91 480.27 1052.62 505.12
00004566 DELETE   858.63 121.24 380.64 498.07 938.72 300.22 1101.14 331.37 975.34 370.42 911.56 474.03 1043.23 500.20
00004567 DELETE   856.14 123.38 379.81 497.90 930.08 299.50 1093.38 325.52 963.05 368.38 903.41 475.22 1041.11 497.16
00004568 DELETE   854.70 120.59 372.62 510.84 924.01 302.11 1081.87 320.32 952.91 372.86 902.63 486.07 1029.19 502.35
00004569 00000092 851.83 126.66 374.56 504.59 917.41 306.10 1074.09 319.79 947.31 378.84 901.97 489.31 1025.36 501.68
00004570 00000093 844.38 125.60 375.95 506.28 912.26 317.27 1065.44 327.10 929.80 374.47 892.07 491.05 1011.94 500.37
00004571 00000094 843.83 126.97 375.96 507.52 905.29 322.24 1059.22 326.19 924.18 379.67 890.04 496.83 1008.45 501.27
00004572 00000095 838.86 130.52 373.33 506.15 903.12 325.99 1054.97 329.84 922.33 382.09 888.99 498.64 1005.49 502.76
00004573 00000096 836.72 130.69 380.38 508.85 900.88 330.29 1055.18 331.91 919.65 385.17 887.19 502.40 1008.36 504.48
00004574 00000097 833.13 130.61 382.79 511.35 896.66 332.66 1051.54 333.04 914.07 388.30 884.76 505.73 1006.80 506.67
00004575 00000098 833.46 131.55 376.92 510.47 892.63 333.11 1048.22 335.15 907.86 392.36 881.47 506.87 1004.88 508.93
00004576 00000099 835.08 133.49 378.16 511.86 891.09 337.19 1046.12 336.50 906.28 395.35 883.81 512.80 1002.50 512.68
00004577 00000100 833.17 136.92 374.81 513.64 889.18 341.57 1045.57 337.52 909.97 399.24 888.39 519.75 1001.59 516.58
00004578 00000101 833.10 137.90 374.06 514.71 887.39 345.52 1047.08 339.59 911.68 404.12 890.71 524.98 1005.25 520.23
00004579 00000102 834.57 140.38 374.55 511.21 885.77 348.30 1049.15 343.62 910.90 409.51 888.08 526.30 1012.21 522.46
00004580 00000103 835.47 143.03 372.20 511.10 886.40 352.11 1051.74 347.85 914.80 414.19 891.86 531.28 1014.71 527.79
00004581 00000104 834.47 145.09 370.66 515.14 888.24 353.46 1054.63 348.95 922.51 417.63 898.99 538.05 1012.24 534.20
00004582 00000105 837.14 150.79 366.45 508.70 889.64 353.68 1058.02 349.72 927.69 422.28 902.61 541.88 1017.43 538.38
00004583 00000106 838.91 153.08 364.70 506.70 890.46 353.98 1058.30 351.82 927.78 423.51 902.26 540.73 1021.64 538.46
00004584 00000107 838.80 153.61 364.40 506.64 889.99 354.59 1058.83 353.19 927.10 424.60 901.12 539.56 1024.44 537.87
00004585 00000108 839.34 153.32 364.12 507.46 890.76 355.42 1058.07 354.11 926.70 424.38 901.98 538.98 1025.29 537.29
00004586 00000109 839.81 152.82 363.08 507.87 891.40 357.59 1057.35 355.31 927.09 424.32 903.99 540.71 1023.43 538.13
00004587 00000110 838.95 150.05 362.54 508.46 889.54 358.93 1053.66 356.23 924.45 425.20 900.46 540.59 1015.92 537.86
00004588 00000111 841.50 146.19 359.85 506.90 889.38 356.12 1050.55 354.65 919.53 422.27 894.18 535.55 1010.62 534.30
00004589 00000112 841.97 142.89 361.76 507.52 889.60 354.01 1049.47 352.35 916.81 417.66 892.00 532.34 1007.17 531.19
00004590 00000113 841.42 141.64 363.35 511.99 889.78 353.45 1049.93 350.79 915.73 415.30 891.89 533.54 1006.61 531.56
00004591 00000114 840.69 142.67 361.90 516.18 890.84 354.01 1051.29 351.31 919.83 417.79 897.92 537.85 1007.70 535.49
00004592 00000115 842.76 147.76 365.03 515.43 892.54 353.36 1056.05 354.64 922.58 422.86 900.58 542.05 1013.11 542.57
00004593 00000116 844.64 153.00 360.94 511.24 894.92 357.00 1057.29 359.21 926.85 429.66 906.20 547.26 1016.18 548.12
00004594 00000117 847.27 159.18 363.45 510.43 896.34 362.59 1059.03 364.41 927.75 435.81 906.37 552.24 1018.98 552.93
00004595 00000118 846.08 165.48 370.06 509.06 902.15 363.38 1063.45 366.95 925.74 440.56 903.42 549.28 1024.41 554.84
00004596 00000119 852.08 170.41 361.96 506.83 904.70 368.50 1066.32 373.58 928.53 448.59 907.30 555.84 1027.54 562.19
00004597 00000120 855.64 173.04 358.05 510.63 908.80 372.10 1071.51 380.17 935.55 455.86 910.18 560.49 1034.07 569.00
00004598 00000121 856.81 175.15 362.32 510.62 912.00 375.94 1076.59 383.89 941.85 460.48 913.80 565.40 1036.26 573.72
00004599 00000122 858.32 177.02 362.78 511.75 915.22 377.68 1080.52 386.56 948.77 464.69 917.37 569.16 1039.60 577.99
00004600 00000123 859.62 180.18 361.94 515.83 919.21 381.85 1085.24 388.66 954.34 468.01 927.76 578.84 1043.32 585.42
00004601 00000124 862.16 184.43 362.47 515.98 921.79 386.00 1082.68 390.31 970.93 475.61 937.77 576.72 1058.02 581.26
00004602 DELETE   864.14 195.35 363.63 502.17 927.88 396.05 1087.23 399.56 978.78 478.63 944.28 575.14 1065.14 578.88
00004603 DELETE   866.29 194.58 368.26 501.26 931.36 398.27 1093.41 403.77 984.22 482.00 944.81 575.20 1069.12 580.41
00004604 DELETE   866.62 197.04 372.55 498.17 930.51 398.66 1097.22 405.45 983.06 485.75 939.87 575.64 1072.06 581.77
00004605 00000128 863.31 199.49 374.01 499.19 927.69 398.55 1094.10 406.01 980.22 489.21 935.39 575.99 1070.12 582.75
00004606 DELETE   859.54 200.23 372.88 502.97 923.68 399.96 1088.72 407.20 976.37 489.78 932.54 577.82 1064.53 584.46
00004607 00000130 857.09 200.93 369.49 504.56 918.22 401.15 1085.24 407.00 970.29 492.12 927.90 581.38 1063.64 586.52
00004608 00000131 859.30 199.45 363.84 516.27 914.74 401.97 1082.41 406.78 955.26 490.95 924.58 590.77 1058.95 594.56
00004609 00000132 853.12 196.33 370.77 539.04 913.73 404.51 1076.68 405.64 949.51 490.93 931.01 597.62 1061.34 597.64
00004610 00000133 848.18 195.61 375.41 551.71 910.47 402.09 1069.60 402.83 940.42 490.88 930.50 598.09 1061.06 596.56
00004611 00000134 843.79 190.99 376.96 557.79 907.91 399.95 1065.54 402.02 935.95 489.19 927.88 597.26 1057.29 596.64
00004612 00000135 839.57 191.20 376.86 551.14 901.50 399.78 1061.68 403.58 930.86 488.64 918.28 596.07 1048.26 597.48
00004613 00000136 832.88 188.86 377.00 525.89 893.23 402.32 1053.64 401.79 933.99 495.80 905.41 581.03 1044.27 581.78
00004614 00000137 828.79 184.14 377.86 517.31 886.10 398.87 1050.96 399.43 925.79 489.83 895.55 575.76 1040.42 576.96
00004615 00000138 829.61 179.81 376.30 512.96 884.17 394.36 1052.59 396.25 926.51 486.58 892.45 573.92 1040.37 576.18
00004616 00000139 831.35 172.10 378.79 516.70 886.48 393.04 1058.62 393.46 931.82 483.01 895.30 572.32 1046.46 573.38
00004617 00000140 837.03 176.90 376.60 514.45 893.23 386.52 1069.30 390.36 941.41 477.83 904.76 568.15 1054.52 571.40
00004618 00000141 839.58 176.73 374.33 519.28 901.74 388.21 1074.74 391.08 949.67 475.34 913.47 572.71 1051.78 575.56
00004619 00000142 843.65 180.53 373.85 519.84 906.85 391.89 1078.06 395.54 953.44 481.60 920.15 580.43 1049.04 583.71
00004620 00000143 847.67 187.90 366.90 510.69 908.60 398.02 1082.82 398.40 959.94 487.24 924.81 587.32 1057.57 587.53
00004621 00000144 847.84 195.16 367.38 503.87 908.32 404.54 1083.97 402.05 962.39 492.36 929.51 592.62 1061.91 590.06
00004622 00000145 847.31 201.22 368.25 503.07 908.06 409.16 1084.06 405.12 964.43 496.70 933.26 596.99 1064.01 592.90
00004623 00000146 847.62 202.85 373.50 512.55 908.75 413.65 1081.72 409.36 963.43 500.34 937.01 600.96 1066.14 596.47
00004624 00000147 846.88 202.43 375.98 514.99 907.36 413.48 1077.95 411.77 960.73 506.04 935.15 603.17 1063.48 600.88
00004625 00000148 842.06 202.73 379.94 519.79 901.22 413.85 1067.67 415.30 950.52 511.73 931.36 601.70 1061.05 601.49
00004626 DELETE   844.66 205.13 368.93 517.27 900.63 420.99 1060.35 424.78 941.38 513.47 925.66 597.25 1056.57 599.04
00004627 DELETE   841.93 202.44 365.11 514.76 898.14 422.84 1053.57 427.32 934.91 511.71 922.28 594.18 1048.92 596.92
00004628 DELETE   836.05 202.13 371.56 515.30 886.96 417.11 1045.52 423.57 923.66 510.36 908.39 591.66 1039.31 595.43
00004629 00000152 832.67 201.26 378.54 519.24 884.37 414.07 1037.46 418.25 916.28 506.26 904.79 592.25 1031.19 594.23
00004630 00000153 829.38 190.08 378.70 530.65 875.55 407.00 1038.59 413.88 908.12 507.41 898.64 592.17 1028.44 597.85
00004631 00000154 827.85 185.29 378.33 535.10 871.13 404.40 1035.27 410.88 902.97 504.04 892.22 589.60 1023.74 595.66
00004632 00000155 827.63 185.84 378.96 534.23 870.57 402.82 1035.03 409.90 901.31 502.42 890.95 587.57 1024.09 594.09
00004633 00000156 828.78 188.34 379.57 534.88 872.49 403.59 1037.82 408.35 905.51 502.56 896.20 590.13 1030.09 594.55
00004634 00000157 831.37 188.30 380.43 536.66 877.45 405.55 1042.12 407.74 910.77 502.54 905.66 594.57 1035.60 596.40
00004635 00000158 833.44 190.33 379.64 534.44 881.29 408.75 1043.78 408.44 916.64 506.86 912.72 597.27 1042.09 596.60
00004636 00000159 834.97 188.47 381.07 535.88 884.40 409.74 1047.45 409.36 921.94 508.44 917.12 598.93 1045.34 597.75
00004637 00000160 836.98 192.27 382.50 531.74 888.16 410.12 1050.35 409.27 925.77 508.30 920.80 599.16 1048.41 597.47
00004638 00000161 837.31 191.40 383.97 533.60 889.20 410.32 1051.93 409.40 926.78 508.66 921.92 599.61 1049.58 597.74
00004639 00000162 837.09 189.29 384.41 536.41 889.37 409.11 1052.01 408.37 926.62 507.54 922.50 599.60 1048.55 597.92
00004640 00000163 835.75 187.62 386.30 540.21 887.18 411.78 1048.85 408.62 926.73 506.58 920.42 596.98 1046.51 592.81
00004641 00000164 836.74 187.97 383.42 536.51 886.73 408.46 1048.85 408.67 922.07 506.94 919.02 598.83 1043.92 598.12
00004642 00000165 835.84 187.13 383.87 536.52 885.52 410.97 1045.80 410.01 921.40 506.72 916.11 594.15 1043.05 591.82
00004643 00000166 837.20 188.98 380.76 529.55 885.61 412.06 1046.22 410.27 921.42 507.83 915.03 594.18 1043.27 591.43
00004644 00000167 838.29 189.15 381.12 526.65 886.76 411.18 1047.84 410.20 923.48 507.77 915.56 593.04 1042.54 591.05
00004645 00000168 838.95 191.53 380.81 521.99 886.83 409.70 1050.49 409.28 925.99 509.32 914.94 593.10 1041.81 591.71
