Video ID: 	ZcJnS_WAEyQ
H: 	2160
W: 	3840
FPS: 	23.976023976023978

FRAME INDEX X0 Y0 W H [Landmarks (5 Points)]

00058885 00000000 1906.33 603.44 778.99 1083.30 1973.55 929.60 2297.39 941.72 2019.25 1158.39 1996.92 1383.97 2252.51 1395.42
00058886 DELETE   1920.94 588.78 776.35 1099.26 1987.13 929.89 2319.17 937.88 2037.51 1158.14 2006.43 1380.97 2270.27 1390.92
00058887 00000002 1934.79 578.89 797.60 1114.03 2010.55 917.11 2348.64 939.99 2067.83 1169.71 2037.28 1390.73 2275.87 1407.67
00058888 00000003 1951.41 603.38 789.49 1083.85 2022.69 911.81 2357.34 939.95 2072.99 1166.79 2042.77 1380.85 2281.88 1401.67
00058889 00000004 1963.35 610.23 787.18 1078.68 2029.61 910.57 2368.04 941.78 2079.04 1160.59 2042.83 1380.00 2284.16 1403.50
00058890 00000005 1972.32 606.47 786.61 1080.96 2036.29 913.28 2375.83 945.11 2087.87 1161.74 2046.91 1377.02 2291.94 1401.92
00058891 00000006 1978.94 606.55 782.93 1077.92 2041.25 914.34 2381.28 942.95 2092.79 1158.58 2052.21 1377.61 2301.10 1400.17
00058892 00000007 1979.10 592.52 788.51 1091.66 2043.48 910.79 2382.73 943.27 2098.37 1159.57 2051.63 1375.89 2300.32 1402.21
00058893 00000008 1978.41 586.51 789.28 1096.29 2043.02 912.89 2382.13 942.92 2098.19 1159.13 2051.41 1377.89 2298.04 1402.72
00058894 00000009 1970.48 584.10 795.45 1097.12 2042.51 911.49 2381.77 942.52 2095.68 1157.30 2050.05 1374.27 2295.99 1399.66
00058895 00000010 1969.31 603.65 796.88 1075.77 2039.26 907.26 2380.26 941.05 2091.00 1152.63 2047.28 1370.86 2293.38 1397.36
00058896 00000011 1966.32 604.43 793.91 1075.02 2037.11 906.08 2379.67 941.17 2092.20 1154.95 2045.03 1372.21 2292.79 1399.67
00058897 00000012 1960.68 586.29 799.25 1095.92 2032.07 905.62 2377.90 938.74 2088.68 1153.15 2041.10 1374.75 2288.17 1401.06
00058898 00000013 1957.11 590.84 799.22 1092.78 2034.79 902.49 2377.79 939.63 2088.61 1152.26 2041.08 1367.03 2291.18 1395.91
00058899 00000014 1954.20 604.67 799.91 1076.06 2031.10 907.93 2375.54 941.92 2087.51 1156.34 2041.43 1372.52 2288.90 1398.69
00058900 00000015 1947.03 591.16 805.61 1101.87 2029.11 909.57 2375.45 943.50 2084.02 1153.05 2037.46 1374.62 2291.95 1401.07
00058901 00000016 1947.83 580.11 800.17 1105.13 2027.92 910.14 2371.41 942.61 2083.92 1151.96 2037.12 1374.80 2283.88 1400.38
00058902 00000017 1941.67 592.72 802.51 1101.34 2023.58 911.41 2372.02 942.87 2084.75 1155.05 2036.15 1381.50 2284.38 1405.97
00058903 00000018 1940.04 595.37 803.61 1092.32 2020.64 911.12 2366.77 941.11 2078.94 1155.66 2033.75 1379.56 2277.23 1402.29
00058904 00000019 1940.31 590.29 802.74 1099.83 2019.16 913.46 2367.92 942.26 2079.23 1162.64 2033.30 1382.43 2285.65 1404.44
00058905 00000020 1937.04 605.42 798.10 1084.83 2019.22 914.18 2364.91 943.17 2080.89 1162.49 2034.43 1380.08 2286.92 1401.82
00058906 00000021 1938.61 605.67 799.22 1085.30 2018.81 916.14 2364.72 946.17 2079.53 1166.41 2035.39 1385.09 2284.33 1407.24
00058907 00000022 1935.28 607.11 794.70 1081.66 2017.18 911.22 2359.52 953.39 2070.75 1166.59 2026.70 1378.82 2290.04 1419.15
00058908 00000023 1938.64 619.64 799.09 1074.52 2015.20 916.64 2365.14 948.21 2080.42 1173.26 2034.07 1390.07 2286.27 1413.41
00058909 00000024 1936.47 603.79 805.43 1090.04 2016.65 917.29 2366.88 949.83 2080.85 1175.17 2035.46 1389.30 2284.28 1413.73
00058910 00000025 1939.93 608.38 806.33 1088.93 2018.73 921.49 2365.54 951.33 2081.32 1175.49 2038.34 1396.08 2282.82 1418.03
00058911 00000026 1939.52 605.82 806.49 1093.79 2020.86 915.62 2373.56 951.60 2085.33 1173.10 2035.06 1391.10 2286.45 1418.72
00058912 00000027 1938.24 604.43 805.70 1090.08 2024.03 916.95 2374.58 954.07 2088.82 1171.04 2035.79 1385.71 2288.51 1414.24
00058913 00000028 1939.62 600.23 806.74 1094.79 2024.74 917.23 2375.33 954.68 2089.66 1172.56 2037.28 1387.80 2289.00 1417.00
00058914 00000029 1941.83 605.42 804.35 1092.52 2025.58 918.54 2374.64 955.81 2089.03 1173.61 2036.95 1389.13 2288.28 1418.14
00058915 00000030 1941.48 603.29 804.48 1099.52 2024.50 918.29 2374.32 953.41 2088.37 1174.81 2037.02 1392.65 2287.88 1419.97
00058916 00000031 1941.66 606.69 804.32 1093.77 2024.15 917.59 2373.52 953.53 2087.33 1175.84 2036.58 1391.87 2285.07 1419.37
00058917 00000032 1943.05 613.69 803.95 1086.62 2025.42 918.12 2373.00 954.51 2088.07 1176.87 2038.83 1390.90 2286.06 1418.56
00058918 00000033 1943.69 616.80 801.98 1081.96 2025.43 919.39 2371.94 954.80 2086.82 1176.69 2039.35 1389.73 2287.43 1416.35
00058919 00000034 1942.94 611.91 803.65 1086.90 2025.58 919.34 2373.68 953.73 2089.19 1176.43 2040.04 1392.03 2285.80 1418.01
00058920 00000035 1943.53 611.36 804.50 1087.59 2026.31 919.15 2373.27 954.45 2089.05 1176.83 2041.18 1389.62 2287.86 1416.36
00058921 00000036 1944.33 610.44 804.58 1090.08 2026.61 921.13 2372.52 957.90 2087.04 1177.92 2039.16 1390.36 2285.55 1418.59
00058922 00000037 1944.63 619.68 801.82 1081.87 2026.21 921.15 2371.91 958.42 2088.31 1180.31 2042.01 1395.18 2285.69 1423.44
00058923 00000038 1942.64 609.71 804.06 1089.24 2027.59 921.11 2374.12 958.32 2088.95 1177.60 2039.60 1393.94 2285.26 1422.63
00058924 00000039 1944.23 608.49 801.12 1091.54 2028.74 920.00 2372.52 957.18 2088.61 1182.20 2040.38 1391.59 2286.31 1420.28
00058925 00000040 1946.63 620.38 797.08 1081.11 2028.07 920.52 2372.16 955.09 2089.69 1183.44 2042.30 1393.38 2287.06 1419.67
00058926 00000041 1947.50 612.17 793.29 1082.99 2030.60 921.06 2376.44 955.46 2095.18 1183.48 2044.62 1394.19 2287.24 1420.71
00058927 00000042 1947.19 620.04 799.39 1072.75 2028.53 923.35 2376.10 956.69 2094.65 1187.01 2043.42 1395.34 2292.37 1420.34
00058928 00000043 1951.64 631.77 798.61 1064.36 2026.81 922.18 2374.33 957.22 2089.62 1189.01 2041.31 1394.62 2291.81 1420.49
00058929 00000044 1952.55 630.55 795.05 1067.82 2028.16 920.21 2375.56 956.48 2090.94 1186.81 2041.45 1393.37 2289.05 1420.62
00058930 00000045 1951.75 614.07 791.19 1085.00 2031.27 919.72 2378.92 957.07 2098.43 1184.46 2042.75 1393.11 2287.83 1422.52
00058931 00000046 1953.02 617.53 786.66 1078.19 2031.79 920.83 2377.90 957.03 2099.04 1183.65 2043.34 1392.54 2287.29 1420.88
00058932 00000047 1952.83 613.83 788.33 1081.29 2032.20 922.28 2378.71 957.98 2099.74 1183.22 2043.34 1391.72 2289.19 1419.73
00058933 00000048 1954.37 617.67 787.88 1073.89 2032.34 924.79 2377.30 958.70 2100.70 1183.91 2045.09 1393.23 2287.79 1419.51
00058934 00000049 1956.39 623.26 790.34 1066.50 2032.48 924.43 2377.33 957.11 2101.55 1186.84 2046.65 1394.90 2289.55 1419.95
00058935 00000050 1958.48 634.44 797.37 1053.81 2032.30 923.40 2375.33 957.95 2097.35 1188.61 2046.79 1394.32 2291.50 1420.04
00058936 00000051 1956.30 628.76 797.68 1058.47 2032.85 922.16 2376.18 957.68 2100.52 1187.65 2045.49 1395.11 2288.52 1421.99
00058937 00000052 1956.01 626.76 796.95 1061.69 2032.49 919.73 2377.40 957.17 2097.81 1185.76 2042.66 1392.50 2287.23 1421.13
00058938 00000053 1958.24 631.41 793.15 1062.26 2031.54 922.91 2375.45 960.06 2094.08 1184.95 2040.18 1392.92 2284.10 1421.51
00058939 00000054 1953.46 607.77 795.27 1082.57 2033.32 923.02 2374.06 964.73 2091.55 1175.42 2039.82 1387.85 2284.04 1420.61
00058940 00000055 1960.91 579.86 780.97 1109.44 2027.02 917.09 2376.29 951.63 2096.11 1151.71 2033.12 1385.41 2279.20 1413.22
00058941 00000056 1959.62 532.38 778.60 1132.21 2022.50 896.33 2377.06 932.90 2070.45 1113.93 2015.59 1358.33 2287.61 1391.96
00058942 00000057 1960.05 483.67 787.67 1134.26 2026.93 851.82 2374.65 896.04 2062.92 1077.14 2016.31 1311.06 2279.03 1352.73
00058943 00000058 1961.46 478.49 789.25 1125.20 2038.35 817.58 2382.94 868.81 2065.21 1036.38 2009.86 1272.14 2285.58 1321.21
00058944 00000059 1970.04 473.14 785.76 1129.72 2052.52 799.53 2392.08 847.72 2078.40 1014.66 2015.41 1255.29 2288.24 1301.44
00058945 00000060 1974.68 473.08 795.54 1128.37 2068.66 802.06 2404.37 848.83 2089.30 1011.01 2023.83 1259.90 2287.11 1304.83
00058946 00000061 1980.58 472.32 773.21 1137.46 2052.72 832.27 2389.90 851.62 2103.51 1029.69 2034.88 1293.50 2285.46 1311.06
00058947 00000062 1989.66 478.48 774.12 1138.39 2077.39 836.40 2406.56 865.84 2117.72 1028.21 2057.11 1300.31 2292.08 1326.52
00058948 00000063 1993.82 490.43 768.76 1140.83 2079.56 849.80 2405.15 877.64 2123.16 1050.64 2064.36 1317.95 2290.30 1342.77
00058949 00000064 1991.28 518.41 772.09 1140.27 2069.88 861.21 2399.24 891.31 2112.68 1083.68 2062.55 1344.85 2295.42 1370.33
00058950 00000065 1991.47 564.32 771.97 1139.65 2058.38 876.79 2385.65 914.99 2091.47 1111.66 2057.36 1360.46 2303.68 1391.65
00058951 00000066 1980.66 559.96 767.13 1159.83 2047.54 895.80 2358.34 921.87 2067.79 1139.26 2047.60 1380.90 2305.01 1401.01
00058952 00000067 1965.57 574.67 785.22 1137.01 2030.25 898.38 2362.44 933.29 2075.44 1144.95 2044.24 1377.95 2288.82 1405.62
00058953 00000068 1957.14 557.50 795.37 1120.99 2029.44 894.82 2358.00 929.01 2063.62 1137.31 2040.29 1361.52 2282.93 1388.21
00058954 00000069 1953.92 572.53 797.63 1094.44 2032.41 887.21 2358.10 919.79 2061.11 1119.67 2039.42 1348.77 2287.09 1373.70
00058955 00000070 1951.99 533.21 789.31 1105.72 2035.34 870.63 2362.73 905.58 2066.28 1111.37 2040.06 1332.44 2283.85 1359.95
00058956 00000071 1945.18 527.39 803.21 1117.23 2016.65 859.54 2366.09 903.68 2055.25 1102.86 2018.38 1331.07 2285.40 1370.16
00058957 00000072 1945.06 522.90 803.89 1118.36 2018.13 859.56 2371.78 905.22 2060.85 1107.33 2019.35 1328.50 2293.30 1369.30
00058958 00000073 1950.14 525.36 796.02 1111.51 2040.95 871.50 2376.70 903.28 2076.59 1104.06 2040.17 1324.31 2298.78 1350.04
00058959 00000074 1952.74 529.90 796.16 1110.91 2041.68 871.45 2381.35 907.55 2084.97 1108.49 2039.39 1327.82 2302.35 1356.49
00058960 00000075 1957.59 530.52 796.65 1107.41 2042.82 876.17 2382.02 906.37 2085.23 1107.39 2042.21 1332.52 2298.36 1357.08
00058961 00000076 1961.51 516.68 794.03 1116.64 2045.49 870.40 2382.00 909.21 2088.31 1108.35 2039.04 1323.52 2298.53 1355.19
00058962 00000077 1964.20 527.02 791.23 1109.17 2050.16 867.24 2381.45 905.96 2086.27 1100.09 2042.67 1321.70 2297.36 1352.90
00058963 00000078 1966.92 531.14 791.98 1098.55 2052.41 865.86 2384.17 902.17 2093.46 1099.55 2045.52 1317.06 2303.40 1346.18
00058964 00000079 1969.53 544.91 788.89 1086.41 2055.53 862.27 2384.68 904.10 2094.00 1100.14 2046.34 1317.07 2299.20 1350.58
00058965 00000080 1969.92 530.98 788.82 1096.75 2053.86 866.93 2385.21 904.55 2097.14 1101.07 2046.33 1321.93 2292.99 1352.69
00058966 00000081 1967.76 537.91 792.59 1091.62 2051.96 867.45 2386.20 907.69 2098.43 1102.30 2042.64 1324.07 2293.12 1357.04
00058967 00000082 1969.64 540.00 785.98 1092.49 2052.72 869.01 2385.72 909.38 2097.24 1106.55 2045.01 1324.68 2293.64 1357.68
00058968 00000083 1968.94 545.75 790.58 1091.89 2049.96 870.50 2387.61 913.45 2097.79 1109.34 2043.37 1329.00 2295.36 1363.81
00058969 00000084 1968.85 540.15 795.88 1096.27 2051.33 872.62 2384.71 914.92 2095.09 1114.07 2045.91 1326.09 2297.62 1360.74
00058970 00000085 1969.57 557.57 791.00 1084.06 2053.68 875.29 2384.46 918.01 2094.91 1111.30 2044.83 1330.86 2292.23 1365.56
00058971 00000086 1972.22 573.50 791.65 1073.31 2056.39 875.37 2385.99 917.85 2094.76 1109.41 2048.52 1331.11 2295.82 1365.00
00058972 00000087 1975.54 566.03 790.69 1079.40 2057.27 872.43 2387.71 917.21 2096.44 1109.48 2048.52 1331.07 2294.98 1366.94
00058973 00000088 1977.88 556.59 788.80 1085.03 2059.48 867.15 2388.76 915.47 2099.11 1109.46 2048.54 1325.68 2295.18 1364.88
00058974 00000089 1977.12 554.05 792.50 1091.90 2056.95 868.91 2386.83 913.12 2096.81 1111.08 2049.07 1327.16 2300.09 1363.21
00058975 00000090 1976.78 548.83 791.57 1094.07 2056.81 870.51 2385.75 911.58 2095.58 1111.46 2050.07 1327.65 2300.66 1361.18
00058976 00000091 1975.15 550.02 792.92 1093.65 2054.48 871.11 2385.10 911.24 2096.73 1112.28 2049.23 1329.46 2299.87 1362.19
00058977 00000092 1975.06 544.78 791.65 1098.00 2054.43 869.90 2385.18 910.99 2095.12 1111.89 2049.25 1328.82 2299.57 1362.41
00058978 00000093 1975.94 543.14 790.11 1097.76 2055.08 871.00 2385.90 910.97 2097.77 1110.78 2050.51 1330.50 2298.49 1363.28
00058979 00000094 1976.57 552.48 793.73 1088.94 2056.39 870.89 2386.95 913.15 2098.25 1110.64 2050.67 1330.28 2296.98 1364.70
00058980 00000095 1976.80 568.80 795.01 1077.46 2056.07 871.81 2385.39 914.70 2093.83 1111.15 2050.13 1329.97 2298.99 1364.62
00058981 00000096 1974.71 569.41 796.72 1079.42 2054.82 871.73 2387.20 915.15 2094.69 1110.56 2048.99 1330.27 2300.80 1365.08
00058982 00000097 1973.08 562.87 796.54 1080.99 2056.51 876.87 2386.77 917.72 2098.63 1112.75 2049.94 1330.04 2298.28 1363.38
00058983 00000098 1973.87 553.16 794.58 1093.09 2056.29 877.70 2387.15 917.00 2100.70 1113.32 2051.88 1332.90 2296.90 1365.14
00058984 00000099 1974.05 549.37 794.70 1099.15 2056.97 878.06 2388.60 917.29 2100.02 1112.14 2050.76 1334.65 2296.81 1367.07
00058985 00000100 1975.39 557.77 791.30 1092.36 2058.39 877.79 2388.94 918.51 2098.99 1112.34 2050.13 1333.74 2297.48 1367.16
00058986 00000101 1974.90 557.11 790.04 1092.58 2058.90 877.96 2388.38 919.43 2098.78 1113.01 2050.56 1333.37 2295.64 1367.32
00058987 00000102 1974.40 558.02 791.19 1092.07 2057.19 879.24 2389.27 919.49 2098.93 1115.08 2049.79 1333.79 2300.01 1366.71
00058988 00000103 1974.53 557.75 792.76 1089.54 2057.31 876.96 2389.32 917.53 2099.85 1115.73 2049.94 1333.18 2299.07 1366.64
00058989 00000104 1976.78 568.28 796.38 1079.47 2059.72 873.98 2391.81 915.61 2104.01 1117.17 2053.57 1331.77 2302.69 1366.08
00058990 00000105 1979.12 566.10 791.22 1079.72 2058.87 874.06 2390.34 916.52 2104.63 1116.27 2052.69 1331.72 2302.37 1366.53
00058991 00000106 1979.95 561.07 790.96 1086.80 2058.91 876.28 2392.47 915.62 2102.58 1114.43 2052.80 1333.85 2304.12 1366.12
00058992 00000107 1983.88 543.02 788.18 1104.55 2061.36 871.74 2392.81 912.80 2102.55 1112.59 2054.78 1332.28 2304.59 1366.40
00058993 00000108 1985.19 536.14 787.84 1110.21 2062.40 871.06 2393.05 912.37 2103.29 1112.86 2056.09 1331.41 2305.03 1365.88
00058994 00000109 1983.25 548.84 786.78 1101.78 2060.46 872.33 2394.10 916.50 2102.40 1116.23 2053.48 1333.91 2305.15 1370.41
00058995 00000110 1984.51 550.19 785.38 1100.76 2056.50 874.10 2389.45 916.23 2099.70 1114.38 2051.95 1337.14 2297.06 1371.93
00058996 00000111 1983.76 556.17 786.11 1095.40 2060.63 871.87 2391.32 917.85 2099.47 1114.73 2050.80 1338.06 2294.58 1376.44
00058997 00000112 1985.44 547.19 786.29 1110.37 2057.47 874.46 2389.91 920.26 2099.33 1119.93 2051.16 1341.86 2295.86 1379.78
00058998 00000113 1986.68 562.81 786.45 1098.59 2057.56 876.59 2389.58 919.37 2096.44 1119.33 2051.51 1342.52 2300.55 1377.70
00058999 00000114 1986.22 547.49 787.59 1112.90 2058.94 875.03 2389.54 919.70 2096.47 1119.65 2053.34 1343.47 2298.89 1380.60
00059000 00000115 1987.48 556.84 783.39 1104.73 2059.63 875.42 2390.06 920.91 2096.71 1121.16 2051.37 1346.62 2295.63 1384.36
00059001 00000116 1986.05 546.47 784.38 1114.56 2058.86 877.81 2393.53 924.51 2098.93 1127.67 2049.38 1348.42 2299.96 1387.29
00059002 00000117 1985.92 545.57 786.27 1116.69 2057.27 884.49 2391.42 926.57 2095.24 1128.31 2049.53 1350.93 2301.41 1386.35
00059003 00000118 1983.21 549.31 788.06 1115.01 2054.48 880.04 2390.29 926.30 2094.69 1131.19 2045.51 1352.34 2293.65 1390.92
00059004 00000119 1986.30 570.10 784.14 1090.87 2054.47 880.91 2392.20 928.49 2099.79 1135.56 2046.55 1347.08 2300.36 1386.23
00059005 00000120 1985.07 559.63 787.17 1102.72 2051.07 884.90 2392.22 927.64 2098.77 1131.43 2043.65 1355.44 2296.17 1391.21
00059006 00000121 1982.81 560.80 791.77 1105.02 2048.89 888.07 2386.29 928.72 2095.71 1132.74 2044.14 1359.19 2290.46 1393.11
00059007 00000122 1985.05 570.32 790.50 1101.61 2048.47 887.67 2384.92 933.48 2093.38 1138.56 2044.97 1356.98 2292.05 1394.82
00059008 00000123 1986.01 564.50 789.54 1104.57 2047.19 890.97 2387.68 932.12 2096.53 1137.44 2044.83 1360.65 2294.04 1395.11
00059009 00000124 1987.77 568.65 783.66 1100.73 2048.56 894.13 2391.51 933.37 2103.22 1139.99 2043.21 1366.70 2294.48 1399.86
00059010 00000125 1989.56 551.38 782.57 1114.08 2051.26 891.76 2392.10 933.21 2105.91 1140.24 2046.07 1362.46 2299.09 1397.24
00059011 00000126 1986.03 551.28 788.75 1117.10 2048.39 892.74 2392.17 932.38 2104.27 1142.94 2045.35 1369.40 2295.57 1402.88
00059012 00000127 1986.80 561.51 787.42 1109.43 2048.66 891.71 2393.87 933.74 2104.79 1146.28 2044.26 1368.68 2296.57 1403.93
00059013 00000128 1987.14 563.08 787.03 1112.04 2049.52 892.37 2394.64 935.06 2103.46 1144.36 2046.35 1367.32 2297.59 1403.23
00059014 00000129 1987.03 578.49 786.96 1094.38 2047.70 891.25 2396.28 934.51 2106.74 1146.35 2044.49 1370.96 2294.76 1407.18
00059015 00000130 1988.12 569.57 785.47 1105.12 2051.05 888.97 2397.56 935.12 2107.92 1149.50 2046.77 1371.22 2296.81 1409.82
00059016 00000131 1989.60 567.24 782.21 1106.69 2055.50 893.20 2395.97 936.77 2110.13 1144.92 2050.25 1365.27 2300.36 1401.95
00059017 00000132 1987.46 568.35 785.47 1105.68 2055.48 894.67 2396.65 938.32 2110.72 1145.54 2049.81 1363.78 2302.75 1400.38
00059018 00000133 1987.00 559.60 783.01 1107.44 2054.74 895.58 2397.14 936.39 2114.29 1143.54 2051.09 1365.67 2298.90 1400.25
00059019 00000134 1987.59 558.54 786.15 1105.99 2054.33 893.67 2397.20 935.49 2112.72 1144.49 2050.55 1364.89 2300.72 1400.12
00059020 00000135 1988.48 567.57 786.76 1101.90 2053.83 892.84 2397.98 937.67 2110.25 1147.81 2049.08 1366.74 2298.61 1404.35
00059021 00000136 1989.84 569.65 783.70 1106.72 2053.11 891.83 2396.81 939.92 2105.44 1150.37 2048.07 1365.41 2300.77 1405.41
00059022 00000137 1990.89 577.75 780.01 1099.63 2056.38 891.31 2398.81 940.63 2109.02 1150.37 2051.41 1363.24 2304.43 1404.04
00059023 00000138 1991.25 571.76 782.54 1100.49 2058.29 889.37 2400.56 939.03 2112.56 1150.67 2054.08 1361.86 2305.74 1403.31
00059024 00000139 1990.62 568.45 781.85 1104.55 2057.58 888.36 2401.20 938.96 2113.25 1150.68 2052.55 1363.13 2304.03 1405.48
00059025 00000140 1990.68 563.84 781.06 1107.93 2057.85 889.81 2401.87 938.65 2114.58 1150.31 2052.75 1364.66 2304.46 1405.76
00059026 00000141 1988.43 563.66 782.38 1107.67 2059.76 889.39 2403.83 939.07 2117.83 1152.23 2053.02 1367.04 2301.75 1408.92
00059027 00000142 1990.81 548.61 784.66 1120.41 2061.03 887.89 2408.00 936.63 2122.28 1151.89 2055.26 1370.99 2301.61 1412.54
00059028 00000143 1993.72 559.14 785.40 1112.11 2060.79 891.26 2407.47 937.05 2122.60 1151.63 2056.88 1371.23 2311.76 1409.85
00059029 00000144 1997.64 576.82 784.66 1092.91 2061.22 894.70 2406.10 940.57 2120.54 1153.34 2057.97 1371.24 2306.05 1409.95
00059030 00000145 1998.32 579.57 778.25 1089.96 2064.18 889.91 2407.89 940.66 2121.67 1155.73 2059.11 1365.91 2307.13 1408.28
00059031 00000146 1997.23 576.31 783.32 1096.58 2063.94 890.26 2405.79 939.12 2118.94 1156.09 2060.31 1367.33 2309.60 1408.08
00059032 00000147 2000.33 561.14 779.49 1109.94 2065.43 887.95 2409.60 937.59 2121.34 1153.77 2060.34 1367.18 2313.15 1408.66
00059033 00000148 1999.73 587.13 780.67 1096.52 2063.27 886.94 2411.06 938.67 2116.36 1153.10 2054.88 1368.68 2314.10 1411.32
00059034 00000149 1999.41 571.69 779.78 1106.93 2064.26 885.73 2409.05 936.20 2118.63 1141.77 2054.06 1371.30 2300.06 1413.20
00059035 00000150 1999.39 559.28 782.14 1098.02 2070.69 888.85 2402.92 929.92 2119.71 1116.60 2057.06 1356.86 2285.59 1391.02
00059036 00000151 2002.47 508.81 765.38 1136.77 2091.22 869.00 2412.83 907.77 2129.35 1068.40 2069.77 1326.10 2291.66 1358.53
00059037 00000152 2009.69 478.05 766.47 1154.59 2099.90 836.15 2410.04 858.65 2116.80 1027.39 2079.72 1293.21 2324.87 1314.60
00059038 00000153 2019.30 473.41 770.75 1170.56 2105.73 814.69 2414.96 833.97 2117.15 1007.70 2098.80 1288.00 2357.23 1305.58
00059039 00000154 2028.81 474.27 777.21 1162.17 2108.00 816.51 2436.59 834.58 2130.61 1017.38 2110.87 1293.34 2380.77 1311.14
00059040 00000155 2036.81 494.41 781.18 1131.96 2117.61 829.81 2448.21 845.46 2144.23 1046.51 2120.16 1307.67 2389.45 1324.08
00059041 00000156 2040.22 483.26 782.87 1160.17 2123.01 861.55 2453.94 869.76 2152.64 1086.34 2134.00 1331.45 2409.63 1340.56
