Video ID: 	D6H698fUXm4
H: 	1080
W: 	1920
FPS: 	25.0

FRAME INDEX X0 Y0 W H [Landmarks (5 Points)]

00005310 00000000 594.10 110.99 371.02 557.51 726.37 366.88 888.35 353.65 838.45 451.88 758.12 546.56 892.42 535.76
00005311 00000001 594.11 112.10 370.92 560.01 727.69 368.20 888.25 355.26 839.09 453.98 757.84 548.70 891.49 538.16
00005312 00000002 594.04 113.65 371.35 561.60 728.66 369.65 888.13 356.77 839.61 456.15 757.61 550.92 890.81 540.44
00005313 00000003 593.68 115.82 371.97 561.01 730.04 371.19 888.61 358.60 840.59 457.88 758.30 552.24 890.64 541.94
00005314 00000004 592.69 116.20 372.73 560.76 729.56 372.88 887.42 359.70 840.04 459.65 757.81 553.05 889.51 542.21
00005315 00000005 592.70 118.15 372.26 558.69 728.78 374.30 887.39 360.24 839.90 460.64 756.85 553.60 889.37 542.09
00005316 00000006 592.90 120.11 371.85 552.24 727.44 374.87 888.75 359.10 840.03 460.38 757.63 552.06 892.06 539.09
00005317 00000007 592.35 118.14 372.74 552.73 726.63 374.58 888.93 358.51 839.67 460.16 757.63 551.80 892.20 538.61
00005318 00000008 592.72 118.30 372.47 552.60 727.48 374.37 888.59 357.90 839.78 460.39 758.58 552.07 891.88 538.53
00005319 00000009 592.79 118.03 371.93 549.75 726.73 374.82 888.54 357.43 839.64 460.11 758.45 550.80 892.15 536.55
00005320 00000010 591.79 116.40 372.67 548.62 725.44 374.20 887.78 356.40 838.91 458.88 758.08 549.60 891.80 535.06
00005321 00000011 591.35 116.12 371.93 553.52 727.81 376.35 887.72 359.50 840.57 459.75 756.95 550.82 890.46 536.98
00005322 00000012 589.42 116.52 369.22 561.01 729.75 387.72 887.15 368.78 842.03 461.25 752.53 554.41 888.33 538.41
00005323 00000013 584.04 113.08 368.38 560.89 727.41 391.26 879.70 369.70 839.56 460.45 751.54 552.54 883.98 534.40
00005324 00000014 579.77 106.20 368.44 561.67 721.75 385.42 876.16 362.09 836.36 456.34 750.90 549.44 882.94 530.10
00005325 00000015 578.23 102.76 370.61 563.82 721.05 382.95 877.78 358.78 837.61 454.52 753.33 550.04 885.48 529.97
00005326 00000016 578.58 100.55 368.90 563.74 723.26 384.11 879.77 359.62 840.72 452.58 756.62 550.14 887.11 530.02
00005327 00000017 579.07 100.27 368.55 561.73 727.40 385.77 884.46 357.87 847.90 454.00 762.89 552.34 891.44 529.51
00005328 DELETE   581.93 100.09 371.39 562.55 729.44 382.60 890.82 355.63 851.87 452.89 766.00 552.97 897.05 530.84
00005329 00000019 585.58 101.58 373.86 564.66 733.60 377.46 894.86 352.64 856.88 452.25 767.05 551.42 900.43 531.30
00005330 00000020 588.52 98.18 374.81 573.60 743.33 374.80 898.68 353.31 865.95 452.60 771.88 553.18 900.83 535.92
00005331 00000021 594.68 98.98 373.86 573.23 752.21 372.02 905.46 350.33 875.57 452.63 778.60 551.41 906.08 533.95
00005332 00000022 599.87 101.58 374.69 568.70 760.94 372.57 913.92 351.40 885.20 453.42 786.70 551.38 914.08 534.22
00005333 00000023 608.84 106.19 371.73 557.30 767.81 368.11 923.17 353.00 888.47 454.90 797.85 541.76 924.19 530.01
00005334 00000024 613.24 107.94 372.04 554.67 775.71 373.46 931.12 356.21 897.43 458.02 806.03 544.54 930.65 530.80
00005335 00000025 617.18 106.49 371.40 555.72 780.74 376.29 934.15 358.49 902.19 459.56 811.59 544.77 934.84 530.18
00005336 00000026 618.32 106.64 371.47 555.39 781.93 378.39 934.91 359.83 903.84 459.57 813.01 544.95 935.84 529.65
00005337 00000027 620.26 106.76 371.54 556.91 783.34 378.60 934.54 359.67 904.21 459.95 813.96 544.86 936.51 529.15
00005338 00000028 620.51 107.19 372.43 557.52 783.75 376.60 934.02 358.95 903.64 459.33 813.04 543.62 935.26 529.08
00005339 00000029 620.02 107.38 374.14 560.88 783.43 373.34 933.57 358.58 901.77 459.87 811.03 543.76 934.37 531.63
00005340 00000030 619.10 106.31 375.93 566.48 782.14 373.87 932.54 359.53 900.77 461.33 807.39 545.08 933.88 533.24
00005341 00000031 616.47 106.38 376.06 562.99 778.48 373.17 930.39 358.69 896.85 459.91 804.09 542.38 931.75 530.57
00005342 00000032 614.35 104.58 374.00 558.39 771.97 367.94 926.82 352.15 891.35 454.92 798.38 537.33 929.81 524.72
00005343 00000033 612.14 102.99 373.92 556.55 766.15 360.66 922.15 345.32 885.20 449.66 794.58 533.46 926.78 521.72
00005344 00000034 607.20 93.30 376.43 569.55 764.35 360.34 921.14 340.14 889.86 447.55 786.47 537.38 923.73 521.52
00005345 00000035 600.03 94.57 375.95 568.31 758.96 363.00 912.55 340.58 885.12 443.16 782.55 537.31 915.75 519.80
00005346 00000036 594.49 93.60 375.47 566.79 750.55 364.05 906.50 338.47 877.89 443.06 777.50 538.40 910.94 518.35
00005347 00000037 588.28 94.51 376.19 560.81 741.38 365.46 903.20 337.77 870.89 442.75 771.94 537.98 908.34 516.47
00005348 00000038 584.43 95.60 372.17 556.98 732.23 368.15 894.84 338.50 859.64 443.92 764.63 537.10 902.02 513.85
00005349 00000039 579.55 98.03 367.13 554.54 724.73 369.17 883.19 336.52 850.01 446.34 757.82 537.24 892.98 511.41
00005350 00000040 570.44 92.40 367.53 560.38 719.36 368.39 872.64 336.50 844.58 444.62 752.79 535.98 884.47 510.60
00005351 00000041 565.12 94.28 366.05 558.58 716.32 369.36 866.52 338.15 841.64 445.61 748.23 535.01 877.55 510.30
00005352 00000042 561.15 96.89 367.10 558.30 713.78 368.90 864.78 339.70 839.15 447.11 745.66 535.53 874.85 512.32
00005353 00000043 557.37 98.21 369.99 557.24 711.01 368.98 863.70 342.31 835.94 446.85 743.94 535.67 872.76 514.38
00005354 00000044 557.80 97.89 369.97 559.07 711.37 368.85 863.72 342.11 835.71 447.32 743.66 535.89 872.95 514.47
00005355 00000045 560.34 95.42 368.96 560.62 713.26 367.57 864.61 339.58 837.49 446.88 745.14 535.53 873.99 513.19
00005356 00000046 564.30 94.53 366.34 560.69 715.63 367.74 866.51 339.02 840.16 447.20 747.75 535.76 877.72 512.74
00005357 00000047 568.81 95.44 365.32 560.52 718.25 368.60 870.12 339.95 841.93 446.58 749.96 537.11 880.14 514.11
00005358 00000048 575.23 97.03 366.31 558.51 721.55 367.24 876.83 339.71 844.25 445.88 753.15 537.70 885.53 515.79
00005359 00000049 581.65 99.55 366.93 555.23 725.20 365.85 884.21 341.95 846.50 446.87 756.60 538.12 890.80 519.01
00005360 00000050 584.99 99.20 368.64 555.91 730.01 367.09 891.35 344.74 852.02 448.02 759.91 539.14 894.95 521.40
00005361 00000051 586.27 96.53 370.33 558.83 734.07 365.78 897.69 344.80 859.44 448.08 764.31 540.76 899.64 524.16
00005362 00000052 588.02 98.55 372.23 555.49 735.80 367.42 901.94 344.13 862.77 449.01 767.07 541.42 903.88 523.00
00005363 00000053 587.92 97.58 373.79 551.68 739.01 369.06 905.21 343.68 866.98 448.20 772.16 542.59 905.94 522.26
00005364 00000054 586.33 97.99 375.48 553.83 742.94 371.03 904.95 344.26 870.64 449.14 778.01 547.01 904.92 525.20
00005365 00000055 587.46 97.82 374.38 559.44 744.30 373.54 904.33 347.84 871.96 451.97 778.94 551.22 905.14 530.34
00005366 00000056 587.13 99.96 374.11 563.86 746.54 374.41 901.82 350.37 871.05 455.16 777.30 552.90 901.33 533.53
00005367 00000057 586.46 102.54 374.58 565.80 748.54 376.58 900.36 353.02 871.17 457.62 775.84 553.90 898.37 535.02
00005368 00000058 586.90 103.27 374.26 566.12 749.71 377.80 900.99 354.22 872.17 459.28 775.91 554.64 898.45 535.77
00005369 00000059 587.66 104.11 373.76 565.19 749.49 378.55 900.58 355.61 870.83 460.46 774.39 553.95 897.87 535.66
00005370 00000060 588.53 105.10 372.90 563.94 749.52 378.51 900.86 356.11 870.86 460.40 773.95 553.46 898.14 535.67
00005371 00000061 589.15 103.60 372.52 564.79 749.58 378.32 901.16 355.95 871.08 460.68 774.27 553.29 898.78 535.57
00005372 00000062 589.25 103.42 372.88 565.41 750.38 379.20 900.94 356.53 871.48 460.79 774.45 553.10 898.72 535.12
00005373 00000063 588.99 103.14 372.75 566.60 748.83 378.97 899.62 356.51 869.90 461.11 773.38 553.22 898.89 535.36
00005374 00000064 587.13 105.53 374.31 569.21 744.60 383.74 894.49 359.04 864.82 462.63 767.98 554.95 896.12 535.29
00005375 00000065 584.24 109.56 370.72 566.45 734.13 387.04 886.64 361.51 852.39 465.64 759.88 556.57 890.24 535.83
00005376 00000066 578.72 110.60 368.35 562.68 723.16 390.15 876.66 360.43 839.86 467.33 754.42 557.01 884.58 532.54
00005377 00000067 574.53 113.10 365.70 560.77 719.42 396.69 870.25 362.29 837.15 473.30 749.93 558.68 879.67 530.53
00005378 00000068 572.79 117.39 362.94 557.53 718.02 398.69 866.58 365.33 834.29 477.68 748.08 560.13 874.45 532.86
00005379 00000069 571.34 117.15 364.72 559.92 717.53 400.52 865.16 367.02 833.19 480.13 747.75 561.41 874.35 533.74
00005380 00000070 571.98 118.18 363.15 560.73 716.78 402.12 864.30 368.66 832.40 482.89 747.71 563.45 874.33 535.72
00005381 00000071 570.54 119.45 364.28 560.07 714.77 400.30 863.62 368.89 829.98 483.22 745.07 562.94 872.01 536.96
00005382 00000072 568.34 118.60 366.48 558.28 711.04 397.06 862.84 368.18 825.69 480.57 740.26 559.38 870.53 535.53
00005383 00000073 568.62 117.59 366.88 557.04 708.09 392.63 862.36 366.51 821.68 477.26 736.24 555.75 869.10 534.29
00005384 00000074 571.76 113.15 367.68 559.71 710.00 388.22 864.85 366.43 822.06 472.05 737.51 552.71 870.87 534.64
00005385 00000075 578.01 112.20 368.67 558.88 715.49 389.73 870.63 368.57 825.93 467.88 740.04 550.81 874.51 533.23
00005386 DELETE   590.23 117.76 367.04 558.22 724.56 387.90 884.33 370.57 835.02 465.11 744.78 552.57 882.40 538.20
00005387 00000077 599.98 116.62 366.64 551.27 737.64 371.40 901.95 360.36 849.36 460.66 756.25 546.98 894.99 538.24
00005388 DELETE   608.68 101.86 373.23 545.78 754.13 353.56 918.35 346.05 870.05 448.45 772.45 531.33 909.01 525.79
00005389 DELETE   623.59 99.67 366.26 540.81 772.79 345.77 931.47 342.20 884.58 435.92 794.29 519.25 921.19 517.84
00005390 DELETE   640.10 94.66 365.18 545.15 790.09 345.74 943.38 339.45 901.95 431.29 813.71 518.66 935.34 514.45
00005391 00000081 653.57 99.14 367.27 539.07 805.95 344.63 962.44 340.03 917.72 433.87 828.83 520.93 948.84 517.61
00005392 00000082 666.20 105.23 368.20 533.24 820.75 342.51 979.89 337.97 935.39 436.24 838.68 524.08 959.98 521.30
00005393 00000083 677.26 97.52 368.09 543.75 831.36 338.74 991.61 336.28 948.92 435.48 845.15 524.61 971.06 523.90
00005394 00000084 683.40 96.12 370.52 548.34 838.90 335.95 997.84 334.65 955.19 436.48 850.26 523.98 979.01 524.27
00005395 00000085 688.60 100.42 367.35 540.32 841.53 335.04 1003.11 334.20 957.44 434.34 851.75 521.54 984.04 522.56
00005396 00000086 689.24 98.80 365.31 540.80 843.50 332.16 1003.83 333.39 959.05 429.89 850.91 515.24 986.56 518.13
00005397 00000087 689.71 98.28 363.36 539.50 841.58 329.93 1000.58 331.88 955.84 425.37 849.56 510.81 985.91 514.25
00005398 00000088 686.86 96.23 363.95 541.04 837.07 329.11 994.70 332.26 950.24 422.08 846.17 509.82 980.42 513.95
00005399 00000089 684.81 95.58 363.91 542.89 834.11 329.08 991.06 332.37 947.25 420.16 844.12 510.56 976.73 514.67
00005400 DELETE   682.04 98.14 363.33 539.30 829.80 329.12 987.04 332.30 943.48 417.11 840.28 509.72 972.24 513.86
00005401 DELETE   678.06 99.81 363.12 536.66 827.52 329.09 983.53 332.90 941.07 417.98 839.36 508.86 969.16 513.37
00005402 00000092 675.43 99.27 361.40 535.24 825.21 330.13 981.11 332.07 941.05 420.26 840.01 508.93 968.14 511.88
00005403 00000093 669.78 100.60 363.07 530.38 820.49 331.01 976.99 331.80 936.25 421.46 836.28 507.70 963.06 509.82
00005404 DELETE   663.34 101.31 361.89 529.60 814.85 331.27 971.19 332.85 927.75 421.45 830.88 507.23 954.26 509.83
00005405 00000095 655.37 97.08 362.06 540.31 807.44 331.42 960.61 332.70 918.82 420.03 822.93 507.39 945.92 509.57
00005406 00000096 643.32 92.95 365.57 548.07 796.84 330.93 948.23 333.64 907.40 417.09 812.46 506.92 935.90 510.36
00005407 00000097 628.46 90.15 365.05 551.19 789.06 329.90 936.56 332.45 901.25 417.20 801.55 506.45 922.32 510.45
00005408 00000098 621.66 84.53 361.60 557.96 779.10 327.47 928.56 330.25 891.07 417.03 790.43 505.24 914.91 509.38
00005409 00000099 621.18 84.88 360.80 553.88 774.61 325.66 930.42 326.37 891.30 417.36 783.17 506.51 921.88 508.94
00005410 00000100 617.14 81.71 360.09 548.18 767.19 324.57 924.65 326.54 884.47 414.03 778.26 501.09 917.30 504.51
00005411 00000101 616.72 80.21 359.95 543.10 764.49 324.08 924.37 326.81 881.35 413.16 775.70 497.91 916.28 501.97
00005412 00000102 618.79 79.25 359.54 544.93 767.42 322.41 926.55 325.95 883.56 412.99 778.37 497.45 918.81 502.17
00005413 00000103 620.94 80.10 360.35 547.42 772.63 321.46 931.80 325.99 888.40 414.23 781.61 499.60 921.57 505.26
00005414 00000104 621.33 72.74 359.36 562.60 786.73 325.13 935.34 328.85 899.58 419.08 794.07 494.41 923.20 499.75
00005415 00000105 624.22 71.84 359.44 559.83 788.81 324.78 939.42 329.26 903.43 416.78 797.09 496.20 926.62 501.85
00005416 00000106 628.30 73.96 360.05 553.22 790.50 324.90 942.36 329.17 903.89 416.06 798.97 495.81 928.81 500.96
00005417 00000107 631.45 76.69 360.91 544.99 792.11 326.02 946.93 329.49 905.29 414.49 802.57 495.92 933.75 499.85
00005418 00000108 632.17 79.37 362.73 538.32 788.03 322.35 939.97 324.00 902.50 403.58 808.90 494.41 930.04 497.59
00005419 00000109 634.97 80.66 361.48 538.08 789.71 324.29 939.28 324.21 902.92 405.91 811.11 495.47 930.69 497.29
00005420 00000110 636.12 83.29 361.89 539.39 790.18 326.89 940.03 326.32 903.54 408.24 811.69 497.35 932.20 498.64
00005421 00000111 639.39 84.91 359.51 539.50 790.48 329.40 942.95 328.98 906.28 410.59 812.09 500.98 935.31 502.52
00005422 00000112 640.13 84.88 360.64 542.85 790.48 330.04 945.16 330.94 906.93 412.77 811.58 504.06 936.45 506.55
00005423 00000113 641.11 86.31 360.55 545.61 790.99 331.62 945.20 332.77 906.73 414.20 811.43 505.07 937.61 507.58
00005424 00000114 640.31 87.36 361.74 549.29 792.06 331.78 943.04 332.55 905.40 414.49 812.41 505.07 935.80 507.11
00005425 00000115 637.76 87.54 364.28 550.70 792.68 332.25 940.29 332.29 903.49 416.34 813.17 505.84 932.45 507.17
00005426 00000116 636.19 88.08 363.78 548.65 792.53 333.77 939.36 332.41 903.82 418.24 812.96 506.77 931.22 507.26
00005427 00000117 632.97 87.22 363.66 550.24 790.99 335.70 935.94 333.15 902.29 419.43 811.78 507.14 928.67 506.72
00005428 00000118 630.84 90.69 362.84 548.48 790.84 335.19 935.76 333.54 902.12 420.99 810.28 508.09 926.12 508.52
00005429 00000119 627.63 88.62 362.47 550.27 788.42 335.46 932.89 334.79 899.15 421.55 808.00 509.15 923.17 510.35
00005430 00000120 622.61 84.57 363.36 554.42 783.32 335.23 928.60 331.08 895.45 422.58 803.48 510.08 920.84 508.48
00005431 00000121 621.36 81.79 365.87 552.31 777.39 334.63 935.42 326.74 897.22 424.28 796.53 516.89 927.62 511.36
00005432 00000122 616.23 82.74 368.63 554.34 770.35 338.45 928.63 326.33 892.02 425.46 793.80 519.72 925.59 510.16
00005433 00000123 610.75 87.68 369.70 551.32 764.55 345.25 921.61 328.84 886.29 426.86 790.08 524.47 920.06 511.06
00005434 00000124 604.87 94.10 368.88 545.49 758.61 354.30 917.53 338.69 882.11 429.67 783.48 527.62 914.70 515.00
00005435 00000125 599.58 91.64 368.98 547.00 755.23 357.30 913.57 340.16 880.37 429.42 777.81 523.43 912.38 510.24
00005436 DELETE   594.24 88.61 370.61 546.79 747.64 352.94 906.75 337.32 871.33 426.72 773.63 521.72 905.26 509.68
00005437 00000127 590.82 88.10 369.83 546.69 745.46 349.15 897.34 333.57 864.84 422.80 773.19 518.31 898.27 506.12
00005438 00000128 588.91 86.61 368.52 546.82 742.09 347.04 892.54 330.06 861.16 420.79 770.73 514.42 896.30 501.12
00005439 00000129 587.33 86.89 369.28 547.08 741.26 346.07 890.90 327.94 859.92 420.23 770.14 513.88 895.23 499.70
00005440 00000130 588.01 87.72 369.18 544.85 741.69 345.46 892.49 327.69 860.40 419.93 769.60 513.12 895.12 499.28
00005441 00000131 592.91 85.96 367.96 543.20 745.10 343.56 900.05 327.01 866.44 418.17 773.11 513.40 901.65 500.52
00005442 00000132 599.03 83.50 367.32 546.80 749.69 342.65 908.17 325.18 874.53 418.77 777.10 513.66 911.09 499.97
00005443 00000133 606.55 84.52 364.89 545.34 756.05 339.92 914.14 324.14 880.55 417.73 782.35 513.48 916.81 501.16
00005444 00000134 611.39 85.17 365.76 550.91 763.64 336.02 916.98 324.35 884.65 414.90 785.97 513.80 917.54 505.03
00005445 00000135 614.17 82.70 365.35 552.57 766.18 334.60 919.86 322.69 887.97 412.95 788.49 512.67 920.72 503.78
00005446 00000136 616.58 83.04 363.33 551.46 767.91 332.39 923.06 321.83 889.36 412.72 789.53 511.14 923.03 503.42
00005447 00000137 617.74 80.65 363.10 550.95 768.97 330.97 925.38 322.29 889.88 413.10 790.47 509.89 924.28 503.75
00005448 00000138 618.54 79.59 362.82 550.33 769.40 330.64 926.95 322.76 890.06 414.43 790.13 509.29 924.49 503.94
00005449 00000139 618.78 79.42 363.32 551.08 770.23 331.30 927.76 323.80 891.33 415.53 790.42 509.38 924.78 504.50
00005450 00000140 618.93 80.76 363.80 550.55 770.83 331.93 928.54 324.19 891.65 416.37 790.44 509.87 925.02 504.79
00005451 00000141 618.89 81.32 363.96 550.20 771.06 332.15 928.83 324.39 891.74 416.89 790.62 510.16 925.09 505.05
00005452 00000142 618.99 80.48 363.91 550.57 771.17 332.29 928.72 324.20 891.89 416.84 790.82 510.09 924.84 504.75
00005453 00000143 619.30 80.50 364.14 550.93 771.69 331.97 929.32 324.36 891.99 417.30 790.90 510.08 925.04 505.07
00005454 00000144 619.68 79.97 363.51 551.52 773.14 331.63 930.19 324.78 893.22 417.82 790.63 509.08 925.34 504.85
00005455 00000145 619.98 80.42 363.03 549.62 772.75 331.21 930.84 324.48 892.74 418.11 790.43 508.93 925.00 504.87
00005456 00000146 620.29 80.47 362.85 548.44 772.89 331.50 930.87 325.07 892.56 418.07 790.31 508.63 924.77 504.87
00005457 00000147 620.67 79.69 362.80 549.06 772.23 330.12 931.40 324.52 891.86 417.93 789.22 507.71 925.19 504.68
00005458 00000148 620.93 79.79 362.24 548.93 772.43 330.21 931.32 324.54 892.12 418.16 789.05 507.37 925.09 504.35
00005459 00000149 620.79 80.74 362.59 548.20 772.02 329.71 931.11 324.38 891.50 418.09 788.54 506.91 925.15 504.17
00005460 00000150 620.82 80.03 362.23 548.43 771.78 329.37 930.90 324.49 891.12 417.53 788.22 506.55 924.82 504.18
00005461 00000151 621.23 80.49 361.52 547.08 771.59 328.86 930.97 324.32 890.37 417.25 787.97 506.15 924.71 504.11
00005462 00000152 620.95 79.31 361.06 547.10 770.70 329.10 930.01 324.76 888.97 416.83 787.33 506.01 923.81 504.11
00005463 00000153 620.14 79.00 362.02 547.36 769.78 328.76 929.39 325.46 887.81 416.43 786.46 505.44 923.30 504.36
00005464 00000154 619.98 78.12 362.11 545.26 769.57 327.49 929.52 325.00 887.75 414.97 786.24 503.26 923.32 502.89
00005465 00000155 620.87 76.80 361.53 544.76 770.56 325.62 930.21 324.19 887.54 412.93 785.79 501.04 923.16 501.66
00005466 00000156 619.70 67.90 358.88 558.73 782.16 328.15 931.38 323.99 897.18 416.85 792.69 488.41 925.68 486.99
00005467 00000157 622.02 64.75 358.81 561.92 785.22 327.45 934.31 324.38 901.12 415.72 795.46 488.80 928.62 488.03
00005468 00000158 625.33 68.05 358.29 559.01 787.71 327.92 938.45 326.11 904.55 415.50 797.19 491.02 932.44 491.12
00005469 00000159 629.33 72.90 357.19 555.38 790.01 329.18 942.04 329.04 905.64 418.17 798.27 494.56 932.91 496.16
CROP_BBOX: 376 0 1236 802
