Video ID: 	nv5xct99MzA
H: 	1080
W: 	1920
FPS: 	29.97002997002997

FRAME INDEX X0 Y0 W H [Landmarks (5 Points)]

00006535 00000000 566.91 101.14 412.56 589.32 702.13 316.15 904.45 276.39 873.68 423.81 741.32 540.95 924.73 508.13
00006536 00000001 566.19 96.49 411.61 592.70 700.27 318.76 901.34 276.60 873.55 421.19 739.34 539.52 924.37 505.01
00006537 00000002 562.79 118.76 412.95 568.27 703.06 324.87 899.90 285.99 873.59 423.26 738.40 536.14 920.74 504.98
00006538 00000003 559.41 120.13 413.30 561.16 699.79 324.00 895.45 278.93 874.74 421.90 739.68 534.63 920.78 498.12
00006539 DELETE   557.27 106.73 414.52 566.53 693.43 314.16 891.16 263.04 872.49 411.09 743.22 532.97 923.16 490.30
00006540 00000005 557.67 96.03 414.29 570.52 688.56 308.35 887.02 250.97 869.88 403.83 745.03 531.01 924.85 482.91
00006541 00000006 555.83 96.52 413.84 569.75 684.38 304.86 880.76 243.00 868.58 399.33 745.67 531.15 923.02 479.10
00006542 00000007 550.58 96.95 418.70 569.98 684.51 302.13 880.95 242.47 867.18 398.14 748.48 531.12 922.28 480.48
00006543 00000008 555.27 96.02 413.46 571.71 687.86 301.73 884.38 240.56 872.26 398.51 752.03 533.14 924.61 481.39
00006544 00000009 557.49 94.48 412.57 573.26 690.24 301.20 888.12 241.49 874.15 398.45 753.67 532.74 927.85 482.18
00006545 00000010 560.11 96.85 409.57 569.71 694.05 299.30 892.22 240.52 877.15 398.26 756.76 532.55 928.84 482.95
00006546 00000011 561.55 93.51 406.64 571.46 697.69 297.50 894.91 240.75 882.27 395.06 759.58 531.99 929.29 484.12
00006547 00000012 563.87 91.60 405.71 570.18 699.76 294.33 896.69 238.81 882.06 393.91 761.95 530.09 929.38 483.12
00006548 00000013 565.56 89.34 404.63 568.44 702.06 293.98 898.56 238.57 885.03 392.42 764.27 528.10 930.94 481.22
00006549 00000014 563.51 88.49 408.21 568.65 703.93 292.12 899.86 238.34 888.74 391.62 765.84 526.55 931.35 481.09
00006550 00000015 562.59 84.39 411.88 571.19 706.98 291.49 903.40 239.70 891.93 389.83 769.28 525.33 934.84 481.47
00006551 00000016 561.66 90.84 413.98 564.29 709.05 290.97 904.49 239.33 893.49 389.82 771.87 524.73 935.46 481.19
00006552 00000017 562.49 88.92 413.70 566.20 710.23 289.41 905.30 238.93 894.45 387.98 774.00 523.68 935.80 480.90
00006553 00000018 560.53 86.80 416.20 572.87 709.98 288.02 903.66 238.14 895.29 387.31 771.78 523.33 933.96 481.31
00006554 00000019 558.88 81.85 421.40 589.50 710.34 287.38 905.06 238.44 895.88 386.23 768.78 523.42 936.28 482.42
00006555 00000020 560.39 85.90 420.93 600.83 712.19 285.15 906.19 243.90 896.29 387.67 763.97 525.79 932.07 491.91
00006556 00000021 560.99 93.00 420.87 601.70 713.29 287.02 905.41 248.99 895.88 388.93 763.26 529.50 929.13 498.58
00006557 00000022 561.84 110.11 417.97 587.88 721.37 295.04 900.15 253.41 902.43 389.16 763.27 535.42 918.82 500.49
00006558 00000023 561.36 107.25 418.19 591.04 719.24 298.83 900.05 254.65 902.14 392.27 763.42 538.69 920.20 501.50
00006559 00000024 558.53 105.20 420.61 585.67 719.07 299.79 900.14 253.20 902.94 396.46 763.43 536.68 919.78 497.53
00006560 00000025 554.78 89.63 423.36 591.68 711.84 291.86 902.42 243.29 899.30 393.60 774.48 536.81 928.22 496.09
00006561 00000026 551.27 84.94 426.48 588.07 710.23 292.56 901.36 241.50 895.62 392.71 779.86 534.40 932.31 490.88
00006562 00000027 554.22 83.75 421.75 585.03 709.39 292.47 902.10 240.26 894.55 392.82 783.90 535.73 934.13 490.85
00006563 00000028 558.17 83.06 418.98 585.52 710.97 296.75 902.69 242.63 894.93 394.47 785.82 537.16 935.93 490.90
00006564 00000029 559.28 84.64 419.97 589.16 710.89 299.88 904.18 243.09 895.69 398.09 785.03 541.74 936.90 493.43
00006565 00000030 560.94 87.82 417.80 591.31 710.44 302.04 903.71 244.55 896.00 401.20 782.32 545.15 934.86 496.52
00006566 00000031 560.86 89.31 418.26 590.65 710.67 304.50 902.84 245.79 896.85 402.30 779.53 545.27 933.81 495.88
00006567 00000032 562.73 91.79 416.97 585.30 712.39 303.68 905.91 243.12 901.51 402.33 779.29 543.78 936.39 493.42
00006568 00000033 563.11 86.84 419.30 584.05 714.23 303.35 908.90 241.20 903.89 399.70 780.28 539.98 940.35 488.51
00006569 00000034 565.58 83.66 417.53 583.81 715.34 303.63 910.23 240.74 904.91 397.98 782.45 539.40 942.41 487.38
00006570 00000035 564.58 84.56 420.16 583.46 718.55 304.03 911.48 241.29 908.35 399.49 784.55 538.69 943.30 487.05
00006571 00000036 566.45 83.00 418.93 584.80 722.45 304.35 914.27 242.30 912.36 401.08 786.24 538.31 943.91 487.54
00006572 00000037 571.57 84.84 414.32 583.88 726.85 307.48 916.67 247.24 918.07 402.01 788.55 537.34 946.83 488.43
00006573 00000038 572.37 89.65 414.82 579.34 729.85 308.72 919.41 252.09 919.56 403.36 789.37 537.02 948.30 491.19
00006574 00000039 572.03 95.99 416.71 574.04 732.37 313.85 918.82 257.33 919.54 404.93 789.74 536.69 948.58 491.19
00006575 00000040 581.22 102.66 414.64 571.71 738.79 311.87 928.72 264.06 919.57 401.87 801.49 540.64 958.93 502.19
00006576 00000041 584.08 105.16 414.13 569.73 748.80 328.47 927.52 276.59 931.00 407.31 805.06 540.41 959.35 500.79
00006577 00000042 584.29 101.19 417.80 578.17 750.23 332.21 930.32 276.23 931.85 410.76 802.00 542.99 958.86 500.25
00006578 00000043 587.34 106.16 416.81 578.06 750.90 330.29 931.10 280.54 932.28 413.69 802.67 545.28 957.76 506.91
00006579 00000044 589.95 113.99 416.28 575.19 749.82 334.58 932.55 282.58 930.58 424.00 801.08 551.94 957.57 511.41
00006580 00000045 590.05 119.20 415.23 570.99 747.51 341.74 933.55 288.46 925.44 431.82 796.47 555.80 956.63 514.03
00006581 00000046 589.75 116.39 416.66 571.89 745.61 347.58 935.62 294.03 920.35 439.94 802.17 560.81 959.80 517.99
00006582 00000047 591.22 121.57 417.73 565.17 749.59 348.32 934.47 300.34 915.15 447.06 813.64 561.56 958.04 522.72
00006583 00000048 594.65 131.43 415.91 560.10 751.84 348.73 935.11 304.20 915.47 450.03 817.91 563.82 958.67 527.37
00006584 00000049 598.43 126.09 413.07 567.54 752.83 347.88 937.52 304.56 916.33 450.79 821.19 567.41 960.38 531.76
00006585 00000050 600.53 129.98 422.34 567.77 760.84 346.75 940.67 307.58 913.92 444.98 828.18 570.40 962.25 535.16
00006586 00000051 603.64 129.48 425.02 573.63 761.77 348.04 943.14 308.84 915.02 447.78 830.72 573.39 965.64 537.82
00006587 00000052 607.29 128.61 424.76 577.57 763.87 350.05 945.36 308.06 919.41 447.18 834.16 577.34 968.25 539.55
00006588 00000053 611.38 134.76 424.86 577.36 767.11 347.52 948.03 308.56 921.69 443.21 834.17 577.84 966.82 542.66
00006589 00000054 614.28 136.16 424.29 578.14 770.28 345.49 953.00 306.02 929.23 441.83 830.72 574.34 972.72 539.44
00006590 00000055 616.70 133.25 426.62 580.70 773.72 348.08 958.44 303.49 937.89 438.79 826.54 569.58 978.57 531.54
00006591 00000056 623.58 123.23 419.76 585.80 780.04 346.94 964.65 304.19 944.70 435.20 826.00 564.32 980.90 528.22
00006592 00000057 626.63 118.55 417.01 584.11 783.28 345.35 970.14 303.27 949.18 436.17 821.71 557.48 982.73 522.59
00006593 00000058 629.85 111.40 414.22 585.86 786.21 342.98 974.07 302.09 951.59 436.10 822.12 552.49 985.49 518.80
00006594 00000059 632.50 104.46 410.73 591.72 784.34 334.87 977.86 295.20 957.64 427.01 820.41 550.56 990.36 519.31
00006595 00000060 633.49 103.75 411.22 585.62 784.18 332.91 981.97 294.63 957.61 425.33 822.50 548.80 994.61 518.38
00006596 00000061 632.93 101.17 412.90 583.52 785.77 332.47 983.15 296.36 955.76 423.83 826.25 547.02 995.11 518.03
00006597 00000062 633.81 99.86 412.72 582.46 786.48 331.37 984.69 296.71 955.43 422.27 827.98 546.55 995.37 518.49
00006598 00000063 633.26 104.13 413.37 577.23 786.22 331.76 985.32 297.92 954.60 421.86 828.82 546.26 995.85 518.73
00006599 00000064 633.87 104.35 412.21 576.95 786.61 331.86 986.94 299.40 955.52 421.45 828.85 546.39 997.39 519.91
00006600 00000065 632.22 106.80 413.19 575.40 786.54 332.21 986.32 300.39 955.25 422.38 828.69 547.69 995.10 521.90
00006601 00000066 632.60 106.99 411.81 574.10 786.21 333.68 986.59 305.20 952.53 423.62 828.38 548.33 994.28 525.00
00006602 00000067 630.98 113.02 411.27 570.46 783.37 337.24 983.24 309.43 949.86 427.26 824.03 550.82 990.43 528.29
00006603 00000068 626.98 121.32 416.05 559.23 784.40 342.18 977.33 315.45 942.74 437.97 824.63 552.95 984.05 529.47
00006604 00000069 624.25 135.36 416.53 548.25 779.24 342.97 971.24 315.38 936.79 438.97 824.10 557.26 979.90 532.93
00006605 00000070 621.45 137.06 416.29 549.43 774.67 344.04 966.74 316.61 930.83 441.06 821.86 560.57 975.17 535.95
00006606 00000071 615.62 134.96 419.49 554.35 769.53 344.66 960.62 315.77 926.06 442.94 820.33 562.41 973.00 536.25
00006607 00000072 611.40 139.27 423.15 553.68 766.33 346.55 957.59 317.92 920.77 444.82 820.85 564.99 972.64 538.65
00006608 00000073 609.95 143.96 423.86 550.37 765.28 348.26 954.80 320.37 915.85 448.92 820.49 566.52 969.36 540.68
00006609 00000074 609.68 149.58 425.74 549.58 764.01 350.62 953.56 322.01 913.07 452.31 822.32 570.06 968.27 543.34
00006610 00000075 609.05 143.16 428.33 562.43 763.27 353.90 952.80 325.60 911.34 456.63 822.53 573.25 968.52 546.61
00006611 00000076 609.09 148.35 429.57 561.28 762.26 354.75 952.31 326.61 910.56 459.21 822.23 576.24 967.76 549.71
00006612 00000077 609.18 149.00 430.84 564.48 761.96 355.69 951.33 328.31 909.00 460.61 822.21 578.46 966.87 552.60
00006613 00000078 609.41 151.92 433.14 565.50 763.21 357.43 953.39 331.57 910.56 462.21 821.45 580.46 968.61 556.11
00006614 00000079 610.88 144.20 432.29 577.78 764.69 359.29 954.74 333.45 912.62 463.58 823.64 584.01 970.07 559.64
00006615 00000080 612.20 145.90 430.62 583.54 765.91 360.14 957.15 335.77 915.18 467.01 821.60 590.76 966.99 567.86
00006616 00000081 613.79 147.53 428.70 589.29 766.40 359.55 958.98 337.20 918.46 468.55 814.61 593.94 964.69 573.28
00006617 00000082 616.56 151.31 427.17 591.12 766.12 362.04 961.46 338.25 922.31 470.86 808.05 595.08 966.70 573.85
00006618 00000083 617.44 152.74 427.24 592.64 765.76 364.83 963.52 338.97 925.04 473.64 801.26 594.15 969.55 571.88
00006619 00000084 618.44 157.44 427.87 586.23 765.77 368.57 964.28 339.82 926.25 475.92 800.38 593.88 972.70 569.64
00006620 00000085 619.05 154.52 427.96 587.50 766.58 372.11 965.47 341.41 927.80 477.50 801.02 594.09 975.46 568.38
00006621 00000086 618.58 164.02 429.94 573.74 767.38 371.81 967.80 340.52 930.30 477.43 803.79 594.08 977.49 567.83
00006622 00000087 619.33 167.45 431.83 565.12 768.33 370.28 968.06 334.47 933.90 477.56 807.65 593.77 979.77 563.91
00006623 00000088 623.08 161.92 428.43 567.19 771.28 369.49 971.32 333.95 936.33 476.86 810.81 593.96 981.48 564.32
00006624 00000089 622.68 162.64 428.90 564.21 771.40 365.62 973.73 331.93 936.15 477.50 810.78 592.50 981.33 564.16
00006625 00000090 621.67 162.54 429.01 560.58 772.31 363.78 974.43 335.19 933.60 475.38 810.46 588.32 979.50 564.02
00006626 00000091 622.08 156.65 428.86 564.78 774.36 361.61 976.38 335.21 933.33 473.67 811.52 585.82 979.42 563.22
00006627 00000092 621.22 151.78 428.74 567.17 774.40 359.09 975.77 333.74 933.11 470.26 812.44 582.64 978.98 560.67
00006628 00000093 619.56 148.14 430.52 570.45 774.92 357.15 974.95 331.10 933.32 467.77 814.92 581.10 978.52 558.32
00006629 00000094 619.39 149.23 430.67 567.91 776.91 356.03 975.55 331.25 933.48 466.50 815.91 578.67 978.03 557.04
00006630 00000095 619.60 152.37 430.32 563.69 777.21 354.36 975.08 331.25 932.71 465.41 816.96 577.55 977.29 557.11
00006631 00000096 618.46 146.38 430.38 572.21 777.24 353.73 975.67 330.94 934.15 463.78 817.75 578.42 977.28 558.12
00006632 00000097 617.03 145.49 431.59 576.41 775.74 350.50 972.91 330.18 930.92 461.38 816.99 578.51 973.90 559.99
00006633 00000098 616.84 152.49 431.75 572.75 773.13 346.82 967.95 327.83 926.63 456.85 815.88 578.16 970.97 560.59
00006634 00000099 617.89 146.12 430.36 577.90 773.89 347.16 965.77 327.56 925.12 453.29 817.82 575.30 971.14 557.06
00006635 00000100 617.68 152.63 429.98 566.80 772.19 346.01 961.43 324.31 922.51 451.75 820.43 572.55 970.68 552.21
00006636 00000101 616.99 154.89 430.86 560.19 770.54 347.19 957.75 324.44 918.29 450.38 822.08 570.60 969.21 549.06
00006637 00000102 610.92 151.69 435.68 560.92 765.91 345.66 952.56 317.82 913.85 447.76 822.47 570.30 968.08 544.31
00006638 00000103 612.35 155.79 432.87 550.65 761.46 346.94 947.92 316.53 906.35 448.75 821.71 569.14 965.74 540.86
00006639 00000104 608.78 152.61 431.73 548.29 757.74 349.25 943.82 315.87 900.37 448.94 821.66 568.28 965.82 537.12
00006640 00000105 605.97 145.97 431.43 552.80 753.06 354.86 939.33 314.16 896.42 446.87 820.70 569.74 967.57 532.44
00006641 00000106 605.73 137.22 425.09 553.98 745.26 358.29 936.62 314.68 894.20 450.59 813.73 565.13 965.05 528.57
00006642 00000107 605.55 144.87 431.02 546.65 751.37 358.12 938.97 310.82 897.34 447.53 822.59 570.06 971.98 527.33
00006643 00000108 607.78 147.29 432.27 542.50 753.52 358.39 942.60 310.51 899.57 450.16 824.47 569.60 976.16 526.48
00006644 00000109 611.47 145.78 432.58 546.89 756.72 359.24 945.72 312.01 902.97 452.79 826.38 570.35 978.76 527.66
00006645 DELETE   616.28 146.49 431.85 546.75 759.83 360.97 949.60 313.60 907.11 454.55 828.84 571.04 982.43 528.30
00006646 00000111 620.77 144.21 429.92 549.48 764.89 361.16 954.48 314.99 913.88 453.88 832.90 570.80 986.33 529.25
00006647 00000112 623.48 145.70 429.50 547.95 767.60 360.86 958.22 314.41 917.40 453.46 834.97 572.25 988.31 530.76
00006648 00000113 627.36 144.66 426.97 546.94 769.58 360.26 960.97 312.80 920.24 452.82 836.08 572.30 990.28 530.11
00006649 00000114 628.56 145.45 428.01 546.01 771.09 360.06 962.96 312.72 921.84 453.07 837.30 571.90 992.31 529.88
00006650 00000115 629.02 142.67 427.07 549.22 771.04 360.09 962.78 313.05 921.89 453.04 836.70 571.93 991.89 530.16
00006651 00000116 627.16 142.34 426.97 551.37 769.83 359.83 961.40 313.86 920.86 453.36 835.44 572.53 990.18 531.67
00006652 00000117 622.44 140.33 429.63 555.20 767.62 359.18 959.47 314.95 918.89 454.31 833.56 572.27 988.04 532.60
00006653 00000118 616.68 139.31 430.24 557.10 764.59 356.86 956.09 315.71 914.49 454.19 829.43 571.60 981.75 534.16
00006654 00000119 612.14 139.87 431.11 557.25 759.07 356.35 950.79 314.73 907.41 456.63 824.78 571.64 977.70 533.63
00006655 00000120 607.30 150.79 432.37 547.26 754.33 355.55 946.20 314.49 901.31 455.95 820.86 572.57 973.78 534.96
00006656 DELETE   602.36 152.06 434.04 549.27 750.50 354.53 943.16 314.32 896.35 454.58 816.66 573.48 969.67 536.76
00006657 DELETE   599.01 155.25 432.09 545.72 747.17 353.69 940.01 315.74 892.74 452.40 812.87 572.72 965.63 538.26
00006658 00000123 594.66 150.08 430.94 554.66 744.13 352.26 935.54 312.50 889.09 451.02 809.59 573.67 960.60 537.91
00006659 DELETE   591.55 145.89 430.74 563.53 741.40 349.36 933.47 311.26 886.84 449.12 805.71 573.01 956.89 538.66
00006660 00000125 588.97 146.83 432.31 571.35 736.72 347.54 928.38 309.91 882.46 445.25 801.38 574.83 954.21 540.66
00006661 00000126 588.61 146.26 430.02 575.22 733.82 347.02 925.33 309.83 879.06 445.66 797.06 575.58 952.35 542.31
00006662 00000127 587.62 148.03 429.81 573.40 730.11 346.49 924.31 309.26 876.82 445.73 792.25 575.25 953.63 541.99
00006663 00000128 584.82 134.11 430.32 582.92 726.31 358.41 922.51 315.00 879.94 459.33 788.25 577.18 949.83 542.23
00006664 00000129 586.46 131.50 429.47 580.07 729.04 358.64 925.37 316.29 882.07 460.93 789.24 574.92 951.74 540.67
00006665 00000130 586.06 128.79 429.74 576.45 729.96 358.93 927.18 317.13 882.63 463.26 790.73 573.21 952.88 539.25
00006666 00000131 587.38 125.43 428.36 577.76 730.72 359.49 926.84 316.92 883.23 464.67 793.25 573.80 954.22 539.26
00006667 00000132 587.98 121.78 428.71 581.72 731.99 360.18 927.41 317.58 883.49 465.49 795.34 575.37 953.63 540.99
00006668 00000133 588.98 121.45 428.29 582.57 734.29 360.53 927.13 318.30 884.58 466.42 797.75 575.63 953.29 541.60
00006669 00000134 591.24 118.73 427.19 585.02 735.42 359.21 928.92 317.36 885.11 466.59 799.38 576.50 954.22 542.72
00006670 00000135 592.22 120.57 426.64 582.12 735.95 358.59 930.46 317.54 886.05 468.26 800.54 577.13 953.89 544.02
00006671 00000136 593.69 122.56 425.37 580.68 736.63 360.31 930.98 318.28 887.47 470.43 801.69 578.79 954.76 544.75
00006672 00000137 594.02 127.63 425.52 577.60 736.15 361.93 932.20 319.77 888.30 472.88 801.74 580.44 955.70 546.31
00006673 00000138 596.19 126.43 424.60 581.81 736.72 363.77 934.39 321.26 890.10 474.51 801.59 583.63 956.59 549.11
00006674 00000139 597.94 129.83 423.78 582.50 737.25 367.93 935.90 324.14 891.37 476.90 801.51 585.94 957.88 550.38
00006675 00000140 599.71 137.63 427.13 581.88 743.15 363.35 937.73 325.15 890.59 466.53 806.72 586.78 959.88 552.91
00006676 00000141 601.60 137.02 428.42 588.48 744.93 363.78 939.24 326.19 892.05 468.15 806.42 588.93 958.15 555.69
00006677 00000142 601.18 137.69 428.83 596.36 743.51 363.75 939.83 326.01 893.00 468.51 800.48 593.78 958.16 560.71
00006678 00000143 601.92 139.55 428.35 596.24 742.79 364.00 940.20 325.50 893.97 469.29 800.17 595.99 959.27 562.31
00006679 00000144 601.77 139.39 429.24 595.46 742.50 364.78 940.13 326.87 893.59 469.66 799.99 595.49 960.31 562.13
00006680 00000145 602.60 138.54 428.50 592.66 743.31 368.72 940.61 330.19 893.54 471.47 799.73 594.46 960.51 561.05
00006681 00000146 604.46 139.15 426.42 588.54 743.91 370.75 941.28 331.31 893.77 473.16 802.36 594.50 961.27 560.42
00006682 00000147 605.01 145.33 426.35 578.95 744.98 374.19 941.28 333.09 895.34 474.56 805.29 593.26 963.44 557.97
00006683 00000148 605.68 145.80 425.64 575.57 745.25 375.91 942.17 333.46 896.99 475.99 806.96 592.57 967.06 555.86
00006684 00000149 606.93 148.25 423.09 570.11 745.19 377.35 943.39 335.23 898.47 478.53 804.14 592.14 967.49 556.05
00006685 00000150 606.84 146.65 424.41 571.37 744.25 378.79 943.74 336.62 898.14 481.13 802.47 592.18 968.42 556.17
00006686 00000151 605.96 148.89 424.48 570.01 744.76 379.88 943.72 337.36 899.59 482.24 802.34 592.56 967.88 556.55
00006687 00000152 606.30 151.16 424.11 568.41 744.72 380.91 944.24 338.41 899.68 484.97 802.37 593.60 968.11 557.73
00006688 00000153 606.29 150.67 423.67 569.17 744.68 380.84 944.61 339.35 899.32 485.55 802.78 594.59 967.88 559.41
00006689 00000154 606.35 149.92 423.72 570.66 744.88 381.21 944.52 339.50 899.97 486.32 803.85 595.53 968.50 560.06
00006690 00000155 607.38 153.95 422.60 567.99 744.71 380.20 945.20 340.24 899.01 487.05 804.60 596.54 967.58 562.36
00006691 00000156 608.94 154.12 421.26 569.79 745.33 381.43 945.73 342.78 898.82 488.22 805.04 597.40 967.63 564.33
00006692 00000157 610.89 159.91 420.12 565.40 746.15 381.77 945.43 344.10 897.61 490.15 807.51 598.99 966.76 566.62
00006693 00000158 611.34 158.04 419.09 569.16 746.02 384.21 944.95 345.81 898.06 491.93 807.85 600.72 967.10 568.06
00006694 00000159 612.90 154.96 417.46 574.42 745.84 385.74 944.90 347.21 898.00 493.22 806.60 603.20 966.86 570.81
00006695 00000160 612.50 153.72 417.92 577.47 746.02 386.68 945.48 349.12 898.80 493.86 805.76 604.26 967.34 572.63
00006696 00000161 612.04 145.77 418.97 585.80 745.99 388.37 945.27 349.88 898.64 494.72 805.92 605.56 967.75 573.18
00006697 00000162 611.93 147.96 418.79 584.64 745.93 388.57 945.17 350.77 898.06 494.58 806.26 606.03 967.26 574.24
00006698 00000163 612.70 148.60 418.00 584.48 745.52 389.30 945.56 351.65 897.87 495.70 806.19 607.13 967.95 575.32
00006699 00000164 612.16 146.71 419.04 587.69 745.44 390.29 945.02 352.39 896.76 496.80 806.17 607.80 967.90 575.78
00006700 00000165 611.81 148.62 418.35 587.27 744.48 391.55 944.60 354.27 895.60 498.14 804.71 608.77 967.22 577.34
00006701 00000166 611.68 152.50 418.71 584.94 743.82 391.74 944.65 354.30 895.54 498.79 804.36 609.51 967.52 577.95
00006702 00000167 611.63 153.47 418.61 583.98 743.81 392.51 943.97 355.29 895.09 499.29 804.01 609.51 967.06 578.19
00006703 00000168 610.99 154.54 418.41 582.65 742.94 392.64 943.56 355.25 894.69 499.52 803.97 610.20 967.27 578.63
00006704 00000169 610.42 155.41 418.01 581.61 742.43 393.53 943.03 355.63 894.39 499.88 802.60 609.95 966.54 578.23
00006705 00000170 609.18 154.97 418.50 582.66 742.08 393.61 941.04 355.37 893.37 499.56 802.12 609.36 964.83 577.42
