Video ID: 	5rF0TEnGgrg
H: 	1080
W: 	1920
FPS: 	23.976023976023978

FRAME INDEX X0 Y0 W H [Landmarks (5 Points)]

00029309 00000000 798.51 139.83 443.45 608.42 927.44 402.48 1135.04 375.58 1054.20 493.25 982.26 615.30 1145.33 593.95
00029310 DELETE   795.03 145.42 442.90 605.43 913.85 400.37 1124.39 376.27 1033.89 494.32 966.07 617.54 1126.69 598.91
00029311 00000002 795.10 145.67 439.15 606.67 905.23 398.53 1113.65 380.60 1014.79 498.51 948.63 618.57 1105.97 605.20
00029312 00000003 794.50 147.51 437.85 607.74 897.87 397.54 1108.51 387.50 1001.06 507.94 934.51 624.47 1094.99 615.91
00029313 00000004 795.93 144.08 437.83 616.60 895.72 397.12 1109.46 393.62 993.41 512.68 921.79 627.33 1086.52 624.80
00029314 00000005 797.24 144.45 437.63 614.89 894.32 397.63 1108.14 395.94 988.37 513.37 916.59 625.41 1083.04 624.35
00029315 00000006 797.22 144.37 439.59 613.19 894.29 395.35 1107.59 395.13 986.82 509.05 914.88 623.35 1078.95 623.56
00029316 00000007 797.85 145.54 437.06 614.66 898.05 394.08 1109.48 397.19 994.29 503.58 913.28 618.53 1070.76 622.81
00029317 00000008 803.00 146.74 439.33 608.87 909.12 392.89 1121.63 395.41 1007.80 502.74 926.86 615.91 1087.21 619.43
00029318 00000009 806.03 149.02 440.91 618.00 912.84 393.16 1125.61 392.79 1012.35 504.19 934.20 624.55 1093.37 625.42
00029319 00000010 812.66 150.36 435.55 621.92 919.42 390.16 1136.73 390.85 1025.98 502.24 936.43 627.59 1107.37 627.99
00029320 00000011 807.95 151.39 439.69 613.10 916.18 393.98 1128.71 392.70 1017.47 505.77 936.63 622.50 1099.88 622.38
00029321 00000012 806.16 153.11 439.41 606.70 914.16 395.16 1128.68 393.54 1017.72 507.30 933.18 619.01 1101.34 618.56
00029322 00000013 803.92 151.69 439.58 609.69 912.40 394.53 1125.68 393.16 1015.45 507.61 932.05 619.47 1098.05 619.37
00029323 00000014 804.67 152.20 438.94 614.44 909.63 393.31 1123.64 391.49 1011.77 507.71 931.51 622.95 1096.31 622.45
00029324 00000015 808.94 150.62 436.85 620.14 911.14 389.37 1131.67 387.76 1019.63 505.83 930.03 625.61 1107.12 623.83
00029325 00000016 804.52 148.46 439.07 624.20 908.70 393.00 1122.21 388.95 1010.65 505.80 932.31 624.97 1096.68 622.67
00029326 00000017 809.62 147.20 435.19 625.99 911.09 389.46 1130.25 387.12 1019.14 504.04 930.05 624.32 1107.70 622.09
00029327 00000018 809.41 147.75 435.55 625.40 910.52 389.38 1129.60 386.96 1017.89 503.46 929.76 624.60 1106.31 622.30
00029328 00000019 807.61 143.65 437.29 631.09 908.29 390.25 1126.32 387.67 1014.21 504.60 926.85 625.71 1101.81 623.32
00029329 00000020 807.53 144.44 438.64 632.37 907.17 390.51 1125.11 388.09 1012.31 507.31 925.82 628.29 1098.06 626.31
00029330 00000021 808.59 145.56 438.25 635.36 907.09 391.49 1125.02 388.63 1011.64 509.68 926.60 631.71 1098.26 629.50
00029331 00000022 809.05 147.00 437.81 636.16 906.62 392.65 1124.78 388.94 1011.07 512.56 926.91 633.65 1099.40 630.80
00029332 00000023 808.30 149.58 438.92 636.85 906.97 393.43 1125.98 389.28 1013.13 514.33 928.19 635.90 1101.01 632.83
00029333 00000024 808.51 149.61 438.58 640.65 908.49 394.41 1127.16 389.32 1015.67 515.20 930.33 638.21 1103.25 634.46
00029334 00000025 808.46 149.45 438.96 643.33 910.90 395.07 1127.71 390.20 1018.45 514.69 933.31 639.55 1104.92 636.02
00029335 00000026 809.42 149.42 439.34 643.68 912.60 394.85 1128.30 389.12 1021.59 516.64 936.87 640.22 1107.88 635.79
00029336 00000027 809.55 148.97 438.29 644.26 913.07 393.87 1127.79 387.60 1021.81 513.62 937.46 639.38 1107.99 634.52
00029337 00000028 807.20 145.99 440.07 645.89 906.80 393.01 1124.54 385.09 1013.62 509.74 931.75 639.36 1102.75 633.14
00029338 00000029 805.81 142.50 438.99 648.58 900.69 392.86 1116.70 385.43 1003.56 508.87 923.07 636.16 1095.90 630.25
00029339 00000030 803.00 141.93 441.12 645.68 892.40 393.35 1112.69 386.03 993.70 511.82 913.31 636.16 1090.63 630.09
00029340 00000031 803.20 147.91 440.27 637.17 890.27 395.68 1108.71 390.12 989.22 517.18 909.20 634.24 1084.89 629.58
00029341 00000032 804.90 152.23 440.91 629.90 892.64 396.78 1112.92 390.88 993.39 520.50 914.26 635.07 1089.52 630.25
00029342 00000033 805.41 152.66 441.11 628.69 894.11 398.87 1118.83 393.02 998.37 523.54 918.03 638.30 1097.15 633.19
00029343 00000034 808.07 151.91 439.62 632.16 897.66 401.49 1121.52 395.98 1002.41 523.20 920.50 641.88 1098.38 637.31
00029344 00000035 810.31 156.03 438.04 634.47 901.66 404.30 1121.59 399.98 1003.66 524.17 923.03 646.43 1096.28 643.50
00029345 00000036 812.39 160.81 437.36 637.12 902.96 406.99 1120.67 403.52 1002.11 528.54 923.80 649.98 1095.78 647.92
00029346 00000037 812.35 163.90 436.54 633.90 903.76 408.92 1120.42 406.73 1002.11 528.80 922.88 650.40 1093.10 649.58
00029347 00000038 810.16 165.56 439.17 625.85 904.14 409.76 1123.01 410.02 1002.90 529.84 922.10 647.53 1092.92 648.53
00029348 00000039 808.02 166.43 440.97 617.77 904.84 409.81 1124.37 411.14 1005.21 531.67 921.79 643.31 1094.07 645.09
00029349 00000040 806.87 166.01 442.75 615.22 905.50 409.41 1128.65 410.01 1009.80 531.90 924.09 641.89 1100.17 642.76
00029350 00000041 810.91 169.24 439.60 613.98 911.98 410.69 1133.23 410.95 1015.17 532.22 930.71 641.44 1108.73 641.95
00029351 00000042 812.65 172.07 441.89 611.02 921.25 414.03 1140.07 414.98 1027.31 535.11 941.22 640.34 1119.30 641.23
00029352 00000043 815.81 173.87 442.60 609.72 929.13 414.27 1146.04 411.46 1041.86 531.11 955.46 641.49 1130.62 639.23
00029353 00000044 818.36 175.86 443.75 607.46 935.69 418.35 1151.74 411.17 1052.72 533.50 967.75 643.29 1141.70 637.31
00029354 00000045 820.30 178.40 442.04 604.77 941.47 421.25 1156.55 411.58 1060.94 536.76 977.95 643.81 1152.56 635.76
00029355 00000046 823.90 175.73 441.49 608.26 948.55 425.73 1163.74 416.03 1069.74 539.30 986.82 647.14 1161.40 638.87
00029356 00000047 825.84 172.14 443.46 613.09 956.91 428.09 1168.04 416.19 1081.64 544.95 996.60 649.64 1165.53 639.25
00029357 00000048 826.59 170.86 445.10 615.88 961.00 429.29 1169.96 414.64 1087.71 549.54 1002.80 652.13 1167.73 639.44
00029358 00000049 828.18 168.93 447.15 619.20 965.77 428.25 1174.37 412.77 1093.47 551.19 1007.44 651.70 1172.69 638.34
00029359 00000050 830.91 169.91 445.71 617.18 968.34 424.64 1178.73 410.93 1096.48 547.65 1010.66 650.79 1175.41 638.59
00029360 00000051 832.59 167.68 444.75 620.22 968.82 421.05 1179.24 408.78 1096.77 543.79 1011.79 649.86 1175.90 638.58
00029361 00000052 832.87 162.34 445.34 626.52 969.51 417.95 1179.32 405.94 1097.60 539.67 1012.54 649.33 1174.80 638.10
00029362 00000053 834.46 157.65 445.30 629.96 970.35 414.55 1180.26 403.16 1098.11 534.98 1012.03 647.37 1173.93 636.66
00029363 00000054 840.84 151.86 441.71 636.43 972.76 408.05 1185.91 399.74 1099.40 528.21 1010.94 646.53 1174.58 638.28
00029364 00000055 844.85 150.56 439.78 637.55 975.88 405.21 1188.85 399.18 1101.35 526.84 1011.73 645.69 1175.32 639.38
00029365 00000056 851.10 152.68 435.71 635.77 981.33 403.46 1194.12 398.57 1105.35 526.50 1013.99 645.40 1177.55 640.25
00029366 00000057 857.00 153.98 432.69 634.36 987.85 400.84 1199.39 396.88 1113.28 525.38 1018.74 644.66 1180.90 640.26
00029367 00000058 861.36 156.63 437.37 631.91 993.78 395.52 1208.19 398.63 1117.06 521.92 1014.61 636.23 1184.30 639.11
00029368 00000059 865.01 156.04 438.37 631.23 997.62 393.84 1212.29 396.99 1121.47 521.38 1017.36 634.90 1188.42 637.67
00029369 00000060 868.24 156.76 438.97 629.66 1001.03 393.51 1215.90 396.46 1125.26 521.02 1021.39 634.35 1191.46 636.83
00029370 00000061 871.16 157.55 438.65 626.29 1004.18 393.79 1217.34 397.27 1128.35 518.18 1025.35 632.55 1194.32 635.28
00029371 00000062 872.42 155.21 441.16 628.19 1009.14 391.77 1222.73 397.21 1135.10 516.26 1030.06 631.22 1198.10 635.40
00029372 00000063 874.52 155.03 441.40 629.51 1012.82 390.62 1225.37 397.76 1139.26 515.22 1030.70 630.30 1198.53 636.05
00029373 00000064 874.85 153.62 442.14 628.98 1014.48 390.30 1227.13 399.37 1139.77 515.34 1031.65 627.43 1199.77 634.55
00029374 00000065 875.46 156.26 444.69 609.59 1015.27 398.11 1230.16 401.63 1141.21 520.07 1038.49 626.25 1200.69 630.48
00029375 00000066 876.97 158.89 444.82 607.17 1013.93 400.88 1229.50 404.33 1138.63 522.85 1036.40 628.47 1200.60 632.49
00029376 00000067 880.07 161.90 441.26 621.79 1011.26 399.18 1227.62 407.32 1133.54 523.21 1028.61 634.57 1201.20 641.18
00029377 00000068 880.25 167.46 441.18 625.49 1009.79 401.90 1225.97 410.89 1132.14 525.73 1026.05 638.75 1200.12 646.53
00029378 00000069 882.30 167.57 439.53 630.95 1009.48 403.87 1225.52 413.42 1131.17 528.00 1026.40 643.68 1199.11 651.97
00029379 00000070 883.11 168.96 439.33 631.12 1008.43 405.23 1225.77 416.87 1127.11 529.21 1021.95 644.22 1196.70 654.26
00029380 00000071 882.35 169.71 438.39 627.74 1007.97 405.25 1226.00 418.32 1126.25 528.56 1019.14 642.26 1194.12 653.51
00029381 00000072 882.51 170.96 438.48 621.47 1007.81 405.68 1225.86 419.02 1123.77 528.25 1017.38 639.07 1193.28 650.61
00029382 00000073 881.87 170.69 437.63 617.15 1007.02 405.19 1224.04 419.59 1120.83 527.98 1015.73 637.06 1189.16 649.58
00029383 00000074 880.81 171.62 437.56 614.61 1006.39 407.05 1222.92 420.66 1120.32 528.13 1016.78 637.28 1188.73 649.18
00029384 00000075 880.63 172.02 437.89 613.74 1006.18 407.65 1223.29 420.66 1120.54 528.45 1017.00 637.84 1189.21 649.27
00029385 00000076 879.91 171.24 437.77 616.03 1004.51 409.84 1222.41 422.15 1118.92 530.02 1015.94 640.28 1187.53 651.17
00029386 00000077 877.57 172.57 436.49 617.70 1001.78 414.25 1220.11 424.11 1118.21 533.82 1016.10 644.60 1188.24 653.55
00029387 00000078 874.44 178.31 436.97 619.66 1001.82 423.76 1218.63 431.00 1119.37 546.28 1017.24 653.22 1188.88 660.41
00029388 00000079 872.08 181.64 438.06 621.51 1000.71 427.61 1217.59 433.53 1119.66 549.87 1016.67 657.09 1188.76 663.33
00029389 00000080 869.38 182.52 438.14 623.72 999.17 429.53 1217.26 433.61 1119.50 553.42 1016.58 659.48 1189.57 664.23
00029390 00000081 869.21 182.19 436.51 624.69 997.99 432.47 1215.55 435.20 1118.13 555.71 1016.67 661.81 1188.31 665.50
00029391 00000082 866.04 181.95 436.49 628.23 994.32 434.04 1210.57 435.53 1114.54 555.78 1014.09 663.50 1184.71 666.19
00029392 00000083 863.22 184.54 435.43 629.94 989.97 436.57 1206.71 437.34 1111.81 558.20 1010.90 667.79 1181.28 669.97
00029393 00000084 861.32 185.54 435.09 630.48 985.11 438.18 1203.39 439.40 1107.44 559.29 1006.36 670.32 1177.95 672.86
00029394 00000085 860.56 184.95 433.53 632.71 980.78 438.69 1199.61 440.56 1103.45 558.67 1002.05 673.14 1170.88 676.31
00029395 00000086 853.85 186.46 433.22 632.26 978.02 442.53 1188.35 442.10 1093.63 570.04 1004.08 678.74 1164.98 678.68
00029396 00000087 848.81 184.86 436.69 630.76 974.28 442.21 1186.74 444.87 1088.50 570.10 997.46 676.56 1160.71 678.99
00029397 00000088 845.83 186.04 437.66 630.56 970.14 441.70 1183.73 445.39 1084.22 569.14 992.67 675.92 1157.41 679.27
00029398 00000089 845.32 186.86 437.14 630.40 967.70 440.86 1181.10 445.42 1080.62 567.63 989.57 675.18 1154.65 679.22
00029399 00000090 844.98 187.50 435.17 627.64 965.27 442.33 1178.41 445.96 1078.01 568.89 985.78 672.88 1154.41 676.07
00029400 00000091 844.69 188.44 435.40 625.23 965.33 443.29 1177.27 446.73 1077.72 570.67 985.96 671.69 1154.02 674.61
00029401 00000092 845.64 190.64 436.45 628.30 968.22 443.74 1178.41 445.85 1081.82 572.09 993.25 675.44 1157.30 677.24
00029402 00000093 848.27 190.97 435.05 634.56 972.59 446.95 1181.32 447.82 1087.92 573.98 1000.95 682.81 1160.03 683.50
00029403 00000094 850.53 192.22 435.21 638.99 975.92 450.24 1183.47 450.55 1090.95 574.29 1006.35 687.98 1161.43 688.26
00029404 00000095 853.55 193.93 432.32 636.21 978.89 452.22 1186.87 452.32 1094.19 575.13 1008.83 688.91 1163.98 689.05
00029405 00000096 855.40 194.99 437.36 638.72 983.01 449.20 1198.86 454.79 1101.22 568.65 1003.41 683.74 1162.02 689.98
00029406 00000097 858.01 200.85 436.08 624.70 981.54 456.23 1192.97 458.48 1100.31 576.91 1009.83 690.91 1169.48 691.49
00029407 00000098 856.73 198.71 433.41 627.16 984.22 459.06 1194.32 459.21 1099.93 587.26 1010.04 690.22 1168.88 690.24
00029408 00000099 856.40 198.90 436.80 627.65 986.18 461.50 1196.61 460.94 1101.66 591.11 1010.19 690.30 1171.66 689.49
00029409 00000100 857.70 199.70 439.58 632.72 988.70 461.01 1205.57 461.00 1108.17 585.40 1004.82 686.41 1172.46 687.99
00029410 00000101 853.78 200.17 437.55 625.54 981.81 463.10 1195.06 461.78 1099.70 593.34 1005.57 690.72 1171.07 689.15
00029411 00000102 848.57 200.09 440.12 625.78 978.95 461.20 1192.57 460.98 1095.27 593.12 1002.49 691.31 1165.57 691.04
00029412 00000103 844.58 199.76 441.73 626.19 974.31 459.31 1188.87 460.27 1089.27 593.16 998.54 691.94 1159.80 692.77
00029413 00000104 841.24 199.30 443.66 625.65 969.83 458.68 1185.74 460.29 1084.74 592.08 994.06 692.11 1154.68 693.70
00029414 00000105 837.50 197.64 445.39 627.82 966.85 456.27 1181.48 459.06 1082.63 591.04 991.86 690.57 1150.88 693.27
00029415 00000106 834.27 199.14 445.07 626.44 961.25 455.21 1176.87 456.98 1078.36 589.13 987.79 689.72 1148.44 691.83
00029416 00000107 830.74 201.16 445.55 623.95 955.91 454.81 1171.15 455.43 1073.40 587.05 983.99 689.03 1144.02 690.35
00029417 00000108 825.68 202.29 443.95 623.03 951.04 453.88 1165.70 455.24 1069.11 584.73 978.65 686.53 1139.52 688.57
00029418 00000109 819.73 202.66 445.30 620.75 944.19 453.91 1159.39 455.16 1062.76 582.43 973.10 685.89 1134.26 687.80
00029419 00000110 813.00 203.98 445.46 617.04 938.15 454.96 1153.81 454.36 1056.37 581.81 966.94 683.88 1129.36 684.43
00029420 00000111 805.88 204.53 444.41 613.46 931.59 455.39 1145.02 452.16 1048.56 580.12 960.58 682.49 1121.26 681.31
00029421 00000112 800.04 201.63 444.10 615.15 923.53 457.58 1138.42 452.12 1038.81 579.55 952.59 682.15 1115.18 679.10
00029422 00000113 794.05 198.80 439.53 618.63 915.66 460.08 1134.09 453.85 1032.23 578.69 941.72 681.76 1111.40 677.91
00029423 00000114 786.45 203.15 438.20 607.57 905.12 458.17 1122.27 456.76 1024.09 580.32 935.65 683.43 1109.69 680.91
00029424 00000115 778.21 205.89 440.91 605.12 896.97 458.50 1114.39 454.86 1017.88 578.98 932.03 683.77 1106.14 678.64
00029425 00000116 770.40 199.53 441.15 615.85 896.84 461.59 1111.14 453.32 1016.76 589.63 926.11 683.91 1095.35 677.36
00029426 00000117 765.43 202.76 444.11 613.47 892.83 461.86 1106.87 453.23 1013.34 592.29 921.29 682.10 1092.06 675.58
00029427 00000118 763.40 203.31 443.61 611.97 889.01 463.86 1104.34 453.56 1010.44 592.30 918.38 682.52 1090.85 674.54
00029428 00000119 760.61 204.57 445.33 609.54 886.77 464.76 1103.47 454.14 1009.25 593.65 916.37 681.90 1090.51 673.69
00029429 00000120 760.04 203.92 446.39 610.76 886.69 464.91 1103.74 454.01 1009.31 593.62 915.88 681.63 1091.24 673.25
00029430 00000121 760.31 203.84 446.12 610.96 886.96 464.92 1104.04 454.34 1009.54 593.66 915.17 681.09 1091.63 673.00
00029431 00000122 762.08 203.70 444.70 612.00 888.76 464.35 1104.93 453.47 1011.54 593.23 917.29 681.68 1092.61 673.27
00029432 00000123 765.12 203.36 443.83 616.04 891.67 463.65 1106.18 452.03 1013.87 592.16 920.99 683.05 1095.47 673.84
00029433 00000124 769.93 207.86 441.69 608.80 889.96 459.98 1106.59 451.98 1015.75 578.75 930.02 685.47 1105.03 676.73
00029434 00000125 776.97 206.30 440.47 618.52 898.24 461.53 1111.18 451.42 1020.96 577.76 942.40 693.49 1105.97 682.53
00029435 00000126 784.13 203.31 436.33 621.72 903.54 464.12 1117.27 453.61 1024.91 580.38 944.90 695.62 1110.51 685.21
00029436 00000127 785.15 197.53 441.09 633.44 910.12 464.29 1126.82 453.29 1029.52 577.86 944.71 689.67 1111.10 681.78
00029437 00000128 788.17 198.84 442.49 631.14 914.84 463.11 1130.44 452.51 1034.28 577.86 949.47 688.26 1115.21 680.70
00029438 00000129 791.73 201.93 443.85 627.26 919.43 463.27 1132.63 451.07 1038.89 579.90 955.74 688.31 1119.28 679.48
00029439 00000130 796.92 201.92 442.82 625.53 924.01 461.79 1135.62 450.71 1043.98 580.39 959.73 686.81 1122.20 679.02
00029440 00000131 798.48 203.73 444.78 623.69 927.19 461.34 1137.87 450.66 1047.59 580.67 962.64 686.00 1124.66 678.56
00029441 00000132 801.03 207.07 444.88 621.32 929.50 460.88 1140.84 450.92 1050.91 581.63 964.81 686.62 1127.77 679.78
00029442 00000133 802.86 207.47 445.33 620.61 932.33 461.16 1143.73 451.65 1054.22 582.55 966.93 686.40 1130.45 679.91
00029443 00000134 802.79 205.29 447.45 623.19 933.36 461.28 1146.54 452.68 1054.78 582.32 964.97 684.03 1131.98 678.31
00029444 00000135 803.00 205.81 448.27 621.62 934.48 461.75 1148.82 453.51 1055.92 582.94 963.29 680.03 1134.36 674.56
00029445 00000136 804.31 205.59 447.55 620.16 934.03 461.53 1148.90 453.20 1055.59 582.48 962.02 678.73 1135.17 673.14
00029446 00000137 804.75 205.42 447.00 617.11 934.01 461.71 1149.23 452.96 1055.92 582.42 962.93 678.81 1135.21 672.89
00029447 00000138 804.72 207.26 445.09 615.81 932.98 461.27 1147.87 452.62 1054.90 582.40 963.47 682.42 1131.93 676.64
00029448 00000139 804.57 206.61 445.82 622.70 930.55 460.86 1144.46 453.35 1051.23 581.52 960.61 685.01 1129.68 679.97
00029449 00000140 801.35 205.18 448.43 632.36 926.36 459.99 1140.35 454.48 1044.85 580.97 955.79 687.57 1125.22 683.97
00029450 00000141 798.85 200.84 449.39 635.81 922.57 459.98 1137.74 455.08 1037.87 581.68 947.96 684.10 1120.45 681.03
00029451 00000142 797.97 200.62 449.24 632.27 919.84 459.74 1136.78 456.77 1031.72 580.29 941.28 679.41 1118.18 677.81
00029452 00000143 798.60 200.66 448.60 627.24 919.65 459.43 1136.35 457.82 1029.58 579.25 937.82 676.74 1115.08 676.39
00029453 00000144 799.45 199.17 447.47 629.72 919.98 460.27 1136.42 459.38 1029.73 579.82 938.60 679.84 1112.61 680.07
00029454 00000145 801.77 202.15 444.64 629.96 920.76 461.60 1135.37 460.06 1030.65 583.88 943.38 687.99 1108.79 687.97
00029455 00000146 802.80 207.51 444.28 629.63 925.23 462.22 1137.33 459.02 1036.23 587.08 949.45 692.51 1108.37 691.55
00029456 00000147 806.12 213.65 444.05 621.26 929.91 465.40 1143.24 461.56 1043.20 592.18 955.14 694.86 1114.11 693.43
00029457 00000148 814.25 217.44 446.38 619.44 940.07 473.07 1158.65 465.32 1062.08 604.43 971.25 703.58 1134.48 698.42
00029458 00000149 824.13 218.04 436.79 619.17 951.24 475.58 1159.47 469.41 1072.99 596.49 983.47 704.58 1139.58 699.70
00029459 00000150 823.70 217.08 442.42 611.55 956.45 487.34 1173.58 479.90 1078.72 602.04 984.07 704.22 1147.95 698.87
00029460 00000151 824.45 212.51 444.86 617.79 960.72 481.87 1176.78 475.81 1085.01 602.35 988.71 703.24 1151.39 699.02
00029461 00000152 824.44 210.76 447.44 619.11 962.52 480.98 1178.97 475.55 1088.39 601.85 989.56 701.85 1153.16 698.19
00029462 00000153 826.29 209.17 449.51 620.58 963.11 477.88 1180.77 474.03 1088.42 600.87 989.34 700.31 1153.61 697.93
00029463 00000154 828.42 208.57 449.30 621.17 964.35 475.68 1180.98 473.28 1087.87 601.55 987.98 698.44 1152.67 697.18
00029464 00000155 830.71 208.01 448.54 621.38 965.02 473.60 1181.43 472.16 1086.87 601.24 987.61 697.39 1152.52 696.88
00029465 00000156 832.07 206.30 447.45 624.34 964.49 473.17 1181.62 472.30 1085.34 602.07 985.52 698.06 1151.50 698.16
00029466 00000157 831.84 207.32 447.82 625.10 964.47 473.09 1180.67 472.78 1084.34 602.70 985.39 698.96 1150.32 699.59
00029467 00000158 830.82 208.41 448.85 625.51 963.60 473.39 1180.96 472.64 1084.18 602.82 986.07 700.18 1151.64 700.35
00029468 00000159 828.83 207.08 449.55 630.55 960.89 474.72 1178.11 473.24 1081.63 603.47 985.12 702.83 1149.32 702.45
00029469 00000160 824.33 208.01 450.28 628.91 956.15 475.66 1174.92 474.52 1078.47 606.71 979.72 701.49 1147.69 701.48
00029470 00000161 820.78 213.88 448.06 622.25 950.42 475.79 1170.06 474.53 1072.93 608.49 971.87 699.39 1144.56 699.19
00029471 00000162 816.75 213.65 448.17 627.37 943.95 476.59 1163.42 474.01 1065.69 608.16 967.48 702.14 1140.32 700.82
00029472 00000163 814.47 217.12 446.87 625.17 938.12 476.76 1156.28 473.92 1056.93 608.11 962.30 702.11 1133.73 700.51
00029473 00000164 810.70 215.95 445.75 630.19 933.72 473.77 1148.84 471.14 1050.02 605.16 958.23 703.03 1124.69 701.90
00029474 00000165 806.76 215.66 444.72 629.25 929.63 471.65 1140.95 468.70 1043.35 602.49 954.76 701.38 1116.40 700.42
