Video ID: 	kJHpbcn4k1Q
H: 	1080
W: 	1920
FPS: 	29.97002997002997

FRAME INDEX X0 Y0 W H [Landmarks (5 Points)]

00000198 00000000 333.51 145.78 481.75 710.51 504.35 440.89 719.36 433.08 651.06 560.19 526.22 671.63 725.36 665.31
00000199 DELETE   341.59 145.05 480.28 705.80 519.94 440.00 729.63 434.50 665.15 562.48 538.83 672.90 729.02 668.65
00000200 DELETE   341.55 144.84 480.43 705.70 519.98 440.00 729.61 434.45 665.23 562.44 538.88 672.84 728.97 668.54
00000201 00000003 345.94 144.89 479.98 708.60 530.79 437.46 737.09 436.20 674.73 563.30 544.19 672.02 731.54 671.09
00000202 00000004 346.90 145.09 480.91 705.52 532.27 436.34 739.49 436.43 675.69 563.52 545.21 672.00 730.88 672.32
00000203 00000005 344.88 145.51 481.48 710.59 524.31 438.16 734.71 439.49 666.15 564.42 535.67 672.03 727.70 673.32
00000204 00000006 340.47 147.38 483.07 709.75 514.14 438.96 730.27 440.03 656.74 567.81 526.94 673.99 723.30 675.18
00000205 00000007 340.51 147.43 482.81 709.73 513.98 438.94 730.30 439.99 656.76 567.90 526.79 674.04 723.40 675.21
00000206 00000008 334.09 147.61 482.27 706.18 499.76 439.04 717.82 438.95 639.73 566.13 515.16 673.03 712.88 673.25
00000207 00000009 329.56 145.18 479.33 705.20 491.88 438.90 709.01 438.74 627.20 566.05 505.67 670.77 702.95 670.97
00000208 00000010 330.03 144.55 477.40 699.70 490.53 437.37 707.50 438.70 623.67 567.93 502.92 669.39 697.04 670.91
00000209 00000011 332.87 142.88 478.49 707.73 494.95 434.87 711.97 438.01 629.43 564.35 504.09 667.84 701.71 670.72
00000210 00000012 332.70 142.83 478.68 707.81 494.94 435.00 711.99 438.01 629.50 564.38 504.21 667.86 701.87 670.61
00000211 00000013 338.14 143.00 482.82 712.35 503.92 434.61 723.31 440.16 641.33 564.57 511.06 669.48 711.18 674.32
00000212 00000014 344.57 144.63 483.83 710.39 516.85 437.22 734.89 444.61 655.42 567.98 522.60 671.83 718.67 678.20
00000213 00000015 349.94 147.95 483.46 702.34 529.78 437.73 741.13 445.27 666.85 569.35 536.37 672.00 722.42 678.54
00000214 00000016 354.89 147.55 482.31 698.94 538.49 438.23 745.71 447.64 674.89 570.04 545.34 671.90 724.11 679.73
00000215 00000017 355.07 147.59 481.97 698.64 538.27 438.39 745.66 447.59 674.80 570.04 545.35 671.95 724.28 679.61
00000216 00000018 357.17 147.75 482.74 703.33 542.77 437.77 748.51 448.66 678.37 570.07 549.81 672.35 727.11 681.13
00000217 00000019 360.16 147.00 481.35 703.33 545.93 438.28 749.07 446.76 681.39 569.49 555.63 671.41 732.15 677.98
00000218 00000020 360.63 147.12 484.07 702.09 543.50 437.87 749.15 445.30 679.07 568.07 553.76 670.97 732.47 676.69
00000219 00000021 360.92 146.33 484.10 707.07 539.48 436.77 747.49 445.25 674.03 567.63 545.82 670.68 728.94 677.52
00000220 00000022 360.80 146.21 484.11 707.19 539.30 436.73 747.37 445.22 673.87 567.50 545.79 670.63 728.97 677.46
00000221 00000023 360.81 145.43 481.68 711.07 535.06 434.79 744.43 444.40 668.64 564.73 540.31 669.39 725.94 677.33
00000222 00000024 358.76 144.62 481.79 711.48 529.78 434.15 741.63 442.85 662.32 565.14 534.83 669.57 722.66 676.93
00000223 00000025 357.09 143.65 482.04 713.03 521.82 433.84 738.08 441.12 654.90 564.14 527.82 669.40 720.36 675.78
00000224 00000026 352.43 142.21 482.09 710.73 513.93 431.65 731.68 437.86 645.91 560.70 520.87 667.35 714.18 672.89
00000225 00000027 352.39 142.43 481.86 710.53 513.77 431.66 731.54 437.83 645.80 560.77 520.89 667.35 714.21 672.84
00000226 00000028 346.22 137.10 482.30 714.09 506.73 427.59 723.03 435.21 636.03 558.18 512.07 663.49 704.38 670.23
00000227 00000029 341.54 135.93 481.20 710.71 501.57 426.14 715.00 434.73 627.13 556.93 505.38 659.68 695.39 667.23
00000228 00000030 334.59 133.98 481.88 708.67 497.12 423.94 708.90 433.55 620.36 555.55 499.78 655.37 688.37 663.62
00000229 00000031 327.72 130.32 482.99 711.11 490.85 418.67 702.17 429.07 613.08 551.40 493.69 650.95 684.23 659.57
00000230 00000032 327.76 130.54 483.02 710.94 490.88 418.72 702.25 429.04 613.12 551.44 493.73 651.01 684.17 659.58
00000231 00000033 324.68 126.77 481.17 715.10 488.70 412.93 696.84 425.94 608.89 545.52 490.36 647.54 679.09 658.24
00000232 00000034 321.96 126.45 479.22 714.22 484.27 408.79 691.94 421.35 605.38 540.37 485.84 646.43 675.23 656.63
00000233 00000035 315.51 127.98 481.32 717.08 480.53 410.84 689.31 420.47 601.12 534.62 486.69 648.09 670.31 654.87
00000234 00000036 309.76 130.28 480.37 707.64 470.30 413.96 682.93 422.56 601.43 542.56 478.05 651.20 669.41 657.18
00000235 00000037 309.79 129.96 480.43 707.87 470.25 414.11 682.83 422.76 601.33 542.51 478.10 651.23 669.27 657.22
00000236 00000038 301.82 134.75 480.17 703.29 461.55 421.31 673.42 427.12 592.52 545.90 472.36 654.73 662.30 658.69
00000237 00000039 295.78 136.33 480.15 702.73 452.06 428.38 665.12 431.78 583.17 549.92 465.37 658.90 655.48 661.05
00000238 00000040 293.25 139.27 479.29 698.70 441.57 432.64 660.48 431.92 573.41 554.87 457.46 663.95 650.89 663.06
00000239 00000041 290.81 140.75 477.71 696.82 436.86 434.49 656.48 431.46 569.79 555.58 454.08 664.51 648.74 661.81
00000240 00000042 290.92 141.29 477.72 696.44 437.00 434.57 656.50 431.71 569.78 555.55 454.10 664.60 648.66 662.06
00000241 00000043 288.94 141.84 478.50 695.83 434.22 434.96 655.27 430.30 567.44 555.69 453.12 665.28 648.58 661.34
00000242 00000044 287.52 143.89 480.12 693.56 432.86 435.81 653.93 430.32 565.81 555.48 452.54 665.55 647.93 660.96
00000243 00000045 288.13 143.65 479.88 695.05 431.92 436.23 653.84 431.08 564.95 556.00 452.07 667.54 647.31 663.25
00000244 00000046 288.53 144.72 480.28 696.58 434.23 435.26 653.11 431.12 565.63 555.00 456.00 667.99 645.79 664.73
00000245 00000047 288.71 145.09 480.35 696.64 434.42 435.48 653.11 431.38 565.55 554.98 456.09 668.08 645.65 664.84
00000246 00000048 290.38 144.72 479.93 697.45 435.85 434.17 653.89 431.29 566.19 555.09 457.63 669.25 644.54 667.07
00000247 00000049 290.67 144.18 479.40 697.19 436.75 434.15 654.82 430.97 567.47 555.35 458.67 668.73 645.51 666.28
00000248 00000050 291.30 143.34 479.66 696.27 436.65 433.44 655.11 429.59 567.95 555.10 459.52 667.90 647.28 664.81
00000249 00000051 291.63 142.60 480.09 694.24 437.47 431.90 655.64 427.98 569.02 553.04 461.32 666.54 647.65 663.39
00000250 00000052 291.44 142.14 480.42 694.60 437.48 431.69 655.66 427.87 569.03 553.03 461.30 666.39 647.77 663.30
00000251 00000053 291.42 141.95 480.43 695.24 438.89 430.40 655.27 426.94 570.49 551.01 463.61 665.66 647.99 662.86
00000252 00000054 292.57 141.32 479.93 696.20 441.06 428.97 655.60 426.00 572.47 549.35 465.76 664.85 649.12 662.35
00000253 00000055 293.08 140.79 478.36 697.49 443.28 427.71 655.32 425.16 575.03 545.58 467.12 662.70 650.70 660.40
00000254 00000056 293.10 139.39 476.80 699.20 445.63 428.06 656.40 424.46 579.44 541.82 468.62 660.02 655.47 656.67
00000255 00000057 293.08 139.47 476.51 698.91 445.57 428.26 656.35 424.53 579.60 541.92 468.66 660.20 655.55 656.75
00000256 00000058 292.83 141.59 475.80 692.35 452.56 430.35 664.33 423.68 590.45 538.02 476.50 660.36 663.64 654.38
00000257 00000059 294.94 140.96 475.78 683.01 466.41 427.69 670.49 418.64 602.53 535.10 491.79 656.32 670.20 648.14
00000258 00000060 297.20 138.21 476.32 683.06 474.06 422.42 675.39 413.64 611.84 530.48 500.86 652.13 675.60 644.00
00000259 00000061 298.72 136.96 479.13 678.98 475.38 415.09 681.39 409.14 615.77 525.73 503.24 648.04 679.85 642.32
00000260 00000062 298.78 137.12 478.71 678.79 475.49 415.18 681.40 409.07 616.02 525.94 503.43 648.14 680.03 642.29
00000261 00000063 299.51 135.70 478.61 674.80 475.44 410.65 683.66 404.42 619.03 522.35 503.44 644.37 682.69 638.54
00000262 00000064 297.73 132.99 480.79 674.89 472.31 407.68 683.78 401.67 618.51 519.48 502.64 642.34 683.67 636.43
00000263 00000065 296.36 131.87 481.95 678.67 470.74 405.79 680.81 401.37 617.13 516.74 502.51 643.08 681.41 638.37
00000264 00000066 295.51 131.43 483.14 687.04 472.98 403.38 677.86 400.10 616.77 514.37 505.10 644.34 678.76 640.54
00000265 00000067 295.43 131.18 483.03 687.07 472.94 403.45 677.57 400.16 616.66 514.06 505.36 644.38 678.59 640.58
00000266 00000068 294.49 130.57 482.61 689.97 472.55 402.29 676.53 398.28 617.11 514.44 505.22 645.42 678.42 640.95
00000267 00000069 294.36 130.20 482.58 688.56 471.60 400.33 676.46 396.99 616.47 511.95 504.39 643.86 678.04 640.01
00000268 00000070 294.89 129.21 482.00 686.12 471.17 398.24 676.98 395.68 616.04 510.23 503.93 641.94 677.25 638.73
00000269 00000071 296.09 127.64 480.38 682.63 468.54 399.08 679.30 395.17 615.76 511.57 502.15 641.87 679.20 637.38
00000270 00000072 296.19 127.99 480.43 682.20 468.53 399.18 679.59 395.10 615.87 511.26 502.25 641.89 679.50 637.26
00000271 00000073 297.07 127.95 478.77 678.91 468.03 399.84 680.74 395.14 616.10 512.69 501.61 641.42 679.97 636.20
00000272 00000074 297.18 127.94 479.10 680.09 468.08 399.72 680.73 394.85 616.07 513.64 501.98 642.69 679.94 637.36
00000273 00000075 294.65 127.81 480.85 686.14 467.82 398.08 677.10 395.09 613.97 511.88 500.28 641.92 677.39 638.20
00000274 00000076 294.44 127.40 480.03 687.85 466.47 396.86 674.55 395.38 610.21 510.44 496.62 640.10 674.48 637.65
00000275 00000077 294.60 127.14 479.89 687.91 466.53 396.70 674.55 395.36 610.32 510.31 496.60 640.11 674.34 637.79
00000276 00000078 294.86 126.26 479.29 686.09 467.22 393.89 673.93 393.78 610.01 507.52 496.82 636.71 673.54 635.36
00000277 00000079 295.30 125.99 480.62 684.07 468.99 392.71 676.46 392.37 613.45 503.45 499.94 633.86 677.07 632.29
00000278 00000080 295.51 125.61 482.09 684.26 472.26 393.08 678.82 392.72 617.57 501.72 503.58 633.55 679.94 631.99
00000279 00000081 295.66 125.74 483.37 684.71 473.24 394.76 681.00 393.60 620.18 502.31 505.13 634.67 682.47 632.46
00000280 00000082 295.67 125.85 483.35 684.60 473.35 394.84 681.09 393.53 620.29 502.43 505.34 634.81 682.61 632.46
00000281 00000083 295.25 127.50 483.86 683.39 472.81 396.34 680.75 394.40 619.38 505.50 504.20 635.40 682.38 632.56
00000282 00000084 295.01 128.74 484.10 682.09 471.90 398.16 680.41 394.90 618.48 508.95 503.30 636.11 682.59 632.31
00000283 00000085 295.38 130.68 483.29 680.82 471.53 399.85 681.03 395.54 618.86 511.77 502.67 636.52 684.99 631.91
00000284 00000086 296.10 131.76 481.63 676.67 471.50 401.26 681.72 395.45 619.74 512.95 503.28 635.37 687.07 629.60
00000285 00000087 295.96 131.64 482.01 676.88 471.67 401.29 681.86 395.31 619.80 513.10 503.62 635.39 687.30 629.48
00000286 00000088 295.69 132.92 481.50 671.59 470.45 402.93 681.08 395.60 619.35 512.70 503.19 633.87 687.22 627.06
00000287 00000089 295.30 134.04 481.08 668.88 470.00 404.81 680.61 396.67 619.17 514.68 503.05 634.02 687.55 626.59
00000288 00000090 294.19 133.73 482.26 669.45 469.51 405.39 680.35 396.86 619.22 514.61 503.08 634.16 687.79 626.40
00000289 00000091 294.37 134.17 481.79 668.25 469.44 405.28 679.85 396.10 619.09 514.32 503.54 633.89 687.73 625.56
00000290 00000092 294.39 133.70 481.83 668.27 469.41 405.11 679.95 395.93 619.09 514.18 503.47 633.60 687.77 625.29
00000291 00000093 293.83 133.22 482.38 667.09 468.97 404.88 679.55 395.73 618.61 513.19 503.23 632.02 687.94 623.71
00000292 00000094 294.05 133.70 481.59 667.22 468.19 404.45 678.60 396.21 616.84 514.00 501.33 631.58 686.75 624.04
00000293 00000095 293.38 134.28 482.06 669.34 468.54 403.83 677.11 396.89 615.33 515.34 500.55 632.36 684.99 625.89
00000294 00000096 292.96 133.43 482.66 673.72 468.08 403.14 676.14 397.50 613.91 515.60 499.23 634.36 682.98 628.92
00000295 00000097 292.98 133.34 482.78 674.13 468.12 403.05 676.16 397.61 613.80 515.92 498.95 634.46 682.91 629.16
00000296 00000098 293.53 133.05 482.23 673.65 467.74 403.32 677.38 397.23 614.59 517.83 499.71 635.96 683.83 630.04
00000297 00000099 293.35 132.46 481.85 673.45 467.23 403.83 678.57 396.53 615.86 519.47 499.60 636.29 685.39 629.28
00000298 00000100 292.92 131.84 483.51 676.98 468.23 402.53 678.41 395.93 616.26 517.89 501.78 637.65 685.15 631.11
00000299 00000101 292.34 132.11 484.94 685.55 469.52 401.09 676.98 394.72 616.49 516.09 503.50 640.93 684.20 634.35
00000300 00000102 291.99 131.62 485.53 685.78 469.51 401.06 677.13 394.92 616.59 515.56 503.77 640.94 684.33 634.52
00000301 00000103 292.17 132.34 485.02 685.71 468.67 401.03 676.33 394.84 615.93 515.78 501.41 640.12 684.45 633.82
00000302 00000104 291.92 132.78 484.13 679.79 467.03 400.94 676.07 394.51 614.42 513.83 499.86 636.79 684.05 630.41
00000303 00000105 292.40 132.27 481.86 670.28 465.97 401.15 676.12 393.43 613.03 512.47 499.67 632.02 683.28 624.68
00000304 00000106 293.03 132.26 481.34 667.19 464.64 402.44 676.64 392.29 613.46 512.71 501.40 632.67 685.50 623.26
00000305 00000107 293.25 132.10 481.02 667.23 464.54 402.23 676.57 392.23 613.38 512.06 501.27 632.43 685.42 623.14
00000306 00000108 292.87 130.14 480.73 667.44 462.67 402.36 677.12 391.39 612.88 512.52 498.88 631.04 686.47 620.94
00000307 00000109 292.45 129.62 481.51 671.12 461.83 400.97 675.59 390.90 611.20 512.18 497.95 632.07 684.56 622.59
00000308 00000110 292.29 130.26 483.02 678.35 464.27 399.67 673.65 390.80 611.37 511.17 500.30 635.33 683.66 626.78
00000309 00000111 292.08 131.87 483.43 679.72 466.66 400.20 674.22 391.80 613.48 511.16 501.76 635.81 684.34 627.66
00000310 00000112 292.39 131.55 483.21 679.83 466.72 400.18 674.08 391.66 613.32 511.55 501.69 635.62 684.49 627.41
00000311 00000113 292.56 131.09 482.57 677.60 466.16 400.94 674.30 391.97 613.25 511.94 500.54 633.70 685.12 625.24
00000312 00000114 291.89 130.75 483.23 679.16 465.74 401.36 674.06 393.26 612.38 513.09 498.84 633.65 684.27 625.93
00000313 00000115 291.74 131.28 482.63 679.42 464.38 403.65 671.16 396.17 609.57 513.74 494.69 632.49 682.20 625.48
00000314 00000116 291.42 132.12 481.07 673.94 462.61 405.91 670.40 398.13 607.30 517.20 491.89 631.10 680.42 623.92
00000315 00000117 291.60 131.55 480.80 674.63 462.83 405.91 670.21 398.04 607.50 517.06 492.02 631.20 680.41 623.94
00000316 00000118 290.64 131.88 480.46 670.68 460.55 406.78 668.55 398.75 604.41 518.02 489.11 629.40 678.22 622.02
00000317 00000119 290.27 132.68 480.12 671.02 460.01 406.62 667.30 399.27 603.08 518.10 487.53 629.49 676.46 622.65
00000318 00000120 289.90 132.56 480.57 674.34 459.38 405.97 667.30 399.40 602.42 519.05 485.74 630.47 676.39 624.29
00000319 00000121 290.00 132.58 480.78 675.95 459.32 405.79 667.68 400.04 602.46 519.14 485.31 631.52 675.70 625.98
00000320 00000122 290.07 131.82 480.62 677.82 458.79 406.33 667.34 399.89 602.16 519.12 484.66 631.24 676.55 625.13
00000321 00000123 290.46 131.15 480.66 679.79 458.66 406.70 669.05 399.94 603.47 520.60 485.84 634.10 677.86 627.62
00000322 00000124 291.54 130.27 479.95 676.31 458.15 407.47 670.91 400.33 603.90 522.97 486.24 635.16 677.70 628.40
00000323 00000125 292.16 130.12 479.56 676.90 459.63 406.21 671.38 399.90 605.14 521.84 486.79 633.95 678.58 627.85
00000324 00000126 291.74 129.43 480.59 682.27 461.60 403.22 670.04 398.91 605.52 517.86 487.78 633.18 677.30 628.69
00000325 00000127 291.97 129.64 480.32 682.00 461.72 403.03 670.47 398.75 605.68 517.98 487.86 633.15 677.46 628.68
00000326 00000128 292.31 129.24 480.10 680.74 461.95 401.75 670.40 396.79 606.46 516.35 489.76 632.49 677.92 627.29
00000327 00000129 293.02 126.98 479.29 677.91 462.37 399.09 672.20 393.50 607.61 514.23 492.61 632.35 677.42 626.46
00000328 00000130 293.98 125.38 477.93 671.23 459.27 397.58 675.09 390.97 607.70 513.55 492.17 631.70 678.46 624.82
00000329 00000131 294.74 122.01 477.06 672.64 459.90 395.30 675.62 389.44 608.26 510.60 493.59 630.26 678.28 623.71
00000330 00000132 294.62 122.60 477.21 671.89 459.73 395.28 675.79 389.62 608.25 510.55 493.42 630.05 678.44 623.68
00000331 00000133 294.94 121.47 477.32 673.93 459.95 394.33 675.99 389.62 608.12 509.97 492.84 630.64 677.65 625.08
00000332 00000134 293.43 122.13 478.98 678.54 462.79 393.58 673.14 390.59 607.81 508.78 494.12 629.76 675.58 625.65
00000333 00000135 292.93 122.47 480.45 683.97 463.29 394.97 671.15 393.05 606.24 508.69 491.94 629.87 674.48 626.76
00000334 00000136 293.00 121.90 479.99 686.39 464.61 397.16 669.04 396.03 605.49 509.36 491.07 629.40 673.86 627.08
00000335 00000137 292.94 121.86 479.95 686.28 464.43 397.17 668.77 395.92 605.27 509.26 491.14 629.31 673.96 626.89
00000336 00000138 291.12 122.42 480.34 686.00 462.59 401.13 667.22 397.82 604.28 509.92 487.34 627.48 674.82 623.64
00000337 00000139 291.38 121.86 479.73 683.10 462.94 399.91 667.65 397.47 604.43 509.69 487.25 625.30 674.89 622.19
00000338 00000140 290.79 121.24 479.89 680.33 463.91 399.38 668.41 396.48 606.14 508.32 487.66 622.73 675.59 619.31
00000339 00000141 291.24 118.72 478.92 679.09 464.14 397.93 668.84 395.55 606.13 505.84 488.56 620.67 675.45 617.52
00000340 00000142 291.59 118.69 478.52 678.83 464.02 397.75 669.06 395.43 606.10 505.98 488.84 620.89 675.37 617.75
00000341 00000143 291.63 118.76 478.03 676.44 465.12 398.43 670.12 396.82 605.79 504.95 488.83 619.41 674.93 616.93
00000342 00000144 289.04 113.74 480.18 681.65 457.84 399.88 670.62 392.92 598.22 505.84 484.61 617.71 673.38 611.60
00000343 00000145 288.73 119.34 479.12 680.03 456.99 400.32 661.50 395.60 596.61 506.15 485.42 624.63 669.73 619.39
00000344 00000146 286.81 119.18 479.07 687.06 450.54 401.34 655.59 396.56 589.20 507.60 476.81 626.29 664.90 620.99
00000345 00000147 286.75 119.42 479.12 686.82 450.50 401.33 655.52 396.56 589.17 507.59 476.81 626.24 664.91 620.94
00000346 00000148 284.44 118.80 479.56 695.05 446.88 400.22 650.66 398.01 580.67 510.68 468.74 626.62 658.40 623.50
00000347 00000149 284.20 119.92 479.21 691.28 443.19 400.89 647.79 399.92 574.03 514.49 464.73 627.08 652.98 624.97
00000348 00000150 285.93 118.63 479.39 692.10 446.10 398.93 650.79 398.67 577.63 512.86 469.26 628.68 654.50 627.18
00000349 00000151 289.98 119.24 478.29 690.22 454.97 398.00 657.70 398.83 587.91 511.30 478.93 631.33 658.36 630.84
00000350 00000152 290.16 119.46 478.20 690.01 455.07 398.02 657.68 398.80 587.93 511.12 479.11 631.38 658.34 630.83
00000351 00000153 295.63 119.04 477.64 689.96 466.59 395.69 668.07 399.38 599.51 510.36 488.79 631.95 663.39 633.62
00000352 00000154 298.03 119.51 478.69 688.72 473.40 393.77 678.16 398.50 610.99 510.39 495.85 632.77 670.48 635.22
00000353 00000155 302.51 118.63 478.94 688.79 478.61 391.35 685.27 396.11 618.20 506.81 502.00 632.13 677.51 634.53
00000354 00000156 308.60 115.99 477.26 690.12 484.96 389.43 691.28 394.32 624.58 504.82 508.85 630.12 683.45 632.46
00000355 00000157 308.66 115.90 477.26 690.23 484.96 389.52 691.20 394.20 624.60 504.89 509.06 630.25 683.55 632.39
00000356 00000158 315.63 109.46 475.53 701.42 488.69 392.94 694.72 395.99 621.81 501.99 507.50 621.20 686.37 622.50
00000357 00000159 318.55 107.26 475.80 699.83 491.01 388.19 697.09 391.64 623.66 496.72 510.09 617.55 688.59 619.34
00000358 00000160 323.47 104.60 474.53 697.37 493.72 382.70 699.61 385.13 625.94 493.39 515.46 614.16 691.82 615.47
00000359 00000161 329.03 102.49 472.25 694.90 495.99 378.37 703.87 379.97 629.65 489.52 519.90 611.45 697.30 612.47
00000360 00000162 329.04 102.30 472.11 694.84 495.97 378.34 703.84 379.99 629.62 489.51 519.84 611.38 697.14 612.45
00000361 00000163 334.89 101.62 470.17 693.78 499.74 374.06 709.98 376.85 634.77 485.40 522.60 609.02 702.27 611.45
00000362 00000164 338.35 102.20 470.51 693.92 504.47 373.30 714.45 376.50 640.14 484.51 525.57 607.06 707.03 609.95
00000363 00000165 340.52 102.45 471.97 695.19 506.63 375.41 716.90 378.03 642.36 485.36 526.43 607.76 710.69 610.17
00000364 00000166 344.13 104.21 468.99 694.90 509.11 378.10 717.96 380.34 644.80 488.48 527.09 608.33 713.27 610.56
00000365 00000167 344.08 104.22 469.05 694.98 508.99 378.16 718.10 380.38 644.75 488.39 527.02 608.41 713.46 610.60
00000366 00000168 343.04 105.43 471.97 696.62 509.81 382.21 721.91 385.28 645.96 493.68 524.81 610.31 715.29 613.04
CROP_BBOX: 0 0 1037 1067
