Video ID: 	IC_23c_-sNU
H: 	1080
W: 	1920
FPS: 	25.0

FRAME INDEX X0 Y0 W H [Landmarks (5 Points)]

00014132 00000000 746.96 154.40 354.59 501.79 916.33 353.43 1064.43 339.68 1043.41 439.11 951.74 544.55 1062.24 532.39
00014133 00000001 749.95 157.19 351.13 489.44 924.51 352.45 1057.99 337.46 1040.35 439.07 958.26 535.17 1058.91 525.02
00014134 DELETE   747.34 151.27 354.97 486.61 920.24 349.20 1057.52 330.26 1041.76 429.54 959.34 529.21 1063.55 516.66
00014135 00000003 751.38 145.38 350.95 484.08 921.20 344.40 1055.46 323.92 1042.67 421.31 963.92 522.21 1064.85 508.38
00014136 DELETE   749.01 145.61 351.69 484.79 921.89 344.22 1054.86 324.89 1043.88 419.93 961.75 520.94 1063.73 508.19
00014137 DELETE   747.94 152.58 353.54 498.58 912.56 348.51 1063.68 329.48 1044.10 423.58 951.14 535.31 1069.30 518.95
00014138 00000006 747.19 156.93 352.70 504.65 916.61 351.99 1063.66 336.84 1043.64 436.48 951.50 543.98 1064.71 530.25
00014139 00000007 753.27 161.89 347.72 500.90 916.55 356.82 1055.18 341.95 1040.51 439.39 951.58 546.25 1057.74 534.04
00014140 DELETE   745.49 156.40 352.86 511.36 911.62 346.09 1061.56 331.81 1041.24 432.11 942.02 541.29 1062.53 528.50
00014141 DELETE   744.80 153.67 351.58 509.38 910.47 344.90 1056.40 326.88 1039.67 422.42 944.42 535.20 1063.32 519.45
00014142 00000010 745.31 144.87 350.98 497.04 910.04 344.60 1058.11 324.02 1040.54 416.05 950.26 528.64 1066.52 511.20
00014143 00000011 745.41 139.39 350.11 497.29 909.57 343.09 1054.92 321.48 1037.96 414.27 951.64 526.21 1065.16 508.23
00014144 00000012 745.26 136.68 350.07 501.47 908.64 342.76 1054.92 321.07 1037.43 412.53 952.18 526.20 1067.23 508.03
00014145 00000013 744.67 137.35 350.41 495.51 908.51 344.80 1055.18 319.36 1038.89 412.78 951.97 523.96 1067.78 502.86
00014146 00000014 741.76 139.06 352.43 493.35 908.05 346.56 1054.35 318.41 1040.14 413.84 951.69 523.76 1067.00 500.30
00014147 00000015 738.42 138.66 355.72 498.29 906.13 345.61 1053.18 318.84 1038.26 414.11 948.66 525.18 1064.91 502.55
00014148 00000016 736.02 141.80 358.10 500.45 904.82 344.78 1050.83 318.18 1037.72 414.22 949.39 528.03 1064.14 505.19
00014149 00000017 733.27 143.89 360.16 501.14 903.53 347.10 1049.47 320.10 1037.23 416.77 950.00 531.57 1062.72 508.22
00014150 00000018 733.17 147.80 360.85 498.83 903.32 352.54 1051.31 323.99 1038.91 421.86 950.14 535.20 1063.66 510.56
00014151 00000019 739.49 154.58 356.68 498.31 904.93 354.20 1055.94 327.79 1040.23 424.22 952.63 538.72 1068.97 515.59
00014152 00000020 748.60 156.22 348.60 499.64 903.36 359.06 1046.49 332.32 1033.06 433.59 952.33 547.61 1060.15 524.81
00014153 00000021 748.65 159.34 349.64 502.32 903.05 364.41 1046.41 338.21 1031.73 439.74 948.80 552.63 1056.70 531.00
00014154 DELETE   748.27 159.73 350.60 501.91 906.70 368.98 1049.83 341.16 1038.76 445.11 949.60 553.50 1061.06 530.99
00014155 DELETE   744.15 168.03 351.38 483.35 917.48 370.23 1049.02 343.75 1040.07 445.82 957.24 544.43 1059.67 527.31
00014156 00000024 751.42 164.35 348.11 499.92 914.84 373.84 1053.26 344.26 1045.17 448.33 957.80 557.58 1064.39 533.62
00014157 DELETE   757.82 164.39 346.12 500.00 914.92 365.44 1056.11 338.72 1043.16 440.66 958.42 554.47 1065.92 532.37
00014158 DELETE   757.60 157.34 344.69 501.23 912.68 354.46 1051.76 328.91 1042.05 427.51 956.74 544.93 1064.36 523.64
00014159 DELETE   754.02 151.78 346.06 500.29 910.52 347.72 1055.69 318.76 1040.34 411.82 953.31 531.06 1073.21 507.12
00014160 00000028 753.12 140.16 347.67 502.66 910.66 345.68 1054.14 312.31 1040.05 409.72 952.75 524.53 1074.12 497.37
00014161 00000029 754.49 136.75 347.20 505.10 915.03 344.63 1057.06 313.58 1042.80 411.03 954.33 523.25 1074.10 498.02
00014162 00000030 757.66 143.98 345.66 502.75 920.24 345.77 1064.16 319.91 1046.86 415.38 958.11 528.22 1076.88 506.69
00014163 DELETE   755.42 151.08 350.63 493.61 927.70 349.08 1061.40 327.23 1049.76 421.14 962.27 524.04 1070.48 509.68
00014164 00000032 755.95 151.84 347.29 507.53 921.65 352.14 1068.21 330.25 1051.51 424.90 960.46 539.03 1079.31 520.04
00014165 DELETE   758.11 143.59 345.89 514.06 921.21 349.13 1067.04 325.37 1050.52 421.46 959.95 536.50 1080.12 516.30
00014166 00000034 755.47 140.96 345.72 510.32 918.35 343.73 1060.41 319.20 1045.63 416.09 953.88 528.22 1074.51 507.85
00014167 00000035 752.57 138.98 346.94 503.51 912.45 342.35 1059.50 316.73 1041.52 412.82 952.63 525.86 1072.75 504.62
00014168 00000036 745.69 141.76 350.63 498.50 908.32 343.97 1054.04 317.47 1039.12 412.84 949.13 524.81 1067.53 502.86
00014169 00000037 740.66 144.18 353.74 495.81 906.34 347.82 1052.88 319.65 1039.65 416.45 953.26 529.07 1066.33 505.15
00014170 00000038 739.77 140.05 354.78 499.18 903.81 352.03 1051.79 322.07 1037.48 418.95 953.18 531.72 1065.97 506.33
00014171 00000039 738.52 138.53 355.54 498.85 902.30 350.17 1050.42 320.03 1035.17 417.12 951.71 530.15 1064.90 504.61
00014172 00000040 739.30 134.81 354.68 499.77 901.97 349.22 1050.54 319.18 1034.09 415.68 948.98 527.66 1064.03 502.52
00014173 00000041 738.31 137.34 354.94 496.10 902.70 349.05 1050.58 319.07 1035.17 416.70 950.72 527.74 1063.04 502.51
00014174 00000042 738.08 143.80 354.62 491.97 904.73 351.99 1051.75 322.28 1037.96 420.33 953.87 531.40 1063.96 506.41
00014175 00000043 741.22 147.78 353.87 485.64 910.32 351.52 1047.67 326.96 1033.69 425.27 956.35 526.36 1059.52 509.58
00014176 00000044 740.02 144.79 353.25 492.46 903.66 354.58 1050.86 323.13 1036.80 421.49 954.16 533.37 1064.49 507.01
00014177 00000045 739.31 142.78 354.16 493.62 903.78 352.58 1049.68 322.26 1035.35 419.16 953.04 530.97 1063.02 505.44
00014178 00000046 738.76 142.53 354.03 494.21 904.23 351.99 1050.61 323.06 1036.05 420.37 952.76 531.30 1062.74 506.85
00014179 00000047 737.58 147.06 356.33 497.34 903.33 355.78 1051.41 326.58 1036.60 425.70 950.51 536.39 1062.49 511.53
00014180 00000048 737.26 158.14 356.61 495.19 901.16 358.18 1048.24 330.06 1034.16 429.67 949.82 540.88 1061.34 516.65
00014181 00000049 744.54 159.66 350.72 495.03 900.50 360.82 1043.59 334.80 1031.55 436.03 950.07 548.78 1055.79 526.69
00014182 00000050 743.93 154.20 351.48 502.68 898.31 363.10 1042.74 337.49 1029.96 437.98 945.95 549.92 1055.56 528.60
00014183 00000051 737.48 153.55 355.99 505.65 899.44 365.68 1047.20 337.15 1030.52 437.87 945.91 548.70 1059.24 524.48
00014184 00000052 738.81 154.51 354.25 504.86 902.06 363.32 1048.45 335.73 1032.10 436.21 947.52 547.02 1059.34 523.51
00014185 00000053 739.42 155.07 355.72 504.86 901.97 362.18 1050.38 333.95 1033.35 436.07 947.53 547.07 1061.26 522.95
00014186 00000054 741.18 151.58 354.60 509.11 904.26 363.75 1052.52 335.59 1035.28 437.80 949.37 548.57 1062.71 524.34
00014187 00000055 748.39 154.75 348.51 506.74 904.48 366.86 1046.81 341.47 1035.04 440.78 950.29 554.04 1057.90 533.10
00014188 00000056 749.37 157.75 347.81 504.91 905.42 369.52 1046.92 342.43 1036.16 444.04 951.37 556.25 1058.38 534.04
00014189 00000057 749.51 156.69 347.71 503.68 906.93 367.72 1047.98 341.10 1037.78 441.15 953.40 554.51 1059.35 532.65
00014190 00000058 751.28 153.01 347.98 504.14 906.26 365.97 1048.69 338.83 1036.16 438.84 954.14 552.56 1060.67 529.93
00014191 00000059 744.36 153.82 352.16 506.78 909.22 364.42 1053.17 336.60 1037.60 437.72 954.13 549.64 1063.87 525.69
00014192 00000060 750.68 154.27 348.22 503.77 905.92 365.98 1048.69 339.83 1036.12 439.35 953.40 552.66 1060.18 530.89
00014193 00000061 750.63 159.15 346.34 503.10 908.23 369.75 1048.33 342.84 1037.38 444.30 952.53 556.02 1058.28 534.03
00014194 00000062 751.23 157.60 346.47 505.62 909.95 372.39 1049.02 345.28 1039.87 446.41 953.26 557.29 1058.94 535.43
00014195 00000063 752.80 157.63 346.13 503.27 910.90 369.17 1051.18 342.75 1039.66 442.50 955.16 555.24 1060.66 533.61
00014196 00000064 754.45 154.34 346.74 502.85 911.92 364.68 1054.55 339.91 1041.28 438.94 957.81 552.19 1063.82 531.56
00014197 00000065 754.74 155.99 346.22 502.34 913.48 364.66 1055.22 341.62 1042.47 439.99 957.07 551.76 1063.34 532.66
00014198 00000066 753.03 159.41 346.80 501.86 913.56 368.80 1053.63 344.28 1042.42 444.38 955.70 554.50 1061.39 534.56
00014199 00000067 753.12 159.10 347.56 502.71 914.02 370.49 1053.95 346.97 1042.91 446.75 954.16 555.26 1061.18 536.37
00014200 00000068 754.28 157.07 346.60 502.97 914.91 369.06 1054.22 344.74 1043.95 444.84 957.09 555.01 1062.31 535.35
00014201 00000069 753.61 157.39 347.67 502.33 913.80 366.67 1054.20 343.46 1043.23 443.09 957.12 554.23 1062.86 535.24
00014202 00000070 753.07 158.71 347.59 501.96 913.50 367.54 1053.87 345.01 1042.97 444.42 954.97 553.88 1061.59 535.68
00014203 00000071 751.83 158.48 349.35 504.18 912.40 372.64 1053.18 347.63 1042.66 447.71 952.91 556.50 1061.15 536.68
00014204 00000072 752.90 156.30 348.87 510.27 914.59 373.91 1055.71 352.71 1045.53 450.18 951.79 557.01 1062.01 540.56
00014205 00000073 751.66 166.65 348.89 497.42 910.30 371.20 1051.40 343.23 1039.18 446.18 954.44 558.05 1059.98 535.24
00014206 00000074 750.61 155.04 351.41 506.09 909.43 357.45 1055.88 327.12 1037.16 430.45 960.81 549.96 1070.43 523.96
00014207 DELETE   749.10 143.02 350.24 506.49 909.00 344.80 1052.09 313.83 1036.64 410.71 965.60 537.33 1075.63 510.82
00014208 00000076 750.47 144.31 345.52 485.47 916.52 327.19 1049.40 307.46 1038.76 394.32 975.48 515.61 1064.25 500.67
00014209 DELETE   754.39 126.97 340.77 501.16 913.00 324.24 1050.43 304.48 1034.81 390.62 964.66 515.63 1069.49 499.63
00014210 00000078 755.38 124.45 340.01 499.12 917.00 320.26 1052.63 303.39 1038.43 385.23 966.23 510.34 1070.40 496.72
00014211 00000079 754.15 125.23 344.68 497.31 916.42 323.59 1057.73 304.65 1042.53 386.77 963.24 509.64 1074.25 494.10
00014212 DELETE   756.94 133.46 343.17 482.04 920.87 325.45 1053.13 309.55 1041.92 394.85 969.79 503.86 1064.26 493.13
00014213 DELETE   756.46 133.17 344.02 497.16 916.12 334.11 1063.53 309.90 1045.23 402.66 961.20 519.58 1076.90 499.83
00014214 00000082 756.79 136.93 346.42 500.83 918.23 343.27 1066.56 317.26 1049.21 412.22 965.68 529.64 1079.92 508.06
00014215 DELETE   756.70 140.17 348.80 508.70 921.86 350.56 1069.31 330.18 1051.53 422.07 964.84 537.65 1079.21 520.08
00014216 DELETE   756.40 146.51 351.48 511.68 924.47 354.90 1068.30 336.18 1051.69 432.91 964.89 544.53 1074.97 528.15
00014217 DELETE   750.73 144.30 351.76 514.47 926.42 363.81 1060.66 342.34 1051.62 441.18 969.24 547.38 1064.68 531.37
00014218 00000086 748.04 147.31 351.58 514.80 924.86 368.91 1060.48 347.73 1053.21 448.16 964.32 552.23 1067.91 536.98
00014219 DELETE   747.78 148.08 354.39 517.77 926.26 374.09 1061.94 353.05 1054.39 453.64 967.46 556.35 1069.27 541.19
00014220 00000088 751.25 149.11 352.85 524.96 929.61 379.83 1062.47 357.60 1054.70 458.60 970.91 561.52 1068.01 545.53
00014221 00000089 758.16 151.90 349.02 521.09 924.86 384.91 1061.90 364.40 1050.42 460.11 956.84 563.67 1064.29 548.23
00014222 DELETE   748.25 155.66 354.27 513.61 923.41 370.57 1058.09 350.59 1050.40 450.93 968.19 555.34 1067.71 540.61
00014223 DELETE   749.99 151.17 352.32 505.99 913.73 363.23 1052.76 335.18 1046.57 440.42 965.63 548.34 1069.53 526.51
00014224 DELETE   752.86 146.89 351.70 489.82 921.91 349.70 1055.64 323.88 1046.82 420.47 969.78 526.53 1071.34 509.09
00014225 00000093 753.20 135.04 348.95 497.13 912.87 344.96 1058.52 314.21 1041.51 409.36 960.99 525.81 1076.06 500.42
00014226 00000094 753.08 137.73 349.28 480.02 917.34 332.18 1052.05 312.04 1040.77 398.61 966.74 506.37 1066.38 492.68
00014227 00000095 751.76 130.12 347.86 477.22 915.33 325.73 1050.73 307.64 1039.76 389.69 965.23 496.04 1065.36 483.78
00014228 00000096 753.08 114.21 344.18 496.24 913.69 327.72 1058.03 305.72 1041.59 385.65 953.75 499.77 1071.86 482.27
00014229 00000097 751.73 114.75 345.38 497.67 911.18 328.12 1055.33 303.30 1039.94 386.03 952.59 500.84 1071.66 481.02
00014230 00000098 750.32 118.84 343.59 499.55 908.65 330.61 1051.08 306.51 1035.17 391.97 949.88 506.44 1065.54 487.46
00014231 00000099 750.01 124.15 343.47 502.42 910.08 334.45 1050.19 311.15 1035.21 400.26 950.41 512.59 1064.54 493.95
00014232 00000100 749.67 125.09 345.15 507.83 907.24 339.74 1048.06 314.46 1032.55 404.29 948.45 518.01 1064.55 497.48
00014233 DELETE   746.05 128.36 349.18 511.61 907.03 343.44 1048.14 318.88 1033.59 407.17 947.64 521.51 1064.88 501.34
00014234 00000102 742.73 129.78 352.54 514.89 905.73 343.27 1048.79 319.54 1034.56 409.20 944.64 523.51 1063.69 503.70
00014235 00000103 741.21 130.75 352.18 513.68 903.16 340.99 1047.10 316.53 1033.19 409.29 942.62 522.48 1061.67 502.06
00014236 00000104 738.77 125.61 353.81 515.54 899.45 340.20 1046.02 315.83 1030.49 406.71 939.33 520.16 1061.24 499.80
00014237 00000105 738.86 122.53 352.90 512.58 897.12 341.59 1045.09 316.07 1027.16 405.62 938.53 518.35 1060.83 497.07
00014238 00000106 740.10 130.79 351.30 506.07 898.87 342.43 1045.41 315.88 1029.25 408.20 941.43 520.95 1060.85 498.85
00014239 00000107 741.86 132.33 351.92 506.29 901.80 343.91 1047.99 318.96 1031.09 408.96 944.27 523.20 1063.56 502.47
00014240 00000108 742.94 133.35 351.69 502.64 904.19 346.58 1049.99 321.75 1032.52 410.92 947.74 524.17 1064.82 503.52
00014241 00000109 745.31 134.38 350.33 499.78 905.87 347.27 1051.55 321.86 1033.15 412.00 948.98 524.50 1064.51 503.62
00014242 00000110 744.01 133.39 351.34 497.37 903.38 347.44 1051.35 321.67 1032.15 411.69 948.61 523.83 1064.96 502.56
00014243 00000111 740.70 136.73 353.84 493.67 900.73 347.14 1048.34 321.27 1029.98 410.31 947.38 522.48 1062.29 501.01
00014244 00000112 740.93 136.27 353.12 494.59 898.79 346.18 1046.73 318.96 1027.60 409.31 945.35 521.85 1061.54 499.27
00014245 00000113 741.12 132.32 352.72 497.93 899.32 346.37 1046.45 319.75 1027.63 409.16 944.70 521.32 1061.17 499.21
00014246 00000114 738.70 133.78 354.47 499.94 900.80 346.43 1045.51 319.44 1029.22 410.20 945.03 522.06 1059.68 499.59
00014247 00000115 736.90 132.03 355.84 506.56 899.86 351.50 1046.41 322.89 1031.55 415.51 944.70 527.32 1061.73 503.56
00014248 DELETE   739.81 143.71 354.20 503.93 901.22 356.70 1047.85 326.97 1031.35 425.07 947.35 537.48 1061.70 512.38
00014249 00000117 741.22 143.32 353.86 509.61 904.87 361.26 1052.92 335.25 1033.99 430.91 948.33 542.19 1062.89 519.98
00014250 DELETE   743.08 141.03 351.91 502.87 904.05 357.16 1051.69 326.32 1035.06 425.23 951.04 536.99 1065.44 511.16
00014251 DELETE   743.31 129.30 351.37 501.74 902.99 349.81 1050.82 320.03 1032.78 415.31 947.30 525.34 1064.84 500.84
00014252 00000120 744.52 128.74 349.35 495.68 900.36 344.74 1045.19 315.40 1026.67 408.99 945.96 519.89 1059.55 495.91
00014253 00000121 742.75 124.34 349.58 499.45 899.86 343.87 1046.98 317.54 1026.02 408.52 941.68 518.33 1057.32 496.92
00014254 00000122 739.47 127.04 352.50 500.45 896.79 345.12 1041.64 318.54 1022.51 408.90 939.54 519.04 1054.67 497.32
00014255 00000123 736.32 131.77 356.70 503.28 897.92 348.11 1044.66 321.05 1027.69 412.32 942.46 524.94 1058.03 502.61
00014256 DELETE   735.38 136.94 357.97 507.10 897.97 353.99 1046.62 326.11 1029.42 422.61 941.63 533.63 1058.02 510.17
00014257 00000125 737.74 145.73 356.72 506.70 898.67 359.48 1046.89 330.32 1028.28 430.29 942.35 541.29 1057.93 516.47
00014258 00000126 739.66 148.35 355.54 510.37 900.12 368.60 1046.09 338.40 1027.44 438.43 944.43 548.65 1057.48 523.01
00014259 00000127 749.35 151.28 349.81 508.82 902.77 368.41 1045.75 341.91 1033.50 439.45 947.31 553.13 1057.06 531.73
00014260 00000128 751.65 149.29 349.60 509.27 905.01 367.04 1048.11 339.09 1034.50 438.53 948.56 551.72 1058.72 528.99
00014261 00000129 744.73 148.11 352.06 510.70 902.79 358.07 1054.17 331.16 1034.00 429.08 946.10 543.23 1065.71 520.25
00014262 00000130 743.93 140.50 352.67 511.45 904.00 356.16 1056.59 330.22 1036.96 423.81 945.88 538.08 1068.71 516.08
00014263 00000131 748.91 140.00 349.19 504.05 910.13 354.24 1060.25 330.66 1039.93 422.09 951.32 534.40 1070.04 514.54
00014264 00000132 750.33 146.67 350.88 490.71 919.95 350.80 1057.52 331.82 1041.95 425.88 958.73 527.87 1064.35 515.41
00014265 00000133 752.59 147.18 349.94 491.59 925.30 353.25 1059.54 336.68 1044.59 429.35 961.40 528.98 1064.91 518.19
00014266 00000134 752.15 145.81 350.34 502.56 920.32 356.49 1058.42 337.06 1045.55 436.30 965.75 539.56 1065.79 524.91
00014267 DELETE   750.97 144.74 356.02 509.83 924.16 368.19 1064.61 343.58 1049.91 443.92 968.89 548.57 1072.62 529.92
00014268 00000136 749.51 148.03 363.06 510.31 933.19 375.35 1071.50 352.90 1056.94 446.20 971.06 551.11 1077.18 534.54
00014269 DELETE   752.36 151.08 359.37 506.29 928.35 371.27 1068.45 346.49 1053.96 444.43 972.05 550.84 1076.16 532.12
00014270 DELETE   755.32 144.67 351.57 501.70 915.64 356.19 1069.71 331.01 1045.58 437.83 970.49 537.92 1082.71 517.14
00014271 DELETE   759.44 140.24 348.06 497.60 918.18 349.89 1065.37 322.40 1044.01 416.71 962.06 531.26 1077.02 508.64
00014272 00000140 758.40 131.16 346.46 500.76 915.01 342.30 1064.65 321.16 1041.00 413.26 955.73 525.36 1072.91 508.30
00014273 DELETE   757.74 134.14 348.36 504.65 922.06 348.95 1068.08 328.11 1048.09 417.54 960.09 528.67 1075.45 511.70
00014274 DELETE   755.29 137.54 353.26 505.25 927.64 349.80 1073.36 337.60 1053.82 430.40 969.46 528.33 1077.10 518.17
00014275 00000143 757.12 136.03 356.89 505.12 933.10 352.41 1079.19 340.07 1064.69 430.06 979.69 527.98 1087.40 517.67
00014276 DELETE   764.82 125.94 351.50 503.59 934.38 343.87 1074.00 329.88 1061.68 417.13 982.40 515.36 1086.10 504.35
00014277 00000145 767.08 124.48 349.53 496.88 934.04 333.38 1071.64 324.47 1055.88 408.03 979.82 506.48 1082.54 499.93
00014278 00000146 766.44 120.77 346.02 505.64 931.23 327.76 1076.84 321.34 1051.36 407.17 958.49 511.99 1074.35 506.80
00014279 DELETE   763.25 122.37 342.83 509.87 924.96 331.84 1070.83 321.15 1048.12 409.43 955.19 516.92 1072.48 508.78
00014280 00000148 763.08 124.26 343.36 510.29 929.14 336.11 1072.19 325.00 1050.76 417.12 959.58 522.95 1071.76 514.27
00014281 00000149 763.11 127.42 344.43 507.81 933.70 341.49 1074.13 327.06 1055.92 420.12 967.92 526.10 1075.98 514.49
00014282 00000150 759.23 131.69 347.42 497.15 929.40 346.58 1069.73 330.84 1055.55 419.38 978.95 520.09 1083.02 507.44
00014283 00000151 758.42 127.81 349.48 504.08 931.50 346.80 1071.14 325.71 1058.38 417.56 974.84 528.09 1081.66 510.58
00014284 00000152 755.54 122.70 344.45 511.23 923.71 347.93 1065.62 326.48 1049.91 415.19 965.67 528.44 1076.45 510.86
00014285 00000153 748.23 128.85 347.64 510.09 911.85 348.29 1054.12 324.91 1038.20 414.93 952.33 527.34 1066.98 508.31
CROP_BBOX: 466 0 1346 847
