Video ID: 	y-tO8oMmjpo
H: 	1080
W: 	1920
FPS: 	29.97002997002997

FRAME INDEX X0 Y0 W H [Landmarks (5 Points)]

00008074 00000000 774.41 219.89 351.46 531.74 829.07 419.94 973.90 441.74 853.92 546.40 832.38 620.38 946.04 636.51
00008075 00000001 770.28 229.43 353.65 531.98 826.52 425.66 973.90 446.48 851.75 550.29 832.23 629.00 944.72 644.33
00008076 00000002 770.16 233.72 351.25 531.56 825.30 427.22 971.51 446.51 849.86 549.01 832.71 632.95 939.90 647.07
00008077 00000003 769.17 227.29 350.34 533.86 824.94 422.79 969.82 443.95 847.24 544.20 828.87 627.00 936.30 642.64
00008078 00000004 767.08 220.62 353.23 532.46 822.48 417.15 966.73 438.42 843.58 536.44 825.47 621.00 931.38 636.78
00008079 00000005 765.39 218.64 356.21 525.87 820.30 409.84 963.29 431.53 840.23 528.50 823.94 610.74 932.12 626.56
00008080 00000006 764.39 214.47 355.78 528.31 820.16 404.92 961.19 425.00 837.92 520.43 823.87 604.19 933.58 618.53
00008081 00000007 764.30 214.52 356.94 529.37 821.25 403.98 962.24 422.94 837.86 517.09 824.91 600.50 938.41 613.76
00008082 00000008 766.35 216.23 356.71 525.78 823.12 405.39 964.44 424.79 840.63 518.79 825.93 600.30 941.05 614.03
00008083 00000009 768.56 218.43 354.65 522.81 824.81 405.95 965.63 427.48 840.81 521.44 823.92 599.82 941.94 615.41
00008084 00000010 770.19 218.48 354.85 521.56 826.29 407.90 968.88 429.36 843.73 525.25 823.32 602.10 943.79 617.84
00008085 00000011 770.97 218.75 354.96 521.72 827.04 408.24 970.42 429.61 844.90 526.00 824.38 602.38 943.87 618.20
00008086 00000012 771.70 215.54 354.60 522.08 827.30 407.09 971.87 426.74 848.33 525.26 826.49 604.16 941.38 618.92
00008087 00000013 772.30 213.02 356.54 523.24 827.83 406.81 973.29 424.36 852.41 524.47 829.60 605.39 940.41 618.76
00008088 00000014 771.61 208.78 360.63 530.13 827.32 405.99 977.84 423.81 852.79 524.62 829.77 606.74 944.69 620.41
00008089 00000015 773.70 207.24 360.95 531.85 829.27 408.15 982.89 423.97 857.80 525.59 833.46 609.19 950.92 621.19
00008090 00000016 775.49 206.84 361.32 533.98 831.86 408.97 987.34 423.37 861.87 525.50 838.08 610.80 957.24 621.65
00008091 00000017 777.76 204.75 361.83 536.52 833.27 408.01 989.65 422.31 863.66 525.60 840.93 610.77 960.03 621.60
00008092 00000018 779.68 204.32 360.81 543.07 836.18 406.48 990.85 420.35 866.84 522.85 846.73 609.35 963.50 619.86
00008093 00000019 781.82 199.76 358.24 545.58 838.88 407.12 992.33 422.61 869.02 519.42 848.26 606.56 968.71 618.08
00008094 00000020 786.43 197.83 360.83 541.69 850.57 413.53 998.56 426.53 879.30 516.21 857.19 606.00 977.82 615.81
00008095 DELETE   786.26 195.22 363.36 539.93 854.81 412.85 1007.26 425.93 891.62 516.08 862.13 601.44 986.02 611.50
00008096 00000022 792.28 187.30 363.36 540.36 863.61 405.92 1024.18 423.17 909.31 515.96 868.14 598.45 996.27 613.70
00008097 00000023 792.98 189.38 369.24 533.82 870.37 402.15 1031.52 414.45 920.73 510.94 877.37 597.16 1004.33 608.66
00008098 00000024 796.14 190.67 370.82 529.63 876.74 399.57 1038.86 408.92 931.30 505.57 885.40 596.49 1008.78 606.25
00008099 00000025 798.33 191.01 375.94 525.71 884.58 400.75 1049.21 407.97 945.24 504.10 895.54 594.74 1021.39 602.53
00008100 00000026 803.87 183.91 377.28 528.63 889.94 399.04 1056.18 401.85 955.42 502.51 904.21 593.35 1033.28 597.05
00008101 00000027 807.83 178.15 378.09 531.94 895.05 392.81 1065.13 394.99 965.23 494.45 909.43 589.44 1042.98 592.27
00008102 00000028 811.57 174.92 375.93 533.42 901.29 386.67 1070.94 388.54 975.92 490.17 917.01 584.10 1049.85 586.61
00008103 00000029 811.82 172.89 376.41 535.21 904.24 382.78 1074.39 385.67 980.75 484.71 919.96 579.95 1055.14 583.21
00008104 00000030 813.20 169.17 374.90 535.11 907.24 378.01 1078.51 382.30 987.70 478.94 923.76 575.67 1059.67 579.79
00008105 00000031 811.61 166.21 375.76 534.01 905.64 373.18 1077.32 376.09 987.18 475.34 924.71 573.23 1058.66 576.00
00008106 00000032 811.64 166.41 373.97 528.22 903.01 371.85 1074.36 372.64 983.64 472.12 921.89 570.08 1057.57 571.12
00008107 00000033 809.95 165.01 372.88 528.87 900.59 369.21 1070.87 370.60 980.18 470.02 918.56 567.27 1052.86 568.84
00008108 00000034 808.28 166.93 372.67 529.65 898.41 369.11 1068.38 371.13 976.56 469.43 915.28 567.45 1048.98 569.77
00008109 00000035 806.52 169.21 372.67 529.18 896.33 371.25 1065.90 373.15 973.18 472.20 912.70 571.50 1044.82 573.84
00008110 00000036 804.14 169.60 374.53 530.26 893.65 372.09 1063.14 376.64 969.38 477.83 910.77 576.85 1035.94 581.27
00008111 00000037 802.51 168.15 372.68 531.61 892.00 371.62 1062.70 379.12 966.76 484.27 908.03 580.18 1030.30 587.07
00008112 00000038 800.75 165.99 372.27 534.50 889.51 372.44 1060.66 380.81 963.23 486.21 907.26 583.71 1026.59 591.09
00008113 00000039 797.35 167.66 370.84 536.78 886.13 373.01 1056.61 380.19 959.16 484.79 905.06 586.14 1021.22 592.51
00008114 00000040 794.00 168.72 369.58 542.74 881.96 374.44 1052.44 380.57 953.86 485.16 902.88 591.49 1014.45 597.24
00008115 00000041 790.04 170.59 367.55 544.78 877.69 375.85 1048.75 384.33 948.45 488.40 897.63 593.58 1007.12 601.36
00008116 00000042 786.44 169.66 367.70 550.72 872.87 379.64 1042.91 389.12 941.87 487.95 890.27 597.27 999.89 606.33
00008117 00000043 782.59 172.16 368.50 553.46 867.14 383.84 1035.96 392.11 936.01 492.11 884.37 602.44 994.84 610.99
00008118 00000044 776.85 173.33 373.01 557.65 860.97 390.41 1027.83 398.76 927.47 496.85 877.99 606.36 988.36 615.25
00008119 00000045 773.38 180.22 370.46 552.45 855.70 393.13 1020.14 399.95 918.98 501.93 872.16 609.42 979.73 617.06
00008120 00000046 773.21 190.71 366.80 545.45 846.92 398.33 1011.60 406.67 896.85 502.60 864.86 614.13 972.00 620.95
00008121 00000047 767.40 190.85 363.67 542.73 837.06 398.63 999.60 408.79 882.50 504.22 852.97 614.20 959.39 622.73
00008122 00000048 759.62 195.75 362.83 537.24 827.81 398.85 988.24 412.98 870.61 510.42 841.16 611.83 947.24 624.14
00008123 DELETE   754.26 199.49 359.82 536.32 817.94 398.19 967.26 408.00 849.75 509.92 832.10 611.83 925.76 618.51
00008124 00000050 755.29 197.39 356.06 534.52 803.73 394.61 959.77 414.14 830.61 512.81 815.13 605.91 923.53 623.43
00008125 00000051 751.93 197.32 357.41 533.58 796.35 396.59 950.50 412.33 823.29 508.09 807.79 602.26 920.87 616.77
00008126 00000052 752.85 192.48 353.44 536.84 792.19 393.08 943.95 410.51 813.60 507.44 805.05 599.60 917.85 615.19
00008127 00000053 752.92 190.53 351.71 538.61 787.42 390.74 936.88 407.59 804.97 506.51 801.44 604.25 907.47 620.16
00008128 00000054 753.73 191.50 349.45 534.78 783.73 387.97 933.22 406.22 798.50 505.67 796.60 605.29 900.45 622.69
00008129 00000055 756.11 192.29 345.62 535.42 783.72 387.05 928.94 404.51 793.04 503.82 796.95 605.51 896.77 622.29
00008130 00000056 752.80 192.96 344.77 541.04 783.92 387.38 925.34 403.07 790.94 501.32 799.53 603.36 900.41 617.74
00008131 00000057 749.15 188.53 350.62 549.56 796.54 388.60 935.65 400.52 806.38 502.50 804.39 601.82 909.41 611.19
00008132 00000058 748.78 194.57 351.83 544.87 796.09 390.35 936.20 402.95 804.32 506.57 805.15 601.35 914.05 611.01
00008133 00000059 747.82 193.46 353.62 546.28 795.02 391.16 936.48 404.98 802.30 508.76 802.67 600.73 915.97 611.46
00008134 00000060 746.99 194.01 354.39 545.20 794.37 392.10 936.15 405.30 802.15 508.90 802.03 600.79 916.16 611.02
00008135 00000061 747.32 194.78 354.19 540.95 793.55 391.40 936.74 403.48 803.84 508.98 801.51 601.43 914.96 610.76
00008136 00000062 753.14 199.54 347.39 528.22 782.42 390.76 927.36 408.60 795.33 509.53 800.77 600.95 909.59 617.13
00008137 00000063 754.14 198.39 346.80 522.11 783.16 388.94 929.73 408.19 798.48 507.38 797.85 598.42 905.12 616.49
00008138 00000064 753.80 198.37 347.77 521.26 784.68 388.02 931.73 408.67 800.83 506.68 796.12 598.35 902.60 617.56
00008139 00000065 753.20 197.72 348.77 522.35 785.13 387.84 932.93 410.10 801.73 508.42 794.17 599.50 900.76 619.99
00008140 00000066 753.24 199.01 348.86 523.06 784.85 387.62 933.20 409.02 798.60 506.66 792.88 602.08 897.59 621.72
00008141 00000067 755.46 200.17 345.80 524.51 787.89 391.10 931.56 411.44 798.54 504.58 795.03 601.48 896.67 620.25
00008142 00000068 757.56 201.45 346.26 525.56 796.02 401.14 938.03 420.56 809.04 503.83 800.73 597.88 904.56 615.79
00008143 00000069 762.70 197.39 345.31 530.66 801.38 403.91 947.79 418.62 818.55 500.16 805.72 599.85 914.68 613.93
00008144 00000070 767.53 196.71 350.04 528.94 812.08 398.21 963.91 417.35 828.50 497.49 811.64 596.21 922.27 613.86
00008145 00000071 774.89 192.91 349.29 531.25 824.40 392.35 975.36 413.78 838.07 493.74 820.03 594.26 928.97 613.84
00008146 00000072 775.41 184.52 357.61 536.90 829.60 389.89 985.39 407.54 848.85 488.40 826.86 597.85 935.12 614.30
00008147 00000073 774.57 177.48 363.12 543.11 831.69 386.04 992.29 404.06 852.06 486.08 829.42 596.04 940.51 612.16
00008148 00000074 776.91 176.90 363.18 539.64 835.16 385.01 996.56 402.84 856.55 483.58 832.43 592.62 947.07 608.27
00008149 00000075 779.13 175.65 363.52 540.59 838.97 385.45 999.36 403.12 859.73 482.48 834.78 592.02 948.83 607.56
00008150 00000076 781.11 176.82 361.40 539.33 841.78 385.67 1000.89 404.92 861.77 483.46 835.69 592.07 949.64 608.88
00008151 00000077 782.57 179.04 359.89 536.24 842.21 387.94 999.42 407.51 862.21 485.55 835.91 592.22 949.92 609.29
00008152 00000078 781.16 182.80 361.08 534.63 842.64 390.96 998.77 413.32 864.32 492.79 834.31 592.28 949.77 611.50
00008153 00000079 779.41 186.96 361.48 532.14 841.27 391.91 996.59 415.22 864.33 495.78 832.91 591.98 949.31 612.14
00008154 00000080 779.38 186.63 361.60 531.48 840.03 392.04 994.96 413.76 862.28 493.14 832.36 591.91 947.56 610.95
00008155 00000081 780.58 182.50 361.22 538.31 838.71 388.66 995.60 409.11 859.68 490.18 832.62 592.68 948.81 610.75
00008156 00000082 783.26 180.21 359.31 545.82 840.53 385.47 997.57 406.60 859.95 486.72 834.30 594.35 950.08 612.87
00008157 00000083 785.05 179.35 357.67 543.52 840.84 384.30 998.37 406.11 860.66 487.70 834.48 591.35 954.91 610.27
00008158 00000084 785.26 179.10 357.58 537.33 841.14 384.41 999.34 407.04 861.61 488.44 833.31 586.89 959.59 606.23
00008159 00000085 784.01 179.15 360.40 534.75 840.41 384.79 1000.16 408.29 862.15 489.01 831.80 583.50 962.83 603.37
00008160 00000086 783.94 179.96 361.75 532.94 841.88 383.83 1001.75 408.46 863.51 487.67 831.63 580.38 964.77 601.09
00008161 00000087 785.22 179.26 360.96 531.47 843.56 381.71 1004.08 406.57 865.09 486.28 833.88 577.76 969.59 598.53
00008162 00000088 786.91 179.58 361.84 527.71 846.14 378.64 1008.32 404.65 868.71 484.03 835.34 573.86 973.07 595.49
00008163 00000089 791.29 181.09 361.22 524.06 852.15 377.86 1012.73 404.08 872.75 480.26 838.92 569.20 976.34 590.95
00008164 00000090 794.93 177.32 360.16 522.88 861.56 377.63 1014.83 401.30 891.64 477.09 848.79 563.64 981.35 583.76
00008165 00000091 801.53 173.42 359.43 524.50 869.41 376.07 1024.34 400.62 904.09 471.33 856.78 560.80 991.36 582.10
00008166 00000092 808.91 177.22 361.37 518.73 876.17 374.92 1034.25 395.46 913.58 466.33 864.14 559.09 1001.14 577.94
00008167 DELETE   813.59 177.22 365.62 515.05 889.53 371.46 1047.31 395.14 927.41 462.73 872.35 551.25 1010.80 573.49
00008168 DELETE   818.90 174.15 368.76 513.40 900.75 371.79 1063.34 395.04 944.50 460.28 882.50 549.16 1023.37 570.89
00008169 00000095 821.10 169.91 374.06 515.12 907.93 367.88 1076.09 391.48 959.09 460.49 892.54 547.42 1036.54 569.09
00008170 00000096 826.60 169.73 375.22 514.33 919.35 359.87 1093.00 387.23 977.97 456.37 904.53 546.39 1049.63 571.27
00008171 00000097 828.20 160.94 379.02 520.89 927.45 357.68 1103.07 384.45 995.13 455.92 917.95 546.70 1060.95 570.46
00008172 00000098 829.24 161.62 382.41 518.35 936.71 355.46 1112.15 383.89 1008.46 456.32 928.75 547.75 1067.94 572.50
00008173 00000099 830.11 166.69 385.93 518.94 949.14 355.66 1114.96 386.54 1021.56 459.53 933.00 545.14 1062.85 570.04
00008174 00000100 830.68 173.79 384.61 513.21 949.32 356.99 1115.63 385.25 1022.32 460.25 936.35 548.39 1061.58 570.91
00008175 00000101 828.66 170.94 385.22 519.78 948.60 359.51 1114.28 389.27 1022.24 462.53 934.89 547.33 1062.92 571.38
00008176 00000102 829.70 170.42 379.84 518.39 941.81 364.13 1108.58 391.58 1014.73 459.64 932.70 551.28 1067.61 575.04
00008177 00000103 826.01 172.32 381.05 521.53 936.27 366.66 1103.40 393.66 1007.24 459.53 925.13 553.12 1061.92 576.68
00008178 DELETE   821.30 173.85 378.75 524.23 932.98 365.07 1094.18 393.51 996.66 461.28 919.08 552.71 1045.21 577.55
00008179 DELETE   815.51 178.65 377.46 525.23 924.10 361.83 1085.12 390.55 980.45 464.73 906.70 554.86 1030.32 580.57
00008180 00000106 812.40 179.59 374.76 523.72 912.24 358.98 1077.35 390.59 964.94 463.21 893.76 553.09 1021.73 581.46
00008181 00000107 809.58 176.59 366.38 522.09 899.27 360.58 1061.63 392.27 944.66 461.59 877.70 548.71 1009.01 577.52
00008182 00000108 801.84 177.50 369.07 517.71 885.32 361.39 1047.13 392.43 925.70 461.06 862.95 548.19 997.28 576.08
00008183 00000109 795.78 173.16 366.14 522.12 875.93 360.92 1033.26 396.27 910.16 459.27 850.31 546.13 984.24 576.38
00008184 00000110 790.03 176.32 367.58 519.87 866.83 362.38 1022.30 395.75 899.14 461.47 845.41 548.72 976.16 576.62
00008185 00000111 786.12 174.38 369.37 522.05 862.44 361.37 1015.61 396.60 889.19 463.22 838.79 548.83 964.89 577.84
00008186 00000112 785.74 174.92 366.43 523.05 859.34 365.54 1009.87 400.45 881.24 469.83 834.59 553.89 955.63 582.38
00008187 00000113 784.55 177.89 365.39 522.53 859.34 369.17 1007.26 406.36 878.82 474.26 833.18 555.10 950.37 585.54
00008188 00000114 786.04 180.76 366.40 520.60 859.88 371.17 1007.29 408.98 878.38 476.90 834.97 557.81 950.38 588.54
00008189 00000115 791.13 183.45 363.90 519.22 862.80 373.59 1008.70 410.31 879.10 478.35 838.07 561.71 952.19 591.57
00008190 00000116 797.33 182.17 357.75 525.42 866.36 371.63 1012.17 408.07 882.17 477.89 843.99 565.38 958.22 595.88
00008191 00000117 799.96 179.95 357.40 529.52 869.92 370.49 1017.79 406.83 887.52 476.28 848.87 565.32 963.39 596.39
00008192 00000118 801.90 181.80 357.74 526.41 872.47 370.86 1021.14 405.39 891.48 473.83 851.91 564.13 968.39 593.91
00008193 00000119 803.79 182.21 358.03 525.84 874.55 370.50 1024.73 404.72 893.95 473.04 853.35 563.72 972.15 593.47
00008194 00000120 806.43 182.81 356.91 524.32 875.32 370.07 1025.93 403.40 894.01 471.98 852.94 563.52 974.81 592.63
00008195 00000121 805.02 184.17 358.88 519.39 874.91 370.92 1026.18 404.36 895.22 472.32 852.69 561.91 975.92 590.93
00008196 00000122 803.83 184.42 360.58 516.67 873.85 371.34 1026.22 404.63 895.26 471.96 851.62 561.72 975.34 590.31
00008197 00000123 803.85 183.91 361.32 515.35 873.19 370.00 1025.65 404.61 894.02 471.92 849.92 559.85 974.08 589.36
00008198 00000124 802.96 184.43 361.23 517.30 873.03 371.15 1025.11 404.59 893.75 471.55 850.85 561.08 974.70 589.81
00008199 00000125 803.68 184.05 359.07 521.97 873.83 371.17 1026.00 404.72 893.91 472.49 851.13 562.61 975.19 591.69
00008200 00000126 803.35 184.52 358.91 523.19 873.73 371.66 1025.73 404.59 894.07 472.81 851.49 563.32 975.07 591.90
00008201 00000127 803.04 183.76 358.48 525.71 873.32 372.22 1025.22 404.99 893.18 473.21 852.22 564.38 975.46 592.82
00008202 00000128 803.35 182.79 357.74 525.48 872.65 372.15 1023.55 404.14 892.59 471.63 851.69 563.78 974.20 591.59
00008203 00000129 802.90 181.15 359.01 525.68 872.18 370.08 1023.14 402.25 892.22 469.18 852.20 560.93 976.11 588.86
00008204 00000130 803.83 179.54 359.05 525.29 872.01 367.98 1021.79 400.11 891.57 467.58 852.89 559.52 975.82 587.38
00008205 00000131 805.20 178.35 359.09 522.86 871.02 364.62 1019.81 397.76 887.87 465.05 850.92 556.59 973.44 585.03
00008206 00000132 805.26 178.43 357.93 519.90 870.30 364.61 1017.91 397.18 886.01 464.58 849.67 555.85 969.92 583.62
00008207 00000133 805.81 178.95 358.74 517.02 869.75 365.79 1016.12 398.78 884.05 466.55 848.30 557.12 965.62 584.98
00008208 00000134 802.11 180.53 362.05 516.10 867.85 367.48 1014.38 399.97 881.92 469.04 844.84 557.89 961.36 584.92
00008209 00000135 800.01 182.60 360.61 514.59 865.45 370.45 1010.66 402.67 879.23 473.79 842.54 561.51 956.74 587.93
00008210 00000136 799.67 188.29 356.79 515.13 866.92 371.81 1008.89 409.17 865.67 473.23 838.60 564.14 949.02 596.04
00008211 00000137 791.79 186.41 355.92 526.56 852.86 379.81 1000.75 407.69 866.52 482.73 831.79 574.23 941.83 598.35
00008212 00000138 788.17 184.72 357.11 530.31 846.97 384.15 995.70 409.25 861.07 484.83 828.67 580.10 936.48 601.79
00008213 00000139 782.67 183.90 358.64 531.62 842.64 384.10 991.68 409.34 855.15 484.52 823.66 580.64 931.60 602.52
00008214 00000140 781.57 179.73 354.66 533.78 840.72 379.54 986.83 405.64 849.93 481.42 822.31 578.63 924.81 601.46
00008215 00000141 785.42 182.63 356.17 528.41 844.14 370.15 988.73 405.91 843.24 473.55 820.19 570.50 927.14 602.20
00008216 00000142 784.93 181.44 357.38 524.80 839.08 368.39 982.35 401.24 834.01 469.21 817.75 569.19 921.99 598.42
00008217 00000143 779.36 178.96 363.12 526.47 830.90 362.22 979.76 398.73 827.82 469.33 808.37 565.71 919.88 597.86
00008218 00000144 779.71 177.63 361.68 530.32 830.37 360.78 977.22 399.50 824.60 468.75 808.90 562.88 923.11 596.53
00008219 00000145 779.12 176.22 360.75 534.57 827.78 361.52 973.95 399.01 821.28 468.47 808.77 564.68 924.35 597.32
00008220 00000146 775.42 177.58 361.23 534.88 828.50 360.11 973.07 400.53 822.66 468.72 806.97 561.20 922.61 596.33
00008221 00000147 773.96 177.26 358.65 535.71 826.10 360.64 970.59 401.03 820.54 469.11 806.63 561.13 922.78 596.17
00008222 00000148 771.39 177.92 358.58 533.97 823.24 359.64 968.76 401.81 819.16 469.39 803.71 557.70 923.94 594.02
00008223 00000149 769.40 178.55 359.61 530.77 820.77 360.43 966.89 402.49 818.63 471.21 801.89 556.06 924.65 592.25
00008224 00000150 768.10 181.11 359.28 523.82 817.96 362.16 963.82 402.07 817.41 471.60 798.98 555.75 921.81 590.23
00008225 00000151 767.56 181.42 359.25 521.10 816.23 361.80 963.33 400.98 817.12 471.86 797.87 556.19 921.24 589.95
00008226 00000152 767.49 181.86 358.36 519.91 814.87 362.36 962.02 401.88 816.52 473.47 797.35 555.60 922.06 589.61
00008227 00000153 767.28 180.77 357.22 521.92 814.95 362.15 961.33 401.65 815.90 472.74 798.03 554.93 922.95 588.93
00008228 00000154 765.92 178.63 360.02 529.49 814.99 360.40 962.01 399.01 817.35 471.34 800.44 555.83 925.62 589.12
00008229 00000155 765.57 179.86 360.92 530.22 816.12 360.69 961.57 397.94 816.93 469.65 803.49 556.01 926.81 588.09
00008230 00000156 765.79 178.90 360.18 529.21 815.52 360.79 961.27 398.08 817.11 471.06 802.85 556.16 926.25 588.34
00008231 00000157 766.26 179.59 359.07 526.39 814.21 361.48 959.73 399.12 815.41 471.67 800.16 557.09 921.67 589.78
00008232 DELETE   768.59 181.09 353.68 521.15 817.09 369.61 958.57 404.12 818.45 471.93 801.18 558.42 916.32 588.54
00008233 00000159 767.42 180.51 354.27 520.70 817.25 373.37 957.35 405.53 817.66 471.94 803.17 562.35 912.01 590.34
00008234 00000160 769.78 182.60 353.80 519.99 817.75 372.80 962.88 405.76 821.88 474.38 803.90 564.85 915.40 593.66
00008235 00000161 771.95 178.98 356.63 523.87 820.37 369.53 969.87 406.48 826.55 479.34 805.39 564.75 922.83 596.56
00008236 00000162 775.30 175.29 359.84 530.70 827.55 371.55 977.95 406.19 833.92 477.50 810.00 565.48 932.19 595.54
00008237 00000163 776.55 180.34 361.72 529.36 833.88 372.08 988.29 405.77 845.96 476.30 815.35 566.00 943.07 595.18
00008238 00000164 776.59 181.67 365.20 527.20 837.81 371.47 996.20 404.96 854.23 477.28 819.57 565.47 951.14 594.25
00008239 00000165 777.83 180.32 365.56 526.39 842.67 371.17 999.47 403.74 858.18 474.66 823.20 564.81 950.49 592.88
00008240 00000166 780.95 178.14 365.80 527.40 847.96 373.62 1001.52 403.50 860.16 471.79 827.70 567.46 945.26 593.67
00008241 00000167 780.28 180.69 367.32 524.78 848.87 373.90 1003.85 402.72 862.51 471.17 830.47 570.05 945.89 595.25
00008242 00000168 780.20 181.35 367.24 525.85 849.22 374.28 1004.78 402.77 862.62 472.22 831.55 572.49 945.57 597.19
00008243 00000169 781.07 181.83 365.18 531.46 846.90 379.37 1004.72 403.98 863.20 476.32 833.15 581.17 947.79 602.48
