Video ID: 	oSGNq11TQN8
H: 	2160
W: 	3840
FPS: 	30.0

FRAME INDEX X0 Y0 W H [Landmarks (5 Points)]

00000956 00000000 1865.39 330.91 400.04 538.64 1920.78 549.60 2091.15 491.90 1982.77 579.42 1969.93 731.79 2105.32 684.13
00000957 00000001 1868.59 326.88 397.78 537.98 1921.83 545.95 2090.57 488.20 1978.91 572.91 1966.70 727.59 2107.14 679.49
00000958 00000002 1873.35 326.00 400.34 541.54 1925.71 546.44 2090.42 485.27 1977.67 571.96 1970.21 729.31 2112.49 678.06
00000959 00000003 1877.78 328.71 398.50 549.69 1929.30 547.90 2091.44 484.53 1976.40 569.51 1973.37 735.61 2115.52 682.51
00000960 00000004 1877.38 329.05 401.88 555.78 1930.56 548.67 2093.89 483.90 1976.65 568.62 1974.52 740.36 2122.78 685.46
00000961 00000005 1879.69 332.12 403.20 556.39 1933.57 552.77 2096.01 486.95 1981.35 574.97 1980.74 742.08 2131.11 685.73
00000962 00000006 1888.28 332.52 398.20 562.27 1934.16 553.04 2115.58 490.95 1987.95 579.36 1980.04 738.31 2133.04 684.07
00000963 00000007 1890.90 333.81 401.08 560.43 1937.49 556.75 2118.04 492.22 1990.72 582.15 1984.20 741.47 2137.51 685.28
00000964 00000008 1892.90 332.35 403.14 555.14 1939.11 555.94 2122.67 493.51 1996.32 584.24 1983.25 737.40 2143.34 683.37
00000965 00000009 1894.88 331.79 400.62 551.47 1939.19 555.27 2123.47 492.33 1997.21 584.29 1981.76 735.55 2145.79 680.94
00000966 00000010 1898.20 326.71 396.69 547.11 1940.37 550.25 2127.45 488.54 2001.10 579.12 1979.34 729.17 2150.19 675.43
00000967 00000011 1898.57 323.83 398.33 539.97 1942.39 546.61 2131.24 486.12 2005.69 572.94 1979.89 720.94 2152.22 668.34
00000968 00000012 1899.53 318.61 396.08 534.73 1944.74 540.62 2131.34 481.75 2007.08 567.83 1982.68 712.64 2150.96 661.41
00000969 00000013 1899.56 311.79 396.78 530.84 1946.15 533.03 2134.64 478.29 2011.29 566.15 1983.69 702.92 2151.15 655.50
00000970 00000014 1897.34 308.24 399.85 531.12 1946.16 528.75 2135.97 476.36 2011.48 562.40 1982.85 699.24 2150.12 654.23
00000971 00000015 1895.51 300.32 404.10 536.11 1948.12 525.78 2141.28 472.82 2017.44 557.90 1986.53 696.78 2154.95 651.39
00000972 DELETE   1895.10 298.82 408.03 537.89 1953.44 521.56 2147.58 470.83 2026.40 558.45 1990.11 690.30 2162.22 649.22
00000973 DELETE   1897.16 293.76 410.92 541.51 1959.10 515.26 2156.07 469.58 2038.26 560.46 1999.72 687.79 2171.27 651.56
00000974 DELETE   1904.14 291.95 409.46 546.64 1962.73 511.57 2165.99 466.55 2049.39 562.52 2014.30 694.35 2184.61 656.49
00000975 00000019 1900.58 297.06 410.38 544.38 1967.89 517.89 2164.63 471.45 2054.78 568.84 2016.40 694.19 2186.04 657.09
00000976 DELETE   1904.63 294.02 410.17 559.45 1966.74 517.76 2169.28 473.19 2056.98 574.23 2021.10 704.62 2189.42 666.66
00000977 00000021 1904.34 301.67 411.64 562.79 1966.67 523.36 2169.13 477.78 2055.75 579.54 2022.45 713.90 2186.54 675.08
00000978 00000022 1904.68 305.20 412.55 575.27 1964.57 530.49 2164.88 481.62 2046.29 580.41 2022.70 727.78 2178.17 686.24
00000979 00000023 1905.34 306.55 411.67 576.72 1963.93 530.82 2162.97 482.79 2040.06 582.57 2020.41 730.76 2173.98 690.01
00000980 00000024 1905.93 306.07 410.10 574.09 1963.49 528.50 2162.29 483.30 2034.73 577.55 2014.52 727.38 2167.57 689.14
00000981 00000025 1905.20 303.36 406.79 567.80 1963.55 525.49 2161.68 481.84 2031.47 567.56 2006.07 721.62 2158.81 684.87
00000982 00000026 1904.25 303.58 403.24 557.45 1963.62 519.45 2160.95 483.18 2031.86 566.23 2001.00 713.50 2151.75 683.61
00000983 00000027 1903.02 305.27 401.94 552.72 1962.87 520.59 2156.98 484.41 2032.46 566.60 2000.89 712.54 2146.22 683.00
00000984 00000028 1900.47 306.83 403.27 551.03 1960.13 525.11 2154.73 484.79 2031.99 567.91 2001.23 715.28 2145.14 682.23
00000985 00000029 1898.58 312.79 400.52 542.60 1953.15 526.10 2146.88 484.70 2024.19 567.77 1993.49 716.44 2136.39 682.85
00000986 DELETE   1887.43 317.28 402.19 539.50 1942.00 529.59 2130.17 485.92 2005.88 570.81 1979.32 719.03 2119.85 684.06
00000987 DELETE   1882.04 319.13 399.37 545.91 1934.37 541.03 2113.78 491.69 1986.48 577.94 1967.72 729.49 2103.30 689.50
00000988 DELETE   1878.66 314.69 400.35 557.57 1930.85 545.14 2094.35 496.15 1980.55 591.13 1970.04 736.70 2105.68 697.65
00000989 00000033 1878.15 324.69 400.98 559.75 1930.06 546.46 2103.38 504.14 1976.33 603.91 1964.45 745.01 2096.88 710.91
00000990 00000034 1881.51 337.29 405.67 563.28 1933.14 559.25 2101.40 512.57 1981.82 617.85 1980.67 761.20 2104.95 724.10
00000991 00000035 1881.27 341.31 409.23 567.90 1934.56 565.99 2103.68 519.29 1984.24 629.80 1986.33 771.62 2112.89 734.54
00000992 00000036 1878.39 343.71 414.46 574.42 1934.14 577.19 2108.25 525.21 1987.58 636.32 1987.12 780.94 2123.29 738.97
00000993 00000037 1876.51 344.95 414.87 575.48 1932.59 577.36 2107.97 526.08 1988.33 638.35 1984.82 780.13 2127.54 738.71
00000994 00000038 1873.63 337.96 417.97 577.22 1929.59 573.03 2105.41 519.46 1984.48 633.47 1981.66 774.14 2129.01 730.52
00000995 00000039 1874.49 334.16 416.59 567.24 1930.72 563.74 2104.91 515.06 1986.08 624.66 1981.76 761.02 2126.31 721.50
00000996 00000040 1877.99 329.78 413.28 564.99 1932.67 557.04 2105.19 509.70 1986.64 615.53 1980.06 752.93 2125.22 714.63
00000997 00000041 1875.43 323.58 413.53 570.96 1931.01 549.76 2108.83 503.65 1981.02 611.80 1973.85 749.69 2118.64 711.10
00000998 00000042 1880.35 326.64 409.51 577.01 1932.27 556.70 2102.06 505.74 1981.13 614.42 1980.10 757.33 2124.25 715.56
00000999 00000043 1876.90 329.47 410.62 576.48 1927.18 560.28 2098.34 507.42 1975.27 615.91 1976.46 760.60 2122.10 716.87
00001000 00000044 1874.04 324.35 411.46 574.99 1922.15 554.94 2092.49 502.23 1973.29 613.54 1970.56 752.99 2118.96 709.24
00001001 00000045 1870.99 321.04 411.23 564.96 1920.00 544.68 2092.71 498.93 1974.29 611.95 1968.31 742.52 2114.56 704.93
00001002 00000046 1871.81 311.91 409.03 565.75 1924.21 541.42 2088.17 493.04 1973.85 608.96 1967.94 736.45 2120.97 695.38
00001003 00000047 1869.96 313.66 409.01 561.44 1922.05 542.31 2085.89 494.23 1972.13 610.39 1965.94 735.66 2118.28 695.02
00001004 00000048 1868.59 314.58 406.83 560.47 1919.94 543.83 2082.11 494.87 1969.06 612.42 1963.28 737.08 2117.57 695.31
00001005 00000049 1869.20 314.70 405.64 560.47 1919.69 543.72 2080.84 495.13 1966.35 612.01 1962.59 737.46 2114.85 696.38
00001006 00000050 1868.26 313.22 402.39 556.85 1917.70 542.08 2078.31 489.86 1962.33 599.00 1959.75 734.72 2106.22 691.51
00001007 00000051 1868.76 306.63 400.31 551.24 1916.60 537.41 2079.00 483.13 1959.30 583.04 1956.30 727.26 2097.63 682.97
00001008 00000052 1870.68 301.26 396.89 549.11 1917.33 531.39 2084.06 477.16 1963.54 571.89 1957.56 717.77 2100.11 673.01
00001009 00000053 1872.09 304.59 395.54 542.85 1919.86 528.99 2087.03 475.68 1967.25 568.31 1959.43 713.12 2102.63 668.66
00001010 00000054 1871.83 302.06 397.31 543.34 1920.63 528.22 2090.26 473.91 1971.71 565.70 1962.43 713.15 2103.93 668.21
00001011 00000055 1872.51 298.69 401.85 545.85 1921.89 530.17 2095.13 472.61 1975.99 563.97 1964.37 714.47 2110.85 666.73
00001012 00000056 1872.98 296.81 402.51 547.55 1922.31 533.25 2094.46 474.97 1977.66 568.42 1967.44 715.97 2113.36 667.80
00001013 00000057 1872.46 296.97 403.43 548.73 1919.79 534.08 2092.21 476.68 1974.93 576.49 1968.09 718.33 2114.36 670.84
00001014 00000058 1868.53 298.60 408.65 551.43 1917.62 535.42 2090.33 480.71 1973.38 582.20 1966.17 720.14 2112.18 674.93
00001015 00000059 1864.56 300.44 409.72 556.30 1915.46 539.60 2082.53 484.44 1967.75 590.89 1963.51 726.32 2106.02 680.72
00001016 00000060 1861.93 304.42 410.39 553.27 1913.07 539.62 2081.32 484.37 1966.33 590.59 1959.86 726.75 2104.28 681.37
00001017 00000061 1860.82 303.20 409.18 550.85 1911.48 537.64 2079.44 481.86 1963.37 589.59 1959.78 725.69 2102.04 679.68
00001018 00000062 1860.96 309.32 401.45 542.69 1901.66 538.52 2086.79 480.67 1958.67 584.97 1956.02 723.61 2096.38 674.29
00001019 00000063 1858.93 306.79 402.27 544.65 1898.48 538.48 2083.61 479.62 1954.49 583.67 1952.50 723.69 2092.81 673.62
00001020 00000064 1859.21 305.79 398.18 544.08 1897.43 536.59 2080.95 478.60 1951.74 581.09 1950.21 722.11 2088.06 672.71
00001021 00000065 1858.95 303.40 395.11 544.42 1894.55 533.71 2075.15 477.23 1947.15 581.58 1946.58 720.03 2084.33 671.75
00001022 00000066 1859.51 302.67 394.21 543.92 1894.68 531.95 2076.17 477.03 1947.98 579.68 1946.08 718.12 2085.52 671.08
00001023 00000067 1858.96 301.29 396.21 546.13 1894.61 531.43 2075.62 477.19 1945.75 578.78 1944.18 717.87 2083.09 671.53
00001024 00000068 1856.53 298.53 394.63 548.63 1890.04 527.46 2070.59 475.46 1940.17 578.91 1938.70 717.22 2078.40 672.70
00001025 00000069 1854.67 296.82 396.78 550.84 1887.78 528.26 2067.86 475.84 1937.15 580.90 1936.54 717.71 2076.59 672.94
00001026 00000070 1850.92 293.51 401.11 555.26 1884.25 526.77 2064.64 475.12 1933.44 582.97 1934.11 719.21 2073.47 675.46
00001027 00000071 1846.13 289.74 405.15 561.97 1880.24 527.32 2058.47 473.78 1921.61 581.50 1928.14 721.81 2066.22 676.50
00001028 00000072 1845.30 287.28 405.31 567.28 1879.81 529.80 2054.44 474.38 1914.21 580.72 1925.05 725.16 2060.83 678.75
00001029 00000073 1845.75 284.82 404.29 571.99 1880.72 526.47 2053.77 477.53 1913.69 586.95 1925.41 725.86 2061.28 684.67
00001030 00000074 1846.60 284.88 405.27 575.56 1880.37 525.57 2054.32 479.08 1909.68 588.07 1922.65 726.62 2060.82 687.12
00001031 00000075 1848.42 286.10 409.68 576.73 1882.55 526.36 2058.06 480.34 1911.65 589.67 1923.16 728.03 2062.88 689.11
00001032 00000076 1850.50 290.76 410.43 574.84 1885.15 532.99 2059.28 484.51 1912.10 593.47 1925.84 732.14 2065.30 691.29
00001033 00000077 1855.39 293.85 406.72 573.97 1889.01 537.58 2062.27 487.12 1914.80 596.04 1928.95 734.24 2069.37 691.29
00001034 00000078 1857.60 294.40 408.37 573.99 1892.34 535.80 2067.33 489.14 1920.33 597.37 1931.09 733.70 2071.11 694.25
00001035 00000079 1857.30 299.41 410.52 575.49 1900.82 541.58 2069.58 492.88 1921.09 593.87 1933.93 736.92 2081.03 695.69
00001036 00000080 1856.98 299.58 411.93 574.79 1902.12 540.92 2071.01 491.84 1922.38 592.58 1934.92 738.31 2080.31 696.94
00001037 00000081 1859.14 297.03 410.08 576.35 1903.27 540.76 2072.31 491.45 1925.33 591.13 1936.18 736.83 2082.52 695.29
00001038 00000082 1861.54 295.93 409.21 575.41 1905.29 538.04 2074.36 490.62 1926.25 587.94 1934.21 733.27 2082.68 693.39
00001039 00000083 1862.46 294.74 409.09 576.65 1906.11 536.64 2075.02 488.32 1927.12 586.67 1936.35 733.73 2083.82 693.38
00001040 00000084 1864.18 292.17 408.91 576.32 1908.50 532.42 2076.98 487.02 1930.13 585.16 1936.65 731.49 2083.40 694.00
00001041 00000085 1865.63 290.10 406.06 575.99 1909.18 528.60 2076.50 485.11 1931.13 584.71 1938.86 728.55 2083.01 692.66
00001042 00000086 1865.63 285.95 407.65 576.60 1909.60 524.15 2075.21 481.64 1932.41 582.27 1939.56 724.56 2081.64 689.80
00001043 00000087 1867.21 285.50 407.89 575.24 1912.76 523.50 2076.30 480.12 1935.59 582.15 1942.10 724.01 2082.26 688.68
00001044 00000088 1866.83 285.88 408.81 577.27 1912.78 525.21 2077.60 480.15 1936.63 582.54 1942.93 726.93 2084.72 690.22
00001045 00000089 1866.24 289.03 409.63 577.31 1911.70 527.89 2081.24 483.87 1938.03 584.88 1942.76 728.47 2088.98 692.30
00001046 00000090 1866.35 294.26 411.32 576.74 1912.51 530.74 2084.30 485.10 1940.47 586.90 1945.12 731.63 2093.22 693.72
00001047 00000091 1866.18 298.25 410.83 576.43 1912.98 533.30 2085.05 489.70 1940.86 591.24 1945.08 733.12 2096.02 696.47
00001048 00000092 1865.85 298.27 418.01 578.66 1907.26 529.96 2085.38 491.40 1937.44 597.78 1943.74 732.48 2086.46 699.82
00001049 00000093 1868.54 296.93 420.25 590.74 1911.59 532.69 2080.33 494.75 1940.53 602.68 1947.21 736.89 2089.33 706.50
00001050 00000094 1868.50 299.80 419.18 592.41 1912.22 537.65 2080.20 499.10 1940.26 608.15 1947.29 741.27 2089.65 710.07
00001051 00000095 1866.49 302.05 418.56 592.35 1911.09 541.75 2078.02 502.52 1939.23 607.41 1944.87 742.51 2087.72 710.69
00001052 00000096 1865.34 301.81 419.66 592.01 1910.42 541.22 2078.12 502.19 1939.74 607.30 1944.64 742.10 2087.82 710.59
00001053 00000097 1866.47 302.49 419.17 592.57 1911.60 541.30 2078.59 502.12 1940.08 607.36 1945.67 743.01 2087.83 711.27
00001054 00000098 1863.87 303.39 419.82 591.94 1908.96 543.52 2076.73 502.09 1937.84 608.57 1944.49 745.34 2087.13 711.61
00001055 00000099 1862.89 304.15 420.33 591.69 1908.30 544.24 2076.59 502.55 1937.49 609.31 1944.42 746.20 2087.21 712.13
00001056 00000100 1864.01 302.17 420.99 593.27 1909.66 543.71 2078.16 502.24 1938.65 608.44 1944.99 744.91 2088.84 711.00
00001057 00000101 1862.24 301.72 419.47 592.22 1908.46 541.19 2077.65 500.68 1939.70 607.25 1943.67 743.31 2087.28 710.47
00001058 00000102 1855.57 303.73 419.87 580.70 1908.14 541.71 2082.12 501.55 1937.00 601.41 1940.62 741.10 2090.88 707.69
00001059 00000103 1854.31 299.86 423.43 582.85 1907.26 540.08 2083.00 499.40 1938.03 598.50 1939.68 739.85 2091.67 706.26
00001060 00000104 1853.94 300.41 422.15 583.14 1907.02 539.71 2083.88 500.00 1938.81 599.09 1938.96 740.27 2091.55 707.49
00001061 00000105 1851.21 300.40 423.80 583.71 1905.38 539.66 2082.82 499.31 1937.20 599.72 1937.71 741.32 2090.37 708.22
00001062 00000106 1851.81 300.13 424.62 583.50 1906.19 538.41 2083.79 498.72 1938.80 600.00 1938.28 740.32 2092.03 707.85
00001063 00000107 1853.31 301.51 423.29 582.16 1907.63 537.71 2084.23 498.88 1941.28 601.55 1940.30 740.06 2092.71 708.33
00001064 00000108 1852.02 301.75 423.72 582.18 1906.58 538.53 2083.44 500.00 1940.49 602.68 1939.28 740.04 2092.08 708.56
00001065 00000109 1851.99 302.38 422.88 583.23 1906.30 538.41 2084.12 500.56 1941.35 603.85 1939.34 740.96 2092.70 710.06
00001066 00000110 1852.55 302.42 421.85 585.21 1907.15 540.18 2084.30 502.03 1942.96 604.92 1940.52 742.55 2093.64 711.43
00001067 00000111 1851.52 300.30 423.48 585.17 1905.98 537.69 2084.74 499.21 1942.16 602.63 1938.92 740.41 2094.42 709.02
00001068 00000112 1852.33 297.08 423.37 585.54 1906.30 535.49 2085.75 497.15 1944.02 600.76 1939.37 738.62 2095.71 707.59
00001069 00000113 1854.37 294.41 421.49 586.50 1907.15 533.60 2087.41 494.22 1944.39 598.95 1941.76 736.42 2097.71 704.28
00001070 00000114 1856.49 287.26 420.92 589.12 1908.92 527.63 2088.06 490.60 1948.74 597.06 1943.62 731.96 2099.53 702.49
00001071 00000115 1857.47 283.63 422.48 588.81 1909.82 521.43 2091.40 485.82 1953.92 594.80 1945.22 727.93 2102.51 700.25
00001072 00000116 1858.54 280.21 423.28 589.90 1910.40 520.73 2092.12 481.33 1954.09 589.15 1945.35 727.68 2102.88 696.66
00001073 00000117 1859.33 277.34 424.09 588.26 1912.07 515.90 2092.08 477.90 1956.12 586.27 1947.61 723.32 2101.87 693.64
00001074 00000118 1859.70 276.73 425.33 588.40 1914.13 517.42 2094.98 480.86 1960.70 587.01 1950.16 722.36 2105.23 694.17
00001075 00000119 1864.01 274.20 428.82 592.29 1917.92 524.20 2099.57 490.19 1963.60 591.23 1953.08 722.22 2110.20 696.57
00001076 00000120 1862.94 275.64 431.22 592.64 1917.78 525.91 2102.25 492.27 1967.07 595.56 1954.32 723.70 2114.55 698.37
00001077 00000121 1865.74 280.64 429.17 593.00 1921.57 530.28 2103.26 496.02 1969.04 602.60 1961.41 728.49 2118.91 702.16
00001078 00000122 1868.08 283.43 427.48 594.58 1924.01 530.09 2104.97 499.41 1972.80 609.23 1965.11 730.09 2122.26 707.15
00001079 00000123 1873.00 289.69 424.34 598.80 1925.14 536.50 2102.17 504.49 1970.04 615.45 1966.13 737.78 2116.34 712.95
00001080 00000124 1877.85 293.67 424.10 599.46 1929.95 541.55 2106.51 506.61 1975.30 615.51 1969.22 744.23 2119.94 717.30
00001081 00000125 1877.91 297.23 428.86 600.19 1931.84 544.91 2108.71 510.76 1976.92 621.95 1971.20 748.83 2121.91 722.50
00001082 00000126 1879.27 302.00 427.95 597.50 1933.14 549.46 2109.03 513.81 1978.61 625.80 1975.29 751.77 2123.58 724.28
00001083 00000127 1878.78 304.30 431.62 597.47 1934.09 550.48 2111.85 517.91 1980.23 628.29 1974.70 752.53 2125.02 727.79
00001084 00000128 1877.59 307.88 434.59 595.76 1933.27 552.74 2112.90 519.88 1982.46 629.74 1973.97 754.66 2126.88 729.83
00001085 00000129 1877.23 309.55 435.05 594.91 1933.76 552.36 2113.95 521.45 1984.51 631.39 1973.08 754.44 2128.32 731.41
00001086 00000130 1876.95 310.72 437.72 596.79 1937.82 557.34 2119.64 525.58 1991.57 630.62 1974.43 756.31 2133.46 732.50
00001087 00000131 1877.75 312.40 438.20 594.85 1942.09 557.43 2125.13 527.17 1998.84 632.71 1977.14 754.86 2138.77 732.21
00001088 00000132 1876.65 308.59 440.69 591.69 1942.83 553.70 2137.46 525.87 1998.84 625.59 1973.88 749.67 2133.84 728.86
00001089 00000133 1878.46 306.25 440.12 592.58 1945.68 553.01 2143.57 524.55 2006.63 627.40 1979.33 748.61 2141.71 727.36
00001090 00000134 1879.95 306.01 438.81 592.32 1947.75 555.65 2147.17 527.01 2010.66 630.65 1982.17 749.00 2145.28 727.53
00001091 00000135 1881.25 307.03 437.61 593.19 1950.04 555.56 2149.10 527.23 2013.37 633.07 1985.04 750.65 2147.84 729.21
00001092 00000136 1883.74 311.92 436.29 592.43 1954.23 557.55 2152.57 530.19 2017.96 638.12 1987.92 753.81 2152.13 733.05
00001093 00000137 1884.63 318.46 436.59 592.51 1957.57 562.21 2154.88 535.73 2021.67 644.95 1992.89 758.33 2154.05 738.02
00001094 00000138 1884.75 323.43 438.46 592.38 1958.66 566.83 2158.28 541.56 2022.97 652.03 1992.62 764.07 2156.80 744.68
00001095 00000139 1889.15 331.48 435.60 590.14 1963.70 570.06 2164.55 546.69 2026.41 657.52 1996.10 767.99 2162.94 749.87
00001096 00000140 1892.33 334.79 434.80 591.19 1967.16 574.92 2167.22 553.15 2028.64 664.47 1997.82 773.08 2167.00 756.13
00001097 00000141 1894.46 338.88 431.65 593.02 1969.32 578.91 2170.23 558.05 2030.73 670.64 1998.49 778.04 2169.74 761.88
00001098 00000142 1898.75 342.37 426.85 595.27 1973.39 581.94 2173.93 563.43 2035.66 677.92 2000.68 782.02 2173.33 767.63
00001099 00000143 1902.59 350.19 423.45 592.18 1977.92 587.55 2177.67 571.67 2042.75 684.73 2004.80 787.85 2174.23 775.39
00001100 00000144 1904.27 354.28 423.42 591.79 1980.38 591.42 2180.31 576.89 2046.54 692.08 2008.01 792.47 2176.26 780.90
00001101 00000145 1907.70 359.57 419.84 585.75 1981.36 593.70 2185.68 581.42 2051.30 693.16 2013.53 792.66 2180.78 782.14
00001102 00000146 1909.71 360.83 421.00 590.91 1985.78 595.69 2186.09 582.39 2051.21 696.36 2012.00 798.32 2180.45 787.49
00001103 00000147 1911.58 360.33 419.76 591.60 1988.94 594.92 2190.13 582.89 2055.55 695.37 2013.58 797.22 2182.95 787.50
00001104 00000148 1912.67 359.66 422.39 589.82 1991.85 592.96 2193.14 582.20 2058.69 694.16 2016.02 794.18 2185.10 785.30
CROP_BBOX: 1624 44 2572 1087
