Video ID: 	A6_QrpzutUM
H: 	1080
W: 	1920
FPS: 	25.0

FRAME INDEX X0 Y0 W H [Landmarks (5 Points)]

00066805 00000000 625.73 253.50 429.33 578.18 767.04 555.36 920.56 465.35 902.17 607.52 864.23 730.21 983.98 653.62
00066806 00000001 620.45 260.83 427.04 566.69 763.85 556.55 921.02 469.79 900.85 614.81 861.22 729.92 980.76 656.61
00066807 00000002 630.62 254.15 426.79 577.40 768.13 543.00 925.44 466.01 903.60 605.29 871.02 719.57 995.43 656.20
00066808 00000003 621.53 255.53 428.76 568.85 763.74 553.68 923.53 465.85 901.47 609.93 860.03 726.46 983.77 652.25
00066809 DELETE   623.26 253.33 430.01 569.52 765.73 548.99 927.20 461.21 904.75 607.43 859.24 722.91 986.31 648.60
00066810 00000005 636.87 238.67 426.39 580.75 772.95 534.72 928.64 456.85 908.53 597.03 867.74 705.67 1003.95 641.34
00066811 DELETE   643.98 234.56 422.78 583.14 779.96 530.39 930.89 453.97 912.51 590.19 871.58 700.34 1006.34 636.87
00066812 DELETE   651.69 225.39 426.05 594.72 786.82 522.97 945.15 446.46 921.81 577.51 869.86 693.29 1018.24 630.40
00066813 00000008 661.57 222.70 425.15 585.38 806.36 513.06 960.00 443.45 937.67 567.24 880.36 679.45 1021.33 622.44
00066814 DELETE   677.72 214.02 416.95 583.64 824.80 492.41 976.70 430.85 957.85 551.51 897.40 668.20 1025.61 616.94
00066815 00000010 692.42 200.08 415.68 584.82 843.07 478.61 998.80 417.58 978.63 538.30 908.66 658.54 1042.18 605.91
00066816 DELETE   707.34 198.18 412.85 581.02 870.09 468.36 1022.74 417.69 1010.88 527.01 927.17 653.52 1056.82 609.32
00066817 00000012 720.20 194.80 406.66 580.96 885.46 461.60 1037.09 417.95 1027.84 528.59 936.00 650.03 1064.46 612.77
00066818 00000013 734.46 197.45 399.04 586.46 894.44 458.47 1053.42 423.66 1027.44 537.09 943.40 642.24 1079.28 614.28
00066819 00000014 740.24 194.89 397.43 587.15 902.31 459.65 1060.77 426.32 1034.76 538.37 945.58 641.65 1082.48 614.90
00066820 00000015 745.57 195.45 394.24 583.43 906.56 458.40 1065.67 426.82 1038.32 539.53 946.97 640.00 1085.04 614.45
00066821 00000016 746.85 191.92 396.17 583.56 906.81 455.98 1066.98 425.79 1036.32 540.30 947.48 639.00 1085.12 614.48
00066822 00000017 747.41 189.74 396.76 584.01 905.96 453.95 1067.36 422.75 1035.52 537.84 947.20 638.05 1086.74 612.70
00066823 00000018 747.11 189.42 396.20 583.42 906.46 453.32 1066.45 420.73 1036.70 536.90 948.18 637.90 1086.84 611.42
00066824 00000019 746.52 189.17 396.84 581.51 905.64 452.99 1066.56 420.00 1036.05 536.60 948.16 637.56 1086.73 610.82
00066825 00000020 746.69 188.38 395.23 581.06 904.84 452.88 1065.99 419.61 1035.48 536.24 948.22 637.13 1086.25 610.15
00066826 00000021 745.67 189.71 395.49 579.65 904.43 453.34 1065.55 419.91 1034.89 535.52 948.99 637.48 1085.22 610.43
00066827 00000022 744.43 190.58 396.43 578.53 903.06 454.02 1065.01 420.33 1033.38 535.91 947.94 637.44 1084.61 610.17
00066828 00000023 743.17 191.73 396.03 576.93 902.70 454.15 1064.93 421.13 1033.73 536.18 947.58 637.33 1084.08 610.62
00066829 00000024 743.42 191.72 396.13 572.50 902.57 454.68 1066.41 422.22 1033.06 536.36 949.19 637.47 1084.49 611.15
00066830 00000025 742.17 191.78 395.84 571.52 903.01 455.79 1063.57 422.99 1031.94 535.65 951.85 637.19 1082.74 610.77
00066831 00000026 741.27 192.20 396.21 573.20 902.56 456.58 1063.95 423.63 1032.32 536.58 952.05 638.78 1083.02 612.16
00066832 00000027 742.20 190.68 395.44 579.22 902.42 458.41 1066.90 423.37 1035.82 539.43 952.94 642.25 1088.01 613.67
00066833 00000028 741.24 191.11 395.62 586.00 901.57 457.15 1064.46 425.62 1032.22 537.53 950.92 645.99 1081.41 620.49
00066834 00000029 740.32 191.83 395.16 589.01 901.83 457.34 1062.21 427.22 1032.06 536.75 951.95 648.66 1078.17 624.53
00066835 00000030 739.55 190.73 395.41 592.78 901.16 457.24 1061.64 427.03 1031.44 537.32 951.48 650.67 1076.72 626.56
00066836 00000031 739.92 191.82 395.16 591.93 900.33 457.32 1061.75 427.96 1031.31 537.45 949.51 650.17 1077.07 626.76
00066837 00000032 737.79 193.32 396.32 590.31 899.92 458.14 1060.72 429.12 1031.22 537.48 949.25 649.91 1075.90 626.93
00066838 00000033 736.98 193.36 397.82 591.43 899.58 459.28 1061.01 429.35 1031.95 537.84 946.95 648.03 1078.45 624.07
00066839 00000034 737.31 192.62 397.11 592.07 899.92 458.06 1060.78 428.32 1032.59 538.05 945.01 645.49 1078.70 621.68
00066840 00000035 737.24 192.47 397.18 592.01 899.89 457.50 1060.41 427.43 1032.01 537.60 944.46 644.60 1077.83 620.47
00066841 00000036 736.31 191.51 397.76 593.00 899.82 455.96 1059.11 426.49 1031.67 536.46 944.72 644.49 1076.64 620.96
00066842 00000037 736.09 190.50 398.14 593.62 900.02 454.65 1057.95 425.28 1031.49 536.04 944.97 643.92 1076.53 620.46
00066843 00000038 735.89 190.52 397.95 592.31 900.01 454.14 1057.50 424.99 1030.53 535.45 945.20 642.88 1075.90 619.56
00066844 00000039 736.62 188.58 396.18 593.26 901.51 454.57 1056.75 424.65 1030.79 534.68 946.21 642.62 1073.32 618.88
00066845 00000040 736.18 187.76 396.91 592.69 901.63 455.95 1057.91 424.25 1031.64 534.02 947.56 642.87 1074.89 617.60
00066846 00000041 736.76 187.93 396.52 592.78 901.54 455.84 1058.38 423.94 1031.66 534.07 947.96 642.66 1075.80 617.14
00066847 00000042 737.65 189.10 395.59 592.72 901.89 456.26 1058.82 424.23 1032.38 534.30 947.85 643.31 1075.85 617.72
00066848 00000043 738.48 189.64 395.09 590.89 902.55 456.62 1059.67 424.77 1032.84 533.84 947.96 643.18 1075.77 617.78
00066849 00000044 738.70 189.80 395.45 590.89 902.41 456.95 1060.18 425.21 1032.70 534.16 947.88 643.26 1076.72 617.86
00066850 00000045 738.70 189.27 396.67 591.26 901.92 457.08 1061.37 424.60 1033.60 535.18 947.83 643.51 1078.99 617.40
00066851 00000046 737.98 190.17 397.92 590.99 901.10 458.26 1062.04 424.92 1033.56 536.31 947.30 644.00 1079.98 617.08
00066852 00000047 736.58 191.77 398.76 590.20 899.62 456.71 1060.00 424.32 1031.33 536.80 946.66 644.01 1078.00 617.94
00066853 00000048 735.28 192.52 398.07 590.27 899.36 457.40 1057.44 425.42 1030.76 536.26 946.59 644.20 1075.87 618.54
00066854 00000049 733.89 188.52 399.27 589.36 900.04 454.32 1056.04 422.64 1040.57 532.04 941.68 648.57 1072.49 621.60
00066855 00000050 731.82 191.10 401.03 588.27 896.49 454.16 1053.06 421.88 1036.50 531.67 938.39 648.36 1070.73 620.80
00066856 00000051 730.80 191.21 401.74 588.13 894.82 452.54 1053.29 420.12 1035.15 531.79 935.54 647.55 1069.70 619.84
00066857 00000052 728.31 192.06 401.54 587.73 891.28 453.78 1050.24 419.02 1032.77 531.67 932.67 648.20 1066.94 618.41
00066858 00000053 727.08 191.48 402.18 589.58 889.36 452.91 1048.74 418.03 1031.83 532.57 930.32 647.55 1066.28 617.89
00066859 00000054 725.60 190.66 402.64 590.16 886.72 452.30 1046.54 417.54 1029.02 533.78 926.57 646.86 1064.19 617.52
00066860 00000055 724.08 188.41 402.30 591.78 881.78 452.59 1042.35 418.63 1022.31 533.51 922.44 646.79 1060.17 617.95
00066861 00000056 722.31 187.06 401.50 593.06 876.23 451.30 1038.36 420.27 1013.32 534.01 919.64 646.62 1055.98 619.51
00066862 00000057 721.47 187.44 402.25 592.53 872.87 449.59 1038.11 418.62 1009.94 533.88 917.08 646.07 1055.73 618.70
00066863 00000058 721.61 186.03 402.67 594.31 871.97 449.01 1037.97 418.56 1008.93 533.03 915.68 645.05 1056.14 618.00
00066864 00000059 722.16 185.74 402.37 592.07 872.47 448.92 1038.40 417.93 1009.35 533.32 916.54 644.79 1056.42 617.33
00066865 00000060 722.10 184.68 402.99 592.73 874.16 449.61 1038.44 417.85 1011.16 533.10 916.96 644.24 1056.70 616.34
00066866 00000061 722.12 184.44 403.68 591.21 874.53 449.46 1039.98 416.29 1014.08 533.27 918.25 644.26 1058.88 615.26
00066867 00000062 721.82 184.51 404.57 591.38 875.48 449.07 1041.93 414.03 1018.03 533.82 916.81 643.27 1061.10 613.18
00066868 00000063 724.20 181.73 401.30 589.81 879.10 446.95 1043.44 412.68 1022.24 531.57 920.26 642.06 1061.31 612.98
00066869 00000064 729.29 189.66 399.05 581.28 883.81 447.36 1049.35 415.17 1016.61 535.63 927.91 632.79 1072.79 607.16
00066870 00000065 730.25 187.46 399.01 581.73 884.35 445.33 1049.36 412.81 1016.26 533.50 927.68 630.88 1073.10 604.91
00066871 00000066 729.84 187.28 399.03 579.61 884.32 444.22 1049.51 411.32 1016.69 532.61 927.81 630.39 1073.24 604.16
00066872 00000067 729.46 187.72 398.66 578.21 882.51 443.20 1048.41 411.96 1012.74 530.37 926.56 629.35 1070.29 604.49
00066873 00000068 727.07 187.49 396.70 577.39 882.19 449.44 1045.40 414.53 1015.96 527.62 925.36 640.04 1060.50 610.78
00066874 00000069 726.08 188.32 397.37 577.28 881.13 449.49 1044.87 414.13 1015.29 527.27 924.54 640.34 1060.28 610.67
00066875 00000070 723.20 179.70 400.47 583.57 875.44 442.34 1044.74 408.66 1019.51 525.15 923.82 640.05 1064.05 610.70
00066876 00000071 722.73 179.26 400.71 584.09 875.10 442.08 1044.15 409.06 1018.16 524.72 923.86 639.73 1063.85 610.69
00066877 00000072 721.26 177.86 401.71 585.88 874.00 442.85 1042.82 409.59 1015.82 526.00 923.71 641.52 1061.97 612.05
00066878 00000073 721.58 179.58 400.52 584.67 873.41 443.38 1042.93 410.35 1014.79 526.54 924.00 642.64 1062.36 613.14
00066879 00000074 720.18 178.95 400.46 586.48 872.84 444.37 1041.94 408.83 1015.35 527.19 925.62 644.74 1063.34 613.09
00066880 00000075 720.64 179.43 399.74 589.52 874.73 443.60 1040.97 409.01 1015.57 528.54 926.99 646.28 1061.30 615.54
00066881 00000076 720.11 181.22 400.40 591.38 873.72 442.56 1038.32 409.71 1012.64 526.69 924.66 646.19 1057.44 617.02
00066882 00000077 720.69 181.34 398.69 592.37 874.46 441.42 1037.54 410.15 1012.05 524.77 924.98 646.41 1054.72 618.81
00066883 00000078 720.52 181.16 398.80 592.34 874.18 439.38 1037.95 408.42 1011.82 524.08 923.69 645.15 1054.29 617.75
00066884 00000079 719.78 182.02 400.31 590.79 873.63 439.29 1038.07 407.69 1011.95 522.14 923.91 644.22 1055.43 616.20
00066885 00000080 720.05 182.36 399.67 590.34 873.19 438.92 1037.65 407.90 1011.12 522.46 922.70 644.07 1054.56 616.58
00066886 00000081 719.19 183.13 399.26 590.48 872.53 438.31 1036.60 407.51 1010.19 521.67 921.96 644.44 1053.19 617.15
00066887 00000082 718.94 183.07 399.48 590.56 871.93 437.34 1036.67 405.92 1009.94 520.64 921.62 644.07 1053.71 616.17
00066888 00000083 717.98 183.17 399.73 590.55 871.47 437.01 1036.15 405.27 1010.10 519.99 921.36 643.86 1053.15 615.71
00066889 00000084 718.10 181.33 398.34 591.79 872.33 435.56 1037.31 404.81 1011.22 521.61 921.32 644.01 1052.91 616.67
00066890 00000085 717.72 182.08 397.91 591.34 871.24 435.90 1036.44 404.76 1010.03 521.71 920.67 643.98 1052.90 616.30
00066891 00000086 716.57 182.12 398.52 591.25 870.56 435.32 1035.89 404.23 1009.04 521.65 920.10 643.88 1052.15 616.15
00066892 00000087 715.24 180.30 399.28 593.03 869.66 435.31 1035.20 403.98 1008.09 522.55 919.64 644.61 1051.67 616.59
00066893 00000088 714.53 179.96 399.37 593.04 868.15 436.20 1033.61 403.84 1006.37 522.32 919.63 645.51 1051.04 616.58
00066894 00000089 714.39 178.63 398.99 594.76 868.06 435.46 1033.53 403.67 1005.78 522.75 919.41 645.74 1050.42 617.25
00066895 00000090 714.94 179.66 398.78 593.93 867.68 434.90 1033.53 403.95 1005.39 522.11 918.07 645.21 1049.20 617.46
00066896 00000091 714.81 180.66 398.22 593.19 866.99 433.78 1031.59 403.79 1003.43 518.88 918.19 644.43 1046.63 617.69
00066897 00000092 715.14 179.70 396.73 591.31 866.87 433.32 1031.54 403.13 1003.16 518.42 917.67 641.69 1047.83 614.74
00066898 00000093 714.94 181.85 396.28 581.87 867.26 432.07 1032.48 401.61 1004.68 515.50 918.77 638.05 1050.01 610.82
00066899 00000094 715.83 184.59 391.44 567.43 867.92 436.73 1027.69 403.43 995.56 518.33 919.81 632.89 1045.97 604.11
00066900 00000095 717.28 185.16 388.40 561.92 868.80 434.30 1026.30 401.93 995.28 514.90 920.37 628.83 1044.11 600.98
00066901 00000096 718.65 184.46 388.20 560.39 869.70 434.36 1027.34 401.76 996.86 512.62 920.67 625.79 1045.70 597.81
00066902 00000097 717.87 183.73 388.89 559.92 870.28 433.22 1026.04 400.94 996.31 510.93 920.24 623.23 1044.68 595.55
00066903 00000098 717.11 183.24 389.79 559.70 870.07 433.57 1025.55 401.49 995.73 510.10 919.95 621.88 1045.00 594.30
00066904 00000099 716.91 185.64 389.85 557.96 869.48 433.42 1024.84 402.37 994.18 510.12 918.43 621.08 1044.16 594.36
00066905 00000100 714.86 182.41 391.11 560.75 868.17 433.81 1024.10 402.48 992.51 511.19 917.04 621.69 1042.70 594.68
00066906 00000101 713.04 182.18 391.90 562.04 866.35 433.81 1022.97 402.81 990.18 512.03 914.48 621.23 1041.37 594.42
00066907 00000102 711.05 181.30 391.41 565.31 864.04 432.70 1020.52 403.26 987.03 512.73 913.24 625.14 1036.98 599.64
00066908 00000103 710.57 181.01 391.69 569.02 863.81 433.91 1021.54 404.63 987.65 514.19 911.03 625.47 1038.12 600.00
00066909 00000104 710.70 182.54 390.68 568.91 866.93 434.75 1025.69 408.29 992.44 512.59 909.87 622.87 1042.53 599.64
00066910 00000105 710.20 176.36 390.78 571.47 876.07 436.19 1030.64 408.20 1003.93 509.72 913.77 621.58 1043.66 597.67
00066911 00000106 713.79 176.52 392.71 569.61 879.46 433.69 1035.02 403.92 1009.46 504.30 918.06 618.64 1050.44 593.44
00066912 00000107 714.72 178.18 393.81 565.21 884.85 435.43 1035.40 403.96 1014.50 500.22 923.53 617.01 1051.57 590.69
00066913 00000108 716.30 179.84 392.46 563.39 887.39 439.84 1033.77 406.74 1013.79 503.62 926.05 620.00 1049.40 592.56
00066914 00000109 714.84 181.64 392.51 563.87 883.23 445.21 1033.66 410.42 1010.70 509.77 922.93 623.81 1048.33 594.82
CROP_BBOX: 423 0 1341 962
