Video ID: 	H46dM6OXcpc
H: 	1080
W: 	1920
FPS: 	23.976024486674703

FRAME INDEX X0 Y0 W H [Landmarks (5 Points)]

00000280 00000000 255.26 41.54 359.28 501.18
00000281 DELETE   257.08 41.48 359.00 500.89
00000282 00000002 258.90 41.42 358.72 500.61
00000283 00000003 261.35 41.59 358.41 500.44
00000284 00000004 266.26 42.63 357.94 500.74
00000285 00000005 271.17 43.67 357.48 501.04
00000286 00000006 276.08 44.72 357.01 501.33
00000287 00000007 562.34 139.19 554.02 802.62 871.34 416.89 1074.80 448.87 1082.89 548.21 856.00 704.89 1049.44 732.46
00000288 00000008 560.12 138.21 548.00 795.20 866.75 411.20 1069.10 441.43 1078.20 545.61 849.57 698.70 1042.51 724.90
00000289 00000009 557.02 142.80 549.45 788.40 862.87 415.04 1066.80 446.03 1074.67 547.30 845.51 699.09 1040.18 725.70
00000290 00000010 561.04 140.51 545.73 793.95 864.73 416.09 1066.00 447.39 1075.48 548.37 845.56 700.20 1038.57 727.17
00000291 00000011 564.64 138.41 545.58 791.78 868.95 413.67 1070.56 442.14 1079.14 547.30 851.67 696.58 1045.35 721.26
00000292 00000012 566.06 140.03 548.30 777.38 872.25 405.28 1071.94 431.06 1080.57 536.05 857.31 684.49 1048.31 707.33
00000293 00000013 566.34 140.19 543.82 771.58 871.75 400.37 1070.02 427.79 1079.59 532.26 858.01 679.42 1045.99 703.54
00000294 00000014 566.64 144.32 541.85 769.98 870.10 403.17 1067.30 428.84 1077.73 533.68 855.96 681.16 1045.55 703.75
00000295 00000015 564.11 141.64 544.87 784.60 870.92 412.23 1069.89 438.76 1081.55 546.59 853.96 694.94 1045.39 718.30
00000296 00000016 294.15 40.27 351.37 498.12
00000297 00000017 295.10 39.57 350.78 497.36
00000298 00000018 296.12 40.54 350.15 496.88
00000299 00000019 297.15 41.89 349.50 496.47
00000300 00000020 298.19 43.23 348.85 496.05
00000301 00000021 299.22 44.58 348.21 495.64
00000302 00000022 300.20 45.91 347.58 495.23
00000303 00000023 299.23 46.73 347.71 495.15
00000304 00000024 298.25 47.55 347.84 495.06
00000305 00000025 297.27 48.38 347.96 494.97
00000306 00000026 296.29 49.20 348.09 494.89
00000307 00000027 294.76 49.77 348.26 494.91
00000308 00000028 291.33 49.50 348.57 495.31
00000309 00000029 287.90 49.23 348.87 495.71
00000310 00000030 284.47 48.96 349.18 496.10
00000311 00000031 281.04 48.69 349.48 496.50
00000312 00000032 277.62 48.20 349.85 496.84
00000313 00000033 274.20 47.42 350.31 497.12
00000314 00000034 270.78 46.64 350.76 497.40
00000315 00000035 267.36 45.86 351.22 497.68
00000316 00000036 263.94 45.08 351.68 497.95
00000317 00000037 262.09 44.71 352.01 498.11
00000318 00000038 261.13 44.58 352.29 498.19
00000319 00000039 260.17 44.45 352.56 498.27
00000320 00000040 259.22 44.32 352.83 498.35
00000321 00000041 258.26 44.20 353.11 498.43
00000322 00000042 257.92 43.90 353.34 499.06
00000323 00000043 257.69 43.58 353.58 499.80
00000324 00000044 257.46 43.25 353.81 500.53
00000325 00000045 257.23 42.93 354.04 501.27
00000326 00000046 256.98 42.57 354.28 501.98
00000327 00000047 256.25 41.59 354.67 502.23
00000328 00000048 255.52 40.61 355.06 502.49
00000329 00000049 254.79 39.63 355.44 502.74
00000330 00000050 254.06 38.64 355.83 502.99
00000331 00000051 253.31 37.82 356.23 503.28
00000332 00000052 252.48 37.47 356.69 503.66
00000333 00000053 251.65 37.12 357.14 504.05
00000334 00000054 472.23 125.59 557.94 793.75 779.01 422.23 983.02 425.55 999.23 542.51 808.08 713.69 985.31 715.80
00000335 00000055 473.88 117.58 555.01 793.46 779.61 421.26 978.47 417.47 997.26 544.66 811.96 712.15 984.07 708.81
00000336 00000056 481.64 120.59 546.46 808.86 773.36 438.49 963.15 430.69 991.51 551.56 814.74 723.86 980.63 716.75
00000337 00000057 480.21 118.25 545.35 826.27 776.62 441.17 962.30 440.12 990.62 555.80 811.55 730.05 974.73 728.50
00000338 00000058 478.26 119.51 544.02 816.96 771.11 440.28 962.43 442.18 985.89 554.73 805.08 727.13 973.31 727.71
00000339 00000059 478.43 122.35 544.53 806.14 766.01 434.48 962.12 436.38 980.02 552.98 801.35 722.02 971.84 722.48
00000340 00000060 475.87 122.97 545.84 806.49 761.90 428.36 959.24 431.67 976.71 543.58 795.10 716.37 969.02 717.52
00000341 00000061 470.61 120.79 547.74 799.49 755.23 425.64 959.88 429.55 973.98 541.63 788.36 713.61 967.69 715.02
00000342 00000062 468.40 121.86 546.90 800.62 753.56 426.18 957.77 434.43 970.13 542.46 786.08 714.56 963.52 719.53
00000343 00000063 468.18 116.41 544.98 811.12 753.12 428.44 960.71 439.87 967.40 549.63 780.41 718.01 960.46 725.46
00000344 00000064 472.72 125.35 542.83 805.85 757.20 433.42 965.48 450.25 969.21 557.50 779.76 723.49 961.27 735.60
00000345 00000065 474.77 128.81 540.59 798.98 758.87 434.31 967.11 452.49 969.31 558.83 779.95 722.21 961.22 735.68
00000346 00000066 238.26 26.03 358.91 505.02
00000347 00000067 238.25 26.74 359.12 504.98
00000348 00000068 238.24 27.45 359.33 504.93
00000349 00000069 238.22 28.16 359.53 504.89
00000350 00000070 238.29 28.83 359.76 504.83
00000351 00000071 239.33 29.02 360.15 504.59
00000352 00000072 240.37 29.20 360.54 504.35
00000353 00000073 241.41 29.39 360.93 504.12
00000354 00000074 242.45 29.57 361.32 503.88
00000355 00000075 243.16 29.66 361.68 503.68
00000356 00000076 243.03 29.50 362.00 503.58
00000357 00000077 242.90 29.35 362.31 503.48
00000358 00000078 242.77 29.19 362.62 503.38
00000359 00000079 242.64 29.03 362.93 503.28
00000360 00000080 242.65 28.42 363.30 502.99
00000361 00000081 487.90 111.68 540.08 776.09 769.04 406.72 980.52 419.62 985.49 525.15 804.99 697.34 987.04 706.75
00000362 00000082 490.64 110.24 541.82 779.21 771.26 400.38 984.61 409.86 992.40 513.34 815.21 690.65 1000.79 696.34
00000363 00000083 484.62 101.85 551.13 794.52 772.23 393.36 1000.13 407.81 998.65 504.80 817.66 689.35 1011.93 698.59
00000364 00000084 495.50 99.14 550.18 808.31 782.26 393.35 1002.14 403.50 1007.73 496.47 835.92 694.73 1022.88 701.59
00000365 00000085 244.54 23.52 364.93 501.32
00000366 00000086 516.13 102.67 554.30 841.68 815.69 396.59 1009.84 407.73 1024.54 507.99 867.02 713.27 1026.82 721.60
00000367 00000087 522.40 106.46 557.80 855.30 819.63 392.48 1012.47 410.50 1028.50 507.98 858.98 718.39 1018.74 733.91
00000368 00000088 250.11 23.12 364.05 503.30
00000369 00000089 251.96 22.98 363.75 503.95
00000370 00000090 253.90 24.31 363.76 506.49
00000371 00000091 255.85 25.80 363.80 509.25
00000372 00000092 257.79 27.30 363.84 512.02
00000373 00000093 259.74 28.80 363.88 514.78
00000374 00000094 261.65 30.14 363.91 517.38
00000375 00000095 263.18 29.97 363.90 518.40
00000376 00000096 264.70 29.81 363.88 519.42
00000377 00000097 266.23 29.64 363.87 520.45
00000378 00000098 267.76 29.48 363.85 521.47
00000379 00000099 270.16 29.56 363.77 522.18
00000380 00000100 274.57 30.23 363.53 522.19
00000381 00000101 278.97 30.90 363.29 522.19
00000382 00000102 283.38 31.56 363.04 522.19
00000383 00000103 287.79 32.23 362.80 522.20
00000384 00000104 291.68 33.13 362.77 522.51
00000385 00000105 295.08 34.26 362.94 523.13
00000386 00000106 298.48 35.40 363.11 523.75
00000387 00000107 301.87 36.53 363.28 524.37
00000388 00000108 305.27 37.66 363.45 524.99
00000389 00000109 308.77 37.72 363.28 524.93
00000390 00000110 312.30 37.34 362.96 524.60
00000391 00000111 315.83 36.96 362.65 524.27
00000392 00000112 319.37 36.58 362.33 523.93
00000393 00000113 322.90 36.20 362.02 523.60
00000394 00000114 325.46 36.36 361.98 523.70
00000395 00000115 327.92 36.57 361.97 523.85
00000396 00000116 330.39 36.78 361.95 524.00
00000397 00000117 332.85 36.99 361.94 524.14
00000398 00000118 335.04 37.12 361.94 524.37
00000399 00000119 335.18 36.70 362.08 525.15
00000400 00000120 335.33 36.27 362.22 525.94
00000401 00000121 335.48 35.85 362.36 526.72
00000402 00000122 335.62 35.42 362.50 527.51
00000403 00000123 335.33 34.92 362.71 527.96
00000404 00000124 334.13 34.25 363.09 527.73
00000405 00000125 332.94 33.58 363.46 527.49
00000406 00000126 331.74 32.91 363.84 527.26
00000407 00000127 330.54 32.25 364.21 527.02
00000408 DELETE   330.85 32.72 364.45 527.22
00000409 DELETE   332.51 34.20 364.58 527.82
00000410 DELETE   334.17 35.68 364.71 528.41
00000411 00000131 335.83 37.16 364.84 529.00
00000412 00000132 337.49 38.65 364.97 529.59
00000413 00000133 339.61 39.36 365.19 529.75
00000414 00000134 341.91 39.80 365.44 529.76
00000415 00000135 344.20 40.24 365.69 529.77
00000416 00000136 346.49 40.69 365.94 529.78
00000417 00000137 348.78 41.13 366.19 529.79
00000418 00000138 348.56 41.71 366.73 530.78
00000419 00000139 348.17 42.31 367.29 531.84
00000420 00000140 347.78 42.90 367.85 532.89
00000421 00000141 347.39 43.50 368.41 533.95
00000422 00000142 347.02 43.94 368.95 535.04
00000423 00000143 346.76 43.46 369.35 536.31
00000424 00000144 346.49 42.97 369.76 537.59
00000425 00000145 346.23 42.49 370.17 538.86
00000426 00000146 345.96 42.01 370.58 540.14
00000427 00000147 345.61 41.41 370.87 541.04
00000428 00000148 345.09 40.59 370.95 541.22
00000429 00000149 344.57 39.77 371.03 541.40
00000430 00000150 344.05 38.95 371.11 541.59
00000431 DELETE   343.53 38.13 371.19 541.77
00000432 DELETE   342.08 37.03 371.16 541.53
00000433 00000153 339.88 35.71 371.04 540.94
00000434 00000154 337.68 34.40 370.92 540.35
00000435 00000155 335.48 33.08 370.81 539.77
00000436 00000156 333.27 31.77 370.69 539.18
00000437 00000157 332.19 31.23 370.62 539.00
00000438 00000158 331.46 30.94 370.55 538.96
00000439 00000159 330.72 30.65 370.48 538.92
00000440 DELETE   329.99 30.36 370.42 538.87
00000441 00000161 329.26 30.08 370.35 538.83
00000442 00000162 326.20 30.59 370.16 538.68
00000443 00000163 323.05 31.14 369.96 538.53
00000444 00000164 319.91 31.68 369.76 538.38
00000445 00000165 316.76 32.23 369.56 538.23
00000446 00000166 313.78 32.47 369.36 537.95
00000447 00000167 311.62 31.17 369.14 536.99
00000448 00000168 309.46 29.87 368.92 536.03
00000449 00000169 307.30 28.58 368.70 535.08
00000450 00000170 305.14 27.28 368.49 534.12
00000451 00000171 303.92 26.79 368.32 533.48
00000452 00000172 304.28 27.65 368.26 533.38
00000453 00000173 304.65 28.51 368.19 533.28
00000454 00000174 305.01 29.37 368.13 533.18
00000455 00000175 305.38 30.23 368.06 533.08
00000456 00000176 305.95 31.04 368.03 533.07
00000457 00000177 306.67 31.82 368.02 533.13
CROP_BBOX: 188 0 1396 1080
