Video ID: 	ruNw66j2yms
H: 	1080
W: 	1920
FPS: 	25.0

FRAME INDEX X0 Y0 W H [Landmarks (5 Points)]

00000547 00000000 788.30 172.53 422.01 624.46 921.67 397.76 1101.61 408.25 1013.26 508.43 931.70 622.66 1067.69 630.11
00000548 00000001 795.27 167.93 417.34 622.03 923.93 399.28 1104.80 406.11 1016.27 504.33 934.34 620.45 1073.13 625.03
00000549 00000002 795.94 154.78 414.14 627.77 927.66 390.05 1105.03 405.71 1019.53 496.77 933.59 610.28 1080.08 622.76
00000550 00000003 798.64 154.11 411.37 622.13 929.28 386.85 1108.00 401.89 1021.40 490.85 933.93 605.84 1081.69 617.97
00000551 00000004 797.59 152.47 412.00 624.50 930.52 382.88 1108.96 398.83 1022.00 487.48 933.31 604.63 1080.21 617.27
00000552 00000005 796.57 169.15 416.14 615.86 927.44 388.57 1109.93 398.89 1019.71 490.72 932.02 610.10 1074.12 618.11
00000553 00000006 795.37 166.08 414.24 621.91 924.46 385.23 1108.86 397.23 1016.05 489.74 926.75 605.83 1075.48 615.04
00000554 00000007 789.82 152.65 412.95 638.60 925.14 373.38 1103.53 397.55 1008.29 486.08 912.49 601.15 1069.17 620.65
00000555 00000008 784.95 151.38 411.32 633.97 914.54 376.18 1094.83 398.76 997.79 486.31 903.38 601.78 1059.73 620.08
00000556 00000009 777.91 152.42 407.26 630.79 901.95 375.52 1084.82 398.11 983.40 485.87 890.00 598.88 1047.31 616.79
00000557 DELETE   769.56 168.37 406.98 612.72 885.66 376.86 1070.91 396.97 970.50 485.30 883.30 594.75 1033.43 611.15
00000558 DELETE   757.14 165.80 408.30 616.27 875.86 375.77 1059.31 398.88 961.74 485.60 872.30 594.11 1021.80 613.34
00000559 00000012 743.93 162.94 413.80 617.11 869.43 380.52 1052.54 404.56 955.00 484.32 860.75 599.08 1013.45 619.67
00000560 00000013 729.73 171.63 419.15 607.39 861.94 385.64 1045.07 403.23 950.67 484.07 856.73 597.83 1009.71 611.51
00000561 DELETE   722.68 169.35 417.96 611.42 856.68 386.85 1039.10 404.30 945.82 484.98 853.64 599.00 1003.50 612.74
00000562 00000015 719.38 154.34 413.31 628.76 855.21 379.09 1033.26 405.99 939.39 484.66 841.70 597.03 997.56 618.84
00000563 00000016 712.38 154.71 415.28 629.37 846.06 381.57 1025.63 406.66 930.47 487.97 835.30 599.64 992.13 619.94
00000564 00000017 706.25 157.09 417.32 627.74 838.43 382.40 1022.58 407.46 924.32 487.40 828.10 600.69 987.61 620.93
00000565 00000018 704.42 152.54 415.49 634.23 832.10 382.63 1019.71 406.12 919.57 487.71 822.75 601.65 986.50 620.58
00000566 00000019 703.86 152.54 413.06 641.80 829.02 381.17 1017.22 403.54 913.62 489.14 817.50 605.02 984.97 622.86
00000567 00000020 706.30 174.41 408.91 629.84 822.75 384.59 1012.70 401.27 911.49 486.44 819.12 605.50 982.19 618.89
00000568 00000021 705.17 175.40 409.10 630.22 820.57 382.61 1010.54 398.36 909.55 485.90 817.50 604.51 980.72 617.06
00000569 00000022 704.41 178.68 409.77 626.74 818.58 380.96 1008.96 397.07 906.40 484.55 815.45 603.56 979.64 616.48
00000570 00000023 705.89 179.53 407.89 623.08 818.46 380.53 1007.65 394.17 906.55 482.63 818.45 603.25 980.18 614.29
00000571 00000024 704.81 180.87 410.14 617.65 818.61 378.76 1005.04 389.34 907.54 481.82 823.58 600.33 979.69 608.75
00000572 00000025 707.49 181.30 409.71 607.07 820.09 378.00 1003.05 383.98 906.13 480.51 829.46 597.75 976.90 602.49
00000573 00000026 709.01 180.83 409.35 600.93 820.63 378.08 1002.93 381.50 906.36 477.78 833.16 597.14 977.86 599.73
00000574 00000027 706.84 159.74 410.99 612.87 818.21 373.53 1003.53 379.49 903.87 476.67 828.91 599.97 980.51 604.03
00000575 00000028 709.40 160.50 410.28 602.00 816.51 371.48 1002.65 375.69 903.79 473.35 830.05 594.94 981.00 597.56
00000576 00000029 712.88 159.71 407.97 596.44 815.93 370.61 1002.61 372.30 903.37 465.85 829.86 590.01 983.87 590.82
00000577 00000030 714.70 160.02 410.22 589.72 814.38 369.86 1001.96 369.22 901.67 458.01 830.73 584.76 987.46 583.79
00000578 00000031 715.65 165.54 410.48 580.35 814.09 368.72 1002.26 365.67 901.28 454.32 832.15 583.34 987.39 580.61
00000579 00000032 716.19 166.48 410.99 579.28 813.85 369.43 1002.31 364.99 900.57 453.22 832.51 583.94 987.60 580.10
00000580 00000033 716.85 165.29 410.68 579.06 813.32 371.03 1001.52 364.78 900.16 452.74 833.40 584.96 987.33 579.76
00000581 00000034 717.37 164.67 410.84 580.46 813.65 373.08 1000.82 365.21 900.09 454.18 834.57 586.39 988.74 579.80
00000582 00000035 717.97 161.24 409.99 585.83 813.65 374.59 998.67 366.70 898.88 457.48 833.87 587.61 987.59 580.97
00000583 00000036 716.55 160.39 411.98 589.33 812.14 377.06 997.79 367.92 898.18 461.34 834.27 589.47 991.01 581.55
00000584 00000037 717.25 160.08 409.30 592.22 811.31 378.34 994.34 367.52 895.00 467.03 834.75 591.89 989.78 582.41
00000585 00000038 715.80 159.48 409.30 600.50 808.63 381.49 992.57 369.61 890.98 475.16 834.32 598.90 989.64 588.13
00000586 00000039 710.98 164.61 412.83 614.18 807.47 383.23 989.37 377.25 883.88 487.08 826.05 609.20 981.26 603.39
00000587 00000040 713.14 189.71 404.48 608.35 803.61 397.40 983.10 388.56 877.58 492.45 828.20 616.50 980.12 608.77
00000588 00000041 707.91 195.39 408.33 609.77 796.21 401.91 978.57 389.88 871.83 495.74 823.59 623.65 979.72 613.09
00000589 00000042 703.22 199.37 414.62 609.65 790.30 406.14 971.48 391.24 863.68 499.76 821.68 626.63 976.96 613.31
00000590 00000043 696.99 196.50 417.51 611.21 784.89 407.37 965.81 393.50 858.56 499.76 818.42 627.26 969.56 614.63
00000591 00000044 693.80 197.83 410.54 607.38 781.54 405.77 960.78 395.73 852.58 497.65 809.79 623.82 959.46 614.42
00000592 00000045 680.83 178.38 415.05 615.69 773.68 400.84 955.73 393.86 845.83 499.48 797.38 624.02 952.76 618.04
00000593 00000046 677.32 180.43 414.77 611.16 766.82 398.79 951.62 392.48 837.79 499.64 788.97 622.85 943.46 617.78
00000594 00000047 670.25 182.08 415.50 606.91 762.79 397.16 945.63 389.99 836.31 496.33 789.66 622.02 937.25 616.73
00000595 00000048 670.33 181.01 412.17 600.42 759.42 395.23 941.87 385.33 834.29 493.46 789.54 620.57 933.06 613.41
00000596 00000049 670.76 178.05 412.40 595.00 755.54 395.75 941.48 382.78 832.31 490.61 785.34 616.68 933.51 607.25
00000597 00000050 671.79 178.71 411.33 590.81 757.72 395.03 938.06 383.13 830.86 488.17 787.53 612.37 927.55 604.09
00000598 00000051 668.48 177.51 412.65 594.45 757.08 397.43 932.78 383.64 830.75 483.49 787.89 611.38 926.00 601.10
00000599 00000052 667.44 173.86 411.76 605.86 759.42 393.04 935.39 379.67 832.60 480.34 791.44 617.33 924.78 607.94
00000600 00000053 670.31 166.98 411.05 628.94 763.86 392.42 940.29 377.85 836.07 478.06 789.88 622.83 932.92 611.48
00000601 00000054 673.60 162.60 412.25 632.24 766.75 391.71 947.75 378.46 842.16 481.36 790.44 618.66 948.38 607.53
00000602 00000055 676.55 157.36 412.72 625.29 767.47 391.43 952.14 379.16 846.44 483.36 791.98 613.97 953.40 603.39
00000603 00000056 678.16 159.04 412.63 612.86 768.24 390.73 952.64 379.44 847.92 483.32 793.92 609.42 951.65 599.85
00000604 00000057 678.21 158.02 414.63 607.30 768.95 389.37 953.57 379.65 850.24 480.68 794.83 605.38 949.50 597.33
00000605 00000058 677.70 157.06 414.95 601.89 769.16 387.77 954.72 377.63 853.60 475.79 797.99 600.76 950.69 592.52
00000606 00000059 677.20 156.51 414.90 599.08 769.11 385.36 956.79 376.51 854.79 472.27 798.57 597.27 952.58 590.06
00000607 00000060 678.33 155.69 415.00 598.02 770.02 383.31 958.06 374.58 856.83 470.32 800.11 595.41 955.69 588.15
00000608 00000061 680.44 155.07 413.52 595.26 772.34 383.60 960.64 375.32 859.69 467.66 800.81 593.87 957.03 587.19
00000609 00000062 683.45 156.43 410.99 589.86 774.86 382.11 960.96 374.16 861.57 463.47 802.70 590.10 957.90 583.67
00000610 00000063 686.69 155.85 409.19 587.18 777.33 378.66 963.71 370.76 863.53 457.52 804.01 585.48 960.04 578.92
00000611 00000064 689.65 154.24 406.95 585.29 781.30 374.84 967.83 366.74 867.26 451.85 807.41 581.28 962.28 574.65
00000612 00000065 693.05 153.50 404.26 578.21 785.64 369.84 972.92 362.14 870.71 444.68 811.03 576.30 964.79 569.83
00000613 00000066 696.51 150.73 401.46 572.18 791.78 364.11 974.56 357.52 876.65 435.80 816.87 567.62 965.57 561.70
00000614 00000067 699.51 148.55 401.18 569.07 797.80 359.68 979.59 354.58 882.62 430.23 820.92 561.54 968.41 556.88
00000615 00000068 700.95 149.46 402.52 563.68 800.38 356.26 984.28 352.67 886.92 420.40 822.23 557.29 971.53 554.22
00000616 00000069 701.70 145.89 404.09 565.55 803.56 354.95 986.73 352.60 891.96 414.50 824.63 554.73 973.83 552.72
00000617 00000070 701.41 143.37 405.89 565.19 805.90 355.12 987.39 351.38 895.46 410.11 828.01 553.20 975.34 550.12
00000618 00000071 703.80 147.03 405.31 562.14 807.26 354.17 987.61 349.17 896.05 406.48 829.13 551.91 976.77 547.92
00000619 00000072 706.15 150.56 404.30 558.82 809.43 352.67 988.56 348.21 897.18 403.73 830.19 550.13 978.15 546.62
00000620 00000073 709.16 149.45 404.04 562.02 812.04 353.34 992.34 348.62 900.61 404.36 832.46 551.88 981.90 548.36
00000621 00000074 710.90 153.28 404.39 562.45 813.84 352.82 993.92 348.00 902.06 403.17 833.80 552.82 984.88 549.04
00000622 00000075 712.79 154.87 403.96 567.89 815.45 353.81 995.79 348.17 904.39 402.55 834.66 557.68 989.16 553.27
00000623 00000076 716.40 154.27 403.34 579.91 819.18 353.74 998.98 348.01 907.19 407.67 837.42 563.53 992.56 559.21
00000624 00000077 717.82 154.19 406.15 588.04 823.53 355.86 1004.57 350.57 912.62 412.81 841.18 567.43 1000.06 563.09
00000625 00000078 719.96 150.51 406.91 593.73 828.80 357.37 1010.20 354.63 919.00 421.55 844.70 569.17 1004.15 566.48
00000626 00000079 722.61 148.51 407.51 600.52 832.66 359.01 1014.10 356.03 923.59 431.06 847.97 573.69 1005.46 571.16
00000627 00000080 727.95 148.73 405.11 602.57 837.16 361.35 1018.69 357.61 926.22 434.67 851.03 575.96 1009.93 572.87
00000628 00000081 730.71 147.32 403.88 606.56 839.59 363.81 1023.54 358.77 930.71 438.35 855.16 581.17 1013.18 576.74
00000629 00000082 733.43 144.78 405.92 609.80 842.68 365.64 1024.76 361.38 932.77 443.46 857.83 581.95 1013.07 578.18
00000630 00000083 735.37 147.34 407.94 609.01 846.07 365.66 1028.51 361.56 936.43 446.05 860.61 583.12 1015.11 579.36
00000631 00000084 741.29 148.78 407.35 608.01 850.21 368.25 1032.56 364.02 939.98 451.00 865.29 584.05 1019.01 580.52
00000632 00000085 741.07 146.13 413.65 612.16 846.20 370.31 1030.22 369.56 934.83 452.39 865.38 584.24 1017.09 584.29
00000633 00000086 744.00 148.01 412.16 609.46 847.49 375.87 1029.71 374.78 934.51 458.23 867.34 588.41 1018.29 588.20
00000634 00000087 743.26 147.20 414.27 610.11 844.17 381.72 1026.22 377.73 930.93 466.77 867.94 593.83 1016.48 591.16
00000635 00000088 743.71 149.49 413.75 607.91 840.35 384.41 1021.21 377.33 924.87 470.32 867.57 597.05 1012.47 592.04
00000636 00000089 743.00 152.80 411.96 603.62 836.91 384.84 1017.66 375.86 919.27 470.42 865.81 596.79 1009.44 590.43
00000637 00000090 742.66 152.81 412.06 603.87 835.08 385.69 1014.06 375.56 915.84 471.88 864.20 597.19 1007.12 589.83
00000638 00000091 742.26 155.74 411.20 600.11 831.73 387.60 1011.50 374.20 912.61 472.73 862.94 598.67 1007.91 588.42
00000639 00000092 740.22 158.23 413.28 596.71 829.67 388.39 1010.91 374.46 911.10 475.24 861.19 599.62 1006.51 589.03
00000640 00000093 737.46 157.86 414.46 599.35 825.35 390.69 1007.74 373.73 907.74 477.72 858.54 602.87 1007.00 589.62
00000641 00000094 734.23 161.21 413.19 597.15 822.86 393.16 1004.89 375.86 904.58 483.14 856.47 604.58 1009.05 589.87
00000642 00000095 730.72 161.25 410.80 595.85 820.86 394.64 1001.64 378.65 902.06 487.70 853.96 608.16 1002.03 594.76
00000643 00000096 728.52 161.47 411.62 600.81 820.31 395.02 1000.05 382.24 900.00 490.69 850.59 610.86 998.03 600.13
00000644 00000097 725.32 161.30 411.82 611.38 818.08 395.10 1000.47 384.38 898.97 492.64 846.74 615.79 997.65 606.65
00000645 00000098 722.74 171.75 414.38 611.46 819.64 405.07 1002.20 386.28 905.64 495.18 851.66 624.21 991.92 607.96
00000646 00000099 718.86 159.27 412.81 624.86 817.20 397.69 996.39 388.11 899.44 499.65 848.64 625.92 989.07 617.78
00000647 00000100 716.64 158.62 413.29 621.37 815.33 400.02 996.33 392.90 898.61 501.38 843.16 621.45 990.53 615.03
00000648 00000101 714.79 158.55 414.16 619.27 815.05 398.68 995.52 392.36 898.85 500.64 843.22 619.96 988.55 614.13
00000649 00000102 712.89 155.33 414.49 625.18 816.68 395.29 996.40 389.55 900.87 498.03 844.84 622.29 985.09 617.04
00000650 00000103 712.37 156.11 414.12 631.94 815.94 389.66 996.26 382.09 900.24 494.05 843.26 624.17 984.95 617.42
00000651 00000104 711.30 154.18 414.60 631.58 816.91 386.49 998.80 378.19 904.43 489.33 843.85 621.10 988.87 613.44
00000652 00000105 710.90 149.59 413.56 619.00 816.74 386.94 997.43 378.40 908.39 484.18 846.72 611.80 990.00 603.79
00000653 00000106 711.51 151.47 415.17 609.31 818.15 382.75 1000.10 372.16 912.55 475.61 849.27 600.21 998.66 590.14
00000654 00000107 713.58 153.36 413.15 601.19 823.03 375.13 1002.69 369.24 915.35 464.25 849.49 589.74 993.63 583.57
00000655 00000108 716.22 152.84 411.04 597.05 828.63 371.04 1005.51 366.32 919.72 453.73 851.05 583.58 991.81 578.90
00000656 00000109 719.17 153.11 407.87 589.38 832.68 364.88 1008.93 362.49 925.13 444.54 854.43 577.47 993.18 575.04
00000657 00000110 722.00 144.59 406.22 587.73 837.50 361.50 1014.40 360.23 932.50 434.36 855.76 568.40 999.72 566.93
00000658 00000111 722.21 139.99 406.30 588.33 839.72 357.97 1017.64 356.09 937.38 426.91 857.21 563.50 1004.44 561.34
00000659 00000112 723.39 139.09 404.08 582.63 839.78 356.71 1018.56 352.73 938.15 424.48 859.41 561.34 1006.54 557.41
00000660 00000113 723.63 139.06 404.03 581.82 840.10 356.43 1018.47 349.79 938.57 423.36 861.62 561.33 1008.18 555.34
00000661 00000114 724.09 138.64 404.09 583.46 839.34 356.12 1018.28 349.00 937.80 423.12 862.40 563.45 1008.61 556.98
00000662 00000115 724.47 136.35 404.40 584.63 837.66 356.09 1017.70 348.76 935.25 423.91 860.02 562.78 1007.98 555.99
00000663 00000116 722.45 135.69 406.91 584.65 835.56 356.37 1016.39 349.68 932.58 424.76 857.54 562.83 1006.31 556.37
00000664 00000117 724.22 136.06 406.55 584.38 834.96 356.65 1016.76 349.40 929.79 425.62 856.68 563.95 1005.65 557.13
00000665 00000118 725.11 134.96 408.14 584.58 835.10 358.48 1017.55 349.03 930.39 427.91 860.15 566.38 1007.82 557.42
00000666 00000119 728.46 136.17 406.04 582.78 836.46 361.29 1019.60 348.92 932.50 430.13 863.36 568.67 1012.60 557.52
00000667 00000120 733.48 138.00 402.66 580.86 838.82 361.75 1022.41 348.51 934.74 431.67 867.01 570.39 1015.48 559.12
00000668 00000121 735.31 138.15 404.31 583.28 839.58 365.73 1024.07 352.85 935.54 434.24 867.59 574.12 1016.72 563.38
00000669 00000122 738.21 143.68 405.97 585.58 843.84 366.93 1028.53 357.88 938.47 440.44 867.28 576.88 1016.60 569.39
00000670 00000123 739.99 144.44 408.98 591.50 847.21 368.22 1032.01 362.09 940.41 446.59 868.88 579.30 1017.56 574.19
00000671 00000124 740.25 145.64 411.11 599.13 847.99 368.17 1029.39 369.69 939.44 448.98 870.64 578.89 1010.78 581.05
00000672 00000125 742.99 145.55 410.96 601.67 849.98 369.61 1032.42 371.94 940.32 450.82 871.77 580.99 1012.28 583.87
00000673 00000126 744.21 145.79 411.49 603.75 851.32 370.52 1035.63 374.11 941.50 453.25 870.81 583.05 1013.86 586.98
00000674 00000127 745.51 145.83 413.18 607.46 853.52 371.23 1039.34 375.47 943.80 456.38 871.42 585.33 1015.54 589.80
00000675 00000128 748.29 145.13 412.61 611.56 855.71 371.10 1042.03 375.17 945.86 459.20 873.35 588.26 1019.52 592.36
00000676 00000129 749.84 144.62 413.35 616.25 856.97 372.09 1044.95 374.71 947.32 460.86 874.28 592.33 1022.42 595.27
00000677 00000130 751.38 143.17 412.77 622.62 858.15 371.43 1047.66 373.01 949.23 461.61 876.00 594.12 1026.94 595.83
00000678 00000131 752.21 142.84 413.57 623.69 859.69 370.89 1049.45 372.80 950.82 461.56 876.19 593.56 1028.43 595.42
00000679 00000132 752.98 142.93 412.61 623.29 859.95 369.34 1050.27 370.82 951.81 460.60 877.16 592.80 1030.34 594.09
00000680 00000133 752.89 143.09 412.64 618.98 859.55 369.39 1048.68 370.64 951.03 458.80 877.72 590.52 1028.48 591.82
00000681 00000134 752.30 143.06 412.76 611.43 856.87 369.62 1046.19 371.10 948.33 455.97 875.84 585.35 1028.27 586.80
00000682 00000135 751.21 143.19 412.51 607.53 853.90 371.64 1043.91 373.91 945.29 455.35 870.43 581.91 1028.32 583.96
00000683 00000136 748.85 145.87 412.63 604.77 853.23 374.96 1039.49 376.44 942.65 455.80 869.74 581.45 1027.35 582.74
00000684 00000137 746.47 149.77 412.28 602.31 852.24 378.15 1035.89 377.25 940.39 455.10 869.93 583.50 1022.60 583.27
CROP_BBOX: 391 0 1489 1076
