Video ID: 	A73zInCuhJM
H: 	2026
W: 	3840
FPS: 	25.0

FRAME INDEX X0 Y0 W H [Landmarks (5 Points)]

00000810 00000000 2476.56 552.62 425.37 613.58 2659.26 808.11 2840.32 820.24 2789.28 930.70 2652.87 1026.94 2809.80 1036.53
00000811 00000001 2476.00 552.57 423.91 613.75 2657.11 808.14 2839.20 821.52 2785.48 931.69 2649.90 1027.24 2807.29 1037.98
00000812 00000002 2476.53 552.90 423.08 612.44 2657.76 807.54 2839.59 821.31 2786.13 931.44 2650.30 1026.70 2807.48 1037.71
00000813 00000003 2475.57 552.82 424.69 614.24 2657.69 807.11 2839.40 821.56 2786.39 931.31 2649.69 1027.13 2806.63 1038.69
00000814 00000004 2475.17 551.92 424.20 614.11 2656.93 807.31 2839.43 821.38 2785.38 932.42 2649.09 1027.18 2807.55 1038.42
00000815 00000005 2474.09 552.32 424.79 614.56 2656.07 808.50 2838.39 822.33 2784.13 932.56 2647.78 1027.43 2806.51 1038.66
00000816 00000006 2472.67 552.26 425.75 613.66 2654.42 808.39 2837.93 823.20 2781.35 933.84 2645.98 1026.70 2805.25 1038.61
00000817 00000007 2473.10 549.00 425.03 615.90 2653.02 808.44 2837.92 823.62 2779.87 933.33 2644.74 1025.91 2804.13 1038.32
00000818 00000008 2472.61 553.49 425.72 610.60 2649.78 810.95 2840.53 824.45 2780.40 933.06 2645.33 1026.83 2805.07 1038.08
00000819 00000009 2474.95 557.37 421.86 605.29 2651.99 812.34 2841.07 826.46 2781.23 935.82 2646.58 1027.47 2804.89 1039.22
00000820 00000010 2475.31 560.12 422.50 600.81 2651.83 813.05 2840.32 827.95 2777.88 939.11 2645.64 1027.57 2802.44 1039.67
00000821 00000011 2477.82 560.36 419.67 597.99 2654.81 815.43 2839.91 828.44 2780.31 941.34 2646.47 1026.76 2804.14 1037.87
00000822 00000012 2477.65 559.92 421.46 595.43 2656.53 813.88 2840.95 830.19 2779.31 942.02 2647.22 1026.02 2802.49 1039.35
00000823 00000013 2479.75 560.55 419.30 599.55 2659.06 814.02 2841.62 828.40 2783.46 941.57 2649.18 1026.09 2806.49 1038.15
00000824 00000014 2479.75 560.17 418.62 603.11 2656.84 813.24 2840.50 831.00 2779.52 944.29 2644.40 1026.80 2800.13 1041.77
00000825 00000015 2476.85 552.79 421.47 607.77 2648.42 813.38 2840.10 832.88 2772.00 942.04 2637.55 1027.35 2795.44 1043.88
00000826 DELETE   2464.07 551.46 427.83 596.57 2643.11 804.46 2828.09 827.93 2756.32 926.56 2632.83 1013.14 2784.84 1031.77
00000827 DELETE   2447.39 542.54 440.01 606.18 2616.45 782.77 2803.85 807.14 2725.95 909.22 2612.51 1001.04 2767.85 1019.01
00000828 00000018 2433.90 524.33 435.18 591.05 2595.50 758.00 2782.29 783.26 2701.31 875.12 2587.26 965.59 2746.81 985.94
00000829 DELETE   2417.15 502.84 430.14 600.77 2572.60 735.32 2762.45 760.66 2680.80 841.49 2569.63 948.91 2729.49 968.26
00000830 DELETE   2404.70 478.42 432.37 598.33 2556.97 716.61 2751.24 738.78 2664.36 824.32 2561.85 932.31 2718.97 948.89
00000831 00000021 2394.04 471.85 430.57 579.59 2542.60 707.28 2735.14 726.67 2647.58 813.31 2546.97 916.46 2703.46 930.75
00000832 00000022 2388.32 472.92 432.78 574.30 2536.22 701.18 2727.79 718.73 2641.28 806.21 2542.89 910.42 2698.53 923.04
00000833 00000023 2385.91 471.62 434.85 586.46 2531.63 707.85 2724.40 723.30 2637.09 811.67 2541.53 921.25 2696.47 932.07
00000834 00000024 2387.90 479.00 430.90 592.26 2530.61 715.18 2723.50 733.43 2632.82 829.69 2536.31 932.87 2690.49 945.82
00000835 00000025 2390.93 487.72 429.46 601.45 2529.18 730.49 2722.48 743.57 2631.52 845.03 2537.31 949.83 2691.39 958.89
00000836 00000026 2393.52 497.67 424.49 598.04 2530.73 740.86 2724.78 754.43 2635.19 855.24 2538.50 956.15 2693.48 965.81
00000837 00000027 2395.88 497.30 424.03 605.85 2532.40 740.43 2725.96 755.59 2636.29 856.00 2540.03 958.46 2693.13 969.34
00000838 00000028 2391.07 492.12 428.81 609.25 2527.70 735.48 2724.38 748.82 2632.48 845.62 2538.53 958.67 2690.69 967.87
00000839 00000029 2385.57 485.25 432.57 604.37 2528.16 723.10 2722.62 740.54 2631.86 835.19 2536.01 948.69 2687.13 960.62
00000840 00000030 2383.88 483.04 432.93 602.36 2526.33 719.66 2721.84 739.75 2630.22 833.80 2529.57 943.35 2686.96 957.81
00000841 00000031 2387.13 489.80 430.02 598.84 2525.73 727.31 2720.42 742.55 2629.41 841.78 2528.33 948.56 2691.34 959.66
00000842 00000032 2388.73 495.89 429.30 598.86 2524.94 736.93 2721.50 750.05 2628.71 849.84 2529.51 951.91 2692.23 961.71
00000843 00000033 2395.47 503.52 427.23 599.04 2529.64 744.24 2724.88 758.08 2633.61 862.64 2534.61 957.82 2697.01 968.35
00000844 00000034 2398.38 505.38 427.49 603.96 2531.68 745.57 2727.23 759.60 2634.84 864.93 2535.88 959.70 2701.47 970.91
00000845 00000035 2403.39 506.56 425.07 602.51 2534.40 746.61 2729.90 760.53 2637.18 863.87 2541.03 961.97 2703.03 972.92
00000846 00000036 2406.49 503.50 425.28 602.74 2538.26 748.19 2732.61 760.79 2641.41 860.62 2547.00 961.65 2706.33 971.48
00000847 00000037 2408.71 502.39 423.11 603.37 2540.39 747.82 2734.34 758.20 2645.34 857.99 2550.39 961.12 2711.65 969.20
00000848 00000038 2412.49 507.70 426.17 596.17 2545.01 747.54 2740.85 758.91 2651.16 859.41 2554.87 961.22 2718.78 970.07
00000849 00000039 2412.30 506.57 425.85 601.02 2545.41 747.18 2742.21 762.05 2654.20 856.75 2551.52 960.43 2717.23 972.12
00000850 00000040 2414.96 506.89 428.64 605.02 2550.50 747.83 2745.64 763.97 2656.96 855.87 2553.31 957.33 2720.88 970.34
00000851 00000041 2414.78 507.74 430.18 606.14 2550.72 748.59 2746.60 764.38 2656.99 856.53 2553.82 958.31 2722.24 971.02
00000852 00000042 2415.69 508.41 430.19 603.92 2552.69 749.46 2746.99 765.15 2657.30 856.28 2555.50 955.66 2722.54 968.20
00000853 00000043 2415.73 508.37 431.61 606.37 2554.09 749.76 2748.47 766.81 2658.99 857.91 2556.21 956.58 2722.60 970.34
00000854 00000044 2415.73 509.40 432.86 605.47 2554.95 749.41 2749.25 766.80 2659.48 858.30 2556.44 956.97 2723.30 971.00
00000855 00000045 2415.98 506.71 430.75 608.09 2554.97 748.16 2749.18 767.03 2659.86 857.65 2555.88 956.52 2721.90 971.74
00000856 00000046 2415.99 504.18 426.17 607.76 2553.91 748.28 2747.49 766.58 2660.78 853.99 2555.86 955.32 2721.22 969.72
00000857 00000047 2413.32 510.03 427.70 598.15 2554.95 750.22 2749.10 770.68 2661.82 851.71 2554.45 953.73 2718.73 969.85
00000858 00000048 2410.57 506.61 430.02 599.23 2556.58 749.21 2749.64 767.64 2662.78 848.51 2563.20 954.00 2720.15 968.37
00000859 00000049 2410.94 502.92 430.28 605.59 2557.39 749.09 2749.67 769.15 2661.25 852.46 2563.96 955.10 2716.84 970.67
00000860 00000050 2408.90 509.38 434.48 608.47 2556.61 754.20 2750.30 777.62 2657.67 862.08 2560.77 963.67 2709.79 982.18
00000861 00000051 2409.12 515.23 437.83 609.85 2555.27 758.55 2750.33 778.80 2656.94 871.33 2562.18 971.99 2711.47 988.08
00000862 00000052 2406.46 516.59 438.27 612.48 2558.49 759.36 2752.12 779.64 2662.99 871.64 2567.43 975.78 2712.57 991.33
00000863 00000053 2408.09 505.83 427.88 613.33 2559.72 754.81 2752.57 771.29 2670.81 865.38 2579.93 977.06 2718.29 987.55
00000864 00000054 2406.90 494.56 421.34 615.50 2561.67 745.42 2751.73 755.11 2679.19 853.03 2589.63 971.75 2727.43 975.82
00000865 00000055 2397.89 476.68 424.50 618.60 2560.65 733.80 2747.71 735.69 2687.15 834.48 2592.45 962.69 2739.34 960.63
00000866 DELETE   2385.33 469.87 431.13 595.00 2560.93 720.86 2744.68 716.65 2695.13 816.71 2597.94 941.60 2747.36 934.78
00000867 DELETE   2379.99 463.41 431.32 584.30 2564.53 714.24 2741.96 704.20 2706.69 798.51 2612.43 926.09 2756.36 915.34
00000868 00000058 2380.69 453.02 435.56 577.03 2570.11 705.01 2743.78 692.39 2715.95 785.79 2622.89 905.01 2767.05 892.94
00000869 00000059 2384.74 443.50 428.13 580.86 2581.74 698.56 2748.67 689.80 2725.39 781.28 2636.57 899.34 2769.67 890.45
00000870 00000060 2393.68 439.02 425.52 584.61 2587.51 695.65 2760.98 683.78 2733.86 785.55 2643.71 902.18 2776.16 892.98
00000871 00000061 2411.47 445.45 419.05 581.90 2605.59 706.35 2769.81 691.83 2745.48 792.21 2651.10 903.74 2785.61 891.82
00000872 00000062 2419.31 460.05 425.07 577.84 2609.82 710.61 2780.72 699.98 2748.96 798.65 2652.22 909.82 2791.99 899.28
00000873 00000063 2420.59 465.83 430.33 589.79 2615.15 716.59 2787.53 711.09 2753.58 803.12 2647.96 915.89 2794.94 909.02
00000874 00000064 2422.11 467.73 430.16 588.04 2616.69 717.28 2787.73 713.74 2751.33 805.63 2642.36 915.64 2791.85 910.31
00000875 00000065 2425.96 468.95 431.20 584.50 2620.15 715.46 2791.28 715.97 2752.92 803.28 2642.66 913.18 2793.08 910.96
00000876 00000066 2430.35 467.97 429.42 587.95 2625.00 715.03 2793.69 717.15 2756.43 802.59 2649.74 912.27 2795.66 911.25
00000877 00000067 2433.40 466.27 427.87 593.26 2628.31 715.26 2795.77 717.11 2761.10 802.54 2657.52 915.49 2799.94 914.24
00000878 00000068 2434.04 465.17 427.44 598.36 2631.75 715.06 2798.72 716.39 2765.43 801.94 2665.12 916.66 2802.55 915.18
00000879 00000069 2435.51 463.71 426.32 600.08 2636.04 714.66 2801.65 715.44 2772.01 799.08 2671.43 914.41 2806.61 912.75
00000880 00000070 2437.92 467.50 424.66 598.01 2637.19 712.58 2803.54 716.07 2772.41 798.58 2670.74 913.87 2806.30 913.98
00000881 00000071 2438.45 469.11 426.72 596.38 2636.03 714.78 2805.07 716.91 2771.17 801.94 2668.77 919.14 2808.85 917.90
00000882 00000072 2438.61 476.84 427.28 588.92 2633.91 719.37 2806.77 719.79 2770.79 805.27 2667.53 925.79 2811.10 923.07
00000883 00000073 2439.82 478.69 431.75 590.14 2632.86 726.19 2812.66 721.99 2775.75 810.14 2667.28 935.34 2820.99 929.24
00000884 00000074 2441.51 478.60 432.17 592.13 2635.26 730.59 2814.41 726.48 2776.03 816.88 2666.66 938.46 2821.40 932.41
00000885 00000075 2445.59 477.80 430.35 592.14 2639.82 731.90 2817.02 729.29 2777.04 823.89 2671.55 944.12 2819.45 938.67
00000886 00000076 2447.05 481.08 430.94 591.41 2645.19 735.26 2819.82 734.17 2781.48 828.80 2676.74 947.28 2819.64 942.65
00000887 00000077 2449.24 482.69 430.54 590.78 2649.08 737.55 2821.77 735.93 2785.86 831.22 2683.19 948.72 2822.00 943.39
00000888 00000078 2448.15 486.43 432.12 587.14 2647.81 739.92 2821.03 736.67 2786.79 833.24 2684.42 951.04 2824.66 944.36
00000889 00000079 2448.56 488.20 431.21 583.30 2646.19 741.68 2820.31 738.07 2784.72 835.66 2681.59 951.78 2822.72 944.80
00000890 00000080 2449.47 491.83 428.19 581.37 2643.83 747.65 2818.16 742.04 2782.54 841.57 2680.82 954.53 2822.43 946.13
00000891 00000081 2451.02 499.56 423.98 574.23 2641.04 751.94 2816.12 748.23 2777.19 847.28 2677.34 957.27 2818.02 950.05
00000892 00000082 2456.14 509.67 422.46 567.82 2642.78 758.66 2821.29 760.27 2779.00 860.71 2669.84 965.29 2821.22 963.13
00000893 00000083 2461.90 515.89 420.62 561.57 2650.43 760.45 2828.49 766.70 2783.38 866.01 2671.81 968.26 2822.01 969.49
00000894 00000084 2465.78 519.97 420.39 560.31 2657.03 763.05 2833.25 769.78 2788.01 868.53 2674.99 971.58 2824.58 973.26
00000895 00000085 2468.32 521.70 422.08 559.75 2663.17 763.59 2836.70 771.20 2794.56 871.20 2680.20 974.26 2827.18 976.60
00000896 00000086 2471.42 522.36 422.61 562.59 2664.64 767.14 2840.47 770.26 2795.37 870.28 2676.60 979.95 2825.62 980.59
00000897 00000087 2470.93 522.44 421.90 565.38 2664.47 768.04 2840.28 771.85 2794.99 871.88 2675.04 980.85 2826.05 982.05
00000898 00000088 2471.44 524.51 423.71 565.33 2664.37 770.25 2841.22 773.98 2794.91 874.03 2674.65 981.55 2826.64 982.51
00000899 00000089 2472.53 525.03 423.64 567.76 2663.61 772.98 2841.96 776.41 2793.51 878.18 2673.35 983.02 2827.62 983.87
00000900 00000090 2472.32 526.15 424.35 565.45 2663.64 773.33 2842.94 777.67 2794.55 880.18 2672.65 983.87 2828.56 985.52
00000901 00000091 2471.76 525.33 425.19 565.77 2664.21 776.03 2844.41 777.37 2797.08 883.51 2674.67 986.25 2831.49 986.02
00000902 00000092 2472.07 525.72 426.72 569.56 2664.81 777.12 2845.35 779.49 2797.85 883.59 2677.26 989.24 2832.98 989.64
00000903 00000093 2473.04 523.09 425.96 577.88 2666.23 778.01 2845.79 780.43 2797.55 884.17 2679.23 990.92 2831.26 991.44
00000904 00000094 2474.62 523.64 422.74 575.17 2665.86 776.37 2845.25 777.92 2796.34 884.13 2680.06 991.30 2830.06 990.98
00000905 00000095 2472.07 524.47 426.70 574.18 2664.86 776.93 2844.54 779.12 2796.03 884.85 2677.07 991.27 2828.84 991.56
00000906 00000096 2471.25 525.97 425.51 580.81 2663.45 774.44 2843.47 780.06 2795.42 882.60 2669.62 989.09 2828.43 991.90
00000907 00000097 2469.84 525.78 421.62 579.87 2658.94 768.72 2838.54 777.64 2788.06 874.10 2664.50 984.78 2821.13 989.53
00000908 00000098 2466.88 525.73 420.55 584.68 2654.85 764.60 2833.65 775.12 2783.55 867.89 2659.90 982.10 2816.22 987.97
00000909 00000099 2464.47 523.15 419.29 577.09 2649.93 762.25 2828.77 770.80 2778.63 863.33 2657.31 975.23 2815.79 979.66
00000910 00000100 2458.79 522.38 420.18 574.94 2644.66 768.64 2823.57 770.64 2772.91 866.51 2669.74 974.51 2809.39 975.08
00000911 00000101 2456.62 528.49 421.54 569.81 2646.79 769.46 2821.08 777.28 2770.90 868.12 2662.38 977.05 2809.15 980.65
00000912 00000102 2456.99 529.31 423.04 575.23 2648.64 775.28 2821.97 780.83 2772.46 874.16 2665.71 983.65 2811.80 985.34
00000913 00000103 2457.44 532.79 424.50 578.62 2651.32 778.89 2824.28 782.61 2777.90 879.35 2667.42 988.10 2817.50 988.27
00000914 00000104 2462.04 530.67 421.92 580.68 2652.02 778.52 2830.34 783.00 2781.59 884.20 2658.49 990.43 2819.48 992.14
00000915 00000105 2462.25 530.01 422.86 581.19 2652.67 778.41 2831.76 783.53 2781.94 884.01 2659.54 990.67 2820.00 992.87
00000916 00000106 2456.42 530.53 425.19 579.04 2653.61 775.90 2825.65 782.33 2779.47 878.06 2668.42 986.83 2815.99 989.10
00000917 00000107 2456.29 531.33 424.85 577.85 2653.15 775.93 2825.06 782.36 2778.99 877.72 2667.69 986.55 2815.32 988.84
00000918 00000108 2456.33 530.56 424.09 578.42 2651.62 777.19 2824.38 782.43 2777.68 878.56 2666.38 986.50 2815.10 987.99
00000919 00000109 2456.90 531.24 425.44 578.42 2652.19 779.29 2826.43 782.69 2780.56 880.94 2666.37 987.92 2819.23 988.25
00000920 00000110 2461.36 530.76 422.59 577.94 2650.68 780.64 2829.05 784.45 2779.91 887.57 2656.97 990.93 2818.66 992.29
00000921 00000111 2462.38 531.48 421.78 580.70 2651.33 781.43 2829.34 785.25 2779.96 888.48 2657.09 991.90 2818.43 993.22
00000922 00000112 2463.26 534.57 420.30 578.18 2653.02 781.41 2830.08 786.27 2781.28 890.64 2656.62 992.39 2817.80 994.55
00000923 00000113 2458.28 540.17 425.71 572.52 2650.63 782.26 2827.36 787.41 2778.61 886.95 2665.00 993.24 2817.95 994.72
00000924 00000114 2461.55 539.71 425.20 580.11 2648.69 784.11 2834.49 788.90 2781.93 891.32 2654.85 996.88 2820.99 999.18
00000925 00000115 2463.26 540.19 426.18 583.72 2649.16 783.41 2837.01 790.01 2782.48 892.67 2653.32 997.87 2821.72 1001.57
00000926 00000116 2464.48 537.74 424.19 583.38 2650.38 783.75 2835.74 788.26 2782.83 892.02 2656.03 996.37 2822.32 998.35
00000927 00000117 2465.62 534.69 421.42 584.00 2650.15 783.95 2833.13 787.09 2780.17 892.91 2656.53 995.87 2820.98 996.77
00000928 00000118 2463.00 534.49 420.30 582.32 2648.53 784.66 2829.14 786.08 2778.30 892.30 2654.81 994.66 2818.22 994.47
00000929 00000119 2457.67 537.19 422.86 576.03 2648.32 784.74 2821.82 784.66 2773.76 889.88 2663.04 992.90 2813.68 990.90
00000930 00000120 2456.17 538.39 424.23 577.32 2644.54 784.73 2819.83 785.80 2769.28 890.12 2659.47 994.62 2810.52 993.32
00000931 00000121 2454.62 538.78 425.90 577.25 2643.14 784.53 2819.83 786.84 2768.21 890.88 2657.16 994.44 2809.96 994.15
00000932 00000122 2454.77 538.41 424.72 578.51 2643.90 784.80 2819.42 787.98 2767.88 891.82 2656.31 995.04 2808.23 995.43
00000933 00000123 2456.18 538.61 423.83 577.35 2645.91 786.21 2820.22 787.85 2769.39 894.22 2658.61 995.22 2809.83 994.63
00000934 00000124 2456.19 539.57 424.79 577.36 2647.09 787.83 2821.22 789.62 2770.84 895.58 2660.16 996.54 2809.43 996.07
00000935 00000125 2457.57 540.54 424.66 579.59 2650.14 789.02 2823.55 790.70 2775.66 897.68 2661.62 999.07 2813.01 998.51
00000936 00000126 2458.95 541.24 424.15 578.77 2651.72 790.18 2825.06 790.80 2777.53 898.73 2663.19 999.33 2814.40 998.06
00000937 00000127 2459.53 541.19 424.26 579.36 2653.40 791.53 2826.31 794.61 2778.23 899.30 2663.51 1000.61 2812.56 1001.26
00000938 00000128 2460.27 539.06 423.25 583.19 2655.65 792.96 2827.60 796.35 2781.44 900.15 2664.43 1001.68 2813.83 1002.78
00000939 00000129 2460.72 541.01 423.97 582.84 2656.99 794.56 2828.98 798.41 2782.88 900.63 2664.13 1001.91 2815.44 1003.46
00000940 00000130 2460.67 540.12 423.65 581.33 2657.31 793.83 2829.41 798.49 2782.75 900.67 2663.59 1001.21 2814.07 1003.51
00000941 00000131 2466.56 538.66 419.85 585.16 2653.61 793.81 2830.87 797.55 2780.57 904.27 2654.54 1002.76 2813.93 1004.74
00000942 00000132 2466.91 539.23 419.13 584.31 2653.40 794.85 2829.81 797.15 2780.68 904.55 2653.93 1001.88 2815.19 1002.87
00000943 00000133 2466.18 538.90 419.08 582.38 2652.94 792.28 2829.84 794.82 2780.11 903.68 2654.48 1001.79 2813.85 1002.67
00000944 00000134 2465.78 540.00 419.23 581.69 2652.53 792.51 2829.36 795.01 2779.21 903.68 2654.62 1001.65 2813.75 1002.41
00000945 00000135 2466.24 539.09 420.84 582.02 2654.30 793.77 2830.05 796.03 2780.45 903.75 2656.20 1002.51 2813.80 1003.22
00000946 00000136 2460.10 539.37 424.57 577.89 2655.33 792.60 2827.69 795.01 2780.38 900.49 2663.36 999.58 2813.07 1000.21
00000947 00000137 2466.03 538.03 421.32 582.35 2654.02 793.02 2831.07 795.74 2781.31 903.27 2656.33 1003.19 2815.03 1004.25
00000948 00000138 2465.58 539.45 420.80 584.46 2654.41 793.90 2830.27 797.45 2780.98 904.20 2655.48 1003.68 2813.78 1005.31
00000949 00000139 2466.09 539.32 419.97 587.05 2654.05 794.42 2829.49 797.64 2781.16 906.31 2655.38 1004.78 2813.85 1006.15
00000950 00000140 2466.54 538.87 419.27 586.75 2653.65 794.54 2829.56 797.02 2780.58 905.99 2655.10 1003.85 2814.39 1004.73
00000951 00000141 2459.02 540.14 424.45 581.30 2654.63 794.76 2826.41 793.82 2780.91 901.46 2663.75 1000.86 2814.61 998.93
00000952 00000142 2459.50 538.90 424.36 582.40 2655.52 795.26 2827.22 794.65 2782.05 901.34 2664.56 1000.97 2815.33 999.45
00000953 00000143 2459.26 538.24 423.66 582.93 2654.37 794.07 2826.21 794.49 2779.65 901.23 2663.88 1000.51 2813.26 999.59
00000954 00000144 2460.21 537.12 423.08 584.53 2654.30 793.78 2826.93 794.50 2779.38 900.95 2664.13 1000.58 2813.30 999.96
CROP_BBOX: 2131 192 3150 1312
