Video ID: 	E-CYz0F-Ebs
H: 	1080
W: 	1920
FPS: 	25.0

FRAME INDEX X0 Y0 W H [Landmarks (5 Points)]

00006184 00000000 757.36 221.24 457.03 679.01 876.12 477.23 1103.37 483.96 997.82 637.84 902.08 744.18 1077.35 748.29
00006185 DELETE   759.41 216.51 457.50 679.50 882.91 478.69 1107.76 483.84 1006.34 634.51 909.86 744.82 1082.32 747.40
00006186 00000002 761.30 220.17 458.85 674.83 886.29 481.09 1112.32 481.94 1012.14 635.66 917.32 745.64 1091.42 744.48
00006187 00000003 761.96 221.33 459.22 672.33 891.11 483.02 1117.35 482.74 1018.36 637.62 920.85 743.95 1097.29 741.99
00006188 00000004 763.86 220.29 459.90 674.24 893.69 482.95 1120.36 483.26 1021.12 638.27 923.54 745.62 1098.90 744.10
00006189 00000005 765.40 221.76 462.75 678.05 894.66 482.19 1120.25 483.62 1019.50 638.74 924.89 747.75 1096.82 747.13
00006190 00000006 765.92 222.65 462.00 675.96 892.66 483.94 1117.74 486.85 1014.22 637.93 921.06 748.45 1092.25 748.99
00006191 00000007 766.32 223.39 461.58 672.22 891.40 482.68 1116.12 487.86 1009.98 637.02 916.67 745.26 1088.65 747.68
00006192 00000008 767.32 218.83 462.47 675.80 891.93 479.38 1117.49 485.77 1009.57 633.97 916.54 743.27 1089.76 746.40
00006193 00000009 769.06 219.25 464.68 677.49 896.43 475.76 1122.33 482.47 1014.21 630.11 921.56 741.41 1094.51 744.42
00006194 00000010 772.22 210.45 467.60 683.90 901.89 467.76 1131.33 482.79 1018.02 630.09 916.28 726.67 1093.89 740.34
00006195 00000011 772.98 209.51 467.36 684.41 903.27 468.39 1132.87 483.52 1019.93 630.22 917.11 726.65 1094.93 740.45
00006196 00000012 772.86 210.43 467.20 682.30 903.19 468.13 1132.78 484.26 1018.98 630.93 916.05 725.42 1094.51 739.97
00006197 00000013 771.03 213.30 465.59 683.37 903.10 473.39 1127.37 483.10 1019.40 627.05 922.24 734.62 1098.54 740.00
00006198 00000014 771.39 214.58 464.86 682.08 903.01 474.86 1126.50 484.79 1018.62 628.78 922.12 734.61 1098.23 740.27
00006199 00000015 771.88 214.14 464.89 681.51 903.31 476.90 1127.88 486.78 1019.43 630.13 922.83 737.70 1098.04 743.32
00006200 00000016 772.79 209.14 467.49 683.57 903.04 472.14 1134.19 486.83 1020.37 632.38 916.19 727.86 1096.39 741.09
00006201 00000017 773.05 209.54 467.01 681.36 903.44 472.40 1134.24 486.73 1020.88 631.43 916.72 727.58 1096.07 740.54
00006202 00000018 773.05 210.75 467.78 680.54 903.07 470.92 1134.96 485.64 1020.66 630.97 915.96 727.02 1096.56 740.36
00006203 00000019 773.32 210.93 467.25 679.20 903.78 470.94 1136.23 485.83 1021.63 629.78 916.35 726.40 1097.17 739.78
00006204 00000020 774.45 210.23 466.74 678.19 904.72 471.16 1137.55 485.85 1023.28 629.67 917.23 725.91 1098.56 739.09
00006205 00000021 776.30 210.27 464.77 678.11 907.72 473.24 1139.43 487.72 1026.33 631.77 919.28 726.74 1098.98 739.87
00006206 00000022 778.01 212.86 464.35 676.44 908.83 474.02 1140.06 488.83 1026.99 633.75 920.13 727.27 1100.24 740.58
00006207 00000023 778.58 212.22 463.68 677.82 910.42 474.57 1141.08 489.27 1029.26 635.19 921.51 727.33 1101.56 740.54
00006208 00000024 779.28 212.08 463.28 677.07 911.23 474.52 1142.02 489.17 1030.29 635.51 922.18 727.25 1102.49 740.41
00006209 00000025 779.94 212.43 464.11 678.01 912.76 474.51 1143.50 490.42 1029.88 635.46 921.24 725.80 1103.85 739.89
00006210 00000026 780.52 213.19 464.16 676.21 913.24 475.01 1144.70 490.45 1031.11 635.50 921.52 726.27 1104.73 739.91
00006211 00000027 781.41 213.59 464.21 674.74 915.35 474.28 1146.53 490.71 1032.96 634.70 921.70 724.91 1105.20 739.39
00006212 00000028 782.36 214.98 464.19 674.42 917.62 473.61 1147.86 489.57 1034.58 633.99 923.82 724.55 1107.31 738.61
00006213 00000029 784.76 214.15 463.04 676.05 919.60 472.74 1147.73 486.92 1037.99 632.37 927.85 727.73 1107.07 740.51
00006214 00000030 786.15 214.61 464.25 680.54 921.61 470.38 1148.11 484.76 1039.68 630.26 930.88 729.62 1106.18 742.59
00006215 00000031 788.52 215.36 462.16 681.30 922.87 470.33 1148.83 484.16 1040.87 629.22 932.66 730.16 1107.86 742.59
00006216 00000032 789.63 217.69 462.86 677.51 923.71 469.60 1151.04 483.96 1042.17 628.97 933.77 730.01 1109.10 742.75
00006217 00000033 789.96 216.13 462.98 677.59 925.19 469.67 1152.76 484.05 1044.74 628.19 934.67 728.89 1111.56 741.57
00006218 00000034 790.04 214.39 464.83 677.56 925.91 469.09 1155.18 483.44 1045.82 626.84 935.11 725.93 1116.70 738.23
00006219 00000035 791.13 216.22 465.34 673.08 927.12 468.19 1156.41 482.58 1046.69 624.93 936.13 721.99 1119.36 734.15
00006220 00000036 794.36 216.37 464.86 672.11 928.62 468.31 1159.00 481.70 1050.03 624.55 940.00 724.90 1121.19 736.07
00006221 00000037 797.43 216.31 463.56 673.55 930.27 468.61 1160.31 481.63 1052.20 624.26 943.10 727.41 1120.90 738.16
00006222 00000038 798.30 217.12 463.61 672.27 930.60 468.08 1161.72 479.94 1054.00 624.08 945.55 729.11 1121.56 738.90
00006223 00000039 799.60 217.33 463.07 672.82 931.31 468.14 1161.09 479.80 1054.62 623.03 947.09 729.53 1121.44 739.09
00006224 00000040 801.04 215.01 461.39 678.21 932.26 467.55 1160.32 479.24 1054.87 623.15 948.23 731.10 1120.14 740.78
00006225 00000041 802.09 216.24 461.58 678.36 933.06 467.60 1161.07 479.05 1055.55 622.55 950.01 732.54 1120.55 741.98
00006226 00000042 803.23 216.98 462.33 678.33 935.20 467.74 1162.45 479.20 1058.24 622.17 952.36 732.62 1122.67 742.07
00006227 00000043 803.21 216.44 463.16 678.78 935.52 467.48 1162.78 479.24 1058.58 622.10 951.90 731.76 1122.88 741.51
00006228 00000044 804.03 215.93 463.40 679.07 936.93 466.43 1163.92 478.18 1060.51 621.30 952.88 730.65 1124.14 740.41
00006229 00000045 803.81 214.93 464.54 679.86 937.20 465.72 1164.95 477.21 1061.17 618.93 953.71 729.79 1125.96 739.11
00006230 00000046 804.66 214.75 463.71 679.90 938.58 464.75 1165.98 477.08 1062.54 617.88 954.22 728.59 1126.18 738.61
00006231 00000047 805.93 215.89 462.76 678.92 939.16 464.96 1166.17 476.65 1064.05 618.03 955.58 729.22 1127.71 738.75
00006232 00000048 806.14 215.83 462.53 678.65 939.71 465.23 1166.78 477.10 1064.25 618.41 955.80 728.95 1128.06 738.56
00006233 00000049 806.68 215.47 462.13 679.89 939.42 465.81 1166.78 476.79 1064.58 620.03 956.42 730.56 1128.63 739.45
00006234 00000050 806.41 215.17 461.68 680.39 939.82 466.55 1167.21 477.69 1065.26 621.06 956.39 730.97 1128.97 740.01
00006235 00000051 808.31 215.75 461.01 679.70 940.90 467.93 1168.09 479.24 1066.72 622.37 957.28 731.49 1130.18 740.63
00006236 00000052 809.44 215.94 460.23 679.02 941.02 467.98 1168.04 478.91 1067.13 622.30 957.96 731.39 1131.21 740.09
00006237 00000053 810.46 215.06 459.57 678.96 942.44 468.80 1170.04 480.12 1069.34 622.29 959.12 731.60 1132.79 740.59
00006238 00000054 811.46 217.27 458.70 677.41 944.12 468.10 1170.59 480.31 1070.47 623.85 959.65 732.09 1132.96 741.90
00006239 00000055 811.85 217.12 458.62 677.72 944.10 467.84 1170.59 479.79 1070.30 622.91 960.17 732.28 1133.64 741.81
00006240 00000056 811.43 215.99 459.42 681.04 944.43 467.14 1170.06 479.28 1070.38 623.05 960.67 732.67 1133.11 742.42
00006241 00000057 811.18 215.57 459.82 682.08 944.09 467.16 1169.69 478.58 1070.86 622.73 961.67 733.40 1133.81 742.59
00006242 00000058 810.78 214.35 459.92 683.64 945.08 466.85 1170.27 478.21 1072.00 622.42 961.92 733.03 1133.90 742.22
00006243 00000059 810.88 214.11 460.17 683.04 945.91 466.45 1170.47 478.43 1072.59 621.22 962.48 731.96 1134.36 741.64
00006244 00000060 811.09 214.03 460.29 681.87 946.90 466.27 1172.12 477.22 1074.44 620.58 963.94 731.88 1136.20 740.72
00006245 00000061 811.13 212.55 459.67 679.29 947.68 465.32 1174.71 476.11 1076.20 616.59 963.28 728.77 1139.99 737.36
00006246 00000062 812.05 213.18 458.11 666.52 950.74 465.69 1177.62 474.27 1080.51 612.53 967.79 723.16 1147.31 729.48
00006247 00000063 812.51 211.08 459.38 659.33 951.05 463.16 1179.94 471.29 1082.45 609.36 968.52 717.79 1151.53 723.31
00006248 00000064 811.32 202.30 467.77 662.28 951.78 458.54 1185.34 470.09 1083.08 611.51 969.89 712.48 1150.38 722.33
00006249 00000065 809.49 200.53 469.13 666.66 951.96 458.66 1183.56 468.96 1084.34 610.53 971.27 713.36 1150.06 722.28
00006250 00000066 807.80 202.43 468.23 665.58 950.32 459.22 1182.05 468.14 1084.36 610.57 972.88 716.13 1149.13 723.93
00006251 00000067 803.60 206.85 461.35 671.79 946.82 461.62 1173.71 464.75 1084.00 608.71 972.62 722.26 1150.08 723.91
00006252 00000068 796.21 204.29 464.38 685.56 941.03 459.12 1165.86 463.25 1077.80 608.94 967.68 724.58 1140.37 727.61
00006253 00000069 791.99 203.63 463.80 692.65 934.59 457.12 1160.13 461.56 1069.89 609.70 960.64 727.64 1131.67 731.44
00006254 00000070 786.72 200.01 465.26 700.00 930.64 457.06 1154.93 461.81 1063.58 610.61 954.85 729.11 1125.40 733.54
00006255 00000071 782.32 201.55 465.95 696.32 923.83 459.54 1149.33 463.71 1055.00 610.95 948.77 727.10 1121.80 731.16
00006256 00000072 778.24 202.93 464.11 686.12 912.96 462.83 1140.74 465.24 1043.88 614.47 941.46 726.15 1115.83 728.88
00006257 DELETE   773.92 201.73 465.97 681.49 904.00 463.05 1135.09 466.13 1032.18 614.12 932.66 723.13 1111.31 726.17
00006258 00000074 771.07 211.21 465.19 671.80 898.60 470.08 1127.15 469.59 1024.40 618.65 933.69 736.58 1105.13 733.76
00006259 00000075 768.71 216.47 465.14 672.76 894.95 478.78 1120.54 478.17 1017.42 630.28 930.41 743.88 1098.37 741.08
00006260 00000076 767.66 223.78 465.71 673.18 893.41 487.82 1116.81 489.40 1013.06 638.13 925.49 749.85 1091.61 749.39
00006261 00000077 768.01 223.80 464.54 680.59 893.16 495.05 1115.38 497.50 1009.89 643.48 924.99 758.07 1087.66 758.50
00006262 00000078 771.62 221.39 464.83 685.58 894.50 494.56 1122.58 499.50 1014.36 643.49 920.59 752.30 1085.77 757.91
00006263 00000079 773.10 219.56 464.20 684.18 895.98 492.84 1123.78 497.55 1016.04 642.00 921.74 750.73 1085.86 756.17
00006264 00000080 773.05 216.06 465.55 686.76 897.66 490.33 1126.10 495.12 1018.41 640.19 923.07 749.06 1088.87 754.56
00006265 00000081 772.68 216.74 465.93 687.72 898.94 491.05 1127.54 495.92 1019.91 640.77 923.72 748.94 1090.63 754.53
00006266 00000082 771.85 217.13 466.01 689.80 897.83 493.43 1127.34 497.66 1019.94 642.75 922.79 750.62 1091.47 755.63
00006267 00000083 767.51 225.34 465.27 687.87 896.14 500.51 1115.64 502.51 1012.59 646.40 928.63 764.16 1088.73 764.49
00006268 00000084 766.10 225.84 465.25 690.11 893.18 501.57 1113.69 502.71 1010.08 647.43 927.38 765.97 1087.45 765.63
00006269 00000085 765.57 226.06 463.79 687.72 890.86 501.72 1111.44 501.52 1007.81 647.68 926.16 765.03 1087.34 763.65
00006270 00000086 765.03 224.66 462.82 686.57 889.72 500.16 1110.78 500.53 1007.17 645.54 923.96 762.62 1086.66 761.65
00006271 00000087 765.26 225.25 462.74 684.84 889.16 497.56 1110.93 497.63 1006.98 643.45 923.98 761.24 1087.32 759.96
00006272 00000088 765.03 223.83 463.44 685.76 889.26 495.60 1111.63 495.63 1007.69 642.28 923.57 760.09 1088.31 758.63
00006273 00000089 764.21 224.07 463.26 683.91 888.60 494.84 1110.41 494.91 1007.03 641.50 922.95 758.41 1087.60 756.93
00006274 00000090 763.16 224.64 463.88 684.03 888.10 494.88 1109.35 495.04 1006.87 641.39 922.24 757.63 1087.14 756.35
00006275 00000091 763.20 223.96 464.08 685.50 887.39 494.12 1109.12 494.91 1005.87 640.87 921.18 757.75 1086.34 756.94
00006276 00000092 762.91 222.48 464.80 689.52 887.47 494.18 1108.39 495.44 1005.64 640.79 921.39 758.39 1085.50 758.01
00006277 00000093 762.97 223.28 463.83 689.85 887.11 494.84 1107.69 495.79 1005.22 641.48 921.70 760.22 1084.76 759.72
00006278 00000094 763.65 223.34 464.21 694.94 887.45 496.03 1107.00 495.80 1005.53 642.54 924.52 763.25 1086.42 761.79
00006279 00000095 763.36 223.21 465.52 700.31 886.71 497.58 1106.33 495.82 1005.50 645.05 925.63 766.41 1087.49 763.73
00006280 00000096 760.37 224.40 466.62 698.67 883.24 496.71 1112.19 492.36 1011.06 641.59 925.75 769.65 1089.49 763.36
00006281 00000097 760.89 224.22 466.72 698.80 884.46 497.40 1113.25 492.48 1011.64 641.95 926.83 770.25 1090.25 763.44
00006282 00000098 764.68 223.85 467.54 703.46 890.40 499.90 1110.30 496.77 1008.89 645.39 929.86 769.18 1091.42 765.21
00006283 00000099 766.31 223.74 467.15 699.99 893.75 500.92 1112.77 497.47 1011.91 645.87 932.04 767.59 1093.37 763.23
00006284 00000100 772.49 220.97 465.08 695.39 893.62 493.71 1122.36 495.32 1016.29 643.57 925.76 756.35 1095.16 758.90
00006285 00000101 773.31 218.28 464.95 690.02 897.35 490.39 1124.05 492.67 1018.59 638.93 927.58 751.51 1094.24 754.74
00006286 00000102 774.60 214.11 464.92 689.25 901.07 487.66 1126.24 488.81 1022.39 635.94 930.85 746.92 1098.76 749.26
00006287 00000103 775.33 212.57 465.65 685.09 902.44 485.14 1128.18 485.56 1025.01 633.43 932.62 743.04 1102.79 744.87
00006288 00000104 775.78 211.17 465.46 682.67 903.27 482.86 1131.47 482.27 1027.55 632.17 934.45 740.36 1107.56 741.25
00006289 00000105 776.46 211.03 466.26 680.35 903.89 483.18 1133.76 482.45 1028.70 632.65 936.57 739.91 1111.72 740.52
00006290 00000106 776.93 210.40 465.56 679.78 904.09 484.84 1134.96 484.48 1028.79 634.51 935.20 739.23 1113.07 739.96
00006291 00000107 777.70 208.67 465.67 683.34 904.75 486.88 1135.19 487.41 1028.11 636.52 933.79 739.13 1113.14 740.45
00006292 00000108 777.80 210.93 466.48 682.27 905.07 488.02 1135.53 489.04 1028.01 638.23 932.59 740.18 1111.42 742.05
00006293 00000109 778.66 212.83 466.52 681.06 905.25 489.10 1136.22 491.28 1026.89 638.91 931.37 740.66 1109.86 743.44
00006294 00000110 779.68 214.43 466.49 678.60 906.59 490.08 1137.25 492.14 1027.91 638.44 931.91 740.45 1109.83 743.22
00006295 00000111 781.75 214.33 465.45 677.04 909.42 489.53 1140.48 491.55 1031.19 637.42 933.38 739.24 1112.59 741.93
00006296 00000112 783.87 213.31 464.91 677.50 912.48 487.18 1142.79 489.67 1034.49 635.92 934.84 737.15 1114.35 740.23
00006297 00000113 785.05 214.46 465.73 674.74 914.58 484.84 1144.51 487.82 1037.32 633.57 937.89 735.79 1117.39 739.15
00006298 00000114 787.62 216.60 464.57 673.15 916.13 482.68 1146.92 484.58 1039.87 630.86 942.32 737.91 1121.60 740.07
00006299 00000115 789.53 217.26 462.65 672.45 918.08 480.61 1149.18 481.82 1044.00 627.70 944.91 738.44 1123.88 739.97
00006300 00000116 790.16 216.39 463.71 674.12 918.88 479.45 1150.07 480.06 1045.72 626.66 946.63 739.16 1125.48 740.05
00006301 00000117 791.09 216.87 462.80 674.14 920.15 480.46 1150.31 481.41 1046.89 626.74 946.88 739.96 1125.04 741.15
00006302 00000118 790.84 217.87 462.96 674.20 920.84 483.08 1149.92 483.43 1048.06 630.91 948.22 741.35 1124.57 742.18
00006303 00000119 792.88 220.24 461.85 674.76 922.25 488.87 1150.31 488.83 1049.65 634.81 948.32 743.76 1125.39 744.44
00006304 00000120 792.33 223.40 464.07 674.93 923.62 494.84 1153.11 495.60 1051.14 641.24 950.99 748.01 1127.05 749.39
00006305 00000121 791.85 227.40 466.47 676.33 923.24 503.43 1153.10 501.65 1051.82 654.05 953.88 756.27 1129.68 755.86
00006306 00000122 793.17 232.01 464.78 675.85 925.02 510.24 1154.51 505.67 1055.34 662.69 955.89 760.87 1134.38 758.31
00006307 00000123 794.56 235.24 464.56 674.12 927.36 512.06 1155.69 507.77 1057.85 666.63 958.24 763.15 1135.42 760.89
00006308 00000124 795.34 235.07 464.92 675.64 928.76 511.93 1157.13 507.76 1060.07 667.47 959.84 762.85 1138.02 760.45
00006309 00000125 796.76 233.48 463.92 674.81 930.36 510.31 1160.12 507.33 1062.29 665.41 961.48 761.61 1140.67 759.99
00006310 00000126 796.00 231.22 464.49 677.23 931.82 509.85 1161.33 506.93 1064.21 663.55 961.88 759.89 1142.40 758.26
00006311 00000127 795.54 230.95 464.63 675.78 932.76 508.76 1161.17 506.48 1064.23 661.26 962.02 758.05 1141.61 756.96
00006312 00000128 795.62 231.71 464.33 673.62 932.69 506.70 1161.39 505.38 1063.84 659.14 961.98 756.50 1141.00 756.16
00006313 00000129 794.56 228.67 465.80 675.13 933.36 505.33 1161.47 505.03 1063.99 658.03 961.27 754.61 1139.79 755.10
00006314 00000130 794.83 226.56 465.69 675.90 933.14 504.24 1161.72 504.56 1063.46 656.73 960.85 753.79 1139.41 754.73
00006315 00000131 794.81 226.21 465.11 675.08 933.50 504.54 1161.53 504.93 1062.88 654.93 960.51 752.63 1139.08 753.63
00006316 00000132 794.16 225.67 465.52 675.08 932.70 504.17 1161.68 504.85 1062.00 655.75 959.78 753.08 1138.47 754.31
00006317 00000133 793.31 228.46 465.86 672.82 931.34 505.25 1159.88 504.99 1060.40 658.32 959.35 754.06 1137.48 754.62
00006318 00000134 792.29 228.34 466.45 674.61 929.78 505.25 1158.58 504.44 1058.68 657.91 957.84 754.43 1136.15 754.65
00006319 00000135 790.84 231.81 466.69 670.41 926.98 504.83 1154.05 502.04 1055.97 655.71 956.63 753.08 1134.30 751.80
00006320 00000136 790.08 229.34 467.30 672.15 926.68 503.65 1152.05 499.84 1054.99 653.65 957.42 752.10 1132.21 750.00
00006321 00000137 789.27 227.97 467.21 672.32 925.71 501.49 1151.86 499.05 1053.51 650.63 954.97 749.98 1130.37 749.00
00006322 00000138 787.75 227.80 466.88 672.54 923.39 498.88 1151.24 497.58 1051.61 649.49 951.84 749.05 1127.83 749.08
00006323 00000139 785.71 227.12 466.52 671.81 921.42 498.96 1148.14 497.35 1048.15 649.19 949.40 747.40 1124.30 747.28
00006324 00000140 784.66 228.72 465.44 670.30 919.03 499.75 1145.93 498.66 1045.26 649.84 947.40 747.70 1122.97 747.93
00006325 00000141 784.07 226.26 465.39 670.99 918.48 500.81 1145.91 499.98 1043.74 651.08 946.62 748.20 1121.57 748.73
00006326 00000142 784.12 225.80 464.46 671.55 917.61 500.41 1145.61 500.52 1042.42 651.25 944.45 747.71 1120.48 748.91
00006327 00000143 783.13 224.65 463.99 672.92 916.95 499.20 1143.59 500.00 1040.83 649.29 942.63 746.66 1116.67 748.64
00006328 00000144 782.69 222.07 464.50 677.46 916.09 496.79 1142.73 498.87 1040.01 646.66 940.82 746.30 1114.29 749.29
00006329 00000145 781.89 219.94 464.89 679.67 914.76 495.33 1144.05 498.72 1039.64 644.96 937.51 746.33 1114.22 750.17
00006330 00000146 782.51 219.21 463.58 681.24 913.40 494.23 1143.75 498.78 1037.76 646.71 934.73 746.31 1113.28 751.14
00006331 00000147 782.56 221.00 463.70 680.89 912.91 495.07 1143.25 499.82 1036.97 648.10 932.98 746.06 1114.26 751.01
00006332 00000148 783.56 222.50 462.95 678.83 912.75 496.39 1144.02 501.34 1036.59 650.41 930.13 746.62 1113.66 751.90
00006333 00000149 784.03 221.96 462.91 679.76 912.90 496.55 1144.24 501.71 1037.34 650.55 929.90 747.66 1113.31 753.13
00006334 00000150 783.79 224.32 463.94 682.32 913.21 496.28 1142.26 501.66 1036.31 649.23 931.50 748.16 1111.96 753.80
00006335 00000151 784.62 224.58 462.75 681.11 914.40 496.02 1142.84 501.58 1037.40 648.38 932.43 747.51 1111.53 753.36
00006336 00000152 784.58 222.53 464.20 681.37 916.30 495.53 1142.96 501.40 1038.02 647.87 933.25 745.92 1110.48 752.13
00006337 00000153 784.06 223.65 465.33 678.64 916.56 494.90 1144.13 500.48 1038.54 646.74 933.66 745.46 1110.81 751.43
00006338 00000154 784.40 221.73 465.24 680.70 917.19 495.15 1143.87 500.95 1038.75 646.94 934.18 745.77 1109.72 751.97
00006339 00000155 784.76 223.10 464.42 680.38 917.41 494.36 1143.98 500.48 1038.52 645.75 934.09 745.27 1109.00 751.74
00006340 00000156 784.38 222.04 464.95 685.09 917.52 494.27 1142.88 500.39 1038.30 645.43 934.24 746.00 1107.95 752.58
00006341 00000157 784.68 222.10 464.78 686.06 917.95 495.11 1142.73 501.48 1038.28 646.22 935.85 747.74 1107.71 754.50
00006342 00000158 784.82 223.55 464.52 685.44 917.50 495.39 1142.47 501.15 1038.15 647.41 937.07 748.03 1108.73 754.25
00006343 00000159 784.79 224.01 464.47 684.25 918.07 495.20 1143.34 501.36 1039.20 647.27 937.29 747.85 1108.93 754.40
00006344 00000160 784.93 221.01 464.87 688.12 919.41 494.38 1143.89 500.92 1039.87 645.59 937.90 747.48 1108.59 754.31
00006345 00000161 785.86 220.02 465.05 689.23 919.39 493.15 1144.06 500.08 1040.26 645.11 938.22 747.98 1108.96 755.07
00006346 00000162 786.02 221.94 465.82 688.14 920.34 493.81 1145.07 500.07 1042.26 644.65 940.56 749.07 1111.12 755.47
00006347 00000163 788.55 222.25 464.48 688.43 921.81 493.23 1147.65 499.82 1045.41 644.78 943.84 750.15 1115.92 756.49
00006348 00000164 789.92 221.07 464.05 691.91 923.88 492.27 1149.73 499.24 1048.66 644.40 945.08 750.87 1118.96 757.36
00006349 00000165 791.21 219.15 463.30 693.67 926.45 490.69 1152.67 499.00 1051.23 642.94 944.43 749.31 1120.41 756.87
00006350 00000166 790.91 218.98 463.45 695.05 926.81 488.58 1152.59 497.75 1051.37 641.65 943.47 747.89 1120.13 756.17
