Video ID: 	HrjYeNAkpso
H: 	1080
W: 	1920
FPS: 	25.0

FRAME INDEX X0 Y0 W H [Landmarks (5 Points)]

00008186 00000000 1009.99 347.57 382.54 505.81 1079.36 519.82 1237.72 534.91 1119.94 639.78 1087.88 703.31 1232.14 716.29
00008187 00000001 1000.59 353.51 385.19 497.45 1071.30 524.82 1230.59 542.36 1114.05 649.46 1082.24 711.01 1214.83 725.74
00008188 00000002 994.55 345.79 380.55 502.71 1062.18 517.56 1223.54 534.83 1106.95 648.17 1075.05 712.94 1207.46 726.65
00008189 00000003 994.35 336.93 384.01 508.60 1057.65 510.29 1220.11 524.20 1103.09 633.72 1072.75 710.79 1204.84 721.33
00008190 00000004 998.08 325.88 386.48 510.91 1057.00 495.95 1218.15 506.78 1102.03 618.74 1073.53 695.79 1204.76 704.22
00008191 00000005 1001.45 301.37 382.19 517.05 1059.43 480.45 1224.14 490.07 1110.18 603.49 1077.07 681.24 1202.92 688.74
00008192 00000006 1004.53 281.03 384.06 517.14 1065.47 460.84 1236.92 476.44 1114.20 582.48 1076.96 664.77 1203.60 677.78
00008193 DELETE   1012.49 258.77 378.09 523.63 1077.79 447.63 1244.68 459.54 1123.42 556.28 1076.75 647.77 1212.34 658.97
00008194 00000008 1019.25 248.46 380.49 530.07 1085.91 435.35 1249.51 449.80 1130.90 543.24 1083.22 633.78 1217.91 647.86
00008195 00000009 1023.23 249.36 384.82 530.38 1089.65 438.54 1254.88 448.78 1134.98 542.53 1085.68 630.15 1228.75 640.73
00008196 00000010 1024.33 253.85 386.73 527.07 1091.02 447.39 1257.05 456.11 1137.22 550.93 1089.19 636.33 1232.21 645.33
00008197 00000011 1024.90 262.66 386.40 521.47 1092.36 454.40 1258.52 463.87 1140.02 562.56 1091.78 642.03 1235.39 651.54
00008198 00000012 1026.41 274.48 388.22 514.83 1094.97 462.73 1259.06 472.17 1143.23 577.19 1099.56 648.67 1239.39 658.23
00008199 00000013 1027.72 283.98 390.53 507.44 1098.10 468.22 1261.06 478.76 1147.06 582.42 1104.82 650.63 1244.78 660.85
00008200 00000014 1029.95 283.13 389.06 509.09 1100.07 466.28 1263.10 478.04 1148.00 580.21 1105.47 648.87 1246.75 660.16
00008201 00000015 1028.39 269.70 388.61 514.18 1100.73 459.59 1265.43 468.95 1150.84 569.98 1105.77 642.45 1249.15 651.67
00008202 00000016 1029.79 256.44 390.99 521.70 1099.20 451.54 1266.95 458.16 1151.32 557.84 1104.35 634.29 1253.62 640.85
00008203 00000017 1031.29 254.87 390.39 520.56 1098.21 446.02 1266.19 450.04 1151.40 551.33 1106.95 632.15 1253.61 636.39
00008204 00000018 1031.45 254.62 390.63 520.96 1098.04 446.65 1265.32 449.64 1151.35 551.81 1108.23 632.79 1254.13 636.17
00008205 00000019 1031.44 257.49 391.01 521.50 1098.95 452.75 1266.22 455.85 1152.45 559.19 1110.01 638.93 1254.13 642.51
00008206 00000020 1031.99 270.12 389.80 512.34 1099.28 459.26 1265.04 464.29 1150.61 572.63 1110.50 650.07 1244.54 655.50
00008207 00000021 1034.24 289.20 385.58 501.55 1098.71 459.87 1261.04 472.86 1144.77 573.26 1108.90 654.36 1230.53 664.42
00008208 00000022 1033.15 291.00 386.19 503.89 1094.06 465.69 1257.16 472.64 1141.74 582.29 1108.44 662.19 1233.60 668.29
00008209 00000023 1032.81 290.88 384.56 507.62 1093.67 467.42 1255.43 473.60 1141.35 584.26 1109.55 664.78 1234.08 670.23
00008210 00000024 1032.24 292.36 385.69 506.55 1093.00 467.58 1255.09 473.54 1140.29 583.71 1108.74 664.64 1233.90 669.89
00008211 00000025 1031.34 289.59 385.53 508.92 1092.40 466.98 1255.01 472.79 1140.84 583.64 1108.37 664.65 1232.84 670.04
00008212 00000026 1032.39 289.09 384.48 507.56 1092.28 465.41 1254.16 471.37 1138.94 581.70 1107.22 662.52 1231.29 668.22
00008213 00000027 1025.93 282.81 389.44 506.47 1093.37 463.57 1255.18 470.94 1142.17 580.09 1103.72 659.28 1229.49 667.42
00008214 00000028 1024.74 280.28 389.99 507.18 1092.29 462.68 1256.92 470.45 1141.80 579.57 1100.95 656.12 1233.91 664.51
00008215 00000029 1024.41 281.63 391.01 509.85 1092.00 465.76 1254.93 472.03 1140.54 581.04 1102.33 658.00 1234.77 665.10
00008216 00000030 1026.69 288.12 388.22 511.07 1088.47 467.94 1250.39 470.48 1138.73 583.21 1109.04 662.77 1235.67 665.36
00008217 00000031 1024.53 290.44 386.16 510.49 1087.56 468.26 1251.04 473.95 1139.51 586.20 1105.48 661.47 1236.24 666.76
00008218 00000032 1022.57 291.61 386.09 506.93 1086.01 468.77 1249.46 475.44 1138.25 586.76 1102.11 659.20 1234.15 665.30
00008219 00000033 1021.55 291.20 386.68 506.50 1085.35 468.41 1249.82 475.75 1138.05 587.10 1100.61 658.19 1233.88 664.83
00008220 00000034 1019.93 287.93 387.17 507.29 1087.52 468.96 1252.87 475.55 1138.56 586.66 1097.15 657.72 1235.54 664.83
00008221 00000035 1018.97 284.99 386.80 508.00 1087.54 467.06 1253.12 473.31 1138.60 583.10 1097.18 656.00 1236.71 662.87
00008222 00000036 1018.74 282.17 387.86 509.42 1087.30 465.07 1253.84 470.86 1138.52 579.64 1096.71 654.20 1238.03 660.61
00008223 00000037 1019.23 280.50 387.89 510.22 1087.00 463.05 1254.23 467.82 1139.17 578.43 1097.39 652.91 1239.66 658.49
00008224 00000038 1018.00 280.64 387.71 509.58 1086.92 463.10 1254.42 467.80 1140.35 578.11 1097.02 651.58 1240.21 657.08
00008225 00000039 1016.85 282.34 387.57 507.94 1086.41 463.59 1253.98 469.11 1139.81 578.84 1096.13 650.65 1240.25 656.85
00008226 00000040 1015.67 284.04 388.53 507.31 1086.33 466.57 1251.48 473.40 1138.17 581.00 1095.48 651.20 1238.82 658.21
00008227 00000041 1013.30 285.02 388.32 507.96 1085.15 466.57 1250.77 473.47 1138.07 581.22 1093.78 652.31 1237.98 659.29
00008228 00000042 1010.40 278.16 387.59 512.04 1082.05 462.51 1250.91 468.98 1136.37 575.29 1090.40 650.37 1236.47 657.01
00008229 00000043 1007.25 268.76 389.28 513.74 1080.42 453.36 1248.88 460.91 1135.15 559.65 1085.66 639.60 1233.55 646.82
00008230 00000044 1006.73 261.09 386.69 513.40 1080.88 443.31 1246.08 452.74 1135.68 549.00 1084.21 627.59 1231.48 636.37
00008231 00000045 1006.81 252.84 385.66 516.00 1082.18 435.95 1245.51 445.75 1137.87 539.53 1085.13 616.02 1231.53 625.01
00008232 00000046 1007.25 248.31 384.58 521.67 1080.79 430.00 1244.96 439.68 1136.21 535.54 1085.05 611.92 1231.58 620.64
00008233 00000047 1006.59 242.98 386.59 521.36 1078.27 429.09 1244.74 436.89 1135.30 534.47 1086.01 611.69 1232.83 618.67
00008234 00000048 1008.05 244.07 387.08 516.93 1079.05 429.56 1245.42 435.89 1137.23 536.01 1089.50 613.43 1231.95 619.19
00008235 00000049 1008.54 247.66 387.00 519.21 1080.94 433.09 1245.08 439.46 1138.59 537.64 1090.19 620.19 1227.68 626.38
00008236 00000050 1008.65 250.70 385.25 522.94 1079.78 438.73 1243.21 447.49 1133.29 544.83 1086.60 632.03 1222.66 640.35
00008237 00000051 1008.57 258.37 382.19 519.64 1077.83 447.95 1241.94 454.85 1131.06 558.52 1087.79 646.89 1217.11 653.68
00008238 00000052 1008.00 265.87 382.82 519.65 1076.71 453.51 1243.48 461.07 1129.31 567.52 1085.32 653.58 1219.01 660.96
00008239 00000053 1006.27 265.11 382.18 522.87 1075.48 455.28 1241.64 464.27 1126.59 570.15 1081.65 655.35 1214.76 663.82
00008240 00000054 1005.36 261.91 381.88 523.17 1075.05 453.69 1242.11 463.14 1127.27 564.57 1080.41 652.64 1214.90 661.33
00008241 00000055 1006.61 257.89 381.70 524.86 1075.03 448.66 1240.76 457.63 1126.84 560.45 1081.75 648.04 1216.17 656.37
00008242 00000056 1007.66 255.58 380.43 524.10 1075.29 445.68 1239.29 454.31 1126.52 556.89 1082.92 645.88 1214.84 653.98
00008243 00000057 1005.71 255.82 382.73 522.06 1076.42 444.00 1241.00 454.30 1129.47 553.01 1081.89 640.24 1217.51 649.63
00008244 00000058 1004.72 256.25 382.50 521.40 1075.01 445.15 1239.48 455.05 1128.58 553.91 1081.16 640.92 1217.18 649.81
00008245 00000059 1004.63 258.69 382.88 521.41 1073.53 447.32 1238.43 456.69 1126.28 557.60 1080.30 644.64 1215.20 653.14
00008246 00000060 1001.53 263.95 383.56 516.58 1073.24 450.44 1239.62 461.00 1126.28 562.09 1078.54 644.87 1214.62 654.28
00008247 00000061 999.07 266.60 384.95 516.09 1072.83 454.37 1240.37 464.38 1127.12 567.33 1077.91 647.36 1214.15 656.29
00008248 00000062 998.08 268.27 386.75 515.80 1072.45 456.53 1240.23 465.94 1126.31 569.32 1078.17 648.80 1214.70 657.18
00008249 00000063 997.79 268.30 386.87 516.41 1073.12 456.72 1240.89 466.49 1127.38 569.87 1079.01 648.70 1215.74 657.43
00008250 00000064 998.69 269.10 387.95 517.67 1074.97 456.09 1242.99 466.02 1130.85 568.36 1081.98 647.82 1220.94 656.80
00008251 00000065 1004.09 268.97 387.65 521.42 1077.94 455.31 1245.39 464.12 1131.80 568.16 1086.04 647.99 1226.50 656.21
00008252 00000066 1006.65 268.51 386.59 521.49 1077.95 453.52 1244.89 460.92 1130.31 566.00 1087.61 646.44 1229.61 653.52
00008253 00000067 1006.76 266.35 386.76 518.23 1078.81 449.84 1244.38 458.17 1131.54 558.67 1087.23 639.21 1230.73 646.96
00008254 00000068 1007.69 263.16 386.62 516.85 1081.29 450.09 1244.89 458.77 1134.24 550.55 1088.97 631.45 1234.69 639.26
00008255 00000069 1012.99 254.32 383.57 523.37 1085.01 440.61 1245.95 447.17 1138.53 537.15 1090.77 618.84 1237.47 625.54
00008256 00000070 1017.37 232.26 384.26 529.59 1086.60 428.63 1254.67 429.93 1142.67 523.94 1095.43 611.56 1242.76 613.93
00008257 00000071 1017.39 216.45 391.70 528.75 1088.74 415.50 1262.60 413.88 1148.59 510.82 1101.50 601.99 1248.39 601.48
00008258 00000072 1015.11 196.70 397.48 539.14 1094.12 403.33 1267.15 402.64 1156.99 498.28 1108.72 589.09 1260.70 589.31
00008259 00000073 1020.07 188.17 394.22 537.71 1097.49 394.92 1270.68 392.28 1159.35 482.85 1110.43 580.22 1265.44 579.01
00008260 00000074 1019.50 184.28 394.03 532.37 1097.37 388.17 1266.90 382.88 1157.19 469.42 1109.27 570.78 1261.58 567.49
00008261 00000075 1019.70 175.44 393.53 538.91 1095.13 380.92 1265.83 374.15 1154.89 463.48 1106.35 564.37 1261.22 559.58
00008262 DELETE   1019.17 177.47 391.46 537.23 1093.13 384.61 1257.34 375.88 1147.92 461.96 1102.72 561.60 1255.43 555.38
00008263 00000077 1016.55 177.75 392.67 535.78 1089.99 385.57 1253.63 375.53 1144.25 461.45 1101.48 563.59 1249.60 556.24
00008264 00000078 1014.92 180.22 391.20 530.69 1086.55 385.18 1248.90 379.00 1139.54 464.25 1097.56 565.66 1238.34 561.89
00008265 00000079 1012.56 180.44 389.58 524.26 1082.79 382.70 1241.93 380.33 1134.15 464.45 1094.29 564.73 1225.87 564.56
00008266 DELETE   1011.81 172.64 386.18 516.17 1072.94 376.31 1230.92 370.66 1121.21 456.52 1089.95 558.68 1214.35 555.37
00008267 DELETE   1008.15 153.10 379.88 515.72 1061.05 362.95 1219.54 355.68 1108.80 444.28 1077.09 546.33 1197.08 541.19
00008268 DELETE   1003.62 132.25 381.38 522.66 1050.40 348.95 1211.13 344.47 1086.71 419.77 1062.22 531.59 1172.74 528.32
00008269 00000083 1009.19 121.99 381.14 524.47 1057.84 339.77 1210.90 329.75 1087.01 398.69 1063.32 518.88 1174.26 511.38
00008270 DELETE   1018.07 120.20 378.71 523.20 1073.64 324.34 1220.41 322.72 1099.90 402.87 1080.32 512.56 1197.20 513.09
00008271 00000085 1022.54 119.07 380.66 531.25 1081.37 326.29 1228.64 324.95 1110.19 403.64 1087.75 514.52 1206.95 515.98
00008272 DELETE   1027.40 126.08 383.45 531.98 1087.56 334.30 1238.15 336.13 1116.62 419.44 1091.72 523.16 1212.44 526.89
00008273 DELETE   1031.82 146.55 377.73 523.78 1081.38 348.76 1233.83 347.27 1117.17 447.39 1097.12 542.54 1212.88 543.58
00008274 DELETE   1032.74 175.70 373.36 528.71 1082.36 374.91 1222.06 380.54 1106.90 479.71 1092.77 572.15 1204.82 579.22
00008275 00000089 1028.96 191.15 372.09 524.45 1081.07 388.76 1220.45 398.11 1104.92 501.57 1089.32 589.88 1198.68 599.07
00008276 00000090 1034.78 199.72 368.38 520.89 1078.24 391.26 1228.25 401.85 1103.84 507.38 1090.96 595.42 1199.84 603.47
00008277 00000091 1030.46 186.39 370.01 528.14 1078.41 385.64 1218.89 395.07 1098.50 493.89 1082.95 588.92 1190.06 598.36
00008278 00000092 1038.42 174.83 366.11 529.11 1080.87 372.70 1220.69 382.77 1097.96 479.34 1083.15 575.64 1191.85 586.50
00008279 00000093 1040.70 166.10 368.34 525.46 1082.70 360.62 1220.96 369.20 1102.55 461.11 1086.30 558.47 1191.28 568.09
00008280 00000094 1042.08 154.75 367.81 520.90 1082.58 353.37 1228.26 361.83 1107.16 452.15 1086.22 546.31 1197.09 555.88
00008281 00000095 1040.62 150.76 371.54 528.48 1084.96 351.82 1233.79 358.70 1110.15 449.93 1089.24 547.18 1202.44 555.54
00008282 00000096 1038.90 159.87 374.29 539.31 1086.71 357.51 1231.05 363.09 1109.53 454.84 1093.83 556.32 1206.06 563.86
00008283 00000097 1040.45 174.61 372.33 535.26 1087.37 374.56 1229.74 380.63 1105.67 474.52 1091.89 571.20 1208.96 578.92
00008284 DELETE   1031.98 190.89 380.21 532.81 1083.98 394.15 1227.10 401.91 1107.39 504.45 1094.97 596.12 1205.87 603.85
00008285 DELETE   1033.54 224.52 370.78 522.63 1076.84 416.40 1222.79 423.96 1109.69 534.37 1095.99 616.38 1207.96 624.16
00008286 00000100 1029.41 249.64 375.53 525.68 1077.44 436.68 1220.75 448.17 1103.53 555.91 1090.90 643.42 1203.56 654.68
00008287 00000101 1021.81 257.31 381.79 524.40 1075.43 442.48 1220.08 453.13 1102.82 561.01 1091.66 647.59 1204.08 657.71
00008288 00000102 1021.47 252.82 383.66 529.29 1073.10 438.06 1219.87 447.67 1101.33 553.41 1090.49 637.48 1212.87 646.27
00008289 00000103 1019.28 249.12 385.48 525.17 1072.28 431.02 1218.05 437.19 1101.52 539.75 1091.58 618.99 1222.30 623.96
00008290 00000104 1016.32 221.44 385.98 521.62 1066.10 416.38 1221.44 419.87 1105.42 529.45 1090.28 605.63 1215.83 608.61
00008291 00000105 1017.66 215.62 386.56 514.97 1064.05 409.51 1218.57 413.38 1098.27 520.79 1084.33 595.95 1212.12 598.80
00008292 00000106 1012.08 215.92 389.58 514.22 1057.27 403.73 1224.27 413.34 1095.68 522.55 1080.79 597.47 1211.03 604.33
00008293 00000107 1010.24 221.69 387.10 515.01 1058.48 412.80 1215.78 418.50 1098.85 527.52 1077.61 602.00 1205.08 606.34
00008294 00000108 1009.42 248.79 386.38 509.55 1063.08 428.67 1209.77 438.51 1097.11 542.58 1079.93 615.39 1204.35 622.88
00008295 00000109 1008.64 259.10 389.12 521.76 1062.33 445.22 1204.05 455.79 1089.33 564.63 1091.81 641.10 1210.27 649.20
00008296 00000110 1002.88 276.36 388.36 507.20 1057.64 452.69 1199.04 462.33 1085.34 577.62 1095.86 646.18 1211.91 653.36
00008297 00000111 1000.68 276.14 394.37 504.01 1057.58 453.31 1200.78 461.38 1088.13 576.64 1096.31 642.62 1215.09 648.33
00008298 00000112 1004.86 266.70 395.25 510.80 1061.28 451.59 1200.41 457.50 1090.34 569.73 1097.47 638.89 1216.78 642.77
00008299 00000113 1004.57 265.27 396.58 510.13 1062.57 448.57 1204.68 454.21 1095.26 565.10 1095.59 635.34 1217.47 639.19
00008300 00000114 1005.41 268.11 396.57 505.34 1064.55 448.03 1209.13 454.37 1098.42 563.77 1093.97 634.00 1217.39 638.57
00008301 00000115 1004.70 267.40 396.44 504.28 1064.72 450.43 1210.31 456.41 1099.99 567.03 1094.38 633.60 1219.13 637.79
00008302 00000116 1003.83 270.66 397.60 502.02 1065.35 452.89 1212.87 458.52 1102.08 570.13 1094.73 634.69 1221.11 638.60
00008303 00000117 1004.62 274.74 396.93 497.88 1066.05 454.78 1212.90 460.06 1102.10 571.72 1095.75 635.82 1221.40 639.57
00008304 00000118 1005.41 274.72 395.32 498.29 1066.14 455.31 1214.16 460.84 1102.14 571.90 1095.89 636.62 1222.79 640.63
00008305 00000119 1006.26 274.29 395.24 497.88 1067.03 454.52 1217.84 460.70 1104.45 571.10 1094.41 635.44 1224.05 640.01
00008306 00000120 1005.35 272.72 397.05 498.80 1067.45 453.16 1221.23 459.35 1106.29 569.34 1092.73 634.54 1224.47 639.14
00008307 00000121 1005.09 271.35 397.68 499.74 1067.34 453.08 1222.23 458.42 1107.63 568.49 1091.89 633.55 1225.87 637.34
00008308 00000122 1005.80 272.82 397.01 498.25 1067.55 452.91 1221.59 458.48 1106.82 568.35 1092.34 634.28 1224.81 638.37
00008309 00000123 1005.87 271.54 396.91 499.74 1067.41 452.94 1221.37 458.18 1106.86 568.32 1092.61 634.86 1224.39 638.72
00008310 00000124 1006.02 271.75 398.43 500.35 1067.39 452.40 1221.16 458.38 1105.68 568.28 1092.25 635.10 1222.70 639.65
00008311 00000125 1006.40 270.33 398.28 503.35 1067.83 451.89 1220.36 458.06 1105.35 567.72 1092.32 635.52 1221.52 640.27
00008312 00000126 1008.45 268.26 396.87 506.76 1068.47 449.25 1218.89 456.75 1104.37 565.28 1093.16 637.53 1215.98 643.64
00008313 00000127 1009.74 262.81 393.36 512.57 1067.64 446.50 1217.19 453.31 1104.27 562.83 1093.65 639.46 1212.90 645.24
00008314 00000128 1011.29 256.38 388.76 518.36 1066.72 442.35 1216.19 449.60 1104.37 559.31 1093.30 642.55 1207.55 648.87
00008315 00000129 1012.38 255.16 385.57 517.30 1066.76 440.32 1215.93 446.71 1104.22 555.19 1091.73 641.35 1204.90 646.99
00008316 00000130 1012.68 254.82 386.11 514.71 1066.40 439.30 1216.77 446.40 1103.70 554.26 1088.65 639.15 1203.90 645.30
CROP_BBOX: 666 0 1725 1026
