Video ID: 	ytNCgqXvw18
H: 	1080
W: 	1920
FPS: 	25.0

FRAME INDEX X0 Y0 W H [Landmarks (5 Points)]

00019155 00000000 941.68 64.14 591.15 812.29 1064.94 373.89 1339.85 364.30 1181.04 512.83 1100.54 690.37 1308.77 683.01
00019156 00000001 941.88 63.53 590.19 811.94 1064.24 371.51 1339.77 360.66 1181.87 511.29 1102.51 689.14 1311.78 680.52
00019157 00000002 942.92 65.04 592.48 812.40 1068.62 373.66 1343.64 359.09 1189.17 511.45 1111.87 692.29 1318.08 680.52
00019158 00000003 943.09 65.31 592.73 816.55 1065.33 375.40 1341.58 363.72 1182.38 513.28 1103.30 694.38 1314.35 685.14
00019159 00000004 942.12 69.55 591.15 823.27 1059.43 377.37 1336.84 370.82 1171.16 523.89 1091.59 694.77 1307.75 690.10
00019160 00000005 945.05 79.50 586.91 817.72 1059.79 383.31 1338.35 376.57 1170.08 529.49 1090.16 697.43 1311.45 692.35
00019161 00000006 948.62 73.32 589.16 845.97 1068.57 394.36 1340.90 387.82 1179.57 534.36 1095.43 705.39 1317.90 699.76
00019162 00000007 945.33 90.50 593.76 822.36 1067.15 393.91 1341.09 393.31 1171.06 545.38 1087.92 708.39 1305.14 709.53
00019163 00000008 944.99 91.51 595.91 828.69 1061.79 395.43 1334.39 398.16 1159.40 552.90 1080.06 714.15 1297.85 718.24
00019164 00000009 948.33 95.35 594.81 830.13 1065.40 399.14 1337.36 402.80 1163.21 555.17 1083.74 718.13 1299.66 722.75
00019165 00000010 957.52 100.30 585.92 841.49 1071.96 410.66 1345.92 409.19 1175.08 561.97 1097.04 726.49 1313.72 726.23
00019166 00000011 961.13 101.98 585.12 828.80 1075.32 416.67 1354.13 413.16 1183.62 566.15 1101.89 727.39 1324.30 725.16
00019167 00000012 961.77 105.96 587.55 825.72 1076.51 417.50 1358.62 416.75 1186.40 570.33 1101.89 728.09 1327.00 728.06
00019168 DELETE   961.72 104.23 589.02 844.84 1085.56 423.37 1366.78 424.76 1202.69 583.74 1108.50 734.51 1341.64 735.75
00019169 DELETE   967.32 110.00 595.22 844.10 1106.59 431.48 1386.36 426.01 1237.83 595.15 1143.50 751.88 1364.13 748.28
00019170 00000015 978.39 114.62 594.81 864.79 1121.87 441.05 1406.95 438.75 1260.82 613.52 1160.92 764.96 1381.55 761.99
00019171 00000016 979.10 143.05 592.29 837.23 1122.05 443.06 1408.36 442.50 1261.65 618.46 1158.21 770.77 1378.63 769.78
00019172 00000017 977.99 130.22 584.34 844.90 1117.21 452.51 1398.10 448.30 1247.73 622.98 1150.65 774.28 1369.35 771.87
00019173 00000018 974.49 132.64 583.12 834.70 1112.49 451.34 1394.30 449.14 1243.68 625.37 1145.00 773.67 1366.04 772.83
00019174 00000019 977.69 129.42 581.33 840.86 1119.97 456.03 1394.94 448.91 1252.30 624.03 1157.00 772.80 1373.01 767.37
00019175 00000020 978.12 128.43 588.76 859.94 1131.74 460.03 1403.00 459.34 1268.89 621.44 1158.94 771.29 1378.96 769.58
00019176 00000021 977.40 127.38 590.33 852.68 1132.90 460.48 1408.80 460.00 1274.75 619.39 1159.04 767.17 1384.95 765.52
00019177 00000022 977.36 126.17 584.63 841.84 1129.68 457.65 1408.73 455.79 1266.18 622.54 1157.05 764.79 1382.47 763.64
00019178 00000023 975.25 135.52 585.66 835.98 1126.90 458.85 1403.86 457.91 1260.83 623.95 1154.77 764.07 1377.91 763.71
00019179 00000024 975.73 136.53 584.86 837.68 1128.02 459.12 1403.55 458.60 1260.42 624.18 1156.95 766.26 1376.71 766.33
00019180 00000025 974.17 128.67 593.24 857.89 1131.73 458.58 1408.14 461.10 1272.96 616.35 1159.69 770.00 1383.49 770.92
00019181 00000026 977.78 126.65 590.61 840.52 1130.07 458.04 1411.62 456.54 1275.40 616.63 1158.41 764.66 1387.66 762.28
00019182 00000027 979.93 119.61 591.49 842.66 1132.80 452.08 1413.93 451.05 1276.68 611.23 1160.51 759.58 1388.90 757.74
00019183 00000028 979.74 109.10 594.15 863.48 1142.77 448.64 1415.83 445.89 1285.92 605.80 1173.53 761.51 1390.88 758.39
00019184 00000029 981.56 99.28 598.56 862.38 1147.04 448.03 1422.74 442.95 1294.64 603.57 1177.99 756.25 1400.87 751.23
00019185 00000030 990.44 99.47 594.71 849.34 1153.35 445.48 1431.63 440.55 1303.16 601.24 1183.40 750.85 1411.28 745.97
00019186 00000031 991.45 94.13 595.59 853.98 1162.23 439.51 1438.03 437.28 1314.68 597.18 1189.89 744.65 1414.75 742.11
00019187 00000032 992.52 89.43 596.43 859.58 1166.18 437.75 1441.04 436.76 1318.51 593.71 1192.32 744.04 1415.37 742.60
00019188 00000033 994.52 86.73 596.42 862.70 1171.38 434.53 1444.68 434.76 1323.78 590.84 1197.62 742.45 1418.38 742.33
00019189 00000034 998.26 85.65 595.59 859.04 1177.63 435.41 1452.98 434.81 1333.41 591.30 1203.20 739.95 1428.88 739.12
00019190 00000035 1005.25 78.30 592.78 870.68 1188.81 438.23 1455.11 436.52 1337.70 592.27 1212.78 739.69 1431.01 738.17
00019191 00000036 1008.42 79.39 593.45 881.01 1193.36 437.73 1455.63 438.90 1336.79 589.36 1219.36 746.69 1428.92 747.63
00019192 00000037 1006.04 78.10 602.87 892.65 1191.40 434.80 1461.29 440.24 1335.19 593.85 1213.62 751.66 1430.85 756.08
00019193 00000038 1012.82 93.04 596.59 880.69 1195.45 436.55 1471.28 439.25 1341.42 606.83 1212.92 762.80 1432.55 765.44
00019194 00000039 1010.01 88.31 604.71 897.46 1192.03 437.13 1469.20 443.45 1340.12 605.96 1213.22 759.18 1440.47 764.34
00019195 00000040 1011.21 87.96 604.60 901.91 1190.74 437.98 1469.44 444.83 1337.93 608.89 1209.72 760.43 1441.00 766.19
00019196 00000041 1010.54 89.30 605.72 901.83 1187.58 438.68 1468.50 446.46 1334.32 612.00 1206.57 761.86 1440.99 768.35
00019197 00000042 1011.32 90.79 604.25 892.37 1187.50 439.25 1468.32 446.81 1334.20 612.64 1206.68 759.07 1439.85 765.38
00019198 00000043 1013.88 89.70 601.95 885.09 1189.75 439.97 1468.53 447.67 1334.65 612.24 1208.36 754.58 1440.34 761.17
00019199 00000044 1015.86 92.18 600.04 871.63 1191.87 438.95 1469.09 446.81 1335.51 611.21 1210.30 748.74 1440.02 755.57
00019200 00000045 1013.86 88.38 601.94 868.67 1190.78 434.10 1467.24 442.64 1333.06 602.08 1206.90 740.30 1438.80 747.47
00019201 00000046 1010.01 81.64 601.06 870.68 1188.94 430.03 1462.03 436.84 1331.28 594.06 1205.84 733.53 1435.96 738.99
00019202 00000047 1007.66 81.18 597.74 869.21 1185.96 426.99 1458.15 431.23 1331.32 586.47 1205.11 730.82 1435.24 734.08
00019203 00000048 1004.92 77.91 595.77 872.48 1185.57 422.36 1455.71 427.84 1330.51 580.41 1201.12 725.95 1433.06 730.26
00019204 00000049 1002.28 74.55 595.77 878.37 1181.60 421.96 1453.42 426.23 1327.51 577.25 1198.70 727.81 1429.90 731.37
00019205 00000050 1001.87 74.56 591.29 878.87 1178.68 426.92 1444.62 428.14 1321.93 577.69 1197.43 730.36 1421.91 731.49
00019206 00000051 1000.02 73.10 592.99 873.87 1173.67 423.94 1443.25 424.05 1318.95 577.23 1194.41 729.30 1419.37 729.51
00019207 00000052 996.88 74.00 596.85 865.28 1169.65 418.34 1445.70 420.26 1318.18 576.92 1191.63 727.30 1417.60 729.05
00019208 00000053 995.85 75.58 596.91 858.67 1166.72 417.13 1445.31 419.70 1316.55 577.98 1189.60 726.42 1416.34 728.65
00019209 00000054 995.45 73.33 598.06 862.36 1165.75 416.47 1444.62 417.90 1315.46 578.51 1189.71 727.19 1416.68 728.45
00019210 00000055 993.35 71.43 599.25 862.67 1163.30 414.76 1442.66 416.32 1312.00 576.29 1188.29 726.00 1414.20 727.42
00019211 00000056 992.74 72.03 598.69 856.11 1159.53 412.79 1440.14 413.74 1307.50 573.22 1184.80 722.50 1412.41 723.38
00019212 00000057 991.63 68.83 598.60 859.05 1158.09 413.26 1438.90 412.75 1306.63 570.47 1184.76 723.43 1413.11 723.04
00019213 00000058 992.23 68.95 597.98 858.49 1157.47 413.12 1437.51 412.49 1304.93 570.58 1185.48 724.38 1411.50 724.03
00019214 00000059 992.16 68.91 599.06 859.40 1157.50 413.69 1438.53 413.41 1305.02 570.67 1184.21 724.38 1412.43 724.24
00019215 00000060 993.53 70.22 600.01 858.13 1159.10 414.46 1441.36 415.69 1306.52 571.50 1184.92 723.51 1414.22 724.58
00019216 00000061 987.64 66.13 604.42 877.25 1160.78 414.41 1438.08 420.37 1310.82 565.46 1188.79 724.32 1413.65 727.33
00019217 00000062 994.20 71.06 599.47 859.22 1163.77 419.05 1443.38 421.26 1311.39 570.73 1187.17 723.63 1416.66 725.33
00019218 00000063 994.97 71.37 598.92 865.18 1167.17 419.95 1443.91 423.75 1313.08 571.20 1187.80 724.25 1416.97 727.29
00019219 00000064 989.99 64.72 606.64 891.54 1168.05 418.64 1442.22 423.01 1317.55 564.11 1197.22 729.35 1418.96 731.37
00019220 00000065 996.74 74.91 599.28 882.23 1174.47 422.44 1444.31 424.79 1317.79 569.43 1198.28 735.82 1417.78 737.91
00019221 00000066 999.37 73.32 595.42 880.48 1175.97 425.34 1445.76 426.47 1319.98 573.33 1199.11 736.14 1420.29 737.18
00019222 00000067 1000.67 74.08 593.90 872.13 1174.11 424.69 1448.72 425.17 1321.38 577.92 1194.15 730.48 1425.38 730.95
00019223 00000068 1000.96 75.27 596.05 874.04 1177.59 425.13 1450.10 427.85 1322.22 576.18 1198.94 735.99 1420.86 738.50
00019224 00000069 1002.76 75.93 595.45 891.74 1181.21 425.40 1452.51 428.60 1326.32 578.56 1200.79 741.95 1425.57 744.75
00019225 00000070 1002.57 76.63 597.03 891.67 1181.81 427.64 1453.09 429.30 1328.24 581.79 1202.48 741.50 1429.22 742.89
00019226 00000071 1003.01 76.54 597.61 890.59 1182.21 427.63 1454.05 428.60 1329.38 582.19 1203.45 741.18 1431.41 741.93
00019227 00000072 1003.25 75.90 597.30 887.24 1182.65 427.50 1454.27 427.87 1330.66 581.81 1204.99 738.85 1433.32 739.05
00019228 00000073 1002.31 74.29 597.93 884.57 1182.79 428.58 1453.84 427.64 1331.66 581.55 1206.62 736.07 1435.01 735.12
00019229 00000074 1003.36 76.73 592.70 880.37 1183.55 430.25 1448.66 430.93 1327.59 581.79 1204.33 731.69 1429.47 732.07
00019230 00000075 997.02 78.43 595.70 871.60 1173.35 428.36 1439.97 430.30 1316.52 580.25 1192.18 728.09 1419.91 729.48
00019231 00000076 986.12 73.36 602.00 883.32 1152.16 427.22 1427.05 427.50 1296.29 577.20 1178.47 732.81 1405.46 732.21
00019232 00000077 978.88 75.11 606.57 878.56 1143.96 423.42 1422.94 425.22 1287.85 577.25 1169.43 730.28 1399.75 731.06
00019233 00000078 975.09 71.64 607.67 881.64 1141.46 426.39 1421.42 424.48 1288.34 578.89 1171.53 732.69 1401.55 730.26
00019234 00000079 972.67 67.52 607.50 885.38 1140.79 429.08 1420.59 424.04 1290.87 579.79 1173.75 734.56 1403.02 729.56
00019235 00000080 972.92 69.32 603.73 875.00 1140.52 430.63 1419.77 424.29 1291.23 579.70 1174.29 731.91 1402.97 725.79
00019236 00000081 970.27 69.32 603.04 874.59 1138.77 433.91 1417.37 426.15 1289.85 581.53 1173.54 731.74 1402.38 724.48
00019237 00000082 968.66 69.40 601.97 883.55 1132.23 434.79 1411.08 425.14 1281.60 582.73 1169.32 739.67 1396.70 731.09
00019238 00000083 961.65 65.29 601.25 896.41 1121.72 434.59 1395.87 421.91 1264.59 579.94 1159.96 743.53 1383.07 732.83
00019239 00000084 951.91 70.13 603.54 890.70 1106.83 433.58 1383.45 421.63 1245.57 579.14 1141.53 740.79 1370.53 730.68
00019240 00000085 945.63 75.05 606.18 891.97 1094.55 426.47 1370.47 422.72 1225.33 579.93 1129.83 742.63 1350.02 739.83
00019241 00000086 939.55 73.45 608.71 899.23 1087.18 429.49 1359.01 419.45 1216.05 578.14 1126.47 747.32 1342.23 739.06
00019242 00000087 942.48 67.26 602.08 910.78 1093.88 431.53 1357.09 418.47 1221.96 574.32 1134.06 743.97 1347.98 733.04
00019243 00000088 942.35 66.60 602.83 899.64 1095.08 428.84 1361.86 412.89 1229.68 569.56 1138.66 739.26 1355.79 725.72
00019244 00000089 940.85 70.02 605.48 882.85 1090.12 419.06 1365.31 406.05 1227.42 567.09 1129.68 732.63 1353.62 721.22
00019245 00000090 937.09 65.20 605.72 889.36 1082.50 416.37 1357.67 404.80 1217.23 568.89 1119.76 733.38 1344.86 723.16
00019246 00000091 932.70 64.89 612.55 894.30 1079.53 416.21 1354.94 404.59 1213.22 570.48 1119.26 736.34 1340.70 726.27
00019247 00000092 932.31 63.17 613.34 896.82 1080.95 418.09 1355.61 406.90 1215.86 574.18 1122.98 738.54 1342.20 728.81
00019248 00000093 934.59 67.20 612.95 890.49 1088.12 420.75 1364.41 411.29 1227.38 578.48 1128.68 736.36 1350.78 727.71
00019249 00000094 936.70 71.57 611.97 883.62 1091.56 421.28 1369.66 411.57 1232.63 576.90 1133.62 736.72 1355.00 728.03
00019250 00000095 936.56 71.48 611.18 882.75 1090.59 421.63 1368.87 413.06 1230.82 577.38 1130.74 735.65 1353.27 727.90
00019251 00000096 942.34 76.34 604.02 863.90 1086.20 423.12 1365.68 412.99 1220.46 587.38 1126.56 733.21 1350.54 725.08
00019252 00000097 931.45 73.20 613.12 888.25 1084.93 420.66 1363.58 411.65 1224.89 579.63 1123.23 736.92 1349.14 728.94
00019253 00000098 931.36 72.29 615.01 888.69 1086.18 421.13 1364.95 411.96 1226.41 579.63 1124.94 736.12 1351.40 727.96
00019254 00000099 933.18 70.50 612.64 889.95 1088.66 420.27 1366.58 411.96 1229.17 577.65 1126.56 734.47 1353.27 726.84
00019255 00000100 932.52 69.54 612.39 888.99 1088.92 418.80 1367.39 411.24 1230.00 576.72 1125.69 731.95 1354.05 724.83
00019256 00000101 933.79 66.77 610.92 888.88 1088.85 417.72 1366.60 410.10 1228.23 574.51 1124.92 730.32 1353.77 723.08
00019257 00000102 934.76 67.71 611.05 890.36 1088.79 418.03 1367.61 408.90 1228.46 570.67 1126.33 732.48 1354.23 724.17
00019258 00000103 935.76 62.00 610.70 902.46 1090.23 416.13 1366.36 408.37 1226.51 566.28 1127.48 734.91 1349.99 727.85
00019259 00000104 938.10 60.77 608.36 898.73 1091.43 413.97 1366.08 408.61 1225.81 567.40 1126.96 732.17 1347.64 727.02
00019260 00000105 938.15 59.51 606.68 895.67 1091.84 412.11 1366.27 407.87 1225.79 565.05 1124.22 726.61 1347.46 722.29
00019261 00000106 941.60 58.54 605.30 892.69 1094.79 410.91 1370.44 404.20 1231.12 560.07 1130.01 725.08 1353.08 718.94
00019262 00000107 945.88 62.43 602.03 882.09 1099.22 404.75 1374.94 400.12 1237.00 560.22 1134.47 720.27 1357.98 715.61
00019263 00000108 951.94 60.46 598.67 881.31 1106.25 401.29 1380.50 399.22 1244.48 563.44 1141.27 717.21 1366.45 715.03
00019264 00000109 956.01 61.00 603.54 883.47 1117.30 404.14 1390.01 399.78 1257.51 564.00 1154.41 716.98 1378.90 713.21
00019265 00000110 961.23 59.93 603.71 884.09 1127.72 415.80 1402.20 405.39 1277.53 565.92 1169.54 728.77 1391.16 718.83
00019266 00000111 964.80 61.30 604.29 894.94 1132.47 414.20 1407.43 407.08 1282.47 568.46 1172.50 734.62 1393.45 727.85
00019267 00000112 968.00 68.43 603.16 886.14 1138.62 419.60 1415.62 415.05 1291.24 580.01 1174.01 734.59 1399.20 729.96
00019268 00000113 971.04 80.12 605.09 878.05 1146.35 423.99 1426.58 421.32 1301.13 586.53 1179.29 737.36 1405.86 734.61
00019269 00000114 976.43 82.52 604.50 888.25 1155.48 428.71 1431.46 425.27 1310.64 589.78 1189.02 743.45 1413.30 740.10
00019270 00000115 982.44 82.51 602.33 886.03 1160.71 433.82 1437.13 425.41 1320.44 595.76 1199.31 748.80 1420.47 741.38
00019271 00000116 983.46 86.54 602.21 881.82 1163.50 434.18 1439.95 425.29 1324.78 600.58 1202.40 751.64 1418.34 744.22
00019272 00000117 987.34 91.15 600.57 877.60 1162.40 436.10 1440.97 426.69 1322.97 603.86 1203.36 759.08 1416.56 751.14
00019273 00000118 986.48 93.17 600.79 878.20 1157.58 438.59 1437.79 432.22 1313.79 603.48 1193.89 760.79 1410.33 755.42
00019274 00000119 984.09 91.61 600.29 874.36 1154.09 441.29 1432.79 435.19 1307.91 608.75 1191.10 759.48 1405.70 754.34
00019275 00000120 984.99 93.42 598.24 864.46 1152.30 443.41 1431.47 436.70 1306.12 612.81 1189.82 758.16 1406.36 752.47
00019276 00000121 983.55 89.84 600.64 874.32 1156.03 446.71 1434.11 439.09 1312.40 615.56 1193.06 758.63 1410.94 751.70
00019277 00000122 986.96 90.93 595.81 873.17 1161.19 456.30 1433.08 447.84 1314.62 616.97 1194.78 759.75 1413.57 751.77
00019278 00000123 987.69 96.36 593.61 858.77 1158.15 456.88 1435.32 448.29 1314.95 620.26 1192.86 760.60 1414.32 752.52
00019279 00000124 984.05 96.05 598.43 867.60 1156.54 456.90 1435.02 449.95 1313.79 618.91 1190.25 763.36 1412.48 756.63
00019280 00000125 979.81 92.53 600.31 881.38 1156.75 456.51 1431.83 452.91 1311.49 621.41 1188.64 764.80 1407.21 760.73
00019281 00000126 979.33 94.93 599.83 876.41 1155.83 456.73 1432.08 454.10 1311.73 623.18 1188.48 764.96 1406.21 761.57
00019282 00000127 979.92 94.87 600.03 871.92 1156.36 458.93 1433.38 455.61 1313.20 624.63 1189.77 764.63 1410.50 760.45
00019283 00000128 981.26 98.40 598.86 856.23 1155.05 460.12 1434.42 455.84 1313.38 627.68 1190.72 762.76 1410.98 757.73
00019284 00000129 980.29 98.57 600.80 861.66 1154.64 460.14 1433.74 457.43 1311.86 626.09 1189.60 762.77 1410.88 758.84
CROP_BBOX: 621 0 1920 1080
