Video ID: 	_9hpcYh-54o
H: 	1080
W: 	1920
FPS: 	25.0

FRAME INDEX X0 Y0 W H [Landmarks (5 Points)]

00032652 00000000 780.98 220.18 489.12 746.60 857.82 550.55 1062.39 505.32 946.63 680.55 943.45 811.04 1102.50 771.29
00032653 00000001 780.34 192.79 480.51 769.91 855.62 547.62 1057.37 502.51 939.38 677.84 935.03 809.39 1094.69 772.16
00032654 00000002 773.30 208.20 493.99 742.87 852.38 530.43 1052.26 493.43 930.59 661.86 929.28 791.48 1083.91 758.92
00032655 DELETE   772.92 213.78 501.23 720.90 846.02 521.76 1040.23 479.45 924.70 649.33 933.64 779.19 1081.29 741.70
00032656 DELETE   784.41 211.44 490.21 704.66 844.51 520.80 1034.04 468.94 915.79 643.49 926.37 770.84 1071.30 727.05
00032657 DELETE   788.45 217.21 494.61 683.33 843.56 503.75 1033.79 452.00 915.68 627.51 932.30 758.00 1076.13 714.10
00032658 00000006 789.26 195.43 506.86 694.93 853.21 491.84 1037.94 437.87 922.08 605.13 939.17 739.21 1081.43 692.97
00032659 00000007 794.51 183.79 499.51 689.86 860.24 475.67 1039.34 415.81 924.31 582.35 948.76 721.40 1088.92 669.60
00032660 DELETE   806.00 178.63 504.56 678.55 871.61 474.38 1047.82 407.09 934.19 566.15 959.67 713.83 1096.66 655.35
00032661 00000009 805.19 190.70 515.36 667.04 872.69 461.95 1057.34 394.30 940.08 551.67 962.15 708.55 1103.56 649.20
00032662 00000010 803.88 191.78 518.33 668.15 872.94 444.62 1064.75 381.88 945.44 538.51 960.54 694.84 1106.38 640.72
00032663 00000011 803.86 191.81 514.94 666.81 872.01 442.46 1063.37 378.12 946.05 532.76 956.49 689.78 1105.43 634.33
00032664 00000012 796.56 169.88 518.77 695.27 863.61 443.25 1055.75 372.32 937.68 534.89 951.98 694.84 1104.42 633.79
00032665 00000013 792.36 175.65 511.70 691.41 849.36 453.54 1040.88 373.22 924.00 537.50 940.34 701.86 1094.38 633.32
00032666 00000014 774.63 183.68 520.59 696.04 836.34 467.26 1028.80 384.93 909.79 551.40 932.98 714.55 1091.56 643.17
00032667 00000015 763.55 186.69 517.64 698.44 825.91 470.71 1019.98 386.62 901.82 555.14 924.56 723.21 1082.35 650.57
00032668 00000016 757.05 191.97 514.22 691.47 820.66 476.68 1013.58 391.85 898.36 561.10 919.74 727.69 1076.58 654.69
00032669 00000017 753.92 204.00 508.02 678.36 816.04 475.67 1010.88 394.55 897.46 565.52 917.03 728.57 1074.72 658.40
00032670 00000018 755.45 200.23 510.05 685.62 813.91 474.79 1011.30 391.11 895.57 563.62 914.29 728.95 1075.94 656.69
00032671 00000019 756.02 193.63 512.16 689.48 817.40 471.39 1015.46 385.17 901.24 558.18 917.63 727.23 1077.95 652.80
00032672 00000020 761.99 199.09 513.49 685.15 821.83 468.76 1021.63 386.53 906.57 557.69 921.56 725.23 1080.72 654.10
00032673 00000021 763.49 192.36 518.03 698.42 831.08 473.11 1028.02 388.39 913.62 558.97 929.82 725.96 1092.70 652.43
00032674 00000022 774.59 196.21 509.97 688.27 844.25 470.34 1033.70 393.85 922.97 559.87 941.15 719.34 1097.31 652.44
00032675 00000023 785.25 196.52 507.09 676.26 853.40 471.79 1038.18 394.08 928.04 557.97 949.81 718.00 1101.60 649.75
00032676 00000024 788.59 191.95 515.98 683.52 858.80 466.78 1045.40 390.40 935.45 553.54 954.21 715.24 1107.68 648.04
00032677 00000025 790.66 192.53 520.93 687.04 863.26 457.51 1054.16 386.93 939.96 548.56 955.67 710.93 1112.72 648.10
00032678 00000026 792.86 192.38 521.36 682.23 869.65 457.95 1059.39 390.65 948.78 548.75 962.09 709.23 1114.26 649.19
00032679 00000027 795.48 192.10 521.67 687.22 872.47 458.97 1061.50 389.77 952.16 552.40 966.02 711.76 1122.94 649.50
00032680 00000028 797.41 195.57 516.41 680.89 873.86 458.07 1061.21 390.82 953.91 552.62 966.69 710.03 1121.82 649.52
00032681 00000029 793.36 191.68 521.56 686.31 872.39 458.95 1062.12 391.34 952.88 551.96 964.91 710.60 1120.15 649.94
00032682 00000030 793.52 191.54 520.15 682.82 871.29 458.04 1061.85 392.75 952.21 552.20 961.90 708.23 1116.77 649.73
00032683 00000031 799.54 192.28 514.03 680.22 877.19 461.47 1062.72 398.86 952.24 553.11 962.39 708.19 1113.85 652.35
00032684 00000032 801.65 182.37 508.77 692.32 878.53 463.76 1058.75 400.38 949.75 553.00 962.82 710.94 1112.24 654.52
00032685 00000033 798.53 191.11 515.12 684.76 875.64 468.10 1058.33 403.17 946.52 554.72 960.24 711.67 1112.97 653.69
00032686 00000034 799.04 192.39 516.38 684.33 874.25 471.14 1059.97 404.32 946.22 556.81 957.96 712.09 1113.90 652.62
00032687 00000035 797.08 190.04 517.64 685.14 873.56 469.76 1061.63 402.31 947.55 555.73 957.92 711.73 1114.34 651.74
00032688 00000036 796.85 184.22 520.31 691.93 876.03 468.05 1063.13 401.51 949.12 552.50 958.31 710.65 1114.65 651.39
00032689 00000037 796.84 187.98 519.91 685.13 877.02 466.27 1066.99 401.40 953.05 552.51 958.22 705.90 1118.35 647.85
00032690 00000038 799.77 186.09 515.25 686.27 879.34 469.69 1067.51 400.67 956.31 552.29 962.49 709.75 1122.38 648.11
00032691 00000039 801.00 186.65 517.58 690.70 881.67 468.56 1067.51 400.01 959.98 556.36 969.79 712.56 1125.47 651.12
00032692 00000040 802.67 187.75 519.38 692.45 882.46 468.31 1068.63 400.48 962.12 558.83 972.52 715.70 1124.63 655.07
00032693 00000041 805.79 185.15 516.24 691.87 884.56 467.67 1069.36 402.40 961.21 561.16 973.07 715.56 1123.53 657.09
00032694 00000042 809.36 182.19 511.81 691.90 883.40 466.08 1075.30 402.76 965.03 560.62 970.49 707.60 1119.67 653.54
00032695 00000043 808.23 181.64 514.03 689.47 883.22 460.35 1075.93 399.57 964.17 557.83 969.32 704.21 1117.73 652.35
00032696 00000044 801.72 180.79 517.30 694.42 883.98 458.10 1074.65 396.91 963.47 554.52 968.71 710.28 1126.50 655.26
00032697 00000045 800.90 175.46 519.16 702.10 883.88 458.99 1075.13 395.95 962.80 552.96 968.42 711.84 1128.44 655.16
00032698 00000046 804.33 181.04 518.74 690.20 880.51 456.25 1076.75 395.10 965.16 551.42 968.49 704.22 1120.95 651.90
00032699 00000047 804.66 175.41 517.73 693.31 882.13 456.36 1074.52 396.36 963.34 551.76 969.07 701.96 1116.83 650.45
00032700 00000048 797.62 177.42 521.89 694.45 882.81 462.23 1074.88 398.10 963.25 554.62 968.37 709.39 1125.39 651.97
00032701 00000049 804.86 174.91 519.84 699.06 882.88 460.51 1077.04 397.44 966.26 553.04 970.77 706.53 1122.38 652.54
00032702 00000050 798.65 178.04 524.13 703.08 884.13 461.14 1074.06 398.12 962.35 553.58 968.51 709.45 1125.49 652.78
00032703 00000051 797.91 169.84 522.66 709.16 886.49 460.50 1077.62 399.71 966.48 553.26 969.85 708.10 1125.35 653.56
00032704 00000052 799.54 176.50 520.44 694.94 887.34 459.11 1080.09 400.52 968.25 554.74 969.75 704.95 1125.95 652.23
00032705 00000053 809.79 176.74 510.08 672.07 886.77 457.14 1081.71 398.22 971.68 554.50 972.44 694.55 1124.77 644.35
00032706 00000054 813.39 174.46 509.67 665.49 887.12 457.00 1081.99 399.05 969.48 555.20 972.65 692.02 1123.90 642.52
00032707 00000055 815.28 175.76 509.80 664.66 888.24 457.16 1084.40 402.09 969.68 557.01 971.13 691.82 1125.60 644.57
00032708 00000056 809.86 172.18 509.69 678.17 885.69 460.61 1090.07 400.48 975.97 566.81 961.17 698.84 1139.81 649.66
00032709 00000057 807.74 185.13 508.64 675.64 881.31 462.82 1093.66 401.08 970.45 556.72 963.87 698.21 1151.56 644.19
00032710 00000058 811.66 179.86 507.51 672.59 886.06 463.66 1092.56 402.70 977.85 568.23 960.86 696.99 1143.10 646.61
00032711 00000059 809.53 179.61 509.24 675.83 885.49 463.45 1092.71 402.86 977.65 568.32 958.97 697.29 1141.71 647.38
00032712 00000060 810.00 180.59 506.68 672.11 886.58 466.80 1091.30 404.95 978.70 568.60 963.01 701.22 1141.23 650.54
00032713 00000061 818.41 179.56 505.54 659.59 891.34 464.11 1088.71 407.66 974.44 559.81 971.06 691.43 1128.93 643.33
00032714 00000062 818.80 172.90 504.15 682.61 894.08 465.90 1090.45 409.14 976.26 559.98 971.13 700.88 1127.64 652.88
00032715 00000063 818.92 173.47 503.32 697.35 894.65 468.19 1089.07 410.52 975.06 560.75 971.79 708.26 1128.22 659.17
00032716 00000064 811.25 178.17 513.64 712.68 893.74 469.47 1087.01 409.63 971.83 563.11 970.57 720.82 1134.15 667.23
00032717 00000065 813.75 177.15 510.97 709.02 892.64 472.89 1089.52 413.04 975.66 565.57 971.71 715.96 1134.56 664.68
00032718 00000066 809.79 174.75 514.56 715.57 892.48 471.52 1085.40 411.44 969.98 564.98 971.71 724.62 1131.72 671.15
00032719 00000067 811.01 175.12 514.80 711.55 890.59 474.31 1090.78 412.71 977.58 566.39 973.60 720.62 1135.45 667.92
00032720 00000068 809.59 178.07 515.58 710.22 893.30 473.06 1086.86 413.25 971.27 567.13 973.10 725.10 1131.56 671.91
00032721 00000069 811.91 175.54 516.61 705.20 890.58 474.40 1091.97 413.85 976.92 566.91 972.84 716.77 1133.69 665.11
00032722 00000070 812.23 171.98 516.91 710.11 891.28 474.92 1093.56 413.96 978.24 566.60 972.42 717.48 1135.33 665.52
00032723 00000071 812.62 171.60 517.43 713.91 891.58 474.93 1093.81 414.03 977.90 567.41 972.72 718.85 1136.31 666.93
00032724 00000072 804.75 174.77 523.62 706.65 890.21 469.91 1094.42 407.29 979.24 563.10 969.44 722.20 1138.27 669.19
00032725 00000073 805.12 175.97 523.44 704.92 890.87 469.95 1094.27 407.44 980.27 563.14 970.47 721.20 1138.49 668.27
00032726 00000074 806.64 175.95 522.21 706.53 892.46 469.11 1095.18 408.03 980.42 563.63 971.22 721.22 1138.07 669.19
00032727 00000075 807.85 183.12 522.43 696.30 892.98 467.57 1095.89 408.23 980.44 563.72 972.24 720.34 1137.88 669.48
00032728 00000076 805.55 180.35 524.49 701.77 893.15 466.81 1096.40 406.81 982.33 564.49 973.78 721.48 1140.11 670.05
00032729 00000077 814.00 172.00 514.62 711.68 895.12 471.09 1098.06 414.40 984.69 568.54 976.72 719.79 1137.05 671.32
00032730 00000078 810.90 178.35 514.75 707.44 898.26 471.55 1095.81 417.71 980.99 569.03 975.90 723.63 1134.69 675.47
00032731 00000079 813.16 169.89 511.26 714.02 895.30 471.72 1101.07 414.26 989.60 570.46 978.94 722.79 1139.29 673.77
00032732 00000080 813.32 161.24 515.86 721.73 898.17 472.30 1101.52 415.63 990.42 571.06 979.77 721.51 1140.31 673.13
00032733 00000081 813.84 153.09 517.15 727.75 899.55 471.12 1103.74 415.48 991.50 570.62 979.98 721.82 1140.20 674.33
00032734 00000082 817.19 151.98 514.91 731.00 902.29 471.77 1103.80 415.97 991.07 569.48 979.85 720.36 1140.81 672.78
00032735 00000083 819.30 154.40 513.94 726.62 904.16 470.76 1106.67 414.33 992.37 566.82 980.69 717.49 1142.14 669.87
00032736 00000084 818.97 157.22 514.20 725.95 904.29 469.85 1107.45 415.14 991.54 566.59 978.69 716.51 1141.23 670.19
00032737 00000085 820.04 159.02 511.18 721.44 905.57 468.70 1107.96 416.04 993.10 566.38 979.57 715.04 1138.08 670.46
00032738 00000086 820.26 157.76 510.60 710.48 905.35 468.29 1106.85 416.41 991.61 563.57 978.24 708.27 1134.34 664.46
00032739 00000087 824.03 155.62 505.71 702.08 904.73 465.87 1107.75 414.65 990.53 561.47 976.55 704.59 1133.09 661.37
00032740 00000088 822.21 153.08 509.79 707.77 905.73 461.20 1106.61 413.19 989.55 558.46 974.96 699.32 1132.99 658.51
00032741 00000089 818.60 151.82 513.71 708.47 906.22 457.05 1104.84 411.03 988.09 553.65 975.27 694.76 1129.17 655.37
00032742 00000090 817.42 148.40 511.63 714.92 906.45 449.37 1101.40 405.51 986.24 548.81 974.19 692.79 1128.32 655.08
00032743 00000091 815.62 142.41 512.16 724.86 901.88 449.11 1095.68 403.22 979.13 548.00 968.22 695.92 1121.96 656.35
00032744 00000092 811.79 143.15 516.08 725.02 896.73 453.32 1092.11 404.50 973.28 550.77 965.72 701.62 1119.41 659.67
00032745 00000093 803.33 152.51 516.84 724.33 895.45 464.10 1088.79 417.21 973.97 564.69 970.04 714.52 1121.64 672.85
00032746 00000094 798.26 155.86 516.82 734.29 889.58 477.44 1088.98 423.53 977.55 581.12 974.08 731.95 1124.77 684.87
00032747 DELETE   800.36 153.80 512.30 754.47 892.34 497.06 1089.59 445.78 978.26 604.73 972.47 751.47 1126.52 707.28
00032748 DELETE   787.48 159.99 518.42 764.11 890.66 520.84 1088.25 468.79 982.12 640.11 975.06 771.73 1130.41 727.02
00032749 00000097 784.60 183.64 514.63 745.96 879.18 530.27 1086.26 481.89 982.01 645.86 968.01 775.04 1131.50 735.15
00032750 00000098 784.52 176.17 497.80 761.63 879.89 528.55 1078.99 478.88 979.18 647.84 969.85 780.90 1129.08 736.59
00032751 00000099 788.52 167.39 494.26 770.49 876.22 529.10 1075.76 475.35 975.08 646.52 968.14 784.18 1129.83 736.32
00032752 00000100 786.18 177.78 501.56 763.47 880.89 531.35 1068.12 479.89 967.20 655.38 967.66 786.26 1122.73 741.18
00032753 00000101 794.52 175.96 505.85 742.66 887.32 521.73 1076.10 476.17 971.34 645.41 969.38 773.57 1119.32 734.09
00032754 00000102 804.74 168.35 502.96 750.80 896.70 512.88 1090.07 470.54 979.28 633.34 974.40 762.55 1128.38 725.68
00032755 00000103 805.94 165.04 511.94 736.67 903.30 501.91 1102.45 464.12 989.99 624.70 981.44 748.75 1131.91 715.61
00032756 00000104 811.60 160.27 508.05 735.87 905.42 503.45 1109.36 455.52 996.71 622.60 981.89 745.32 1146.99 704.39
00032757 00000105 825.17 157.71 507.41 740.25 915.96 493.50 1117.19 449.80 1001.90 604.82 984.24 731.32 1150.01 693.98
00032758 00000106 826.20 161.66 514.10 730.04 919.56 473.72 1120.40 427.84 1007.18 584.17 992.07 721.98 1155.30 682.00
00032759 00000107 831.38 158.66 518.85 729.54 926.14 468.25 1128.00 422.05 1013.79 573.99 999.48 719.14 1161.65 678.78
00032760 00000108 835.10 159.58 511.63 727.82 928.85 464.69 1128.35 420.67 1014.57 569.47 999.83 715.40 1158.31 677.27
00032761 00000109 838.94 154.36 509.55 731.29 928.62 462.84 1127.93 420.06 1011.92 570.22 999.39 715.32 1156.12 678.32
00032762 00000110 838.75 153.23 509.61 731.75 927.76 464.69 1126.83 421.23 1011.17 571.54 998.40 716.92 1153.97 679.49
00032763 00000111 838.35 157.82 509.47 728.29 925.72 467.32 1125.44 423.57 1008.80 576.24 997.37 718.60 1155.07 680.87
00032764 00000112 832.96 155.28 513.29 734.20 923.82 469.44 1125.54 426.47 1009.02 578.34 994.75 721.54 1152.55 684.42
00032765 00000113 828.63 159.72 515.34 729.90 920.15 472.13 1122.80 427.11 1007.09 580.11 991.78 724.08 1150.32 685.26
00032766 00000114 826.63 158.21 516.84 734.20 918.81 472.20 1122.57 427.16 1006.18 582.12 991.96 726.10 1148.70 687.30
00032767 00000115 823.76 156.24 521.55 737.52 917.67 472.22 1122.17 427.91 1005.97 584.35 991.46 728.26 1148.62 689.92
00032768 00000116 829.94 160.77 518.34 731.42 918.78 475.09 1123.74 431.62 1003.96 587.88 989.26 729.02 1147.98 691.60
00032769 00000117 829.64 158.93 519.10 735.54 918.01 477.81 1123.16 433.73 1003.24 590.53 989.00 730.49 1149.07 692.54
00032770 00000118 830.28 160.11 516.83 730.63 917.39 480.63 1122.54 435.90 1002.74 591.71 987.77 729.99 1148.73 691.55
00032771 00000119 830.27 161.60 516.31 729.58 917.38 480.16 1122.94 435.24 1003.51 591.79 988.39 729.78 1149.68 691.19
00032772 00000120 829.88 160.37 517.46 730.11 918.30 478.61 1123.69 435.53 1004.13 590.28 989.20 728.11 1149.40 691.12
00032773 00000121 830.38 163.51 514.28 722.85 918.92 476.86 1121.73 432.01 1004.88 588.21 991.71 727.40 1149.25 688.70
00032774 00000122 832.23 157.45 515.09 730.51 921.95 476.62 1123.31 431.72 1006.14 585.70 993.48 727.24 1150.28 688.57
00032775 00000123 831.58 160.22 517.80 727.42 922.72 477.30 1123.99 430.86 1008.23 585.23 997.07 730.63 1152.13 690.55
00032776 00000124 833.03 156.13 518.30 732.07 924.79 477.74 1125.14 431.86 1009.03 585.57 998.47 731.48 1152.74 691.85
00032777 00000125 832.52 153.87 515.68 735.42 926.83 477.58 1128.96 432.99 1011.78 585.17 998.95 730.40 1155.33 691.85
00032778 00000126 836.86 154.93 516.72 734.29 928.44 477.36 1130.70 431.12 1011.99 584.02 1002.12 731.08 1158.15 691.07
00032779 00000127 838.09 157.52 513.76 733.20 929.52 477.07 1130.57 429.49 1013.86 582.16 1004.07 730.60 1159.82 689.28
00032780 00000128 839.66 156.40 513.97 734.18 929.67 476.07 1130.15 429.47 1011.83 582.51 1003.41 729.75 1159.58 689.30
00032781 00000129 837.21 153.12 514.87 737.42 928.03 475.21 1129.11 430.60 1010.03 583.04 999.83 728.34 1155.77 689.75
00032782 00000130 837.72 152.29 515.55 739.05 928.67 475.08 1128.67 429.91 1009.25 583.48 1000.27 730.00 1155.51 691.10
00032783 00000131 837.73 154.03 514.56 735.42 928.17 475.38 1130.68 430.14 1012.00 584.49 1002.04 730.86 1157.26 691.80
00032784 00000132 838.28 157.01 513.61 731.79 930.76 476.36 1132.01 429.63 1015.93 582.08 1006.02 730.63 1159.89 690.13
00032785 00000133 841.85 154.06 509.97 733.93 931.87 475.60 1132.74 429.00 1015.95 580.38 1005.89 729.15 1161.47 688.68
00032786 00000134 843.99 158.61 505.19 729.55 932.24 472.60 1132.44 427.94 1014.13 579.80 1004.91 726.56 1159.17 687.89
00032787 00000135 841.88 157.35 507.25 731.97 931.14 469.88 1132.03 425.95 1015.05 578.41 1004.89 725.25 1159.33 687.16
00032788 00000136 843.84 144.98 506.74 745.51 933.08 469.18 1135.38 424.03 1017.34 575.97 1005.37 723.62 1162.79 684.48
00032789 00000137 842.33 151.86 513.33 739.39 936.90 469.00 1136.57 425.17 1021.41 573.60 1007.29 720.08 1164.70 681.98
00032790 00000138 844.88 151.84 506.11 734.25 937.17 469.51 1137.99 427.29 1021.49 574.71 1003.95 715.01 1165.51 678.31
00032791 00000139 841.55 159.99 506.95 713.04 930.26 466.96 1133.78 426.94 1016.62 575.26 994.39 705.15 1160.83 671.29
00032792 00000140 835.73 156.89 504.72 715.63 918.29 470.58 1120.23 433.21 999.79 580.72 979.52 705.70 1141.95 674.32
00032793 00000141 827.69 166.41 511.17 708.32 912.70 476.14 1114.41 446.92 992.31 597.61 972.58 719.45 1127.96 695.01
00032794 DELETE   822.57 151.72 510.24 753.88 915.85 484.09 1122.96 452.70 1001.70 610.54 977.23 736.04 1140.12 709.53
00032795 DELETE   818.82 152.58 522.35 765.52 928.83 495.97 1141.93 462.75 1024.80 613.68 996.17 743.48 1161.52 714.51
CROP_BBOX: 570 0 1775 1080
