Video ID: 	5tHZ2EphL8E
H: 	1080
W: 	1920
FPS: 	25.0

FRAME INDEX X0 Y0 W H [Landmarks (5 Points)]

00008760 00000000 333.99 117.17 470.78 633.46 482.89 322.74 703.56 335.27 618.22 421.92 489.23 562.00 678.90 571.42
00008761 00000001 334.16 118.20 471.62 639.65 483.19 322.69 701.12 336.27 615.37 423.45 489.66 567.75 672.07 577.96
00008762 00000002 334.18 129.33 469.94 637.92 485.18 329.86 700.44 343.68 612.30 435.38 491.22 577.21 669.42 587.20
00008763 00000003 337.93 124.14 466.15 649.33 490.07 341.47 704.71 354.35 614.29 449.94 496.03 588.10 668.77 597.38
00008764 00000004 343.47 125.70 459.41 658.93 495.39 350.22 710.93 362.78 619.25 466.41 503.55 606.02 673.90 615.30
00008765 DELETE   341.45 138.83 463.41 662.44 503.59 370.49 716.87 389.18 624.14 489.77 501.34 613.12 681.27 628.52
00008766 DELETE   338.19 156.26 468.56 667.73 507.26 387.48 716.02 400.38 628.32 520.03 505.68 637.34 677.49 648.62
00008767 DELETE   346.88 156.62 461.82 677.62 508.71 401.15 722.98 415.05 634.20 532.84 506.00 649.02 685.72 661.05
00008768 00000008 350.27 150.01 462.22 698.94 513.36 406.08 730.00 424.32 640.77 540.01 507.54 659.12 688.92 674.86
00008769 00000009 355.16 152.97 463.39 699.07 515.94 397.39 736.11 413.54 647.06 534.04 511.23 660.99 694.51 675.22
00008770 DELETE   354.71 146.44 460.96 704.12 526.02 373.89 737.88 395.69 653.82 516.01 518.43 645.37 686.21 663.08
00008771 DELETE   354.78 128.52 461.23 700.87 524.92 347.49 734.00 368.42 652.14 488.39 515.18 624.83 689.63 642.24
00008772 00000012 357.22 129.46 456.21 681.86 519.23 333.21 734.45 357.94 651.06 461.76 510.53 606.54 691.91 627.27
00008773 00000013 351.22 128.19 460.78 675.46 515.78 328.91 733.40 354.40 649.42 453.27 508.63 595.38 692.69 616.16
00008774 00000014 345.64 130.28 463.31 670.19 512.96 332.03 729.61 356.11 646.29 453.85 507.31 594.15 691.10 613.69
00008775 00000015 348.23 129.17 456.91 674.10 510.49 335.53 726.32 357.44 641.89 457.53 507.15 599.09 690.47 616.96
00008776 00000016 346.71 137.66 456.80 667.38 509.65 344.56 723.41 362.76 640.95 464.45 506.35 603.64 690.96 618.65
00008777 00000017 346.23 129.33 456.31 673.96 512.26 348.62 723.97 367.78 640.48 469.51 507.07 604.12 688.52 619.78
00008778 00000018 346.55 128.68 454.14 669.11 508.75 346.54 720.94 364.39 636.52 465.29 506.46 599.53 688.20 613.81
00008779 00000019 344.49 130.67 455.60 660.73 504.41 342.99 718.54 359.67 634.10 457.57 505.32 594.25 687.82 607.40
00008780 00000020 344.32 130.51 455.17 658.95 504.42 339.90 717.75 356.23 633.67 456.17 505.39 592.01 686.75 604.83
00008781 00000021 346.69 135.32 453.54 655.59 503.74 342.79 715.92 357.17 631.20 461.21 504.62 595.01 685.36 606.41
00008782 00000022 345.82 135.61 455.38 657.51 502.89 344.85 716.72 359.55 630.98 467.20 505.18 599.68 685.73 611.32
00008783 00000023 344.41 138.55 457.55 654.85 501.60 344.74 716.71 360.59 629.16 469.36 503.84 600.40 683.94 613.00
00008784 00000024 343.21 135.76 458.11 657.29 499.90 344.45 715.14 359.61 627.65 467.83 502.93 600.31 682.84 612.24
00008785 00000025 342.77 135.39 457.52 655.94 498.76 343.70 713.81 358.21 626.78 466.55 502.09 599.33 681.86 610.67
00008786 00000026 344.14 139.15 454.58 650.23 497.24 343.24 712.30 355.83 625.86 464.07 502.80 598.95 681.43 608.70
00008787 00000027 343.27 137.37 459.91 654.84 492.61 346.75 711.42 357.02 624.57 466.38 499.59 601.41 683.98 609.37
00008788 00000028 343.05 140.22 460.21 651.16 492.32 346.18 711.49 356.33 624.01 466.67 499.40 601.14 684.03 608.99
00008789 00000029 342.62 137.36 460.09 653.88 492.42 346.53 710.80 356.63 624.04 465.22 499.35 600.79 683.59 608.55
00008790 00000030 341.91 139.35 460.70 650.80 491.09 346.58 710.25 356.30 623.20 464.36 498.91 601.02 683.12 608.43
00008791 00000031 341.45 136.60 461.19 653.77 490.14 346.00 708.95 355.81 622.83 462.25 498.60 601.27 681.89 608.69
00008792 00000032 340.35 135.58 461.73 654.18 489.93 345.20 708.55 355.23 622.92 461.46 498.82 601.11 681.27 608.63
00008793 00000033 340.47 136.67 459.47 654.78 488.93 344.91 706.64 354.31 621.26 461.32 498.02 602.44 679.52 609.34
00008794 00000034 338.93 134.86 460.86 657.11 488.87 345.13 705.93 354.31 621.42 461.27 497.79 602.62 678.94 609.36
00008795 00000035 339.18 136.92 460.82 657.42 489.04 344.09 705.65 353.46 620.88 461.37 497.83 603.59 678.13 610.43
00008796 00000036 339.13 139.52 461.10 657.59 488.70 342.47 706.52 352.39 621.17 458.09 497.38 603.52 679.01 610.76
00008797 00000037 337.14 133.29 462.83 668.22 488.97 339.23 706.96 351.08 620.69 454.21 495.85 602.13 678.54 610.80
00008798 00000038 335.30 133.76 465.15 668.83 490.04 338.48 707.40 350.77 621.57 454.27 495.96 600.54 678.31 609.59
00008799 00000039 333.28 123.32 466.09 677.73 488.85 336.23 706.09 347.53 621.02 451.86 496.02 598.50 678.11 606.32
00008800 00000040 334.33 118.23 465.13 661.83 487.71 336.48 705.55 345.28 621.95 449.55 501.54 591.86 677.99 597.47
00008801 00000041 335.99 116.77 466.41 660.81 488.22 333.19 706.70 341.83 621.59 446.86 500.90 585.21 681.58 590.98
00008802 00000042 336.69 114.10 469.07 650.92 490.97 330.15 705.32 335.24 622.08 441.07 508.59 577.61 680.69 580.32
00008803 00000043 339.05 109.87 468.33 645.88 496.07 327.02 705.56 329.94 622.82 437.83 514.50 569.31 682.00 570.48
00008804 00000044 342.34 112.43 467.28 634.46 498.95 323.62 708.48 325.44 627.41 432.90 519.42 559.56 690.71 559.71
00008805 00000045 342.40 96.42 465.19 642.13 500.10 320.57 709.16 327.36 621.71 424.80 521.16 555.46 694.75 560.64
00008806 00000046 343.56 94.44 465.16 642.70 503.36 319.10 710.13 325.88 624.43 423.82 524.96 553.97 696.08 559.21
00008807 00000047 342.44 100.32 467.44 649.33 507.68 320.48 709.32 327.96 627.23 423.03 531.66 562.30 690.08 568.36
00008808 00000048 348.25 120.96 453.47 645.39 509.57 311.43 708.86 322.58 632.79 416.45 535.49 565.95 680.39 574.31
00008809 00000049 350.71 124.65 450.52 645.02 511.14 301.46 713.61 315.59 637.20 413.05 536.83 569.57 680.49 580.45
00008810 00000050 350.65 119.84 452.83 648.57 513.57 299.32 715.52 313.14 639.85 409.04 539.08 567.36 680.82 578.07
00008811 00000051 350.68 118.75 453.68 649.23 516.83 296.03 718.07 311.39 643.58 405.27 542.37 566.44 680.57 578.57
00008812 00000052 353.59 117.01 455.75 648.72 520.84 297.16 722.69 311.59 646.72 407.28 544.73 565.66 683.83 577.05
00008813 00000053 352.78 104.29 460.07 657.72 523.57 301.45 725.98 315.10 649.31 410.52 547.59 561.26 690.94 571.34
00008814 00000054 359.21 101.97 462.10 648.91 526.84 304.49 732.52 316.76 653.92 414.62 551.87 555.67 702.73 564.14
00008815 00000055 367.08 107.15 459.13 632.83 531.20 304.12 736.44 314.63 657.60 410.91 558.33 549.96 708.34 557.22
00008816 00000056 368.33 106.06 461.80 634.50 533.87 297.00 738.44 309.20 660.55 407.43 559.91 546.14 710.64 554.90
00008817 00000057 372.00 105.87 460.23 629.22 535.06 297.57 738.08 308.23 661.10 403.83 563.93 542.78 713.45 550.24
00008818 00000058 373.32 108.66 458.85 622.11 536.25 298.59 740.12 309.36 662.64 404.97 562.69 538.56 717.13 545.94
00008819 00000059 374.29 107.29 456.95 619.95 537.94 301.42 740.08 310.13 664.09 406.19 565.28 537.37 720.16 542.85
00008820 00000060 374.98 93.36 453.85 625.35 535.93 302.51 742.68 315.64 665.27 407.21 555.15 539.77 721.20 550.18
00008821 00000061 369.38 91.49 458.92 630.84 533.65 305.44 741.84 318.22 665.14 410.09 553.22 543.20 720.11 553.34
00008822 00000062 369.17 107.51 461.38 630.19 536.46 304.83 741.74 316.31 664.08 412.31 563.32 545.70 717.55 553.13
00008823 00000063 368.26 108.28 460.50 631.33 536.83 309.03 740.94 320.68 664.52 417.42 562.52 549.42 717.63 556.90
00008824 00000064 368.97 108.68 458.54 630.12 536.04 311.15 739.63 322.91 662.45 418.53 561.92 549.97 715.86 557.50
00008825 00000065 368.31 98.18 457.66 637.07 530.76 315.49 737.56 328.07 661.80 419.48 552.55 555.32 717.51 565.78
00008826 00000066 366.36 108.53 461.25 636.45 532.67 313.43 740.21 325.73 660.74 421.47 558.12 555.23 713.81 563.17
00008827 00000067 366.59 96.59 460.36 642.61 529.99 317.42 738.35 329.38 661.43 421.02 552.20 559.24 716.81 569.21
00008828 00000068 367.79 96.56 458.31 639.14 529.44 317.05 739.58 328.23 661.03 419.69 551.39 557.52 718.16 566.88
00008829 00000069 368.66 93.82 459.01 640.73 532.38 315.56 742.19 327.60 664.10 419.14 554.67 554.83 722.85 564.52
00008830 00000070 372.72 96.20 456.43 640.57 534.02 316.60 744.00 327.80 665.97 422.06 554.70 554.56 727.12 563.44
00008831 00000071 370.75 92.50 460.95 647.98 536.56 321.25 743.08 332.12 666.99 428.53 558.98 559.09 727.42 567.55
00008832 00000072 366.93 109.10 465.34 649.61 539.48 328.55 745.83 335.69 670.38 439.63 566.60 566.62 727.61 569.29
00008833 00000073 368.05 119.93 461.14 650.11 541.92 332.84 744.12 338.29 673.55 451.49 571.15 582.46 724.15 583.83
00008834 00000074 368.42 120.32 459.32 659.94 541.11 336.14 743.79 344.09 674.37 458.08 565.49 593.06 720.26 597.41
00008835 00000075 372.49 119.70 453.65 666.50 540.58 334.18 744.66 343.71 676.95 456.95 564.81 599.06 720.90 604.99
00008836 00000076 370.31 122.43 454.15 664.18 539.72 333.61 743.89 344.06 676.38 456.91 562.46 598.73 720.00 605.56
00008837 00000077 367.25 122.25 453.84 664.07 536.39 333.80 741.95 345.77 676.20 454.52 558.83 598.09 719.74 606.36
00008838 00000078 366.49 116.31 454.94 670.72 536.18 336.38 744.37 350.08 676.26 459.22 556.63 601.96 718.94 611.72
00008839 00000079 366.34 120.02 454.29 667.71 534.92 337.95 742.92 350.48 675.31 462.38 554.65 603.80 719.27 612.70
00008840 00000080 367.54 120.41 452.70 665.42 532.37 339.65 744.22 351.84 674.92 465.06 553.30 603.72 722.76 612.11
00008841 00000081 367.45 119.95 451.51 663.99 531.71 340.33 744.22 352.79 675.20 464.67 552.20 601.98 724.00 610.53
00008842 00000082 367.67 118.63 451.20 665.01 530.54 341.15 745.52 352.69 676.09 465.85 551.17 602.36 726.32 610.08
00008843 00000083 364.34 112.55 455.73 671.04 532.20 343.88 747.98 355.90 677.01 470.85 550.96 602.51 727.19 610.36
00008844 00000084 366.95 119.49 454.85 667.30 535.09 350.49 747.88 360.83 677.96 480.00 552.69 607.27 726.08 613.96
00008845 00000085 365.69 121.46 456.81 675.03 537.75 356.79 751.56 368.10 680.59 490.48 551.83 614.33 728.52 621.86
00008846 00000086 365.12 121.18 460.97 687.20 538.26 362.59 751.82 375.37 680.54 497.22 552.09 622.97 729.15 631.51
00008847 00000087 367.80 117.98 459.93 696.83 544.17 368.86 753.56 382.68 685.76 506.86 552.67 629.49 726.53 639.23
00008848 00000088 362.30 123.76 467.71 699.26 546.80 374.60 754.28 388.87 687.60 519.22 553.63 637.48 726.01 647.73
00008849 00000089 360.18 134.63 469.45 691.64 546.10 383.88 750.64 393.52 682.68 528.74 554.96 644.47 723.21 651.16
00008850 00000090 361.40 141.82 469.79 692.72 541.99 389.93 750.04 395.39 683.41 536.52 555.07 654.98 726.16 658.80
00008851 00000091 360.84 164.75 465.77 680.14 543.54 393.12 755.75 403.56 681.63 545.81 556.10 661.25 719.90 667.58
00008852 00000092 362.17 152.37 467.79 690.27 541.89 401.41 750.72 408.04 684.16 550.27 554.54 666.09 722.26 671.87
00008853 00000093 362.08 153.07 467.02 689.24 543.80 404.49 750.67 412.43 684.07 555.21 554.79 668.08 717.99 675.23
00008854 00000094 361.36 151.87 467.31 687.86 541.67 402.24 749.41 409.27 681.84 553.68 552.81 666.44 717.60 672.86
00008855 00000095 359.69 149.80 468.54 690.27 538.77 398.56 748.87 404.75 681.02 549.14 551.76 664.60 721.27 669.97
00008856 00000096 360.56 149.38 465.90 683.98 536.78 395.74 748.05 402.52 678.93 540.09 551.26 659.10 723.84 664.60
00008857 00000097 357.56 142.80 470.22 685.58 537.16 391.26 747.83 398.44 676.41 534.29 550.81 652.05 723.60 657.57
00008858 00000098 356.84 149.76 467.93 674.06 537.78 387.58 746.39 395.03 676.53 529.19 548.61 646.94 720.48 652.87
00008859 00000099 358.21 130.20 463.61 688.24 539.99 380.31 745.50 392.18 676.78 523.68 547.77 638.91 715.96 647.88
00008860 00000100 357.37 134.76 462.44 682.64 536.48 374.90 744.44 388.33 674.14 516.22 543.08 634.66 714.02 645.07
00008861 00000101 358.09 124.33 460.38 691.13 534.78 371.25 743.77 387.27 672.34 510.41 540.79 630.29 713.40 642.39
00008862 00000102 358.81 130.19 457.44 682.91 533.80 369.91 743.23 386.35 670.31 508.05 539.52 628.13 711.73 640.70
00008863 00000103 357.55 131.61 457.97 680.41 533.64 368.83 741.37 385.14 669.06 506.62 539.14 626.00 710.72 638.57
00008864 00000104 357.30 133.12 457.48 676.99 532.52 368.51 741.33 385.18 668.02 505.96 538.21 624.70 710.86 637.61
00008865 00000105 356.02 134.06 458.61 675.30 532.53 367.94 741.03 384.96 668.04 505.07 538.30 623.89 710.65 637.14
00008866 00000106 357.88 136.16 457.69 674.08 532.20 368.03 741.39 384.38 668.05 505.29 538.09 624.45 711.13 637.21
00008867 00000107 357.51 134.99 458.42 675.75 532.69 368.35 741.75 385.21 667.88 505.40 538.09 624.49 711.03 637.61
00008868 00000108 357.49 136.19 458.91 674.94 532.48 368.47 741.69 384.92 667.66 505.79 538.05 624.66 711.06 637.48
00008869 00000109 357.81 135.43 458.62 675.53 532.55 368.32 742.08 385.09 667.58 505.57 537.75 624.54 710.85 637.65
00008870 00000110 357.54 136.11 458.68 674.84 532.10 368.56 742.01 385.23 667.62 505.13 537.71 624.60 710.75 637.71
00008871 00000111 356.79 135.98 459.18 675.36 531.81 367.55 741.57 384.16 667.20 504.75 537.20 624.17 710.17 637.25
00008872 00000112 354.24 133.87 461.09 676.75 530.62 366.47 740.35 383.29 665.29 503.58 536.07 623.32 708.11 636.49
00008873 00000113 353.83 132.63 460.02 675.05 529.88 365.74 739.90 382.59 665.05 501.16 536.59 622.16 707.53 635.33
00008874 00000114 352.21 140.33 461.07 663.99 527.60 375.23 739.06 390.37 663.83 496.85 535.53 622.01 708.67 634.20
00008875 00000115 351.93 143.50 460.32 661.83 526.80 376.64 738.16 389.94 665.18 494.69 534.77 622.29 710.17 633.19
00008876 00000116 352.88 139.50 460.42 669.26 525.30 372.30 738.71 386.74 663.54 492.60 531.53 621.92 709.75 633.62
00008877 00000117 353.26 133.37 459.78 676.33 524.03 371.00 737.81 385.67 662.82 490.22 526.31 619.80 708.62 631.72
00008878 00000118 352.27 130.90 460.52 680.93 526.69 365.25 735.52 381.98 661.71 489.06 527.06 619.32 701.78 632.92
00008879 00000119 352.59 132.30 458.93 679.58 527.56 361.95 736.51 380.91 663.45 487.63 526.54 617.83 702.24 633.28
00008880 00000120 354.03 134.95 458.44 675.87 526.99 357.53 736.54 375.60 663.92 485.74 525.45 616.67 703.20 631.49
00008881 00000121 357.70 133.12 456.80 675.74 526.20 352.21 737.57 368.51 663.97 483.10 525.53 615.30 704.38 628.55
00008882 00000122 361.06 127.10 454.69 680.79 525.21 350.59 739.39 365.12 668.49 477.94 529.86 615.68 710.29 627.23
00008883 00000123 359.13 131.51 458.25 674.97 530.08 348.42 739.04 361.72 672.37 474.20 535.10 612.56 712.86 622.78
00008884 00000124 366.48 137.26 452.45 670.40 534.42 346.13 741.25 356.05 683.02 465.84 545.14 613.78 723.52 621.16
00008885 00000125 365.83 133.09 455.93 672.07 541.96 344.11 741.93 351.41 689.99 464.60 556.39 611.41 727.76 616.37
00008886 00000126 370.77 137.40 457.51 659.00 546.04 348.80 749.44 351.56 697.58 464.83 570.95 609.59 743.31 610.20
00008887 00000127 368.68 131.56 461.88 667.98 552.27 349.24 749.17 352.91 698.72 466.36 574.06 607.61 741.57 608.98
00008888 00000128 375.87 129.88 456.93 675.12 551.07 345.04 751.55 349.14 699.10 463.78 570.03 609.78 741.83 611.70
00008889 00000129 371.82 127.20 462.32 680.94 551.73 339.25 751.11 343.75 694.88 457.98 566.98 604.84 741.30 606.73
00008890 00000130 373.41 123.11 460.52 668.41 552.85 335.38 753.63 339.20 695.92 452.11 571.83 595.54 741.55 596.47
00008891 00000131 367.17 125.27 469.46 646.10 557.06 329.63 750.43 338.30 690.02 441.66 575.44 575.10 733.99 579.29
00008892 00000132 369.89 119.50 466.23 636.14 556.25 320.30 752.52 325.43 689.01 430.08 581.27 563.12 736.72 564.45
00008893 00000133 372.79 121.00 464.02 628.52 552.67 318.15 752.34 321.17 685.55 424.18 580.75 557.53 739.90 557.21
00008894 00000134 372.46 121.36 463.40 625.64 552.58 315.82 751.10 319.64 685.43 419.40 582.33 554.68 739.85 554.99
00008895 00000135 373.43 122.43 462.08 626.00 555.04 314.96 750.97 320.35 686.56 419.69 583.39 556.15 737.24 557.99
00008896 00000136 374.29 121.59 462.55 638.76 557.65 316.88 748.93 326.06 686.67 423.44 578.52 562.62 727.87 567.89
00008897 00000137 373.24 126.02 463.60 640.91 560.06 320.17 749.68 330.59 688.03 431.90 578.60 570.46 728.44 576.64
00008898 00000138 372.90 119.05 466.11 647.29 563.57 327.94 753.06 339.35 691.08 439.75 580.65 574.23 729.55 581.13
00008899 00000139 377.69 114.88 464.34 650.39 569.55 331.86 760.12 343.29 698.61 443.32 585.98 577.11 734.68 584.12
00008900 00000140 382.20 116.00 462.68 643.19 572.17 331.09 764.90 341.90 702.90 441.77 590.43 573.02 742.49 579.50
00008901 00000141 385.43 121.68 460.49 634.16 574.19 330.25 765.70 339.58 705.74 437.02 594.53 567.07 748.63 572.41
00008902 00000142 386.51 124.30 459.95 627.34 572.84 328.45 765.30 334.78 706.72 435.74 595.69 562.58 753.74 565.55
00008903 00000143 383.47 126.73 462.21 624.09 569.54 325.77 768.33 331.85 706.37 434.64 591.34 560.36 756.91 563.16
00008904 00000144 380.99 124.00 460.71 620.79 567.08 320.37 766.99 327.25 703.91 429.00 587.95 554.91 754.84 558.47
00008905 00000145 382.92 121.85 457.75 621.32 562.57 317.60 760.66 321.36 696.03 422.87 587.82 554.37 748.03 555.01
00008906 00000146 380.71 114.69 455.57 630.62 558.34 314.72 752.96 315.04 691.36 419.64 589.14 557.03 742.41 554.80
00008907 00000147 375.60 114.28 457.43 638.55 554.92 307.68 747.15 308.02 691.98 411.09 583.84 557.41 739.11 555.51
00008908 00000148 371.39 103.23 457.90 644.88 552.57 305.30 748.08 307.37 693.63 404.62 581.88 553.27 740.17 552.75
00008909 00000149 369.97 106.22 459.21 638.84 548.43 304.69 745.22 305.04 690.30 400.25 580.20 549.12 741.63 547.29
00008910 00000150 369.86 107.53 458.55 628.25 549.49 304.41 744.31 303.63 688.76 398.21 583.28 544.84 741.26 542.08
00008911 00000151 368.91 107.12 458.82 621.38 548.82 305.67 743.04 302.05 686.56 399.34 583.42 540.40 740.80 535.08
00008912 00000152 370.17 110.27 457.66 617.17 547.40 307.05 742.72 300.63 685.46 401.89 585.69 540.83 743.03 532.79
00008913 00000153 369.43 112.46 457.92 616.56 545.74 307.79 741.74 302.51 684.56 401.70 583.46 539.63 743.39 532.57
00008914 00000154 369.90 114.06 455.54 612.66 543.67 309.06 740.45 303.21 683.19 400.07 582.66 539.11 741.85 531.71
00008915 00000155 369.18 101.90 450.45 621.48 537.47 303.94 739.55 308.91 679.83 399.23 569.71 539.84 737.87 543.16
00008916 00000156 369.49 105.68 449.19 620.99 536.59 305.79 739.24 311.95 678.88 399.66 569.48 543.80 735.75 548.45
00008917 00000157 365.01 115.43 455.66 616.22 539.58 309.33 736.63 307.89 678.67 403.37 578.54 544.33 734.48 540.69
00008918 00000158 364.41 119.53 456.66 613.94 539.06 313.76 739.81 313.82 680.92 407.09 577.71 549.40 735.23 546.75
00008919 00000159 362.11 124.24 459.15 617.51 537.54 312.51 738.60 313.95 681.79 409.00 576.88 553.95 735.05 552.40
00008920 00000160 360.39 120.55 459.04 628.19 535.34 312.28 736.74 314.82 680.39 409.26 573.34 556.88 733.14 556.30
00008921 00000161 360.26 123.76 455.93 626.04 533.93 314.72 734.91 316.07 680.69 410.21 573.59 559.54 734.62 557.79
00008922 00000162 358.99 124.42 455.38 626.84 532.66 316.45 731.40 316.34 678.71 411.15 575.87 561.61 732.79 558.46
00008923 00000163 358.26 127.49 455.23 627.01 532.45 319.02 730.01 317.78 679.36 410.94 577.95 564.62 733.49 560.77
00008924 00000164 357.09 126.66 456.02 627.84 532.13 319.06 729.38 317.57 678.42 410.99 578.54 566.12 732.17 562.33
00008925 00000165 355.61 122.94 457.05 630.68 532.06 317.95 729.77 316.46 676.64 414.08 578.02 566.12 729.90 562.20
00008926 00000166 356.67 117.03 454.86 628.74 527.52 316.88 731.66 316.94 674.63 413.16 571.56 566.69 729.79 566.36
00008927 00000167 360.31 103.64 448.82 632.93 526.18 311.47 729.01 309.67 670.94 408.26 568.55 561.27 726.73 559.40
00008928 00000168 357.65 99.49 450.37 635.47 523.87 308.86 725.81 308.49 665.63 399.45 564.98 556.62 721.17 555.75
00008929 00000169 357.47 88.36 449.02 644.63 519.62 303.28 722.42 305.65 660.88 394.05 559.68 553.69 713.97 555.08
00008930 00000170 358.48 91.45 446.19 649.52 517.26 296.97 722.44 303.48 657.17 395.79 552.95 556.77 700.66 561.73
