Video ID: 	B8OWjAPlRYA
H: 	1080
W: 	1920
FPS: 	25.0

FRAME INDEX X0 Y0 W H [Landmarks (5 Points)]

00000572 00000000 801.65 232.31 519.15 728.97 868.13 540.29 1094.50 562.63 921.52 700.55 890.28 781.90 1088.60 798.74
00000573 00000001 806.59 234.74 513.43 720.03 872.49 539.72 1102.70 561.94 930.15 695.10 891.14 781.07 1089.01 798.43
00000574 00000002 807.79 234.00 517.13 726.31 878.56 539.92 1107.85 559.42 935.86 690.57 899.05 781.76 1097.69 796.23
00000575 00000003 811.69 235.92 513.95 728.64 882.69 540.44 1110.78 558.22 941.82 689.64 905.54 785.68 1098.41 799.29
00000576 00000004 815.75 236.05 510.40 713.40 884.54 540.26 1114.01 550.95 951.43 687.49 915.78 789.15 1098.94 797.29
00000577 00000005 816.33 237.65 508.70 702.08 884.61 539.76 1116.25 548.88 955.45 687.70 917.66 789.94 1098.95 796.76
00000578 00000006 820.14 236.11 508.55 711.61 888.79 541.44 1118.10 548.33 957.39 688.83 925.28 796.12 1099.98 801.23
00000579 00000007 820.24 240.56 510.37 708.80 889.82 546.85 1120.13 552.48 959.65 690.94 927.13 800.19 1100.69 804.27
00000580 00000008 819.42 241.56 511.85 712.88 890.09 550.35 1118.74 555.45 959.05 694.79 927.40 801.31 1103.73 804.85
00000581 00000009 819.64 240.49 509.91 719.82 889.68 552.36 1116.36 555.80 956.41 695.04 925.93 801.09 1106.97 802.95
00000582 00000010 814.07 238.95 515.05 726.70 887.55 550.53 1114.59 553.31 954.25 692.80 926.83 801.91 1109.54 802.88
00000583 00000011 810.19 240.87 511.12 710.88 880.70 544.56 1110.96 555.67 948.24 696.73 911.76 789.05 1101.09 797.23
00000584 00000012 806.25 241.59 508.89 704.63 872.90 543.42 1102.46 553.09 940.81 695.14 904.89 789.55 1090.18 796.70
00000585 00000013 801.58 236.94 509.05 714.86 865.24 540.02 1093.68 550.10 928.76 694.19 899.18 791.91 1080.90 799.28
00000586 00000014 795.87 230.51 516.49 733.99 862.65 543.41 1083.64 552.09 920.35 686.65 892.84 797.71 1065.91 804.71
00000587 DELETE   788.53 231.25 523.08 717.99 858.36 539.42 1081.10 547.79 916.97 683.13 889.53 797.64 1055.76 804.17
00000588 00000016 780.63 226.57 522.90 722.63 854.78 528.55 1085.90 539.08 917.67 677.26 882.65 791.45 1056.71 800.87
00000589 00000017 776.55 215.14 526.06 729.22 854.18 519.72 1082.38 532.48 915.83 672.04 879.61 784.47 1053.15 795.15
00000590 00000018 779.75 202.47 522.34 751.61 855.26 516.22 1077.60 521.41 911.28 659.25 879.77 781.63 1053.71 787.73
00000591 00000019 769.99 194.55 532.18 743.45 851.22 504.38 1082.63 514.20 914.29 649.35 877.67 770.36 1059.07 777.47
00000592 00000020 763.81 177.02 535.97 753.81 847.69 493.87 1083.33 502.80 914.70 636.46 869.80 755.30 1061.59 761.74
00000593 00000021 764.03 163.51 529.19 757.26 843.63 486.06 1076.14 487.00 908.39 620.06 864.15 745.04 1063.67 745.91
00000594 00000022 761.13 161.93 530.92 762.68 838.28 482.61 1076.22 473.10 907.11 606.28 864.40 744.74 1073.99 736.44
00000595 00000023 754.22 154.36 533.42 765.42 832.27 474.63 1073.72 456.41 905.94 594.50 864.78 741.46 1073.69 726.28
00000596 00000024 746.96 149.32 534.82 757.75 828.70 468.83 1062.76 448.94 902.10 593.47 866.45 729.61 1069.74 713.08
00000597 00000025 740.78 141.16 536.19 753.68 820.39 462.15 1058.78 439.21 904.33 594.49 871.64 724.51 1068.52 704.37
00000598 00000026 736.58 137.70 539.26 749.70 814.25 456.14 1052.95 430.34 897.50 587.46 867.32 721.11 1065.57 698.66
00000599 00000027 733.43 125.04 539.22 764.13 819.05 441.77 1048.13 423.40 891.49 571.37 862.38 710.69 1046.51 694.66
00000600 00000028 727.52 115.36 541.64 771.05 812.27 435.39 1041.88 413.76 883.00 555.21 857.80 708.62 1035.69 690.73
00000601 00000029 726.17 112.06 547.08 781.68 808.88 433.11 1034.26 406.24 867.16 547.66 845.97 709.68 1037.37 687.50
00000602 00000030 724.64 98.27 544.18 808.08 804.14 425.67 1032.02 400.79 867.92 536.70 850.55 707.69 1039.24 686.36
00000603 00000031 728.77 102.82 543.38 782.16 802.73 413.51 1030.53 385.57 851.63 527.00 837.81 700.98 1033.04 677.95
00000604 00000032 721.57 85.80 545.77 779.49 787.81 405.51 1026.06 374.08 845.87 517.51 824.58 692.61 1017.86 666.84
00000605 00000033 726.60 80.44 537.53 769.53 784.77 385.26 1020.94 362.03 835.41 507.74 811.63 674.66 1006.01 658.14
00000606 00000034 720.96 74.67 540.58 766.30 777.53 387.34 1003.05 360.91 820.14 500.28 809.93 667.99 989.85 647.43
00000607 00000035 717.93 63.60 544.35 771.27 775.38 378.62 997.75 352.17 815.14 492.53 808.50 661.68 984.34 641.45
00000608 00000036 713.84 64.13 546.88 764.10 768.65 371.23 992.24 342.84 809.68 485.29 802.45 656.35 980.99 634.46
00000609 00000037 708.84 57.39 547.65 765.53 760.91 371.45 985.23 341.44 801.87 482.37 793.89 651.38 977.13 627.95
00000610 00000038 707.52 58.30 549.34 767.81 757.07 371.88 980.66 342.23 795.05 484.37 790.47 655.74 971.32 632.45
00000611 00000039 707.29 59.02 545.83 781.27 757.36 372.75 980.81 337.51 790.79 482.65 793.34 664.65 973.71 638.91
00000612 00000040 718.41 66.54 544.99 781.81 770.41 376.37 988.29 347.73 801.20 494.04 801.89 660.32 986.60 639.15
00000613 00000041 720.11 77.33 549.34 774.12 772.58 389.07 996.74 362.29 806.84 501.96 803.29 664.59 992.36 644.29
00000614 00000042 724.55 79.00 557.22 785.40 782.38 403.45 1009.98 373.40 821.18 509.36 812.76 678.95 1004.36 656.14
00000615 00000043 723.68 67.64 563.93 839.63 786.48 407.91 1015.99 378.17 832.31 513.25 832.80 696.59 1028.82 671.57
00000616 00000044 734.14 84.70 557.28 822.49 796.42 415.61 1027.01 383.52 840.26 518.78 836.59 703.79 1041.37 676.06
00000617 00000045 741.91 89.79 552.80 806.31 807.05 408.45 1031.85 388.98 841.86 525.96 838.31 697.33 1038.24 681.14
00000618 00000046 741.37 86.77 559.97 799.46 807.00 411.09 1035.64 396.14 849.08 531.59 836.15 693.09 1031.56 681.69
00000619 00000047 743.86 90.99 561.57 790.49 811.74 413.68 1042.52 403.40 856.21 536.21 835.35 692.17 1023.06 685.61
00000620 00000048 745.58 97.59 563.40 788.97 817.70 418.14 1046.95 410.61 861.77 540.17 838.14 695.47 1022.80 691.08
00000621 00000049 750.23 98.97 561.81 797.32 821.19 425.10 1053.76 414.30 871.52 549.17 845.04 708.16 1030.93 701.08
00000622 00000050 756.73 106.52 556.84 807.55 825.15 436.35 1057.95 415.80 875.33 554.07 858.24 731.34 1043.41 715.27
00000623 00000051 756.50 106.01 559.71 811.07 821.11 442.40 1057.48 419.29 871.17 560.13 854.09 737.60 1050.93 719.12
00000624 00000052 752.42 98.91 563.19 815.78 814.88 443.40 1051.40 425.09 865.38 566.06 845.04 730.82 1044.40 716.42
00000625 00000053 749.55 94.10 565.92 816.74 809.96 448.60 1044.53 428.02 859.03 571.00 844.01 733.50 1041.42 717.12
00000626 00000054 745.93 101.48 570.54 811.04 805.14 451.93 1037.44 429.32 850.28 568.93 840.86 732.85 1034.65 714.79
00000627 00000055 742.48 108.82 573.89 810.47 801.13 455.05 1028.69 429.28 841.82 567.78 841.62 737.65 1026.09 716.80
00000628 00000056 740.11 110.26 576.17 812.05 799.26 458.29 1022.32 428.24 834.47 566.38 841.24 738.75 1026.45 713.98
00000629 00000057 740.58 111.27 571.97 813.44 795.71 463.44 1018.86 427.02 830.95 566.89 842.09 748.34 1023.54 718.44
00000630 00000058 740.37 115.86 570.93 813.33 795.12 473.55 1016.28 434.05 829.88 569.40 843.34 754.17 1018.88 721.96
00000631 00000059 740.66 127.39 563.45 807.95 793.53 478.07 1014.93 442.11 829.62 578.15 848.49 758.23 1020.92 728.49
00000632 00000060 751.70 132.61 553.80 811.95 803.91 488.25 1017.76 448.18 838.54 583.91 860.21 761.17 1032.67 727.51
00000633 00000061 752.57 136.96 561.45 818.46 811.65 497.90 1026.87 454.83 852.60 593.66 874.27 770.99 1047.79 734.90
00000634 00000062 765.43 148.54 557.67 804.53 818.57 500.81 1032.70 444.24 857.35 591.40 885.69 778.60 1068.61 729.40
00000635 00000063 773.29 147.48 555.28 806.29 830.59 504.31 1039.67 444.67 868.18 593.63 900.82 778.42 1077.88 726.39
00000636 00000064 772.85 143.77 554.72 801.61 829.92 499.45 1043.95 452.84 879.39 606.42 909.44 770.81 1081.86 731.03
00000637 DELETE   777.82 149.62 557.27 792.27 839.45 506.10 1053.10 454.43 890.44 606.51 920.26 773.66 1089.43 730.08
00000638 00000066 788.20 154.52 552.65 794.45 851.55 507.89 1059.46 454.97 899.56 604.65 933.61 775.24 1100.15 730.36
00000639 00000067 788.54 155.69 556.54 791.44 854.58 510.65 1065.53 453.95 909.98 608.37 943.36 780.00 1110.00 731.52
00000640 00000068 795.71 159.67 556.96 772.14 859.75 510.39 1068.49 447.56 913.93 605.71 942.03 773.03 1115.17 719.84
00000641 00000069 798.87 159.13 554.78 766.10 863.93 506.24 1071.76 448.34 918.10 602.51 938.35 761.03 1115.26 712.13
00000642 00000070 803.90 161.43 540.48 749.79 864.79 507.69 1068.69 450.90 916.20 602.67 944.35 751.44 1113.83 702.33
00000643 00000071 801.51 161.97 543.26 741.38 860.99 499.36 1067.16 441.67 914.87 592.00 933.20 745.57 1108.39 697.11
00000644 00000072 803.80 158.99 533.76 748.18 859.80 497.60 1065.73 442.51 908.18 588.12 933.81 743.58 1102.66 696.74
00000645 00000073 802.03 155.61 536.00 752.73 859.58 493.85 1066.16 440.43 907.04 583.62 932.52 746.15 1095.48 701.32
00000646 00000074 804.22 151.78 533.02 753.59 858.74 491.79 1064.34 438.40 904.22 584.52 930.54 741.47 1097.82 696.06
00000647 00000075 804.49 149.04 535.54 748.86 860.98 490.33 1065.54 437.11 906.65 580.35 930.62 736.92 1101.37 691.07
00000648 00000076 805.41 147.41 531.65 740.86 861.52 485.25 1068.79 435.71 908.62 578.68 927.23 728.82 1102.51 685.64
00000649 00000077 808.34 148.17 529.05 733.67 862.49 480.23 1069.01 432.37 907.62 573.73 925.85 727.06 1095.06 685.75
00000650 00000078 805.13 138.73 530.86 747.27 862.89 474.72 1067.46 425.43 907.48 566.44 926.96 730.51 1089.89 688.52
00000651 00000079 800.50 133.66 532.68 751.24 860.87 469.78 1068.93 418.77 909.16 561.84 926.87 731.71 1088.00 688.53
00000652 00000080 798.10 133.99 529.99 738.98 858.32 467.72 1066.89 417.56 909.26 561.51 922.03 727.18 1080.73 685.14
00000653 00000081 797.11 137.12 526.41 735.47 854.56 471.66 1064.03 420.62 906.44 561.92 915.49 727.44 1076.80 684.68
00000654 00000082 795.66 140.73 527.08 731.01 852.34 473.31 1061.01 421.28 903.79 562.33 912.94 727.90 1071.88 684.61
00000655 00000083 795.78 136.55 531.52 745.04 857.46 472.61 1050.67 420.70 896.91 559.44 914.51 722.29 1068.07 679.16
00000656 00000084 792.41 136.51 534.75 754.80 857.35 471.01 1048.05 417.81 895.83 557.66 918.00 725.07 1065.61 681.00
00000657 00000085 788.51 133.69 536.36 750.37 853.52 471.70 1059.99 414.12 905.23 554.58 920.79 731.63 1073.31 684.17
00000658 00000086 789.48 132.60 536.45 750.02 854.55 469.42 1059.95 409.99 906.33 548.65 922.74 729.67 1075.60 680.33
00000659 00000087 794.39 130.81 534.79 740.98 854.24 466.16 1061.30 407.36 904.02 548.04 919.76 722.61 1082.91 673.23
00000660 00000088 800.23 125.75 532.72 743.12 858.72 463.72 1064.90 406.93 906.84 546.71 922.50 712.73 1092.54 664.70
00000661 00000089 809.75 124.37 530.13 742.59 868.39 457.69 1072.42 406.99 911.72 543.83 925.72 705.28 1097.68 662.28
00000662 00000090 815.66 123.61 529.33 740.21 873.30 454.24 1077.32 404.97 915.78 539.81 926.77 700.87 1098.40 659.42
00000663 00000091 818.50 121.84 527.74 738.99 876.43 448.50 1080.79 402.78 917.69 534.20 925.23 694.16 1096.81 655.89
00000664 00000092 819.71 116.91 528.80 735.44 877.08 440.45 1084.36 399.69 919.14 530.37 921.82 689.79 1093.42 656.22
00000665 00000093 821.29 114.56 526.77 733.17 877.54 435.04 1084.65 399.78 917.81 528.30 917.43 686.14 1085.78 657.28
00000666 00000094 821.20 114.91 525.10 737.72 878.42 431.41 1086.91 398.23 919.02 525.76 915.36 685.98 1084.03 659.05
00000667 00000095 822.75 107.41 519.83 759.09 877.74 426.78 1089.44 398.53 917.28 520.35 918.63 687.18 1089.96 663.59
00000668 00000096 822.24 105.19 521.75 770.96 877.14 421.16 1089.26 395.24 914.61 518.42 915.28 681.86 1098.40 659.44
00000669 00000097 820.84 110.82 524.39 753.39 882.07 419.26 1096.00 391.12 920.86 514.30 911.51 678.93 1098.28 655.06
00000670 00000098 826.23 104.76 516.84 755.35 882.38 401.47 1099.06 386.03 913.76 512.58 904.46 666.64 1096.67 654.92
00000671 00000099 824.36 103.98 519.87 759.86 891.27 407.26 1108.58 389.35 932.82 511.93 913.19 669.92 1108.86 654.73
00000672 00000100 825.82 105.67 518.87 767.05 893.07 407.39 1113.08 389.84 937.18 512.80 914.89 674.00 1115.29 658.81
00000673 00000101 825.27 106.66 523.31 765.56 891.65 412.20 1115.67 396.93 939.02 523.89 914.24 676.63 1122.29 663.20
00000674 00000102 827.05 109.17 524.01 745.26 895.71 415.77 1118.30 405.08 945.72 531.61 915.83 672.21 1113.11 663.43
00000675 00000103 824.95 112.87 526.41 744.80 894.24 420.34 1117.58 409.10 945.94 539.46 918.85 679.08 1111.24 670.09
00000676 00000104 822.01 113.08 528.94 753.12 890.25 425.01 1116.06 412.45 944.15 545.56 917.52 687.79 1112.06 677.31
00000677 00000105 819.40 116.84 535.12 747.81 887.45 427.31 1115.47 414.95 943.35 549.49 918.50 690.96 1112.74 680.49
00000678 00000106 819.28 113.84 537.57 750.95 887.33 426.09 1115.31 414.75 942.80 550.40 919.11 690.76 1114.10 681.13
00000679 00000107 820.31 108.52 542.43 764.26 888.16 425.47 1117.54 410.86 943.41 546.04 919.78 693.89 1115.01 681.91
00000680 00000108 820.29 106.48 547.56 782.98 891.84 415.28 1115.72 408.90 933.34 544.45 914.98 691.86 1121.31 686.39
00000681 00000109 823.56 103.12 546.51 793.30 893.55 408.77 1118.82 403.62 931.90 537.81 913.88 689.37 1124.08 684.96
00000682 00000110 827.43 88.98 547.03 784.76 892.49 404.67 1120.93 393.62 935.26 527.63 918.23 684.89 1115.98 676.61
00000683 00000111 828.14 76.73 551.51 784.84 891.28 398.11 1124.03 387.65 940.01 521.88 916.78 678.50 1111.09 670.70
00000684 00000112 833.48 72.50 549.07 776.22 897.09 390.18 1128.33 384.80 943.52 515.07 917.54 665.08 1109.74 661.79
00000685 00000113 843.16 73.29 540.07 769.64 901.39 385.55 1131.88 378.20 942.66 509.19 922.55 657.08 1112.01 653.43
00000686 00000114 847.85 72.58 539.17 777.91 905.62 385.36 1135.72 378.28 944.38 507.84 923.76 660.63 1112.18 657.41
00000687 00000115 849.64 70.65 538.01 787.52 907.49 384.91 1136.67 378.38 943.42 509.38 926.05 666.73 1116.30 663.38
00000688 00000116 846.85 70.83 539.30 782.04 905.22 385.20 1133.19 378.44 941.50 508.96 925.35 664.61 1114.55 661.02
00000689 00000117 845.49 75.11 536.79 769.36 901.35 386.12 1128.98 378.16 938.91 507.38 919.79 660.50 1106.84 656.52
00000690 00000118 842.36 75.64 536.04 765.40 897.80 388.38 1122.94 378.30 936.20 508.37 919.18 660.75 1104.98 655.17
00000691 00000119 841.06 78.00 539.62 768.46 898.15 391.37 1124.25 383.14 936.19 513.78 919.88 665.23 1107.68 660.69
00000692 00000120 840.81 82.73 540.49 775.07 903.88 393.02 1124.93 385.87 938.40 514.71 927.21 670.03 1107.93 666.09
00000693 00000121 843.38 87.29 540.56 776.38 905.83 397.96 1126.34 387.80 939.57 516.92 930.23 677.25 1109.96 670.62
00000694 00000122 843.69 91.02 543.74 775.36 905.90 402.01 1127.31 389.36 939.69 517.13 930.00 682.19 1107.30 673.68
CROP_BBOX: 435 0 1741 1080
