Video ID: 	wtALXV7bLX0
H: 	1080
W: 	1920
FPS: 	25.0

FRAME INDEX X0 Y0 W H [Landmarks (5 Points)]

00006761 00000000 346.19 216.01 432.62 661.69 442.26 498.90 650.55 478.61 553.38 637.74 491.12 723.99 673.21 705.08
00006762 00000001 349.69 221.85 429.56 659.68 445.35 507.72 653.01 486.85 558.04 647.66 491.96 727.28 677.49 708.00
00006763 00000002 351.55 227.16 431.79 665.22 449.60 515.83 658.12 495.09 563.62 657.15 493.65 732.75 683.68 713.57
00006764 00000003 351.11 232.61 434.69 677.15 450.58 522.44 657.47 504.11 562.35 665.50 495.51 743.35 682.25 725.97
00006765 00000004 347.73 232.47 432.99 680.81 447.66 523.96 654.72 506.03 560.74 669.47 492.33 747.11 678.84 730.25
00006766 00000005 341.35 231.06 433.67 677.77 436.60 523.97 648.12 504.31 551.90 672.85 484.12 746.81 674.34 728.62
00006767 00000006 330.84 224.95 439.19 675.12 423.16 522.69 634.72 500.17 535.83 671.65 475.04 742.31 665.81 721.96
00006768 00000007 322.95 222.19 441.08 672.54 414.56 518.95 624.75 496.73 524.37 666.64 467.66 736.86 658.84 716.92
00006769 00000008 322.10 217.99 440.58 669.61 414.01 517.17 618.89 491.21 522.26 659.18 468.58 731.45 656.67 708.31
00006770 00000009 328.44 222.87 441.79 667.87 420.39 516.34 626.95 487.87 533.35 655.09 474.56 729.19 666.43 704.16
00006771 DELETE   342.96 226.96 435.27 666.75 435.24 516.12 641.22 489.03 548.81 655.87 485.74 729.50 678.36 705.34
00006772 00000011 354.62 231.58 436.98 663.40 453.05 518.69 658.24 495.61 564.44 653.72 495.70 728.51 687.32 707.51
00006773 DELETE   368.01 216.86 438.94 669.76 462.59 508.91 672.53 488.49 578.10 648.91 511.08 722.34 705.88 704.13
00006774 00000013 376.82 215.06 434.69 672.04 473.99 508.99 684.80 489.13 588.77 647.14 516.67 722.14 713.31 704.77
00006775 00000014 379.29 212.98 437.67 676.78 482.39 510.45 696.87 492.69 600.69 654.79 519.90 721.50 720.97 706.31
00006776 00000015 382.01 216.78 439.53 677.29 486.65 513.52 703.42 495.14 607.40 659.72 523.28 725.24 726.88 709.58
00006777 00000016 383.39 218.62 440.91 680.15 488.80 517.61 707.61 499.27 610.43 666.77 523.89 729.84 729.37 714.31
00006778 00000017 384.15 222.15 442.04 682.91 489.53 522.56 709.32 504.99 610.37 672.38 523.58 736.13 728.84 721.53
00006779 00000018 388.44 229.47 437.15 680.88 491.28 525.59 709.28 509.62 609.62 675.71 522.12 738.49 728.06 725.39
00006780 00000019 387.62 229.85 437.16 681.42 491.66 526.15 708.46 510.23 610.20 674.81 522.41 738.43 727.56 725.30
00006781 00000020 385.56 227.44 440.43 678.18 491.46 522.75 707.77 505.78 611.27 669.46 524.68 735.08 727.38 720.96
00006782 00000021 384.02 221.12 442.02 676.32 492.55 515.33 708.74 497.85 613.82 661.03 526.53 728.03 728.33 713.28
00006783 00000022 386.60 212.66 441.14 679.48 496.55 508.69 711.82 492.89 616.46 650.06 528.03 723.63 728.07 710.14
00006784 00000023 390.76 208.17 441.34 685.50 502.53 504.79 719.03 492.65 621.08 647.38 530.75 723.18 731.07 712.63
00006785 00000024 393.36 208.74 442.35 687.34 507.21 505.16 725.69 496.81 625.78 650.19 533.37 724.86 733.98 717.13
00006786 00000025 397.05 213.97 440.55 684.43 511.49 506.23 730.42 501.46 629.35 653.86 534.60 726.66 734.95 721.93
00006787 00000026 399.14 213.68 439.03 682.08 514.03 504.48 732.00 501.11 631.24 653.55 536.93 726.02 734.85 722.44
00006788 00000027 401.42 212.17 439.33 679.33 515.87 501.74 732.60 499.10 631.36 649.43 539.15 723.03 735.58 719.83
00006789 00000028 402.33 209.41 440.99 673.19 515.23 497.44 732.13 495.38 629.91 643.63 540.51 720.13 733.13 717.39
00006790 00000029 400.70 208.35 442.22 674.01 511.32 493.78 727.62 492.42 624.52 643.33 538.76 721.22 726.99 719.03
00006791 00000030 402.68 206.86 437.14 671.56 508.60 493.45 723.36 492.91 619.00 637.99 534.87 718.42 721.19 716.98
00006792 00000031 401.64 204.16 435.75 673.61 508.57 483.88 715.19 482.66 614.08 621.43 534.88 714.21 712.59 711.98
00006793 00000032 399.59 199.36 431.29 662.03 504.08 474.56 703.87 470.80 606.27 608.59 529.93 697.01 708.17 692.74
00006794 DELETE   396.45 183.79 435.89 664.37 496.02 456.95 706.79 456.46 598.24 596.19 522.73 683.89 705.51 682.17
00006795 00000034 396.99 176.15 435.08 661.77 493.08 447.90 702.05 447.15 591.37 583.52 518.09 670.80 702.35 668.96
00006796 00000035 396.63 175.29 432.35 654.89 491.81 442.42 695.97 444.43 584.15 575.81 513.18 663.50 692.66 664.28
00006797 00000036 397.64 172.19 428.58 662.24 489.86 433.61 690.44 440.01 574.95 568.46 507.17 662.69 679.54 667.63
00006798 00000037 398.85 169.51 424.40 661.84 487.34 426.13 685.09 436.44 565.51 557.11 502.08 662.57 664.51 671.12
00006799 00000038 396.07 169.20 426.95 661.67 480.12 424.47 680.23 437.72 553.60 556.59 489.14 661.52 656.02 672.36
00006800 00000039 394.48 173.58 427.63 664.58 475.86 427.26 676.75 443.69 543.33 564.03 482.94 669.37 648.37 683.03
00006801 00000040 395.28 180.91 426.93 670.78 474.23 436.71 673.30 454.15 536.69 577.78 484.13 685.10 643.01 699.29
00006802 00000041 392.46 187.33 425.91 670.91 468.55 444.29 668.71 462.85 532.95 590.73 479.52 694.60 636.59 709.69
00006803 00000042 386.34 189.24 428.80 668.08 462.30 450.63 660.89 468.40 524.28 594.84 472.98 693.43 630.48 708.31
00006804 00000043 382.92 192.63 427.17 669.40 454.96 454.21 651.76 471.68 515.15 599.29 467.39 691.82 627.82 706.54
00006805 00000044 381.05 193.51 427.46 666.78 451.01 465.24 642.89 478.16 505.20 600.34 462.31 693.97 622.57 705.24
00006806 00000045 378.01 196.99 429.18 665.78 447.56 469.05 640.04 482.72 501.52 604.97 456.89 694.98 621.30 706.80
00006807 00000046 378.78 197.91 428.57 673.69 447.31 470.80 640.02 484.99 498.11 609.13 455.28 699.24 621.06 711.78
00006808 00000047 381.29 199.00 428.65 681.92 449.55 469.47 642.19 485.48 496.13 609.38 454.96 700.72 623.66 715.04
00006809 00000048 385.18 196.81 428.42 684.52 452.87 466.43 645.38 483.91 497.62 608.25 457.22 700.45 625.62 716.12
00006810 00000049 387.15 194.34 428.66 674.26 453.61 462.12 646.28 482.22 500.52 607.53 459.35 696.48 623.17 714.18
00006811 00000050 388.29 191.70 428.51 667.72 454.67 459.63 646.40 482.20 500.75 605.74 460.93 691.68 621.86 711.20
00006812 00000051 391.91 193.88 425.35 662.79 458.98 462.90 645.59 486.23 502.87 603.65 462.89 688.76 621.18 708.76
00006813 00000052 393.62 205.61 426.21 644.76 468.17 472.12 652.08 494.74 516.25 604.20 472.16 686.16 625.49 704.56
00006814 00000053 397.56 207.00 421.81 639.36 471.86 470.78 655.39 495.41 519.32 604.28 474.30 684.15 626.44 704.30
00006815 00000054 397.50 203.97 418.12 638.53 471.93 465.15 657.00 490.49 518.61 598.52 472.47 680.77 625.48 701.64
00006816 00000055 397.35 195.44 416.05 640.95 469.36 452.28 653.25 478.33 513.23 586.08 470.24 673.78 620.50 695.13
00006817 00000056 390.06 184.67 420.76 653.56 466.78 442.77 647.26 465.64 508.68 572.53 467.95 666.05 617.58 684.82
00006818 00000057 390.56 182.24 420.75 664.45 463.19 441.25 647.09 458.99 505.94 566.60 467.42 670.75 617.30 686.18
00006819 00000058 382.88 179.63 423.94 665.49 459.62 436.52 645.11 456.54 507.01 569.49 464.93 672.54 612.83 689.76
00006820 00000059 382.69 181.96 421.69 664.51 457.58 440.80 645.50 462.59 507.66 580.83 463.82 679.20 611.15 697.68
00006821 00000060 381.95 183.99 421.97 661.46 457.87 444.34 646.07 466.76 509.19 584.61 464.03 679.13 613.20 697.98
00006822 00000061 388.41 185.72 415.92 654.13 460.91 456.69 642.91 475.91 508.75 580.40 464.44 674.92 612.04 691.12
00006823 00000062 389.60 184.03 415.57 647.70 464.93 455.75 641.64 476.63 509.02 574.70 465.51 665.53 612.90 682.74
00006824 00000063 389.21 180.07 417.31 650.00 463.55 447.20 641.50 465.68 509.00 567.91 466.54 661.78 615.12 676.85
00006825 00000064 390.43 180.61 418.34 650.18 464.98 435.01 644.11 453.29 507.85 560.57 466.25 655.26 619.37 670.19
00006826 00000065 392.01 179.94 420.00 645.35 457.23 431.10 647.74 451.70 503.34 556.21 461.10 652.58 616.95 670.30
00006827 00000066 390.86 176.76 418.36 639.42 456.71 422.60 647.31 444.65 500.29 549.26 458.31 646.60 615.90 665.35
00006828 00000067 389.28 174.85 416.42 628.05 454.89 418.15 640.20 435.39 498.14 541.34 458.21 637.39 616.11 650.64
00006829 00000068 383.82 172.73 417.81 628.87 449.16 418.72 631.26 432.91 492.38 534.22 451.76 634.76 606.56 645.92
00006830 00000069 376.68 171.13 419.34 632.33 440.66 417.65 624.68 432.30 486.56 537.36 446.68 638.67 596.34 650.68
00006831 00000070 364.05 175.43 433.49 635.29 436.51 421.88 626.47 442.53 482.42 542.97 437.11 641.85 589.02 659.17
00006832 00000071 364.27 170.62 425.80 636.72 432.05 416.96 614.67 436.97 476.50 542.89 438.88 640.68 583.11 657.27
00006833 00000072 362.81 175.81 431.68 637.21 433.82 425.32 619.60 446.41 475.96 545.73 435.08 643.57 583.91 661.09
00006834 00000073 364.27 177.37 430.33 635.09 434.00 425.68 620.28 447.16 476.35 546.28 435.42 644.57 584.89 662.48
00006835 00000074 370.16 173.05 422.02 633.41 433.79 422.01 615.10 440.53 478.58 544.31 441.78 642.60 587.82 657.91
00006836 00000075 374.07 175.64 420.77 633.05 438.07 423.47 620.40 440.63 484.05 545.45 445.78 643.81 594.16 658.00
00006837 00000076 378.55 176.33 418.46 636.06 442.12 429.00 625.19 445.06 488.65 550.25 450.35 646.47 602.03 659.74
00006838 00000077 380.82 178.30 418.67 639.13 448.26 435.54 629.25 450.75 492.31 555.97 456.91 652.43 606.67 664.97
00006839 00000078 385.89 181.17 417.54 636.18 453.55 438.05 634.71 458.27 495.13 564.20 458.84 654.93 608.60 671.43
00006840 00000079 388.75 184.83 419.85 641.16 461.20 437.45 641.07 461.66 501.23 569.64 464.81 657.99 613.66 677.71
00006841 00000080 396.64 187.61 420.25 652.59 470.03 439.74 650.82 466.20 510.26 576.53 471.76 666.08 622.68 687.64
00006842 00000081 403.77 191.57 425.28 660.38 476.15 445.86 665.66 472.25 522.78 588.82 479.33 679.24 636.43 700.45
00006843 00000082 411.60 195.57 428.46 658.55 483.17 451.22 677.74 479.50 529.90 596.09 483.22 684.02 646.52 706.64
00006844 00000083 406.49 205.64 433.20 651.28 484.86 461.59 672.08 488.97 533.27 604.92 486.70 684.81 649.84 705.03
00006845 00000084 401.17 213.41 437.47 655.86 480.46 466.19 670.65 499.30 528.66 618.88 480.64 691.85 647.45 716.71
00006846 00000085 399.17 209.02 440.23 667.80 471.89 468.38 664.44 503.41 517.05 624.51 471.08 694.94 642.99 724.49
00006847 00000086 395.08 211.53 438.62 666.63 461.77 475.87 651.45 508.90 499.47 629.36 463.20 701.70 632.72 729.54
00006848 00000087 387.11 216.62 445.18 661.82 449.76 479.10 640.32 514.24 483.91 631.34 451.02 703.71 619.92 733.24
00006849 00000088 386.25 221.45 440.30 657.82 444.83 480.94 627.75 523.39 466.24 629.83 441.32 703.22 602.65 738.60
00006850 00000089 382.92 227.36 441.40 650.81 441.05 476.62 618.18 526.27 451.14 632.32 443.24 699.48 606.38 737.31
00006851 00000090 382.79 226.93 441.87 651.55 437.01 474.65 607.67 529.34 439.31 634.06 439.46 696.52 598.39 738.37
00006852 00000091 386.74 229.79 437.81 649.46 438.00 475.28 602.57 525.81 436.87 633.75 444.00 700.44 595.37 739.09
00006853 00000092 386.85 230.94 438.19 651.61 435.69 474.85 598.33 525.79 428.96 634.02 442.69 700.68 593.94 739.56
00006854 00000093 389.14 233.69 434.19 651.58 435.83 477.82 595.04 528.36 425.24 637.31 444.25 703.20 592.18 741.51
00006855 00000094 388.38 235.06 433.62 651.30 432.67 479.45 589.07 533.47 418.57 642.11 442.42 702.92 589.06 743.77
00006856 00000095 388.08 238.81 431.74 646.45 431.46 481.30 584.80 536.56 415.32 645.35 442.83 703.59 585.77 745.25
00006857 00000096 388.58 238.45 431.15 645.77 431.24 482.05 583.60 540.21 412.93 647.86 443.12 703.20 584.42 747.02
00006858 00000097 388.72 238.71 430.20 645.72 430.54 484.24 579.46 544.25 408.51 649.95 444.22 702.88 583.30 747.77
00006859 00000098 387.11 244.62 432.96 642.62 429.84 484.63 575.68 547.38 404.83 652.29 445.51 702.94 582.02 749.95
00006860 00000099 385.80 242.56 431.71 644.46 426.94 486.35 570.61 548.38 402.82 652.15 442.06 702.74 577.57 749.14
00006861 DELETE   384.40 238.32 426.17 651.99 418.86 488.83 561.62 546.85 395.06 651.75 435.19 706.83 570.38 750.04
00006862 DELETE   367.27 248.25 427.30 641.28 408.77 499.01 555.77 544.59 384.83 654.94 419.07 717.93 554.52 751.15
00006863 00000102 350.56 246.40 433.96 644.49 396.44 497.55 542.70 539.28 368.74 646.78 405.16 719.32 542.11 749.52
00006864 DELETE   340.22 245.79 430.38 643.51 382.60 509.61 524.07 547.44 357.18 648.31 400.98 715.88 537.25 742.74
00006865 DELETE   330.78 239.94 429.63 652.12 372.01 507.91 509.79 547.18 342.85 652.66 395.60 717.96 528.29 745.64
00006866 00000105 321.25 243.31 436.37 653.44 361.88 501.76 503.80 542.30 339.46 655.23 387.84 717.55 522.12 746.75
00006867 00000106 316.78 240.03 435.89 657.27 354.72 497.22 502.54 534.90 338.96 656.36 382.90 717.11 522.11 744.71
00006868 00000107 315.66 240.41 436.18 654.09 355.52 493.29 506.38 530.14 345.17 654.48 381.84 713.54 524.99 740.43
00006869 00000108 316.67 235.79 439.36 656.27 361.14 492.10 519.80 524.29 358.89 649.45 385.51 713.13 536.53 736.51
00006870 00000109 325.12 236.58 443.78 652.40 371.84 494.19 538.06 520.36 377.38 644.58 393.56 714.88 551.32 733.03
00006871 00000110 347.97 232.67 441.64 660.29 393.36 490.84 556.30 521.23 401.23 647.50 415.40 710.47 569.41 734.08
00006872 DELETE   357.06 226.17 444.31 668.75 407.13 482.48 576.31 512.04 418.57 638.16 426.40 707.16 586.05 729.61
00006873 00000112 366.91 225.55 439.41 665.70 423.27 485.82 593.54 515.49 432.31 629.26 429.85 704.30 593.77 727.61
00006874 00000113 373.38 220.31 439.79 668.72 430.16 481.77 600.12 513.34 437.76 624.32 435.25 700.78 598.59 726.37
00006875 00000114 381.89 218.84 435.64 670.59 436.47 481.54 605.17 510.46 444.61 623.52 443.43 702.83 603.31 726.70
00006876 00000115 383.54 217.92 433.61 669.58 439.68 480.43 609.39 506.13 450.60 621.57 446.73 703.03 606.46 724.46
00006877 00000116 382.92 217.55 433.82 671.63 441.43 479.46 611.12 503.70 453.54 618.64 448.66 702.46 609.37 722.59
00006878 00000117 386.74 215.24 431.75 674.98 443.67 476.81 610.79 500.09 453.20 617.18 452.49 701.06 613.65 720.27
00006879 00000118 387.86 211.74 431.48 676.98 444.97 474.79 611.15 495.73 452.66 613.16 455.41 701.23 614.14 718.49
00006880 00000119 384.27 210.78 432.29 675.43 439.94 473.37 606.63 496.52 447.38 612.02 449.30 698.22 608.48 717.31
00006881 00000120 375.52 209.14 435.39 671.60 432.70 465.25 600.90 492.02 445.70 610.71 445.10 692.25 606.66 711.75
00006882 00000121 369.56 210.89 436.83 664.34 426.37 458.74 591.33 493.82 434.49 611.35 438.78 683.71 596.43 710.82
00006883 00000122 365.86 206.71 436.44 664.55 421.67 455.89 584.23 491.85 428.09 609.23 432.51 679.98 586.01 708.19
00006884 00000123 362.37 205.57 439.63 662.73 416.77 457.87 580.07 489.28 424.80 609.60 430.81 681.99 582.83 706.48
00006885 00000124 361.87 205.21 439.98 658.28 414.94 458.07 579.01 489.60 423.74 609.37 429.84 680.38 580.46 704.99
00006886 00000125 361.99 206.63 440.02 651.10 414.10 456.83 579.09 489.60 423.56 609.21 428.64 677.72 578.86 703.20
00006887 00000126 358.41 204.49 441.68 649.94 409.34 457.68 576.85 486.37 415.62 602.93 423.72 680.73 572.94 702.29
00006888 00000127 359.46 200.99 443.05 652.05 411.17 456.37 578.30 484.79 415.94 599.16 423.89 680.82 568.95 702.43
00006889 00000128 359.64 200.58 443.06 649.97 410.99 454.19 578.27 483.10 414.13 595.48 423.06 680.47 564.47 702.61
00006890 00000129 358.61 194.32 442.34 654.74 410.25 451.56 577.79 480.77 413.91 592.53 422.08 679.96 561.11 702.52
00006891 00000130 360.20 195.59 442.85 653.30 411.29 450.90 578.39 480.10 413.82 591.74 423.14 680.52 560.73 703.04
00006892 00000131 363.27 198.47 441.38 652.62 412.84 451.96 577.45 481.94 411.56 592.95 424.41 681.42 560.58 704.36
00006893 00000132 367.30 200.32 436.07 655.57 415.99 453.54 574.96 484.69 416.78 600.56 426.47 680.33 562.61 704.84
00006894 00000133 362.08 199.61 441.02 656.61 410.15 454.42 574.11 484.56 406.88 596.18 422.08 685.30 557.38 708.43
00006895 00000134 359.64 202.69 442.21 657.58 404.35 457.56 570.61 485.43 401.84 602.71 419.97 693.40 554.80 714.47
00006896 00000135 357.37 209.12 437.91 658.53 407.41 465.32 569.12 492.97 405.39 613.14 420.59 697.96 555.00 719.13
00006897 00000136 354.25 222.75 435.06 644.51 394.76 475.18 559.55 501.24 395.56 628.87 417.70 710.41 557.99 727.80
00006898 00000137 352.23 224.59 435.86 646.58 392.45 477.59 557.64 503.89 393.45 631.64 415.42 715.47 554.06 733.32
00006899 00000138 348.87 228.12 438.41 645.90 389.79 480.50 555.21 508.64 391.13 636.94 414.68 719.27 551.47 738.73
00006900 00000139 348.02 234.47 437.45 643.86 389.77 484.03 552.68 509.94 390.12 638.62 415.11 725.86 546.69 744.11
00006901 00000140 347.52 235.08 438.00 643.08 389.33 484.36 552.68 511.63 389.75 639.63 413.86 726.03 545.52 745.36
00006902 00000141 352.33 233.59 433.92 641.56 390.60 485.10 554.45 513.38 390.63 640.68 414.82 725.44 546.31 745.45
00006903 00000142 352.86 234.01 434.44 639.03 390.88 483.68 555.52 513.52 391.00 640.50 415.33 722.59 548.49 743.60
00006904 00000143 354.13 234.08 433.06 640.41 392.07 484.44 557.63 514.33 392.94 640.97 415.60 722.49 550.97 743.68
00006905 00000144 353.31 233.56 433.16 640.35 394.05 482.22 558.80 513.72 394.53 640.33 416.67 721.36 550.77 743.89
00006906 00000145 353.60 234.14 431.70 639.82 394.37 481.79 558.77 513.66 395.76 639.78 415.62 719.35 550.82 742.13
00006907 00000146 348.93 239.15 435.94 637.19 393.95 484.65 559.57 518.05 397.43 644.73 416.15 721.01 551.50 745.17
00006908 00000147 360.52 230.33 428.90 649.12 396.12 489.06 555.04 526.90 402.34 656.87 419.82 722.38 545.55 753.04
00006909 00000148 365.44 230.45 430.48 657.69 401.34 494.09 562.27 525.94 411.40 658.53 429.42 725.87 560.10 750.85
00006910 00000149 369.79 230.34 432.10 667.58 413.26 500.34 575.39 531.14 425.16 661.87 438.82 723.35 584.22 746.54
00006911 00000150 377.27 230.24 432.41 658.11 430.76 510.21 598.96 528.99 450.62 643.35 450.12 726.40 593.71 741.52
00006912 00000151 387.65 216.77 425.42 653.59 441.37 491.40 613.69 507.56 467.39 625.08 456.60 714.46 592.57 728.56
00006913 00000152 389.56 204.90 422.59 651.15 445.09 470.08 616.63 488.76 471.13 603.24 455.26 698.23 589.36 714.61
00006914 00000153 386.32 198.16 419.67 641.68 442.86 458.56 609.70 477.22 467.06 582.73 455.28 680.26 583.06 696.48
00006915 00000154 385.86 185.89 414.58 639.72 440.40 447.32 601.94 458.00 462.35 562.44 456.50 666.12 582.59 674.87
00006916 00000155 385.92 183.70 417.05 636.97 441.41 436.40 604.41 446.74 459.42 546.77 456.76 658.58 581.28 667.25
00006917 00000156 395.43 175.91 415.94 637.16 447.55 429.15 615.98 437.46 470.03 539.50 459.66 652.99 590.84 660.49
00006918 DELETE   407.67 177.11 410.98 633.88 455.56 425.86 627.31 438.26 478.42 542.65 462.94 650.32 602.15 661.56
00006919 00000158 421.31 178.59 408.01 636.39 468.45 431.22 640.98 446.08 491.44 550.72 474.47 655.38 611.86 668.73
00006920 00000159 419.80 185.74 420.50 631.38 482.24 437.88 656.53 448.95 511.15 552.21 487.88 659.23 627.95 667.58
00006921 00000160 418.66 183.16 424.17 634.13 483.26 433.91 661.82 449.09 515.27 552.31 488.55 658.77 628.72 670.50
00006922 00000161 412.24 180.83 412.93 637.09 471.71 429.03 648.83 451.23 501.49 556.70 474.90 658.30 610.64 677.63
00006923 00000162 394.08 181.02 420.84 631.96 458.06 433.20 635.53 450.63 492.03 556.49 463.12 656.35 602.88 670.78
00006924 00000163 374.99 173.79 421.23 646.87 435.22 432.23 621.18 455.21 474.99 562.47 442.90 660.20 589.16 679.97
00006925 00000164 353.11 184.27 429.51 641.78 418.93 445.68 604.40 464.72 457.12 571.39 423.74 667.31 570.40 683.13
00006926 DELETE   320.63 188.25 427.07 626.99 387.97 445.88 567.59 464.55 422.10 574.07 395.26 662.39 542.91 677.22
CROP_BBOX: 18 0 1109 1077
