Video ID: 	4ViQc51eDTo
H: 	1080
W: 	1920
FPS: 	29.97002997002997

FRAME INDEX X0 Y0 W H [Landmarks (5 Points)]

00076489 00000000 744.01 136.92 383.39 526.15 863.49 346.38 1028.79 344.19 962.10 421.27 877.76 513.29 1029.77 511.85
00076490 00000001 744.91 137.54 384.26 526.16 862.66 345.74 1031.57 344.74 961.30 421.13 874.56 511.44 1032.84 511.24
00076491 00000002 745.04 137.91 385.19 525.37 862.83 345.71 1032.40 344.48 962.09 422.51 874.59 510.78 1034.52 510.46
00076492 00000003 748.09 141.45 383.78 522.72 864.70 345.36 1033.32 344.51 962.87 421.87 875.94 510.50 1034.91 510.46
00076493 00000004 749.26 141.65 383.07 524.35 866.35 345.44 1035.11 345.11 964.68 422.96 877.20 511.12 1036.32 511.36
00076494 00000005 750.24 139.51 382.62 521.03 868.03 347.18 1035.80 345.86 966.30 422.32 880.91 512.45 1034.83 511.79
00076495 00000006 755.09 132.44 385.47 522.08 871.77 339.83 1040.52 344.20 963.57 421.87 890.84 508.10 1039.18 512.18
00076496 00000007 756.78 131.97 387.07 520.29 871.31 336.83 1042.55 341.86 962.97 419.39 889.47 504.56 1041.13 508.96
00076497 00000008 757.75 130.05 390.36 523.55 872.93 332.62 1045.14 340.59 963.37 416.24 889.37 502.51 1041.21 509.17
00076498 00000009 759.33 126.17 391.23 528.21 875.15 328.56 1044.86 340.93 960.73 413.18 887.17 499.38 1034.96 509.66
00076499 00000010 761.91 124.21 391.67 532.49 871.82 332.55 1044.73 343.62 956.22 414.42 883.57 499.03 1040.13 507.71
00076500 00000011 764.25 120.80 389.50 540.16 868.22 329.69 1038.62 341.43 947.56 412.40 876.52 498.11 1035.13 507.21
00076501 DELETE   762.74 124.78 387.50 538.40 857.10 332.24 1017.26 328.51 924.73 409.16 865.48 505.13 1014.41 501.26
00076502 DELETE   756.78 124.09 381.79 531.41 843.03 324.72 1006.15 325.58 906.34 406.13 848.64 496.18 1004.10 498.01
00076503 DELETE   756.54 121.09 379.11 527.11 829.76 321.78 987.90 321.89 880.82 405.07 831.62 491.95 981.56 493.94
00076504 00000015 752.23 121.26 378.29 520.88 819.21 317.17 971.16 316.83 857.63 398.52 817.25 486.31 961.73 488.76
00076505 00000016 748.72 117.02 378.04 521.93 808.72 309.69 956.29 312.59 839.16 393.97 806.04 483.26 944.08 487.85
00076506 00000017 744.64 116.18 378.13 522.09 804.06 306.21 947.92 308.78 830.33 385.22 802.69 481.29 935.31 485.43
00076507 00000018 740.67 114.07 379.63 521.00 801.17 303.61 941.35 307.59 824.51 381.17 799.34 477.71 927.28 482.85
00076508 00000019 739.89 110.36 382.37 525.24 797.29 302.18 937.99 305.57 816.26 380.56 795.81 476.93 927.40 481.05
00076509 00000020 739.92 106.92 381.78 524.75 794.91 300.30 937.06 302.43 814.10 379.07 794.79 476.59 928.03 479.54
00076510 00000021 740.79 106.15 381.51 527.29 793.94 300.44 935.48 302.14 811.75 379.27 794.71 477.46 928.22 480.08
00076511 00000022 740.84 106.29 381.52 528.92 792.14 299.53 933.01 301.31 808.03 378.75 793.85 478.58 926.18 481.17
00076512 00000023 740.20 101.99 378.14 531.24 788.68 298.06 929.97 300.28 805.07 378.08 791.87 479.90 922.13 482.91
00076513 00000024 738.04 100.63 377.51 533.54 786.29 294.52 926.51 297.22 800.73 376.14 789.53 477.34 921.56 480.44
00076514 00000025 738.17 100.45 378.60 532.58 786.52 296.96 927.68 298.34 801.54 377.10 790.44 478.39 923.48 480.29
00076515 00000026 740.54 100.60 378.69 536.65 788.92 298.68 930.07 297.86 803.95 377.62 793.28 480.32 927.66 480.53
00076516 00000027 739.91 99.23 380.83 536.63 788.23 304.60 933.02 300.61 806.33 381.20 793.38 482.09 932.34 479.36
00076517 00000028 737.83 106.99 381.46 532.41 789.47 312.02 932.96 305.68 809.45 384.66 795.40 485.60 936.75 480.75
00076518 00000029 737.11 111.53 382.53 532.36 792.43 318.89 935.56 311.67 813.63 389.34 799.89 489.51 941.64 483.66
00076519 00000030 738.80 118.31 378.93 524.70 796.15 323.01 938.75 316.74 822.05 394.76 806.22 493.09 945.54 488.38
00076520 00000031 737.84 122.87 381.89 527.26 799.89 331.02 945.71 320.21 836.32 400.70 814.96 497.89 959.31 489.33
00076521 00000032 736.70 126.32 385.51 532.15 801.55 332.74 954.45 321.55 845.12 404.86 817.07 501.23 967.83 492.51
00076522 DELETE   739.53 126.68 383.73 532.04 806.21 335.24 962.26 322.80 854.53 407.55 822.09 503.39 974.39 493.91
00076523 00000034 744.27 130.83 377.66 526.23 809.97 334.47 967.45 320.00 862.15 407.23 826.00 502.95 980.02 492.36
00076524 00000035 744.38 131.81 377.88 527.49 811.90 332.40 971.02 316.41 870.21 406.01 828.43 501.70 986.24 489.75
00076525 00000036 741.75 128.25 381.31 536.24 815.50 328.47 978.75 314.62 878.88 402.00 831.00 501.57 993.50 491.27
00076526 00000037 738.13 126.38 384.57 539.53 816.85 328.09 981.99 314.81 885.20 401.70 833.75 501.66 997.55 491.32
00076527 00000038 736.11 128.81 386.46 539.90 819.19 326.55 985.30 314.34 891.60 402.17 836.34 502.16 1000.29 492.50
00076528 00000039 733.37 128.44 390.34 542.03 820.53 327.37 987.79 314.19 896.32 401.46 840.08 503.64 1004.33 493.03
00076529 00000040 733.26 129.33 390.96 541.93 822.90 327.10 989.84 314.38 900.98 401.29 843.11 504.15 1006.30 493.90
00076530 00000041 734.03 132.13 390.98 542.97 825.47 328.15 991.96 315.85 905.62 404.24 845.78 506.53 1009.15 496.49
00076531 00000042 735.36 133.56 389.89 539.30 828.34 330.50 996.37 316.59 912.02 405.23 851.13 508.79 1013.68 497.35
00076532 00000043 736.11 133.78 389.48 541.79 829.57 331.12 1000.18 316.72 915.95 405.53 852.89 510.97 1017.50 498.98
00076533 00000044 738.05 135.40 387.92 541.58 831.54 332.49 1003.14 317.27 919.97 405.87 855.63 512.57 1020.98 499.92
00076534 00000045 740.50 134.38 387.12 544.79 834.37 332.81 1007.50 317.18 924.47 406.23 858.48 514.07 1025.41 501.09
00076535 00000046 745.32 137.34 385.74 551.66 837.24 339.81 1012.20 313.92 930.35 408.46 861.03 518.99 1030.58 495.44
00076536 00000047 748.98 132.96 388.26 549.29 844.79 331.99 1021.28 315.59 937.31 409.16 867.03 513.21 1039.36 500.44
00076537 00000048 755.02 120.18 392.04 558.71 853.51 325.76 1021.28 316.78 941.70 405.61 879.59 510.17 1045.37 501.85
00076538 00000049 760.00 119.57 393.62 557.23 859.68 324.84 1029.90 316.28 949.80 404.43 887.79 508.89 1054.49 500.51
00076539 00000050 766.18 121.19 394.55 554.38 865.85 325.16 1037.44 315.58 957.82 404.78 895.34 508.86 1063.49 499.74
00076540 00000051 772.79 122.83 393.10 551.94 871.69 323.31 1045.59 313.38 965.65 402.57 900.46 506.35 1071.01 497.12
00076541 00000052 774.41 122.58 394.54 550.57 876.93 323.09 1050.81 314.55 972.85 401.82 903.69 504.66 1073.15 496.76
00076542 00000053 777.56 123.11 393.61 551.84 880.00 323.74 1052.16 314.87 974.74 402.05 906.00 504.87 1075.75 496.67
00076543 00000054 777.90 123.67 393.62 549.43 880.93 322.77 1053.07 314.61 976.30 400.88 906.94 503.89 1075.51 496.38
00076544 00000055 777.99 123.38 393.27 549.28 880.78 322.38 1053.17 314.07 976.45 400.85 906.84 503.91 1075.57 496.34
00076545 00000056 778.06 123.45 392.89 549.28 880.74 322.53 1053.04 314.25 976.39 400.90 906.73 504.27 1074.91 496.75
00076546 00000057 776.56 123.16 394.25 549.67 879.71 322.67 1052.29 314.69 975.37 401.12 906.36 504.01 1074.79 496.61
00076547 00000058 776.39 121.76 394.29 553.25 879.65 323.09 1051.38 314.79 974.75 401.75 905.98 505.17 1074.48 497.46
00076548 00000059 774.89 121.46 395.00 554.45 878.61 323.01 1050.30 314.85 973.92 402.55 905.63 505.79 1073.83 498.09
00076549 00000060 773.80 122.49 394.17 553.75 876.46 322.64 1049.35 313.96 971.89 402.68 905.25 506.68 1073.00 498.58
00076550 00000061 770.52 121.22 395.35 555.82 873.51 321.88 1047.26 313.35 969.07 403.36 903.07 507.30 1071.41 499.12
00076551 00000062 768.58 122.11 395.29 552.87 871.61 321.58 1044.99 313.55 966.90 403.00 902.69 507.48 1068.32 499.76
00076552 00000063 767.42 122.39 395.38 548.58 872.47 323.36 1044.21 314.89 968.36 404.12 905.74 508.36 1065.71 500.40
00076553 00000064 768.10 117.08 394.53 550.17 873.50 323.53 1042.37 315.21 968.14 402.16 908.47 509.48 1060.41 501.84
00076554 00000065 769.20 115.69 392.23 547.20 877.18 324.76 1040.60 315.39 971.10 401.02 914.87 512.00 1054.99 504.02
00076555 00000066 770.65 118.48 389.48 537.08 877.14 322.44 1041.04 315.00 969.60 399.51 914.52 510.79 1047.72 504.87
00076556 00000067 773.78 117.41 385.32 533.93 876.66 320.48 1038.14 313.69 964.27 389.39 910.09 506.51 1041.02 501.31
00076557 DELETE   773.81 121.00 385.79 511.34 872.17 314.94 1038.39 314.49 953.35 385.14 893.54 495.21 1025.57 495.15
00076558 00000069 772.96 116.09 384.62 509.98 864.79 307.26 1028.82 313.65 937.70 378.85 874.64 485.85 1005.64 491.82
00076559 DELETE   776.81 112.81 378.48 503.32 861.76 303.56 1013.46 314.12 919.00 376.61 863.01 480.00 982.06 489.44
00076560 00000071 780.93 110.03 374.68 505.80 859.05 291.50 1007.43 310.51 900.38 378.02 849.18 476.01 961.43 492.87
00076561 00000072 782.36 109.19 377.65 502.87 859.41 285.38 1007.96 313.19 892.43 378.14 837.97 467.63 956.35 491.08
00076562 00000073 784.61 110.69 380.72 501.32 865.42 283.25 1011.80 317.73 890.45 378.44 835.01 464.49 954.31 493.53
00076563 00000074 788.93 110.42 386.01 501.93 873.20 284.15 1021.00 321.01 897.15 376.52 841.20 462.17 961.91 493.15
00076564 00000075 799.41 109.27 387.97 507.43 885.77 283.36 1032.52 320.13 908.44 376.08 855.98 459.81 975.28 491.67
00076565 00000076 807.84 109.55 389.29 506.50 893.29 280.44 1042.05 318.09 915.71 373.79 865.12 453.52 989.42 486.94
00076566 00000077 807.62 109.75 392.40 507.90 894.57 279.88 1046.48 318.47 917.52 372.45 866.01 453.09 996.24 487.21
00076567 00000078 807.95 113.88 392.89 508.30 893.75 281.09 1046.27 317.41 917.18 371.73 867.01 452.70 1003.98 485.08
00076568 00000079 807.58 115.27 391.73 507.65 892.92 280.06 1044.72 317.75 914.13 371.30 865.40 452.53 1001.42 486.23
00076569 00000080 804.21 118.03 392.33 505.81 890.63 281.27 1041.27 320.80 909.80 372.98 862.42 452.77 997.84 487.63
00076570 00000081 799.53 116.75 391.23 508.23 886.26 280.96 1035.99 322.93 905.22 375.39 857.43 453.96 992.54 490.19
00076571 00000082 796.65 115.88 391.80 507.94 883.39 283.09 1034.13 326.34 902.53 376.97 854.15 455.86 988.96 492.67
00076572 00000083 796.91 118.68 391.73 506.44 883.26 284.11 1035.19 327.59 902.28 379.15 853.99 457.41 989.82 494.26
00076573 00000084 798.37 116.78 391.47 510.70 883.68 286.31 1035.89 327.24 905.31 381.21 856.11 461.43 990.09 496.78
00076574 00000085 799.44 117.89 391.78 513.65 883.76 288.10 1037.02 327.59 906.29 382.73 856.82 463.72 993.82 498.21
00076575 00000086 800.29 118.26 391.69 513.90 883.66 288.25 1036.45 327.65 905.71 382.82 857.52 464.19 994.08 498.61
00076576 00000087 800.43 117.93 391.69 513.75 884.62 288.60 1036.78 329.42 905.97 383.97 857.70 463.95 993.07 499.51
00076577 00000088 800.12 120.47 392.35 513.81 884.54 287.55 1037.43 328.93 905.71 384.36 857.36 463.99 994.02 499.98
00076578 00000089 799.07 122.08 393.64 514.29 884.50 290.04 1039.44 329.91 907.81 385.26 857.12 467.31 994.81 502.08
00076579 00000090 797.23 123.81 396.12 515.99 884.75 291.88 1041.33 331.98 909.76 386.36 856.76 469.46 996.58 504.48
00076580 00000091 797.18 126.40 394.95 515.38 885.29 293.95 1042.86 334.33 910.42 388.23 856.66 470.34 998.05 505.57
00076581 00000092 795.94 126.27 396.06 516.43 884.77 293.89 1042.72 333.99 911.08 388.22 856.49 470.36 998.43 505.28
00076582 00000093 794.35 126.31 394.32 516.46 882.53 295.00 1040.52 334.24 910.11 388.73 856.28 471.61 997.39 505.67
00076583 00000094 792.53 126.70 394.02 516.71 881.12 296.64 1039.31 335.70 909.44 389.39 855.37 473.27 995.90 507.07
00076584 00000095 790.09 130.05 391.91 512.35 878.96 297.25 1037.18 337.00 907.65 391.32 852.77 472.79 993.84 506.90
00076585 00000096 787.29 130.40 391.98 516.07 876.81 298.69 1036.05 339.69 905.64 393.67 849.97 474.28 993.94 509.18
00076586 00000097 787.20 130.04 389.87 515.41 875.79 300.93 1034.30 341.38 904.70 395.37 849.69 475.01 992.96 509.39
00076587 00000098 785.95 130.57 389.70 514.65 874.90 302.32 1033.50 342.49 904.58 396.09 848.52 476.79 991.57 510.87
00076588 00000099 785.67 129.85 388.52 516.63 874.23 303.97 1032.00 343.95 904.06 398.38 848.74 477.27 991.06 511.21
00076589 00000100 785.14 130.78 387.84 517.28 873.08 305.39 1031.08 344.43 902.87 400.18 848.11 479.08 990.84 512.20
00076590 00000101 784.54 131.36 387.98 512.03 873.06 306.81 1031.31 344.83 905.26 400.09 849.04 479.30 990.57 511.62
00076591 00000102 782.76 132.75 389.73 503.44 872.12 308.41 1029.45 344.44 905.82 400.01 848.56 480.24 984.67 510.77
00076592 00000103 780.99 129.26 391.04 503.85 871.12 308.36 1026.74 345.04 905.18 401.16 848.60 479.18 979.11 509.72
00076593 00000104 782.13 130.14 389.47 501.36 871.08 309.27 1026.74 344.45 906.47 401.45 849.36 480.52 979.22 509.75
00076594 00000105 783.96 128.44 388.46 513.19 871.94 307.76 1030.59 341.56 908.15 402.28 850.97 485.13 983.51 513.86
00076595 00000106 784.38 128.81 386.77 522.34 872.57 305.92 1031.52 340.03 907.68 401.69 851.77 482.18 992.74 511.39
00076596 00000107 784.07 130.41 384.73 523.71 871.28 308.34 1029.44 341.96 906.21 404.32 849.90 484.28 993.47 513.04
00076597 00000108 783.48 136.37 386.66 525.63 870.46 313.29 1018.98 342.98 893.91 403.21 844.49 487.26 985.29 512.26
00076598 00000109 780.41 130.68 383.93 523.79 866.78 309.50 1025.07 342.93 902.82 407.52 847.74 484.48 992.70 512.55
00076599 00000110 777.35 131.72 382.40 523.64 862.96 312.37 1022.34 343.53 901.37 410.32 846.28 486.89 991.72 513.02
00076600 00000111 776.58 144.66 380.65 521.99 857.10 316.87 1008.82 345.41 885.04 411.83 835.32 493.81 980.57 516.99
00076601 00000112 772.61 144.94 379.44 525.45 853.17 318.34 1006.14 346.17 885.45 414.77 831.99 495.98 980.95 518.21
00076602 00000113 767.83 141.62 380.06 531.88 850.49 321.32 1003.97 346.52 885.28 414.71 830.35 497.17 980.65 517.01
00076603 00000114 764.03 141.01 381.15 535.95 847.11 323.86 1000.73 346.58 884.46 415.79 829.98 500.32 979.16 518.02
00076604 00000115 763.02 143.49 379.05 534.72 843.37 327.04 997.46 346.82 883.06 416.36 828.59 503.65 977.61 518.86
00076605 00000116 759.57 143.88 381.10 534.95 840.02 328.84 995.65 348.09 883.23 418.36 825.78 504.96 976.72 519.84
00076606 00000117 752.22 146.71 384.11 529.32 831.50 330.72 995.42 347.29 880.34 426.81 825.54 506.05 978.68 520.73
00076607 00000118 748.57 147.68 385.65 528.10 829.20 333.67 994.10 350.18 879.27 428.35 822.82 505.98 977.25 520.81
00076608 00000119 746.52 146.35 384.65 528.22 827.07 337.53 992.71 351.70 878.22 429.88 821.20 508.53 976.72 521.42
00076609 00000120 747.63 145.64 383.92 532.48 826.48 338.79 991.43 352.48 876.70 431.35 820.28 510.15 976.39 522.77
00076610 00000121 748.55 147.07 382.17 531.98 826.37 339.62 990.49 352.55 876.55 432.44 820.01 510.76 977.21 522.96
00076611 00000122 748.29 145.37 381.41 534.97 826.19 341.22 991.60 353.18 878.35 433.09 820.29 511.87 979.17 523.29
00076612 00000123 749.37 147.31 380.57 535.37 826.64 348.70 988.84 358.13 877.20 435.09 823.74 514.30 981.29 522.89
00076613 00000124 748.61 148.36 382.82 535.79 827.38 347.01 991.52 355.17 879.58 432.12 824.95 514.44 982.20 522.25
00076614 00000125 749.81 145.90 382.69 538.15 829.43 342.53 993.86 352.34 881.32 431.15 825.39 513.46 982.53 522.84
00076615 00000126 750.81 141.13 385.22 541.43 833.43 336.99 999.89 347.21 886.46 425.89 827.39 511.87 980.95 521.70
00076616 00000127 754.45 133.39 385.57 544.33 842.74 334.36 999.48 346.37 892.16 411.56 835.57 514.46 971.87 524.57
00076617 00000128 756.36 131.55 387.41 536.30 845.98 330.39 1002.09 341.58 896.90 409.11 844.38 510.03 974.80 519.59
00076618 00000129 760.45 128.02 386.29 532.07 850.49 327.46 1004.61 338.53 899.19 406.17 850.58 504.36 978.48 513.83
00076619 00000130 761.61 125.41 385.93 532.46 853.62 324.82 1010.74 334.60 908.10 407.29 853.15 502.43 990.37 510.81
00076620 00000131 763.64 125.14 384.96 533.71 856.44 324.07 1016.03 333.20 916.70 408.78 854.74 500.80 1000.29 508.31
00076621 00000132 765.92 123.82 384.78 533.90 858.64 326.75 1020.43 332.79 922.31 409.24 857.97 503.13 1005.54 508.20
00076622 00000133 762.35 122.78 385.52 526.23 861.43 321.58 1028.48 336.14 934.39 409.46 863.90 494.74 1014.17 507.09
00076623 00000134 762.59 124.67 386.33 520.61 862.71 322.42 1030.56 336.08 936.98 409.31 866.21 493.36 1017.72 504.75
00076624 00000135 762.06 125.37 387.11 518.74 862.71 322.17 1030.73 334.64 938.61 408.84 866.87 493.13 1019.38 503.45
00076625 00000136 761.57 126.08 388.45 518.42 862.73 322.86 1032.01 333.50 940.45 409.03 870.06 493.68 1023.63 502.27
00076626 00000137 765.81 127.39 384.92 514.50 865.40 332.46 1031.04 328.75 944.74 410.93 871.74 502.06 1024.47 499.03
00076627 00000138 758.91 129.56 390.65 518.52 863.04 327.45 1037.20 331.18 950.40 407.25 877.73 496.14 1039.12 498.81
00076628 00000139 757.05 129.20 391.39 518.53 863.18 330.00 1038.60 329.63 954.61 408.84 883.08 498.19 1045.57 497.35
00076629 00000140 751.34 132.55 388.47 516.20 858.86 339.75 1028.89 325.84 953.35 408.36 879.64 502.55 1040.25 491.65
00076630 00000141 748.19 130.34 386.64 512.90 848.66 340.23 1018.77 324.12 938.96 409.68 870.75 503.01 1030.36 490.23
00076631 DELETE   744.17 134.81 385.07 500.88 836.57 338.50 1004.96 324.99 916.07 408.02 858.00 504.94 1008.62 494.58
00076632 00000143 739.06 130.95 385.75 504.79 827.38 335.24 993.22 326.48 900.00 407.72 845.88 504.07 992.50 497.62
00076633 00000144 736.51 130.36 382.78 506.00 826.51 331.94 989.09 325.74 898.35 405.87 844.96 503.04 986.45 499.02
00076634 00000145 741.86 128.89 377.88 504.01 833.44 331.41 999.04 326.34 908.83 400.68 849.83 501.22 994.53 498.04
00076635 DELETE   745.46 126.79 378.83 504.81 844.69 331.22 1011.61 326.25 928.93 401.67 862.52 502.86 1008.34 499.54
00076636 00000147 745.60 127.67 382.19 509.87 855.71 331.47 1020.90 325.77 947.43 402.51 875.40 504.42 1018.89 499.98
00076637 00000148 747.77 131.79 379.52 506.91 861.81 333.39 1024.98 324.45 957.08 402.49 882.80 505.29 1024.52 498.14
00076638 DELETE   746.97 130.87 379.69 517.44 862.88 339.34 1022.15 330.49 955.46 408.44 882.73 510.49 1020.84 503.93
00076639 00000150 747.01 136.25 380.10 520.44 859.11 342.93 1024.00 336.01 950.14 415.83 874.01 514.26 1021.37 509.45
00076640 DELETE   747.18 142.32 380.74 520.59 859.41 345.59 1025.12 339.88 950.41 419.72 874.24 517.77 1021.39 513.84
00076641 DELETE   749.76 143.47 381.76 519.92 864.72 350.10 1029.45 342.62 959.92 420.10 882.00 517.80 1029.70 512.05
00076642 DELETE   755.59 136.26 387.49 521.41 872.70 341.18 1041.22 341.25 967.16 423.54 894.75 509.27 1046.23 509.40
00076643 00000154 758.24 132.82 389.03 523.27 874.64 335.84 1045.10 335.79 970.55 419.11 897.55 504.69 1052.81 504.46
00076644 00000155 759.29 131.06 389.40 521.64 875.98 332.38 1047.70 332.53 972.65 416.86 898.93 501.59 1054.71 501.64
00076645 00000156 760.91 126.58 389.93 521.66 878.20 329.00 1050.37 329.52 974.49 412.44 902.40 499.18 1054.32 499.69
00076646 00000157 760.92 128.38 390.18 517.64 877.77 329.52 1049.79 331.42 972.32 413.73 900.66 499.24 1051.25 500.83
00076647 00000158 759.39 130.32 389.46 517.46 875.26 333.00 1046.70 334.58 969.84 417.13 898.87 501.42 1049.72 502.82
00076648 00000159 758.28 130.15 386.12 521.50 874.41 338.13 1040.33 340.68 965.12 421.30 898.64 509.12 1039.70 511.52
00076649 00000160 758.37 126.21 383.82 534.64 875.96 341.31 1038.86 345.79 964.66 423.98 895.24 514.23 1033.11 518.56
00076650 00000161 759.25 126.82 381.94 532.54 875.71 346.32 1035.75 350.71 961.84 427.16 893.76 516.80 1029.23 521.18
00076651 00000162 758.27 126.82 380.23 528.23 873.59 347.15 1032.64 348.00 959.80 425.81 895.31 515.32 1029.89 516.81
00076652 00000163 750.88 133.58 380.23 523.72 865.15 351.92 1027.74 344.42 956.73 421.17 885.72 520.51 1026.42 514.65
00076653 00000164 749.40 135.26 381.21 523.74 863.02 349.94 1025.05 342.13 953.52 420.26 883.90 519.98 1024.13 513.88
00076654 00000165 749.75 134.54 382.53 531.06 862.25 347.06 1026.66 342.38 953.54 422.44 880.18 520.15 1025.27 516.86
00076655 00000166 751.64 135.34 380.95 536.94 862.39 347.07 1029.06 343.59 953.82 424.98 877.17 520.11 1029.12 517.73
00076656 00000167 750.36 135.94 382.65 538.19 860.77 347.51 1031.05 345.19 953.16 428.01 872.74 519.44 1030.78 518.29
00076657 00000168 750.37 137.38 382.42 537.68 860.90 348.01 1032.25 345.82 953.97 429.17 871.95 519.80 1031.81 518.75
