Video ID: 	J8p2JmSvq8g
H: 	1080
W: 	1920
FPS: 	29.97002997002997

FRAME INDEX X0 Y0 W H [Landmarks (5 Points)]

00002290 00000000 729.32 110.23 410.59 582.29 892.26 311.91 1073.49 325.00 1024.75 432.28 916.97 534.37 1062.41 545.93
00002291 00000001 732.80 112.71 403.48 576.44 896.98 305.54 1085.91 320.62 1037.92 424.82 920.93 534.96 1069.67 545.19
00002292 00000002 731.73 111.04 404.61 576.83 895.68 300.50 1085.84 316.75 1035.92 422.27 918.60 532.20 1067.28 543.23
00002293 00000003 730.51 111.92 404.72 573.45 895.91 299.21 1082.82 318.47 1031.46 421.80 915.54 528.20 1061.88 541.82
00002294 00000004 729.20 109.45 405.94 575.15 893.20 298.37 1082.20 318.05 1030.10 422.05 912.32 528.39 1059.77 542.43
00002295 DELETE   730.41 106.85 406.11 578.51 895.12 301.35 1082.12 322.91 1026.34 425.20 910.73 528.57 1057.56 544.15
00002296 00000006 731.51 112.07 406.41 571.62 899.36 307.32 1083.37 333.49 1023.37 427.84 909.77 527.39 1054.74 546.80
00002297 DELETE   723.21 112.56 417.57 572.86 893.50 308.50 1074.34 334.03 1010.20 432.86 902.47 523.34 1044.43 545.16
00002298 00000008 729.67 110.86 408.35 571.84 895.94 305.31 1083.76 330.05 1023.42 429.67 908.33 527.85 1055.53 546.15
00002299 DELETE   728.05 113.57 409.11 567.83 895.22 307.81 1082.47 331.52 1024.19 429.54 907.95 526.99 1056.32 544.43
00002300 00000010 728.71 108.80 408.55 569.71 896.09 308.83 1083.29 332.21 1025.55 431.04 908.53 527.59 1057.00 545.04
00002301 00000011 729.81 110.89 407.14 567.80 894.44 308.45 1081.62 330.20 1023.68 431.41 907.89 527.88 1057.07 544.02
00002302 00000012 728.02 107.13 408.59 571.29 894.86 304.86 1082.01 328.35 1023.79 430.46 906.60 527.37 1054.08 545.11
00002303 00000013 728.57 107.16 407.99 573.27 894.21 302.47 1081.18 327.69 1022.68 429.22 903.44 527.16 1050.97 546.59
00002304 00000014 729.94 105.15 406.51 578.28 894.55 301.97 1080.59 327.23 1022.58 429.13 901.70 527.51 1049.93 547.34
00002305 00000015 728.66 101.25 407.54 583.87 894.25 302.59 1079.44 327.43 1022.32 429.13 901.00 527.94 1049.61 547.47
00002306 00000016 727.40 105.67 408.61 576.97 892.73 303.29 1079.88 326.97 1022.13 429.76 902.00 527.62 1051.01 545.96
00002307 00000017 724.22 101.68 411.31 576.00 891.42 304.80 1081.43 326.52 1022.78 430.43 903.65 525.75 1056.08 542.17
00002308 00000018 721.65 101.24 413.37 574.21 890.95 303.46 1079.59 325.76 1021.16 427.70 904.26 523.48 1054.20 540.34
00002309 00000019 722.86 101.76 412.23 572.30 891.35 303.72 1080.17 325.41 1021.31 428.95 906.06 523.76 1055.71 539.90
00002310 DELETE   724.28 100.66 411.04 573.70 892.22 304.45 1081.11 326.14 1022.89 429.04 908.05 525.88 1057.19 541.99
00002311 00000021 725.57 104.84 410.44 570.96 893.20 304.22 1081.12 325.68 1023.82 428.24 909.10 526.91 1056.80 542.85
00002312 00000022 725.47 103.79 411.73 571.71 894.57 305.42 1081.14 327.02 1023.64 429.14 910.67 526.66 1056.80 542.55
00002313 00000023 724.30 102.80 412.57 572.79 894.18 305.23 1081.54 327.30 1023.68 428.86 909.75 526.36 1056.89 542.63
00002314 00000024 724.71 97.79 412.37 576.87 895.24 307.79 1083.70 329.14 1025.63 430.79 911.58 528.29 1058.63 544.02
00002315 DELETE   725.97 104.91 412.21 570.82 895.06 307.48 1083.43 329.35 1024.82 430.05 910.60 527.36 1058.39 543.48
00002316 00000026 726.10 101.79 412.65 574.80 895.82 306.63 1083.97 329.44 1024.94 430.90 910.32 526.74 1058.44 543.59
00002317 00000027 727.97 100.89 411.48 575.12 895.25 305.94 1085.06 328.02 1025.84 428.85 910.66 527.71 1060.22 544.14
00002318 00000028 728.33 106.94 411.18 571.24 895.84 304.90 1083.68 327.52 1025.80 428.11 910.62 527.92 1057.90 544.84
00002319 00000029 728.27 101.30 410.93 579.40 896.21 304.87 1083.66 327.84 1026.41 428.09 909.24 528.66 1057.26 546.05
00002320 00000030 728.98 104.80 410.70 575.80 896.29 303.50 1084.07 327.14 1026.11 427.55 908.77 527.65 1057.12 545.52
00002321 00000031 725.22 102.02 420.07 581.83 893.38 302.17 1077.71 325.06 1015.61 431.70 903.45 523.44 1052.31 542.68
00002322 00000032 726.23 100.87 413.83 578.40 895.94 300.81 1085.50 323.13 1027.79 428.30 909.42 526.59 1058.06 543.17
00002323 00000033 725.83 100.69 412.92 578.30 895.51 299.33 1083.48 321.79 1025.64 426.95 909.96 525.73 1057.77 542.26
00002324 00000034 724.31 97.21 413.76 582.11 895.46 299.07 1083.03 322.90 1024.49 426.39 907.07 523.98 1056.28 541.87
00002325 00000035 722.13 95.07 414.36 586.11 894.49 297.69 1081.78 321.12 1025.28 426.02 905.99 523.85 1055.85 541.34
00002326 00000036 720.20 93.65 415.67 587.35 893.56 296.18 1079.65 319.85 1022.93 425.27 904.50 522.66 1052.74 540.33
00002327 00000037 719.44 90.82 414.22 588.19 891.94 294.89 1079.26 317.55 1022.28 424.34 904.12 521.82 1052.79 538.66
00002328 00000038 718.32 92.04 413.14 582.48 889.53 295.59 1076.42 317.32 1019.64 423.51 902.90 519.70 1052.34 535.83
00002329 00000039 716.04 91.10 413.11 582.28 886.51 294.39 1074.41 314.90 1017.70 422.76 900.29 518.71 1050.12 534.01
00002330 00000040 714.45 90.94 413.18 580.98 885.92 294.30 1073.40 314.89 1017.24 421.48 899.97 518.06 1049.37 533.49
00002331 00000041 714.90 90.77 413.28 581.67 884.84 294.42 1073.25 314.48 1016.24 422.29 898.80 518.37 1048.84 533.41
00002332 00000042 713.62 92.44 415.37 585.22 885.40 294.33 1071.81 314.80 1015.84 423.76 898.10 519.58 1047.49 534.84
00002333 00000043 713.80 93.61 414.57 585.08 885.39 294.45 1071.20 316.08 1015.98 422.84 897.22 520.03 1046.06 536.38
00002334 00000044 712.86 91.69 415.73 588.65 885.65 295.01 1071.16 316.86 1016.24 423.32 897.74 519.94 1046.62 536.28
00002335 DELETE   710.15 97.96 426.65 584.15 888.36 297.02 1076.09 316.57 1015.87 428.14 898.58 518.31 1049.27 532.94
00002336 00000046 713.89 97.31 417.25 583.50 886.96 296.70 1073.77 319.18 1018.37 425.19 898.74 519.46 1050.32 536.23
00002337 00000047 715.84 98.58 417.22 582.99 888.27 296.77 1074.74 320.12 1018.29 424.54 901.91 521.53 1050.70 538.79
00002338 00000048 718.79 99.50 414.75 583.52 891.46 297.05 1078.48 320.62 1024.03 424.73 904.59 525.13 1052.01 542.61
00002339 00000049 718.98 94.77 416.87 588.36 893.11 299.78 1081.11 323.34 1026.89 426.26 909.23 528.50 1055.37 545.82
00002340 00000050 721.39 96.57 416.68 586.21 896.34 299.14 1084.91 324.05 1029.22 425.84 912.16 528.80 1056.84 547.24
00002341 00000051 722.86 97.66 417.00 585.54 897.73 300.68 1087.06 324.59 1030.72 425.25 913.87 528.80 1059.50 546.26
00002342 00000052 724.52 100.78 416.17 580.39 898.20 300.54 1087.85 323.42 1031.76 426.35 915.16 528.49 1060.79 545.06
00002343 00000053 724.31 98.95 422.96 584.61 898.01 300.82 1082.28 321.56 1023.93 431.13 913.36 525.24 1058.36 542.26
00002344 00000054 727.91 98.42 421.86 582.64 899.37 302.10 1084.85 321.68 1027.10 430.96 916.44 526.15 1061.29 542.20
00002345 00000055 729.75 99.28 422.57 580.71 900.71 304.14 1086.21 323.50 1027.13 432.55 918.01 525.91 1062.44 541.74
00002346 00000056 729.96 98.45 423.37 579.90 902.40 304.59 1086.75 323.47 1027.80 432.99 919.72 525.96 1062.88 541.35
00002347 00000057 732.97 100.26 421.19 578.17 901.81 305.36 1088.31 323.01 1028.40 433.06 920.59 526.81 1064.70 541.31
00002348 00000058 732.53 99.33 422.97 579.05 901.39 305.48 1089.36 323.03 1028.82 432.99 920.11 526.94 1066.25 541.24
00002349 00000059 732.85 98.80 423.20 579.46 902.04 305.42 1089.71 323.57 1028.95 432.05 919.85 526.56 1066.45 541.37
00002350 00000060 733.43 100.02 423.62 577.78 902.53 304.29 1091.52 323.26 1029.65 431.72 919.53 525.93 1067.05 541.44
00002351 00000061 733.42 99.33 422.90 579.13 901.33 303.71 1090.67 322.63 1029.32 430.37 918.50 525.60 1066.90 541.05
00002352 00000062 733.44 98.92 422.14 579.90 901.16 302.10 1089.63 321.73 1028.74 429.53 918.43 525.26 1065.47 541.26
00002353 00000063 732.88 105.12 421.52 577.59 900.41 299.70 1088.87 320.13 1028.36 430.66 916.04 527.20 1062.09 544.10
00002354 00000064 732.48 100.03 420.95 583.69 902.04 298.57 1088.47 322.27 1027.92 429.77 914.43 527.87 1056.95 547.40
00002355 00000065 730.57 102.34 419.15 582.30 900.22 298.28 1085.83 322.10 1027.23 427.82 911.85 527.55 1055.10 547.43
00002356 00000066 729.91 104.30 418.01 580.70 897.58 300.05 1083.29 322.39 1024.33 428.44 911.69 528.34 1055.05 547.12
00002357 00000067 729.05 102.86 418.03 582.62 894.25 302.93 1082.03 324.92 1020.59 429.52 909.04 529.63 1055.20 548.16
00002358 00000068 727.61 107.94 416.37 579.52 892.51 305.76 1079.23 327.62 1018.40 432.16 908.70 531.27 1054.12 549.83
00002359 00000069 731.69 113.68 407.56 570.76 894.51 305.24 1086.33 327.43 1027.52 429.44 913.40 534.42 1060.65 550.62
00002360 00000070 730.55 111.67 408.49 572.93 894.53 306.55 1085.11 328.84 1026.63 430.58 912.00 534.18 1059.63 550.58
00002361 00000071 731.44 114.65 407.25 571.71 894.14 306.25 1084.88 329.93 1025.69 431.20 910.51 534.44 1058.53 551.97
00002362 00000072 726.44 112.14 416.56 578.90 891.29 308.95 1075.45 332.39 1013.71 436.05 903.41 531.98 1050.21 552.06
00002363 00000073 727.48 108.54 416.45 582.34 892.69 309.07 1077.64 333.24 1015.24 434.91 902.37 531.26 1051.21 551.97
00002364 00000074 728.97 105.16 416.93 585.42 894.26 309.01 1079.26 332.52 1017.29 435.64 903.74 531.61 1052.73 551.69
00002365 00000075 732.06 106.16 415.13 584.75 895.98 309.28 1081.50 334.16 1018.31 435.85 903.85 531.14 1053.78 552.33
00002366 00000076 732.52 105.92 416.96 585.99 897.66 310.39 1083.35 333.78 1021.11 436.77 904.84 532.47 1054.74 552.55
00002367 00000077 735.62 102.50 419.64 589.45 899.82 310.63 1087.59 334.01 1024.38 436.39 905.49 532.74 1057.68 552.59
00002368 00000078 739.50 107.65 420.18 585.74 902.68 310.69 1091.76 335.25 1025.39 437.17 905.55 533.67 1058.83 554.63
00002369 00000079 742.48 111.71 419.48 582.19 905.78 313.95 1094.66 337.73 1027.82 440.92 908.00 535.47 1061.74 555.90
00002370 00000080 745.61 116.05 416.08 577.14 906.92 315.16 1096.35 338.42 1029.99 441.28 910.68 535.84 1064.49 555.79
00002371 00000081 747.10 113.71 416.14 579.88 911.18 313.76 1097.39 337.68 1033.61 442.22 912.53 534.94 1065.22 555.37
00002372 00000082 749.50 112.03 414.27 582.50 913.44 312.93 1097.66 336.14 1037.09 442.59 913.93 534.48 1066.90 554.28
00002373 00000083 750.97 121.12 410.95 567.52 915.48 305.58 1105.42 330.63 1038.19 445.77 913.80 535.45 1061.46 555.46
00002374 00000084 748.66 107.27 415.55 585.29 911.94 311.81 1097.68 335.54 1035.69 439.04 912.37 532.42 1066.29 552.57
00002375 00000085 747.94 105.63 415.38 584.39 909.34 310.98 1096.70 332.93 1034.42 437.59 912.05 532.59 1066.86 551.24
00002376 00000086 746.23 104.37 415.43 584.85 906.80 311.03 1095.89 332.34 1033.15 436.72 910.07 531.25 1067.32 549.42
00002377 00000087 744.98 104.52 417.11 581.07 904.83 311.72 1096.07 332.09 1031.46 435.51 910.20 529.17 1069.37 546.45
00002378 00000088 743.87 104.00 419.04 580.83 902.23 313.03 1097.80 331.71 1030.79 435.41 910.18 525.56 1076.11 541.23
00002379 00000089 743.75 103.97 418.78 577.00 901.82 313.04 1097.42 331.03 1029.62 435.01 909.32 523.51 1075.22 538.70
00002380 00000090 743.09 107.46 418.52 574.02 901.61 310.56 1097.04 329.79 1029.82 433.33 907.03 523.07 1073.30 539.50
00002381 00000091 742.36 102.52 419.07 578.26 901.87 309.74 1097.59 329.88 1030.08 432.55 906.78 521.63 1073.15 538.62
00002382 00000092 741.46 103.68 419.77 577.38 900.66 308.47 1096.02 328.85 1027.60 431.65 905.24 521.22 1071.45 538.46
00002383 00000093 739.31 100.73 422.13 577.79 901.59 306.00 1095.03 327.01 1026.74 430.82 905.45 518.96 1070.08 536.46
00002384 00000094 738.53 101.83 421.48 573.13 900.95 303.73 1095.58 324.84 1028.17 427.91 905.72 516.28 1070.85 533.94
00002385 00000095 738.60 100.83 421.85 573.46 899.11 303.33 1095.77 324.21 1026.26 427.65 902.74 514.01 1072.22 531.46
00002386 00000096 737.52 101.48 423.45 572.61 899.18 303.59 1095.37 323.46 1027.05 428.99 901.66 512.11 1074.00 528.87
00002387 00000097 737.40 98.30 423.81 575.71 899.42 303.74 1095.20 323.68 1026.72 428.78 902.08 511.48 1073.86 528.21
00002388 00000098 737.86 99.08 423.96 577.79 901.01 305.69 1096.56 325.77 1028.29 432.74 904.14 513.42 1075.66 530.21
00002389 00000099 737.74 104.99 424.77 573.00 902.96 306.54 1098.31 327.41 1031.92 434.18 907.34 516.61 1075.49 534.30
00002390 00000100 739.27 104.53 424.66 573.23 909.75 307.91 1100.30 328.46 1035.86 440.28 913.32 518.92 1074.43 536.32
00002391 00000101 741.62 99.39 424.80 581.66 916.27 308.34 1103.24 331.82 1042.63 442.60 917.95 519.97 1076.87 539.59
00002392 00000102 739.98 113.89 424.25 568.58 921.10 310.78 1108.10 336.41 1049.00 443.85 921.25 522.24 1076.56 544.01
00002393 00000103 742.41 105.02 423.78 577.64 926.60 313.46 1112.78 339.30 1056.75 442.31 928.31 523.67 1081.75 545.19
00002394 00000104 746.47 110.69 421.03 571.77 934.25 314.43 1116.07 343.37 1061.45 441.17 933.59 524.02 1081.89 548.07
00002395 00000105 749.21 117.10 421.89 566.48 941.02 315.19 1120.66 346.09 1066.20 442.48 938.75 524.19 1083.86 549.85
00002396 00000106 748.99 114.25 425.09 573.92 944.82 315.48 1123.68 346.19 1072.15 443.43 943.34 527.96 1086.17 553.16
00002397 00000107 751.41 110.75 422.89 584.35 948.54 315.57 1124.58 347.38 1076.46 446.11 945.35 534.55 1085.88 560.60
00002398 00000108 752.69 110.16 422.50 584.85 952.36 309.81 1131.50 346.67 1083.26 448.91 944.27 540.95 1083.79 571.32
00002399 00000109 753.58 112.90 421.16 588.89 955.92 313.60 1129.28 348.21 1083.64 450.37 945.61 548.09 1078.55 576.68
00002400 00000110 752.39 123.25 422.03 581.67 955.04 315.09 1128.47 347.95 1082.52 454.17 943.04 552.00 1075.82 579.04
00002401 00000111 750.80 128.27 423.43 581.57 953.03 317.90 1126.59 349.93 1080.54 455.54 942.26 553.91 1074.21 580.19
00002402 00000112 750.37 130.40 424.21 580.76 948.55 317.91 1127.04 350.59 1076.93 457.29 937.03 554.08 1075.13 581.11
00002403 00000113 748.91 128.14 424.27 582.82 946.88 319.36 1123.92 353.04 1072.68 459.17 933.16 554.08 1070.97 582.00
00002404 00000114 746.16 132.43 423.31 577.86 944.34 319.26 1121.82 353.64 1069.74 458.49 931.44 552.94 1069.44 581.05
00002405 00000115 743.71 134.75 421.96 579.00 940.60 319.69 1117.64 354.06 1065.36 460.17 927.62 553.78 1065.09 581.78
00002406 00000116 742.45 136.70 421.07 578.11 937.31 319.78 1115.05 354.37 1060.71 461.79 922.50 553.54 1061.21 581.74
00002407 00000117 740.37 133.20 420.45 584.91 933.66 318.58 1112.61 355.21 1056.94 463.05 918.16 553.98 1059.83 583.93
00002408 00000118 738.95 134.85 420.03 586.54 928.13 318.01 1109.42 353.63 1051.94 465.27 914.04 557.36 1056.42 586.44
00002409 00000119 734.65 133.61 420.62 589.47 923.48 320.22 1105.17 355.32 1047.02 466.32 909.88 559.16 1053.00 587.61
00002410 00000120 733.69 137.60 419.71 587.99 921.78 321.64 1100.85 357.91 1042.84 467.98 905.43 560.35 1047.46 589.82
00002411 00000121 729.57 137.79 420.21 590.05 917.72 321.40 1095.95 357.87 1040.05 467.08 901.52 560.46 1044.35 590.23
00002412 00000122 729.02 135.13 416.71 586.99 902.55 333.06 1089.29 359.13 1032.00 466.66 895.57 562.21 1053.16 583.94
00002413 00000123 728.67 138.96 414.16 576.36 901.32 333.02 1089.91 360.26 1030.76 467.92 894.19 557.71 1053.71 580.47
00002414 00000124 726.30 136.45 413.28 574.91 900.95 334.64 1089.65 359.74 1031.66 469.31 896.30 556.97 1056.29 578.00
00002415 00000125 726.45 135.52 412.58 570.16 899.89 335.22 1088.86 360.91 1028.55 469.54 895.75 554.74 1055.05 576.38
00002416 00000126 726.34 138.58 411.96 567.12 898.91 336.29 1089.04 362.30 1027.42 469.88 896.10 555.46 1055.46 577.01
00002417 00000127 724.77 146.40 412.13 557.50 898.12 337.10 1088.84 361.62 1027.70 470.92 897.79 555.93 1056.35 576.09
00002418 00000128 722.37 154.72 414.12 556.11 899.88 338.47 1087.85 364.55 1028.08 472.50 898.12 557.04 1054.73 578.16
00002419 00000129 722.59 155.91 415.96 557.60 901.80 342.03 1088.58 367.97 1030.27 475.08 899.76 559.92 1055.94 581.00
00002420 00000130 723.24 152.00 416.74 564.11 904.80 346.14 1090.90 372.40 1035.63 479.66 902.73 563.19 1057.46 584.77
00002421 00000131 725.72 152.50 414.76 564.46 908.02 348.47 1089.45 369.55 1039.64 481.61 909.86 567.49 1059.28 584.78
00002422 00000132 728.05 157.77 411.00 566.48 912.61 350.75 1092.19 373.18 1045.57 484.12 911.43 573.49 1060.37 592.16
00002423 00000133 727.55 152.20 411.97 575.17 915.14 351.51 1093.79 372.50 1050.93 483.86 913.04 575.30 1062.44 593.12
00002424 00000134 727.01 152.90 412.21 578.60 916.96 351.33 1093.65 373.48 1053.69 481.85 913.69 576.04 1062.04 595.04
00002425 00000135 726.70 160.07 410.78 573.17 917.47 351.67 1091.50 373.04 1053.54 480.72 912.75 573.66 1061.70 592.22
00002426 00000136 724.48 155.22 410.55 572.79 914.07 352.71 1090.05 372.41 1052.19 480.15 909.42 571.36 1061.64 588.69
00002427 00000137 721.79 150.19 412.29 572.20 911.27 352.88 1089.39 370.19 1052.10 479.61 907.54 567.95 1062.98 583.50
00002428 00000138 720.85 157.07 412.06 566.41 911.97 352.54 1089.39 370.05 1052.61 480.10 908.68 567.41 1063.88 582.98
00002429 00000139 720.79 158.59 411.51 564.28 912.99 352.09 1089.55 371.65 1052.05 480.69 908.72 567.45 1062.79 584.80
00002430 00000140 719.81 157.98 412.38 567.20 911.80 351.78 1087.69 369.40 1050.19 480.76 909.21 569.37 1061.64 584.92
00002431 00000141 718.43 161.67 413.91 565.16 909.16 353.45 1085.34 369.74 1048.00 482.04 908.06 570.84 1060.45 585.24
00002432 00000142 714.86 158.30 415.33 567.72 907.16 353.52 1083.46 370.24 1046.14 479.79 907.16 570.55 1059.41 585.19
00002433 00000143 713.54 158.47 415.55 565.73 905.99 351.72 1083.35 368.29 1044.16 478.78 908.16 570.51 1058.69 584.63
00002434 00000144 713.02 153.49 415.95 564.35 905.28 348.13 1087.06 367.53 1042.82 476.03 908.12 566.68 1059.51 582.77
00002435 00000145 713.93 148.31 414.11 562.71 905.80 343.90 1088.38 363.45 1044.21 472.75 910.54 564.70 1058.66 581.05
00002436 00000146 712.15 145.57 415.40 564.21 902.17 342.57 1086.77 361.51 1040.35 472.50 908.63 563.62 1058.09 579.10
00002437 00000147 711.42 153.25 413.07 553.87 896.75 343.18 1082.64 360.43 1035.12 471.92 905.05 563.39 1055.31 577.54
00002438 00000148 709.41 152.00 412.74 552.09 890.19 341.04 1079.67 357.74 1029.58 470.68 900.38 560.78 1053.65 574.62
00002439 00000149 707.58 152.72 414.66 550.45 888.84 340.22 1076.86 357.55 1025.56 472.61 898.20 559.97 1049.73 574.44
00002440 00000150 706.50 143.54 415.47 560.44 886.02 339.05 1074.61 357.67 1021.51 471.88 894.00 558.38 1047.31 573.98
00002441 00000151 707.50 149.37 413.63 552.74 882.14 338.34 1071.64 355.92 1016.19 471.34 889.47 555.86 1046.22 570.76
00002442 00000152 707.10 145.42 414.55 555.80 880.68 335.50 1070.34 353.52 1014.26 468.97 886.86 553.27 1045.10 568.69
00002443 00000153 705.94 148.94 414.66 551.38 878.55 331.19 1067.39 351.00 1009.85 465.12 884.12 548.92 1041.75 565.67
00002444 00000154 705.28 143.05 415.37 557.54 876.63 325.90 1065.23 345.86 1006.25 461.64 882.93 545.33 1039.02 561.83
00002445 00000155 706.63 138.41 413.73 562.08 875.59 323.49 1062.86 343.55 1003.28 460.56 879.85 542.91 1035.51 559.47
00002446 00000156 707.46 133.38 412.59 565.38 876.17 321.62 1063.35 342.84 1003.25 458.72 878.82 541.85 1034.35 559.48
00002447 00000157 708.79 130.72 412.07 570.11 875.89 321.63 1062.82 341.61 1002.80 459.92 879.10 543.63 1034.65 560.09
00002448 00000158 709.00 129.16 412.78 574.20 878.13 320.46 1064.22 341.95 1004.48 457.45 880.77 544.97 1035.56 562.58
00002449 00000159 711.21 128.08 411.56 576.75 879.78 323.27 1065.79 342.55 1008.57 455.50 884.52 547.24 1040.38 563.02
00002450 00000160 713.41 126.94 409.11 578.36 886.70 323.58 1068.09 343.29 1013.82 455.13 893.86 552.85 1038.31 568.52
00002451 00000161 715.43 124.06 409.25 582.74 888.28 324.74 1070.74 344.10 1016.71 455.24 895.18 553.91 1042.54 569.26
00002452 00000162 716.85 125.30 408.74 581.73 888.55 325.61 1072.45 344.00 1018.77 454.80 895.55 554.58 1046.02 569.23
00002453 00000163 715.79 128.30 409.26 579.53 889.08 325.46 1072.59 344.61 1019.97 455.00 896.02 554.85 1044.86 570.10
00002454 00000164 716.90 138.20 407.76 571.33 888.20 325.48 1072.34 344.39 1020.24 457.32 895.12 556.91 1044.27 571.98
00002455 00000165 717.26 141.51 408.31 570.35 886.36 326.34 1071.92 344.00 1018.97 458.75 893.99 559.40 1044.35 573.59
00002456 00000166 715.58 150.04 409.07 563.22 883.58 326.50 1071.20 343.33 1016.52 461.20 892.29 560.58 1043.17 574.12
