Video ID: 	_Sv4lJLYcqU
H: 	1080
W: 	1920
FPS: 	23.976023976023978

FRAME INDEX X0 Y0 W H [Landmarks (5 Points)]

00034445 00000000 671.93 154.06 293.12 503.32 887.41 353.51 922.31 358.44 959.09 444.34 876.00 528.22 902.68 532.85
00034446 00000001 642.34 149.78 321.85 513.24 867.53 351.81 922.39 357.44 955.75 443.81 863.82 531.58 904.79 537.04
00034447 00000002 606.42 150.05 330.87 525.35 837.90 351.60 917.28 358.80 939.87 465.73 833.90 553.33 891.22 560.11
00034448 DELETE   572.20 139.06 366.43 534.50 812.89 349.67 910.77 362.65 917.45 469.69 805.52 548.84 873.84 560.78
00034449 DELETE   544.27 150.56 391.48 530.21 792.70 348.27 901.01 381.34 892.57 468.23 756.07 542.30 840.67 572.17
00034450 00000005 534.79 147.18 401.84 540.92 769.30 348.74 896.38 393.65 871.40 463.18 727.34 536.62 832.19 575.98
00034451 DELETE   524.16 143.32 409.81 541.84 754.07 346.41 885.62 395.32 853.98 457.79 714.93 531.33 822.76 573.52
00034452 00000007 517.93 125.84 409.58 553.40 745.53 345.24 886.72 394.10 850.29 451.11 713.07 520.42 822.75 561.63
00034453 00000008 523.46 119.05 392.30 541.90 746.34 333.79 883.79 381.22 847.54 435.11 717.00 506.99 825.08 546.57
00034454 00000009 518.77 108.64 392.53 542.98 743.85 319.32 878.06 365.67 846.18 415.52 717.77 492.11 827.57 530.56
00034455 DELETE   513.90 102.22 389.19 542.33 742.90 308.39 875.79 360.23 851.08 407.66 720.45 482.63 827.61 525.55
00034456 00000011 516.76 101.83 380.12 544.17 742.26 296.69 874.24 343.14 855.95 399.92 714.90 485.47 831.87 525.68
00034457 00000012 512.50 96.53 382.11 546.36 737.07 294.41 869.95 338.27 852.04 393.97 714.19 482.31 830.40 519.95
00034458 00000013 512.92 98.62 380.81 541.99 733.26 295.26 867.83 338.66 847.77 392.39 712.68 481.38 829.62 518.72
00034459 00000014 512.36 98.83 381.20 539.75 733.79 297.39 866.91 340.87 847.47 394.94 712.74 481.64 828.10 518.98
00034460 00000015 515.41 102.17 379.57 537.15 737.49 298.65 869.36 342.78 849.85 398.97 713.53 483.35 827.90 521.53
00034461 00000016 517.29 103.46 379.61 538.91 739.98 300.34 871.41 345.38 850.80 401.87 713.43 485.83 828.19 524.86
00034462 00000017 517.72 104.20 379.36 540.34 740.67 300.13 873.12 346.48 851.55 402.17 713.18 487.36 828.90 527.27
00034463 00000018 515.24 104.76 380.72 542.95 740.10 300.91 873.34 347.06 852.28 402.45 712.99 488.55 829.78 528.40
00034464 00000019 514.96 102.12 380.53 543.42 739.61 300.73 873.18 346.88 853.32 401.39 713.86 488.15 829.76 527.88
00034465 00000020 513.86 103.07 380.24 540.75 738.53 299.99 871.43 344.60 852.01 400.34 714.17 487.40 829.88 525.84
00034466 00000021 512.51 101.91 381.47 545.15 739.41 299.68 869.70 343.87 851.75 400.71 714.24 488.50 827.82 526.50
00034467 00000022 514.35 103.61 379.74 542.70 739.97 299.02 868.82 344.28 850.29 400.95 714.88 488.37 825.47 527.13
00034468 00000023 515.54 103.26 379.10 543.63 740.50 300.12 868.80 345.68 849.50 402.19 714.59 488.72 825.27 527.83
00034469 00000024 516.33 104.08 378.46 543.72 742.14 303.04 869.82 348.92 850.56 405.78 715.27 491.46 824.54 530.96
00034470 00000025 515.41 106.30 380.24 542.56 742.39 306.17 869.94 351.34 850.25 409.23 716.04 494.06 824.60 532.90
00034471 00000026 514.84 105.79 381.34 543.61 741.36 306.59 869.63 350.49 850.18 408.92 716.48 494.85 825.05 532.71
00034472 00000027 515.14 105.11 381.57 545.05 741.09 307.29 870.57 351.37 850.73 409.59 714.45 494.84 825.81 533.18
00034473 00000028 514.35 105.39 381.50 546.76 740.70 305.35 869.12 350.43 849.31 409.15 712.56 493.80 823.89 533.05
00034474 00000029 513.38 104.81 382.61 547.74 741.75 304.44 869.97 350.41 851.10 409.02 712.30 492.90 823.94 532.90
00034475 00000030 515.96 104.18 379.94 548.07 742.30 304.07 870.13 350.76 850.38 408.93 712.52 492.88 823.51 533.52
00034476 00000031 506.53 96.12 391.06 553.66 735.96 306.13 867.95 351.77 846.94 407.94 717.05 488.70 823.28 526.74
00034477 00000032 508.79 98.46 389.36 549.82 739.57 307.64 868.28 351.31 848.91 408.82 719.52 487.94 824.71 524.49
00034478 00000033 522.63 105.92 378.26 544.27 750.81 305.18 877.97 347.05 862.43 410.58 721.92 494.09 833.12 531.37
00034479 00000034 523.46 99.78 374.99 534.99 753.07 302.60 868.56 345.80 866.38 408.71 731.86 484.07 832.23 524.20
00034480 00000035 527.26 102.44 372.77 530.55 755.01 304.66 870.55 348.11 867.20 409.12 732.63 484.22 833.08 524.46
00034481 00000036 520.08 101.56 383.50 539.13 746.65 313.48 872.52 357.25 854.23 405.64 731.22 483.23 832.88 519.86
00034482 00000037 520.92 105.67 382.81 539.24 746.35 313.74 875.47 360.15 852.69 408.86 727.41 484.94 831.84 523.63
00034483 00000038 517.87 105.06 389.94 545.07 747.79 313.85 877.05 364.09 850.66 412.91 721.53 487.29 827.50 529.08
00034484 00000039 520.55 107.47 390.43 541.95 749.09 315.66 879.08 366.54 851.38 413.48 720.66 486.63 828.19 529.09
00034485 00000040 526.44 108.70 388.84 539.94 752.44 318.58 883.50 369.84 854.79 412.34 724.83 485.42 832.84 528.11
00034486 00000041 541.45 108.29 379.51 531.35 769.48 312.63 882.07 362.48 868.56 418.96 731.53 489.24 832.91 534.04
00034487 00000042 543.35 103.27 381.76 541.66 778.30 312.77 887.68 363.92 874.49 424.18 735.96 493.99 832.67 539.61
00034488 00000043 546.29 111.69 379.15 527.21 783.51 307.89 894.42 362.03 881.50 417.42 743.99 488.98 839.11 534.33
00034489 00000044 544.04 115.32 380.45 522.11 781.04 312.15 896.36 358.99 881.75 418.27 748.54 492.35 847.08 531.47
00034490 00000045 542.96 116.75 381.03 520.48 782.54 311.76 896.86 358.62 882.33 418.26 749.49 492.40 846.75 531.57
00034491 00000046 542.94 110.83 379.48 526.80 780.41 308.79 893.25 356.65 881.18 417.52 747.34 491.76 844.91 531.84
00034492 00000047 538.68 112.71 385.58 532.26 769.37 323.47 892.02 365.51 866.11 419.41 740.68 491.00 837.71 526.43
00034493 00000048 541.26 107.25 379.28 531.09 772.82 315.57 882.60 359.44 871.51 424.27 734.21 493.26 831.83 532.94
00034494 00000049 532.77 108.49 382.30 544.69 760.02 324.08 881.49 369.49 855.06 419.14 727.32 491.85 826.67 530.43
00034495 00000050 530.89 111.75 381.08 537.27 754.69 322.02 882.52 369.99 852.79 415.77 725.21 488.29 829.95 528.70
00034496 00000051 522.58 111.74 385.41 532.10 752.36 316.77 880.44 367.09 854.03 412.75 725.76 484.83 829.14 526.50
00034497 00000052 521.80 111.53 383.03 530.70 750.05 312.19 878.57 364.86 853.13 410.30 723.30 481.07 827.27 524.60
00034498 00000053 521.36 107.22 383.19 539.03 748.37 309.47 878.20 362.78 853.57 409.60 722.08 480.12 828.37 524.50
00034499 00000054 519.37 105.59 383.97 542.18 747.52 308.79 877.16 361.28 852.93 409.71 721.44 481.44 827.24 524.99
00034500 00000055 520.48 106.29 380.54 535.93 748.63 309.59 874.91 359.65 853.25 408.68 725.33 479.75 827.93 521.79
00034501 00000056 529.14 113.22 372.36 532.36 756.82 301.56 881.07 345.47 863.78 408.57 723.35 487.69 831.98 527.36
00034502 00000057 530.44 113.50 370.78 532.93 755.01 303.72 881.14 341.70 865.18 407.88 725.91 489.71 836.66 524.48
00034503 00000058 527.68 110.59 369.97 530.34 753.94 312.94 870.84 352.82 856.28 409.67 731.95 483.09 828.31 516.88
00034504 00000059 532.97 109.35 367.58 532.83 754.67 317.30 874.22 355.52 859.72 409.65 736.91 486.70 834.59 519.25
00034505 00000060 528.27 109.75 372.63 534.81 750.45 317.82 873.64 351.59 861.58 408.06 740.93 489.09 841.81 517.58
00034506 00000061 526.74 108.35 371.95 537.09 751.41 316.00 871.19 347.87 861.76 409.65 742.32 491.33 840.61 518.51
00034507 00000062 524.54 108.61 370.82 534.50 749.49 314.39 866.60 343.29 858.66 412.76 741.00 494.04 834.84 518.70
00034508 00000063 517.76 105.05 378.21 538.11 743.85 311.57 863.36 342.52 854.67 407.13 737.99 489.84 834.60 516.01
00034509 00000064 512.02 103.22 381.48 537.87 739.43 306.12 863.44 343.28 851.77 404.03 731.46 486.69 830.32 517.42
00034510 00000065 515.81 108.20 376.76 539.49 743.89 300.83 868.53 344.44 853.75 404.99 719.20 492.98 825.01 530.44
00034511 00000066 514.65 109.19 379.31 539.97 738.21 302.96 869.65 346.28 850.11 405.68 715.45 494.02 826.13 531.67
00034512 00000067 508.20 107.32 386.50 547.48 736.43 305.29 868.00 347.87 849.21 406.53 715.11 497.14 824.96 533.67
00034513 00000068 512.35 110.27 383.96 545.58 737.07 306.68 869.88 350.03 848.83 408.93 714.40 498.55 826.20 536.00
00034514 00000069 505.20 102.83 392.70 550.98 739.25 307.99 869.42 351.98 847.55 411.55 718.21 492.58 823.82 528.68
00034515 00000070 512.10 104.85 388.47 545.79 742.06 313.95 870.39 355.42 850.64 412.82 724.60 493.34 828.28 527.65
00034516 00000071 515.25 105.21 386.23 541.04 747.20 316.34 870.67 354.39 853.83 412.69 733.45 491.65 832.52 523.26
00034517 00000072 521.74 105.78 382.42 540.10 749.60 321.21 873.27 358.02 855.03 412.34 736.44 491.73 835.95 522.46
00034518 00000073 522.54 108.97 384.63 542.23 752.40 320.96 877.93 359.41 856.26 417.48 732.68 495.48 833.94 527.36
00034519 00000074 525.55 109.09 381.92 543.33 752.18 323.85 879.31 360.23 856.64 419.91 732.77 497.84 834.86 528.19
00034520 00000075 525.68 109.52 383.50 543.08 752.19 323.92 879.74 360.90 856.79 419.28 732.38 497.58 834.53 528.38
00034521 00000076 524.05 110.57 385.13 540.10 752.54 323.94 879.75 362.47 857.76 418.59 733.22 496.05 835.52 528.26
00034522 00000077 524.33 109.74 386.38 542.56 751.38 322.22 879.28 363.48 854.80 418.68 730.97 496.06 834.06 530.41
00034523 00000078 524.73 111.12 387.47 542.48 750.15 319.86 880.27 362.21 852.45 420.29 724.73 495.61 830.76 530.93
00034524 00000079 520.70 106.36 390.17 550.92 746.96 319.17 879.40 364.16 852.19 418.52 720.07 496.13 829.26 533.76
00034525 00000080 519.01 107.01 391.05 550.71 745.13 317.98 878.43 362.71 849.53 418.45 717.90 497.35 827.25 534.65
00034526 00000081 515.04 107.67 392.58 547.68 744.86 317.69 877.23 360.42 848.84 420.22 720.06 498.14 826.82 533.71
00034527 00000082 515.59 110.32 390.55 542.92 745.71 317.72 876.14 357.87 848.99 422.20 720.63 498.21 825.99 531.64
00034528 00000083 517.35 106.91 386.78 544.77 747.63 320.65 876.37 360.11 850.35 422.93 722.88 498.83 824.94 531.68
00034529 00000084 518.78 108.48 385.09 545.86 748.11 323.36 876.59 359.25 853.85 424.68 725.43 500.97 827.93 530.89
00034530 00000085 523.74 111.16 377.37 543.05 749.95 327.90 874.97 358.33 855.22 429.78 727.71 504.72 826.27 530.54
00034531 00000086 524.63 110.09 376.94 545.04 752.14 330.34 876.08 358.97 856.30 432.04 729.97 507.42 826.40 531.77
00034532 00000087 520.97 109.60 379.70 545.99 751.12 328.91 875.28 357.17 855.09 433.34 728.35 507.43 824.87 531.43
00034533 00000088 519.28 112.12 379.55 542.98 746.13 325.17 875.02 357.65 852.88 429.03 722.84 503.66 825.51 531.09
00034534 00000089 516.47 110.00 385.07 545.64 740.76 322.54 875.10 364.23 846.75 422.35 717.09 500.83 825.03 535.40
00034535 00000090 511.91 109.48 393.35 538.55 730.20 326.47 871.63 367.16 838.37 420.25 709.17 498.57 821.77 532.75
00034536 00000091 510.74 111.12 395.26 537.19 723.92 324.88 871.09 369.29 832.37 417.17 703.61 495.22 821.08 531.91
00034537 00000092 509.15 113.93 397.35 532.85 727.35 322.06 872.26 370.53 833.29 417.18 702.39 493.06 818.14 533.00
00034538 00000093 514.73 108.29 393.27 539.22 734.25 319.56 875.52 369.78 838.11 417.86 706.71 493.21 820.20 534.90
00034539 00000094 517.44 109.15 394.63 543.22 742.58 317.94 877.50 367.31 845.41 418.49 712.48 492.55 823.54 533.52
00034540 00000095 521.68 109.85 397.00 545.96 748.39 323.88 880.94 369.03 852.91 419.50 721.02 494.96 830.37 532.18
00034541 00000096 530.29 111.55 390.58 542.89 760.98 326.87 883.28 367.19 858.41 425.12 730.31 496.26 827.34 530.08
00034542 00000097 536.44 112.74 391.99 543.20 763.22 327.39 891.04 367.74 864.01 423.45 740.51 500.08 839.53 533.06
00034543 00000098 540.47 118.09 388.08 529.37 765.76 331.08 895.29 363.68 870.49 423.47 755.09 504.87 851.50 531.43
00034544 00000099 538.30 115.28 389.47 530.88 781.49 322.35 896.94 356.45 885.70 430.88 765.59 512.12 854.36 540.25
00034545 00000100 538.88 118.12 386.57 521.81 781.74 322.20 896.78 354.98 885.48 429.06 765.74 508.99 853.73 535.75
00034546 00000101 538.87 120.69 386.30 525.07 763.81 333.96 892.75 366.10 866.25 424.87 749.08 502.53 845.53 528.71
00034547 00000102 536.04 117.83 386.57 532.78 759.83 333.48 890.11 369.39 861.60 428.50 739.34 504.32 837.30 534.11
00034548 00000103 535.56 116.36 378.14 533.94 757.62 331.07 882.65 366.09 855.45 430.80 728.86 503.75 826.52 533.86
00034549 00000104 521.49 111.54 388.46 542.72 749.70 325.48 879.67 361.49 852.67 428.09 724.71 504.22 826.57 534.32
00034550 00000105 511.99 109.68 396.47 545.88 741.35 321.20 874.73 360.60 845.66 422.94 720.15 502.20 825.51 534.64
00034551 00000106 509.13 107.44 395.97 546.14 737.38 317.94 872.23 359.92 842.87 419.22 716.96 499.31 822.92 533.72
00034552 00000107 504.53 104.25 400.01 553.66 736.11 315.39 870.65 358.37 843.77 416.33 715.10 499.29 823.14 534.54
00034553 00000108 506.27 107.77 397.04 551.24 736.06 316.63 870.89 358.36 843.57 418.68 715.15 500.46 821.84 534.78
00034554 00000109 509.98 107.61 392.60 549.56 736.82 319.69 870.74 360.99 843.19 421.06 716.52 502.40 820.81 536.43
00034555 00000110 507.95 108.42 394.12 553.23 736.18 321.25 870.67 360.99 843.76 423.20 716.18 504.53 822.11 537.31
00034556 00000111 507.43 107.83 395.25 558.69 737.28 320.97 872.16 361.27 845.38 423.50 715.43 505.56 823.47 538.95
00034557 00000112 508.70 106.54 395.41 558.92 739.56 319.82 872.10 359.04 845.17 423.56 713.80 504.65 819.71 537.22
00034558 00000113 513.14 107.96 391.72 553.28 740.25 319.90 872.72 359.24 844.51 422.02 714.06 501.14 821.02 534.02
00034559 00000114 513.35 107.15 393.22 551.09 740.65 320.82 873.15 361.01 844.31 421.34 714.91 499.91 822.02 533.48
00034560 00000115 512.62 111.19 392.79 543.81 741.17 318.50 873.45 362.80 844.02 421.30 711.49 497.04 819.20 534.25
00034561 00000116 516.58 108.61 389.11 542.60 739.60 317.60 873.56 364.43 841.74 418.03 710.21 494.51 818.94 533.93
00034562 00000117 512.67 108.99 392.70 542.59 739.50 314.63 874.80 364.40 842.99 416.51 709.66 493.19 819.78 534.71
00034563 00000118 514.40 107.64 392.89 545.19 739.54 316.01 874.75 362.49 843.28 415.27 712.11 493.63 822.92 532.51
00034564 00000119 518.98 109.02 389.64 545.71 743.44 317.13 875.61 360.92 846.63 417.25 715.49 495.60 824.14 532.26
00034565 00000120 523.64 111.15 386.50 541.59 748.51 323.29 881.32 365.15 853.93 421.84 722.28 498.16 829.20 532.94
00034566 00000121 534.77 115.28 377.94 532.43 753.21 331.88 882.68 368.53 853.44 428.42 725.66 500.51 827.48 531.49
00034567 00000122 539.21 117.37 377.46 529.16 757.93 336.57 884.44 372.01 855.44 431.73 729.34 501.75 826.29 531.56
00034568 00000123 536.87 117.26 381.07 529.80 758.36 338.56 885.64 371.56 856.52 432.21 731.89 503.27 829.06 530.95
00034569 00000124 538.80 118.07 376.23 528.71 756.60 338.93 882.89 370.48 853.77 432.59 729.24 503.25 826.94 530.05
00034570 00000125 526.42 116.25 383.85 536.01 752.58 331.76 881.71 367.11 854.05 430.84 723.99 503.05 825.04 532.92
00034571 00000126 517.96 111.68 389.79 546.97 746.70 328.09 878.13 367.39 851.79 428.32 717.07 503.37 823.75 536.49
00034572 00000127 518.80 107.66 387.69 548.30 742.31 326.30 875.48 364.89 844.87 424.33 713.50 502.03 820.82 534.72
00034573 00000128 510.55 108.18 391.00 544.72 736.36 322.54 871.92 365.14 841.57 420.40 712.00 499.76 820.65 535.49
00034574 00000129 504.58 110.65 394.48 540.20 730.01 321.02 868.23 363.20 837.10 417.93 709.57 497.96 821.14 533.06
00034575 00000130 501.33 109.42 394.92 540.42 729.38 318.81 865.40 359.87 835.26 418.89 708.56 498.07 818.48 532.32
00034576 00000131 504.96 109.40 389.07 540.73 729.25 317.37 862.72 356.20 834.41 418.52 707.70 497.65 816.45 530.42
00034577 00000132 516.16 116.72 379.45 542.46 737.71 313.01 865.88 352.12 846.36 420.09 709.91 503.06 819.25 537.73
00034578 00000133 515.72 110.56 375.25 540.37 740.45 317.44 863.31 348.82 842.95 424.55 716.00 500.31 814.03 527.17
00034579 00000134 518.21 110.86 372.90 536.50 749.73 320.34 863.91 345.97 852.75 430.23 724.43 501.31 813.31 523.89
00034580 00000135 523.27 112.01 372.06 534.68 753.02 322.27 867.74 345.58 859.01 428.90 732.10 501.22 820.79 521.91
00034581 00000136 525.31 113.54 371.24 535.44 754.94 321.18 870.77 345.58 860.06 428.56 735.19 502.51 823.83 523.89
00034582 00000137 523.84 112.55 371.00 534.79 751.65 318.58 866.10 343.83 857.62 424.06 733.77 497.63 824.20 519.75
00034583 00000138 516.62 109.66 376.95 534.77 748.20 312.49 865.97 344.40 853.26 420.10 730.23 494.94 821.60 521.62
00034584 00000139 513.55 108.09 382.00 537.50 739.88 313.84 865.91 348.17 848.38 415.24 728.39 494.41 824.83 522.27
00034585 00000140 520.82 113.31 377.67 533.52 741.37 306.90 872.18 345.52 851.38 412.68 720.44 498.94 824.84 532.76
00034586 00000141 517.77 111.16 380.81 537.85 737.81 307.58 872.47 347.92 849.93 412.24 716.34 499.12 825.80 534.46
00034587 00000142 514.07 107.13 384.84 545.34 740.98 308.57 872.87 349.82 854.04 411.50 719.85 500.84 827.53 536.60
00034588 00000143 513.20 108.07 387.28 545.79 745.92 306.45 875.20 349.43 857.66 414.91 719.60 499.73 827.98 537.05
00034589 00000144 517.63 106.95 382.40 538.79 743.78 314.87 868.98 356.22 847.39 414.47 724.56 491.68 823.10 525.53
00034590 00000145 513.53 105.85 388.91 546.98 747.27 315.46 872.18 354.54 854.40 420.70 726.86 497.92 826.47 530.16
00034591 00000146 521.32 107.90 381.30 544.71 750.95 321.09 872.82 355.51 857.09 421.01 733.72 498.49 830.18 527.21
00034592 00000147 526.61 109.64 377.45 540.38 753.22 324.87 875.15 356.98 856.36 419.29 737.69 497.56 833.26 524.31
00034593 00000148 525.67 109.22 381.49 542.19 753.81 323.97 876.23 357.63 856.86 419.64 737.82 496.76 835.63 524.81
00034594 00000149 524.99 107.02 382.33 544.58 751.69 322.10 877.44 357.43 856.73 417.25 734.86 496.10 834.88 525.52
00034595 00000150 526.05 107.06 379.99 542.79 749.18 323.76 873.93 358.39 852.66 417.47 731.54 495.98 830.89 524.94
00034596 00000151 521.03 106.61 385.32 544.02 746.59 320.58 874.92 358.43 849.58 418.96 726.01 496.51 828.32 528.00
00034597 00000152 518.82 105.98 387.73 549.09 745.87 317.43 876.10 359.43 850.24 419.11 721.76 497.37 827.37 532.35
00034598 00000153 518.76 106.68 387.96 547.93 747.35 318.40 875.87 359.56 851.15 419.42 723.98 497.48 828.25 531.71
00034599 00000154 520.95 108.38 385.96 545.94 749.13 320.18 877.23 361.55 852.85 419.00 726.51 496.82 830.38 531.37
00034600 00000155 521.24 107.44 384.83 548.01 751.75 321.15 877.65 361.30 853.94 421.49 727.06 498.28 828.51 531.85
00034601 00000156 519.87 106.74 384.32 548.48 752.29 322.01 875.46 361.58 853.70 424.12 725.32 499.38 824.17 532.36
00034602 00000157 518.02 108.94 386.46 550.01 751.33 322.94 876.74 361.42 854.00 426.65 723.75 502.17 823.63 534.23
00034603 00000158 520.52 108.71 386.49 552.77 750.48 323.11 878.30 362.00 853.59 426.71 722.05 503.24 824.16 535.59
00034604 00000159 520.46 111.67 387.34 547.99 748.99 322.51 879.69 362.85 853.14 424.82 720.57 500.56 826.01 534.15
00034605 00000160 523.93 112.27 386.68 540.95 750.64 321.77 880.33 366.56 849.79 422.04 718.58 495.53 824.43 533.01
00034606 00000161 523.29 110.90 387.52 538.20 749.37 319.02 879.33 367.93 847.56 418.01 716.15 489.42 822.54 530.12
00034607 00000162 519.54 110.49 388.29 532.96 743.71 316.19 878.62 371.55 843.89 416.26 711.00 484.44 820.23 530.24
00034608 00000163 521.67 110.11 385.51 528.67 739.96 321.84 874.95 373.90 839.60 416.98 709.35 484.56 815.90 528.06
00034609 00000164 523.65 109.46 384.81 530.97 744.01 321.39 877.07 373.83 844.48 417.14 713.89 485.46 819.54 529.20
00034610 00000165 519.62 110.57 393.71 537.36 753.34 317.48 881.96 372.46 855.75 414.18 725.24 485.02 829.50 530.05
CROP_BBOX: 318 0 1147 806
