Video ID: 	fcLjUu6D5ck
H: 	1080
W: 	1920
FPS: 	29.97002997002997

FRAME INDEX X0 Y0 W H [Landmarks (5 Points)]

00012521 00000000 800.24 159.12 353.55 528.68 855.68 411.82 992.04 389.79 909.48 492.16 908.70 583.38 1010.68 566.58
00012522 00000001 803.37 154.65 350.01 530.71 855.83 406.15 990.89 386.00 907.00 486.69 906.06 577.78 1008.55 562.59
00012523 00000002 804.24 149.77 348.93 528.78 856.52 400.85 990.27 381.73 906.15 479.90 905.74 572.36 1005.74 558.28
00012524 00000003 804.01 148.97 348.80 524.24 855.54 396.02 988.81 376.74 901.60 475.31 902.33 570.24 999.57 556.37
00012525 00000004 806.91 151.25 345.85 522.32 855.49 400.09 987.27 379.92 898.84 474.80 900.21 570.43 998.35 555.93
00012526 00000005 802.74 150.11 350.82 531.98 852.78 400.21 983.75 385.22 897.63 481.72 899.30 572.43 997.15 561.42
00012527 00000006 804.70 154.63 349.30 538.04 854.07 413.61 983.41 399.57 898.83 496.53 901.49 584.07 998.15 573.35
00012528 DELETE   805.31 167.01 349.30 534.94 852.02 424.29 983.67 408.87 896.10 507.24 901.38 592.02 1002.75 579.83
00012529 00000008 804.18 175.70 350.21 533.53 850.85 426.41 980.23 408.44 896.13 511.73 902.89 592.80 1007.85 577.45
00012530 DELETE   801.48 178.77 351.83 532.52 849.53 428.28 980.86 410.45 896.48 516.53 904.81 592.97 1014.86 576.87
00012531 00000010 800.47 181.56 355.97 528.72 850.26 428.45 985.83 407.90 902.00 517.27 909.53 592.57 1025.55 573.76
00012532 DELETE   799.62 187.59 362.02 522.95 858.46 431.99 989.25 405.25 915.16 518.93 919.62 596.67 1036.92 573.00
00012533 00000012 800.16 183.91 365.48 525.18 861.71 432.56 992.84 407.31 921.27 522.98 923.19 595.30 1041.33 572.57
00012534 00000013 800.21 188.12 366.89 522.97 863.62 436.75 995.62 409.17 927.95 526.98 928.86 600.13 1045.67 575.38
00012535 00000014 800.59 190.43 366.04 526.97 864.56 439.81 995.84 412.03 929.88 533.08 932.42 603.79 1048.86 578.69
00012536 00000015 799.34 196.89 366.04 519.62 864.58 444.59 998.17 413.92 934.33 538.19 936.18 606.84 1054.14 579.12
00012537 00000016 798.15 201.94 365.76 516.56 864.70 448.54 998.73 416.60 935.49 541.40 938.66 609.97 1055.81 581.09
00012538 00000017 798.43 204.64 365.88 516.25 864.70 450.70 999.41 419.50 936.07 545.74 939.80 611.78 1057.20 583.54
00012539 00000018 799.47 205.18 364.34 516.81 863.62 453.27 998.07 423.64 933.46 548.27 937.82 612.52 1055.00 585.61
00012540 00000019 799.13 208.05 362.90 514.05 863.25 453.98 996.98 426.09 931.49 549.38 936.62 613.25 1051.49 587.92
00012541 00000020 798.92 207.42 361.15 516.62 862.53 453.70 995.58 428.12 929.72 550.64 934.32 612.86 1049.43 589.33
00012542 00000021 799.60 207.05 360.25 519.62 863.22 454.27 996.09 427.84 930.95 551.17 935.72 614.03 1051.44 589.71
00012543 00000022 800.95 209.01 359.69 520.00 865.25 455.49 998.89 427.05 934.98 552.83 940.04 615.50 1056.54 589.35
00012544 00000023 802.64 207.11 360.31 525.35 869.54 454.81 1003.35 426.39 940.16 552.08 944.72 621.76 1056.35 596.34
00012545 00000024 802.75 206.77 360.61 522.33 869.69 452.14 1005.72 426.53 939.58 549.96 944.07 625.47 1050.67 603.11
00012546 00000025 801.80 206.88 360.51 516.19 866.47 448.37 1002.31 426.25 933.08 546.35 935.54 619.59 1042.77 600.28
00012547 00000026 800.67 204.83 362.43 519.15 863.91 447.27 1000.07 427.32 928.41 545.94 930.45 618.39 1039.12 600.77
00012548 00000027 801.33 204.98 361.98 521.54 863.45 448.71 998.81 430.36 925.64 547.90 928.51 619.84 1036.36 603.56
00012549 00000028 802.95 207.69 360.92 520.43 865.64 453.41 1000.81 433.63 929.10 552.04 932.97 623.29 1039.35 605.97
00012550 00000029 803.44 209.86 361.37 517.27 867.18 456.50 1003.59 435.36 933.46 555.04 937.12 624.40 1044.43 605.78
00012551 00000030 803.88 213.10 360.52 513.23 869.73 459.46 1004.82 436.54 938.49 557.48 942.36 625.27 1048.45 605.00
00012552 00000031 803.53 212.45 360.54 513.53 870.61 464.32 1004.86 440.82 939.87 557.72 942.13 625.49 1048.76 604.71
00012553 00000032 801.20 212.67 363.47 514.77 868.27 466.20 1006.12 443.02 938.20 556.67 938.34 626.92 1048.43 606.37
00012554 00000033 800.95 211.74 362.97 517.64 867.76 465.22 1003.94 440.81 938.01 557.61 939.00 628.18 1047.07 606.65
00012555 00000034 801.39 212.55 362.27 516.39 868.13 464.66 1003.94 441.06 937.36 557.90 938.30 627.60 1046.55 606.72
00012556 00000035 800.22 211.68 364.01 517.09 866.23 462.76 1003.53 439.54 935.09 557.48 936.75 627.64 1045.09 607.17
00012557 00000036 798.86 212.57 364.80 516.85 864.16 461.99 1001.51 439.95 932.24 557.62 934.91 627.95 1042.69 608.39
00012558 00000037 798.64 211.67 364.30 517.53 863.57 461.17 1000.87 439.92 930.81 557.27 933.47 627.39 1041.20 608.50
00012559 00000038 798.31 211.88 364.28 516.59 863.05 460.46 1001.00 440.01 929.78 557.17 932.87 626.97 1040.72 608.76
00012560 00000039 798.75 211.44 363.79 517.51 863.14 460.06 1000.71 439.93 929.35 556.70 932.49 627.29 1039.47 609.44
00012561 00000040 798.48 212.19 364.13 516.26 863.38 459.48 1000.73 440.12 929.19 556.05 931.90 626.87 1038.03 609.77
00012562 00000041 798.64 210.80 364.23 518.30 863.53 459.13 1000.02 440.15 928.85 555.44 931.18 626.93 1036.49 610.30
00012563 00000042 799.41 210.23 363.18 519.79 863.68 458.86 1000.16 440.33 928.23 555.08 930.39 627.49 1035.52 611.33
00012564 00000043 799.68 209.85 362.33 520.30 863.26 458.07 1000.73 440.45 927.66 555.16 929.77 628.63 1034.35 613.31
00012565 00000044 799.85 208.91 362.26 522.21 863.27 457.70 1000.91 440.53 927.49 555.00 929.39 629.23 1033.85 614.35
00012566 00000045 800.14 207.96 362.06 523.26 863.71 457.65 1001.05 440.64 927.82 554.58 929.41 629.84 1032.99 615.26
00012567 00000046 800.20 208.38 362.06 522.34 863.91 456.32 1001.48 439.85 927.77 554.57 929.91 629.98 1032.43 615.96
00012568 00000047 800.06 207.47 362.43 523.50 864.36 455.73 1001.62 439.29 928.08 554.18 930.23 630.67 1031.71 616.78
00012569 00000048 800.00 205.70 362.90 523.80 864.78 455.38 1002.85 438.89 929.35 554.03 930.96 630.64 1032.20 616.81
00012570 00000049 800.11 206.69 362.66 521.68 864.91 455.54 1004.00 439.66 929.70 554.50 930.21 629.87 1032.54 616.55
00012571 00000050 800.35 207.66 362.26 519.21 865.87 455.98 1005.22 440.46 930.62 554.17 929.77 629.10 1031.94 616.30
00012572 00000051 800.53 207.89 362.31 518.31 865.92 456.15 1006.02 439.95 931.02 553.81 929.43 628.70 1032.63 615.37
00012573 00000052 800.60 207.41 362.58 518.42 865.96 455.74 1006.60 439.38 931.27 553.44 929.60 628.37 1033.55 614.88
00012574 00000053 800.90 207.65 362.64 517.39 865.92 455.47 1006.92 438.56 931.19 553.04 930.54 628.34 1034.49 614.40
00012575 00000054 801.13 207.33 362.94 517.69 866.09 455.37 1007.50 437.52 931.83 552.33 931.50 628.17 1036.52 613.37
00012576 00000055 801.38 205.94 362.43 519.28 866.86 455.17 1007.59 437.33 932.92 551.23 932.12 626.93 1037.65 612.04
00012577 00000056 801.22 207.04 361.69 518.65 867.00 455.62 1007.23 437.04 933.64 551.45 933.34 626.51 1039.26 610.81
00012578 00000057 801.27 207.79 361.76 516.12 866.57 458.29 1005.50 439.34 931.75 553.01 931.80 624.86 1038.99 608.73
00012579 00000058 800.05 206.48 363.68 518.51 864.89 456.53 1005.65 440.38 929.58 549.06 925.34 622.78 1035.96 608.83
00012580 00000059 799.68 208.10 362.71 517.63 862.72 454.64 1003.17 436.88 925.91 546.52 924.04 622.31 1035.90 606.86
00012581 00000060 800.31 205.79 362.33 524.45 861.09 452.91 999.33 432.00 922.24 544.69 923.28 624.19 1034.75 606.19
00012582 00000061 800.35 203.84 360.86 527.31 859.77 451.66 997.11 432.21 918.71 545.27 921.42 625.44 1030.33 608.84
00012583 00000062 799.10 203.26 360.97 528.29 858.18 449.00 994.52 432.01 915.07 544.25 917.93 624.51 1024.23 610.12
00012584 00000063 799.51 201.75 357.33 528.24 857.66 444.30 991.76 430.94 913.20 542.21 915.14 623.84 1016.39 612.70
00012585 00000064 799.93 202.87 356.76 525.84 858.78 441.53 991.50 431.06 913.55 542.19 913.87 623.55 1011.67 614.99
00012586 00000065 801.08 204.18 357.28 524.57 861.14 440.97 993.29 433.93 914.95 545.55 915.95 624.56 1011.22 618.81
00012587 00000066 802.53 205.16 357.01 523.91 861.62 447.21 996.69 439.08 918.49 552.12 918.74 629.07 1014.42 622.42
00012588 00000067 801.75 205.37 356.71 523.82 860.16 451.68 996.80 444.67 919.13 559.79 919.67 631.13 1014.86 625.22
00012589 00000068 801.63 206.97 355.99 523.37 859.88 450.65 995.55 444.73 917.66 558.82 918.26 630.78 1012.86 625.77
00012590 00000069 804.97 203.40 354.84 527.63 861.75 447.06 995.06 439.10 914.64 552.33 921.28 629.71 1016.55 623.21
00012591 00000070 807.73 201.33 352.56 534.91 862.19 443.04 992.26 431.62 911.95 545.32 923.74 626.79 1022.01 616.95
00012592 00000071 808.99 200.41 352.61 534.94 862.44 442.87 992.09 429.42 912.20 543.02 923.44 622.51 1026.85 610.56
00012593 00000072 809.66 203.60 353.92 523.30 864.46 443.89 996.62 430.13 916.91 544.04 924.41 615.80 1033.65 603.15
00012594 00000073 808.19 205.50 359.40 519.83 864.71 445.28 1001.44 431.78 919.35 546.57 923.32 616.15 1036.08 603.78
00012595 00000074 808.76 205.43 358.55 524.12 865.70 452.50 1002.66 437.40 921.35 550.49 926.79 621.86 1037.98 608.53
00012596 00000075 807.23 207.46 360.81 523.27 865.98 456.06 1004.75 441.06 924.06 554.90 929.42 628.30 1036.82 615.43
00012597 00000076 806.68 207.87 358.76 523.76 865.37 455.79 1003.96 442.50 923.71 557.20 929.34 631.07 1032.98 619.85
00012598 00000077 805.23 209.96 358.91 520.35 864.23 454.89 1002.66 440.68 922.46 555.28 928.04 630.78 1030.53 618.95
00012599 00000078 803.91 205.93 359.02 521.36 863.21 450.63 1001.12 438.20 920.44 552.57 924.95 628.15 1025.59 617.97
00012600 00000079 804.12 203.91 358.80 522.44 863.02 449.18 1002.28 435.57 921.15 549.76 924.06 627.21 1026.60 616.14
00012601 00000080 803.82 203.87 359.59 524.29 864.66 451.17 1002.57 434.97 924.69 549.68 929.00 627.98 1031.95 614.52
00012602 00000081 803.79 205.25 359.01 525.23 865.92 454.07 1001.83 436.53 926.02 552.02 933.12 630.49 1033.86 615.88
00012603 00000082 803.28 206.33 359.54 525.80 865.65 455.36 1002.26 438.57 925.65 552.76 931.61 631.36 1033.03 617.46
00012604 00000083 803.27 206.14 360.97 525.48 863.61 455.40 1002.12 439.28 923.23 553.83 927.88 630.69 1031.97 617.26
00012605 00000084 803.33 207.57 360.53 522.23 862.60 454.29 1000.50 439.02 921.30 553.02 924.46 628.35 1028.68 615.63
00012606 00000085 803.47 205.92 360.78 523.16 862.92 452.03 999.97 436.68 921.02 551.03 924.50 626.77 1028.69 613.96
00012607 00000086 803.17 206.07 361.01 522.91 862.29 452.61 998.91 436.81 920.14 551.70 924.23 626.65 1028.31 613.37
00012608 00000087 802.76 205.38 361.12 522.27 861.94 453.09 999.42 438.12 920.33 552.30 923.75 625.78 1028.46 613.06
00012609 00000088 802.54 206.26 360.98 520.78 861.52 453.36 999.14 438.83 919.80 552.48 922.80 625.01 1027.87 612.64
00012610 00000089 802.83 206.27 360.68 521.24 861.52 453.56 998.90 438.88 919.63 552.56 922.59 624.75 1028.32 612.19
00012611 00000090 802.01 207.05 361.59 519.29 861.30 453.22 999.05 439.21 919.54 552.62 922.69 624.16 1028.13 612.11
00012612 00000091 801.77 206.56 361.81 520.29 861.51 453.35 1000.09 439.63 920.94 552.40 922.28 624.61 1028.23 612.79
00012613 00000092 801.16 205.72 361.92 521.27 861.61 452.07 999.61 439.38 920.88 552.68 922.41 625.51 1025.91 614.68
00012614 00000093 801.61 205.57 359.96 523.84 861.82 451.55 998.41 439.68 919.96 552.99 922.76 627.52 1023.87 617.56
00012615 00000094 801.86 205.74 359.54 524.56 860.73 452.87 998.92 440.03 919.31 555.10 922.74 629.54 1025.42 618.61
00012616 00000095 801.92 205.62 360.06 525.79 860.51 453.05 999.15 440.01 918.90 555.24 922.65 630.29 1025.99 619.20
00012617 00000096 802.53 207.20 359.18 523.44 861.52 454.35 1000.28 438.34 921.12 554.29 926.77 630.73 1030.75 617.22
00012618 00000097 802.99 206.86 360.00 525.21 862.11 453.80 1000.33 437.62 920.96 553.53 927.40 630.62 1031.84 616.90
00012619 00000098 802.81 206.38 360.25 522.95 861.33 454.55 1001.60 439.23 920.99 554.30 925.27 629.62 1031.18 616.66
00012620 00000099 802.58 206.74 361.39 522.12 861.29 455.09 1001.53 439.48 920.80 554.18 925.26 629.50 1031.23 616.30
00012621 00000100 802.30 207.31 362.31 520.62 861.75 454.81 1001.35 438.72 921.64 555.08 928.36 630.46 1031.77 616.88
00012622 00000101 802.30 207.21 362.23 520.66 861.70 454.76 1001.71 439.38 921.48 555.66 927.72 630.61 1030.99 617.66
00012623 00000102 802.08 206.92 361.75 521.73 861.22 454.42 1002.21 440.06 920.96 556.12 925.36 631.09 1029.32 619.04
00012624 00000103 801.65 207.09 361.01 521.05 861.11 453.91 1001.51 440.26 920.55 556.76 924.70 631.09 1026.98 619.76
00012625 00000104 801.97 206.06 359.85 524.08 861.49 453.28 1000.45 440.30 920.21 556.11 924.23 630.98 1026.33 620.15
00012626 00000105 802.67 205.94 359.89 525.02 862.18 452.85 1000.00 438.78 920.67 554.57 926.75 631.30 1028.09 619.60
00012627 00000106 803.67 206.07 358.87 524.22 865.11 452.30 1000.22 438.78 923.00 553.60 930.58 631.79 1027.25 620.86
00012628 00000107 804.58 207.15 359.07 522.25 866.60 452.66 1002.01 437.74 925.28 552.79 933.01 631.41 1030.17 619.43
00012629 00000108 805.19 207.80 359.89 521.23 867.26 454.62 1003.27 438.42 926.40 553.52 934.27 631.19 1033.74 617.94
00012630 00000109 804.61 209.78 361.47 519.39 866.36 456.61 1003.64 439.47 926.09 554.31 933.28 630.36 1035.87 616.01
00012631 00000110 804.58 210.39 362.47 518.76 866.19 458.02 1004.76 440.30 926.86 555.57 933.38 630.17 1038.16 615.11
00012632 00000111 804.13 212.28 363.93 514.86 865.36 459.49 1005.52 440.98 927.31 557.25 933.47 628.75 1041.43 612.68
00012633 00000112 803.88 213.81 364.14 510.89 864.55 460.96 1005.70 442.10 927.18 556.97 931.04 625.57 1042.61 608.99
00012634 00000113 802.79 215.26 363.94 509.14 866.49 463.14 1006.77 445.93 931.47 555.41 928.27 623.35 1040.83 608.17
00012635 00000114 803.88 216.34 362.61 508.63 868.69 466.55 1008.81 448.55 933.62 553.72 928.85 624.91 1040.58 609.46
00012636 00000115 803.16 216.02 363.98 514.10 868.28 463.60 1005.99 446.01 932.14 556.02 931.87 629.82 1037.28 614.85
00012637 00000116 803.76 211.23 360.85 519.40 866.57 461.11 1002.83 445.88 928.30 557.87 930.70 632.23 1031.39 619.47
00012638 00000117 802.37 210.72 360.77 520.26 863.65 459.13 998.62 445.20 923.07 559.34 926.49 631.07 1026.41 619.21
00012639 00000118 801.76 210.79 361.16 522.47 861.46 458.49 996.99 445.31 920.10 561.00 924.56 631.02 1025.79 619.46
00012640 00000119 801.88 210.28 361.91 522.93 861.34 458.57 997.70 445.18 920.61 562.04 926.16 632.21 1027.33 620.52
00012641 00000120 801.97 208.91 362.21 524.61 861.70 459.01 998.34 444.74 921.85 561.92 927.45 633.48 1028.41 621.13
00012642 00000121 802.14 208.78 362.27 527.75 862.61 459.92 998.48 444.26 922.80 560.20 928.48 633.83 1030.32 620.32
00012643 00000122 803.54 207.38 360.51 534.62 864.34 460.66 998.34 441.34 923.66 557.48 930.27 633.45 1036.01 616.62
00012644 00000123 803.32 207.93 360.09 534.12 864.16 460.62 998.29 440.82 923.86 558.66 932.71 634.39 1037.97 617.00
00012645 00000124 801.92 209.21 361.41 528.77 863.08 460.19 999.60 442.31 924.54 558.67 930.66 632.44 1036.68 616.63
00012646 00000125 801.31 209.70 362.61 523.57 861.57 459.51 999.53 443.81 922.60 559.70 926.86 629.01 1034.83 614.92
00012647 00000126 800.67 210.65 362.88 521.92 861.21 459.60 999.45 444.01 922.45 558.67 925.22 627.17 1034.74 613.09
00012648 00000127 799.69 210.96 363.41 521.24 861.09 459.70 999.16 443.68 922.61 559.13 926.38 628.07 1034.27 613.65
00012649 00000128 798.84 212.38 364.52 519.10 860.21 459.63 999.22 443.32 922.30 560.81 928.26 630.51 1033.97 615.92
00012650 00000129 798.66 211.07 364.61 523.80 860.41 459.42 997.64 442.42 921.77 559.76 929.27 632.68 1032.67 617.68
00012651 00000130 798.99 209.35 362.79 527.25 860.95 457.14 997.97 441.41 921.49 557.08 928.81 635.36 1028.48 622.08
00012652 00000131 799.03 208.93 361.70 525.49 860.78 455.96 998.16 440.63 920.98 555.95 928.03 634.28 1027.42 621.44
00012653 00000132 799.33 207.26 360.86 528.09 860.81 455.80 996.74 440.76 920.28 555.84 927.35 634.25 1025.77 621.69
00012654 00000133 799.10 207.08 361.63 526.90 860.31 456.39 997.61 441.07 920.51 556.47 926.52 632.87 1027.65 619.79
00012655 00000134 799.54 208.73 362.63 520.80 860.90 456.92 999.76 441.22 922.07 555.28 926.26 629.13 1030.79 615.53
00012656 00000135 799.56 209.72 363.43 515.86 861.21 456.63 1001.53 441.53 923.14 554.40 924.24 624.99 1032.15 611.69
00012657 00000136 798.81 209.95 364.26 513.98 860.86 455.51 1001.17 440.79 922.40 553.12 922.84 623.28 1031.17 610.28
00012658 00000137 799.49 208.77 363.30 515.86 861.00 455.53 1000.96 441.08 922.30 552.99 922.84 623.77 1030.37 611.11
00012659 00000138 799.62 209.24 362.69 518.31 861.19 455.63 999.39 441.02 922.09 554.18 924.56 625.75 1029.98 612.90
00012660 00000139 799.03 208.15 363.91 521.71 860.92 455.47 999.24 440.72 921.64 555.01 925.26 628.37 1029.18 615.49
00012661 00000140 799.01 208.31 364.26 522.53 860.85 455.85 998.61 440.65 921.12 555.44 925.25 629.08 1028.83 615.86
00012662 00000141 798.61 209.01 363.54 522.16 860.13 455.52 997.34 440.82 920.23 555.44 924.25 629.19 1026.66 616.44
00012663 00000142 798.18 208.46 362.98 523.06 859.73 455.03 996.31 440.47 919.76 555.59 924.21 629.48 1025.53 616.89
00012664 00000143 797.19 209.52 363.23 520.52 858.46 454.88 995.79 440.55 918.93 556.00 923.31 629.52 1023.93 617.14
00012665 00000144 796.88 210.10 362.61 519.22 857.50 455.36 995.22 440.79 917.83 556.71 922.55 630.02 1022.94 617.46
00012666 00000145 796.30 210.10 363.04 519.93 856.54 455.48 994.85 440.85 916.71 557.07 921.24 630.50 1022.21 617.84
00012667 00000146 796.06 210.55 363.28 519.33 856.23 455.37 994.57 440.82 916.39 557.09 921.00 630.55 1021.85 617.95
00012668 00000147 795.60 210.11 362.99 519.35 855.86 455.65 994.52 440.84 916.55 557.24 920.97 630.78 1021.87 617.96
00012669 00000148 795.07 211.34 362.84 517.83 855.00 455.94 993.83 441.68 915.43 558.28 919.96 630.83 1020.90 618.40
00012670 00000149 794.67 210.79 362.08 518.38 854.81 455.75 992.84 442.06 915.13 558.38 919.65 630.63 1019.80 618.66
00012671 00000150 794.55 210.46 362.41 518.53 854.84 455.81 992.73 442.10 915.08 558.42 919.61 630.37 1019.80 618.38
CROP_BBOX: 565 0 1396 860
