Video ID: 	CYCU51CH-vg
H: 	1080
W: 	1920
FPS: 	29.97002997002997

FRAME INDEX X0 Y0 W H [Landmarks (5 Points)]

00000996 00000000 549.97 109.31 406.76 680.07 671.85 411.34 870.03 351.00 837.55 506.99 751.27 640.64 922.94 588.51
00000997 DELETE   552.30 109.81 405.27 676.57 671.13 408.15 870.61 346.17 837.31 502.73 752.32 638.53 924.07 584.96
00000998 00000002 555.38 104.01 402.75 679.06 669.92 406.27 869.14 342.26 834.99 500.10 752.95 636.94 923.26 581.46
00000999 00000003 553.73 102.53 404.43 676.10 667.74 401.26 867.09 339.86 834.17 492.07 751.98 632.59 921.13 578.88
00001000 00000004 553.77 102.51 402.60 674.99 666.20 397.80 865.92 338.03 833.68 488.79 750.21 630.73 918.94 578.19
00001001 00000005 549.73 97.43 404.70 677.25 663.81 395.13 864.11 337.75 831.71 486.22 748.34 628.57 916.00 577.81
00001002 00000006 549.40 97.84 403.27 674.15 662.45 394.48 861.99 338.41 829.08 484.12 745.20 626.30 913.55 576.68
00001003 00000007 546.67 98.24 406.27 672.50 660.79 391.68 861.66 336.35 827.64 482.22 744.51 625.93 913.00 576.92
00001004 00000008 542.44 94.18 409.93 675.61 659.50 389.86 860.23 336.47 825.59 481.74 742.89 624.72 911.09 577.30
00001005 00000009 543.18 100.71 408.94 671.74 657.85 390.93 858.51 336.05 824.07 482.77 741.19 625.67 910.12 576.99
00001006 00000010 542.98 100.32 407.36 673.77 656.30 391.21 857.15 336.43 822.10 483.59 739.68 626.50 909.02 577.93
00001007 00000011 541.27 98.50 406.40 675.80 655.00 391.63 854.16 336.12 821.48 483.53 740.05 626.99 907.90 577.83
00001008 00000012 541.05 97.55 405.25 679.20 654.19 392.28 853.67 335.99 820.78 484.86 738.40 627.52 907.45 577.67
00001009 00000013 540.35 98.01 404.66 679.67 652.66 391.62 850.28 338.17 817.92 484.38 736.53 626.60 904.76 578.97
00001010 00000014 537.49 98.10 406.40 682.41 650.53 392.29 847.76 339.63 816.07 484.48 734.26 627.52 901.44 580.59
00001011 00000015 541.37 92.90 399.74 689.22 650.79 397.17 841.31 339.48 813.36 487.19 725.60 634.58 892.35 586.67
00001012 00000016 540.35 93.33 400.79 690.23 650.04 398.54 841.78 340.89 811.81 489.71 723.84 634.74 893.47 586.62
00001013 00000017 539.84 93.98 400.92 690.70 649.47 399.51 842.22 341.26 811.98 490.62 724.71 636.85 893.38 588.44
00001014 00000018 538.24 93.21 402.72 689.79 650.13 399.91 842.22 341.93 810.18 492.41 726.90 636.33 893.74 587.82
00001015 00000019 536.49 93.39 404.17 686.34 649.87 399.15 842.54 342.82 807.41 491.73 728.25 635.17 893.89 587.86
00001016 00000020 535.44 94.25 403.92 685.08 648.16 399.41 841.69 343.65 805.02 492.36 727.85 636.87 892.95 590.00
00001017 00000021 534.07 92.85 401.67 686.79 648.44 398.01 839.56 343.26 805.23 491.05 731.44 638.79 891.01 592.36
00001018 00000022 532.86 94.57 400.07 685.15 649.30 398.57 836.58 345.11 804.90 493.42 737.57 643.47 887.61 597.83
00001019 00000023 532.74 97.37 398.05 684.64 647.88 398.40 833.42 345.35 803.96 493.39 740.17 648.40 883.79 603.10
00001020 00000024 531.16 97.32 398.86 684.46 647.47 399.08 833.12 347.45 803.21 495.04 740.55 650.22 882.83 606.15
00001021 00000025 532.71 100.00 398.32 683.17 646.07 399.89 833.32 347.06 801.37 496.58 738.27 649.90 883.63 604.75
00001022 00000026 530.98 100.95 399.18 683.74 644.06 399.89 834.70 346.85 802.93 499.36 736.22 651.73 885.25 606.24
00001023 00000027 530.87 97.82 398.24 689.02 643.62 400.37 834.91 347.28 803.38 501.27 734.14 651.38 885.93 605.61
00001024 00000028 529.54 97.95 398.88 690.47 642.64 399.02 833.11 346.11 801.89 499.98 731.01 651.10 883.49 605.33
00001025 00000029 525.29 100.30 404.20 690.00 637.83 394.25 833.48 341.02 804.38 492.52 732.49 643.66 886.21 597.36
00001026 00000030 525.68 101.32 405.36 690.09 638.25 393.10 831.93 337.73 803.13 490.11 732.76 641.54 887.83 593.39
00001027 00000031 526.06 99.48 407.03 693.37 637.68 392.86 831.33 334.70 802.63 491.27 730.87 640.26 889.68 589.68
00001028 00000032 533.52 91.60 399.24 699.24 644.07 406.88 833.54 346.66 804.72 492.79 719.73 644.02 886.16 594.36
00001029 00000033 535.30 99.31 400.79 691.81 645.22 405.83 842.63 350.37 804.29 489.66 721.10 630.26 897.88 581.34
00001030 00000034 536.13 90.93 398.77 701.19 642.21 403.31 836.33 341.14 805.73 490.23 705.77 636.94 888.02 586.03
00001031 00000035 536.34 90.11 401.06 705.04 638.13 394.48 831.71 334.21 800.89 484.99 700.03 634.28 884.05 584.02
00001032 00000036 535.19 91.15 401.05 704.66 637.99 391.26 829.17 331.31 799.19 480.90 699.92 633.06 881.64 582.94
00001033 00000037 534.45 89.86 399.77 706.74 637.56 388.46 827.93 330.51 797.63 477.35 701.21 634.15 878.19 585.73
00001034 00000038 532.08 90.81 400.43 702.08 639.82 386.96 829.46 330.14 796.14 477.24 711.65 635.87 880.60 587.92
00001035 00000039 527.73 91.90 405.06 692.02 639.66 383.44 832.43 328.59 801.38 474.83 730.06 630.03 889.70 582.05
00001036 00000040 525.83 90.29 405.74 684.92 637.32 380.14 832.21 325.85 800.29 473.41 727.57 626.74 888.32 579.32
00001037 00000041 527.79 85.45 403.52 683.80 637.00 379.60 830.52 324.25 799.09 472.63 727.02 623.74 887.79 575.83
00001038 00000042 525.88 80.65 405.38 685.30 636.60 378.12 830.26 322.86 798.42 471.63 725.93 621.40 887.10 573.92
00001039 00000043 525.36 80.82 406.19 683.69 635.80 376.61 828.38 321.29 797.15 469.64 724.45 619.42 886.48 571.80
00001040 00000044 526.05 83.44 408.67 682.83 636.53 375.74 828.81 319.90 797.36 468.72 726.15 620.17 887.89 572.13
00001041 00000045 528.45 84.41 408.42 682.83 636.47 375.01 829.77 319.38 796.45 468.23 724.58 619.25 888.95 571.51
00001042 00000046 529.95 83.92 408.94 683.51 634.51 375.61 828.04 318.14 793.43 466.87 719.83 616.75 889.42 567.61
00001043 00000047 530.16 85.19 410.14 683.47 635.51 376.20 829.74 317.15 795.97 467.05 718.39 615.52 891.50 564.90
00001044 00000048 530.20 83.47 410.59 685.54 636.90 375.47 831.63 317.64 796.84 466.17 717.80 614.00 892.85 564.39
00001045 00000049 528.12 84.31 413.06 684.24 636.29 376.14 830.89 317.54 796.58 465.16 717.90 613.74 892.45 563.63
00001046 00000050 529.25 82.93 412.42 684.96 637.98 375.61 832.95 317.63 798.79 465.19 718.96 613.44 893.14 563.82
00001047 00000051 530.14 84.66 412.34 681.82 639.44 375.95 834.36 317.59 800.70 465.70 720.11 612.49 894.39 562.56
00001048 00000052 530.23 84.01 412.07 680.93 639.53 375.45 834.96 317.79 800.55 464.03 721.11 611.93 895.29 562.24
00001049 00000053 529.70 85.57 414.36 678.86 639.46 374.80 836.40 316.63 801.48 463.66 723.38 612.91 896.93 562.73
00001050 00000054 531.21 84.06 413.62 680.63 641.85 374.74 839.48 317.89 804.60 464.08 725.73 612.91 898.91 563.90
00001051 00000055 533.59 86.45 412.11 678.98 643.75 375.74 841.11 319.18 806.02 465.47 727.09 613.62 899.84 564.62
00001052 00000056 533.15 89.23 413.28 677.01 643.52 376.56 841.48 319.60 806.24 467.34 727.65 615.08 899.67 565.78
00001053 00000057 532.46 90.72 413.99 677.16 644.56 377.60 841.86 321.06 806.78 468.34 728.83 615.85 899.90 566.74
00001054 00000058 532.38 92.60 414.53 675.56 644.73 378.90 841.75 322.40 806.57 469.49 729.57 616.44 900.04 567.06
00001055 00000059 532.25 94.53 413.77 675.02 645.02 379.07 841.48 323.56 807.41 469.69 730.27 617.17 899.80 568.64
00001056 00000060 532.08 94.65 413.20 674.64 645.05 379.62 841.86 324.10 807.38 470.41 730.76 617.61 899.94 569.12
00001057 00000061 532.46 92.83 412.45 675.90 645.02 379.78 841.36 324.19 806.85 469.70 731.07 617.91 898.91 569.40
00001058 00000062 532.73 93.24 410.68 676.39 644.94 378.69 839.83 322.18 806.44 469.20 734.04 619.05 898.70 569.83
00001059 00000063 532.83 91.33 409.62 677.14 645.39 378.43 838.59 321.91 806.13 467.53 735.72 619.24 897.52 570.19
00001060 00000064 531.41 88.37 409.08 677.77 644.34 376.41 836.44 320.90 804.25 466.11 736.98 619.05 895.45 570.99
00001061 00000065 531.22 85.66 407.20 674.04 644.41 374.03 837.04 320.07 804.07 465.36 737.48 617.47 893.25 570.74
00001062 00000066 531.39 83.87 406.36 674.53 644.65 373.13 838.47 318.04 805.18 465.26 739.39 617.02 895.85 569.17
00001063 00000067 531.69 85.52 405.48 672.82 645.43 372.68 838.58 317.13 806.41 465.38 741.62 617.77 896.32 569.36
00001064 00000068 532.56 88.48 405.01 673.40 647.68 374.64 839.53 319.74 807.74 465.78 744.22 620.03 896.74 571.88
00001065 00000069 533.50 88.63 404.77 678.31 648.29 372.21 837.62 318.95 808.29 461.46 746.62 623.05 892.41 576.44
00001066 00000070 532.60 92.71 404.89 695.44 650.87 371.26 835.93 319.01 812.73 457.52 754.04 632.28 892.19 585.94
00001067 00000071 531.54 96.43 406.82 707.47 650.57 373.33 837.03 319.49 812.82 455.84 752.46 642.10 892.81 594.84
00001068 00000072 533.20 91.51 406.11 713.95 652.28 369.69 836.94 316.29 813.34 450.47 751.71 639.24 894.01 592.39
00001069 00000073 531.23 87.83 407.81 708.20 652.24 368.67 836.84 315.23 815.14 449.87 754.03 633.12 895.66 586.14
00001070 00000074 533.99 86.33 404.14 695.34 652.42 367.99 835.30 316.12 813.44 448.52 752.20 627.36 892.01 581.79
00001071 00000075 533.96 80.20 400.53 686.96 651.34 362.14 834.89 314.52 810.98 446.23 746.01 619.17 886.10 577.56
00001072 00000076 533.76 76.94 398.67 682.00 650.27 361.24 836.76 315.30 809.98 447.23 742.52 616.52 883.40 576.65
00001073 00000077 532.80 74.47 399.19 669.52 646.36 361.10 836.59 313.58 805.62 448.73 737.73 609.08 885.40 568.20
00001074 00000078 530.43 72.22 400.76 670.72 644.62 359.90 831.75 311.41 803.07 447.05 736.23 606.84 882.90 565.26
00001075 00000079 529.76 74.35 399.83 672.39 642.40 359.77 827.41 309.24 802.36 446.05 735.42 610.05 879.87 566.84
00001076 00000080 526.61 72.19 400.91 681.21 641.13 360.74 822.40 309.85 799.64 446.77 735.79 613.05 875.95 569.42
00001077 00000081 522.87 76.88 403.26 678.07 638.70 363.77 820.16 310.38 797.66 446.59 737.51 616.12 876.28 570.06
00001078 00000082 519.47 78.10 406.94 674.39 634.74 366.76 818.95 310.71 795.32 448.37 735.80 616.79 877.91 568.32
00001079 00000083 518.37 80.01 406.68 671.13 633.38 368.22 819.31 311.13 795.87 450.75 735.25 617.85 879.00 568.49
00001080 00000084 517.44 78.24 406.92 672.42 633.58 368.86 818.80 311.92 796.25 453.42 736.14 618.56 879.08 569.36
00001081 00000085 517.01 79.32 404.60 674.50 632.52 370.43 818.45 312.60 795.94 456.12 735.65 620.10 879.75 570.27
00001082 00000086 517.72 79.36 403.39 673.21 632.06 369.15 818.81 311.81 795.04 457.39 735.02 619.87 878.75 570.42
00001083 00000087 517.98 78.60 402.23 675.01 631.19 368.59 818.68 311.30 794.80 458.27 733.53 619.84 878.47 570.37
00001084 00000088 517.41 77.69 401.89 676.95 630.90 368.85 817.10 311.00 795.16 458.07 733.37 619.79 878.09 569.91
00001085 00000089 520.33 81.12 400.97 674.06 631.40 374.80 820.46 314.59 796.75 455.83 733.90 620.04 883.73 568.24
00001086 00000090 525.33 78.55 392.27 674.61 634.95 380.87 820.64 319.36 799.74 454.74 733.56 619.00 883.11 566.77
00001087 00000091 522.01 78.32 398.31 673.34 633.30 373.40 823.12 315.25 798.68 456.01 733.08 617.50 883.73 567.62
00001088 00000092 520.25 76.01 401.19 674.82 631.08 367.11 821.35 308.85 796.60 456.45 732.26 616.41 882.90 566.28
00001089 00000093 521.24 71.84 400.81 676.72 632.83 365.24 820.93 307.16 797.41 454.24 733.98 614.75 882.22 564.93
00001090 00000094 520.81 73.00 401.16 673.16 634.57 364.96 821.36 305.83 799.61 453.58 738.37 614.77 883.89 564.02
00001091 00000095 521.41 73.85 399.90 669.19 636.22 363.44 822.16 305.19 799.76 450.50 740.91 614.00 882.75 563.85
00001092 00000096 520.88 74.88 399.59 665.54 636.20 363.21 821.22 304.74 800.06 449.82 741.32 613.50 881.60 563.07
00001093 00000097 521.18 74.59 399.25 665.24 636.46 364.27 821.41 305.56 799.88 451.41 740.73 612.46 882.39 561.81
00001094 00000098 520.94 74.99 400.23 665.01 636.68 364.16 821.48 305.57 800.27 452.14 741.20 612.57 882.60 561.94
00001095 00000099 522.03 73.73 400.18 670.31 636.70 365.60 821.74 306.05 800.32 452.66 741.55 613.92 884.44 562.74
00001096 00000100 522.72 74.61 399.60 672.06 635.49 365.53 822.81 305.89 800.61 454.55 739.88 614.71 886.45 563.49
00001097 00000101 522.66 73.54 402.41 674.16 637.76 366.51 824.07 307.14 802.55 456.06 741.34 613.78 889.09 562.75
00001098 00000102 525.06 71.95 400.87 677.84 641.74 367.47 826.25 308.77 805.96 454.16 745.50 614.66 890.71 564.34
00001099 00000103 526.82 75.99 401.54 672.53 645.85 369.37 829.85 312.24 808.23 454.25 748.90 613.72 893.46 564.62
00001100 00000104 529.21 77.96 401.63 670.47 648.23 371.49 832.03 313.09 810.99 454.52 752.98 614.79 897.10 564.39
00001101 00000105 531.81 76.65 400.99 670.45 651.42 372.02 837.48 315.11 813.47 456.21 755.65 614.65 900.09 565.21
00001102 00000106 534.07 83.39 401.61 664.79 653.50 372.77 840.71 316.12 816.02 459.78 757.43 615.97 902.50 566.42
00001103 00000107 533.50 81.84 403.50 667.23 654.65 373.84 843.01 317.67 819.52 460.08 759.47 618.04 905.25 568.56
00001104 00000108 537.61 83.24 402.06 667.75 655.52 374.09 846.02 316.80 821.60 462.00 759.94 618.94 907.87 568.70
00001105 00000109 541.41 82.53 401.84 676.73 657.84 377.63 847.54 316.60 824.91 464.87 763.43 622.99 912.97 569.38
00001106 00000110 545.80 90.32 399.69 673.71 661.10 379.16 853.44 317.83 829.35 466.39 765.39 625.39 916.53 571.32
00001107 00000111 547.73 87.37 399.59 677.27 663.70 379.22 858.72 317.91 832.89 467.94 766.75 626.61 918.95 572.77
00001108 00000112 556.65 77.01 395.90 682.09 668.75 385.07 856.36 316.34 821.63 463.16 765.42 626.10 916.06 566.68
00001109 00000113 560.19 70.34 394.53 688.35 672.90 384.64 865.56 316.55 825.82 462.45 767.70 625.85 921.56 567.07
00001110 00000114 563.01 69.86 393.36 686.00 678.06 385.61 870.47 317.25 831.18 460.41 771.75 622.36 924.60 563.67
00001111 00000115 562.06 70.62 393.90 684.62 679.41 385.44 872.49 316.59 834.18 459.84 772.38 620.59 925.88 561.18
00001112 00000116 562.71 73.38 392.12 686.04 677.80 383.11 868.25 316.56 831.40 460.29 772.03 623.82 921.57 566.47
CROP_BBOX: 158 0 1420 1080
