Video ID: 	ka1In_-U1ck
H: 	1080
W: 	1920
FPS: 	25.0

FRAME INDEX X0 Y0 W H [Landmarks (5 Points)]

00000628 00000000 944.90 211.67 441.44 539.98 1074.09 424.20 1280.35 406.83 1195.52 518.28 1122.78 624.43 1287.39 610.01
00000629 00000001 947.89 209.80 438.05 539.52 1078.04 429.96 1281.70 407.76 1202.91 521.37 1131.86 627.71 1294.89 609.17
00000630 00000002 947.66 214.53 439.42 535.82 1081.26 432.95 1284.61 408.63 1209.53 523.18 1138.42 631.13 1298.74 610.79
00000631 00000003 948.79 217.93 438.88 534.30 1084.67 437.22 1286.14 410.50 1215.35 526.01 1142.60 634.00 1302.28 611.69
00000632 00000004 948.14 217.78 439.71 536.32 1087.36 440.43 1285.42 411.67 1218.74 528.72 1146.09 635.40 1303.28 611.53
00000633 00000005 948.42 216.26 438.79 539.37 1087.60 442.74 1285.77 411.79 1219.98 532.00 1146.14 637.78 1304.36 612.05
00000634 00000006 948.16 217.28 438.53 540.36 1088.27 445.61 1286.30 413.10 1221.35 534.35 1146.42 640.32 1304.45 613.36
00000635 00000007 947.67 220.50 438.37 538.79 1088.43 446.77 1285.94 414.15 1221.58 536.65 1146.70 640.94 1304.71 613.88
00000636 00000008 949.13 223.09 435.31 540.77 1092.32 446.13 1289.33 417.28 1229.37 533.93 1145.24 647.49 1307.82 622.64
00000637 DELETE   948.69 225.15 434.81 539.80 1090.70 446.44 1288.60 417.21 1227.63 534.43 1144.40 648.73 1307.21 623.56
00000638 00000010 946.14 222.78 436.56 538.73 1084.53 448.54 1283.64 415.61 1217.75 539.86 1144.36 643.43 1303.38 615.93
00000639 00000011 945.48 222.65 436.37 539.55 1082.95 448.51 1282.39 415.42 1216.05 540.65 1142.69 644.06 1302.28 616.41
00000640 00000012 943.41 228.11 437.47 535.37 1081.20 448.89 1281.52 417.12 1214.63 541.50 1142.46 644.37 1300.72 617.80
00000641 00000013 946.48 233.30 434.07 533.89 1086.12 447.60 1285.56 417.43 1221.76 536.94 1140.13 650.48 1302.91 624.40
00000642 00000014 943.05 231.03 437.68 532.22 1080.17 448.20 1281.17 416.93 1213.21 542.52 1141.70 644.73 1299.49 618.56
00000643 00000015 946.37 234.18 434.43 532.87 1085.81 447.52 1285.81 417.94 1220.93 537.03 1139.65 650.58 1302.25 624.91
00000644 00000016 945.73 233.34 435.05 533.71 1085.32 448.44 1285.67 418.71 1220.81 537.55 1139.14 651.04 1302.03 625.34
00000645 00000017 945.79 235.01 434.65 532.63 1084.87 449.51 1285.20 419.29 1220.43 538.18 1139.55 652.17 1302.08 626.10
00000646 00000018 942.35 231.38 443.35 534.12 1078.10 451.95 1278.87 412.83 1217.19 541.70 1135.75 654.71 1295.56 619.37
00000647 00000019 942.17 233.03 442.59 533.04 1078.19 453.20 1278.65 414.39 1216.81 542.32 1135.38 655.04 1295.29 619.99
00000648 00000020 942.54 232.38 441.92 533.34 1078.29 453.02 1278.93 414.47 1216.96 542.68 1135.49 655.73 1295.22 620.94
00000649 00000021 946.25 234.47 433.90 534.31 1085.31 450.76 1284.99 421.06 1220.11 539.18 1139.73 653.22 1301.16 627.59
00000650 00000022 946.75 233.36 434.53 535.38 1086.44 450.13 1286.34 420.62 1221.58 539.18 1140.98 653.56 1302.16 628.06
00000651 00000023 946.55 231.80 435.15 537.18 1087.53 450.10 1286.97 421.08 1222.79 539.36 1141.67 652.89 1302.77 627.89
00000652 00000024 947.62 232.89 435.33 536.86 1088.53 449.77 1287.63 421.07 1223.60 539.43 1143.32 653.08 1303.86 628.29
00000653 00000025 948.82 236.59 434.41 533.99 1089.60 449.61 1289.35 420.67 1225.61 540.15 1144.41 653.35 1305.69 628.49
00000654 00000026 949.26 235.68 435.38 534.97 1090.62 449.64 1291.45 421.54 1227.26 540.81 1145.52 653.98 1306.99 629.76
00000655 00000027 949.50 235.30 436.24 536.90 1091.65 450.56 1292.75 422.79 1228.92 542.24 1146.70 655.15 1308.03 631.27
00000656 00000028 949.33 232.22 437.97 541.37 1092.15 451.67 1293.42 424.14 1229.36 543.82 1146.51 655.59 1308.06 631.89
00000657 00000029 950.54 235.03 437.98 540.33 1092.29 453.97 1293.36 425.38 1229.84 544.92 1147.96 657.45 1309.49 632.94
00000658 00000030 951.24 233.70 438.07 541.33 1092.58 456.29 1293.21 427.72 1229.05 546.48 1147.99 658.34 1308.64 633.83
00000659 00000031 952.48 244.41 437.04 531.17 1092.94 457.51 1294.24 428.93 1229.88 547.13 1148.48 659.10 1309.92 634.87
00000660 00000032 953.35 247.87 438.03 528.89 1093.41 458.81 1295.27 430.21 1230.45 549.10 1148.44 659.52 1310.74 635.38
00000661 00000033 952.96 246.89 439.18 530.23 1093.64 458.66 1296.12 430.28 1231.36 549.40 1148.52 659.47 1311.62 635.45
00000662 00000034 954.87 247.47 438.79 529.87 1093.80 459.65 1296.19 430.82 1230.54 550.21 1149.00 659.15 1312.86 634.65
00000663 00000035 955.69 241.40 435.64 538.46 1095.14 467.43 1296.22 438.38 1229.17 552.17 1146.01 659.66 1310.60 635.94
00000664 00000036 955.25 247.12 436.86 532.71 1094.23 465.30 1296.09 436.49 1228.96 552.69 1147.01 659.11 1311.80 635.44
00000665 00000037 956.99 246.24 438.14 534.09 1095.14 463.03 1295.87 434.11 1230.43 553.35 1148.45 658.38 1313.79 634.15
00000666 00000038 957.07 246.74 438.64 532.89 1094.52 462.33 1295.65 433.51 1229.93 553.13 1148.15 659.34 1313.49 634.85
00000667 00000039 956.87 245.04 439.06 535.25 1093.92 462.48 1294.91 433.32 1229.47 553.70 1148.37 659.44 1313.58 634.53
00000668 00000040 956.86 242.79 438.98 537.30 1093.41 463.05 1294.42 434.21 1228.41 553.94 1147.64 659.74 1312.85 634.94
00000669 00000041 956.35 242.90 438.72 536.95 1092.44 464.30 1293.21 435.08 1227.31 554.09 1146.45 660.42 1311.59 635.35
00000670 00000042 956.04 242.57 438.69 537.51 1091.97 464.78 1292.68 435.72 1226.14 554.09 1145.69 660.66 1310.69 635.71
00000671 00000043 955.93 248.20 436.86 534.16 1090.40 467.01 1290.37 438.89 1223.47 554.61 1143.43 661.54 1308.56 637.75
00000672 00000044 953.93 250.97 437.88 532.51 1088.31 469.13 1288.98 441.62 1220.59 554.96 1141.07 662.60 1306.89 639.41
00000673 00000045 951.85 247.76 438.42 535.64 1087.50 470.36 1287.70 443.25 1218.97 555.82 1139.63 663.10 1305.07 640.25
00000674 00000046 949.69 249.69 439.55 534.27 1084.79 472.13 1285.77 444.52 1216.51 555.99 1136.91 663.62 1303.61 640.36
00000675 00000047 948.91 245.79 438.09 540.74 1083.76 473.07 1283.58 445.00 1214.65 557.06 1135.82 665.01 1302.20 641.21
00000676 00000048 947.72 245.67 436.80 541.56 1082.03 474.84 1281.38 446.17 1212.69 557.42 1134.32 666.39 1299.97 642.18
00000677 00000049 946.72 247.86 436.64 541.63 1079.86 476.39 1280.15 446.97 1210.80 558.20 1132.19 667.72 1299.37 643.00
00000678 00000050 946.42 253.95 436.72 535.90 1077.49 476.14 1279.08 446.59 1208.59 558.98 1130.64 668.17 1299.06 643.38
00000679 00000051 945.80 255.52 436.46 535.58 1075.58 476.70 1276.99 447.09 1205.88 560.45 1128.65 668.91 1297.24 644.06
00000680 00000052 945.42 256.58 436.08 537.70 1073.45 481.45 1273.46 449.65 1202.80 566.29 1125.97 671.45 1295.79 644.80
00000681 00000053 944.25 262.51 436.63 538.08 1071.00 487.44 1269.07 454.65 1197.87 575.67 1122.63 675.89 1291.81 648.35
00000682 00000054 941.59 275.77 438.28 525.94 1066.19 490.83 1269.74 461.67 1192.58 583.46 1118.23 679.52 1288.14 655.09
00000683 00000055 939.00 273.99 440.40 527.69 1063.10 489.25 1265.10 458.76 1188.59 580.83 1115.47 676.91 1284.98 651.17
00000684 00000056 927.29 266.87 449.76 537.52 1059.68 486.51 1258.16 454.17 1189.61 576.93 1107.43 671.21 1279.72 642.89
00000685 00000057 922.77 254.86 451.09 537.40 1055.43 483.36 1251.08 449.05 1184.21 569.38 1104.25 664.70 1275.52 634.50
00000686 00000058 919.54 250.33 450.76 536.96 1051.51 481.53 1246.88 446.46 1180.01 566.05 1103.24 662.77 1273.48 631.69
00000687 00000059 919.12 247.27 448.25 539.83 1048.81 481.73 1243.98 446.74 1176.70 565.59 1100.89 662.33 1272.47 631.12
00000688 00000060 916.80 255.49 448.37 533.35 1047.27 482.96 1243.01 448.57 1175.11 567.95 1098.73 663.06 1270.39 632.72
00000689 00000061 914.05 257.41 447.47 532.29 1045.21 485.42 1241.70 449.65 1173.94 571.42 1094.53 662.63 1269.04 631.60
00000690 00000062 915.64 259.97 443.88 531.32 1045.46 487.55 1241.38 452.01 1173.54 573.23 1093.01 662.87 1269.00 632.31
00000691 00000063 914.67 258.99 442.77 531.19 1044.30 488.27 1241.10 453.43 1172.62 573.27 1091.15 662.70 1268.24 632.76
00000692 00000064 911.07 262.68 444.48 527.11 1042.03 488.33 1239.73 452.99 1171.50 573.28 1089.03 662.61 1265.84 632.54
00000693 00000065 909.34 266.54 445.44 522.28 1040.15 487.77 1238.34 451.61 1170.13 573.66 1088.00 662.61 1264.38 632.08
00000694 00000066 908.23 271.51 446.04 517.41 1037.88 487.20 1235.72 450.90 1167.32 574.08 1086.65 662.74 1262.09 632.25
00000695 00000067 907.07 270.86 445.15 517.17 1036.20 486.94 1233.71 450.36 1165.77 572.82 1085.05 662.23 1260.57 631.60
00000696 00000068 906.80 271.34 443.68 516.05 1035.16 487.27 1231.78 449.73 1164.50 573.46 1084.71 662.58 1259.28 631.27
00000697 00000069 906.05 273.89 442.58 513.42 1034.20 487.36 1230.59 450.12 1163.66 573.79 1084.01 662.75 1257.86 631.82
00000698 00000070 905.77 274.58 441.25 512.34 1033.86 488.54 1228.98 451.14 1163.08 574.29 1083.73 662.83 1256.68 631.88
00000699 00000071 906.07 272.11 439.71 514.98 1033.67 488.30 1228.20 451.67 1162.30 573.88 1083.22 662.83 1255.58 632.46
00000700 00000072 905.71 274.08 438.61 512.40 1032.98 488.38 1227.56 452.17 1161.44 574.03 1082.24 662.58 1254.81 632.64
00000701 00000073 904.49 276.79 437.20 508.58 1031.59 487.84 1226.04 452.80 1159.89 573.18 1080.83 662.20 1252.45 633.33
00000702 00000074 904.54 275.17 433.66 509.47 1030.58 486.63 1224.41 452.00 1158.39 571.16 1079.57 661.80 1249.79 633.31
00000703 00000075 904.09 271.20 431.46 512.03 1028.85 484.86 1222.49 449.76 1156.86 568.48 1078.60 660.93 1248.71 632.03
00000704 00000076 903.29 269.13 429.48 512.58 1026.79 482.44 1219.74 447.78 1153.82 565.89 1076.36 660.05 1246.18 631.53
00000705 00000077 903.88 267.39 425.88 512.14 1026.69 480.28 1217.79 447.48 1151.50 563.94 1074.81 658.26 1243.23 631.37
00000706 00000078 903.91 260.83 422.74 517.28 1025.40 478.36 1214.89 445.37 1150.21 561.93 1073.80 656.41 1241.42 629.18
00000707 00000079 902.51 261.13 421.21 515.71 1022.78 477.52 1212.10 446.71 1144.88 560.78 1070.86 655.81 1236.93 630.36
00000708 00000080 901.75 257.98 417.84 517.50 1020.26 477.23 1209.63 447.56 1140.58 559.69 1066.16 655.19 1231.73 630.78
00000709 00000081 898.16 262.91 419.12 513.87 1017.38 477.63 1208.23 449.39 1136.82 560.84 1061.67 655.71 1227.70 632.83
00000710 00000082 895.73 263.96 418.54 512.96 1015.93 478.27 1205.90 450.56 1134.58 561.29 1059.39 655.73 1223.39 633.55
00000711 00000083 892.98 264.31 417.31 510.37 1013.15 478.21 1202.36 450.67 1130.64 561.60 1055.78 655.72 1218.11 633.78
00000712 00000084 890.98 264.42 415.88 508.93 1009.69 479.85 1197.82 450.25 1126.83 561.15 1052.98 656.39 1215.40 632.60
00000713 00000085 888.00 263.37 417.49 509.97 1005.95 480.25 1193.99 449.69 1122.10 560.05 1049.17 655.54 1212.11 630.79
00000714 00000086 885.84 263.00 417.59 510.50 1003.57 480.51 1189.58 450.72 1117.73 559.30 1046.96 655.10 1208.02 630.88
00000715 00000087 878.52 260.48 419.94 511.10 994.19 481.53 1180.12 451.68 1111.42 561.20 1039.03 653.14 1201.15 627.34
00000716 00000088 875.79 258.90 419.13 513.02 991.23 481.80 1177.81 452.97 1108.14 561.25 1036.75 654.92 1198.57 629.83
00000717 00000089 873.61 259.88 417.08 514.24 988.21 482.25 1174.40 452.82 1105.01 561.81 1034.74 656.84 1196.33 631.36
00000718 00000090 869.92 260.31 419.44 518.28 985.01 482.53 1172.31 453.20 1102.41 562.45 1033.66 659.55 1195.56 633.96
00000719 00000091 866.59 262.09 420.96 523.09 983.08 482.61 1169.59 454.11 1100.55 562.99 1032.96 662.29 1193.50 637.33
00000720 00000092 864.16 265.70 422.33 527.43 982.43 483.19 1167.06 454.35 1099.72 563.99 1033.66 665.30 1191.74 639.87
00000721 00000093 862.85 263.61 421.34 533.45 981.45 484.29 1164.59 457.76 1097.11 563.90 1032.15 667.22 1186.99 643.61
00000722 DELETE   862.57 266.54 419.30 529.61 981.92 489.66 1162.06 467.46 1093.63 560.80 1029.79 666.62 1181.82 646.63
00000723 DELETE   859.36 266.23 422.09 532.82 979.10 487.85 1158.67 465.57 1090.11 560.30 1026.20 667.24 1176.85 647.34
00000724 00000096 858.73 261.65 424.22 534.64 975.18 482.88 1158.32 461.99 1085.51 560.66 1022.61 667.15 1174.48 648.35
00000725 00000097 858.86 266.43 423.30 529.98 974.63 478.81 1157.72 459.31 1083.74 560.32 1021.49 666.26 1172.43 648.55
00000726 00000098 859.73 264.56 424.88 532.16 974.69 477.24 1158.01 459.00 1081.97 559.27 1019.43 665.27 1170.71 648.55
00000727 00000099 861.84 264.05 425.72 534.36 975.30 478.15 1158.94 460.51 1081.68 560.31 1019.24 666.13 1170.94 649.94
00000728 00000100 863.18 266.79 426.66 532.47 976.80 478.15 1161.21 461.95 1082.56 560.50 1019.66 666.23 1170.77 651.15
00000729 00000101 864.75 266.73 429.57 533.75 980.10 478.12 1164.29 462.62 1085.41 561.50 1022.13 666.04 1173.30 651.59
00000730 00000102 870.25 265.68 429.56 536.10 984.42 478.63 1169.33 464.86 1087.85 560.61 1023.70 665.14 1177.20 652.09
00000731 00000103 875.76 264.13 430.50 537.79 989.94 476.89 1175.53 465.60 1091.53 562.03 1028.16 665.70 1179.26 654.29
00000732 00000104 885.20 258.27 422.50 540.32 996.70 471.30 1185.86 459.67 1097.30 561.54 1032.79 661.66 1186.03 652.21
00000733 00000105 889.91 255.63 425.01 542.23 1002.65 469.80 1194.49 458.55 1105.75 559.52 1038.22 662.14 1192.95 652.87
00000734 00000106 894.71 257.93 428.29 546.02 1010.66 467.67 1202.77 460.48 1113.54 562.02 1044.48 663.08 1197.12 656.96
00000735 00000107 897.83 261.70 434.16 546.10 1018.83 471.92 1207.16 466.96 1119.51 566.22 1051.02 664.18 1202.26 659.62
00000736 00000108 898.75 270.70 441.14 537.83 1023.43 472.04 1214.78 468.04 1125.19 569.78 1055.81 666.61 1206.96 662.93
00000737 00000109 900.96 266.70 440.86 544.45 1027.15 474.86 1218.83 470.10 1131.31 572.03 1061.22 670.54 1212.84 666.07
00000738 00000110 903.15 263.15 439.62 549.53 1029.65 475.16 1222.26 470.26 1136.18 572.75 1065.53 672.86 1217.46 668.03
00000739 00000111 904.33 259.61 439.96 554.05 1030.43 473.81 1223.76 467.53 1138.45 571.54 1067.96 673.59 1220.22 667.39
00000740 00000112 904.34 258.77 441.43 555.84 1031.70 473.38 1225.06 466.57 1141.12 569.80 1069.38 672.15 1223.97 665.34
00000741 00000113 903.41 259.25 443.78 556.22 1032.41 473.09 1227.39 465.51 1143.93 570.13 1069.94 671.62 1228.30 664.09
00000742 00000114 903.18 257.25 445.84 560.41 1033.20 473.69 1229.16 464.96 1146.57 571.27 1070.51 672.10 1231.85 663.60
00000743 00000115 901.59 264.21 448.81 553.34 1033.38 476.30 1232.14 467.51 1147.61 574.94 1068.65 672.30 1234.27 664.09
00000744 00000116 901.61 261.55 447.62 559.68 1034.17 477.67 1235.89 467.59 1151.52 576.23 1067.74 673.79 1239.35 664.43
00000745 00000117 903.25 255.03 448.37 568.11 1038.67 477.49 1240.33 468.01 1158.26 569.37 1069.27 669.04 1247.77 659.90
00000746 DELETE   904.67 252.54 449.26 569.20 1042.08 471.65 1244.97 462.65 1164.50 565.70 1071.80 665.55 1252.54 656.92
00000747 DELETE   909.38 258.39 444.53 552.89 1045.38 464.85 1246.77 454.23 1170.16 560.49 1081.66 663.79 1253.96 653.59
00000748 00000120 909.61 257.56 444.86 540.65 1047.59 463.20 1250.91 450.16 1174.72 557.23 1086.43 661.33 1256.01 649.20
00000749 00000121 911.11 258.25 444.46 533.40 1049.53 462.20 1251.87 449.84 1177.43 555.94 1091.50 658.68 1257.21 646.87
00000750 00000122 913.11 257.00 441.79 533.18 1052.33 461.07 1253.61 449.55 1181.04 555.91 1094.86 659.29 1257.66 647.89
00000751 00000123 912.28 252.30 440.62 535.47 1053.24 459.64 1254.14 447.53 1182.72 556.83 1095.94 659.17 1258.55 647.38
00000752 00000124 911.97 249.90 439.22 535.14 1054.76 457.17 1256.13 444.38 1184.85 553.99 1095.72 656.29 1260.12 643.98
00000753 00000125 912.12 241.73 439.00 540.16 1057.96 450.35 1259.64 439.00 1188.34 549.07 1096.66 652.63 1260.08 641.38
00000754 00000126 911.71 237.10 437.50 542.09 1061.38 446.84 1261.11 434.15 1191.81 540.97 1100.45 648.35 1261.11 635.61
00000755 00000127 914.32 237.91 433.85 537.37 1063.43 443.03 1260.28 429.97 1193.38 534.79 1101.52 643.67 1259.63 630.90
00000756 00000128 915.92 234.22 431.62 539.69 1064.69 440.75 1259.07 426.10 1194.81 532.95 1101.18 640.77 1259.92 627.09
00000757 00000129 916.24 236.46 429.80 535.45 1065.47 438.00 1257.75 423.03 1194.95 530.56 1101.46 638.50 1258.13 624.74
00000758 00000130 915.07 235.31 430.80 533.02 1063.17 436.28 1255.30 421.44 1191.23 527.09 1099.46 635.72 1256.57 621.96
00000759 00000131 914.51 232.09 430.71 536.04 1060.24 432.88 1253.57 418.69 1186.93 524.82 1095.53 634.59 1253.69 621.30
CROP_BBOX: 699 0 1617 991
