Video ID: 	6ud2k9M8ayQ
H: 	1080
W: 	1920
FPS: 	29.97002997002997

FRAME INDEX X0 Y0 W H [Landmarks (5 Points)]

00042437 00000000 974.67 133.72 617.86 763.48 1063.13 372.18 1270.08 423.32 1019.35 515.70 1014.39 670.81 1170.26 712.76
00042438 00000001 967.03 140.63 612.73 755.98 1061.00 386.90 1258.75 424.96 1019.93 514.70 1023.28 678.86 1162.11 709.80
00042439 00000002 974.73 138.78 603.89 752.04 1061.49 371.05 1266.57 418.66 1022.45 514.41 1020.55 668.24 1172.24 707.30
00042440 DELETE   968.36 146.79 608.82 746.38 1060.72 377.40 1271.72 424.27 1027.48 517.29 1020.96 670.65 1177.55 708.84
00042441 00000004 962.76 161.74 614.99 732.80 1061.84 385.67 1273.79 428.53 1035.16 516.87 1023.90 671.13 1182.19 705.95
00042442 00000005 960.75 174.28 609.68 718.39 1067.86 396.14 1280.59 433.56 1050.99 518.63 1033.05 675.96 1186.23 707.04
00042443 00000006 966.51 162.03 629.06 732.68 1088.93 381.07 1298.87 430.78 1062.90 512.26 1040.75 665.92 1188.38 707.76
00042444 00000007 974.67 154.30 633.95 743.74 1102.38 369.55 1306.93 435.68 1065.50 513.22 1043.65 655.54 1189.08 711.14
00042445 DELETE   965.37 147.14 648.08 750.84 1095.54 373.74 1307.49 432.37 1064.35 517.11 1045.60 662.52 1194.79 711.73
00042446 00000009 974.16 149.55 654.84 757.31 1099.62 380.23 1310.49 434.77 1063.89 516.49 1048.11 667.36 1197.40 713.77
00042447 00000010 968.11 159.98 667.31 750.77 1078.75 410.99 1300.71 442.21 1055.56 532.19 1048.57 690.50 1204.53 716.67
00042448 00000011 963.80 164.08 671.10 747.02 1065.99 417.70 1298.19 447.21 1049.08 539.32 1040.38 698.46 1203.46 722.76
00042449 00000012 954.54 183.49 665.17 736.68 1053.59 424.47 1287.60 453.48 1038.24 545.01 1033.35 702.83 1202.61 725.94
00042450 00000013 950.27 187.81 645.39 726.64 1050.13 422.55 1281.92 452.10 1042.51 547.07 1027.33 707.92 1190.42 731.99
00042451 00000014 955.11 192.43 630.32 719.77 1059.70 419.02 1272.78 458.07 1041.18 548.00 1030.10 701.15 1181.76 732.09
00042452 00000015 957.83 191.24 628.86 732.74 1063.70 431.81 1266.88 466.91 1036.24 553.42 1031.07 708.81 1173.27 735.98
00042453 00000016 962.63 193.11 619.75 733.30 1063.66 435.48 1264.19 471.09 1033.20 559.66 1030.70 712.59 1169.38 740.45
00042454 00000017 958.20 180.62 625.45 750.87 1055.50 439.25 1255.40 469.67 1023.53 567.57 1032.17 721.76 1169.13 745.36
00042455 00000018 953.39 196.29 638.69 740.41 1052.13 451.94 1254.10 466.76 1019.71 571.82 1031.57 739.13 1165.00 749.90
00042456 00000019 951.25 187.87 638.56 747.22 1049.22 449.48 1257.21 469.04 1024.77 571.55 1030.35 737.54 1168.13 752.09
00042457 00000020 945.84 188.07 652.47 748.37 1050.24 439.48 1269.22 468.51 1028.97 567.67 1026.94 731.92 1172.67 754.43
00042458 00000021 947.40 199.15 656.62 735.65 1049.39 443.86 1276.16 465.85 1033.36 567.63 1029.40 736.50 1179.01 753.86
00042459 00000022 955.50 194.33 657.07 739.23 1052.50 448.78 1283.99 469.44 1036.23 574.98 1033.12 738.90 1186.40 755.25
00042460 00000023 951.90 197.90 667.61 734.02 1054.14 448.46 1286.85 474.03 1039.47 573.12 1035.37 733.38 1192.87 753.03
00042461 00000024 965.71 182.96 659.17 750.17 1063.20 446.85 1284.77 476.38 1031.75 573.60 1035.00 729.38 1188.31 752.19
00042462 00000025 981.92 183.77 639.80 751.42 1070.59 446.83 1279.68 476.02 1025.36 577.44 1039.81 730.89 1183.71 753.60
00042463 00000026 987.71 186.95 630.23 749.55 1073.23 446.61 1275.78 473.63 1023.13 577.55 1042.94 731.61 1182.95 752.80
00042464 00000027 984.63 187.52 638.50 751.00 1077.92 442.17 1278.10 472.84 1022.22 574.16 1042.70 727.55 1178.22 751.79
00042465 00000028 993.62 188.54 630.12 750.74 1090.78 435.07 1281.92 471.65 1028.99 571.99 1048.00 722.58 1178.32 752.13
00042466 00000029 1003.49 189.55 628.67 746.83 1111.08 426.48 1286.49 468.48 1035.51 565.48 1060.88 712.69 1179.10 746.73
00042467 00000030 998.56 174.20 638.95 760.16 1107.98 416.42 1289.81 462.19 1036.35 560.38 1055.05 707.46 1178.50 744.59
00042468 00000031 998.37 174.78 643.39 758.70 1117.88 407.91 1300.24 458.81 1047.88 553.53 1060.78 699.76 1181.44 741.73
00042469 00000032 999.57 188.15 638.74 748.56 1125.47 411.07 1302.54 461.23 1050.55 548.60 1066.51 697.05 1184.99 738.28
00042470 00000033 999.50 192.36 635.52 732.53 1127.66 396.73 1318.52 456.52 1066.96 534.82 1061.54 691.10 1197.15 741.64
00042471 00000034 1016.22 181.68 630.78 751.46 1130.74 411.17 1316.21 446.63 1066.42 535.06 1074.88 694.93 1200.84 725.27
00042472 00000035 1009.18 181.50 630.01 743.05 1122.70 399.54 1327.08 440.64 1082.06 524.84 1069.88 694.82 1214.92 730.43
00042473 00000036 1006.50 184.62 637.48 738.36 1132.23 394.39 1330.31 443.26 1087.88 523.75 1076.25 689.60 1213.83 731.49
00042474 00000037 1025.68 171.07 619.46 751.99 1149.71 390.31 1330.96 442.88 1091.70 529.57 1093.68 685.79 1220.17 730.98
00042475 00000038 1045.20 166.50 604.78 766.58 1162.46 397.44 1329.10 453.35 1088.34 536.14 1099.28 685.26 1208.05 732.78
00042476 DELETE   1042.71 187.07 603.96 738.71 1162.69 400.12 1332.93 458.39 1099.62 543.74 1101.73 689.55 1224.13 739.38
00042477 00000040 1050.93 177.87 594.34 753.82 1168.14 389.13 1335.13 458.47 1097.40 544.26 1105.27 680.88 1213.49 739.32
00042478 00000041 1055.17 184.91 597.27 744.42 1180.93 397.29 1330.16 460.48 1097.68 543.21 1108.24 694.40 1210.06 744.01
00042479 00000042 1059.48 192.27 583.98 733.64 1172.57 397.51 1321.08 455.83 1088.16 545.65 1108.02 700.09 1207.93 745.49
00042480 00000043 1056.36 189.15 590.10 736.33 1163.89 396.15 1319.42 453.51 1085.53 547.69 1104.76 703.87 1209.19 748.80
00042481 00000044 1061.97 203.01 577.86 727.39 1181.30 389.97 1331.83 463.16 1092.08 553.36 1112.56 690.79 1206.36 750.67
00042482 00000045 1048.43 191.53 602.61 747.03 1174.65 393.03 1332.10 462.14 1088.64 556.41 1107.61 698.07 1203.67 755.15
00042483 00000046 1056.89 199.43 600.83 741.95 1173.94 402.91 1320.18 465.39 1077.13 553.53 1103.58 708.74 1201.61 758.26
00042484 00000047 1052.28 202.25 602.75 742.46 1182.03 406.08 1315.41 471.39 1073.64 556.06 1106.24 706.40 1196.59 757.34
00042485 00000048 1048.64 187.49 606.15 756.56 1181.60 400.18 1324.65 469.77 1078.38 554.71 1110.99 697.61 1198.27 754.43
00042486 00000049 1050.23 195.47 600.70 748.04 1179.47 401.53 1320.72 469.82 1077.74 556.90 1110.75 697.39 1196.77 752.83
00042487 00000050 1051.56 194.57 600.34 746.14 1182.11 405.01 1317.75 472.31 1076.20 557.98 1111.63 697.92 1193.71 752.10
00042488 00000051 1044.66 195.25 607.15 736.59 1172.25 392.93 1329.67 464.42 1089.43 549.01 1103.63 689.54 1214.22 749.38
00042489 00000052 1042.80 199.23 603.42 733.57 1172.69 390.25 1333.49 457.90 1090.62 542.67 1101.09 689.21 1213.54 745.98
00042490 00000053 1048.44 191.85 598.45 746.91 1169.69 383.46 1325.22 456.82 1080.83 547.94 1106.00 687.20 1203.16 747.40
00042491 00000054 1050.59 201.71 590.44 736.05 1177.65 382.22 1330.57 461.13 1088.92 548.43 1110.48 683.99 1204.41 748.67
00042492 00000055 1050.59 195.74 584.21 737.52 1164.89 384.00 1324.66 453.05 1089.20 546.70 1099.57 701.75 1206.95 755.39
00042493 00000056 1040.50 195.28 607.01 741.55 1164.45 389.38 1323.70 460.68 1084.98 551.08 1092.63 704.22 1199.81 759.49
00042494 00000057 1044.47 197.98 612.91 745.05 1170.50 391.11 1331.78 465.60 1083.24 554.88 1104.91 691.94 1206.33 752.84
00042495 00000058 1043.15 198.09 611.39 744.73 1170.82 397.21 1328.31 469.86 1079.99 555.02 1103.01 693.77 1204.34 753.13
00042496 00000059 1037.32 203.06 614.59 736.37 1147.68 411.89 1320.62 474.32 1075.64 559.47 1089.49 702.61 1210.54 755.61
00042497 00000060 1040.36 212.83 599.48 731.43 1159.93 414.14 1312.58 476.67 1071.60 559.85 1097.17 703.81 1196.37 754.07
00042498 00000061 1034.06 210.51 606.19 734.92 1155.48 409.28 1310.81 473.19 1069.02 560.72 1092.79 704.21 1194.89 756.02
00042499 00000062 1035.82 200.31 609.18 742.06 1146.81 412.55 1311.21 469.87 1069.44 558.94 1088.05 705.67 1204.66 754.28
00042500 00000063 1039.09 193.29 599.39 753.64 1171.46 402.91 1311.94 466.25 1076.36 554.73 1105.52 700.18 1193.14 751.63
00042501 00000064 1043.24 193.32 599.29 749.51 1167.47 399.83 1314.19 469.12 1075.37 555.42 1100.50 696.70 1194.86 753.18
00042502 00000065 1042.28 202.01 604.72 743.55 1166.20 400.05 1321.72 466.28 1081.59 555.00 1102.01 698.39 1201.45 752.71
00042503 00000066 1041.66 192.14 615.06 752.22 1164.52 392.20 1331.44 462.26 1084.51 553.56 1100.89 696.01 1206.80 753.68
00042504 00000067 1042.92 192.93 617.50 754.82 1164.59 395.20 1338.81 465.50 1089.86 557.19 1099.41 698.72 1211.83 756.80
00042505 00000068 1045.60 205.35 607.96 739.01 1177.29 395.66 1340.76 470.76 1095.01 555.05 1105.38 692.37 1210.39 753.93
00042506 00000069 1054.06 206.96 609.87 739.31 1188.48 406.76 1335.32 480.94 1094.10 555.30 1109.07 699.95 1208.94 759.08
00042507 00000070 1053.26 212.45 609.01 732.04 1184.77 407.41 1335.61 480.23 1094.34 557.38 1108.64 702.10 1211.37 759.92
00042508 00000071 1055.23 209.79 606.06 736.52 1184.13 404.22 1336.85 475.66 1093.91 556.67 1108.62 703.29 1212.27 760.34
00042509 00000072 1052.52 201.29 604.03 745.37 1179.19 396.07 1330.07 474.26 1091.25 558.65 1107.44 699.19 1210.97 761.67
00042510 00000073 1058.58 192.09 594.30 740.92 1177.92 402.72 1324.95 470.54 1087.57 552.88 1102.83 703.58 1203.95 755.84
00042511 00000074 1056.13 187.46 601.28 748.53 1185.05 390.71 1329.88 467.46 1085.32 550.66 1115.47 685.93 1212.21 748.37
00042512 00000075 1055.44 182.69 598.34 751.82 1177.34 389.72 1326.43 458.95 1087.88 546.16 1115.55 687.32 1213.69 744.22
00042513 00000076 1055.31 195.95 596.39 733.45 1170.94 405.58 1324.83 465.35 1087.40 548.12 1109.18 691.06 1212.94 740.57
00042514 00000077 1045.58 190.19 609.50 750.01 1167.45 394.82 1325.21 458.55 1081.08 541.36 1103.83 685.76 1212.11 738.12
00042515 00000078 1028.28 187.17 612.92 738.31 1136.45 387.48 1331.48 432.92 1092.38 528.89 1088.92 693.78 1228.18 732.83
00042516 00000079 1042.40 165.51 616.24 766.30 1140.74 387.94 1328.47 431.73 1077.38 526.95 1092.36 686.32 1223.67 723.56
00042517 00000080 1044.78 180.40 613.38 746.00 1153.37 369.50 1329.35 430.85 1078.83 523.23 1094.53 676.47 1226.12 725.16
00042518 00000081 1064.95 163.20 589.07 756.23 1177.55 377.09 1322.28 434.27 1084.58 514.36 1115.19 672.94 1226.46 717.94
00042519 00000082 1063.80 162.48 588.94 743.67 1177.41 369.16 1326.88 428.36 1093.14 512.11 1119.14 665.12 1229.63 711.96
00042520 00000083 1069.24 162.87 581.77 736.67 1178.51 362.29 1336.75 423.30 1105.10 507.79 1124.77 661.27 1233.88 710.86
00042521 00000084 1078.32 158.86 574.72 739.34 1192.43 357.41 1340.71 423.19 1110.68 502.32 1132.59 654.61 1231.99 708.12
00042522 DELETE   1080.73 162.35 576.44 730.97 1199.68 352.97 1339.60 414.78 1106.02 499.33 1135.34 653.45 1229.89 702.66
00042523 00000086 1080.54 153.78 583.70 730.62 1183.94 339.51 1348.69 401.68 1102.32 498.15 1119.56 648.17 1240.64 699.56
00042524 00000087 1082.80 145.63 584.71 737.34 1184.40 339.79 1348.91 396.32 1104.35 495.10 1125.89 645.80 1246.42 692.46
00042525 00000088 1089.69 137.55 568.27 744.06 1195.80 330.77 1340.34 398.63 1105.18 489.57 1135.22 640.40 1237.60 695.03
00042526 00000089 1076.46 143.52 576.33 743.79 1192.87 332.52 1334.03 401.04 1097.23 489.82 1128.51 641.76 1230.58 696.34
00042527 00000090 1085.17 131.14 566.68 748.22 1191.14 342.86 1336.21 401.06 1098.39 489.89 1121.65 648.27 1224.15 692.89
00042528 00000091 1063.05 122.76 588.32 764.03 1179.97 328.42 1320.29 400.67 1081.05 490.63 1118.36 639.20 1219.33 696.00
00042529 00000092 1060.19 128.43 588.17 762.02 1176.47 328.04 1315.10 396.39 1078.42 488.76 1118.92 642.02 1219.75 696.31
00042530 DELETE   1056.84 144.06 585.05 740.90 1176.48 340.83 1303.28 402.81 1069.18 488.54 1114.90 644.48 1207.20 692.07
00042531 00000094 1054.82 149.12 591.48 733.04 1168.62 346.62 1318.65 402.48 1075.78 484.03 1105.40 634.56 1218.03 681.89
00042532 00000095 1058.44 135.58 580.97 740.31 1168.64 343.73 1301.30 392.05 1061.66 483.17 1114.09 642.17 1198.76 680.37
00042533 00000096 1053.36 135.72 577.71 741.06 1162.41 342.57 1296.61 394.47 1060.07 483.35 1106.80 640.66 1194.58 681.82
00042534 00000097 1040.33 132.06 601.21 755.11 1147.86 341.84 1305.11 392.99 1057.99 483.28 1088.29 640.23 1205.08 683.84
00042535 00000098 1029.71 130.35 607.07 753.01 1139.61 336.97 1304.59 392.57 1055.74 483.21 1080.73 637.86 1201.24 685.37
00042536 00000099 1026.64 138.67 606.11 749.23 1137.49 338.37 1302.44 395.03 1052.65 484.81 1079.22 636.27 1199.84 684.19
00042537 00000100 1015.09 146.20 595.62 745.14 1140.13 335.71 1290.13 404.50 1048.53 490.58 1077.78 639.45 1178.17 695.17
00042538 00000101 1009.18 149.89 591.86 742.99 1131.55 341.19 1287.23 410.27 1044.98 494.68 1066.60 644.23 1172.65 700.82
00042539 00000102 1012.40 149.63 586.04 752.85 1128.69 345.91 1285.83 419.18 1047.52 503.43 1069.71 649.50 1175.33 709.69
00042540 00000103 1024.22 150.04 571.16 749.08 1133.32 350.28 1286.57 417.30 1051.44 506.35 1078.69 656.27 1178.96 711.15
00042541 00000104 1019.52 150.88 563.77 748.76 1131.49 347.00 1274.74 423.04 1045.96 509.38 1079.84 652.98 1170.22 714.58
00042542 00000105 1009.43 150.75 584.14 754.03 1122.95 347.16 1277.30 427.74 1042.82 510.43 1070.11 653.46 1168.86 719.27
00042543 00000106 1010.90 141.83 587.46 764.31 1121.14 346.01 1274.16 427.01 1039.16 509.70 1069.91 653.02 1169.83 719.60
00042544 00000107 1017.04 140.49 580.25 764.06 1124.02 353.62 1274.85 428.02 1043.99 510.58 1075.08 657.27 1171.39 718.37
00042545 00000108 1025.32 147.16 572.94 754.29 1135.01 353.97 1278.85 425.79 1048.73 509.87 1079.95 658.17 1170.58 716.92
00042546 00000109 1015.75 152.75 592.04 751.38 1135.51 346.54 1290.60 416.45 1053.17 505.55 1071.65 650.37 1178.61 709.07
00042547 DELETE   1024.63 144.27 578.61 757.89 1138.90 345.65 1300.95 425.71 1065.86 509.48 1083.29 651.11 1183.64 717.36
00042548 00000111 1028.73 141.91 587.69 760.80 1142.82 344.32 1304.35 417.68 1064.68 503.82 1086.40 652.25 1187.83 712.80
00042549 DELETE   1036.68 145.20 580.13 746.49 1149.46 342.33 1308.72 413.44 1072.41 502.94 1095.59 645.48 1195.51 703.66
00042550 00000113 1039.61 141.32 593.38 746.60 1151.10 339.95 1310.27 406.82 1067.01 499.88 1096.77 646.85 1196.27 701.29
00042551 00000114 1035.31 116.19 613.98 782.68 1132.79 343.28 1312.48 403.15 1062.97 493.48 1080.25 648.58 1209.98 699.62
00042552 00000115 1039.29 131.53 591.15 754.85 1147.48 342.80 1306.27 403.59 1062.49 497.78 1098.67 646.06 1201.07 695.20
00042553 00000116 1044.55 129.73 592.72 756.89 1157.87 350.60 1304.31 404.20 1060.82 493.65 1106.54 647.65 1201.82 690.08
00042554 00000117 1048.40 134.63 597.61 751.95 1183.08 338.65 1311.26 399.91 1067.61 490.76 1118.36 637.86 1202.72 685.61
00042555 00000118 1050.13 133.64 599.12 748.34 1173.85 332.20 1315.43 399.52 1068.52 488.35 1110.43 634.52 1202.26 688.12
00042556 00000119 1047.11 131.72 601.83 758.42 1163.07 334.85 1320.92 403.63 1070.24 487.80 1096.17 633.22 1214.77 690.79
00042557 00000120 1044.11 137.81 607.99 755.20 1164.75 342.17 1323.23 405.59 1074.05 485.34 1097.46 633.57 1216.94 687.13
00042558 00000121 1052.77 138.73 593.26 756.21 1172.00 339.69 1306.46 399.35 1072.55 491.40 1114.15 650.70 1212.33 696.73
00042559 00000122 1052.01 142.72 595.65 759.04 1165.87 336.21 1308.58 397.40 1070.79 491.53 1111.76 653.81 1212.90 701.18
00042560 00000123 1054.77 145.05 593.86 751.28 1173.06 340.92 1324.73 396.91 1075.96 489.56 1113.45 649.26 1216.71 693.06
00042561 00000124 1058.93 140.74 594.29 764.01 1165.87 340.68 1310.40 396.29 1073.02 496.51 1117.28 661.87 1218.75 705.12
00042562 00000125 1068.50 139.10 594.64 759.87 1174.07 339.29 1320.24 401.02 1078.05 494.49 1118.43 657.35 1221.39 705.73
00042563 00000126 1069.56 135.58 580.65 763.06 1168.14 347.52 1333.97 399.05 1093.71 493.66 1108.42 660.35 1229.95 700.29
00042564 00000127 1056.69 116.77 595.79 784.17 1155.26 345.55 1329.49 398.52 1088.63 489.06 1101.28 655.07 1231.75 696.80
00042565 00000128 1066.14 110.49 587.37 780.43 1158.74 336.81 1330.69 394.18 1091.97 488.74 1112.66 649.59 1238.15 695.19
00042566 00000129 1043.19 124.17 631.17 761.48 1152.97 337.22 1344.77 388.65 1090.27 488.91 1094.78 644.26 1243.54 685.62
00042567 00000130 1013.98 127.53 654.17 763.70 1142.69 324.16 1326.51 386.90 1074.16 491.35 1097.56 642.11 1234.54 690.67
00042568 00000131 1020.24 116.91 633.62 777.70 1139.88 327.58 1325.38 397.10 1074.31 496.02 1093.50 641.44 1230.38 696.10
00042569 00000132 1003.33 109.56 669.78 774.54 1127.51 328.17 1322.04 391.90 1053.32 484.82 1079.89 632.83 1223.31 683.15
00042570 00000133 1001.69 102.63 665.61 774.92 1123.31 326.93 1314.73 394.65 1049.32 487.49 1076.79 629.77 1217.55 684.05
00042571 00000134 1011.24 102.02 651.24 769.28 1130.81 319.33 1311.72 394.76 1052.14 489.40 1080.04 624.25 1215.08 684.94
00042572 00000135 1031.19 110.73 618.50 762.38 1137.12 327.65 1303.16 396.13 1054.18 486.89 1087.44 628.29 1209.98 683.15
00042573 00000136 1032.97 122.36 619.62 742.52 1139.14 333.44 1302.60 395.32 1056.62 487.93 1088.72 631.52 1208.18 681.30
00042574 00000137 1043.68 120.86 606.22 743.96 1145.76 339.87 1302.65 399.89 1061.20 490.53 1094.65 633.62 1208.02 682.42
00042575 00000138 1027.65 128.22 615.87 730.26 1138.23 331.78 1305.85 397.82 1061.39 486.34 1084.80 626.13 1200.25 679.92
00042576 00000139 1045.29 122.86 589.04 737.43 1141.61 327.40 1301.50 392.14 1065.46 484.81 1092.09 626.91 1199.04 679.84
00042577 00000140 1027.47 119.93 598.81 745.22 1127.25 327.66 1298.88 389.62 1059.36 484.20 1078.95 629.36 1194.31 680.34
00042578 00000141 1023.10 108.69 597.74 749.85 1125.01 331.83 1296.90 392.97 1057.72 485.46 1074.36 627.94 1188.55 678.39
00042579 00000142 1030.37 118.38 586.78 739.93 1130.06 338.25 1294.00 396.91 1059.41 489.60 1081.61 629.75 1193.11 678.04
00042580 00000143 1042.98 119.53 577.51 736.40 1151.33 340.28 1306.98 402.32 1070.04 486.60 1089.85 625.64 1194.72 676.48
00042581 00000144 1045.71 131.11 569.08 721.92 1151.92 341.78 1313.67 396.11 1079.73 482.63 1093.73 625.49 1199.86 670.30
00042582 00000145 1039.05 127.44 572.57 721.00 1148.75 335.95 1319.56 400.40 1086.32 483.39 1089.89 617.68 1202.97 671.06
00042583 00000146 1036.88 120.78 578.85 724.99 1148.58 318.38 1321.55 390.87 1084.89 477.19 1085.77 609.06 1201.21 669.28
00042584 00000147 1045.92 132.08 564.20 711.51 1156.04 320.62 1328.03 391.38 1095.99 476.37 1092.01 609.94 1207.25 668.89
00042585 00000148 1045.64 112.47 579.31 733.34 1155.89 314.10 1329.54 384.64 1090.33 470.63 1087.82 607.48 1206.79 666.57
00042586 00000149 1038.46 114.58 583.90 732.52 1154.14 305.32 1337.37 379.18 1091.03 461.36 1086.10 608.04 1209.87 667.75
00042587 00000150 1043.96 130.45 584.46 721.80 1155.91 320.76 1326.56 379.23 1087.90 465.95 1094.87 614.78 1208.87 664.17
00042588 DELETE   1043.52 127.90 579.54 715.51 1143.17 335.59 1314.57 384.71 1083.14 473.60 1091.34 620.64 1209.39 662.41
00042589 00000152 1043.48 118.75 577.46 725.37 1149.59 329.22 1314.65 389.10 1083.90 477.66 1092.77 618.12 1199.20 668.12
00042590 00000153 1034.82 115.76 586.87 726.99 1144.09 336.31 1311.18 392.01 1079.14 478.56 1083.34 618.85 1193.09 665.59
00042591 00000154 1029.78 112.39 587.00 728.10 1136.42 335.74 1305.88 393.30 1076.64 481.67 1082.29 618.00 1193.42 666.17
00042592 00000155 1027.64 106.88 586.88 736.70 1132.28 330.78 1305.08 386.23 1074.53 475.77 1077.14 617.59 1193.78 664.38
00042593 00000156 1031.32 119.61 571.05 720.36 1128.48 328.39 1305.01 385.68 1075.45 469.06 1073.91 620.58 1193.82 667.16
00042594 00000157 1030.49 107.12 591.23 736.79 1137.37 327.17 1296.90 384.48 1063.25 472.89 1073.33 615.65 1184.08 663.06
00042595 00000158 1030.08 116.42 578.76 723.01 1134.25 317.02 1313.57 381.85 1077.31 464.30 1073.16 611.65 1193.73 664.75
00042596 00000159 1038.20 110.45 572.65 723.19 1143.39 304.27 1316.59 374.99 1078.98 460.47 1081.52 606.50 1196.03 664.23
00042597 00000160 1040.94 106.71 573.48 723.90 1140.57 307.03 1310.21 371.92 1077.46 461.32 1090.44 607.67 1204.37 660.09
00042598 00000161 1033.23 102.28 590.69 739.60 1146.50 295.79 1323.62 370.36 1079.57 456.52 1082.55 601.68 1206.16 662.65
00042599 00000162 1032.51 103.98 594.25 732.70 1151.19 286.32 1328.24 369.26 1077.42 453.11 1084.25 593.46 1207.93 661.15
