Video ID: 	LQ-Im7v-56Y
H: 	1080
W: 	1920
FPS: 	25.0

FRAME INDEX X0 Y0 W H [Landmarks (5 Points)]

00004426 00000000 594.61 149.65 443.15 558.28 674.62 381.99 877.87 317.62 785.64 437.34 756.82 587.38 919.69 533.55
00004427 00000001 593.73 157.58 442.82 549.35 670.24 388.61 871.25 322.06 779.89 439.50 753.33 590.71 913.69 534.87
00004428 00000002 588.80 163.73 449.34 545.66 668.52 393.16 869.19 324.94 778.17 442.66 753.50 592.61 912.81 535.34
00004429 00000003 587.74 169.68 453.08 539.69 672.17 396.40 870.08 327.08 784.64 444.97 761.33 593.61 917.50 535.41
00004430 00000004 594.76 181.74 443.30 532.61 685.08 394.00 873.95 324.88 796.88 440.87 768.80 596.10 927.77 536.09
00004431 00000005 598.76 178.51 441.58 536.30 692.56 396.18 879.09 323.60 809.53 437.10 778.42 596.12 937.28 533.48
00004432 DELETE   601.08 179.63 442.76 531.09 697.37 398.50 883.52 319.86 821.07 436.38 791.46 599.17 949.79 531.53
00004433 00000007 605.64 180.01 446.73 536.03 704.06 394.23 894.20 315.76 834.94 437.41 801.11 598.55 964.19 530.65
00004434 00000008 613.11 181.08 445.44 535.82 712.83 391.54 902.71 316.70 844.79 437.28 810.00 596.96 970.55 531.95
00004435 DELETE   623.48 179.01 435.12 531.67 720.53 395.56 906.39 316.88 853.70 438.48 818.69 596.84 975.58 528.78
00004436 00000010 625.19 168.38 435.62 540.66 729.17 395.65 912.93 313.85 868.14 437.08 829.93 597.78 982.52 527.30
00004437 00000011 629.49 165.65 433.99 544.22 736.73 397.59 918.38 310.98 879.20 435.39 837.55 597.60 988.97 523.21
00004438 00000012 627.28 162.24 438.83 544.48 745.71 399.86 932.30 328.59 886.60 432.46 837.39 593.43 990.50 531.44
00004439 00000013 628.37 160.93 437.45 547.26 745.41 400.89 931.01 328.76 883.13 436.51 835.66 593.24 988.58 530.50
00004440 00000014 628.68 163.81 436.04 545.94 739.36 401.29 926.62 324.65 876.84 438.59 833.91 597.98 986.94 531.61
00004441 00000015 627.58 170.27 436.17 538.46 731.43 402.68 919.68 324.25 864.94 439.25 827.64 599.49 982.34 531.64
00004442 00000016 627.19 175.91 435.83 531.23 728.47 401.69 915.05 322.86 859.10 438.35 827.19 599.46 978.36 531.57
00004443 00000017 627.47 177.87 435.40 528.15 726.84 401.24 914.16 324.07 856.41 437.75 823.77 599.10 976.00 532.57
00004444 00000018 629.64 168.32 432.49 539.06 727.81 399.64 915.62 320.77 858.34 437.21 824.37 599.61 977.65 531.38
00004445 00000019 629.13 167.59 434.88 543.07 730.44 398.43 917.96 320.66 860.84 435.26 826.31 599.86 977.32 532.57
00004446 00000020 629.78 164.13 433.87 544.71 733.28 398.75 918.49 318.97 866.43 436.79 830.04 598.48 980.60 529.38
00004447 00000021 631.67 166.33 432.87 542.99 735.24 397.85 921.37 317.19 871.15 435.93 832.12 598.43 983.28 528.74
00004448 00000022 630.29 167.25 434.61 542.71 736.77 394.30 922.73 314.24 874.69 434.90 834.28 596.76 984.62 527.44
00004449 00000023 633.77 173.51 426.96 528.91 738.47 392.66 919.84 311.59 876.60 433.71 832.35 589.85 983.94 519.87
00004450 00000024 634.51 171.09 430.42 532.58 744.87 387.80 921.32 307.11 884.76 427.16 838.27 583.25 987.09 513.56
00004451 00000025 638.41 163.94 428.94 536.27 748.29 388.60 926.02 307.50 887.50 423.14 838.45 580.63 991.42 510.64
00004452 00000026 640.92 155.36 429.83 541.82 753.72 387.98 931.82 308.62 894.83 415.36 843.70 577.10 998.22 508.64
00004453 00000027 637.23 140.11 437.14 549.06 758.08 385.55 934.00 308.50 901.01 408.31 851.38 569.13 1002.08 501.81
00004454 DELETE   644.64 139.40 436.29 543.40 756.88 382.96 937.53 306.33 896.52 406.34 862.52 563.11 1011.29 499.12
00004455 00000029 648.51 129.58 436.72 552.29 762.44 375.35 945.71 298.74 905.47 400.06 865.23 558.85 1021.37 494.89
00004456 00000030 645.04 132.25 439.79 548.69 762.17 368.83 945.80 296.14 905.08 396.90 866.73 555.19 1021.11 493.77
00004457 00000031 639.96 141.14 443.55 540.11 767.06 373.42 943.89 304.82 913.72 396.02 862.95 555.67 1015.25 494.58
00004458 00000032 642.37 133.19 435.73 543.29 763.10 370.88 941.30 302.57 908.35 392.38 859.74 555.68 1013.09 494.76
00004459 00000033 642.68 138.77 431.95 532.85 759.35 371.11 938.60 303.62 900.96 391.89 852.68 555.49 1006.30 495.55
00004460 00000034 638.39 142.39 434.31 536.43 756.32 377.28 934.93 308.27 896.36 395.62 848.40 560.29 1000.87 499.36
00004461 DELETE   633.83 138.71 435.34 542.67 751.23 379.71 930.52 310.93 888.68 398.97 841.61 564.77 993.00 504.14
00004462 DELETE   633.08 144.07 431.70 549.35 743.85 379.36 927.42 311.10 879.29 401.47 832.62 573.14 985.33 513.89
00004463 00000037 625.47 144.63 436.18 554.89 738.00 379.42 919.54 311.66 871.50 401.36 830.85 578.95 977.69 519.90
00004464 DELETE   624.11 154.23 436.48 554.91 730.82 378.91 910.57 304.81 864.19 406.81 825.71 584.02 972.12 520.12
00004465 00000039 620.50 164.32 432.75 533.16 724.87 383.57 907.17 309.55 853.90 413.60 814.93 582.53 966.19 518.71
00004466 00000040 617.01 165.24 435.90 533.48 719.12 384.34 906.41 310.79 845.53 420.59 806.14 581.77 965.39 518.14
00004467 00000041 613.76 168.90 438.81 535.82 717.76 385.03 903.67 309.38 846.22 423.57 806.11 582.32 965.83 516.69
00004468 00000042 613.49 168.63 437.83 535.67 719.33 383.80 903.78 308.66 848.05 428.48 810.13 584.28 965.69 518.92
00004469 00000043 613.84 166.67 441.16 540.27 720.49 384.51 904.23 307.70 849.23 428.25 813.13 586.24 967.88 519.41
00004470 00000044 615.31 165.29 441.22 543.84 721.68 385.42 904.97 307.57 852.04 428.55 816.12 586.50 971.98 518.63
00004471 00000045 618.68 166.69 439.42 540.89 722.52 387.40 905.97 306.10 855.16 426.33 819.72 587.76 975.65 517.23
00004472 00000046 619.81 167.14 438.78 538.02 723.47 387.84 907.02 307.07 856.44 425.42 820.79 587.24 976.60 517.09
00004473 00000047 620.70 164.40 439.34 536.93 726.89 389.52 909.83 307.96 859.33 425.23 822.89 585.54 978.36 514.79
00004474 00000048 619.16 166.57 441.18 533.14 726.18 390.79 909.69 307.75 859.91 425.76 823.07 585.04 979.82 512.98
00004475 00000049 619.20 163.75 441.34 538.00 725.91 390.62 909.91 307.74 860.40 425.95 822.51 585.15 980.04 513.12
00004476 00000050 620.62 161.77 440.12 540.64 726.36 390.62 910.70 308.00 860.07 426.57 821.24 584.90 979.57 513.05
00004477 00000051 621.12 162.42 438.34 538.61 726.47 390.93 910.98 308.88 859.42 427.46 820.75 584.51 979.16 513.11
00004478 00000052 620.98 161.22 438.16 540.90 726.58 390.89 910.93 308.89 859.61 428.54 820.42 584.73 978.63 513.33
00004479 00000053 619.80 161.07 439.19 540.58 724.80 391.01 910.24 309.85 857.65 428.37 819.02 584.58 978.07 513.77
00004480 00000054 621.14 163.14 438.17 536.71 723.63 390.08 908.41 309.33 855.07 430.14 818.16 584.13 976.82 513.59
00004481 00000055 620.24 159.11 438.28 538.06 724.36 389.88 909.55 310.09 855.00 428.09 817.52 582.63 976.23 512.86
00004482 00000056 620.57 161.06 438.33 537.24 723.79 389.49 909.65 309.22 855.44 427.75 817.64 583.44 977.12 513.35
00004483 00000057 620.51 159.90 438.91 538.01 724.41 390.63 909.77 309.29 855.83 428.49 818.25 583.72 977.02 512.73
00004484 00000058 620.91 161.03 438.59 536.85 724.25 390.86 909.67 309.42 856.09 428.31 818.18 583.47 977.45 512.43
00004485 00000059 620.73 159.49 439.43 538.81 724.21 391.30 909.33 309.23 855.83 428.99 818.73 584.07 977.38 512.42
00004486 00000060 621.65 156.83 440.03 544.09 723.83 393.22 909.96 310.13 855.44 428.65 816.06 584.75 978.23 512.25
00004487 00000061 622.13 160.64 439.88 540.01 724.30 393.90 910.47 310.17 856.33 428.67 817.87 585.65 979.14 512.68
00004488 00000062 621.15 157.73 440.51 542.34 724.34 393.21 909.92 310.25 855.52 428.62 817.61 584.97 978.01 512.60
00004489 00000063 620.49 158.57 440.74 541.78 724.63 393.40 909.70 311.99 854.94 429.14 816.35 584.02 976.98 513.01
00004490 00000064 615.61 153.48 445.14 548.09 727.86 392.63 915.29 320.81 856.41 427.87 813.31 579.90 973.99 516.78
00004491 00000065 617.02 156.32 442.00 545.73 727.09 394.42 912.94 321.78 855.48 426.46 811.96 580.71 973.01 517.07
00004492 00000066 614.92 158.22 444.05 550.49 720.46 390.95 911.37 319.16 850.46 429.50 807.60 584.17 974.73 521.10
00004493 00000067 611.40 164.89 444.41 544.99 714.92 390.49 905.98 315.44 846.51 430.28 807.22 587.40 972.42 521.59
00004494 00000068 609.16 163.24 441.68 543.81 711.21 386.73 905.72 310.91 844.30 431.55 803.12 588.27 970.25 521.86
00004495 00000069 608.49 168.40 441.78 538.17 709.02 387.70 903.53 311.49 842.45 430.36 801.31 588.27 970.41 522.03
00004496 00000070 608.95 166.98 439.99 539.50 709.85 385.64 904.15 309.74 842.12 429.40 801.21 586.68 969.67 520.68
00004497 00000071 608.90 166.74 441.71 537.12 714.18 386.12 904.37 310.95 845.14 426.25 805.69 583.73 970.15 518.26
00004498 00000072 613.61 163.74 440.08 541.82 717.17 388.63 904.54 308.50 847.71 423.51 808.99 583.98 972.58 514.40
00004499 00000073 617.07 159.66 435.34 538.48 723.77 386.08 907.45 307.44 854.44 424.75 816.90 584.20 970.43 515.92
00004500 00000074 620.54 161.87 435.59 535.73 728.09 388.39 910.66 307.46 862.96 420.00 823.96 584.32 976.32 514.29
00004501 00000075 626.71 150.69 433.09 540.47 735.71 384.53 917.39 308.23 870.12 415.23 827.36 578.97 978.88 512.67
00004502 00000076 631.32 152.23 429.81 534.47 743.37 384.17 920.65 306.84 879.67 412.37 834.18 573.71 983.77 506.69
00004503 00000077 637.28 152.56 427.61 524.81 749.84 383.38 924.93 306.83 885.19 412.12 838.64 568.85 987.78 502.53
00004504 00000078 643.63 142.58 422.95 529.66 756.47 379.54 929.61 304.63 891.89 406.55 844.92 562.17 991.99 497.42
00004505 00000079 642.70 141.15 425.33 530.09 758.08 377.95 931.59 304.27 894.82 403.39 848.68 561.06 994.77 496.87
00004506 00000080 643.89 143.15 424.22 533.25 758.17 379.60 931.70 306.11 895.75 405.91 847.29 563.02 995.33 499.42
00004507 00000081 638.67 151.60 426.02 527.39 748.91 383.80 926.39 307.58 885.16 412.42 836.86 569.60 988.39 503.53
00004508 00000082 627.22 146.78 430.73 544.92 735.94 381.75 916.52 305.66 871.12 416.05 825.58 576.38 976.67 510.08
00004509 00000083 621.09 159.69 432.10 543.61 725.86 385.16 906.58 308.29 854.66 422.94 818.48 585.82 966.06 519.46
00004510 00000084 619.32 160.42 433.08 551.15 721.67 382.94 907.17 310.14 849.65 426.26 810.79 587.41 964.28 524.24
00004511 00000085 623.54 150.69 432.63 548.84 728.13 382.80 912.85 309.43 858.01 418.26 817.74 583.84 969.02 520.20
00004512 00000086 625.23 145.85 436.87 551.70 736.52 380.00 922.32 308.37 873.85 411.92 827.75 579.70 981.41 516.90
00004513 00000087 632.79 152.14 432.67 542.00 746.21 382.96 927.17 308.77 883.91 410.86 835.22 574.60 988.11 509.97
00004514 00000088 637.49 149.73 426.36 539.97 750.34 384.31 930.20 310.88 888.06 411.97 835.67 572.65 988.91 508.87
00004515 00000089 636.44 165.67 425.06 532.66 747.33 385.05 924.69 308.24 884.85 418.29 833.73 577.19 984.72 511.18
00004516 00000090 626.85 163.90 434.20 536.81 738.70 382.15 918.41 305.76 876.33 424.12 830.32 580.84 979.79 514.44
00004517 00000091 624.33 164.68 436.97 544.08 730.38 385.25 913.05 306.16 864.47 425.52 825.58 586.73 977.47 517.85
00004518 00000092 625.17 167.10 435.06 543.06 728.86 383.80 913.35 306.97 862.53 429.68 822.53 586.29 978.11 519.19
00004519 00000093 624.35 165.98 437.30 539.61 732.51 385.20 916.90 309.18 866.62 428.13 824.84 584.97 979.32 518.64
00004520 00000094 629.62 165.04 432.44 536.97 737.17 385.41 921.01 307.76 875.77 429.58 829.46 584.33 985.27 516.68
00004521 00000095 634.58 164.81 427.72 534.27 740.85 385.66 924.68 309.31 880.91 429.11 829.46 581.35 988.07 515.01
00004522 00000096 631.29 168.28 430.87 533.71 740.42 385.55 923.71 309.32 879.71 431.27 830.45 583.82 986.05 517.53
00004523 00000097 632.44 175.51 429.17 526.75 739.43 386.82 923.66 311.93 878.37 433.13 828.96 585.45 985.42 520.43
00004524 00000098 630.79 168.23 431.32 537.45 737.95 388.60 924.98 316.09 874.23 432.46 827.14 589.79 981.86 526.50
00004525 00000099 631.54 165.17 428.39 540.07 737.16 392.30 925.56 319.95 871.89 433.07 826.54 592.10 981.71 529.04
00004526 00000100 632.93 170.04 428.19 537.95 738.11 391.18 925.75 316.77 874.90 434.95 828.03 592.61 983.61 527.89
00004527 00000101 633.28 171.05 428.78 536.33 738.51 393.01 924.92 316.12 877.46 435.35 831.21 593.03 986.73 526.03
00004528 00000102 634.74 160.49 427.25 545.59 741.85 390.66 928.68 314.64 882.77 434.35 831.79 589.80 988.88 523.36
00004529 00000103 639.37 167.07 425.54 536.32 747.03 394.68 933.74 319.65 888.29 430.46 834.17 589.00 993.24 523.79
00004530 00000104 640.63 165.63 424.74 536.88 747.03 393.60 933.93 319.77 887.81 432.49 833.43 588.86 992.53 524.57
00004531 00000105 640.44 162.46 424.87 542.37 746.22 394.86 932.48 319.38 887.17 433.72 833.71 589.97 992.51 524.15
00004532 00000106 638.19 165.34 425.94 539.41 745.25 395.20 931.04 319.94 885.61 435.35 833.13 590.83 990.08 525.28
00004533 00000107 638.60 169.23 424.88 536.94 743.25 394.97 928.86 318.61 882.51 438.03 832.67 593.32 988.19 526.92
00004534 00000108 638.13 175.92 426.25 533.70 740.38 393.87 927.81 316.34 880.87 439.04 832.29 595.56 988.73 528.24
00004535 00000109 637.65 175.20 425.03 531.56 741.43 394.83 928.26 317.23 881.31 438.46 833.38 595.42 988.12 528.09
00004536 00000110 637.70 174.15 425.40 532.33 741.32 395.05 928.65 317.92 880.94 438.12 832.64 595.17 988.02 528.19
00004537 00000111 637.73 174.20 424.77 530.97 741.76 395.60 927.91 318.55 880.94 439.35 832.25 593.96 987.23 527.02
00004538 00000112 638.07 173.98 424.94 531.08 742.29 395.65 928.42 319.27 881.64 439.91 832.21 593.56 987.27 527.17
00004539 00000113 638.42 173.35 423.95 530.56 743.12 396.62 929.29 320.89 882.13 439.84 831.99 593.74 986.98 528.00
00004540 00000114 638.52 170.27 424.99 537.94 742.79 396.67 929.87 320.61 882.63 439.85 832.06 595.26 988.06 529.17
00004541 00000115 638.89 169.40 424.91 537.27 743.81 398.04 930.96 322.28 881.99 440.51 832.59 595.81 987.82 529.96
00004542 00000116 639.62 167.66 424.98 541.22 744.04 397.80 931.33 322.00 882.74 439.86 831.28 594.86 988.81 529.04
00004543 00000117 639.63 168.74 424.90 538.99 743.64 398.93 931.75 323.45 881.61 441.52 831.69 596.06 989.30 530.43
00004544 00000118 639.60 172.29 426.03 534.54 744.37 398.88 932.65 323.88 883.44 442.47 832.91 596.21 989.92 530.95
00004545 00000119 638.74 173.46 425.99 533.02 743.40 399.42 930.67 324.33 881.43 443.62 832.57 596.67 988.26 531.31
00004546 00000120 635.72 180.75 430.97 529.90 741.82 396.04 931.55 322.55 883.06 445.45 832.80 598.43 990.25 534.34
00004547 00000121 636.75 179.74 432.01 532.01 743.18 397.38 932.68 323.03 883.80 443.96 834.32 599.05 991.75 534.32
00004548 00000122 636.60 178.71 432.74 533.68 743.71 397.32 933.51 323.57 884.06 443.94 834.71 599.48 991.66 535.10
00004549 00000123 636.24 179.26 432.59 531.85 742.45 398.70 931.47 322.94 882.56 445.09 834.90 600.07 991.21 534.01
00004550 00000124 636.36 183.46 431.92 525.57 741.71 397.61 931.40 322.76 881.76 446.87 835.36 600.15 990.91 534.69
00004551 00000125 635.73 182.73 430.78 524.02 741.79 399.06 929.66 323.27 881.15 445.96 835.45 599.70 989.38 533.55
00004552 00000126 635.89 182.67 430.43 525.69 740.91 398.90 929.84 323.03 880.29 446.70 834.79 600.71 989.48 534.45
00004553 00000127 636.24 182.18 430.22 525.19 740.25 399.72 928.93 322.95 878.88 446.74 834.64 600.57 989.46 533.51
00004554 00000128 636.77 180.35 427.65 526.01 740.60 398.95 928.49 322.03 879.67 446.76 834.49 600.08 987.76 532.97
00004555 00000129 634.69 180.15 429.58 526.58 740.79 399.53 928.26 322.86 879.97 446.87 834.56 599.42 987.80 532.55
00004556 00000130 635.36 180.53 428.35 526.69 740.10 398.20 927.44 321.82 879.23 446.78 833.78 599.62 986.72 533.13
00004557 00000131 635.12 181.10 428.61 524.05 739.85 398.79 926.89 322.31 878.05 447.56 833.56 598.75 986.66 532.07
00004558 00000132 634.54 179.55 429.31 527.49 739.73 398.12 926.32 322.36 877.37 446.84 832.66 598.12 986.55 531.98
00004559 00000133 634.68 178.92 428.31 527.57 739.74 397.75 926.38 321.22 878.32 447.00 833.33 598.34 986.63 531.62
00004560 00000134 634.23 179.33 429.08 527.63 739.51 397.78 926.24 321.64 877.96 446.69 833.09 598.48 986.45 532.01
00004561 00000135 634.72 186.23 430.15 522.05 740.60 398.09 926.03 321.20 879.08 448.88 834.06 598.24 987.58 531.31
00004562 00000136 634.55 183.40 430.02 526.43 739.47 397.58 927.29 321.91 878.01 448.11 832.51 599.58 987.15 533.66
00004563 00000137 635.03 184.33 428.47 524.04 739.89 396.74 926.72 321.11 878.71 449.53 833.59 599.07 986.99 533.12
00004564 00000138 635.88 185.29 428.31 523.37 740.19 398.22 926.71 321.96 878.45 449.42 833.86 600.44 986.80 534.04
00004565 00000139 635.71 182.29 428.35 527.27 739.47 398.80 926.94 322.72 877.94 449.74 832.78 600.17 987.16 533.68
00004566 00000140 635.71 178.88 429.25 533.12 740.24 399.18 928.77 324.00 878.97 448.12 833.63 601.12 988.69 535.36
00004567 00000141 635.77 179.10 429.59 532.43 740.36 399.58 928.76 323.44 878.95 447.91 834.31 601.48 989.22 534.94
00004568 00000142 637.21 183.98 428.86 528.01 741.31 399.34 929.32 324.78 879.57 447.78 834.07 601.29 988.75 536.41
00004569 00000143 637.96 181.74 428.15 534.30 741.23 398.45 929.15 324.27 879.45 450.67 833.02 602.94 987.72 538.42
00004570 00000144 637.83 184.63 428.60 530.55 741.80 399.29 927.95 323.17 880.03 451.96 834.87 603.00 987.65 536.82
00004571 00000145 636.52 180.82 429.94 539.64 741.16 397.37 928.64 322.64 880.58 451.60 833.37 603.65 987.93 538.49
00004572 00000146 637.67 181.53 429.26 540.65 741.53 396.33 928.98 321.95 881.34 450.81 833.54 603.77 988.39 538.98
00004573 00000147 636.94 179.29 430.17 543.87 740.99 397.03 929.04 323.14 880.11 451.15 832.69 604.13 987.74 539.73
00004574 00000148 636.35 178.43 431.39 547.50 741.07 396.10 930.16 322.42 881.39 449.58 832.81 604.35 989.28 540.10
00004575 00000149 635.74 176.91 430.63 546.24 741.49 397.70 928.86 323.90 880.91 449.85 832.91 603.51 987.13 539.11
00004576 00000150 636.71 177.75 434.03 549.63 741.28 397.15 929.37 323.27 881.64 447.22 833.63 604.22 990.07 539.75
00004577 00000151 638.10 176.87 432.09 550.41 742.60 397.57 930.61 323.36 882.99 450.04 834.36 604.89 990.36 540.05
00004578 00000152 637.02 177.52 434.51 550.02 741.26 399.03 930.56 324.01 881.84 448.55 834.00 605.43 991.68 539.91
00004579 00000153 638.61 177.05 433.84 548.88 742.88 398.53 931.48 323.84 883.78 448.95 833.71 603.48 992.41 538.15
00004580 00000154 640.43 176.61 431.63 546.81 744.67 397.35 932.47 323.18 885.45 448.55 834.46 601.82 992.71 537.09
00004581 00000155 639.28 170.61 434.02 551.26 745.99 398.94 930.96 324.48 884.93 449.03 835.11 599.79 992.20 534.71
00004582 00000156 637.32 169.80 437.54 547.32 747.97 401.47 932.65 325.00 887.76 447.13 837.43 596.88 994.95 529.97
00004583 00000157 636.46 163.79 439.87 553.19 749.90 402.87 933.59 326.88 889.17 447.26 837.88 595.91 995.86 529.34
00004584 00000158 638.06 165.58 440.39 553.60 752.32 402.18 935.34 325.39 891.79 446.20 839.32 594.41 997.89 527.23
00004585 00000159 639.10 172.11 440.50 544.90 752.76 403.40 936.75 324.84 893.54 446.81 839.99 593.17 1000.42 524.69
00004586 00000160 641.21 175.85 439.24 538.13 754.70 400.82 939.00 323.88 895.97 448.00 840.62 590.53 1001.35 523.46
00004587 00000161 641.58 173.20 439.64 542.89 753.75 400.03 939.66 322.87 895.81 447.72 839.98 591.00 1002.76 523.62
00004588 00000162 641.36 177.54 438.71 536.41 752.76 400.34 939.17 324.49 894.69 449.47 838.38 589.89 1002.31 523.81
00004589 00000163 642.87 174.06 439.17 539.47 754.75 398.62 943.02 324.19 897.41 447.21 839.98 589.48 1004.89 524.33
CROP_BBOX: 427 0 1447 987
