Video ID: 	e8d5_syRoIo
H: 	1080
W: 	1920
FPS: 	25.0

FRAME INDEX X0 Y0 W H [Landmarks (5 Points)]

00000785 00000000 760.05 167.21 372.65 573.42 932.74 427.39 1090.84 422.30 1063.48 515.15 962.65 614.12 1081.14 610.16
00000786 00000001 756.92 163.13 371.21 572.55 928.35 420.78 1086.44 418.27 1059.66 508.43 956.19 605.88 1078.12 604.10
00000787 00000002 752.30 156.49 374.35 573.30 928.22 412.08 1092.55 411.48 1061.53 503.29 944.16 606.22 1076.91 606.57
00000788 00000003 748.52 155.63 373.22 570.28 923.78 410.06 1089.81 409.06 1059.44 497.73 941.80 603.83 1075.64 603.86
00000789 00000004 744.89 155.96 370.50 567.71 919.08 409.56 1085.46 408.75 1055.40 494.07 940.07 602.70 1073.09 602.68
00000790 00000005 738.44 154.47 371.28 564.14 911.97 408.02 1080.06 409.53 1049.40 492.65 935.12 600.22 1067.66 601.51
00000791 00000006 732.31 153.70 372.64 560.55 905.40 409.52 1070.29 408.71 1041.90 488.96 930.16 596.23 1061.53 595.61
00000792 00000007 728.00 155.28 371.61 557.27 896.75 405.86 1061.13 409.60 1030.16 484.79 923.69 592.14 1052.95 595.12
00000793 00000008 721.63 158.46 369.80 554.83 889.40 404.78 1052.57 411.08 1021.65 482.77 915.48 589.08 1044.06 594.09
00000794 00000009 714.49 162.30 369.52 553.48 880.65 405.80 1041.77 409.52 1012.37 481.51 907.73 589.24 1035.67 592.15
00000795 00000010 710.02 162.39 370.12 555.16 871.83 403.55 1035.61 405.76 1005.37 478.79 900.46 588.09 1030.54 589.78
00000796 00000011 705.27 158.27 370.30 556.12 865.65 402.08 1029.44 401.78 1001.30 476.67 895.84 586.97 1025.17 586.80
00000797 00000012 698.66 156.83 371.18 559.42 862.02 403.96 1024.09 403.01 997.62 477.26 892.01 585.89 1020.85 585.36
00000798 00000013 690.39 152.81 376.31 562.69 857.23 404.68 1020.01 404.20 993.24 479.53 887.73 586.67 1016.63 586.37
00000799 00000014 686.94 152.16 375.75 561.82 852.86 406.54 1016.09 405.60 988.50 482.73 883.83 587.95 1013.01 587.15
00000800 00000015 684.47 154.39 374.82 559.93 849.83 410.99 1011.86 408.32 984.50 487.23 881.72 592.79 1008.85 590.62
00000801 00000016 682.02 159.76 372.68 557.40 849.03 416.89 1012.82 416.26 981.87 490.12 878.70 595.42 1007.58 594.91
00000802 DELETE   684.23 161.22 368.26 559.60 852.50 421.96 1017.07 423.42 981.83 500.87 868.40 603.04 1004.14 605.23
00000803 DELETE   678.18 159.16 371.99 561.23 841.92 423.68 1013.76 422.82 974.62 504.87 861.08 607.69 1001.61 607.87
00000804 00000019 672.33 158.59 376.82 561.16 834.36 423.87 1008.87 422.84 966.29 507.22 856.83 610.57 995.67 610.23
00000805 00000020 666.48 161.07 378.03 557.75 826.23 424.34 1003.60 424.66 958.71 509.37 851.42 610.85 989.94 611.01
00000806 00000021 662.31 163.25 377.30 555.44 817.67 426.45 993.71 427.71 946.02 511.27 844.99 611.19 981.31 611.75
00000807 00000022 657.93 166.38 377.72 553.18 812.27 426.77 989.38 428.06 940.06 511.37 842.17 612.01 978.23 612.20
00000808 00000023 656.46 167.52 375.55 553.87 806.98 427.65 983.32 429.21 933.15 511.72 837.30 612.37 972.97 612.91
00000809 00000024 655.38 169.53 374.86 552.24 804.01 427.46 980.77 428.95 929.32 512.11 834.44 612.88 970.09 613.54
00000810 00000025 654.53 171.53 373.29 551.71 800.94 427.49 978.58 429.53 926.54 512.12 831.86 613.48 969.12 614.63
00000811 00000026 654.34 173.28 371.95 550.00 799.52 427.46 976.93 430.98 923.48 511.85 829.68 612.82 967.78 615.08
00000812 00000027 653.23 174.33 371.81 549.73 798.55 427.07 975.29 430.32 922.54 512.17 828.89 613.14 965.79 615.27
00000813 00000028 651.28 173.72 372.66 550.17 798.26 427.17 974.69 430.48 922.82 512.38 828.28 613.15 964.10 615.42
00000814 00000029 649.72 174.70 373.11 549.05 798.04 427.12 974.08 430.81 922.71 512.77 827.41 613.29 962.62 615.96
00000815 00000030 648.00 174.29 373.87 548.62 798.55 427.17 973.81 431.82 923.44 513.24 827.20 613.36 961.77 616.77
00000816 00000031 646.44 175.20 373.45 549.20 798.87 427.06 973.40 431.55 923.69 514.37 826.27 613.32 959.93 616.75
00000817 00000032 643.79 176.46 373.90 550.86 799.09 428.24 972.16 432.94 923.65 515.86 825.28 613.59 957.06 617.30
00000818 00000033 639.96 177.85 374.33 549.59 797.71 430.42 969.84 434.40 923.82 517.18 825.08 614.54 954.63 617.53
00000819 00000034 637.58 177.90 374.65 548.72 796.03 431.56 968.46 435.28 923.40 517.24 823.45 615.14 953.08 617.93
00000820 00000035 633.55 179.31 375.60 548.38 795.10 431.66 966.28 435.27 922.36 517.71 822.02 614.71 949.88 617.51
00000821 00000036 627.30 177.56 378.86 550.22 792.58 431.23 963.33 435.15 920.74 517.30 819.93 613.95 946.97 616.89
00000822 00000037 623.71 176.02 379.16 553.45 791.00 431.43 959.04 434.43 918.71 517.78 818.83 614.73 943.27 616.89
00000823 00000038 621.78 175.67 379.10 554.48 790.58 431.69 958.44 433.81 919.70 518.86 817.61 614.66 943.01 616.15
00000824 00000039 621.08 175.67 378.01 554.83 790.15 431.44 956.17 433.82 919.14 518.88 817.15 614.25 942.07 615.92
00000825 00000040 618.83 175.80 378.99 554.41 789.04 430.74 956.31 432.98 919.21 518.99 815.99 614.45 941.65 616.17
00000826 00000041 616.79 174.65 379.87 555.38 788.41 430.35 955.48 432.20 919.03 518.29 814.45 614.23 940.51 615.77
00000827 00000042 615.38 173.83 380.40 555.55 787.61 429.14 954.85 431.73 918.54 517.47 813.64 613.41 939.84 615.65
00000828 00000043 613.90 171.63 380.98 558.22 786.36 428.39 953.69 430.89 916.96 516.84 810.99 612.61 937.90 614.88
00000829 00000044 611.27 171.94 381.08 556.60 785.28 426.39 952.47 429.93 915.42 516.04 809.15 611.73 935.46 614.98
00000830 00000045 609.40 169.15 379.43 560.34 783.55 425.36 951.05 428.61 914.81 515.02 806.94 610.97 934.14 614.02
00000831 00000046 607.06 166.82 379.31 563.12 781.30 424.10 949.62 428.95 913.48 513.54 803.69 610.35 932.95 614.62
00000832 00000047 604.40 165.55 379.96 565.10 779.29 423.17 948.44 428.64 911.58 512.83 801.19 610.11 931.74 614.89
00000833 00000048 603.80 159.62 380.34 568.23 780.65 419.18 951.29 423.64 912.85 515.69 794.41 613.88 929.29 618.19
00000834 00000049 601.58 158.52 380.89 569.75 779.61 418.18 951.75 423.55 912.56 514.68 793.18 614.06 929.04 619.07
00000835 00000050 600.31 157.01 381.62 571.19 778.86 417.18 951.69 422.21 912.98 514.97 792.76 614.44 928.76 619.14
00000836 00000051 598.34 155.88 381.73 571.27 777.15 415.13 951.61 422.06 911.28 513.44 791.67 613.95 927.11 620.18
00000837 00000052 597.48 155.64 381.86 571.84 775.51 414.54 951.58 421.11 911.17 513.31 790.60 614.12 927.31 619.97
00000838 00000053 594.66 153.17 384.00 574.48 774.49 415.07 950.46 420.91 911.25 513.01 790.99 614.54 927.30 619.57
00000839 00000054 592.98 151.37 384.87 576.45 773.14 415.60 948.75 421.41 909.84 512.97 790.27 614.45 926.61 619.31
00000840 00000055 592.60 153.15 384.66 574.32 773.03 415.47 948.86 421.26 909.84 512.18 790.17 613.90 926.84 618.73
00000841 00000056 592.83 152.52 384.84 574.72 773.40 414.95 949.14 421.15 910.17 511.74 790.35 613.45 926.82 618.66
00000842 00000057 592.74 152.04 384.81 574.89 773.18 414.63 949.45 420.77 909.94 511.75 789.87 613.35 926.74 618.46
00000843 00000058 592.16 152.29 385.26 574.63 773.20 414.56 949.31 420.78 909.92 512.10 789.87 613.45 926.42 618.63
00000844 00000059 591.24 153.05 386.20 573.72 773.00 414.51 949.27 421.58 909.69 511.90 789.78 613.42 926.23 619.24
00000845 00000060 591.32 153.44 386.42 574.14 773.48 414.79 949.40 421.76 910.12 512.60 790.20 613.76 926.46 619.48
00000846 00000061 591.25 154.04 386.52 574.90 774.34 415.12 949.85 421.43 910.94 513.63 790.97 614.72 926.55 619.96
00000847 00000062 591.10 154.15 387.07 575.34 774.32 415.23 949.89 421.68 910.64 513.91 790.65 614.95 926.72 620.32
00000848 00000063 590.52 153.36 388.08 576.39 773.68 415.53 949.93 422.19 910.25 514.20 790.36 615.38 926.88 620.84
00000849 00000064 591.35 153.51 388.02 577.10 774.84 415.08 950.65 422.53 911.04 514.43 790.78 615.49 927.19 621.68
00000850 00000065 592.46 153.81 388.21 576.96 775.29 415.77 950.95 423.24 911.23 514.61 790.53 615.42 927.30 621.68
00000851 00000066 593.13 153.63 388.62 578.71 776.41 415.62 951.80 422.44 912.31 514.78 791.37 616.07 928.44 621.90
00000852 00000067 594.14 155.34 388.07 577.04 776.88 415.10 952.72 422.26 913.08 514.10 791.68 615.56 929.37 621.74
00000853 00000068 595.44 156.05 388.03 576.20 778.10 414.96 953.71 422.01 914.08 514.54 792.21 615.45 929.69 621.62
00000854 00000069 596.79 157.04 388.16 575.81 779.84 416.05 954.10 422.04 915.26 514.55 793.75 615.68 930.59 621.02
00000855 00000070 598.10 156.60 387.71 576.72 780.52 417.54 954.82 423.02 916.00 515.19 793.83 615.26 932.15 620.32
00000856 00000071 596.47 162.26 390.08 573.26 779.14 420.42 951.95 427.15 914.43 513.68 799.75 611.01 933.67 616.93
00000857 00000072 598.57 162.95 390.74 573.80 781.00 421.51 952.95 428.19 915.41 514.51 802.57 611.19 935.44 616.99
00000858 00000073 600.71 162.91 390.40 574.39 782.99 431.10 957.01 437.51 917.41 513.97 801.28 612.06 937.01 617.51
00000859 00000074 602.49 162.43 391.11 575.95 784.82 432.72 957.78 439.10 919.10 514.03 803.72 611.66 938.97 616.83
00000860 00000075 605.44 163.75 387.62 573.84 784.83 431.83 958.65 438.59 919.56 513.23 805.79 612.37 942.22 617.59
00000861 00000076 607.58 163.55 386.84 574.45 785.17 431.26 959.07 437.06 920.09 514.06 808.19 613.92 944.04 618.27
00000862 00000077 609.44 166.31 387.16 570.92 786.00 431.17 959.03 434.11 921.49 515.16 811.90 615.54 945.42 617.68
00000863 00000078 612.39 166.72 388.79 570.69 788.32 430.80 962.92 433.88 924.62 516.50 815.95 618.74 949.08 620.95
00000864 00000079 615.68 166.16 390.71 571.98 789.60 430.15 966.09 433.40 926.06 517.55 818.06 620.03 951.99 622.29
00000865 00000080 619.30 167.29 391.69 571.96 791.61 430.67 969.77 434.22 927.93 519.08 819.49 621.20 955.03 623.76
00000866 00000081 620.54 166.84 393.03 573.26 793.33 429.40 972.14 433.03 930.35 519.24 821.38 621.17 957.01 623.75
00000867 00000082 621.38 167.84 394.25 573.79 795.91 429.53 975.51 434.57 933.03 520.21 822.75 622.94 958.84 626.58
00000868 00000083 623.63 169.66 392.92 573.53 798.69 430.48 975.77 435.97 933.84 521.86 825.67 624.08 959.27 628.04
00000869 00000084 624.39 170.34 393.26 573.80 800.58 432.38 977.83 437.85 935.72 523.59 827.09 625.37 959.86 629.21
00000870 00000085 625.16 169.43 393.92 574.74 802.38 433.19 979.95 438.31 937.59 524.00 828.44 625.99 961.64 629.45
00000871 00000086 625.77 168.09 395.33 576.94 803.76 433.17 982.45 437.17 939.74 524.90 829.50 626.71 963.76 629.23
00000872 00000087 627.66 167.80 395.26 577.99 806.41 433.46 984.79 437.07 941.81 525.92 831.57 627.26 965.95 629.43
00000873 00000088 628.10 166.86 395.60 580.79 807.18 434.66 984.97 437.26 942.55 527.35 831.97 628.27 966.76 629.63
00000874 00000089 628.78 167.55 396.06 581.02 808.10 435.98 986.16 437.95 942.95 528.34 833.63 629.75 967.73 630.53
00000875 00000090 628.37 167.25 397.63 581.37 808.16 436.16 986.62 438.04 943.41 529.09 833.89 630.76 968.32 631.44
00000876 00000091 628.24 166.82 398.41 582.97 807.87 437.21 986.89 438.39 943.04 530.14 833.71 632.27 968.43 632.34
00000877 00000092 628.86 165.82 398.46 585.73 808.19 437.67 986.42 438.88 942.73 531.63 833.92 633.21 968.43 633.28
00000878 00000093 627.55 165.78 399.77 586.08 805.81 438.57 985.07 438.77 942.04 532.41 833.40 634.04 968.46 633.18
00000879 00000094 627.89 165.79 399.86 586.92 806.51 440.09 984.45 439.99 941.36 533.18 832.08 634.29 967.25 633.37
00000880 00000095 628.18 167.66 399.34 585.56 804.54 441.83 983.25 440.25 939.28 534.27 830.18 635.69 966.44 633.70
00000881 00000096 627.76 169.03 399.08 584.44 803.31 443.27 982.22 440.95 938.51 535.45 829.95 636.93 966.55 634.20
00000882 00000097 627.21 169.05 399.12 584.89 803.39 445.30 982.37 442.57 939.61 536.95 830.05 638.24 967.29 635.08
00000883 00000098 628.18 170.74 398.58 584.86 802.27 450.47 982.76 445.88 938.55 539.59 829.03 639.73 968.82 634.76
00000884 00000099 629.51 172.65 396.18 583.93 804.95 454.33 986.27 450.34 940.29 541.39 827.08 642.08 966.72 637.87
00000885 00000100 629.26 174.54 399.72 583.98 803.58 455.33 987.15 451.67 939.80 543.79 826.79 644.88 968.01 640.71
00000886 00000101 628.13 176.12 399.50 583.81 803.01 458.43 985.99 454.88 938.78 548.18 825.79 647.96 966.32 643.90
00000887 00000102 627.75 178.08 398.49 581.78 802.46 460.72 982.39 456.74 936.07 550.66 825.88 649.83 963.13 645.41
00000888 00000103 625.80 180.62 399.62 581.34 800.60 462.38 980.01 457.48 932.78 554.16 824.26 651.00 960.65 645.96
00000889 00000104 623.27 181.36 400.94 582.39 799.76 462.74 978.60 458.77 931.29 555.30 823.21 651.82 957.94 647.50
00000890 00000105 621.96 183.10 401.94 582.78 799.19 463.78 977.40 459.34 930.02 557.49 820.62 652.80 955.78 648.29
00000891 00000106 620.83 184.71 402.15 582.26 798.14 464.72 976.19 460.52 928.56 558.45 818.63 653.92 953.61 649.78
00000892 00000107 619.85 184.26 401.36 583.98 797.51 466.46 974.53 462.55 927.25 559.60 816.92 654.34 951.84 650.61
00000893 00000108 618.84 184.50 401.69 585.43 796.39 467.48 972.69 464.25 925.88 560.36 814.56 655.09 949.86 651.95
00000894 00000109 617.52 185.73 401.65 586.18 794.15 468.35 970.84 465.12 923.52 563.39 811.58 655.31 949.38 652.29
00000895 00000110 616.36 184.91 402.48 588.81 792.19 470.15 969.23 467.12 921.19 564.91 809.05 656.50 947.63 653.63
00000896 00000111 616.89 188.49 400.34 586.72 790.70 472.91 968.06 469.47 919.87 567.74 806.06 656.08 947.78 652.90
00000897 00000112 616.75 190.14 400.53 587.46 788.98 473.50 967.44 470.29 918.65 568.54 803.58 656.99 947.33 654.12
00000898 00000113 616.45 189.19 401.33 588.09 788.54 473.35 967.92 470.87 918.46 569.05 802.73 657.24 947.52 654.93
00000899 00000114 615.69 189.32 401.88 589.26 788.60 473.45 967.90 471.56 918.05 569.68 802.28 657.72 946.63 655.97
00000900 00000115 614.69 190.04 402.95 589.96 787.19 473.52 967.98 471.65 917.87 569.93 800.97 658.36 946.63 656.73
00000901 00000116 614.31 191.27 403.23 589.57 787.15 473.96 968.15 472.28 918.07 570.54 800.25 658.75 946.14 657.31
00000902 00000117 614.21 191.34 405.27 592.94 786.90 474.53 968.66 474.18 917.93 570.77 798.48 659.83 946.00 659.42
00000903 00000118 613.51 190.94 406.50 599.14 786.38 473.90 969.15 476.49 917.71 571.84 795.11 660.44 945.97 662.50
00000904 00000119 613.66 191.10 407.45 606.16 787.23 473.37 968.63 478.39 917.34 572.83 794.23 662.31 944.40 666.56
00000905 00000120 613.64 190.29 408.83 610.70 787.82 472.84 969.46 478.85 917.40 574.03 794.09 664.27 944.02 669.38
00000906 00000121 613.65 192.16 408.37 608.59 787.72 473.52 968.98 479.62 916.94 574.33 794.42 664.90 943.24 670.26
00000907 00000122 612.83 191.00 409.42 609.85 787.32 472.92 969.25 479.07 916.85 574.12 794.31 665.04 943.19 670.43
00000908 00000123 613.04 189.98 409.28 611.00 786.49 473.50 969.28 479.87 915.81 574.77 793.67 665.50 943.36 670.94
00000909 00000124 612.53 189.77 409.82 610.81 786.07 473.37 969.42 479.27 915.69 574.86 793.52 665.48 943.05 670.61
00000910 00000125 610.95 189.65 411.25 610.55 784.53 472.76 969.68 477.97 915.27 574.15 792.74 665.96 942.68 670.66
00000911 00000126 611.13 188.78 411.08 611.17 784.01 472.80 969.47 477.80 914.61 574.33 792.55 666.00 942.97 670.48
00000912 00000127 610.02 188.41 411.38 611.33 783.28 472.77 968.93 477.73 913.92 574.28 791.80 665.35 942.65 669.84
00000913 00000128 609.80 187.63 412.34 613.01 783.22 472.78 969.13 477.75 913.84 575.05 792.06 665.95 943.17 670.40
00000914 00000129 609.74 188.43 411.34 612.48 782.93 474.38 968.41 477.90 913.01 576.09 792.31 667.31 942.49 670.66
00000915 00000130 609.58 187.98 411.72 613.37 782.33 475.29 968.44 478.95 912.51 576.93 792.07 667.97 942.84 671.35
00000916 00000131 609.10 187.47 412.73 614.81 782.24 475.98 968.78 479.34 912.51 576.87 792.07 668.97 942.79 672.06
00000917 00000132 609.21 186.76 413.29 616.52 783.20 476.17 969.37 479.03 913.42 579.09 792.34 669.74 943.22 672.35
00000918 00000133 610.06 187.10 413.42 616.19 784.74 476.28 969.39 479.02 913.65 580.46 793.57 670.02 943.08 672.41
00000919 00000134 610.60 186.33 413.96 616.95 785.52 476.89 971.01 478.98 914.70 581.50 794.67 671.47 943.79 673.33
00000920 00000135 612.17 188.37 413.24 617.01 786.70 478.25 972.34 480.64 916.03 583.09 794.63 672.67 944.77 674.78
00000921 00000136 612.94 186.92 414.63 620.16 786.83 479.16 973.14 481.77 915.45 584.77 794.35 674.01 944.74 676.38
00000922 00000137 613.42 190.41 414.45 617.46 788.57 480.87 973.10 484.23 916.23 586.87 794.86 675.04 944.98 677.91
00000923 00000138 615.02 189.77 413.66 619.13 789.72 480.31 973.49 483.45 916.99 587.09 795.90 675.61 945.63 678.16
00000924 00000139 615.25 191.41 412.89 618.25 792.12 475.45 973.94 478.82 918.52 587.94 797.54 674.70 945.13 677.51
00000925 00000140 615.28 191.17 415.44 619.53 795.34 469.59 976.38 476.13 921.42 586.85 799.15 672.64 945.73 678.09
00000926 00000141 615.90 188.44 418.31 623.27 797.36 465.36 978.77 474.33 923.53 586.37 801.68 671.63 947.99 679.08
00000927 00000142 616.30 186.99 420.03 625.38 798.87 464.28 980.61 474.36 924.79 586.25 802.36 671.41 949.00 679.72
00000928 00000143 616.62 184.61 420.58 627.54 799.49 463.45 981.66 474.09 925.64 585.72 803.67 671.79 949.71 680.43
00000929 00000144 617.66 185.44 420.37 628.65 800.71 462.70 983.04 472.70 926.63 585.06 804.50 672.65 950.33 680.92
00000930 00000145 619.91 184.62 419.06 629.17 802.89 463.68 984.10 473.04 928.25 584.58 806.18 673.41 951.21 681.19
00000931 00000146 620.26 182.45 419.87 632.35 805.11 463.71 985.59 472.10 931.10 584.13 807.88 674.09 951.97 681.16
00000932 00000147 620.93 181.66 420.47 632.80 805.81 463.82 987.80 471.45 932.47 584.38 809.32 674.89 954.40 681.16
00000933 00000148 621.22 181.92 421.82 633.73 807.97 462.95 989.81 469.71 935.71 583.64 810.49 675.00 956.05 680.67
00000934 00000149 623.88 179.79 420.10 636.14 809.71 462.62 992.34 469.65 937.91 581.97 812.82 674.89 959.04 680.72
00000935 00000150 624.95 181.50 420.26 635.52 811.89 462.37 994.96 470.33 940.98 580.65 814.41 674.97 961.09 681.62
00000936 00000151 625.26 175.96 421.49 640.46 814.83 462.26 997.85 470.25 945.08 580.47 818.22 675.01 964.30 681.39
00000937 00000152 627.23 175.02 422.18 642.18 813.63 452.92 1005.49 465.61 953.58 569.22 821.59 664.75 971.32 676.42
00000938 00000153 627.58 171.46 422.98 647.99 815.09 450.15 1006.80 464.33 955.99 568.33 822.85 664.54 972.72 677.26
00000939 00000154 627.91 169.76 423.61 650.81 817.19 449.41 1008.21 464.81 958.37 568.46 822.78 662.71 974.47 676.32
00000940 00000155 627.19 171.53 425.03 648.89 819.13 448.70 1008.73 463.85 960.95 567.91 824.39 662.55 975.15 675.96
00000941 00000156 626.80 171.32 427.19 648.90 820.16 448.43 1010.61 462.42 962.67 566.94 825.65 663.11 976.12 675.55
00000942 00000157 628.92 170.29 426.02 649.66 822.58 447.35 1011.06 461.66 963.64 566.31 827.96 662.34 977.27 675.11
00000943 00000158 628.60 170.91 428.69 648.89 826.59 445.57 1012.84 461.08 965.18 566.62 831.25 662.48 977.39 676.24
00000944 00000159 629.60 169.80 430.31 648.84 827.46 444.57 1016.60 461.98 966.30 565.86 831.60 661.72 980.19 676.97
00000945 00000160 630.29 167.53 430.09 650.25 828.46 443.37 1016.93 461.11 966.49 565.31 831.79 661.12 979.66 676.53
00000946 00000161 629.26 168.06 431.45 648.95 828.74 443.42 1016.99 460.94 966.62 564.68 832.24 660.29 979.67 675.60
00000947 00000162 628.91 167.18 431.69 650.34 828.32 443.10 1016.38 460.42 966.45 564.78 832.02 660.32 979.31 675.45
00000948 00000163 629.06 166.56 431.16 651.14 828.14 442.71 1016.13 460.79 966.22 564.83 831.76 660.29 979.19 675.94
00000949 00000164 627.66 166.35 431.73 652.25 826.37 443.06 1015.48 461.56 965.80 564.99 830.37 660.68 978.86 676.63
00000950 00000165 626.97 167.79 430.60 651.88 825.04 443.79 1013.59 461.97 964.78 564.67 829.03 661.17 976.93 676.94
00000951 00000166 625.23 168.75 430.41 650.72 823.72 444.03 1012.30 461.71 965.17 564.05 828.40 661.29 976.32 676.73
00000952 00000167 624.35 167.85 430.15 653.20 822.65 443.78 1010.96 461.68 965.10 564.06 826.18 660.87 975.86 676.57
00000953 00000168 625.28 169.95 428.97 651.21 822.33 443.48 1010.77 460.70 965.12 563.35 826.26 660.97 976.39 676.24
00000954 00000169 625.01 168.17 428.36 653.30 820.90 444.01 1009.81 460.39 964.37 562.41 825.43 660.43 976.48 674.92
