Video ID: 	VxxxXykcNds
H: 	1080
W: 	1920
FPS: 	25.0

FRAME INDEX X0 Y0 W H [Landmarks (5 Points)]

00012721 00000000 581.02 208.06 493.78 650.31 717.11 408.27 920.12 455.05 767.29 531.69 676.58 642.30 830.95 683.79
00012722 00000001 576.61 212.98 496.24 658.08 715.92 414.70 919.36 464.28 770.83 537.03 674.15 649.58 832.66 693.31
00012723 00000002 568.38 235.23 498.30 649.79 707.86 420.80 912.84 471.21 765.62 546.98 667.34 657.56 829.90 701.80
00012724 00000003 559.75 235.10 498.07 661.39 695.62 426.11 901.28 472.51 753.79 544.57 658.55 665.17 817.39 706.60
00012725 00000004 548.65 232.86 490.27 655.11 676.93 429.28 900.97 483.75 742.16 552.27 640.45 671.21 807.48 715.43
00012726 DELETE   535.29 232.20 484.68 650.70 659.30 428.13 874.38 476.34 712.67 559.16 621.78 677.76 783.51 718.80
00012727 00000006 527.18 234.26 484.87 650.13 648.24 433.16 859.75 476.14 699.22 560.99 613.30 680.59 773.27 717.91
00012728 DELETE   521.86 235.87 494.20 665.82 645.58 436.33 857.60 483.48 701.94 556.20 613.31 678.65 777.16 719.37
00012729 00000008 521.75 234.65 499.63 672.08 647.72 438.38 864.33 485.92 708.25 555.99 614.19 680.34 784.14 720.95
00012730 DELETE   525.10 233.46 498.93 674.25 652.20 437.56 872.81 485.30 718.90 559.56 622.33 682.16 796.46 722.23
00012731 00000010 528.70 237.82 495.37 670.50 654.66 437.72 877.06 486.17 722.43 562.34 624.94 681.76 804.54 721.90
00012732 DELETE   525.58 236.84 497.82 670.63 652.98 435.89 873.86 485.75 718.99 560.08 621.37 679.16 802.36 720.66
00012733 00000012 520.17 238.20 495.96 667.39 646.95 437.60 862.56 484.86 709.35 558.94 612.98 676.78 790.52 716.96
00012734 00000013 511.16 241.90 497.15 666.59 642.00 438.30 852.19 482.92 702.63 557.80 608.96 676.27 783.04 714.73
00012735 DELETE   509.63 245.27 497.10 663.61 640.81 440.24 850.47 482.99 702.63 560.16 609.63 677.50 783.21 714.24
00012736 00000015 509.34 244.57 497.32 664.79 641.91 443.01 853.99 484.66 709.54 559.78 613.23 681.63 787.54 717.30
00012737 00000016 510.07 249.89 496.00 659.19 642.62 444.08 855.46 484.99 711.62 562.07 614.64 681.97 791.72 716.72
00012738 00000017 507.40 252.62 496.28 653.29 639.78 442.93 851.19 484.51 706.54 562.04 611.72 679.42 786.62 715.06
00012739 00000018 505.14 250.46 496.24 651.94 638.24 439.93 848.47 483.43 702.43 561.93 607.40 674.07 783.32 711.54
00012740 00000019 504.92 252.10 495.68 646.21 638.05 438.30 847.47 482.02 701.83 560.65 606.44 670.96 781.94 708.75
00012741 00000020 505.04 245.42 494.37 649.19 639.46 437.96 850.61 482.73 706.39 560.52 607.80 669.55 785.13 708.11
00012742 00000021 504.35 244.33 493.59 644.22 640.17 436.91 851.71 483.14 708.83 561.95 606.97 666.03 784.74 705.78
00012743 00000022 502.40 247.85 489.88 637.77 633.85 435.73 842.29 480.38 698.89 560.60 601.82 663.68 776.56 702.31
00012744 00000023 498.24 245.00 488.39 639.43 629.91 435.51 835.56 479.44 691.65 558.08 596.76 661.22 769.00 699.49
00012745 00000024 500.87 244.78 487.21 639.35 631.65 434.18 838.06 476.45 694.46 557.81 601.01 662.50 771.74 699.45
00012746 00000025 508.99 243.18 489.77 645.74 641.30 431.02 851.39 476.80 706.23 557.72 609.62 666.16 779.80 705.76
00012747 00000026 519.02 242.13 495.42 657.03 652.98 430.41 867.91 480.60 718.73 555.77 617.75 672.33 790.12 715.36
00012748 00000027 523.04 246.43 495.99 648.25 655.12 429.44 872.63 484.52 721.23 557.63 618.39 671.27 793.08 717.93
00012749 00000028 521.91 240.41 488.50 629.53 651.12 430.99 866.19 480.45 710.40 563.00 615.02 670.43 786.96 712.30
00012750 00000029 525.55 243.48 490.39 631.43 655.50 435.94 869.36 483.89 713.14 566.98 619.80 678.03 782.81 718.73
00012751 00000030 538.86 239.26 490.11 638.49 667.64 444.96 883.67 492.63 729.82 569.33 635.80 686.61 799.30 726.91
00012752 00000031 541.64 234.54 502.27 656.98 687.69 449.94 899.03 498.39 754.02 573.34 655.35 682.58 811.62 724.01
00012753 00000032 549.77 237.97 499.95 654.78 690.39 447.20 904.21 494.41 760.28 576.46 660.96 682.08 828.58 722.32
00012754 00000033 551.77 240.16 500.17 647.59 689.95 441.74 904.36 492.67 757.30 572.39 656.94 675.38 828.40 718.50
00012755 00000034 556.66 238.71 504.11 648.82 692.36 435.88 907.27 488.15 758.14 571.64 659.82 673.04 835.06 717.24
00012756 00000035 569.56 251.21 502.73 650.46 713.04 439.94 920.70 490.55 779.14 564.73 678.80 677.27 842.32 720.72
00012757 DELETE   579.60 247.48 502.09 652.17 725.42 437.10 938.15 493.64 798.86 569.87 688.79 676.09 861.23 723.75
00012758 00000037 588.78 250.86 499.56 651.40 729.49 438.33 945.22 494.46 803.39 574.18 694.49 679.24 867.26 726.00
00012759 00000038 587.04 253.19 503.55 654.54 726.99 441.95 941.95 502.27 792.83 572.67 688.65 683.45 859.11 734.04
00012760 00000039 586.41 256.62 503.29 653.71 725.11 445.76 937.67 507.58 785.96 578.98 683.56 685.32 853.49 737.19
00012761 00000040 593.72 267.60 500.03 645.88 730.87 452.87 947.93 516.50 793.13 593.59 690.54 694.45 865.48 747.18
00012762 00000041 601.42 275.52 499.27 647.07 739.62 459.11 960.54 522.63 801.46 606.09 698.51 704.56 874.60 756.54
00012763 00000042 601.74 278.15 498.61 648.57 738.74 462.18 961.01 524.07 800.62 609.02 697.25 709.81 872.74 760.57
00012764 00000043 597.37 282.20 498.10 645.93 735.92 460.32 954.82 522.82 794.42 607.95 691.11 708.63 867.01 760.17
00012765 00000044 593.55 282.32 498.68 643.04 732.34 460.16 949.42 522.86 789.02 604.24 687.22 703.00 862.65 754.89
00012766 00000045 594.79 283.83 497.71 639.28 732.74 460.45 947.87 523.96 790.44 606.98 688.50 700.24 862.92 752.68
00012767 00000046 596.62 287.87 497.13 629.96 733.72 461.63 950.01 525.27 792.49 611.17 692.70 698.04 868.98 750.49
00012768 00000047 593.14 286.21 497.30 630.49 728.83 461.44 946.82 525.19 789.11 609.19 688.01 698.26 863.75 751.17
00012769 00000048 587.77 287.88 500.01 628.42 724.74 463.51 940.74 526.92 782.87 611.31 682.94 698.34 853.66 750.91
00012770 00000049 591.89 288.66 496.58 628.90 726.45 463.98 944.90 527.32 784.16 615.89 683.86 705.65 852.48 758.07
00012771 00000050 594.53 292.30 510.19 641.66 740.55 468.50 959.15 532.15 806.20 617.29 699.40 715.38 865.70 769.48
00012772 00000051 602.38 296.15 507.12 634.07 745.21 469.26 964.01 535.76 808.39 617.39 700.80 711.77 870.78 768.13
00012773 00000052 601.80 285.80 500.89 634.58 740.90 463.87 961.50 532.78 798.31 615.09 697.24 705.52 869.32 762.03
00012774 00000053 603.59 287.61 495.85 620.89 735.38 461.93 953.51 530.25 789.08 610.27 692.77 698.26 862.39 754.60
00012775 00000054 602.33 289.09 496.55 615.91 733.89 460.73 952.56 529.15 788.38 608.22 691.79 695.83 861.56 752.15
00012776 00000055 605.54 289.33 497.98 616.33 739.96 462.31 959.63 530.24 797.34 609.16 697.79 696.61 870.04 752.46
00012777 00000056 607.23 289.87 499.55 620.17 747.59 463.87 965.64 531.63 806.90 613.25 703.53 699.30 874.31 755.05
00012778 00000057 607.73 284.32 499.28 624.53 745.78 462.53 964.03 531.39 804.21 610.56 702.14 697.02 872.22 753.59
00012779 00000058 607.93 286.86 494.78 620.68 738.90 461.58 958.08 529.71 794.57 609.40 696.97 695.84 867.71 751.91
00012780 00000059 608.57 286.77 495.59 625.29 741.84 463.08 960.60 532.99 796.82 612.84 698.21 698.83 868.38 756.35
00012781 00000060 608.18 298.03 505.85 630.34 756.50 471.80 961.35 531.78 816.09 611.52 716.03 703.77 877.74 756.94
00012782 00000061 616.54 306.59 503.41 627.22 764.86 479.52 974.23 536.44 831.19 623.63 729.49 711.53 892.64 760.77
00012783 00000062 622.02 312.11 501.31 630.15 769.39 483.03 978.56 534.96 837.24 626.20 735.70 716.46 900.40 761.15
00012784 00000063 625.27 310.18 503.32 636.54 771.89 483.71 981.59 539.11 837.02 627.52 733.96 718.28 903.07 765.79
00012785 00000064 629.96 316.28 506.13 633.69 776.45 488.18 984.48 546.31 838.41 631.70 736.01 719.45 906.68 768.76
00012786 00000065 638.33 313.94 504.77 634.41 784.20 492.75 992.89 549.90 848.83 642.66 747.20 723.62 915.15 772.09
00012787 00000066 643.82 317.83 505.80 630.65 791.56 494.71 1000.71 551.00 858.54 639.40 754.29 726.59 922.76 774.41
00012788 00000067 646.01 316.20 505.64 631.97 793.78 492.39 1003.41 549.95 859.64 638.35 755.72 725.40 925.35 774.34
00012789 00000068 644.70 315.10 507.15 631.41 793.03 490.80 1001.64 548.53 857.82 637.55 754.03 721.78 923.52 770.76
00012790 00000069 645.20 316.53 509.06 628.91 794.72 489.47 1003.53 547.32 859.35 637.68 755.48 719.98 925.73 769.01
00012791 00000070 647.78 304.68 502.05 628.07 791.40 480.97 1006.19 546.15 852.78 638.25 749.40 715.52 926.38 769.31
00012792 00000071 653.46 303.99 500.23 628.00 798.38 480.74 1013.06 547.36 860.87 639.57 754.39 715.26 934.32 770.46
00012793 00000072 654.35 303.43 500.04 627.55 797.47 479.29 1010.88 546.83 856.85 637.81 753.13 713.09 930.05 768.98
00012794 00000073 650.70 307.31 502.04 622.81 793.52 477.86 1008.50 546.17 851.27 636.40 748.62 711.36 926.95 767.66
00012795 00000074 653.42 305.08 499.74 624.85 794.96 478.61 1009.65 547.12 852.94 636.96 750.46 712.14 928.92 768.73
00012796 00000075 658.50 307.44 499.16 620.79 800.85 479.69 1015.88 549.53 859.61 638.47 755.10 711.91 935.36 769.84
00012797 00000076 662.82 303.38 497.67 623.59 804.49 479.91 1018.21 549.12 862.55 637.99 759.26 712.23 937.88 769.73
00012798 00000077 658.34 309.82 499.78 614.87 800.02 480.01 1015.38 548.87 857.89 634.14 753.78 709.87 933.82 767.02
00012799 00000078 653.58 304.89 500.68 615.14 794.69 479.14 1009.19 547.90 851.60 631.82 749.73 705.11 926.33 761.85
00012800 00000079 651.55 303.81 501.95 615.53 792.96 478.76 1007.34 547.54 849.64 631.09 748.71 703.78 925.66 760.39
00012801 00000080 654.40 305.79 500.17 616.18 796.64 481.12 1011.16 550.14 855.19 634.15 751.96 706.87 930.62 763.94
00012802 00000081 656.89 307.87 500.33 616.35 800.21 483.39 1014.31 552.35 859.86 636.75 755.40 709.89 936.66 767.10
00012803 00000082 654.82 308.38 499.96 615.69 796.45 483.12 1010.43 551.69 854.92 635.91 751.79 709.51 932.14 766.28
00012804 00000083 649.07 308.07 502.64 614.87 790.09 481.24 1004.38 549.97 847.20 633.57 745.04 707.53 925.55 763.96
00012805 00000084 646.39 308.26 503.29 615.03 787.73 481.46 1000.65 549.00 844.22 633.38 742.81 707.91 920.97 763.32
00012806 00000085 650.90 305.62 500.70 618.57 792.57 482.53 1006.16 552.88 850.11 636.56 746.60 708.86 927.94 766.84
00012807 00000086 654.09 307.02 500.06 619.13 798.64 485.19 1012.00 554.29 858.48 640.26 753.28 711.87 934.44 769.11
00012808 00000087 654.01 305.26 499.73 621.90 798.37 485.47 1011.05 554.19 858.36 640.31 753.23 712.64 933.48 769.57
00012809 00000088 646.49 303.40 503.58 623.75 790.59 484.77 1003.75 552.59 849.91 637.27 745.81 711.06 925.16 766.83
00012810 00000089 643.34 317.95 509.62 621.55 792.87 494.92 997.40 556.16 854.10 640.38 751.41 717.29 921.61 769.17
00012811 00000090 641.47 317.87 509.96 624.71 790.28 497.57 995.04 556.57 853.05 640.21 750.47 720.80 920.04 770.83
00012812 00000091 642.19 316.86 509.78 626.79 790.06 499.21 994.49 557.09 853.04 640.48 750.94 723.05 919.99 772.08
00012813 00000092 640.33 315.38 508.55 628.21 786.54 499.01 991.60 558.02 848.82 641.64 746.42 722.71 916.89 772.72
00012814 00000093 634.84 315.01 506.88 629.14 779.51 498.81 985.34 556.95 841.56 643.78 739.97 721.83 911.52 771.04
00012815 00000094 628.89 315.09 507.44 630.56 775.16 497.15 981.94 557.07 836.65 639.18 733.54 721.04 906.73 771.79
00012816 00000095 626.27 317.85 508.75 628.58 773.62 498.02 981.93 556.92 836.71 642.03 734.20 723.09 906.52 772.86
00012817 00000096 627.66 319.11 507.03 629.18 773.46 498.94 981.99 555.99 837.70 641.79 734.82 725.21 905.61 773.43
00012818 00000097 623.42 316.84 505.28 629.24 769.18 498.30 977.45 555.32 833.09 641.14 731.90 724.79 900.39 773.06
00012819 00000098 616.51 315.87 507.48 629.59 763.92 497.92 970.22 557.22 823.35 639.17 724.34 722.16 890.84 772.79
00012820 00000099 613.76 318.35 507.24 627.83 762.09 497.25 967.51 556.02 821.91 636.04 722.54 724.51 884.31 775.10
00012821 00000100 613.81 307.93 508.81 628.57 761.78 488.16 971.80 555.56 822.09 639.84 723.58 724.39 881.56 781.65
00012822 00000101 616.46 307.96 508.26 633.05 766.12 488.53 976.11 554.87 827.58 640.83 726.58 729.40 881.27 786.04
00012823 00000102 613.18 306.15 511.42 644.20 765.12 491.16 976.48 553.43 826.53 636.38 722.71 738.31 875.35 791.86
00012824 00000103 604.26 310.77 516.45 652.42 761.80 489.75 972.87 554.74 819.17 633.42 712.43 737.39 869.52 793.17
00012825 00000104 600.33 317.72 512.67 664.59 751.11 490.82 957.01 550.07 803.51 633.54 702.22 746.94 866.76 797.63
00012826 00000105 600.50 316.00 514.85 660.97 752.15 494.38 959.78 555.32 807.69 638.86 706.26 744.97 877.14 796.65
00012827 00000106 604.11 307.60 514.70 652.14 757.56 500.16 971.12 567.18 817.86 646.24 712.25 737.41 882.31 794.24
CROP_BBOX: 282 0 1385 1080
