Video ID: 	Nqg0u0WUTts
H: 	1080
W: 	1920
FPS: 	23.976023976023978

FRAME INDEX X0 Y0 W H [Landmarks (5 Points)]

00001099 00000000 890.13 77.51 382.59 570.61 963.23 319.08 1151.38 286.63 1053.62 382.30 1013.99 527.25 1168.10 500.00
00001100 00000001 892.52 75.13 377.48 567.34 962.47 323.50 1151.96 291.25 1051.46 394.55 1014.15 531.83 1166.29 504.64
00001101 00000002 889.63 78.53 381.06 558.70 964.38 326.69 1152.15 299.18 1055.64 404.39 1011.52 535.67 1160.02 512.63
00001102 00000003 890.19 80.04 383.89 566.05 967.52 333.28 1154.45 307.98 1055.43 406.54 1015.83 541.42 1157.45 520.01
00001103 DELETE   889.21 76.85 384.14 566.16 968.23 340.78 1151.48 313.06 1057.71 411.71 1016.12 540.52 1158.24 517.21
00001104 DELETE   893.33 76.39 380.77 568.07 969.15 336.60 1153.35 310.74 1057.21 412.52 1013.69 538.00 1160.63 516.31
00001105 00000006 892.49 71.92 381.38 579.46 965.86 331.49 1154.11 307.52 1050.98 410.85 1007.53 537.36 1158.90 517.07
00001106 00000007 891.64 72.21 381.09 580.00 962.53 325.81 1152.37 305.77 1045.00 409.66 999.75 533.43 1152.20 516.50
00001107 00000008 891.67 70.29 380.12 583.77 960.30 323.62 1152.40 302.92 1042.05 409.42 997.08 532.86 1154.16 515.57
00001108 00000009 890.24 70.31 380.31 583.61 957.49 324.19 1151.09 302.85 1039.53 410.46 994.51 534.33 1151.68 516.63
00001109 00000010 888.29 69.54 382.09 582.77 955.45 324.44 1149.83 303.64 1037.28 411.20 991.84 535.00 1148.43 517.77
00001110 00000011 885.65 68.30 385.14 590.04 952.71 328.68 1145.94 304.78 1034.87 411.06 991.86 539.91 1141.95 520.19
00001111 00000012 882.75 69.18 385.89 587.68 949.48 331.37 1143.85 306.41 1033.50 412.39 990.82 541.18 1141.57 520.38
00001112 00000013 882.34 69.53 386.11 583.26 949.84 332.50 1143.84 307.28 1034.98 414.65 991.39 541.93 1141.45 520.95
00001113 00000014 884.03 69.19 385.80 591.18 950.86 333.55 1143.11 308.80 1031.73 413.01 993.14 547.15 1137.94 526.57
00001114 00000015 886.41 67.83 384.51 591.51 953.09 334.99 1145.32 309.60 1034.29 415.63 994.97 548.60 1141.05 527.47
00001115 00000016 897.38 76.21 378.66 578.98 963.23 333.86 1149.17 328.84 1038.82 427.32 992.74 531.26 1147.38 527.11
00001116 00000017 887.51 74.85 384.70 583.41 957.49 336.72 1149.03 318.53 1040.95 423.30 991.22 540.88 1144.22 525.49
00001117 00000018 893.03 75.72 381.14 578.95 963.18 341.12 1151.62 319.04 1044.01 421.47 1002.06 546.81 1148.69 528.06
00001118 00000019 895.34 78.83 381.55 569.82 966.82 340.55 1151.30 322.37 1041.70 419.55 1003.60 543.56 1142.73 528.13
00001119 00000020 897.40 79.18 383.82 574.56 968.40 336.20 1154.11 319.55 1047.83 421.51 1001.87 539.41 1150.08 525.47
00001120 00000021 899.21 77.00 384.46 577.56 970.56 334.64 1156.31 318.39 1050.88 421.95 1003.72 538.87 1151.92 525.36
00001121 00000022 900.70 74.62 385.37 575.48 972.72 329.15 1159.37 316.50 1052.29 421.11 1004.08 534.36 1152.20 523.90
00001122 00000023 901.41 70.98 386.11 577.64 975.00 321.73 1161.74 311.88 1055.22 420.60 1006.07 529.31 1154.69 521.27
00001123 00000024 905.36 70.65 384.08 576.41 977.79 318.94 1163.69 308.13 1057.06 418.13 1010.12 526.00 1158.82 517.13
00001124 00000025 909.95 69.99 381.81 574.15 982.22 317.76 1166.96 307.51 1060.06 417.11 1014.13 524.50 1161.18 516.02
00001125 00000026 914.49 71.31 379.62 574.19 985.59 319.01 1172.20 308.58 1061.27 415.64 1016.10 527.21 1164.43 518.41
00001126 00000027 918.49 80.21 380.89 574.09 994.83 324.95 1176.67 319.38 1065.38 415.80 1017.48 516.75 1166.33 514.10
00001127 00000028 922.58 86.84 373.55 570.86 1002.59 325.02 1177.23 326.36 1075.14 415.64 1023.90 522.29 1170.47 524.70
00001128 00000029 925.04 94.20 372.05 559.37 1005.39 328.13 1178.90 329.45 1077.99 417.37 1027.44 521.46 1170.87 524.17
00001129 00000030 926.68 93.43 372.01 564.19 1006.20 332.33 1178.80 333.35 1079.06 418.35 1028.56 522.65 1172.93 524.92
00001130 00000031 926.45 93.94 372.04 567.65 1004.00 330.95 1180.15 332.48 1076.30 415.74 1024.91 523.85 1172.99 526.18
00001131 00000032 922.75 87.67 376.54 572.08 1000.26 331.23 1180.01 321.20 1069.24 417.31 1023.99 532.99 1170.10 524.31
00001132 00000033 922.95 89.17 374.95 568.31 997.14 331.63 1176.63 322.18 1065.85 418.69 1020.93 532.93 1166.62 524.70
00001133 00000034 922.73 90.16 374.75 569.63 994.87 331.35 1172.85 322.61 1059.90 418.28 1017.25 533.14 1161.83 525.58
00001134 00000035 921.65 90.55 371.79 567.60 991.41 331.49 1168.13 322.00 1053.38 417.00 1014.54 533.37 1158.35 525.22
00001135 00000036 919.47 90.88 371.59 564.70 987.10 330.88 1163.40 321.63 1048.81 416.12 1010.61 532.92 1154.14 525.12
00001136 00000037 918.19 90.14 372.37 565.63 984.98 331.17 1161.23 320.99 1045.71 414.91 1008.24 533.80 1151.55 525.38
00001137 00000038 913.84 88.60 374.65 563.78 982.67 331.36 1158.78 320.86 1045.62 414.90 1009.05 532.55 1148.93 523.73
00001138 00000039 911.33 88.12 374.11 558.70 979.45 333.61 1157.95 320.59 1046.27 416.56 1008.02 532.16 1152.11 521.29
00001139 00000040 908.91 85.33 375.05 559.20 975.95 332.67 1157.04 320.72 1045.96 420.00 1000.31 530.23 1152.68 520.58
00001140 00000041 906.80 86.80 374.71 557.15 975.09 334.09 1155.47 321.50 1046.04 420.03 1001.47 530.11 1152.46 519.77
00001141 00000042 906.26 90.60 372.62 552.66 972.10 340.01 1157.28 324.10 1047.37 421.85 998.29 531.74 1155.62 518.63
00001142 DELETE   911.02 92.81 371.11 552.03 981.25 334.63 1160.89 318.29 1055.43 411.91 1014.08 532.78 1155.33 519.39
00001143 00000044 918.57 87.42 369.73 560.77 989.75 324.78 1170.66 304.42 1064.71 403.92 1025.82 525.95 1169.87 508.75
00001144 00000045 920.10 84.76 375.36 554.68 999.74 319.34 1175.48 306.28 1075.21 395.75 1030.85 502.36 1177.85 492.94
00001145 00000046 929.77 86.05 370.88 550.67 1008.38 310.31 1182.08 301.37 1090.52 383.33 1036.77 496.74 1183.38 491.94
00001146 00000047 931.51 84.36 371.68 548.06 1013.93 303.02 1187.81 295.50 1099.63 375.98 1041.40 489.92 1185.57 486.26
00001147 00000048 931.67 83.09 373.72 542.11 1018.20 298.14 1193.76 292.32 1103.64 373.49 1040.94 484.56 1188.93 481.70
00001148 00000049 934.31 80.38 371.93 543.04 1017.86 296.77 1195.76 290.79 1101.80 368.88 1040.25 482.95 1194.61 478.83
00001149 00000050 932.45 78.87 374.48 542.63 1016.65 296.02 1196.12 289.34 1103.34 366.25 1041.09 481.36 1197.20 476.73
00001150 00000051 930.89 77.27 375.41 542.38 1016.97 294.78 1195.89 288.45 1102.95 362.79 1041.80 479.11 1195.57 474.43
00001151 00000052 932.19 81.39 372.98 539.08 1016.91 294.42 1195.20 287.07 1101.18 361.14 1042.02 479.15 1191.06 474.19
00001152 00000053 932.72 83.37 371.21 540.64 1015.18 294.25 1193.11 287.65 1096.84 362.67 1037.16 479.26 1187.43 475.43
00001153 00000054 928.12 73.51 374.67 538.21 1008.56 297.36 1200.85 290.38 1091.02 365.14 1034.58 482.22 1191.59 477.39
00001154 00000055 930.30 80.53 370.96 534.83 1008.91 300.32 1188.81 296.10 1087.26 369.56 1028.65 488.38 1179.12 486.06
00001155 00000056 927.58 88.25 371.38 540.03 1009.74 300.70 1183.81 296.19 1089.75 367.27 1033.16 487.65 1174.23 486.35
00001156 00000057 926.49 87.69 371.85 537.23 1007.23 301.88 1182.54 299.71 1086.50 372.03 1028.89 489.23 1171.11 489.60
00001157 00000058 923.61 85.81 372.23 536.00 1003.40 311.65 1194.28 298.35 1089.86 381.41 1024.67 498.87 1183.96 486.42
00001158 00000059 921.17 85.97 373.46 540.84 1001.67 312.37 1192.01 299.09 1088.12 381.99 1024.44 501.83 1182.45 489.25
00001159 00000060 921.01 92.24 371.31 542.85 1004.55 301.41 1176.17 302.27 1084.25 376.92 1028.09 489.71 1167.73 491.90
00001160 00000061 917.51 94.31 372.84 542.75 1002.40 302.92 1173.53 304.41 1081.70 379.87 1023.92 490.75 1170.31 492.82
00001161 00000062 911.69 94.32 374.60 534.12 994.37 307.92 1174.79 299.33 1077.24 387.91 1014.58 500.24 1166.59 493.31
00001162 00000063 907.32 98.50 374.25 526.23 989.83 311.40 1169.09 302.23 1073.95 389.09 1010.14 499.78 1165.02 492.42
00001163 00000064 906.34 99.07 371.13 522.54 985.78 311.44 1163.47 301.90 1069.80 390.88 1006.62 500.96 1161.43 493.66
00001164 00000065 903.56 96.66 370.47 525.80 981.66 309.41 1158.89 298.87 1065.34 389.19 1004.87 500.50 1157.58 492.45
00001165 00000066 901.11 95.43 368.56 529.17 978.09 305.30 1156.13 294.50 1061.59 386.78 1003.36 498.36 1156.09 490.03
00001166 00000067 900.33 95.83 368.65 530.39 977.50 304.69 1155.38 295.14 1060.94 386.65 1002.42 498.02 1156.11 490.55
00001167 00000068 901.97 96.32 368.93 533.13 978.95 302.19 1157.58 297.00 1059.37 387.82 1000.43 497.54 1156.13 493.67
00001168 00000069 909.78 86.86 369.46 537.94 983.04 303.04 1167.57 297.47 1060.94 384.52 1001.29 498.45 1158.21 494.82
00001169 00000070 912.24 83.06 369.04 539.64 982.96 300.46 1168.34 296.80 1058.90 378.60 999.72 493.86 1157.28 491.48
00001170 00000071 911.40 78.05 367.49 543.01 986.34 296.74 1167.88 296.25 1057.28 375.75 998.44 486.92 1150.59 488.18
00001171 00000072 909.85 80.56 372.18 536.23 989.09 296.65 1170.46 292.34 1064.83 368.05 1002.81 482.90 1154.12 478.96
00001172 00000073 910.16 73.50 375.02 539.07 989.46 293.10 1175.91 289.33 1068.07 367.79 1001.93 482.70 1156.27 479.27
00001173 00000074 911.67 68.23 376.35 542.34 993.81 293.01 1178.76 288.49 1071.90 365.78 1006.50 480.44 1159.62 476.30
00001174 00000075 917.80 67.87 372.97 547.45 998.13 294.74 1181.90 287.24 1071.57 362.13 1015.44 484.79 1160.52 478.04
00001175 00000076 924.12 72.90 371.20 547.33 1003.46 292.96 1187.49 286.97 1074.76 361.59 1015.98 483.42 1165.49 477.54
00001176 00000077 924.35 64.85 373.32 559.21 1000.52 287.42 1189.10 289.58 1069.83 366.20 1011.44 475.54 1171.99 477.97
00001177 00000078 927.09 64.60 375.71 560.12 1003.35 291.04 1193.01 293.88 1074.42 373.80 1013.47 474.22 1179.30 477.01
00001178 00000079 932.41 77.62 370.30 549.14 1008.93 297.78 1187.99 300.51 1081.16 373.55 1019.40 476.84 1180.75 480.09
00001179 00000080 936.27 79.27 373.41 550.10 1012.38 297.97 1193.19 299.36 1085.72 378.59 1025.04 483.63 1185.38 486.36
00001180 00000081 937.91 81.05 373.16 553.70 1016.67 297.98 1196.68 300.11 1090.80 382.46 1027.73 487.75 1186.81 491.31
00001181 00000082 938.39 83.93 374.24 552.29 1019.15 300.77 1197.84 302.79 1094.47 386.02 1030.17 490.67 1189.23 494.25
00001182 00000083 940.26 84.44 374.25 554.17 1021.48 303.20 1199.77 305.84 1097.53 388.74 1033.06 491.92 1193.33 495.72
00001183 00000084 941.06 83.06 373.99 551.21 1021.41 303.58 1200.06 308.32 1098.45 390.39 1033.98 489.80 1194.33 494.76
00001184 00000085 941.77 82.24 374.31 549.96 1020.75 303.53 1200.37 308.85 1098.62 391.56 1033.77 489.35 1195.49 494.95
00001185 00000086 941.33 82.71 374.23 549.88 1020.88 303.32 1200.30 308.87 1098.99 391.10 1033.99 489.10 1195.22 494.76
00001186 00000087 940.04 83.35 373.12 550.76 1020.83 304.33 1198.64 309.57 1098.49 391.59 1032.47 488.75 1193.27 494.34
00001187 00000088 937.16 86.91 372.87 555.16 1018.57 304.83 1196.59 309.18 1095.50 391.06 1030.19 491.68 1191.23 496.21
00001188 00000089 935.35 90.11 371.72 553.47 1016.75 304.04 1194.04 307.75 1092.92 390.82 1030.15 494.53 1186.51 498.29
00001189 00000090 931.70 84.53 370.41 550.69 1012.52 307.35 1193.82 311.87 1092.95 400.06 1026.15 499.67 1179.47 504.72
00001190 00000091 930.02 86.62 370.75 548.69 1010.17 310.60 1189.62 314.67 1089.39 403.25 1025.78 502.33 1172.98 506.96
00001191 00000092 920.35 82.96 380.99 547.08 1005.40 311.75 1191.64 310.01 1084.93 400.05 1031.36 502.76 1173.42 503.11
00001192 00000093 923.41 82.90 375.20 551.96 1004.50 320.81 1197.94 310.62 1092.76 401.73 1031.42 513.93 1178.20 505.36
00001193 00000094 922.96 83.61 374.43 554.80 1003.52 319.85 1196.87 309.49 1091.54 401.31 1032.01 516.18 1176.98 507.62
00001194 00000095 921.68 87.90 373.82 558.98 1005.05 308.77 1185.85 311.29 1086.33 399.50 1027.23 507.63 1169.21 511.07
00001195 00000096 922.99 87.16 374.43 562.69 1004.80 309.64 1184.23 309.37 1085.69 397.49 1027.46 504.85 1175.10 505.80
00001196 00000097 917.42 77.80 383.74 563.17 1000.82 312.64 1188.68 306.89 1081.12 399.16 1027.24 502.81 1179.61 499.63
00001197 00000098 916.46 78.31 385.52 560.35 1000.75 314.18 1190.23 308.17 1082.65 401.72 1026.95 504.00 1180.04 500.70
00001198 00000099 917.42 78.95 383.77 557.14 999.58 315.16 1193.72 308.30 1084.37 402.91 1024.93 506.31 1181.85 502.05
00001199 00000100 918.78 78.97 383.60 556.88 999.43 314.66 1193.18 308.06 1083.46 405.04 1024.47 507.18 1180.50 503.14
00001200 00000101 923.01 78.69 383.05 560.62 1000.52 315.66 1195.31 307.24 1083.75 407.46 1027.43 511.74 1184.16 506.11
00001201 00000102 932.77 84.04 376.79 572.61 1009.99 316.46 1192.64 313.23 1089.60 407.81 1032.63 516.04 1186.55 515.31
00001202 00000103 934.88 87.26 378.30 567.92 1012.32 319.32 1196.72 316.18 1093.70 412.34 1036.01 517.60 1191.93 516.77
00001203 00000104 934.71 88.51 384.25 562.64 1013.15 320.21 1199.28 316.47 1096.74 412.72 1039.38 517.24 1194.19 515.71
00001204 00000105 936.80 83.82 384.86 568.51 1013.83 320.21 1203.40 317.20 1100.37 416.84 1039.65 519.95 1200.21 518.73
00001205 00000106 941.96 83.14 388.12 567.87 1017.89 318.09 1207.75 313.93 1104.01 415.99 1045.26 521.97 1202.83 519.37
00001206 00000107 947.23 80.84 386.68 563.35 1022.73 316.15 1211.43 309.65 1110.45 410.35 1058.32 523.40 1206.57 518.76
00001207 00000108 951.69 82.53 384.34 563.17 1029.27 314.75 1216.96 305.21 1117.30 404.01 1068.27 525.13 1207.78 517.96
00001208 00000109 960.33 78.55 380.49 563.14 1035.42 315.07 1222.94 303.92 1122.84 401.73 1075.09 524.04 1216.26 514.76
00001209 00000110 963.77 77.12 381.86 566.59 1039.69 314.41 1229.89 301.28 1127.91 399.02 1077.25 522.31 1226.04 511.49
00001210 00000111 968.51 78.69 382.72 569.37 1044.01 316.58 1235.60 301.96 1130.55 398.19 1076.40 523.15 1228.93 511.81
00001211 00000112 960.55 79.20 392.18 574.65 1036.59 313.45 1235.49 293.98 1133.03 395.03 1072.61 526.75 1232.66 511.00
00001212 00000113 972.00 76.78 390.43 576.43 1050.28 316.35 1244.69 300.40 1137.25 397.19 1081.08 521.08 1241.57 507.64
00001213 00000114 970.94 73.61 394.70 580.45 1052.02 315.00 1247.95 299.09 1140.58 395.49 1083.58 520.44 1244.55 506.67
00001214 00000115 972.89 72.77 395.24 582.47 1055.39 314.00 1251.79 299.60 1143.48 391.93 1085.71 519.14 1246.58 506.64
00001215 00000116 972.86 77.43 395.02 589.19 1059.10 315.81 1252.72 308.40 1149.77 391.65 1083.94 516.17 1250.64 510.59
00001216 00000117 976.91 82.16 393.10 572.25 1063.47 325.93 1254.16 314.79 1147.86 399.42 1089.43 519.25 1250.52 510.07
00001217 00000118 979.13 87.52 393.03 571.41 1065.27 334.62 1257.75 323.11 1150.62 409.62 1089.45 525.17 1252.65 516.65
00001218 00000119 977.47 87.59 398.04 584.09 1067.77 332.28 1258.52 328.16 1153.67 409.78 1088.82 525.10 1255.67 521.77
00001219 00000120 980.87 86.17 397.71 591.01 1070.53 332.19 1259.66 333.44 1153.33 416.70 1086.34 527.93 1252.35 528.58
00001220 00000121 982.96 85.01 398.54 596.69 1070.17 333.91 1260.54 335.57 1151.01 422.57 1086.48 532.63 1251.84 533.68
00001221 00000122 984.51 87.55 397.39 592.31 1070.09 335.67 1260.57 338.23 1148.88 426.25 1086.40 534.17 1247.99 536.11
00001222 00000123 986.18 90.07 395.81 585.72 1069.50 337.44 1259.57 339.43 1146.62 427.75 1085.98 536.01 1243.66 537.90
00001223 00000124 990.25 89.91 397.09 578.52 1068.55 342.75 1258.59 338.95 1141.43 435.81 1085.18 537.92 1236.61 536.57
00001224 00000125 990.13 90.82 397.11 571.17 1066.89 341.34 1261.26 342.53 1139.85 440.48 1078.66 530.03 1238.28 532.68
00001225 00000126 991.40 91.04 396.40 568.52 1066.83 341.49 1259.69 343.69 1137.94 441.85 1078.83 529.08 1236.46 532.62
00001226 00000127 991.77 91.14 394.68 567.46 1066.07 341.78 1259.31 344.71 1136.67 443.00 1077.56 528.30 1235.62 532.57
00001227 00000128 991.54 89.24 395.84 570.67 1065.39 340.69 1259.07 344.71 1136.24 443.31 1076.96 528.25 1236.00 533.33
00001228 00000129 991.66 88.73 395.04 573.16 1065.01 340.86 1258.80 345.63 1136.08 444.04 1075.29 528.73 1235.33 534.45
00001229 00000130 989.33 85.84 396.72 575.91 1064.00 339.83 1257.29 345.12 1134.95 443.37 1074.25 528.82 1231.91 535.09
00001230 00000131 989.05 84.19 395.51 578.04 1063.13 340.34 1255.72 344.32 1134.70 442.91 1076.33 532.82 1228.86 538.02
00001231 00000132 984.35 77.02 401.34 594.53 1062.63 337.15 1250.59 333.22 1130.65 437.07 1080.90 544.30 1230.74 540.65
00001232 00000133 983.69 77.30 400.13 595.46 1059.02 339.12 1247.10 331.61 1127.71 437.72 1080.52 546.51 1231.76 539.67
00001233 00000134 983.37 78.15 398.58 595.56 1054.23 340.69 1244.81 331.99 1123.34 439.20 1077.14 549.07 1231.06 541.12
00001234 00000135 980.96 78.27 396.45 597.36 1049.33 342.27 1241.44 332.56 1119.48 441.19 1073.17 553.00 1226.96 544.16
00001235 00000136 980.28 83.78 392.15 594.94 1048.20 344.75 1238.24 336.08 1118.50 446.87 1072.97 554.77 1225.31 546.33
00001236 00000137 972.94 89.86 391.19 589.71 1041.18 353.36 1232.72 349.21 1115.30 462.43 1070.57 556.62 1224.64 553.67
00001237 00000138 971.37 91.28 391.40 590.44 1039.14 357.15 1229.68 353.03 1113.23 467.17 1070.36 559.58 1223.28 556.08
00001238 00000139 970.68 96.89 389.34 584.47 1037.50 359.73 1226.75 355.52 1110.87 468.65 1070.54 560.55 1221.70 556.90
00001239 00000140 972.94 96.66 388.35 587.59 1041.63 359.47 1230.66 354.01 1114.68 462.69 1068.76 564.42 1218.78 558.35
00001240 00000141 968.75 101.64 387.18 574.55 1034.07 362.96 1224.68 361.58 1109.08 473.37 1066.09 561.52 1216.93 559.77
00001241 00000142 967.82 103.83 387.68 570.82 1032.60 362.08 1224.38 360.45 1108.13 473.12 1065.20 559.77 1217.86 557.88
00001242 00000143 967.33 102.15 387.83 569.45 1032.00 360.08 1223.64 359.04 1107.27 472.08 1065.15 557.47 1217.83 555.96
00001243 00000144 968.02 99.98 387.93 571.91 1032.92 357.36 1222.89 356.75 1106.71 469.96 1064.75 554.58 1217.07 553.67
00001244 00000145 967.88 100.39 388.42 569.88 1033.36 356.21 1222.68 355.72 1106.56 467.24 1064.62 552.40 1217.60 551.58
00001245 00000146 968.45 99.16 387.78 569.80 1033.22 355.40 1222.07 354.63 1105.69 464.89 1064.17 550.26 1217.76 549.09
00001246 00000147 968.71 97.00 387.32 573.28 1033.87 352.53 1223.02 352.57 1105.68 461.74 1062.57 548.88 1217.08 548.62
00001247 00000148 967.52 96.95 387.30 571.59 1034.89 350.42 1221.96 351.11 1106.56 457.22 1064.60 547.94 1214.54 548.49
00001248 00000149 966.34 94.68 388.59 572.93 1034.15 350.17 1223.97 350.58 1109.16 455.59 1065.98 550.09 1216.04 550.12
00001249 00000150 964.82 91.38 388.59 576.19 1034.71 347.27 1225.01 348.70 1111.61 452.23 1063.02 547.33 1213.68 548.11
00001250 00000151 963.89 92.43 388.60 578.48 1033.68 346.64 1223.88 336.20 1113.44 440.37 1065.91 554.57 1210.60 545.17
00001251 00000152 968.86 89.52 384.70 578.62 1036.25 352.18 1225.05 336.77 1114.99 440.49 1071.02 561.03 1213.90 547.70
00001252 00000153 974.39 92.74 379.76 568.13 1043.26 349.17 1232.57 343.57 1122.29 441.63 1075.71 548.27 1220.26 544.89
00001253 00000154 976.28 91.51 384.30 565.98 1051.98 344.40 1242.91 335.81 1133.65 434.85 1081.29 543.04 1231.58 537.21
00001254 00000155 979.53 80.57 383.43 581.87 1058.81 331.46 1249.06 320.63 1147.03 427.80 1090.28 540.29 1240.43 530.85
00001255 00000156 982.79 88.41 384.25 574.20 1073.26 330.94 1257.56 331.67 1162.24 422.54 1095.84 527.53 1249.14 527.95
00001256 00000157 984.69 87.23 385.71 568.80 1076.89 330.53 1260.49 331.78 1168.41 422.97 1100.45 525.67 1253.27 526.97
00001257 00000158 984.99 86.79 389.09 559.05 1072.41 329.53 1271.92 322.59 1168.13 423.83 1098.80 526.78 1258.84 521.75
00001258 00000159 984.93 84.91 389.12 553.16 1072.39 324.67 1272.17 317.21 1168.69 419.06 1099.44 527.55 1257.42 521.94
00001259 00000160 986.94 80.35 384.58 570.66 1078.73 317.30 1261.57 322.51 1165.22 418.08 1100.71 526.21 1248.01 529.86
00001260 00000161 983.83 82.45 390.36 561.39 1070.06 318.41 1268.30 314.72 1162.09 415.52 1093.83 524.94 1248.70 522.81
00001261 00000162 985.26 78.50 385.10 568.08 1077.13 314.35 1262.65 321.74 1163.70 415.40 1093.72 522.91 1246.22 528.23
00001262 00000163 984.77 79.95 385.07 567.92 1079.00 314.53 1262.76 322.70 1164.46 414.47 1096.69 526.99 1243.28 533.36
00001263 00000164 983.32 81.07 385.70 585.53 1078.33 314.55 1264.07 318.62 1166.40 407.72 1098.76 526.12 1248.83 529.41
00001264 00000165 985.10 82.08 386.58 586.19 1076.81 314.65 1263.35 318.14 1162.12 405.59 1092.75 520.02 1253.11 522.66
