Video ID: 	M6_v8DgBliY
H: 	1080
W: 	1920
FPS: 	25.0

FRAME INDEX X0 Y0 W H [Landmarks (5 Points)]

00000413 00000000 929.49 132.21 366.09 555.32 982.50 320.94 1137.55 322.92 988.66 387.68 966.65 534.47 1091.84 536.35
00000414 DELETE   918.63 129.99 379.23 578.91 982.79 318.32 1131.65 327.39 985.55 403.05 965.90 537.58 1093.10 545.94
00000415 00000002 917.91 134.52 383.75 587.43 981.74 318.26 1132.06 330.90 982.11 412.83 959.76 545.56 1088.90 557.25
00000416 00000003 913.32 132.66 389.93 594.21 975.67 328.12 1129.89 341.02 981.66 424.81 956.74 552.32 1087.75 564.19
00000417 00000004 912.61 143.89 387.80 579.05 962.15 335.53 1129.87 348.69 973.09 428.08 945.78 560.72 1080.81 572.24
00000418 00000005 905.57 146.08 388.63 572.86 957.51 338.48 1128.60 354.19 970.77 432.89 939.76 561.02 1075.98 574.54
00000419 00000006 897.08 145.11 397.94 562.99 958.61 337.62 1130.01 359.43 970.60 432.53 931.01 557.63 1063.43 575.88
00000420 00000007 893.98 135.74 403.74 568.61 960.16 337.40 1131.42 362.32 971.13 431.43 930.33 554.52 1061.61 575.45
00000421 00000008 894.96 133.46 405.23 577.30 960.99 339.11 1131.36 365.99 971.67 434.95 930.70 556.58 1061.06 579.43
00000422 00000009 894.63 138.44 408.12 579.72 961.72 338.87 1131.72 367.58 971.58 439.51 930.54 560.90 1059.47 585.17
00000423 00000010 898.45 141.65 401.38 588.79 963.52 339.67 1134.27 365.38 975.02 440.88 934.65 568.74 1063.09 590.84
00000424 00000011 900.02 140.89 403.33 588.74 962.07 343.29 1133.24 365.22 975.15 443.00 936.33 571.14 1065.80 590.16
00000425 00000012 900.43 141.09 404.05 585.19 961.16 344.88 1132.22 366.92 973.97 441.80 934.09 569.30 1065.26 588.55
00000426 00000013 902.51 142.52 400.94 585.40 960.80 344.67 1133.22 366.03 974.70 443.05 935.49 571.62 1067.43 590.16
00000427 00000014 901.39 145.51 402.05 583.72 961.59 345.02 1133.92 366.72 974.84 444.65 937.49 572.69 1069.31 591.39
00000428 00000015 902.72 141.86 396.12 590.51 966.62 342.02 1141.67 368.46 980.09 443.06 940.01 570.90 1077.81 593.51
00000429 00000016 903.19 137.19 402.61 588.98 981.20 335.19 1142.61 362.06 989.64 437.11 946.01 556.92 1075.00 580.14
00000430 00000017 914.73 144.19 394.89 581.79 1004.28 324.17 1146.73 370.99 982.67 421.17 941.06 541.09 1056.09 581.25
00000431 00000018 912.88 145.11 405.14 590.40 1008.82 316.73 1156.83 377.07 986.37 420.75 937.65 539.46 1057.00 590.39
00000432 00000019 919.30 148.80 407.17 592.58 1009.44 319.16 1157.96 379.92 985.03 428.78 941.73 545.54 1062.77 596.97
00000433 00000020 924.24 142.73 403.98 606.46 1006.24 324.37 1158.07 382.89 987.18 438.12 946.64 550.59 1073.13 601.01
00000434 00000021 925.44 144.38 399.76 605.63 998.71 341.57 1153.70 394.71 990.23 448.71 952.71 562.31 1081.30 608.01
00000435 00000022 926.25 149.92 398.04 602.13 998.50 348.69 1149.72 404.43 989.38 453.94 952.24 567.66 1076.72 614.81
00000436 00000023 929.70 162.98 387.26 586.57 1000.74 353.72 1149.02 410.86 989.70 466.90 954.77 569.49 1078.03 617.37
00000437 00000024 929.70 162.81 409.44 594.54 1002.75 353.55 1161.95 420.75 989.65 483.98 954.84 572.33 1090.73 627.32
00000438 00000025 930.84 165.00 414.35 601.94 1006.87 362.14 1169.10 430.31 994.34 496.93 958.67 581.20 1099.03 636.09
00000439 00000026 932.78 161.08 414.97 605.29 1010.03 367.26 1172.25 432.99 998.03 498.77 963.48 585.76 1100.52 638.60
00000440 00000027 932.56 158.28 417.90 624.72 1010.87 364.00 1168.78 430.30 992.43 497.01 964.78 588.15 1104.22 641.39
00000441 00000028 928.39 158.76 419.43 612.59 1016.87 369.50 1170.00 428.01 995.30 495.60 954.12 596.07 1065.69 644.66
00000442 00000029 936.28 161.27 417.82 612.56 1019.25 355.81 1171.87 426.73 991.67 493.11 962.16 586.54 1086.09 644.34
00000443 DELETE   929.67 170.73 447.43 611.89 1022.67 359.69 1179.57 422.71 1004.32 474.17 967.77 579.12 1099.27 631.31
00000444 00000031 917.94 168.39 442.90 574.14 1014.08 342.11 1186.61 416.83 998.06 466.57 946.73 565.21 1070.23 626.66
00000445 00000032 943.93 151.25 427.87 584.86 1044.11 343.29 1189.96 407.69 1013.23 455.86 975.90 552.87 1088.82 604.96
00000446 00000033 944.29 154.05 429.65 589.83 1040.75 347.75 1187.33 407.99 1009.82 463.17 971.39 561.77 1084.96 610.74
00000447 DELETE   941.09 158.83 424.87 599.47 1025.59 353.19 1179.12 416.63 998.73 485.68 959.59 579.42 1075.59 631.02
00000448 DELETE   935.38 167.57 402.87 583.34 1000.96 350.49 1157.60 429.25 988.75 501.44 955.83 578.30 1067.89 644.21
00000449 00000036 916.92 171.64 414.24 570.14 998.14 368.98 1153.05 441.58 971.78 487.61 936.73 582.34 1048.62 642.36
00000450 00000037 918.85 161.49 423.15 597.91 1000.30 368.24 1162.84 435.78 982.31 501.49 938.53 590.92 1059.34 646.12
00000451 00000038 922.47 162.24 425.00 590.23 998.27 357.45 1164.99 426.53 984.17 491.51 942.15 579.35 1070.48 636.03
00000452 00000039 923.80 152.39 422.57 605.24 1003.85 356.98 1170.20 428.55 990.52 484.11 945.34 576.08 1077.26 635.03
00000453 00000040 927.88 156.27 412.67 616.56 1008.14 355.81 1167.23 426.04 989.63 489.28 950.81 581.11 1083.88 639.28
00000454 00000041 928.73 161.75 410.95 625.40 1003.24 361.56 1160.29 424.53 985.17 494.07 949.94 596.64 1078.45 649.07
00000455 00000042 926.25 163.54 408.20 624.22 1001.01 366.24 1160.04 425.72 986.97 495.76 948.81 599.41 1076.16 649.40
00000456 00000043 927.15 157.22 417.40 621.29 1002.56 360.37 1163.70 424.15 984.80 490.09 946.58 590.50 1077.31 643.72
00000457 00000044 928.74 154.85 418.51 621.10 1003.80 357.39 1163.77 420.44 985.04 485.05 948.83 585.87 1079.83 638.43
00000458 00000045 929.10 156.55 411.34 620.24 1003.24 355.26 1159.54 419.19 986.24 485.55 953.43 580.63 1091.45 633.30
00000459 00000046 930.69 161.06 408.00 610.58 1000.00 356.43 1156.44 417.29 985.10 488.04 956.29 578.48 1101.50 627.87
00000460 00000047 928.81 163.19 408.45 593.16 997.92 357.09 1159.28 420.38 986.37 490.17 956.03 571.98 1104.72 622.70
00000461 00000048 928.69 162.37 407.90 585.12 998.50 358.58 1161.48 419.87 990.93 488.61 957.91 569.23 1106.25 618.25
00000462 00000049 931.65 158.78 405.95 591.05 998.74 361.26 1164.06 418.30 994.13 489.39 959.45 575.69 1106.10 621.30
00000463 00000050 933.83 156.67 400.28 591.05 998.60 363.89 1161.20 418.20 992.82 489.91 959.96 578.25 1096.90 622.26
00000464 00000051 934.51 155.63 399.89 587.49 999.30 362.80 1160.49 415.81 993.27 486.82 961.49 574.21 1095.70 617.46
00000465 00000052 936.45 156.68 394.78 590.46 999.21 362.09 1159.18 409.24 994.13 483.87 963.09 577.23 1096.41 616.21
00000466 00000053 938.40 156.51 391.20 594.88 1000.60 360.27 1158.85 404.74 996.54 479.26 967.08 577.33 1100.73 614.23
00000467 00000054 937.80 156.38 393.05 597.58 1001.18 359.88 1159.84 401.02 999.34 476.48 971.21 578.19 1105.25 612.37
00000468 00000055 934.32 158.13 393.89 590.67 997.35 359.36 1159.52 401.36 997.40 474.78 965.73 577.15 1102.68 612.20
00000469 00000056 934.26 157.21 391.93 576.84 993.47 359.19 1155.97 398.41 994.85 472.36 961.61 572.84 1096.46 606.02
00000470 00000057 931.27 153.17 393.74 571.91 989.52 357.56 1154.92 394.26 993.54 468.74 957.56 569.31 1095.92 600.38
00000471 00000058 929.16 152.33 391.58 569.44 987.30 356.57 1152.20 391.47 993.42 466.85 956.21 567.02 1096.41 596.44
00000472 00000059 927.90 147.81 390.84 575.11 986.62 355.00 1150.81 389.32 991.94 464.77 954.67 565.75 1096.05 594.74
00000473 00000060 928.13 149.50 388.54 575.19 986.33 353.79 1148.56 388.02 990.80 465.06 956.31 565.27 1097.89 594.35
00000474 00000061 920.74 139.67 393.19 586.99 981.46 351.82 1151.24 384.62 992.49 461.93 955.99 569.94 1104.33 598.05
00000475 00000062 917.21 137.07 394.46 588.45 978.94 353.61 1148.20 383.52 990.28 460.12 955.11 569.66 1104.26 595.28
00000476 00000063 915.50 135.82 396.36 587.78 976.61 353.65 1147.38 382.48 989.56 459.75 954.21 569.26 1104.80 593.90
00000477 00000064 915.35 136.32 396.25 585.21 974.39 354.57 1145.39 381.18 988.24 459.54 953.02 569.31 1105.17 592.08
00000478 00000065 914.54 143.19 399.56 575.41 973.16 356.90 1145.80 381.93 986.23 457.86 954.12 564.45 1098.39 584.36
00000479 00000066 914.43 143.04 399.03 574.23 972.23 356.90 1145.40 381.67 986.10 458.52 954.22 564.61 1099.54 584.26
00000480 00000067 914.77 144.24 400.41 569.82 973.10 357.68 1146.55 381.70 987.72 458.04 956.02 563.14 1101.50 582.37
00000481 00000068 915.40 145.71 401.01 564.22 972.63 358.36 1146.55 381.97 987.69 457.86 956.19 562.51 1101.85 581.64
00000482 00000069 913.83 143.72 401.02 563.64 971.29 357.74 1146.64 381.27 987.83 456.55 954.63 561.22 1100.57 580.67
00000483 00000070 914.18 141.95 400.67 564.21 971.61 357.45 1145.85 380.79 987.69 455.03 954.75 560.22 1099.19 579.56
00000484 00000071 913.98 139.88 401.10 564.64 970.77 357.21 1146.02 380.28 987.51 453.82 954.67 559.62 1099.36 578.83
00000485 00000072 912.68 140.22 403.62 560.82 969.05 356.40 1145.82 378.69 986.86 451.28 952.82 558.48 1097.21 577.49
00000486 00000073 912.53 140.01 402.99 557.18 968.21 354.61 1146.12 377.12 988.04 450.59 952.34 555.87 1098.60 575.20
00000487 00000074 911.91 139.35 402.04 555.90 968.48 352.83 1145.76 375.87 988.84 447.17 951.82 553.03 1098.65 572.76
00000488 00000075 906.28 139.83 402.81 555.54 964.66 346.26 1134.86 371.40 979.01 444.07 946.39 552.05 1093.42 572.31
00000489 00000076 904.04 139.40 405.73 554.81 963.56 343.17 1133.88 368.45 978.75 441.50 946.27 548.92 1095.11 569.25
00000490 00000077 902.65 138.46 407.87 554.97 962.76 341.98 1133.83 367.17 976.76 438.19 944.49 544.35 1096.15 564.58
00000491 00000078 906.23 146.03 403.53 545.42 963.30 342.48 1141.65 366.57 983.00 432.70 946.21 540.19 1098.63 560.28
00000492 00000079 905.10 147.26 402.33 541.73 961.00 342.64 1140.61 364.81 983.23 429.74 943.22 539.64 1096.25 558.27
00000493 00000080 897.62 142.12 403.70 542.20 958.61 340.18 1132.68 359.25 979.08 429.47 940.10 539.02 1090.60 554.38
00000494 00000081 897.37 141.12 403.29 540.88 957.60 340.05 1130.24 356.64 976.88 425.67 939.62 538.18 1086.77 551.86
00000495 00000082 896.73 141.30 399.37 536.36 956.14 339.91 1127.33 353.43 975.91 421.41 939.44 536.08 1082.09 547.60
00000496 00000083 896.83 139.71 397.06 534.92 956.57 339.27 1124.56 351.76 974.43 418.11 939.39 532.64 1079.26 543.49
00000497 00000084 897.08 143.74 395.55 530.19 954.50 339.45 1122.75 351.43 972.04 417.33 937.33 532.46 1077.45 542.76
00000498 00000085 895.91 149.40 392.24 526.88 954.01 343.60 1120.16 355.39 971.47 419.91 937.74 535.48 1074.81 545.46
00000499 00000086 896.49 152.58 392.89 527.78 951.50 346.18 1117.02 358.63 970.20 426.58 937.17 539.98 1074.10 550.18
00000500 00000087 895.93 148.78 386.06 524.85 943.93 353.59 1110.12 359.11 962.50 435.98 934.23 540.65 1083.88 547.15
00000501 00000088 896.07 151.01 385.50 523.59 943.47 354.46 1108.89 359.97 960.51 436.72 933.29 540.47 1083.36 547.12
00000502 00000089 895.90 152.40 384.52 520.52 942.20 355.27 1106.18 358.74 959.22 436.30 933.19 540.19 1083.12 545.08
00000503 00000090 896.72 152.92 383.95 518.30 941.71 355.47 1104.92 358.05 958.11 436.18 933.37 539.78 1083.15 543.88
00000504 00000091 896.82 154.18 383.70 516.35 941.93 356.06 1104.54 357.22 958.65 435.20 934.85 539.56 1084.26 542.39
00000505 00000092 896.98 155.36 382.79 514.67 941.42 356.99 1103.55 357.11 958.18 435.32 934.97 539.64 1085.53 541.55
00000506 00000093 897.64 156.38 384.33 514.36 941.32 358.48 1103.88 358.40 956.91 435.90 934.83 540.17 1086.22 541.79
00000507 00000094 896.34 157.00 385.13 513.82 941.64 358.11 1104.05 359.05 957.39 435.61 934.39 538.98 1086.84 541.47
00000508 00000095 896.76 158.97 383.84 511.82 943.07 358.36 1104.25 358.80 959.18 435.14 936.22 538.23 1087.77 540.39
00000509 00000096 897.97 161.01 384.94 509.77 944.50 358.73 1105.58 358.92 960.94 435.36 937.89 538.73 1088.79 540.62
00000510 00000097 898.58 160.34 384.52 510.22 944.92 359.11 1105.55 358.98 961.27 435.01 938.44 538.52 1088.91 540.17
00000511 00000098 897.94 158.75 385.48 511.71 945.19 358.36 1106.62 358.60 962.60 434.99 939.14 538.71 1089.62 540.50
00000512 00000099 898.55 158.59 385.65 512.86 945.52 358.68 1107.15 358.89 962.88 435.17 939.91 539.60 1090.25 541.38
00000513 00000100 899.38 157.78 384.51 514.86 946.64 359.09 1107.97 359.46 963.76 435.78 940.92 540.11 1091.52 541.99
00000514 00000101 900.67 158.98 384.10 513.94 947.75 359.20 1109.05 359.57 965.01 435.69 941.63 540.53 1091.59 542.52
00000515 00000102 901.49 161.95 384.42 511.86 948.79 358.60 1111.34 359.73 966.33 436.29 942.75 542.07 1092.25 544.80
00000516 00000103 901.81 160.87 384.83 516.80 949.98 357.37 1113.36 359.95 967.07 436.75 942.80 543.30 1091.82 547.37
00000517 00000104 902.29 159.97 385.06 519.44 952.14 356.09 1115.99 360.55 969.78 437.46 944.06 542.68 1092.55 548.41
00000518 00000105 908.40 170.00 385.07 523.08 958.93 349.64 1119.23 362.37 971.04 432.21 947.61 544.51 1087.65 553.90
00000519 00000106 910.87 167.65 382.45 531.61 960.36 352.58 1120.03 361.86 972.70 431.68 949.75 548.54 1088.59 555.16
00000520 00000107 911.44 168.00 383.11 535.67 961.21 355.18 1119.98 361.86 973.85 431.53 951.56 550.92 1088.60 555.58
00000521 00000108 912.08 166.18 382.07 540.99 962.74 357.37 1119.81 361.20 976.96 429.43 952.92 553.87 1086.87 556.51
00000522 00000109 915.00 167.49 378.68 546.97 964.81 357.07 1120.83 359.29 978.59 430.07 956.59 558.72 1086.75 560.07
00000523 00000110 915.67 169.25 378.05 547.73 965.02 356.62 1121.50 356.99 979.77 429.39 957.29 561.21 1087.17 561.17
00000524 00000111 916.26 165.22 377.80 552.41 968.25 354.35 1125.58 355.03 983.02 428.50 959.24 561.59 1088.67 562.10
00000525 00000112 916.39 163.31 377.90 554.78 970.26 353.50 1128.88 353.80 985.30 426.63 960.67 562.91 1089.15 563.29
00000526 00000113 921.56 164.17 371.93 554.85 972.10 351.86 1130.55 350.61 987.52 424.18 963.83 562.18 1092.71 561.37
00000527 00000114 926.59 160.72 368.52 557.51 975.50 349.38 1134.44 347.92 989.47 419.41 965.94 559.75 1095.32 558.93
00000528 00000115 935.01 163.66 362.12 552.92 989.67 342.33 1134.28 342.90 1001.24 409.55 980.06 549.32 1098.65 552.43
00000529 00000116 940.08 160.79 359.44 555.70 994.28 342.28 1138.39 342.05 1006.50 407.35 985.75 548.26 1103.73 551.06
00000530 00000117 947.94 159.32 355.47 560.11 1000.31 337.48 1142.58 340.77 1007.54 406.00 991.10 546.63 1108.88 552.74
00000531 00000118 951.69 153.90 355.42 565.44 1004.07 339.11 1147.66 345.79 1013.52 410.68 995.23 548.22 1113.28 557.37
00000532 00000119 952.16 157.17 358.30 562.19 1007.35 339.02 1155.22 350.45 1021.33 418.75 997.71 550.31 1117.84 563.24
00000533 DELETE   955.07 162.45 361.66 566.31 1010.84 341.16 1158.51 354.48 1023.24 427.76 1000.46 560.76 1117.30 575.04
00000534 00000121 955.35 167.02 363.69 573.16 1019.95 344.66 1168.09 368.10 1030.25 446.43 999.60 568.01 1117.14 590.82
00000535 DELETE   956.32 164.58 375.48 583.57 1023.42 352.93 1173.18 380.77 1026.61 464.70 996.01 580.11 1107.35 606.10
00000536 00000123 958.77 163.88 380.69 591.90 1021.93 364.19 1174.11 393.97 1023.56 483.99 999.41 595.11 1108.41 621.92
00000537 00000124 952.75 164.99 382.65 583.30 1016.37 377.46 1178.45 412.36 1028.47 498.16 989.12 601.11 1112.47 630.89
00000538 00000125 949.99 171.75 382.39 582.55 1018.96 385.26 1182.33 426.49 1032.06 513.91 991.68 600.54 1119.42 634.92
00000539 00000126 951.52 174.99 382.45 577.07 1016.93 394.75 1180.93 437.10 1030.55 524.29 991.81 604.72 1123.30 639.50
00000540 00000127 948.09 179.88 380.77 581.47 1015.24 401.42 1178.80 444.79 1028.87 533.97 994.49 609.26 1129.20 644.86
00000541 00000128 947.32 187.30 384.48 577.91 1014.89 410.08 1177.40 457.74 1024.18 544.34 996.40 611.61 1133.07 650.63
00000542 00000129 946.43 191.68 386.06 576.12 1015.31 416.10 1178.44 467.53 1023.60 547.81 996.11 610.74 1134.02 652.52
00000543 00000130 945.79 196.68 388.43 571.44 1014.97 419.67 1175.68 470.03 1021.64 547.66 995.87 612.41 1129.74 653.64
00000544 00000131 945.61 197.25 385.79 569.58 1014.79 419.52 1174.05 472.15 1019.42 546.51 992.55 610.87 1123.79 654.03
00000545 00000132 946.14 195.84 386.06 568.68 1017.54 417.76 1175.17 471.17 1021.79 544.01 992.68 608.18 1122.02 651.96
00000546 00000133 948.29 193.92 380.96 565.72 1020.76 415.71 1179.17 468.13 1027.39 541.50 994.77 605.87 1123.83 649.06
CROP_BBOX: 614 0 1665 982
