Video ID: 	myzYPjLiieI
H: 	1080
W: 	1920
FPS: 	25.0

FRAME INDEX X0 Y0 W H [Landmarks (5 Points)]

00007399 00000000 931.76 321.86 472.93 597.49 1065.20 556.71 1276.44 577.64 1152.97 723.52 1052.50 760.24 1230.86 779.47
00007400 DELETE   929.60 303.43 471.78 607.69 1057.27 541.17 1272.87 562.18 1147.25 713.96 1053.08 750.61 1227.25 770.90
00007401 00000002 924.66 279.99 470.09 617.67 1055.81 529.09 1272.84 545.05 1148.18 697.35 1050.40 741.82 1224.38 757.55
00007402 00000003 919.55 270.66 465.37 616.92 1050.11 512.58 1270.54 531.79 1145.32 688.70 1048.77 731.01 1221.80 749.85
00007403 00000004 914.14 273.94 464.40 605.41 1045.51 508.81 1265.34 527.35 1141.23 686.72 1046.29 727.64 1214.88 746.28
00007404 00000005 909.24 272.88 463.43 612.73 1039.62 511.47 1256.89 532.14 1133.48 690.03 1040.67 729.48 1209.59 749.80
00007405 00000006 905.90 275.21 465.79 624.04 1034.07 523.07 1252.32 546.80 1124.49 702.07 1032.11 741.57 1201.86 763.97
00007406 00000007 901.77 293.77 466.95 610.82 1032.25 540.50 1239.17 559.16 1122.30 711.86 1024.84 749.39 1203.94 766.24
00007407 00000008 899.06 306.98 469.73 602.17 1029.32 549.29 1237.13 563.46 1120.81 715.29 1022.02 751.23 1207.40 764.88
00007408 00000009 899.47 293.84 466.34 611.58 1033.99 544.53 1239.04 558.05 1128.98 712.28 1027.37 748.96 1209.79 761.64
00007409 00000010 903.72 282.57 466.74 620.18 1034.61 526.02 1248.76 545.98 1127.17 699.86 1034.47 736.56 1211.08 755.48
00007410 00000011 909.07 272.99 467.40 619.70 1044.51 510.96 1259.00 529.41 1138.97 687.73 1040.26 725.16 1215.03 743.67
00007411 00000012 918.69 259.61 465.71 620.97 1055.28 504.28 1270.96 521.88 1152.30 676.21 1048.66 718.20 1224.51 736.38
00007412 DELETE   931.35 261.42 469.63 624.31 1067.48 511.65 1280.81 529.72 1159.97 682.52 1055.63 721.38 1236.01 739.55
00007413 DELETE   941.05 282.42 472.68 613.25 1081.49 525.56 1296.86 546.31 1174.05 705.00 1063.00 735.98 1244.45 756.54
00007414 00000015 949.45 284.82 473.35 621.79 1090.08 534.51 1302.67 556.07 1182.96 718.80 1069.86 743.91 1251.39 765.49
00007415 00000016 951.41 287.52 474.21 619.13 1095.55 536.66 1306.23 555.68 1190.90 717.46 1075.56 740.36 1259.88 759.75
00007416 00000017 954.04 282.22 480.40 622.32 1099.20 528.89 1311.58 546.02 1196.43 702.86 1083.30 735.31 1268.03 752.55
00007417 00000018 962.35 275.56 473.23 625.70 1107.37 516.18 1319.71 536.89 1204.53 695.04 1098.28 729.91 1276.17 750.14
00007418 00000019 971.60 257.31 467.49 632.18 1118.35 509.61 1324.48 526.40 1214.44 680.84 1110.91 718.74 1282.35 735.94
00007419 00000020 972.24 250.77 471.87 624.00 1125.51 498.20 1333.28 516.31 1223.64 667.94 1116.96 711.36 1283.88 730.02
00007420 DELETE   973.35 238.74 475.90 621.29 1131.21 485.82 1338.81 502.24 1230.25 654.76 1117.86 696.34 1286.85 713.16
00007421 00000022 985.45 222.71 470.82 637.72 1131.28 470.21 1337.75 491.64 1223.58 642.77 1116.86 682.29 1291.07 703.20
00007422 00000023 987.32 212.15 467.03 641.95 1133.17 463.28 1340.45 481.47 1226.16 632.39 1116.96 676.95 1291.67 695.39
00007423 00000024 984.75 210.88 471.28 631.49 1132.25 458.75 1342.83 476.74 1227.31 624.91 1118.57 672.59 1291.48 690.88
00007424 00000025 985.50 210.38 470.45 628.00 1130.05 450.33 1342.42 470.26 1225.04 619.71 1117.01 670.32 1288.82 690.30
00007425 00000026 985.32 200.03 469.07 630.65 1128.29 445.27 1340.87 466.05 1222.95 616.64 1114.41 662.71 1289.45 683.50
00007426 00000027 981.88 193.89 468.85 636.06 1126.88 440.58 1339.17 462.63 1222.22 612.75 1112.03 660.56 1287.90 682.33
00007427 00000028 979.55 194.96 467.88 635.57 1122.04 439.70 1336.29 461.73 1218.38 615.66 1109.45 662.70 1284.66 684.51
00007428 00000029 978.51 202.65 464.30 627.56 1119.86 446.26 1332.56 467.74 1215.09 618.84 1109.52 665.09 1281.73 686.32
00007429 00000030 980.67 219.55 462.82 618.39 1120.56 457.01 1330.93 480.34 1211.64 630.21 1109.26 673.43 1278.65 696.19
00007430 00000031 975.08 227.90 467.67 623.18 1126.14 469.59 1326.15 490.04 1216.73 642.62 1109.45 685.95 1284.66 704.35
00007431 00000032 971.77 244.60 473.11 616.11 1127.69 485.41 1334.12 506.77 1223.50 655.98 1109.80 692.54 1282.22 713.55
00007432 00000033 971.59 242.57 473.85 618.89 1128.75 483.43 1334.68 505.24 1224.26 655.99 1110.99 693.67 1280.87 715.19
00007433 00000034 970.71 228.89 468.69 626.10 1126.84 471.42 1325.59 491.31 1217.43 647.47 1107.27 686.64 1283.29 705.00
00007434 00000035 967.32 228.81 465.13 613.92 1120.46 460.64 1318.00 481.35 1213.07 637.32 1103.69 677.00 1275.19 696.20
00007435 00000036 962.37 213.31 472.93 626.47 1109.23 462.36 1316.68 482.73 1202.61 634.54 1090.02 674.40 1267.39 693.38
00007436 00000037 957.40 227.18 467.76 613.79 1110.67 463.20 1307.95 484.69 1202.11 638.00 1093.43 675.84 1265.13 695.98
00007437 00000038 956.09 234.63 467.48 613.33 1106.28 470.29 1306.45 489.79 1198.57 643.45 1089.43 682.07 1266.25 700.80
00007438 00000039 954.95 232.56 468.15 617.81 1105.45 471.42 1307.30 489.46 1199.48 645.87 1089.75 685.65 1266.39 703.16
00007439 00000040 956.50 228.74 464.18 611.73 1110.43 464.05 1308.66 481.74 1204.12 640.20 1097.47 683.59 1261.99 700.51
00007440 00000041 956.12 214.36 472.90 624.83 1103.92 464.21 1311.94 478.74 1201.30 637.80 1093.48 680.46 1264.30 694.95
00007441 00000042 956.97 216.76 472.01 620.81 1105.23 463.81 1312.19 479.03 1201.81 637.85 1094.02 680.96 1261.40 696.13
00007442 00000043 954.03 227.22 467.58 619.93 1109.18 466.58 1308.19 483.80 1204.19 644.30 1098.21 689.85 1261.52 706.37
00007443 00000044 952.96 230.88 466.16 619.80 1107.41 470.77 1307.80 487.01 1202.40 646.20 1094.07 692.58 1259.30 708.71
00007444 00000045 957.12 227.78 458.36 607.73 1112.31 464.53 1307.01 480.55 1206.69 637.06 1100.22 680.34 1261.03 695.94
00007445 00000046 954.20 214.27 467.54 603.22 1103.65 446.58 1312.33 458.93 1206.72 614.31 1099.71 666.80 1264.30 679.86
00007446 00000047 955.14 184.46 463.01 616.49 1097.85 427.64 1307.30 440.96 1200.42 598.31 1098.19 651.45 1263.62 665.15
00007447 00000048 953.93 184.17 464.97 620.59 1094.57 416.41 1305.87 433.30 1194.50 590.96 1092.05 645.21 1261.22 661.79
00007448 00000049 955.59 181.25 463.09 630.83 1097.35 424.58 1307.61 440.36 1199.49 596.67 1095.77 654.73 1262.37 670.15
00007449 00000050 959.38 197.49 471.17 632.47 1104.88 445.80 1316.06 460.92 1207.25 620.39 1102.18 679.17 1265.72 693.63
00007450 00000051 964.33 225.78 462.41 626.15 1109.80 469.46 1313.83 486.85 1206.84 645.45 1103.73 698.87 1267.78 714.94
00007451 00000052 960.14 247.64 472.45 613.19 1111.79 479.81 1318.92 494.20 1208.34 658.62 1104.29 706.48 1273.84 720.71
00007452 00000053 957.86 251.00 474.67 613.48 1111.57 479.70 1318.18 495.49 1208.09 657.46 1098.43 699.18 1276.37 715.02
00007453 00000054 959.22 230.38 472.37 633.30 1115.96 471.52 1316.54 490.36 1209.85 647.39 1099.63 691.01 1276.12 708.75
00007454 00000055 956.36 212.63 473.03 642.62 1118.16 458.00 1315.53 479.93 1214.30 633.60 1102.20 680.12 1272.14 700.21
00007455 00000056 963.93 217.21 474.56 625.48 1115.41 444.43 1326.53 467.17 1210.69 624.26 1105.29 670.19 1271.97 692.53
00007456 00000057 967.83 206.53 474.30 629.94 1116.56 444.41 1330.58 468.13 1212.85 625.35 1106.41 669.79 1275.79 692.85
00007457 00000058 966.69 214.85 477.72 618.25 1121.78 449.76 1333.96 474.69 1215.04 631.42 1105.54 670.27 1271.87 694.63
00007458 00000059 964.37 208.54 478.55 625.16 1123.27 453.89 1334.98 481.45 1216.19 635.82 1101.94 676.57 1265.78 702.98
00007459 00000060 962.77 207.60 480.95 622.41 1123.88 451.53 1335.75 479.64 1216.57 633.33 1101.26 674.28 1263.14 701.40
00007460 00000061 961.44 198.99 481.35 624.73 1122.33 441.08 1337.08 470.85 1217.11 625.03 1102.43 666.58 1265.76 694.95
00007461 00000062 959.70 183.76 478.41 630.35 1122.29 430.81 1333.31 464.14 1213.90 615.15 1097.70 655.65 1257.84 686.82
00007462 00000063 956.08 173.83 476.91 634.81 1119.70 425.62 1319.53 454.15 1207.17 603.63 1092.77 646.87 1257.17 673.23
00007463 00000064 952.83 182.87 476.08 623.92 1111.97 422.12 1313.25 450.61 1200.12 600.01 1085.04 642.63 1252.60 669.30
00007464 00000065 952.12 190.85 473.83 617.92 1106.83 424.26 1308.88 454.62 1193.30 604.15 1080.23 643.50 1248.54 671.70
00007465 00000066 949.15 200.19 476.73 617.38 1103.19 432.36 1308.92 456.66 1195.40 610.59 1082.48 652.98 1251.96 676.17
00007466 00000067 948.61 207.05 475.76 617.32 1101.38 437.49 1307.25 459.90 1195.57 615.45 1084.80 660.03 1252.26 681.59
00007467 00000068 948.77 212.83 474.56 613.99 1100.71 440.87 1308.27 462.26 1197.46 618.04 1083.88 662.38 1253.60 683.04
00007468 00000069 951.00 212.91 475.03 614.60 1101.90 442.16 1311.09 461.97 1200.53 618.53 1088.15 664.95 1259.62 684.10
00007469 00000070 956.32 209.19 473.11 616.01 1106.24 440.27 1313.42 461.17 1201.79 617.04 1090.39 660.24 1263.34 680.12
00007470 00000071 962.96 201.38 469.58 621.55 1107.99 435.65 1320.54 461.16 1203.03 616.05 1098.46 656.86 1269.25 681.03
00007471 00000072 967.53 201.60 468.65 623.78 1113.33 433.24 1324.20 459.99 1206.99 614.01 1101.15 654.89 1272.30 680.35
00007472 00000073 971.99 195.49 465.96 630.13 1117.99 433.17 1328.20 461.28 1210.71 614.57 1102.24 653.67 1275.27 680.26
00007473 00000074 973.76 202.52 466.42 624.27 1121.57 432.25 1330.97 460.48 1213.44 617.61 1104.32 654.18 1275.74 681.38
00007474 00000075 974.86 203.51 466.76 622.72 1122.53 434.45 1333.18 462.05 1215.27 618.57 1105.00 655.06 1276.82 681.83
00007475 00000076 975.20 204.38 467.91 622.48 1124.25 436.94 1335.68 463.43 1217.97 620.54 1107.11 657.98 1278.17 683.84
00007476 00000077 974.69 211.29 469.32 615.98 1124.85 439.50 1337.74 465.49 1219.86 620.93 1107.86 659.73 1277.86 685.12
00007477 00000078 974.73 212.78 470.16 615.05 1125.62 440.38 1338.48 466.39 1220.63 621.21 1107.69 658.87 1278.60 684.33
00007478 00000079 974.63 214.02 471.45 612.41 1126.28 439.60 1339.06 464.62 1221.70 619.85 1109.07 658.03 1278.91 682.75
00007479 00000080 975.91 211.09 469.46 615.73 1125.87 437.30 1338.36 462.38 1221.44 619.33 1109.18 655.96 1281.27 680.79
00007480 00000081 975.15 212.55 470.27 614.47 1126.30 438.33 1338.76 462.80 1222.30 619.76 1109.03 655.99 1281.23 680.35
00007481 00000082 975.88 212.65 469.76 614.87 1127.07 444.08 1339.53 467.96 1221.84 624.44 1110.07 661.53 1279.61 685.08
00007482 00000083 977.25 215.42 471.35 620.39 1126.67 460.31 1335.69 483.05 1217.75 636.68 1106.59 669.81 1278.23 692.35
00007483 00000084 979.88 228.63 475.58 623.03 1129.85 469.71 1334.72 497.05 1218.59 649.80 1108.17 676.61 1281.11 703.07
00007484 00000085 970.82 239.19 482.59 614.82 1132.31 479.62 1338.75 498.36 1229.68 653.27 1111.35 687.40 1283.95 706.26
00007485 00000086 977.82 230.04 476.74 622.93 1127.43 470.33 1333.10 496.28 1216.65 652.03 1110.04 684.83 1276.23 709.97
00007486 00000087 976.37 221.16 470.79 624.70 1125.74 466.31 1333.25 485.91 1217.83 639.93 1111.06 681.26 1278.32 700.82
00007487 00000088 972.25 212.62 475.99 633.18 1122.16 455.81 1335.23 475.98 1218.35 636.18 1108.38 676.41 1281.32 696.37
00007488 00000089 972.65 221.47 475.87 626.04 1120.48 453.82 1334.45 473.83 1216.61 635.48 1108.97 675.86 1282.59 695.72
00007489 00000090 974.83 221.47 473.38 625.80 1124.34 465.58 1332.47 485.01 1217.54 640.41 1111.06 680.16 1280.98 699.39
00007490 00000091 970.12 224.42 477.35 637.48 1129.35 474.51 1333.54 496.10 1227.22 651.16 1115.97 690.15 1285.12 710.70
00007491 00000092 969.00 241.09 479.42 621.27 1128.26 479.37 1336.06 499.02 1228.10 655.64 1115.30 694.90 1284.48 714.66
00007492 00000093 968.43 240.23 479.83 616.28 1128.79 477.70 1336.63 497.11 1228.22 653.24 1113.82 692.17 1282.85 711.50
00007493 00000094 969.08 234.59 477.30 619.59 1129.59 475.40 1333.54 495.70 1227.02 650.45 1113.47 686.72 1282.32 706.56
00007494 00000095 968.91 230.79 476.20 626.04 1129.03 472.91 1334.26 494.70 1227.26 648.91 1112.26 685.70 1283.55 706.69
00007495 00000096 968.51 234.28 477.39 625.06 1128.46 474.41 1333.56 495.25 1227.19 650.65 1112.44 687.32 1282.69 707.67
00007496 00000097 967.66 231.74 478.81 629.48 1129.41 474.61 1334.98 495.07 1229.75 650.28 1113.31 688.24 1285.64 708.22
00007497 00000098 968.76 234.33 481.33 625.23 1130.66 478.78 1339.87 495.92 1233.39 652.87 1115.62 693.70 1289.28 711.15
00007498 00000099 969.20 245.50 483.83 612.34 1130.10 483.37 1344.49 497.23 1234.59 655.96 1118.25 701.60 1288.28 716.69
00007499 00000100 980.41 244.18 480.65 602.91 1128.78 479.57 1340.87 500.01 1224.01 660.81 1118.17 701.37 1280.52 721.32
00007500 00000101 981.38 243.27 479.20 601.98 1129.51 476.28 1340.12 497.08 1223.62 655.91 1117.06 696.07 1280.51 716.61
00007501 00000102 978.81 232.92 478.91 616.67 1128.91 473.54 1337.96 494.06 1223.58 652.36 1114.96 690.92 1282.92 711.36
00007502 00000103 977.35 228.17 479.19 630.61 1128.29 469.72 1336.94 490.76 1223.19 648.66 1114.79 689.22 1285.44 709.65
00007503 00000104 977.18 226.97 478.61 633.49 1127.61 472.65 1336.90 493.39 1223.30 651.65 1115.24 692.57 1285.82 712.54
00007504 00000105 967.03 238.13 485.70 628.54 1130.71 491.34 1343.89 505.66 1236.08 664.78 1116.52 705.71 1291.07 721.62
00007505 00000106 971.24 238.76 481.57 639.74 1128.82 503.83 1344.57 522.93 1230.25 682.20 1111.37 713.81 1294.06 733.82
00007506 00000107 973.13 267.29 478.93 618.49 1127.40 512.30 1341.47 535.33 1225.03 693.23 1108.83 721.52 1286.35 744.92
00007507 00000108 973.21 266.53 482.37 623.60 1125.84 513.14 1343.47 535.16 1224.04 695.51 1109.19 727.41 1286.29 749.74
00007508 00000109 972.26 264.28 484.07 624.41 1129.80 510.01 1342.85 532.38 1226.66 689.68 1112.10 722.26 1285.52 744.85
00007509 00000110 972.31 245.43 482.30 632.30 1133.15 503.02 1343.13 524.14 1229.86 678.62 1113.60 713.45 1286.43 734.95
00007510 00000111 971.10 250.56 481.49 622.15 1132.81 493.88 1342.38 516.59 1230.06 670.67 1112.06 704.47 1285.36 727.46
00007511 00000112 968.29 238.21 480.93 628.84 1128.25 486.38 1336.91 507.58 1225.87 662.47 1107.48 694.88 1285.59 716.02
00007512 00000113 966.90 235.69 480.25 625.92 1126.34 476.83 1333.44 500.24 1223.53 653.69 1105.72 684.26 1283.68 706.79
00007513 00000114 963.44 231.04 476.21 622.32 1125.28 472.17 1321.44 494.38 1217.06 647.72 1098.71 677.72 1280.60 698.63
00007514 00000115 962.89 230.31 470.37 615.44 1120.80 467.16 1317.57 488.27 1212.51 643.71 1098.14 676.97 1275.18 696.93
00007515 00000116 960.38 233.83 469.37 607.19 1118.24 461.98 1314.80 481.42 1211.24 639.66 1097.74 674.55 1270.93 693.34
00007516 00000117 961.04 220.43 473.76 614.89 1113.00 462.25 1318.09 480.63 1207.05 637.14 1091.78 672.28 1266.79 689.94
00007517 00000118 958.70 218.49 475.25 615.67 1113.70 456.27 1319.11 474.09 1209.97 630.97 1094.51 669.44 1266.96 686.86
00007518 00000119 956.27 214.40 476.75 619.54 1113.00 452.18 1319.18 469.05 1210.81 627.31 1095.39 667.76 1268.79 684.43
00007519 00000120 959.11 216.49 466.07 616.64 1114.33 444.83 1314.75 460.74 1212.47 619.57 1102.56 667.26 1270.16 682.15
00007520 00000121 957.50 212.55 472.31 618.43 1110.01 445.81 1315.00 462.69 1207.09 619.49 1096.40 663.91 1267.18 680.22
00007521 00000122 955.59 215.93 472.05 615.26 1107.97 444.94 1312.75 463.03 1204.54 618.57 1094.00 662.37 1263.99 679.92
00007522 00000123 954.67 217.41 471.84 614.41 1107.49 446.64 1312.14 464.87 1204.00 619.80 1092.36 661.65 1263.98 679.47
00007523 00000124 954.69 214.79 472.69 617.70 1106.95 448.18 1312.64 464.57 1204.84 620.88 1094.90 665.40 1265.83 681.46
00007524 00000125 958.42 217.87 469.83 614.31 1108.07 447.61 1313.07 465.02 1204.76 622.18 1094.88 664.88 1266.03 681.57
00007525 00000126 959.00 216.01 473.60 617.45 1110.93 446.67 1315.26 463.80 1207.54 620.33 1098.37 667.82 1266.49 683.93
00007526 00000127 960.80 214.22 473.49 620.65 1111.26 445.30 1317.00 462.69 1207.73 621.23 1098.94 669.76 1267.00 685.95
00007527 00000128 967.21 212.88 463.94 620.06 1110.02 442.74 1320.27 466.67 1204.08 625.24 1102.72 668.02 1266.67 691.12
00007528 00000129 966.64 214.42 465.53 619.42 1109.87 442.16 1321.21 465.33 1204.75 624.71 1103.12 667.91 1267.87 690.41
00007529 00000130 966.52 216.58 465.98 616.95 1109.69 442.61 1321.04 465.61 1204.77 625.17 1103.03 668.00 1268.24 690.42
00007530 00000131 967.18 220.14 465.92 613.35 1110.66 442.43 1321.35 465.44 1205.55 624.91 1103.44 666.65 1269.04 689.13
00007531 00000132 967.64 220.51 465.48 612.61 1110.99 441.42 1321.75 465.20 1205.33 624.24 1103.04 666.34 1268.11 689.52
00007532 00000133 967.21 219.95 465.52 613.06 1110.63 440.49 1322.23 465.02 1205.13 624.20 1102.41 667.48 1266.58 691.32
00007533 00000134 966.92 218.95 465.52 614.30 1110.05 441.15 1321.93 464.78 1205.38 623.80 1102.77 668.60 1266.92 691.61
00007534 00000135 966.82 217.05 464.38 614.94 1109.35 441.93 1320.54 465.66 1204.32 624.30 1102.50 668.52 1266.22 691.55
00007535 00000136 965.61 217.81 464.87 614.20 1108.91 442.10 1319.88 466.71 1203.68 624.75 1101.36 667.78 1265.57 691.57
00007536 00000137 966.40 217.39 464.38 615.21 1107.97 442.45 1320.00 465.83 1203.62 624.05 1102.69 670.83 1265.94 693.42
00007537 00000138 965.28 214.83 464.60 617.55 1107.92 442.25 1319.91 466.01 1203.72 622.10 1101.93 670.85 1264.02 693.73
00007538 00000139 958.29 212.53 473.10 622.29 1108.91 445.07 1315.39 462.46 1206.93 618.36 1097.67 670.31 1266.13 686.56
00007539 00000140 957.95 212.56 471.66 621.73 1108.49 444.86 1314.83 461.98 1207.60 616.74 1097.94 669.79 1266.64 685.86
00007540 00000141 958.10 213.33 471.43 619.60 1108.68 445.14 1314.94 462.93 1207.02 617.41 1096.40 666.85 1267.55 683.63
00007541 00000142 958.44 214.00 470.86 619.97 1109.15 446.21 1314.76 463.54 1206.95 618.70 1097.04 669.03 1266.41 685.32
00007542 00000143 959.49 215.17 460.99 618.97 1110.69 447.54 1310.30 461.56 1210.09 621.16 1102.97 672.88 1265.58 686.17
00007543 00000144 957.54 213.45 469.55 620.75 1110.09 454.01 1312.75 469.61 1205.46 625.10 1095.49 669.69 1263.94 685.09
00007544 00000145 960.87 215.23 464.32 618.25 1111.44 462.49 1310.03 477.79 1201.69 629.79 1093.65 669.59 1260.41 684.77
00007545 00000146 959.29 220.74 455.18 618.57 1113.57 468.01 1301.34 487.65 1202.90 633.20 1097.80 674.12 1260.70 692.64
00007546 00000147 955.61 233.15 458.59 610.85 1107.34 473.13 1300.94 491.14 1197.29 638.59 1091.07 679.62 1260.57 697.04
00007547 00000148 950.94 233.94 463.32 617.29 1093.93 472.88 1295.83 491.62 1185.66 640.99 1079.56 684.12 1255.49 702.07
00007548 00000149 949.70 245.95 460.08 608.30 1085.60 475.32 1288.94 498.47 1174.13 645.19 1069.92 687.75 1244.03 709.45
00007549 00000150 943.77 252.11 461.41 604.41 1077.27 480.19 1280.72 504.16 1162.71 644.17 1061.15 689.57 1232.03 711.90
00007550 00000151 933.81 243.57 461.67 614.98 1066.46 486.07 1272.86 511.14 1151.90 651.47 1054.59 697.50 1219.38 720.35
00007551 DELETE   929.20 260.61 456.43 603.14 1053.14 490.51 1262.20 517.32 1135.84 662.50 1047.99 705.95 1210.98 730.32
00007552 00000153 923.52 257.98 455.11 609.72 1045.50 496.21 1250.13 527.92 1124.28 669.92 1038.59 708.82 1196.68 737.34
00007553 00000154 915.02 261.12 460.05 611.86 1037.16 500.02 1246.28 531.97 1117.45 677.49 1031.52 715.62 1190.45 744.55
00007554 00000155 914.42 261.57 457.85 611.69 1033.94 500.65 1244.20 532.78 1114.69 678.63 1029.16 715.43 1189.99 744.55
CROP_BBOX: 690 0 1884 1080
