Video ID: 	ZbBQNOpGwRA
H: 	1080
W: 	1920
FPS: 	23.976023976023978

FRAME INDEX X0 Y0 W H [Landmarks (5 Points)]

00004754 00000000 518.71 173.17 530.85 773.60 676.12 460.29 913.65 455.78 804.85 575.66 696.33 705.62 913.48 697.81
00004755 00000001 529.27 173.81 528.93 777.31 684.45 461.37 921.07 452.89 813.22 574.29 705.17 707.63 922.71 696.29
00004756 00000002 533.61 173.61 533.96 773.88 689.78 459.41 927.72 449.47 820.33 574.10 710.99 709.14 925.96 696.91
00004757 00000003 543.46 173.78 524.07 765.76 694.38 457.02 937.70 446.28 828.12 558.97 717.97 702.10 937.72 689.23
00004758 00000004 551.08 170.42 523.26 756.69 700.30 454.31 944.96 440.59 835.52 553.09 726.95 698.34 944.98 683.40
00004759 00000005 559.94 169.80 522.06 746.81 707.31 450.19 952.38 435.79 842.93 552.09 735.36 691.65 954.97 676.26
00004760 00000006 568.37 168.39 520.60 727.28 713.61 440.17 961.10 434.54 850.10 542.31 741.62 685.85 962.93 677.73
00004761 DELETE   580.13 158.59 519.63 737.42 723.52 435.02 962.24 428.45 847.06 540.78 750.53 674.86 965.47 666.09
00004762 00000008 589.81 146.32 514.83 744.07 735.27 433.91 970.15 425.59 858.87 540.32 759.90 671.23 972.76 660.65
00004763 00000009 596.94 150.51 515.38 742.92 745.89 428.66 981.11 420.24 871.58 538.37 769.47 665.99 982.11 655.01
00004764 00000010 601.77 146.43 517.48 745.73 751.39 427.61 989.27 416.26 881.07 538.22 775.49 667.86 991.20 654.44
00004765 00000011 605.05 148.13 516.98 746.27 756.46 427.53 992.84 415.75 885.68 535.70 782.78 668.79 993.22 655.38
00004766 00000012 604.56 141.60 523.04 763.91 758.26 426.80 994.76 414.08 888.64 533.18 783.87 670.87 998.05 656.57
00004767 00000013 602.45 142.73 526.44 771.09 758.76 427.59 993.97 413.37 890.58 533.09 784.09 672.10 999.79 656.23
00004768 00000014 602.10 146.71 525.60 773.92 758.65 427.90 989.81 413.41 890.00 531.05 782.77 670.33 999.39 654.03
00004769 00000015 602.80 149.49 525.06 770.30 758.86 428.61 988.26 413.72 889.11 532.81 781.54 668.77 997.60 652.24
00004770 00000016 600.28 146.48 526.39 775.82 756.63 429.53 986.22 413.74 887.04 532.38 778.91 670.90 996.92 653.61
00004771 00000017 596.48 148.33 527.02 775.13 751.58 428.49 982.45 412.73 883.08 533.26 774.53 669.54 995.38 651.89
00004772 00000018 593.89 151.00 527.70 771.04 746.86 428.19 979.26 412.82 877.21 533.06 769.62 668.16 993.34 650.65
00004773 00000019 591.32 152.28 527.20 770.74 742.36 426.01 974.06 412.10 870.69 530.44 763.79 664.31 989.48 647.93
00004774 00000020 587.37 148.48 527.56 770.66 733.89 424.48 966.69 410.60 861.54 528.22 758.89 663.68 983.40 647.57
00004775 00000021 579.54 150.12 530.53 771.94 726.03 421.83 960.93 410.91 854.01 527.59 752.14 664.93 976.07 651.50
00004776 00000022 572.55 152.37 527.60 767.00 717.93 420.66 956.32 411.74 847.33 526.49 744.17 665.85 970.67 654.41
00004777 00000023 560.16 158.78 529.15 737.06 711.72 431.26 953.50 417.55 850.74 524.96 742.30 668.82 968.12 653.44
00004778 00000024 550.31 153.97 524.03 738.33 704.24 433.20 943.35 417.66 844.59 525.94 736.83 669.05 960.22 652.02
00004779 00000025 543.44 144.62 528.08 752.00 697.14 428.13 936.16 407.56 838.03 526.94 731.17 675.26 950.08 654.84
00004780 00000026 537.20 146.18 524.88 753.24 689.50 431.07 928.68 409.68 829.12 528.95 723.67 677.02 941.71 655.42
00004781 00000027 533.38 141.89 521.32 754.27 681.98 434.03 918.56 411.72 816.31 530.52 719.02 679.23 929.33 656.56
00004782 00000028 524.92 140.82 524.88 765.29 672.97 434.17 911.22 410.70 807.92 532.37 712.74 683.69 924.20 659.77
00004783 00000029 518.11 141.74 529.19 765.98 665.77 433.85 902.72 408.46 800.54 531.45 704.38 681.76 920.70 656.06
00004784 00000030 508.69 145.01 526.04 752.43 656.33 437.54 896.70 411.86 796.68 532.13 692.61 679.21 920.19 653.04
00004785 00000031 504.47 150.72 527.86 743.36 652.58 441.05 893.62 410.88 794.63 535.16 686.61 675.50 921.22 645.52
00004786 00000032 500.48 151.05 528.59 744.90 649.07 441.56 889.85 411.84 792.16 537.23 681.80 673.96 919.87 644.54
00004787 00000033 496.12 145.13 532.99 763.35 646.25 436.20 885.47 407.08 788.84 529.24 680.58 676.23 915.25 647.59
00004788 00000034 493.28 145.76 532.68 760.79 642.81 430.51 883.46 402.84 785.93 526.03 677.29 674.57 910.64 647.33
00004789 00000035 484.19 154.08 539.01 723.77 635.35 434.07 884.31 404.15 788.05 518.74 678.23 665.02 915.62 635.58
00004790 00000036 479.29 142.04 538.74 719.41 634.96 436.43 875.93 402.58 786.21 503.01 686.09 656.10 910.36 623.12
00004791 00000037 477.46 137.20 535.42 696.59 632.12 432.20 872.30 396.62 781.48 492.28 682.19 647.41 900.02 616.82
00004792 00000038 476.19 131.41 540.20 702.33 631.73 433.50 869.05 391.39 783.74 488.69 691.75 650.78 903.48 614.95
00004793 00000039 475.24 128.96 549.54 723.43 635.05 432.97 869.70 387.87 788.89 488.07 697.71 656.01 910.94 613.76
00004794 00000040 476.21 124.24 556.79 732.92 636.27 434.57 873.32 384.38 792.22 480.54 702.45 656.44 920.28 610.56
00004795 00000041 481.86 123.92 553.54 728.04 640.03 432.13 880.02 383.76 798.78 478.78 706.53 655.50 926.51 611.39
00004796 00000042 488.63 113.85 546.88 734.98 647.66 429.47 884.22 381.69 800.36 484.52 706.53 655.97 927.49 613.38
00004797 00000043 494.87 118.83 544.16 726.13 651.26 429.66 888.29 381.44 803.74 486.19 713.21 656.82 932.49 614.16
00004798 00000044 503.07 119.64 543.55 716.79 656.94 434.95 892.14 381.86 807.94 480.58 723.12 657.22 935.64 611.12
00004799 00000045 509.20 122.90 539.96 719.77 665.36 436.03 895.21 383.81 813.44 476.75 732.52 659.92 935.93 615.51
00004800 00000046 515.88 126.76 539.16 714.40 670.27 436.50 899.05 383.42 816.99 478.86 738.78 661.40 940.42 616.98
00004801 00000047 527.28 128.89 537.11 706.19 677.00 437.48 907.21 384.07 822.20 483.23 743.47 657.06 949.32 612.18
00004802 00000048 534.39 124.84 541.68 711.69 683.16 435.68 918.25 383.37 829.19 488.11 751.26 659.57 959.56 615.39
00004803 00000049 540.28 124.16 553.86 733.62 693.07 437.99 931.37 386.71 841.64 488.73 760.76 666.01 974.34 619.13
00004804 00000050 546.41 126.42 548.03 737.30 701.91 436.38 937.06 385.96 853.03 489.29 771.34 668.47 980.97 622.38
00004805 00000051 553.73 124.41 545.53 730.56 705.53 435.31 944.68 386.74 860.49 489.53 772.38 663.46 989.80 618.75
00004806 00000052 560.14 124.48 548.26 724.09 710.92 432.40 955.34 384.98 869.66 489.00 778.95 661.71 1000.24 618.24
00004807 00000053 567.93 115.18 537.27 735.95 718.63 428.71 959.65 383.38 869.48 491.87 774.15 658.85 1001.49 618.78
00004808 00000054 570.26 117.33 537.33 734.59 724.67 426.97 961.79 382.47 875.60 488.50 783.20 659.86 1002.81 620.63
00004809 00000055 572.11 115.35 540.62 732.70 726.59 429.41 962.85 383.44 875.48 483.95 783.71 656.34 1002.76 615.59
00004810 00000056 574.50 111.82 537.48 729.25 725.58 429.68 964.50 381.23 874.69 483.07 781.46 651.79 1004.55 608.82
00004811 00000057 573.63 112.36 539.53 725.66 723.05 429.39 964.97 380.21 873.31 483.01 778.45 650.76 1005.64 606.99
00004812 00000058 571.36 108.53 541.35 732.41 721.37 427.27 963.37 378.78 872.79 479.52 777.45 652.95 1004.45 609.68
00004813 00000059 569.03 107.15 542.96 737.07 720.07 425.46 962.61 377.42 872.81 477.67 778.20 656.84 1003.71 614.08
00004814 00000060 564.15 107.59 544.20 745.82 719.05 424.47 958.60 378.23 872.98 477.65 777.63 658.84 1000.59 617.62
00004815 00000061 557.02 110.95 545.88 768.27 718.50 420.51 952.56 374.57 870.82 478.12 779.09 666.53 990.13 622.78
00004816 00000062 552.35 109.78 550.65 789.90 716.63 418.65 954.01 377.42 869.26 480.75 774.35 671.39 990.84 631.82
00004817 00000063 547.90 106.59 550.14 789.47 709.88 418.76 948.39 374.91 861.80 482.24 765.72 669.82 986.65 628.20
00004818 00000064 538.67 110.37 548.51 764.71 700.43 420.01 938.92 373.38 858.05 473.70 761.52 657.97 983.68 614.44
00004819 00000065 533.93 112.70 541.79 753.09 694.28 416.02 932.48 373.59 854.50 474.51 753.48 655.01 979.54 617.96
00004820 00000066 531.47 115.84 532.46 747.59 687.76 418.18 923.08 374.40 846.50 476.71 747.21 655.96 972.46 617.88
00004821 00000067 523.24 118.52 535.63 756.52 680.55 419.59 913.69 378.02 834.45 475.97 735.20 657.30 961.11 621.10
00004822 00000068 510.63 119.66 541.26 760.09 671.37 423.27 903.88 379.25 828.40 475.37 729.04 661.48 955.36 623.26
00004823 00000069 501.09 112.55 548.11 780.76 667.69 426.97 900.24 378.96 822.06 485.75 726.52 673.31 942.74 627.71
00004824 00000070 496.43 114.83 544.16 779.40 659.34 426.76 892.70 380.33 812.04 488.71 717.39 675.23 934.15 630.76
00004825 00000071 492.27 114.28 539.18 758.05 650.04 427.65 884.27 383.33 804.17 485.06 709.66 666.26 930.52 626.76
00004826 00000072 479.42 121.29 549.67 739.42 637.92 434.48 880.13 385.30 799.04 481.93 708.75 665.91 924.35 620.66
00004827 00000073 475.40 119.90 548.27 734.17 631.72 433.63 872.97 384.78 787.53 484.78 699.92 661.19 914.20 616.26
00004828 00000074 471.80 122.32 544.90 714.11 622.56 432.47 865.44 384.63 773.77 489.03 684.08 653.57 903.91 612.48
00004829 00000075 466.65 122.62 546.32 721.32 618.22 435.73 858.62 386.39 768.56 488.07 681.30 655.03 900.39 612.62
00004830 00000076 461.86 121.27 543.54 725.81 611.39 436.95 850.37 385.74 759.21 489.47 672.43 655.82 892.71 611.89
00004831 00000077 457.05 124.61 540.42 728.11 605.26 438.11 842.83 386.78 751.35 491.47 664.67 657.21 885.10 613.65
00004832 00000078 450.11 125.92 543.52 733.94 602.32 439.65 835.83 389.48 746.42 492.07 661.82 660.43 878.28 617.67
00004833 00000079 444.87 116.00 551.75 768.43 603.68 440.65 833.46 390.33 747.42 499.98 663.88 673.70 875.23 627.09
00004834 00000080 442.75 118.20 550.88 766.57 600.75 441.13 831.26 392.23 743.37 501.60 660.97 675.10 871.09 629.70
00004835 00000081 443.85 131.81 537.25 735.35 602.97 444.51 828.88 403.71 743.35 498.29 655.83 663.90 864.66 629.86
00004836 00000082 442.50 131.09 536.57 739.33 599.39 445.14 827.76 402.29 739.94 500.40 653.69 666.81 864.07 630.94
00004837 00000083 435.46 119.12 552.66 765.69 596.63 442.78 825.92 397.83 737.40 503.11 656.06 676.63 862.78 634.79
00004838 00000084 434.14 117.86 555.84 766.08 595.21 439.58 824.69 393.55 736.90 501.87 656.56 675.41 862.87 632.62
00004839 00000085 434.51 118.41 554.39 770.45 594.94 436.51 824.50 390.56 736.62 499.78 656.85 675.82 862.53 632.99
00004840 00000086 433.45 115.80 556.65 772.40 594.14 434.87 825.16 388.63 736.66 496.78 656.52 674.98 863.29 631.88
00004841 00000087 434.04 114.33 555.70 768.98 595.36 433.68 825.88 387.72 737.92 496.15 656.78 672.48 863.72 629.74
00004842 00000088 436.31 114.46 556.06 769.23 597.69 433.00 827.02 386.58 739.24 494.43 658.70 670.74 864.59 627.58
00004843 00000089 435.47 113.39 557.63 770.89 597.73 432.52 827.27 386.03 740.15 494.08 656.80 669.37 866.39 625.90
00004844 00000090 441.44 120.57 547.52 747.15 598.24 433.50 832.31 381.61 745.06 481.11 661.62 663.76 874.72 615.67
00004845 00000091 441.71 120.78 546.58 744.98 594.28 431.32 827.89 382.53 739.14 489.06 653.84 663.13 872.36 621.26
00004846 00000092 443.82 120.30 544.84 740.57 594.43 431.68 829.49 382.29 739.30 490.54 653.95 662.24 873.37 619.90
00004847 00000093 445.72 121.05 543.76 738.44 595.48 433.01 830.12 382.69 740.02 491.52 655.57 661.55 874.89 618.43
00004848 00000094 445.67 120.63 545.61 733.95 594.33 433.81 830.41 381.97 738.67 491.95 655.70 661.76 874.83 617.30
00004849 00000095 445.72 120.07 543.21 722.62 591.66 434.12 830.49 381.18 737.04 493.60 655.32 661.81 873.26 616.43
00004850 00000096 446.33 121.21 542.49 711.84 590.01 435.06 830.74 380.28 735.81 493.64 655.84 661.48 872.84 614.64
00004851 00000097 444.38 121.29 542.21 705.07 593.99 433.06 835.85 379.81 748.51 492.19 661.93 658.77 871.26 612.74
00004852 00000098 443.12 121.58 541.10 713.89 594.18 432.73 833.97 380.25 747.69 492.61 660.47 660.85 869.93 615.27
00004853 00000099 442.83 121.78 541.02 714.62 593.37 433.94 833.34 381.55 746.30 493.54 660.38 663.31 868.05 617.79
00004854 00000100 442.26 122.52 540.64 715.79 592.50 434.04 831.61 381.39 744.89 495.22 660.40 664.80 866.75 619.09
00004855 00000101 440.96 122.19 540.30 718.31 591.76 434.02 830.93 380.99 745.07 495.85 660.17 665.73 867.14 619.74
00004856 00000102 440.24 121.40 541.11 721.65 591.20 433.73 829.86 381.22 743.34 495.16 657.98 664.74 865.41 619.28
00004857 00000103 439.38 120.44 541.86 720.18 589.54 434.65 829.13 381.13 742.28 494.66 656.57 664.32 864.70 617.96
00004858 00000104 438.77 118.85 543.42 723.01 585.61 436.81 823.35 382.76 730.06 496.95 652.77 666.72 864.06 620.78
00004859 00000105 439.53 119.90 543.10 725.23 585.94 436.94 823.35 383.62 729.69 497.50 652.14 667.13 863.84 621.82
00004860 00000106 438.60 119.93 543.85 727.63 586.16 436.94 823.18 383.77 730.15 497.44 652.31 667.73 863.85 622.49
00004861 00000107 439.65 120.83 544.70 729.60 586.91 437.31 824.24 384.89 730.86 497.06 652.75 668.35 865.01 623.71
00004862 00000108 441.01 123.60 541.69 726.80 586.78 437.05 824.55 385.39 731.05 498.82 652.19 669.11 864.89 625.37
00004863 00000109 440.00 125.94 544.81 739.74 590.41 435.29 824.92 388.48 734.00 498.44 652.98 671.16 862.58 631.67
00004864 00000110 435.88 118.65 560.28 770.86 598.10 438.18 825.57 391.51 739.09 500.19 663.06 679.93 859.47 636.75
00004865 00000111 443.50 128.42 543.28 734.87 598.04 433.29 827.17 389.93 739.90 493.95 662.84 670.97 858.16 634.82
00004866 00000112 449.90 118.02 548.75 775.94 617.31 430.24 839.51 388.34 757.65 486.73 681.82 685.78 860.08 647.34
00004867 DELETE   455.05 119.62 540.46 764.31 632.13 419.11 852.27 382.51 779.52 462.03 697.19 670.55 879.20 636.52
00004868 DELETE   465.84 114.71 535.51 737.73 647.89 396.00 868.11 369.58 813.65 442.51 726.06 657.41 905.11 634.77
00004869 DELETE   486.98 100.19 531.20 726.52 680.92 379.17 894.39 359.08 838.88 431.02 745.97 626.03 920.88 606.43
00004870 00000116 497.16 92.97 527.68 701.16 686.27 378.22 904.94 353.47 853.76 424.37 749.87 604.27 942.69 581.75
00004871 00000117 499.68 86.75 531.39 709.19 690.20 369.85 917.66 350.95 862.68 423.06 745.01 596.22 956.21 578.17
00004872 00000118 502.74 83.07 531.60 713.53 693.32 366.83 923.83 349.10 865.90 426.75 744.93 596.09 959.94 579.27
00004873 00000119 507.25 84.69 529.34 713.93 694.26 366.75 925.14 347.94 865.88 429.99 743.31 596.56 962.24 578.96
00004874 00000120 506.80 84.92 528.38 719.01 694.73 368.48 926.51 352.17 867.74 433.01 742.26 601.70 961.12 586.16
00004875 00000121 510.40 85.79 524.10 728.93 699.61 366.30 928.35 351.82 873.05 433.19 747.40 607.40 961.41 593.50
00004876 00000122 515.79 89.66 521.73 740.72 710.82 357.25 935.76 350.19 882.93 427.14 746.35 605.51 958.65 595.65
00004877 00000123 515.69 89.71 528.98 755.45 716.10 359.01 942.23 354.93 893.25 422.32 752.61 608.50 970.23 601.00
00004878 00000124 519.20 82.56 525.03 729.48 719.53 356.30 945.75 352.76 896.85 413.54 768.65 603.66 969.89 596.40
00004879 00000125 518.03 80.94 526.55 723.84 715.33 356.34 938.71 347.77 895.93 405.93 775.91 598.36 975.17 589.41
00004880 00000126 512.59 78.01 529.22 720.96 711.77 354.49 934.62 344.44 892.19 402.40 772.73 592.30 972.53 581.88
00004881 00000127 511.13 78.74 527.10 715.27 709.38 358.03 936.44 346.11 889.11 410.37 765.25 591.88 971.51 580.11
00004882 00000128 512.01 81.98 525.22 721.61 708.41 360.45 937.32 349.93 887.33 419.06 759.29 597.51 970.02 586.92
00004883 00000129 511.95 86.66 524.73 724.24 706.43 364.08 934.45 354.19 883.58 424.53 757.78 604.92 964.90 594.87
00004884 00000130 511.62 88.35 524.45 720.26 703.70 369.18 936.92 354.95 884.86 431.18 756.42 603.75 974.87 589.70
00004885 00000131 510.45 92.46 525.17 719.15 703.36 376.28 935.91 360.92 884.32 435.26 755.87 604.52 976.43 589.25
00004886 00000132 510.51 95.49 522.86 707.56 708.99 376.20 935.32 368.87 886.11 437.45 760.68 607.29 963.84 599.46
00004887 00000133 511.63 95.50 524.49 729.36 717.87 369.89 941.20 373.76 895.20 431.91 756.75 610.03 961.14 610.08
00004888 00000134 513.10 94.85 522.24 727.31 725.73 367.63 947.82 377.83 905.88 431.71 764.02 606.46 966.39 611.52
00004889 00000135 522.43 95.94 517.91 715.36 731.42 376.31 952.24 379.55 910.61 434.35 780.22 608.04 975.90 608.73
00004890 00000136 527.90 96.30 518.68 704.89 739.12 376.43 960.83 377.96 920.30 440.29 788.41 606.02 983.82 605.65
00004891 00000137 526.54 95.31 516.94 708.76 740.80 368.38 965.60 379.60 920.67 438.20 779.94 599.50 984.88 604.59
00004892 00000138 522.23 96.60 513.87 722.66 732.30 364.56 955.99 381.93 907.96 439.88 764.07 604.81 968.80 615.66
00004893 00000139 516.87 95.54 520.41 729.86 725.07 371.81 950.25 381.49 901.18 442.46 763.00 613.06 964.78 619.07
00004894 00000140 514.02 97.86 517.09 718.15 722.92 365.36 944.64 379.64 893.63 441.69 752.62 603.79 954.44 612.29
00004895 00000141 513.49 97.66 517.70 718.61 722.97 365.35 944.62 379.72 893.95 441.70 752.60 603.74 954.49 612.34
00004896 00000142 508.99 97.82 523.73 711.91 715.10 379.16 944.23 380.18 893.19 447.21 758.69 611.04 964.87 609.54
00004897 00000143 513.96 98.68 521.54 726.77 719.39 383.27 949.99 384.86 899.34 455.48 759.48 618.75 970.71 617.64
00004898 00000144 519.21 98.90 518.12 726.86 723.00 387.18 957.55 388.28 902.99 467.72 759.75 625.12 972.88 623.38
00004899 00000145 519.07 99.52 518.90 726.72 723.31 387.37 957.36 388.28 902.86 467.96 759.91 625.17 972.51 623.34
00004900 00000146 511.57 106.95 522.33 741.17 720.65 395.64 950.12 399.56 897.74 476.55 754.86 637.49 963.25 637.40
00004901 00000147 509.87 121.65 528.13 740.27 721.70 398.29 948.17 408.18 898.33 476.58 756.38 646.46 963.19 652.61
00004902 00000148 509.55 130.10 525.49 734.29 724.38 409.35 949.52 417.68 900.47 486.95 762.84 655.39 963.65 660.26
00004903 00000149 509.44 129.37 525.81 735.07 724.60 409.23 949.61 417.73 900.65 486.92 763.03 655.37 963.63 660.36
00004904 DELETE   507.01 147.30 527.21 726.20 717.55 426.37 948.08 426.40 897.87 510.50 761.36 674.50 967.26 672.15
00004905 00000151 504.31 152.99 518.76 725.47 710.52 437.65 938.74 434.61 884.18 522.26 754.90 683.76 953.42 678.70
00004906 00000152 498.52 163.64 518.70 726.80 704.60 444.76 933.04 445.95 875.70 529.99 745.68 690.29 944.78 688.41
00004907 00000153 494.12 162.61 526.29 724.11 705.13 438.44 934.90 439.10 878.97 529.39 746.48 691.46 942.04 691.43
00004908 DELETE   490.60 167.28 524.25 729.03 698.49 447.27 931.61 445.14 872.99 544.86 739.36 703.65 940.87 701.25
00004909 DELETE   488.48 166.57 524.86 734.36 694.69 448.21 927.40 445.85 868.86 545.14 736.47 706.23 938.23 703.27
00004910 00000156 483.92 168.29 527.37 737.90 692.11 449.15 923.76 449.39 865.07 546.33 731.86 705.93 934.71 705.01
00004911 00000157 483.76 167.96 527.87 738.67 692.13 449.10 923.71 449.36 864.99 546.30 731.76 705.93 934.67 705.01
00004912 00000158 472.70 169.87 527.58 738.88 680.59 451.62 914.10 456.02 855.01 551.26 714.99 707.30 922.29 709.53
00004913 00000159 470.82 172.05 527.34 741.74 678.61 452.60 912.23 459.07 853.64 550.75 711.14 708.32 920.32 712.30
00004914 DELETE   471.51 171.59 526.39 743.41 679.83 451.66 912.38 458.24 854.50 551.79 711.88 708.91 920.32 713.10
00004915 00000161 471.24 171.67 526.55 743.71 679.80 451.92 912.13 457.90 854.72 551.64 712.59 709.09 920.93 712.71
00004916 00000162 474.21 171.44 521.21 751.70 679.29 454.32 911.23 457.67 851.35 550.31 716.28 715.13 912.97 714.74
00004917 DELETE   471.86 169.82 521.16 764.71 677.57 454.01 908.67 456.74 849.63 547.54 711.89 716.08 910.25 715.06
00004918 00000164 472.47 169.71 519.33 761.93 676.29 452.90 908.29 457.33 848.18 549.05 710.32 715.15 909.31 715.40
00004919 DELETE   472.48 170.22 519.30 760.90 676.32 452.89 908.23 457.48 848.26 549.18 710.20 715.08 909.10 715.48
00004920 00000166 472.90 168.92 519.48 733.53 675.02 447.18 910.21 453.20 847.03 555.07 704.79 705.21 914.66 708.65
00004921 00000167 473.07 167.88 523.78 742.82 675.54 446.39 911.68 452.73 849.38 551.89 704.10 702.41 919.98 706.20
00004922 00000168 471.83 168.11 524.40 742.93 675.76 447.56 909.09 451.36 848.83 549.75 709.55 703.03 921.30 704.51
00004923 00000169 472.10 167.20 524.08 745.44 675.77 447.72 909.31 451.69 848.86 549.60 709.63 703.08 921.86 704.64
00004924 00000170 468.13 168.17 521.80 741.86 671.90 447.98 905.54 452.60 843.43 551.79 703.93 698.76 916.53 700.26
CROP_BBOX: 87 0 1410 1080
