Video ID: 	TkAV7qPibwI
H: 	1080
W: 	1920
FPS: 	25.0

FRAME INDEX X0 Y0 W H [Landmarks (5 Points)]

00054094 00000000 283.03 171.72 553.80 766.52 363.44 454.18 602.20 440.33 443.10 621.18 417.19 760.94 598.51 750.75
00054095 00000001 283.29 178.49 540.97 768.09 343.66 464.69 580.67 442.84 415.51 618.99 399.47 765.26 583.52 747.26
00054096 00000002 270.50 178.94 545.78 765.28 334.37 468.47 572.42 443.16 409.08 618.66 392.32 769.00 575.43 748.76
00054097 00000003 270.70 174.41 545.62 767.39 335.10 468.12 571.24 440.33 408.92 616.10 394.10 769.20 576.35 746.91
00054098 00000004 272.46 179.72 543.30 757.58 339.04 465.25 579.96 439.54 419.56 616.15 398.34 766.36 583.53 745.52
00054099 00000005 267.62 158.35 560.30 771.46 346.18 457.48 595.10 432.26 432.55 613.28 407.80 765.38 591.12 745.65
00054100 00000006 269.57 147.80 565.51 793.67 346.29 449.62 596.30 427.76 434.90 612.76 406.51 762.54 591.10 744.76
00054101 00000007 276.00 154.00 558.38 782.91 356.21 449.76 604.12 427.68 449.22 611.84 419.12 759.52 598.81 741.55
00054102 00000008 271.90 133.18 574.00 807.53 374.29 454.71 630.76 421.34 487.86 607.29 440.11 761.99 624.23 735.14
00054103 DELETE   277.73 116.88 578.55 829.29 408.68 455.59 660.52 411.60 541.41 593.02 484.30 756.90 674.82 721.09
00054104 DELETE   287.97 99.38 586.39 848.57 434.55 452.52 697.67 404.29 590.80 588.67 519.38 755.49 720.42 715.72
00054105 DELETE   318.50 137.57 568.91 802.06 464.70 450.67 716.25 399.46 622.90 584.91 560.99 749.69 754.06 708.04
00054106 00000012 326.89 152.39 578.80 783.64 475.14 455.22 734.81 393.42 645.34 577.20 583.15 752.73 779.44 700.14
00054107 00000013 329.52 151.06 577.85 781.91 476.65 456.79 738.15 393.34 649.84 578.20 584.10 748.83 785.84 694.32
00054108 00000014 325.14 158.79 575.31 775.91 470.80 459.60 727.58 395.23 638.51 585.30 576.84 751.94 775.81 696.59
00054109 00000015 311.99 150.67 576.75 791.29 460.28 460.88 719.28 399.84 629.52 589.32 563.45 753.30 764.01 701.07
00054110 00000016 295.97 144.01 587.13 806.69 443.95 462.70 701.86 403.94 605.53 595.47 546.35 756.65 748.07 706.16
00054111 00000017 283.27 138.29 589.59 814.12 433.93 465.98 693.42 408.24 595.86 600.72 533.05 757.10 737.77 707.47
00054112 00000018 276.76 131.82 594.31 821.81 425.02 465.73 687.49 408.42 588.40 608.40 527.70 761.32 731.66 712.41
00054113 00000019 268.13 140.95 599.87 809.89 418.00 469.92 684.81 409.61 585.94 611.27 525.01 764.61 731.22 713.51
00054114 00000020 264.62 144.40 601.29 806.06 416.26 470.14 686.32 411.46 587.16 613.61 524.07 765.92 730.40 715.98
00054115 00000021 261.96 156.58 598.20 795.15 411.70 472.96 680.86 410.43 583.75 612.58 523.12 769.75 728.32 716.82
00054116 00000022 262.99 154.32 597.99 798.63 410.07 477.39 676.18 413.58 578.46 612.38 520.56 770.64 724.12 716.91
00054117 00000023 249.18 149.94 606.00 803.99 409.78 476.45 674.74 410.60 581.92 612.86 519.72 772.82 721.14 716.71
00054118 00000024 233.41 135.22 620.19 824.69 402.69 478.56 667.35 409.52 575.52 612.10 512.95 774.95 715.11 716.02
00054119 00000025 242.90 144.87 611.17 809.84 396.10 482.31 662.90 414.39 570.14 610.91 507.81 770.86 717.01 713.20
00054120 00000026 242.37 139.43 611.89 814.62 396.81 482.95 663.50 412.79 571.64 609.63 507.68 771.43 719.24 711.87
00054121 00000027 242.53 149.97 614.86 802.32 397.91 481.38 664.57 411.27 572.90 610.84 510.09 769.93 719.90 710.17
00054122 00000028 243.42 154.79 613.04 795.17 395.85 480.97 662.92 411.27 569.10 611.76 507.48 769.03 717.22 709.48
00054123 00000029 241.56 153.67 613.95 798.48 392.69 481.63 660.81 411.88 566.20 610.60 505.26 770.64 716.06 711.19
00054124 00000030 240.29 148.29 614.02 806.19 392.98 480.85 660.59 413.85 565.85 610.12 503.56 769.01 714.75 711.68
00054125 00000031 239.73 148.64 615.47 808.00 392.80 477.51 662.20 412.05 566.52 609.86 503.54 769.08 714.22 713.10
00054126 00000032 245.89 139.57 608.86 813.48 400.05 471.34 667.86 410.05 566.86 608.49 506.43 770.71 712.47 718.81
00054127 00000033 261.15 146.87 592.17 797.54 410.05 473.44 669.84 415.87 570.90 607.84 509.26 761.89 712.89 712.88
00054128 00000034 262.28 137.32 597.23 803.37 410.11 471.03 672.61 410.43 572.96 606.44 514.06 761.16 716.35 709.72
00054129 00000035 265.20 142.67 597.02 799.28 413.69 470.31 672.89 411.80 574.44 603.02 515.11 757.95 717.50 708.00
00054130 00000036 261.29 143.48 597.82 802.98 414.61 464.78 669.93 407.65 576.25 602.10 519.61 759.01 715.24 710.15
00054131 00000037 260.97 146.21 597.14 805.26 408.91 465.52 664.49 407.55 568.76 602.27 517.20 763.35 711.48 714.05
00054132 00000038 258.75 142.77 594.87 808.10 408.85 469.77 662.25 411.29 567.61 603.73 512.90 764.57 708.06 714.95
00054133 00000039 247.97 141.57 609.33 811.51 395.50 475.05 661.44 410.02 561.29 603.51 501.08 764.12 711.38 708.73
00054134 00000040 241.88 146.62 610.73 793.48 387.58 475.06 656.51 412.63 553.54 605.94 490.39 760.90 702.86 707.69
00054135 00000041 240.25 138.29 611.92 802.14 384.40 473.88 655.01 409.56 550.58 604.02 490.35 761.93 702.85 707.15
00054136 00000042 239.27 141.91 612.10 801.12 384.24 471.81 652.03 409.37 547.62 605.58 489.88 761.46 699.02 708.21
00054137 00000043 238.12 141.63 614.53 811.08 382.48 473.33 650.87 411.65 546.94 609.55 492.62 767.94 697.47 715.27
00054138 00000044 243.08 142.14 606.47 809.65 382.46 472.33 648.84 411.97 543.77 612.32 490.92 766.98 696.05 715.56
00054139 00000045 241.46 141.89 608.25 805.70 381.29 472.96 647.72 411.35 541.42 610.69 489.75 765.63 694.31 713.27
00054140 00000046 244.29 148.14 606.40 795.99 383.32 469.86 652.49 409.68 544.18 608.00 488.96 761.53 698.37 710.30
00054141 00000047 246.35 139.85 605.73 801.16 389.55 472.41 658.21 412.17 551.56 604.28 490.84 758.77 702.70 707.70
00054142 00000048 260.44 145.29 592.19 795.04 412.34 462.79 667.62 410.68 567.04 602.09 506.41 752.25 706.19 707.99
00054143 00000049 268.24 148.13 595.00 788.17 416.73 463.51 679.51 406.95 578.40 603.93 518.51 753.05 719.32 704.67
00054144 00000050 270.86 142.10 593.57 792.49 420.42 463.56 682.79 404.20 583.84 602.05 523.06 749.72 728.51 698.35
00054145 00000051 268.79 143.33 592.22 787.74 419.90 462.94 682.74 403.34 584.60 602.46 521.82 747.88 728.26 696.27
00054146 00000052 262.01 133.82 601.55 802.35 414.83 462.90 677.80 400.34 578.90 598.09 521.30 751.86 724.16 697.73
00054147 00000053 259.99 135.75 604.14 803.98 411.26 465.37 672.98 401.68 573.77 595.44 519.54 755.82 719.83 701.40
00054148 00000054 261.63 141.01 599.84 800.20 410.86 464.84 671.79 402.15 573.40 598.17 517.98 757.81 718.62 704.39
00054149 00000055 262.47 137.21 599.76 804.40 411.68 466.79 672.86 403.04 574.76 598.75 518.92 758.98 719.66 704.64
00054150 00000056 257.86 138.71 604.87 802.42 410.23 465.89 674.61 402.63 576.39 600.58 518.77 759.31 720.63 705.44
00054151 00000057 258.31 134.55 604.11 807.65 410.76 466.20 674.53 402.97 576.21 600.08 518.86 759.63 721.07 705.62
00054152 00000058 257.51 135.80 603.38 807.95 410.38 466.47 674.39 403.84 576.12 602.12 517.73 760.85 720.54 707.56
00054153 00000059 258.27 132.39 604.79 815.53 410.49 464.80 674.03 403.39 575.31 602.48 518.44 761.78 719.55 709.46
00054154 00000060 259.58 139.87 600.71 808.29 408.95 465.99 673.30 404.73 574.04 604.60 519.36 763.29 720.67 711.37
00054155 00000061 259.83 140.27 601.13 807.69 409.00 465.36 672.65 403.66 573.52 603.30 519.83 762.30 720.75 709.95
00054156 00000062 260.24 137.99 600.72 810.00 411.03 465.32 673.01 401.88 576.38 601.65 521.53 762.04 722.24 707.94
00054157 00000063 258.09 144.95 605.95 800.95 410.08 464.36 672.53 401.39 575.47 599.37 520.95 759.80 721.68 706.08
00054158 00000064 258.14 142.15 604.54 801.39 409.63 463.88 668.91 399.50 574.84 595.55 523.11 758.91 720.93 703.78
00054159 00000065 265.39 140.48 596.12 801.45 418.65 464.69 672.49 403.94 578.87 592.73 522.25 753.18 718.99 700.85
00054160 00000066 262.31 138.80 597.56 802.47 417.80 460.28 672.19 399.88 579.14 589.45 520.75 752.13 718.25 700.01
00054161 00000067 257.62 134.54 602.37 808.78 411.54 460.01 665.05 394.95 573.56 588.96 521.53 756.09 715.78 700.24
00054162 00000068 257.43 135.37 603.37 809.07 409.03 460.74 662.00 393.27 567.51 587.09 517.87 756.58 713.66 698.53
00054163 00000069 255.85 132.02 603.94 811.28 408.45 459.80 661.76 393.93 566.58 587.03 517.40 756.30 711.97 699.80
00054164 00000070 255.41 131.75 605.55 810.65 406.63 459.80 661.32 395.22 563.03 587.71 513.32 755.14 710.49 699.93
00054165 00000071 255.69 128.98 603.44 819.64 408.18 453.14 669.57 389.60 571.73 584.70 512.79 753.78 715.99 699.88
00054166 00000072 256.81 128.92 600.87 817.23 408.13 453.86 668.39 391.19 569.21 585.19 510.63 751.84 713.70 698.68
00054167 00000073 257.57 134.05 601.33 811.58 405.95 452.49 668.05 391.37 565.85 585.40 506.10 748.35 712.68 696.67
00054168 00000074 257.83 133.61 603.03 812.61 403.94 451.06 666.81 391.24 561.63 585.34 502.10 747.67 710.51 696.99
00054169 00000075 257.98 139.26 601.84 790.63 399.84 456.74 662.79 397.33 552.60 591.71 494.51 744.05 705.13 692.77
00054170 00000076 257.90 141.68 603.53 785.25 399.68 455.96 661.95 397.07 551.04 592.32 495.13 743.27 703.98 692.33
00054171 00000077 257.48 139.48 605.83 787.16 399.63 456.63 662.37 397.12 551.21 592.45 495.14 742.06 706.61 690.56
00054172 00000078 256.73 137.14 607.27 788.26 400.57 456.42 664.16 397.23 553.35 591.54 495.39 740.65 709.40 689.28
00054173 00000079 254.85 128.87 610.11 814.68 405.10 455.04 672.60 394.46 567.71 585.70 500.00 744.63 719.82 692.91
00054174 00000080 266.68 134.89 596.60 801.84 412.35 455.78 675.15 397.92 568.26 588.75 504.46 743.30 716.43 692.93
00054175 00000081 268.35 133.51 596.76 793.57 416.41 452.19 682.25 395.32 575.83 586.37 509.74 738.04 722.66 688.16
00054176 00000082 273.16 137.38 592.18 791.37 424.50 443.79 689.05 386.95 591.19 576.56 516.59 730.59 733.86 682.05
00054177 00000083 275.74 128.68 592.75 785.13 421.83 442.13 683.40 380.82 579.00 572.61 517.66 727.42 730.54 672.56
00054178 00000084 271.75 121.79 596.02 793.98 423.72 435.53 693.51 375.59 594.40 566.84 522.15 724.32 739.64 673.91
00054179 00000085 271.12 117.47 601.25 799.84 424.99 435.60 695.99 376.17 596.58 570.36 522.28 724.66 742.79 674.49
00054180 00000086 271.44 116.48 600.19 807.86 426.95 437.09 696.31 377.51 600.35 573.62 522.28 727.42 744.29 677.10
00054181 00000087 278.36 130.63 591.62 792.86 430.36 440.51 698.71 380.51 602.33 577.31 523.62 727.05 747.01 676.36
00054182 00000088 283.64 141.23 589.20 783.40 431.59 441.78 700.31 382.01 601.66 578.59 526.18 728.39 748.31 678.04
00054183 00000089 285.60 137.99 586.43 784.10 434.66 441.47 699.82 382.96 602.76 577.04 528.01 726.76 744.76 677.73
00054184 00000090 285.66 135.05 586.33 781.75 435.69 441.30 701.72 382.37 604.15 577.02 528.48 722.93 747.33 673.54
00054185 00000091 284.68 136.07 587.64 781.22 434.20 441.04 699.32 380.67 603.50 575.80 530.80 724.94 747.09 674.27
00054186 00000092 282.88 127.02 589.60 796.31 433.33 438.62 697.63 377.59 602.44 574.95 531.65 727.86 746.03 676.73
00054187 00000093 279.86 110.34 595.55 817.97 433.62 435.67 695.83 374.62 602.27 570.11 533.51 730.82 744.90 679.83
00054188 00000094 281.41 115.52 591.01 805.12 434.78 439.69 690.26 378.23 590.68 569.52 528.98 724.59 739.41 669.60
00054189 00000095 279.92 121.54 590.62 796.58 434.07 438.69 690.64 378.38 591.89 569.25 527.65 722.56 738.69 668.30
00054190 00000096 274.76 116.31 600.70 807.05 430.06 435.88 699.50 376.73 602.60 572.55 525.40 725.59 747.41 675.70
00054191 00000097 272.68 116.57 596.96 810.05 428.56 439.85 697.81 382.14 600.98 576.06 521.80 728.29 743.68 679.32
00054192 00000098 273.69 130.95 594.53 801.61 419.91 447.40 688.06 389.12 582.13 589.24 515.48 733.64 734.84 682.04
00054193 00000099 264.41 143.50 607.14 797.46 412.60 458.87 684.93 399.84 575.24 599.32 509.06 746.06 729.40 694.38
00054194 00000100 258.47 141.19 610.06 802.16 405.47 464.60 679.93 408.94 570.97 613.56 504.84 755.33 722.27 707.66
00054195 00000101 259.27 139.72 606.22 803.00 402.92 467.62 675.97 414.59 563.95 613.72 498.96 759.45 711.39 714.83
00054196 00000102 266.00 145.13 601.72 795.31 404.18 467.09 674.22 413.63 558.49 610.80 497.58 753.98 709.93 708.32
00054197 00000103 265.58 129.01 605.66 808.31 405.77 461.05 676.32 405.42 558.68 601.34 496.54 747.46 712.16 699.41
00054198 00000104 265.20 123.66 606.83 817.78 410.34 448.66 680.82 393.53 569.13 589.71 502.58 746.31 715.71 699.63
00054199 00000105 265.18 122.89 608.50 824.11 411.44 451.82 683.86 395.43 574.20 592.98 504.34 749.49 723.80 701.55
00054200 00000106 261.91 117.94 611.35 828.76 412.53 456.15 687.49 397.96 580.64 598.41 505.76 752.35 730.30 702.65
00054201 00000107 267.76 137.48 603.07 800.25 410.21 463.78 684.34 406.44 574.01 608.62 509.47 755.75 726.11 706.85
00054202 00000108 265.99 135.28 603.04 814.39 413.18 466.02 685.91 410.93 579.31 613.16 515.54 762.67 725.03 716.13
00054203 00000109 268.18 143.47 600.38 812.03 414.47 469.06 686.40 415.90 579.97 615.89 518.09 766.44 725.76 721.73
00054204 00000110 268.61 136.69 599.50 814.27 416.04 468.79 686.11 415.07 581.23 614.61 519.09 765.57 724.15 720.39
00054205 00000111 275.66 136.51 595.88 807.64 417.94 467.01 691.01 409.33 582.03 609.65 517.63 759.60 729.89 710.35
00054206 00000112 276.96 125.04 595.67 815.48 420.96 459.64 690.58 402.82 581.85 600.71 516.16 749.43 731.04 700.23
00054207 00000113 281.22 129.29 591.81 804.90 422.10 456.22 690.06 401.13 579.96 598.45 515.92 743.60 729.59 695.61
00054208 00000114 283.10 122.82 588.82 810.72 423.72 458.26 689.21 401.74 580.31 600.29 517.67 745.09 729.69 695.78
00054209 00000115 279.94 119.54 595.38 822.63 421.80 460.28 688.47 403.45 579.40 602.77 517.59 750.97 729.23 701.83
00054210 00000116 278.94 126.03 592.83 816.90 422.00 462.84 688.76 407.30 581.99 608.49 521.70 755.69 728.25 708.03
00054211 00000117 279.35 122.22 592.85 820.55 424.33 465.13 690.75 409.46 584.39 611.55 523.60 756.70 728.73 708.79
00054212 00000118 281.03 131.50 593.87 808.91 424.46 464.93 693.50 409.15 585.04 611.77 522.64 755.33 732.20 707.14
00054213 00000119 281.74 133.27 593.93 801.72 428.29 465.88 694.46 408.80 589.72 610.58 526.23 751.02 737.27 701.24
00054214 00000120 287.82 134.78 588.96 798.44 431.34 464.07 695.73 406.64 591.68 605.84 527.81 746.89 741.19 697.02
00054215 00000121 299.95 132.49 582.64 804.81 440.32 468.91 696.74 409.90 595.02 601.27 532.61 746.74 744.14 695.92
00054216 00000122 298.66 123.40 580.10 809.61 443.27 476.29 699.98 414.34 601.41 600.48 536.49 749.07 745.28 695.81
00054217 00000123 300.19 132.25 583.93 805.66 443.66 473.87 705.73 413.98 604.62 606.22 538.28 752.66 750.25 701.29
00054218 00000124 296.87 132.72 588.55 809.21 443.17 472.23 706.42 413.37 603.98 608.37 538.41 754.17 749.39 703.82
00054219 00000125 296.34 133.74 589.98 810.29 442.86 469.99 707.98 414.33 603.74 609.31 536.29 754.62 748.03 707.02
00054220 00000126 293.50 127.53 589.24 812.91 440.57 470.19 703.38 411.68 601.16 607.43 534.59 751.77 747.47 701.55
00054221 00000127 292.36 124.36 589.98 812.08 440.05 466.65 701.06 409.63 598.21 602.17 532.59 747.23 743.65 698.11
00054222 00000128 293.74 123.21 586.86 814.69 437.35 461.90 697.57 405.43 593.21 597.02 530.27 746.74 738.68 698.08
00054223 00000129 287.13 121.39 587.29 820.04 430.41 460.77 690.85 406.75 584.17 600.46 522.22 748.40 729.73 702.03
00054224 00000130 273.56 126.49 596.55 826.14 420.53 461.44 687.10 411.63 578.58 608.27 520.18 761.64 718.19 719.78
00054225 00000131 255.05 158.58 606.04 804.53 414.29 479.19 686.45 423.49 584.92 625.15 515.92 784.36 718.87 736.67
00054226 00000132 253.82 160.60 603.10 804.51 413.37 505.63 679.12 445.86 578.77 646.68 513.54 800.26 712.09 749.93
00054227 00000133 257.37 171.25 603.16 798.80 409.98 522.76 678.09 458.46 572.94 666.94 516.26 813.58 717.43 760.12
00054228 00000134 258.73 170.71 598.76 797.65 411.57 522.63 679.71 458.76 576.41 665.12 518.13 814.49 716.10 761.37
00054229 00000135 262.37 171.46 594.68 798.38 417.29 508.49 683.81 450.43 581.05 656.13 517.90 802.82 717.05 754.43
00054230 00000136 262.67 171.58 598.43 789.08 422.69 495.92 690.93 442.96 589.16 643.26 520.79 792.53 716.87 747.43
00054231 00000137 258.44 160.96 600.37 798.50 418.14 485.01 688.48 431.58 586.82 628.19 515.04 783.07 719.26 736.97
00054232 00000138 257.46 141.67 608.01 815.05 414.13 478.10 688.83 421.95 584.47 622.72 514.47 778.80 721.74 730.42
00054233 00000139 260.62 137.31 608.25 827.27 412.08 484.22 682.92 432.94 574.50 627.26 509.67 779.38 718.76 736.40
00054234 00000140 266.54 155.30 594.44 810.48 422.45 491.63 689.61 433.33 588.08 635.56 520.13 789.36 724.19 739.70
00054235 00000141 270.88 161.24 597.73 805.49 429.11 499.41 696.82 443.77 593.99 649.72 525.54 794.73 728.62 747.90
00054236 00000142 279.09 161.51 601.28 814.84 426.93 505.98 701.17 451.51 592.25 663.67 523.00 793.92 737.78 747.82
00054237 00000143 279.38 147.54 602.89 826.85 430.31 505.39 700.98 449.44 595.20 653.92 524.17 789.65 740.96 742.42
00054238 00000144 281.81 146.23 601.14 815.85 430.05 501.47 697.61 444.67 593.29 646.34 524.38 780.98 740.81 732.90
00054239 00000145 276.28 138.20 604.67 820.17 428.72 496.09 696.55 437.90 593.68 638.82 524.64 777.11 739.41 727.69
00054240 00000146 275.27 139.64 603.66 818.63 426.37 495.36 694.86 437.05 592.08 638.58 524.70 777.48 738.58 727.92
00054241 00000147 281.72 141.54 598.39 820.81 429.88 504.28 694.41 446.95 590.70 643.25 522.49 779.51 737.36 731.00
00054242 00000148 285.33 147.62 591.81 820.34 432.08 509.52 693.86 452.72 591.04 644.72 524.34 786.46 734.96 738.39
00054243 00000149 275.12 163.23 584.64 812.46 428.24 502.22 690.44 447.35 589.41 642.17 524.05 798.12 722.18 752.11
00054244 00000150 259.62 160.65 600.99 812.43 415.80 496.29 680.56 443.99 576.37 634.64 512.17 797.46 707.72 753.01
00054245 00000151 247.33 147.89 614.04 810.95 395.36 476.70 669.79 423.24 555.51 623.97 493.50 781.75 695.75 736.49
00054246 00000152 255.64 143.69 603.70 796.68 392.25 459.62 665.18 412.77 539.59 612.38 483.08 756.50 688.36 716.81
00054247 00000153 262.51 132.90 607.95 799.52 400.30 451.08 668.98 404.14 542.87 592.59 486.43 742.18 694.36 701.60
00054248 00000154 285.46 131.28 594.45 794.96 419.67 438.57 688.36 388.48 569.81 582.45 509.33 735.64 720.12 691.60
00054249 00000155 301.67 132.53 594.11 790.58 439.62 441.09 706.51 388.35 591.30 573.99 528.75 728.96 746.48 682.23
00054250 00000156 307.07 129.16 590.79 795.59 448.81 441.74 714.88 391.25 601.78 579.45 535.71 731.16 750.55 686.75
00054251 00000157 306.45 140.29 588.47 800.08 439.55 448.63 706.84 402.65 589.60 595.29 528.02 741.67 742.39 702.12
00054252 00000158 287.12 136.52 593.95 809.06 423.68 468.71 695.59 421.37 578.49 618.90 512.47 759.42 727.77 719.34
00054253 00000159 272.32 140.40 596.77 809.80 414.04 482.44 686.69 434.93 572.92 634.75 502.20 770.79 718.46 730.56
00054254 00000160 269.51 143.92 600.99 807.18 412.65 483.15 688.04 434.07 574.34 633.03 503.05 770.02 721.88 728.75
00054255 00000161 272.51 138.28 599.81 806.83 416.93 474.16 692.26 423.75 580.69 624.69 510.11 764.44 726.95 721.62
00054256 00000162 281.15 133.30 596.18 809.19 423.56 466.65 696.77 415.78 584.41 613.68 517.59 758.37 729.55 714.90
00054257 00000163 287.01 131.74 593.54 808.07 427.03 463.99 697.61 414.63 584.87 611.42 520.70 754.82 732.15 712.50
00054258 00000164 291.44 119.84 594.08 821.45 431.57 462.78 699.25 412.90 586.50 609.85 524.11 753.63 735.47 710.85
00054259 00000165 297.49 123.45 590.85 816.24 435.32 462.04 706.81 413.81 593.92 611.76 530.47 755.00 742.30 713.64
00054260 00000166 304.17 125.79 592.82 816.74 442.57 457.93 717.19 412.53 602.71 609.97 534.54 754.62 748.34 715.71
00054261 00000167 312.24 128.21 589.33 813.65 451.54 460.80 724.23 411.85 613.36 610.38 543.14 754.65 758.92 712.87
00054262 00000168 312.76 133.59 590.20 807.49 456.23 465.94 726.88 413.79 620.11 610.71 550.52 758.10 762.58 713.71
00054263 00000169 314.24 130.85 589.19 813.33 456.66 462.26 728.57 413.61 620.13 609.44 548.74 756.11 761.36 714.73
00054264 00000170 308.82 116.60 593.35 825.30 453.50 453.31 724.81 409.39 612.42 602.05 542.96 752.30 752.21 714.85
