Video ID: 	hot5ixctq70
H: 	1080
W: 	1920
FPS: 	25.0

FRAME INDEX X0 Y0 W H [Landmarks (5 Points)]

00005267 00000000 817.01 261.93 395.00 541.07 926.47 472.68 1093.27 461.53 1020.92 573.63 962.02 664.14 1098.23 654.70
00005268 00000001 810.32 258.93 396.64 546.98 916.37 463.89 1082.86 451.53 1008.63 565.83 953.79 660.19 1092.59 648.73
00005269 DELETE   803.56 244.55 395.21 545.18 900.05 456.86 1068.43 443.68 990.92 553.77 936.47 651.08 1075.04 639.07
00005270 00000003 804.16 231.75 385.86 543.51 891.43 442.65 1059.35 433.56 972.90 536.58 921.20 635.75 1058.11 627.75
00005271 00000004 805.75 227.07 382.05 538.80 886.47 433.07 1053.15 425.61 963.40 528.70 915.80 627.83 1046.39 621.81
00005272 00000005 803.62 218.22 384.62 541.18 882.77 424.80 1049.48 418.70 956.49 522.08 913.24 620.35 1040.15 615.52
00005273 00000006 804.70 214.24 384.80 545.21 878.74 424.05 1046.86 417.30 948.42 522.75 906.79 618.03 1040.24 612.75
00005274 00000007 804.25 218.60 383.15 538.32 874.86 425.98 1042.40 423.49 939.67 524.09 896.95 613.85 1035.90 612.34
00005275 00000008 804.42 224.32 383.24 535.24 872.93 428.86 1040.26 427.83 934.45 525.73 892.14 615.77 1032.13 615.46
00005276 00000009 806.48 230.28 379.54 536.68 871.49 430.60 1037.56 429.39 927.69 523.45 887.62 616.64 1030.09 616.37
00005277 00000010 804.49 232.85 380.56 536.00 866.40 431.21 1033.41 428.86 919.79 521.73 882.48 615.10 1028.96 613.60
00005278 00000011 805.49 227.81 379.45 538.81 866.24 428.05 1031.53 428.25 915.63 519.48 879.93 609.31 1026.17 609.85
00005279 00000012 805.12 226.70 376.94 533.12 864.81 424.71 1028.14 428.85 909.60 517.27 874.49 605.13 1016.17 609.33
00005280 00000013 805.48 227.92 372.47 524.46 862.46 422.80 1023.38 430.74 905.25 518.89 870.29 604.57 1005.72 612.58
00005281 00000014 803.07 231.49 369.53 522.09 857.81 422.22 1016.37 433.41 897.51 519.68 862.98 604.72 996.54 614.86
00005282 00000015 796.78 238.36 374.64 520.75 855.01 420.97 1008.66 434.57 887.16 521.24 860.17 613.67 983.19 623.47
00005283 00000016 792.99 227.43 373.86 534.32 838.87 422.98 998.78 439.07 870.09 529.42 845.50 618.91 967.87 632.05
00005284 00000017 787.58 232.15 377.45 528.41 829.53 420.45 987.26 438.98 859.02 528.22 832.18 618.31 953.82 633.43
00005285 00000018 783.59 229.26 377.46 527.95 824.50 416.90 976.73 439.20 847.18 529.53 824.32 615.26 941.67 633.50
00005286 00000019 782.32 228.43 372.17 529.49 820.25 412.44 968.75 439.51 840.26 529.23 820.08 612.87 931.77 634.86
00005287 00000020 782.22 228.29 368.85 527.82 816.58 412.16 961.50 440.17 835.96 528.66 816.86 613.33 922.73 635.84
00005288 00000021 781.90 229.19 368.94 529.66 816.36 412.50 961.84 442.61 833.59 530.26 815.95 613.16 923.46 637.23
00005289 00000022 785.57 233.35 365.93 526.69 818.18 412.88 962.48 445.11 833.58 532.77 815.56 614.50 922.17 640.53
00005290 00000023 790.23 234.19 366.25 526.69 820.67 413.68 967.06 446.45 836.74 535.36 817.65 615.22 928.02 641.82
00005291 DELETE   794.02 230.42 367.05 526.67 827.65 416.90 974.93 447.60 844.51 533.29 824.86 616.25 934.34 641.26
00005292 00000025 798.61 228.03 368.17 526.71 834.70 416.94 982.50 448.13 849.79 532.77 830.29 613.82 944.44 639.17
00005293 00000026 803.91 229.99 367.61 523.93 840.70 417.00 994.26 450.03 859.57 534.72 836.63 611.07 959.90 637.69
00005294 DELETE   807.91 243.09 366.60 509.30 856.04 415.22 1009.19 447.26 875.27 526.28 848.04 609.50 971.41 634.68
00005295 DELETE   815.90 239.02 365.99 520.36 867.22 428.48 1018.30 448.12 892.69 531.46 859.40 611.99 992.18 630.07
00005296 DELETE   820.94 244.94 375.59 525.47 879.65 420.89 1045.23 442.13 925.00 543.37 880.51 622.48 1015.46 642.25
00005297 00000030 825.36 242.18 382.00 530.39 894.79 435.95 1066.26 443.66 952.44 541.59 898.65 628.78 1045.76 636.11
00005298 00000031 832.38 241.45 382.61 535.31 911.83 442.28 1082.79 447.55 979.60 547.28 919.61 631.07 1072.11 635.82
00005299 00000032 832.64 237.02 387.22 542.11 920.55 441.61 1093.88 445.46 999.50 548.87 935.23 634.42 1086.42 637.33
00005300 00000033 836.39 239.93 386.99 539.99 928.93 440.14 1099.23 448.77 1010.84 545.67 941.55 630.68 1084.19 637.89
00005301 00000034 836.62 242.77 388.19 535.44 932.60 442.36 1101.84 449.51 1015.32 546.56 944.30 631.05 1088.14 637.15
00005302 00000035 835.45 240.51 389.10 539.86 932.88 440.87 1102.29 447.40 1017.65 547.17 947.49 632.29 1089.56 637.96
00005303 00000036 834.57 240.13 389.99 543.30 933.26 440.89 1102.68 446.72 1019.38 547.02 950.12 633.92 1092.06 639.13
00005304 00000037 832.00 237.28 391.23 551.11 932.44 439.53 1102.50 445.84 1020.88 545.62 950.58 635.36 1092.95 641.05
00005305 00000038 831.89 239.50 391.47 546.31 932.55 440.35 1104.96 441.46 1025.35 545.37 957.66 639.05 1096.56 640.49
00005306 00000039 826.98 240.50 392.04 538.71 927.24 447.67 1103.00 438.24 1025.95 548.99 957.43 642.60 1108.05 634.69
00005307 00000040 826.93 235.82 390.30 537.83 928.02 443.78 1104.47 432.82 1028.93 544.06 960.27 641.92 1107.96 632.56
00005308 00000041 825.42 230.67 391.59 539.39 929.34 441.03 1102.11 428.39 1030.49 537.90 963.42 638.14 1106.87 627.02
00005309 00000042 824.40 229.51 391.01 536.25 929.21 438.30 1100.97 425.11 1030.77 534.33 961.57 633.30 1106.37 621.81
00005310 00000043 824.64 227.79 388.24 532.53 928.47 435.60 1100.89 422.74 1030.22 529.67 959.27 628.46 1105.90 617.54
00005311 00000044 823.90 225.41 386.49 533.84 927.67 435.59 1099.50 422.70 1029.26 529.70 956.70 626.42 1104.52 615.24
00005312 00000045 823.70 226.72 387.05 535.46 927.62 438.34 1099.58 424.76 1029.56 532.72 958.16 629.73 1105.79 618.00
00005313 00000046 824.01 229.05 386.00 534.80 927.89 441.99 1099.67 429.99 1028.78 537.80 958.16 633.37 1104.18 623.22
00005314 00000047 823.65 234.97 387.45 532.04 927.90 447.14 1099.78 432.76 1030.46 543.82 961.02 638.62 1106.00 626.37
00005315 00000048 822.99 237.07 388.74 534.20 928.34 449.98 1100.28 435.59 1031.98 546.95 961.23 640.61 1107.61 628.27
00005316 00000049 823.05 236.82 389.01 534.56 928.56 449.90 1100.75 435.88 1032.29 547.57 961.25 640.93 1107.65 628.92
00005317 00000050 822.99 236.63 389.43 533.30 928.77 448.40 1100.26 434.13 1032.11 545.98 961.93 639.79 1107.37 627.54
00005318 00000051 823.93 233.53 388.17 533.50 928.85 445.26 1099.87 431.19 1030.98 540.77 962.12 637.86 1105.81 625.74
00005319 00000052 823.94 229.90 387.40 533.09 928.73 440.79 1101.09 428.39 1030.88 537.89 959.40 634.62 1104.09 624.18
00005320 00000053 824.13 230.15 387.64 532.42 928.69 439.99 1100.81 426.85 1030.84 536.19 959.80 632.39 1106.32 621.23
00005321 00000054 824.83 230.57 387.99 531.77 929.23 439.65 1101.60 427.87 1031.08 537.33 959.23 632.60 1105.35 622.60
00005322 00000055 824.42 233.24 388.15 533.06 927.43 442.90 1100.27 431.67 1028.25 541.54 957.10 634.78 1105.23 625.38
00005323 00000056 824.38 237.32 389.04 532.48 928.57 447.85 1100.07 435.95 1029.76 545.93 959.84 638.46 1106.67 628.20
00005324 00000057 823.05 248.25 391.16 528.84 928.62 452.45 1099.89 441.79 1028.88 552.77 958.03 642.42 1105.91 633.19
00005325 00000058 822.33 249.11 394.11 531.47 929.44 455.37 1100.59 446.53 1027.99 556.20 957.90 643.68 1105.60 635.94
00005326 00000059 821.25 246.81 394.53 532.83 927.95 455.58 1098.56 446.50 1026.02 555.90 957.15 644.16 1103.18 636.18
00005327 00000060 821.59 248.95 394.77 531.65 928.02 455.78 1098.75 447.38 1025.19 556.70 956.73 644.39 1102.89 636.89
00005328 00000061 821.52 249.07 395.05 532.69 927.84 455.76 1097.15 448.05 1024.46 557.09 956.84 644.45 1101.14 637.60
00005329 00000062 822.53 247.55 393.89 533.54 927.20 454.53 1097.29 447.33 1023.29 556.43 956.60 644.52 1100.60 637.99
00005330 00000063 822.22 249.29 393.89 533.34 926.65 454.16 1096.74 447.48 1021.17 557.42 956.03 645.56 1098.85 639.32
00005331 00000064 820.48 250.29 394.56 534.38 924.95 456.04 1094.25 449.09 1018.82 560.40 955.34 648.36 1096.08 642.08
00005332 00000065 821.36 251.26 393.91 533.98 924.10 457.20 1094.42 450.64 1016.28 561.52 953.76 650.00 1094.18 644.15
00005333 00000066 821.04 253.15 393.45 534.41 923.86 458.32 1093.40 452.48 1014.41 563.67 953.31 651.85 1092.30 646.55
00005334 00000067 819.78 252.10 395.53 536.02 922.68 459.09 1094.00 454.20 1013.12 565.40 951.48 652.81 1091.57 648.26
00005335 00000068 819.29 253.64 394.94 535.72 922.44 459.03 1092.92 454.19 1012.98 566.39 951.36 653.29 1091.12 648.82
00005336 00000069 817.56 254.32 395.37 534.85 921.34 460.33 1090.80 456.51 1011.56 566.94 948.84 652.34 1088.88 648.70
00005337 00000070 817.00 254.95 395.49 534.55 920.91 460.83 1090.25 456.73 1011.24 568.43 947.81 652.03 1089.05 648.25
00005338 00000071 817.02 255.36 395.58 535.14 921.61 460.86 1091.01 457.36 1012.41 568.47 946.70 650.58 1090.82 647.22
00005339 00000072 816.74 256.81 394.97 532.91 920.76 461.46 1089.53 457.66 1011.02 568.93 946.71 651.27 1089.04 647.83
00005340 00000073 816.66 257.11 395.00 532.06 920.28 461.63 1089.34 457.53 1010.98 569.09 946.48 651.34 1089.04 647.64
00005341 00000074 814.91 256.89 395.80 531.96 919.28 461.44 1087.88 457.82 1009.43 568.33 944.60 650.25 1087.25 646.88
00005342 00000075 815.07 255.86 395.46 532.74 919.62 462.29 1088.08 458.85 1010.01 568.58 944.14 649.89 1087.56 646.66
00005343 00000076 814.97 256.02 394.52 528.08 918.23 462.50 1087.40 458.22 1008.60 568.43 943.83 649.70 1086.82 645.80
00005344 00000077 815.52 254.98 393.15 528.37 917.50 462.68 1087.75 458.59 1007.93 568.15 942.65 649.05 1087.45 645.33
00005345 00000078 816.05 254.22 392.46 526.74 917.99 462.12 1088.63 458.68 1008.38 568.17 942.60 648.26 1086.97 645.05
00005346 00000079 816.77 254.33 392.85 526.30 919.13 461.83 1090.25 458.70 1009.84 567.64 943.00 647.34 1088.36 644.41
00005347 00000080 816.86 252.82 392.38 526.98 918.77 461.24 1090.39 457.50 1010.30 566.21 943.39 647.36 1088.57 643.86
00005348 00000081 818.06 250.42 392.76 528.07 919.37 459.95 1091.55 454.49 1011.82 563.29 945.76 647.38 1090.24 642.57
00005349 00000082 819.11 246.21 392.16 532.47 920.59 457.11 1091.55 451.70 1014.56 560.52 948.05 645.37 1091.31 640.72
00005350 00000083 820.60 237.72 391.99 540.28 923.58 449.85 1091.06 444.76 1018.75 552.67 952.70 640.78 1093.77 636.10
00005351 00000084 823.82 233.65 392.23 544.84 928.59 443.11 1094.00 438.37 1022.21 543.72 958.07 636.01 1097.74 631.41
00005352 00000085 828.93 233.59 391.21 551.41 934.31 433.29 1101.37 437.98 1025.37 536.25 956.23 628.95 1093.90 633.11
00005353 00000086 830.36 233.73 392.07 553.77 936.99 433.64 1104.60 439.58 1028.17 536.39 957.58 629.18 1095.86 634.52
00005354 00000087 832.39 237.95 393.90 551.46 938.96 438.76 1110.46 445.01 1031.20 544.05 957.86 632.93 1100.82 638.43
00005355 00000088 833.96 242.98 396.63 546.88 941.32 448.21 1113.78 452.54 1033.72 551.74 959.20 636.72 1105.70 640.67
00005356 00000089 835.55 249.28 396.27 541.99 943.45 453.63 1115.69 457.49 1034.73 556.46 961.17 639.18 1108.89 642.73
00005357 00000090 836.86 249.97 396.49 541.85 944.60 452.82 1117.28 456.45 1036.20 555.84 961.46 638.86 1111.55 642.22
00005358 00000091 839.26 246.14 394.79 543.49 946.24 448.53 1117.82 452.46 1038.26 550.18 961.94 635.51 1112.21 638.93
00005359 00000092 838.47 239.61 395.45 541.47 947.43 440.03 1117.57 445.91 1039.00 544.13 962.02 627.89 1108.68 632.90
00005360 00000093 839.40 236.37 393.25 531.69 947.16 434.00 1116.92 437.42 1037.53 537.45 962.92 619.68 1106.75 622.18
00005361 00000094 839.17 229.21 392.88 534.06 945.91 427.98 1115.09 430.51 1035.83 533.23 960.98 613.89 1102.85 615.40
00005362 00000095 831.45 218.98 397.80 538.33 943.39 424.50 1118.31 430.17 1032.27 530.05 957.18 607.90 1109.07 613.33
00005363 00000096 831.28 216.69 398.54 540.50 942.67 421.19 1118.87 427.78 1031.70 528.20 955.63 606.80 1109.26 613.06
00005364 00000097 830.89 216.82 397.89 536.81 941.80 421.69 1118.80 428.17 1030.64 527.40 954.66 605.85 1107.91 612.01
00005365 00000098 831.51 218.83 395.98 535.45 942.83 425.18 1117.43 431.10 1030.45 530.88 956.24 607.15 1106.94 612.93
00005366 00000099 831.43 223.01 396.26 540.87 944.66 429.81 1117.03 435.46 1032.63 536.32 957.15 611.08 1108.40 616.70
00005367 00000100 839.08 231.89 391.73 537.40 946.76 432.38 1115.02 437.14 1037.22 538.65 960.51 616.99 1105.09 620.55
00005368 00000101 840.36 235.80 394.10 539.92 949.44 429.00 1119.14 435.75 1040.96 541.01 964.03 620.62 1107.88 625.77
00005369 00000102 842.85 235.31 395.09 544.98 951.78 427.66 1121.11 435.74 1041.89 539.63 966.18 619.58 1110.19 625.76
00005370 00000103 845.67 234.45 394.93 545.97 955.41 426.59 1123.69 434.99 1045.55 538.62 968.17 616.36 1113.37 622.60
00005371 00000104 849.57 233.39 393.99 543.76 958.25 424.60 1127.42 430.97 1049.03 537.58 971.37 614.92 1115.55 619.66
00005372 00000105 851.92 231.52 394.28 533.19 962.23 424.45 1131.09 429.06 1051.70 534.71 973.68 610.63 1115.12 614.31
00005373 00000106 855.29 228.16 395.04 531.55 966.64 421.31 1137.62 426.26 1057.34 532.03 977.70 607.96 1119.87 611.86
00005374 00000107 859.08 227.16 391.97 531.03 970.38 419.99 1141.85 426.84 1061.10 531.73 979.14 607.20 1122.11 612.91
00005375 00000108 864.05 229.54 388.74 532.74 975.51 420.95 1147.97 426.83 1068.36 530.44 986.41 612.61 1127.14 617.12
00005376 00000109 870.03 230.17 390.16 541.14 984.20 422.68 1155.31 427.33 1079.00 533.12 999.37 622.54 1132.51 625.62
00005377 00000110 875.72 231.24 392.07 548.55 992.74 422.07 1161.10 428.65 1088.52 531.07 1006.40 621.41 1145.47 626.23
00005378 00000111 880.75 227.15 394.96 552.14 1000.18 423.42 1168.53 430.32 1099.26 531.07 1010.46 616.60 1159.87 622.02
00005379 00000112 884.68 229.06 395.93 548.16 1005.66 423.03 1176.48 429.45 1107.51 531.01 1013.44 611.26 1171.29 616.41
00005380 00000113 890.28 232.25 393.73 542.03 1011.02 426.00 1181.67 432.99 1113.20 536.15 1016.43 611.85 1175.44 617.94
00005381 00000114 892.85 237.23 391.48 534.43 1013.44 432.76 1182.94 439.54 1114.76 542.58 1019.66 616.56 1176.02 622.65
00005382 00000115 896.21 241.28 389.40 529.65 1015.38 440.62 1189.30 447.12 1117.86 553.62 1021.45 623.57 1179.87 629.82
00005383 00000116 898.22 252.90 391.44 524.64 1019.05 448.77 1193.48 456.82 1120.13 563.23 1025.50 631.18 1182.97 638.83
00005384 00000117 898.10 256.31 393.51 529.58 1021.40 446.85 1196.43 458.80 1115.35 564.71 1026.32 637.17 1174.61 647.76
00005385 00000118 897.75 256.55 396.15 532.44 1022.56 445.52 1195.23 456.95 1115.31 564.89 1030.92 639.14 1170.48 649.43
00005386 00000119 899.26 250.39 393.45 533.79 1020.38 440.97 1195.46 451.60 1114.95 558.95 1030.00 635.16 1171.80 644.57
00005387 00000120 897.08 246.73 392.98 534.71 1020.43 440.23 1189.87 448.14 1119.97 557.68 1027.80 629.59 1179.00 636.59
00005388 00000121 896.05 241.49 391.86 536.84 1015.58 437.93 1182.49 444.64 1113.95 547.02 1023.94 624.55 1174.89 630.34
00005389 00000122 891.28 239.86 393.16 539.03 1010.18 434.39 1177.07 441.24 1108.55 544.54 1019.10 622.36 1168.62 628.19
00005390 00000123 889.20 237.96 393.63 538.31 1006.34 436.53 1174.40 442.05 1105.71 544.77 1016.72 622.76 1167.49 627.55
00005391 00000124 887.89 239.65 394.15 536.98 1003.77 440.07 1172.54 445.57 1102.11 549.08 1012.78 624.57 1165.91 629.41
00005392 00000125 886.17 244.40 394.94 535.38 1002.52 441.97 1171.66 446.95 1099.82 552.71 1010.52 627.95 1163.29 632.57
00005393 00000126 884.19 252.35 394.70 531.80 1001.11 449.28 1169.46 454.02 1095.62 555.55 1009.82 633.53 1160.65 637.95
00005394 00000127 879.74 261.21 394.81 526.81 996.05 452.07 1164.72 456.74 1087.23 558.86 1004.61 636.94 1154.07 641.57
00005395 00000128 877.27 259.58 394.54 527.15 989.81 452.31 1159.89 456.27 1079.32 559.45 999.49 637.92 1149.53 641.86
00005396 00000129 873.82 261.43 396.24 525.04 987.37 452.01 1156.87 454.27 1077.61 557.65 999.42 638.82 1145.28 641.35
00005397 00000130 874.80 259.54 395.32 526.70 988.25 450.25 1157.98 452.74 1079.09 555.44 998.71 636.23 1147.88 638.89
00005398 00000131 875.88 257.60 396.64 528.03 991.14 449.81 1160.46 451.32 1085.34 554.32 1003.81 635.61 1153.51 637.28
00005399 00000132 880.97 256.57 395.18 529.79 997.16 452.20 1165.70 451.36 1094.58 555.93 1010.08 637.24 1162.52 636.97
00005400 00000133 885.40 257.16 395.88 539.84 1008.85 454.27 1180.94 450.50 1116.66 560.31 1023.46 641.52 1183.45 639.18
00005401 DELETE   898.53 261.63 385.28 535.66 1030.05 455.25 1200.16 451.27 1143.40 561.55 1042.36 639.99 1203.90 637.99
00005402 DELETE   905.56 251.18 388.92 528.98 1058.57 449.38 1228.30 439.54 1176.16 556.61 1079.59 638.26 1222.42 631.43
00005403 DELETE   925.17 245.58 380.71 526.25 1080.99 455.05 1245.48 433.18 1210.11 551.38 1106.45 639.99 1244.20 623.43
00005404 00000137 935.07 239.25 380.92 529.88 1096.91 455.49 1258.96 424.84 1233.74 547.88 1121.32 642.88 1258.04 619.36
00005405 00000138 939.39 235.69 378.99 533.83 1106.89 455.97 1262.50 423.84 1243.66 544.79 1127.66 642.72 1260.11 618.19
CROP_BBOX: 600 0 1483 957
