Video ID: 	Q9WPRC_07mA
H: 	1350
W: 	1080
FPS: 	29.97002997002997

FRAME INDEX X0 Y0 W H [Landmarks (5 Points)]

00007324 00000000 412.76 205.68 425.59 700.05 549.58 509.25 737.84 479.62 681.74 629.48 600.70 749.36 752.47 723.69
00007325 00000001 410.80 207.50 424.53 697.29 548.41 509.30 735.25 476.33 682.31 626.78 601.90 748.92 752.53 720.46
00007326 00000002 405.11 207.13 426.60 691.04 544.70 513.69 731.28 476.72 681.59 624.14 600.56 749.01 750.06 717.13
00007327 00000003 400.36 206.62 429.18 686.90 542.60 516.81 727.48 476.12 681.00 621.68 601.97 749.30 748.76 714.29
00007328 00000004 400.46 202.90 427.04 691.34 541.58 511.82 725.90 472.62 677.67 619.45 600.16 746.09 746.48 712.51
00007329 DELETE   401.42 203.02 423.71 694.02 540.37 505.81 723.71 468.26 674.78 615.91 600.58 743.32 747.02 711.14
00007330 00000006 399.58 199.55 424.70 699.64 533.69 500.52 721.06 461.83 667.78 614.81 598.34 743.55 745.78 710.49
00007331 00000007 397.98 195.99 427.97 704.85 530.81 498.11 721.20 456.17 668.44 613.75 600.66 745.71 747.99 710.13
00007332 00000008 396.40 196.53 429.28 705.59 529.58 496.02 721.78 453.67 669.46 614.51 601.33 746.20 748.90 710.38
00007333 00000009 398.20 198.87 428.78 703.46 529.17 494.53 725.35 453.37 670.24 617.07 600.36 746.22 750.62 711.32
00007334 00000010 398.98 200.45 429.24 699.14 530.38 493.84 727.35 454.32 670.45 617.95 599.40 743.86 750.81 710.23
00007335 00000011 400.95 201.46 429.34 693.83 531.78 494.14 729.96 454.74 672.78 619.57 599.81 741.91 753.48 708.20
00007336 00000012 400.33 202.30 430.96 693.58 531.52 493.19 731.85 453.86 673.95 621.11 600.51 742.36 755.46 708.70
00007337 00000013 400.51 201.16 431.30 694.60 532.42 492.69 732.31 453.84 674.67 620.56 600.77 741.58 755.36 708.31
00007338 00000014 401.08 201.01 430.41 693.79 531.44 491.57 732.41 452.48 673.87 620.15 600.62 741.11 755.72 707.70
00007339 00000015 400.15 201.95 430.07 694.55 530.07 490.99 731.06 451.87 672.38 619.24 599.74 741.42 754.03 708.01
00007340 00000016 398.39 201.54 428.69 697.50 528.06 491.11 726.35 451.56 668.96 617.92 598.65 743.00 750.00 709.39
00007341 00000017 394.86 200.68 431.35 697.79 525.06 492.05 723.04 451.24 666.70 616.41 597.11 744.19 747.69 709.70
00007342 00000018 390.92 200.01 432.57 700.04 523.27 494.96 718.28 453.17 662.93 617.53 591.69 744.03 741.44 708.64
00007343 00000019 387.40 200.98 432.15 699.83 520.18 497.16 713.18 454.35 658.24 617.84 587.18 745.09 735.01 708.80
00007344 00000020 383.10 201.11 433.33 702.23 516.75 498.37 709.27 457.11 653.81 617.21 583.27 746.51 730.83 711.31
00007345 00000021 378.66 204.22 432.44 699.71 511.96 499.66 705.24 460.35 649.04 620.34 577.13 748.11 723.57 714.25
00007346 00000022 377.52 200.19 427.02 702.36 501.26 491.32 698.59 458.17 640.41 623.54 568.89 747.06 721.87 718.92
00007347 00000023 372.95 202.02 427.65 696.37 497.35 492.72 693.77 459.53 635.97 625.61 564.64 745.77 715.16 717.40
00007348 00000024 368.41 204.52 428.46 692.96 492.35 495.45 687.80 459.71 629.89 626.36 561.34 746.18 712.24 715.53
00007349 00000025 366.72 205.87 426.72 693.74 489.53 495.78 685.15 459.07 627.62 625.90 559.21 748.51 708.98 716.96
00007350 00000026 361.57 206.15 428.51 693.79 486.28 495.63 683.30 458.75 625.67 625.79 556.26 748.84 706.17 716.98
00007351 00000027 357.33 206.10 430.91 694.21 484.08 496.82 680.38 459.00 621.81 627.42 553.95 748.03 704.07 715.33
00007352 00000028 356.29 204.68 430.10 694.20 482.94 497.97 678.03 459.98 620.49 627.14 552.49 747.34 703.15 714.46
00007353 00000029 353.92 205.49 430.96 692.83 482.10 498.85 676.55 459.26 619.94 626.94 553.00 747.05 703.01 712.70
00007354 00000030 352.33 206.53 431.41 693.03 480.96 499.08 675.36 458.92 618.84 626.82 552.40 746.73 702.96 711.83
00007355 00000031 352.87 206.56 430.83 692.39 481.29 499.28 675.30 459.24 618.72 626.95 552.68 746.97 702.42 712.21
00007356 00000032 353.43 206.86 429.94 691.41 481.26 499.45 675.94 459.41 618.81 627.27 551.31 746.16 703.23 711.33
00007357 00000033 353.78 207.48 429.43 690.77 481.18 499.40 676.18 459.67 618.69 627.58 551.16 746.27 703.20 711.71
00007358 00000034 354.28 207.83 428.39 690.53 480.87 499.33 675.89 459.57 618.48 628.12 552.00 747.81 702.71 713.27
00007359 00000035 353.81 208.47 428.99 692.54 479.85 500.03 674.73 460.08 616.96 627.81 552.67 751.06 702.26 716.41
00007360 00000036 352.08 209.53 427.49 689.30 478.91 501.14 671.77 461.83 615.23 626.98 554.01 754.27 696.03 720.38
00007361 00000037 350.02 209.78 429.42 696.20 477.41 503.20 669.04 463.25 613.26 627.23 553.24 758.16 693.63 723.79
00007362 00000038 347.02 211.20 430.34 695.63 475.80 505.24 667.36 464.97 612.14 628.27 550.70 757.79 692.72 723.04
00007363 00000039 346.73 212.96 429.02 690.97 473.57 506.40 665.80 465.18 610.26 629.14 549.25 757.80 691.32 722.25
00007364 00000040 343.73 215.09 430.52 687.43 472.24 507.40 664.46 465.66 610.46 629.49 549.03 756.88 690.61 720.79
00007365 00000041 343.37 214.74 430.27 685.31 471.23 509.62 663.09 466.31 609.56 630.00 548.37 756.63 690.80 719.07
00007366 00000042 343.65 213.65 429.35 687.59 471.96 510.28 662.43 466.36 609.86 629.74 547.84 755.58 691.65 717.41
00007367 00000043 343.20 213.37 430.19 688.93 471.74 510.39 663.01 465.86 610.29 629.40 546.74 755.18 692.50 716.41
00007368 00000044 342.95 214.57 430.98 687.34 470.75 509.67 663.25 464.89 609.66 628.69 546.07 754.12 693.23 715.21
00007369 00000045 342.80 215.07 430.99 686.74 470.03 509.06 663.32 463.81 609.19 628.30 545.05 753.18 693.58 713.87
00007370 00000046 342.41 215.45 430.49 687.38 469.26 509.33 663.29 462.52 609.84 628.54 545.07 753.33 695.16 712.74
00007371 00000047 342.27 217.23 429.43 684.91 467.71 508.81 662.63 461.09 608.77 628.03 545.09 754.16 694.12 712.89
00007372 00000048 341.22 217.28 428.54 688.80 467.20 507.74 661.12 460.91 608.33 627.14 547.11 758.68 690.70 718.42
00007373 00000049 340.93 216.72 429.12 692.63 467.55 507.38 661.44 460.93 608.68 626.95 546.98 759.72 690.78 719.82
00007374 00000050 340.07 215.25 430.90 697.18 466.03 506.96 662.26 459.58 607.81 626.12 543.22 759.44 692.22 718.83
00007375 00000051 338.98 213.72 431.68 698.62 463.94 505.69 659.69 458.05 604.30 622.04 538.57 755.99 690.57 715.24
00007376 00000052 338.66 212.21 430.16 698.66 460.64 502.92 656.58 459.14 594.86 619.22 528.89 752.28 683.66 714.78
00007377 DELETE   339.13 211.11 427.09 690.51 456.47 504.69 651.03 463.99 584.86 616.41 521.25 749.02 677.76 713.90
00007378 DELETE   338.37 210.08 424.96 689.50 451.25 505.36 646.19 465.64 574.52 616.16 513.05 748.01 671.12 713.88
00007379 00000055 338.96 209.41 421.25 691.68 450.92 504.65 641.05 465.24 570.40 616.51 512.76 747.64 667.34 713.97
00007380 00000056 337.19 208.09 422.89 692.52 451.81 505.24 641.02 465.84 571.00 615.89 514.20 747.81 667.32 714.16
00007381 00000057 337.50 210.03 422.97 690.33 452.68 506.89 640.98 467.52 571.01 616.77 515.15 748.90 667.68 715.27
00007382 00000058 332.58 208.18 431.69 690.59 450.33 504.00 644.42 466.49 574.77 621.92 516.76 755.38 667.12 723.13
00007383 00000059 333.05 206.83 431.16 692.97 450.34 505.73 642.78 467.31 574.15 623.69 517.50 756.67 666.70 723.68
00007384 00000060 335.20 205.69 427.52 694.23 450.88 507.73 643.25 468.76 575.17 624.46 517.88 757.78 666.59 724.38
00007385 00000061 340.91 210.65 417.28 690.50 455.49 516.40 638.94 474.78 572.34 622.58 520.45 755.76 668.27 720.02
00007386 00000062 340.47 214.82 417.18 684.27 455.43 517.53 641.15 475.25 575.42 624.15 520.73 755.34 670.56 718.81
00007387 00000063 341.18 216.15 415.52 682.12 455.05 519.00 640.85 475.61 575.87 625.89 520.06 755.74 671.30 718.20
00007388 00000064 339.18 215.42 415.75 682.28 454.44 521.57 638.06 478.18 575.04 628.14 519.63 757.02 669.42 719.22
00007389 00000065 336.84 216.15 418.05 681.59 453.97 523.31 636.74 480.15 575.07 629.55 519.73 757.84 668.19 720.26
00007390 00000066 335.74 215.23 418.73 684.83 453.99 523.02 635.45 480.14 574.97 628.42 520.46 760.85 662.26 723.66
00007391 00000067 334.09 214.25 421.66 688.98 453.48 524.58 634.23 481.59 574.06 629.51 520.54 764.46 660.03 727.31
00007392 00000068 333.41 215.26 422.90 689.56 453.12 524.67 633.84 482.84 572.71 629.12 518.28 763.37 658.83 727.18
00007393 00000069 332.62 216.98 423.99 688.10 452.62 524.63 635.02 482.66 573.54 629.72 517.61 762.73 660.84 726.33
00007394 00000070 333.45 217.01 423.43 689.15 453.21 525.23 635.21 482.89 574.13 630.07 517.14 761.64 662.82 724.81
00007395 00000071 333.48 216.64 423.84 689.22 453.38 527.22 635.46 484.29 574.22 630.12 516.86 761.69 663.89 724.40
00007396 00000072 333.84 216.14 423.39 689.02 454.28 529.26 634.84 485.84 574.55 630.69 517.33 760.89 663.95 723.21
00007397 00000073 332.78 216.90 424.79 687.96 454.29 528.65 635.76 486.14 575.63 630.96 516.50 760.07 663.93 723.13
00007398 00000074 332.38 217.64 425.12 685.74 454.49 529.29 635.66 486.97 575.61 631.54 516.87 759.84 663.41 723.07
00007399 00000075 329.38 217.53 428.67 688.48 449.05 522.88 634.89 483.77 574.41 628.47 513.83 757.46 663.13 723.95
00007400 00000076 329.80 217.02 426.68 689.78 449.18 526.11 633.10 485.85 573.72 629.19 513.88 758.32 662.68 723.78
00007401 00000077 328.60 216.94 425.73 687.58 449.52 527.55 631.69 488.06 573.01 629.19 513.26 757.21 660.69 723.06
00007402 00000078 330.59 219.52 423.24 683.31 448.52 528.97 631.25 490.29 571.34 630.56 511.49 756.57 659.56 723.09
00007403 00000079 324.94 220.80 428.03 682.91 447.83 530.39 630.09 491.05 571.47 631.42 511.52 756.93 659.23 722.70
00007404 00000080 322.60 222.37 430.65 684.36 445.67 530.73 630.06 491.40 569.85 633.27 508.49 757.72 659.75 723.28
00007405 00000081 323.49 223.78 431.31 685.64 442.61 530.32 631.32 490.34 568.06 634.34 505.29 759.36 662.05 724.45
00007406 00000082 324.95 224.40 427.00 686.50 440.99 526.56 629.27 486.45 565.60 638.37 503.80 758.09 662.58 722.99
00007407 00000083 323.03 225.54 430.69 685.24 438.42 524.87 629.52 484.26 565.62 641.25 504.68 758.58 664.79 723.25
00007408 00000084 324.09 224.71 429.32 686.39 438.02 522.44 631.05 482.03 566.88 641.95 504.19 757.59 666.44 722.47
00007409 00000085 321.96 224.76 432.17 687.71 436.83 520.14 630.47 479.96 566.77 642.53 504.93 757.11 667.76 722.03
00007410 00000086 322.39 225.20 432.38 687.82 436.85 519.39 631.63 479.81 567.97 643.79 505.89 756.87 669.37 722.25
00007411 00000087 322.99 229.45 437.75 681.67 440.94 521.42 636.36 477.10 576.09 645.41 508.71 758.61 668.92 718.62
00007412 00000088 323.45 229.45 437.79 683.73 441.63 522.20 637.33 476.83 577.96 646.19 508.50 759.51 670.52 718.75
00007413 00000089 324.19 226.59 431.64 691.20 436.75 519.98 632.97 479.52 570.44 646.96 508.41 760.34 672.95 725.10
00007414 00000090 325.43 224.98 438.86 700.93 443.35 522.32 638.21 475.66 574.26 645.21 510.23 765.81 673.90 725.31
00007415 00000091 326.79 224.78 430.86 694.26 445.25 524.67 641.25 475.53 579.18 642.55 513.25 764.50 676.02 721.92
00007416 00000092 329.28 224.61 430.17 691.84 448.49 522.43 644.38 474.30 582.51 639.61 515.97 762.87 676.96 721.30
00007417 00000093 331.23 223.80 429.36 692.94 450.55 520.24 648.05 473.29 585.28 639.71 517.27 761.78 680.30 721.10
00007418 00000094 332.58 223.27 430.06 692.12 454.00 520.94 650.59 474.38 590.07 638.12 519.41 760.78 682.74 720.35
00007419 00000095 334.09 224.60 430.65 690.90 456.88 520.77 654.42 474.16 594.34 638.19 522.22 759.55 687.27 719.08
00007420 00000096 336.37 225.96 431.63 689.22 460.64 521.91 657.41 475.31 598.38 636.94 525.98 758.64 691.25 718.07
00007421 00000097 339.18 226.44 432.99 689.13 462.25 522.87 659.98 474.96 600.11 638.10 528.83 759.29 695.40 717.67
00007422 00000098 341.32 228.12 432.65 688.57 464.46 523.57 661.16 474.90 603.12 638.61 531.68 760.23 697.43 718.02
00007423 00000099 341.85 227.86 435.48 688.59 465.67 523.30 663.79 474.69 605.14 639.78 533.19 759.68 699.89 717.53
00007424 00000100 342.66 227.99 436.15 688.17 466.99 521.70 665.17 473.15 607.17 639.62 535.32 758.53 701.32 716.31
00007425 00000101 343.37 227.76 437.75 688.66 468.74 521.13 667.18 472.35 609.76 638.65 535.74 757.37 703.48 714.98
00007426 00000102 344.99 227.29 437.82 689.67 470.40 519.50 668.69 471.72 611.28 638.01 536.89 756.57 704.39 715.06
00007427 00000103 345.88 225.79 437.87 691.66 470.56 518.36 669.24 471.52 610.50 637.87 536.75 756.16 704.91 715.42
00007428 00000104 346.73 226.75 437.98 690.23 470.28 518.91 669.97 472.71 609.61 638.20 536.26 756.85 704.65 716.64
00007429 00000105 346.26 228.15 438.54 689.23 469.66 520.37 669.86 474.16 609.28 639.88 535.92 757.97 705.28 717.71
00007430 00000106 346.47 228.91 438.06 688.42 468.60 522.50 668.77 475.91 607.37 641.45 534.91 759.10 704.51 718.56
00007431 00000107 344.51 230.64 437.91 686.18 467.26 526.09 666.22 477.28 605.96 643.01 534.46 760.85 703.16 718.40
00007432 00000108 344.47 231.64 435.34 687.17 464.96 528.83 663.76 479.32 601.85 644.76 532.01 763.39 701.61 720.33
00007433 00000109 343.52 230.75 434.94 687.75 464.08 529.13 662.49 480.21 599.78 644.07 530.80 763.37 700.31 720.73
00007434 00000110 342.27 231.81 434.97 687.07 462.48 529.02 661.50 480.38 598.34 643.62 529.30 763.54 699.60 721.12
00007435 00000111 341.20 231.24 434.20 687.06 461.45 528.55 659.84 480.43 597.07 644.19 528.09 763.43 697.32 721.45
00007436 00000112 341.73 230.87 431.15 686.61 460.31 528.37 658.26 480.15 595.29 644.72 527.73 764.48 695.39 722.49
00007437 00000113 342.55 231.43 429.64 683.99 459.34 527.31 657.94 479.78 593.41 644.07 528.31 764.83 694.16 723.41
00007438 00000114 341.57 231.97 429.26 683.19 459.22 526.45 657.80 479.17 593.78 643.14 529.77 767.48 690.67 726.40
00007439 00000115 340.73 231.25 430.88 687.85 459.61 525.52 658.02 478.58 594.52 643.83 532.17 770.45 689.73 729.64
00007440 00000116 340.03 230.87 431.39 689.62 459.76 525.85 657.34 479.16 594.32 644.36 533.05 771.76 689.45 731.11
00007441 00000117 340.08 231.74 430.00 688.95 459.38 526.37 657.17 479.94 593.93 645.34 532.42 772.90 688.52 732.54
00007442 00000118 340.65 231.11 428.56 693.26 459.33 526.09 656.11 480.00 593.70 646.07 533.09 777.00 685.81 737.04
00007443 00000119 341.30 231.46 427.05 690.84 459.85 526.62 655.09 480.72 594.17 647.40 535.18 779.21 683.57 739.52
00007444 00000120 341.65 230.26 426.04 695.49 460.06 526.32 654.15 481.28 592.92 648.84 534.02 780.71 681.78 741.89
00007445 00000121 340.77 228.94 426.49 696.04 460.55 526.25 655.13 482.27 593.50 649.66 531.46 778.51 680.88 740.70
00007446 00000122 340.91 229.41 426.34 693.14 460.38 526.50 655.22 483.10 593.08 650.46 530.26 777.23 679.81 739.98
00007447 00000123 340.62 229.45 428.01 694.97 459.59 527.20 655.67 482.91 592.84 650.34 529.43 778.38 681.38 740.27
00007448 00000124 343.26 231.95 423.31 686.83 458.70 526.33 654.79 483.77 590.85 650.01 527.21 779.50 675.64 743.19
00007449 00000125 343.26 231.29 422.86 687.98 458.34 526.43 654.91 484.28 589.76 649.81 525.39 778.26 676.37 742.27
00007450 00000126 342.18 230.69 423.41 686.91 457.24 526.58 654.33 484.04 588.32 649.44 523.41 774.75 677.54 738.28
00007451 00000127 341.71 230.60 423.44 685.46 456.33 526.36 653.31 483.46 586.76 648.21 523.23 773.53 677.81 736.67
00007452 00000128 340.54 229.42 424.35 685.73 455.98 526.74 652.93 483.76 586.33 646.59 523.74 772.50 678.23 735.45
00007453 00000129 338.98 229.24 424.31 685.21 455.28 526.98 650.61 484.43 585.07 646.15 522.85 771.89 675.52 735.16
00007454 00000130 338.87 228.81 423.91 685.88 454.23 527.36 649.02 484.46 583.09 646.00 521.87 771.59 674.67 734.51
00007455 00000131 338.10 230.41 423.48 683.97 453.21 527.72 648.29 484.64 582.19 646.48 519.86 771.94 673.23 734.78
00007456 00000132 337.32 230.30 422.87 683.93 451.69 527.82 646.59 484.02 579.88 645.60 519.08 772.14 672.01 734.44
00007457 00000133 336.96 231.00 421.09 683.32 448.83 527.29 644.05 483.14 575.75 646.26 517.98 773.75 669.95 735.69
00007458 00000134 336.35 231.13 421.29 687.37 440.28 519.05 635.13 483.79 567.81 650.10 516.20 772.55 665.73 742.75
00007459 00000135 330.82 230.80 425.52 688.01 438.15 519.67 632.53 481.79 568.04 650.95 515.68 770.98 666.48 738.68
00007460 00000136 326.42 229.76 429.66 690.53 436.07 519.98 631.09 481.40 566.44 648.83 512.89 769.86 665.06 736.80
00007461 00000137 324.55 229.58 429.14 694.48 434.12 519.28 630.19 481.82 564.68 650.94 510.53 773.58 662.36 741.36
00007462 00000138 322.40 230.85 430.23 694.06 433.87 519.31 629.30 482.54 564.20 650.62 510.96 776.15 659.25 744.51
00007463 00000139 323.99 230.22 428.08 694.27 437.98 518.60 631.12 485.52 565.26 648.31 510.23 774.70 656.69 746.29
00007464 00000140 327.87 228.07 424.77 698.08 441.99 518.73 635.33 486.36 570.55 648.19 510.84 771.96 662.45 744.12
00007465 00000141 335.10 229.82 422.74 693.26 453.11 521.62 647.75 482.98 589.49 651.29 516.02 774.42 669.78 740.86
00007466 00000142 337.70 228.60 419.86 693.25 462.74 527.97 656.10 485.75 598.08 645.61 525.09 773.84 678.81 737.59
00007467 DELETE   344.49 228.11 418.93 688.81 471.01 525.84 663.06 483.37 608.13 644.29 532.97 770.74 685.30 734.46
00007468 DELETE   349.57 222.90 420.04 695.94 479.98 520.97 674.80 480.62 620.37 643.45 536.75 766.02 695.61 731.55
00007469 DELETE   349.16 218.16 427.40 703.25 488.53 515.31 682.41 479.19 631.80 636.44 540.91 761.93 700.46 731.04
00007470 00000146 356.41 215.66 424.22 707.06 495.61 509.24 685.18 476.92 636.50 630.68 547.57 758.85 702.83 731.31
00007471 00000147 366.30 213.54 422.77 705.17 499.34 501.72 695.58 472.49 643.33 624.82 552.64 753.66 713.32 728.65
00007472 00000148 368.22 211.81 424.00 702.09 504.29 495.89 701.31 466.06 652.47 622.19 556.10 748.45 718.67 723.12
00007473 00000149 374.27 206.98 419.84 703.04 508.75 491.37 702.81 462.66 653.84 618.03 558.12 744.37 719.85 720.12
00007474 00000150 377.54 200.85 419.39 701.48 509.45 486.25 704.50 459.77 651.74 612.18 559.43 739.65 718.15 717.64
00007475 00000151 381.29 198.03 417.16 703.63 508.27 484.90 703.42 457.61 649.90 609.67 558.41 738.37 717.16 715.84
00007476 00000152 379.45 197.21 420.12 703.71 505.00 484.08 701.43 457.59 644.16 609.17 556.05 736.71 714.67 714.64
CROP_BBOX: 0 0 1080 1192
