Video ID: 	btlgsKIvN0M
H: 	1080
W: 	1920
FPS: 	25.0

FRAME INDEX X0 Y0 W H [Landmarks (5 Points)]

00001282 00000000 443.41 161.61 351.72 574.17 588.06 400.15 740.57 406.21 702.98 507.33 605.51 599.99 721.30 605.21
00001283 00000001 444.64 161.99 351.55 574.08 590.82 399.68 741.50 405.59 704.73 507.30 608.59 601.08 721.58 606.04
00001284 00000002 446.93 163.07 351.79 570.00 591.59 399.08 743.45 406.18 705.65 506.12 606.38 596.23 723.07 602.48
00001285 00000003 447.48 164.66 351.82 567.14 592.05 399.49 744.22 407.22 706.11 507.39 605.63 595.41 722.71 602.46
00001286 00000004 447.15 166.22 352.63 564.99 592.56 400.21 744.69 407.70 706.98 507.72 606.27 595.71 723.00 602.71
00001287 00000005 448.21 164.14 351.64 568.03 593.86 398.41 745.69 406.01 708.74 506.58 607.42 596.20 724.32 603.29
00001288 00000006 449.89 160.66 351.86 571.48 595.57 392.14 747.60 401.23 710.49 501.13 607.29 592.04 725.73 600.20
00001289 00000007 452.35 158.96 350.67 571.46 596.52 389.08 748.20 397.95 710.92 497.21 607.77 587.86 728.07 595.97
00001290 00000008 454.69 158.68 350.27 570.16 596.39 388.58 748.94 397.99 710.72 497.29 608.72 587.18 729.50 595.81
00001291 00000009 455.49 160.67 350.58 564.90 596.69 390.27 750.79 399.07 711.92 499.19 610.21 587.68 731.28 595.90
00001292 00000010 456.76 162.25 351.04 562.23 596.80 392.71 753.64 400.39 713.81 502.24 611.92 588.23 736.61 595.29
00001293 00000011 457.76 162.60 349.96 560.49 598.07 393.56 752.55 401.21 713.37 503.58 614.48 588.95 735.76 595.89
00001294 00000012 459.28 163.17 349.46 561.40 598.24 394.16 753.60 401.45 713.55 504.46 614.84 590.21 736.91 596.86
00001295 00000013 459.47 166.06 349.56 561.45 600.26 398.96 756.00 406.33 714.27 506.02 612.69 592.46 735.76 599.75
00001296 00000014 460.35 168.67 350.43 556.43 601.11 402.21 756.94 411.54 712.82 505.14 611.46 592.30 734.99 601.72
00001297 00000015 460.67 164.85 349.00 558.48 598.91 401.19 754.63 410.46 711.79 500.31 610.76 589.97 734.46 599.54
00001298 00000016 460.88 158.77 349.11 564.26 598.24 394.23 753.02 403.11 712.24 493.04 611.09 585.78 733.49 595.12
00001299 00000017 461.11 155.39 349.42 567.91 596.27 392.55 751.96 400.93 711.04 489.81 610.82 585.36 733.32 594.23
00001300 00000018 460.76 154.03 349.56 570.50 594.66 390.98 751.12 399.83 709.57 488.56 609.32 584.30 733.16 593.46
00001301 00000019 460.28 153.76 350.29 570.93 593.77 390.49 750.48 399.64 708.38 488.71 608.29 583.66 732.67 592.93
00001302 DELETE   460.45 156.12 349.07 566.53 592.54 393.12 749.33 402.44 707.19 490.04 607.23 583.44 732.55 592.90
00001303 DELETE   459.74 160.08 347.61 557.60 590.21 399.09 749.79 408.61 704.76 495.81 604.54 586.14 732.81 595.65
00001304 00000022 457.30 169.48 350.71 551.17 589.74 406.04 750.28 416.45 702.55 506.28 600.38 590.41 730.73 600.54
00001305 DELETE   456.62 177.52 352.76 551.44 589.13 417.72 748.14 426.69 696.45 519.46 600.89 600.12 729.75 608.83
00001306 00000024 454.87 179.25 356.07 560.34 584.38 423.92 748.05 429.24 693.79 531.47 602.21 615.83 729.93 620.93
00001307 00000025 452.38 189.20 357.86 561.22 584.39 428.32 749.80 431.13 695.51 544.68 604.65 629.13 729.07 631.54
00001308 00000026 451.43 201.46 356.56 560.12 581.50 439.11 745.34 443.23 689.16 557.42 603.80 638.77 726.71 642.04
00001309 00000027 452.92 209.31 357.22 559.73 580.83 446.69 743.65 452.14 685.84 567.42 603.65 645.35 725.24 649.75
00001310 00000028 452.33 219.14 361.57 556.54 581.29 447.00 742.55 455.49 684.95 572.07 599.17 647.67 718.70 655.44
00001311 00000029 455.05 212.86 363.09 568.04 581.30 442.05 741.46 454.00 686.19 577.22 593.25 646.11 716.03 657.22
00001312 00000030 456.90 211.99 361.20 564.64 580.03 443.05 742.44 455.14 686.03 576.37 592.71 645.35 718.45 656.91
00001313 00000031 459.58 211.31 358.85 562.25 580.01 442.58 744.36 453.31 687.63 574.31 595.07 645.06 721.80 655.95
00001314 00000032 459.91 209.30 359.42 564.89 581.42 441.94 745.17 451.43 690.15 572.75 597.74 644.95 723.38 654.78
00001315 00000033 458.95 209.55 361.39 569.49 584.68 440.27 745.02 450.48 691.60 572.70 598.67 644.27 722.23 654.17
00001316 00000034 459.04 209.78 360.54 568.01 583.97 440.78 744.63 450.74 691.45 572.26 598.36 644.16 722.45 653.96
00001317 00000035 458.82 210.25 359.86 564.72 582.90 441.03 744.19 450.74 690.37 572.45 596.88 643.75 720.64 653.57
00001318 00000036 457.99 212.18 359.56 562.39 582.30 440.87 743.16 450.77 689.31 572.33 595.73 643.17 719.01 653.14
00001319 00000037 457.85 212.14 358.57 561.28 580.32 441.04 743.18 450.86 688.16 572.13 594.64 643.45 719.82 653.40
00001320 00000038 456.95 210.18 357.13 559.79 578.25 439.03 742.07 449.41 686.15 571.30 592.59 641.86 718.29 652.18
00001321 00000039 451.83 216.58 359.37 558.09 579.24 443.60 741.33 454.14 681.84 568.28 596.56 642.55 720.85 651.47
00001322 00000040 452.37 211.93 358.19 561.22 580.53 441.59 741.94 452.44 683.46 565.96 598.20 642.21 720.79 651.30
00001323 00000041 455.05 202.14 357.63 569.14 580.40 428.29 741.30 440.78 688.75 558.85 593.52 635.97 713.22 648.05
00001324 00000042 455.80 195.48 359.36 576.77 584.04 420.71 745.04 432.35 694.07 548.38 594.73 630.20 717.04 641.06
00001325 00000043 456.35 189.29 359.98 578.99 584.19 414.79 746.40 426.72 694.99 543.71 591.81 625.19 717.45 636.49
00001326 00000044 454.87 182.79 357.30 583.01 587.49 420.17 746.30 429.41 691.54 538.27 597.55 623.54 724.95 630.88
00001327 00000045 456.41 178.15 357.42 577.69 588.06 424.22 748.31 432.29 691.43 534.00 600.42 621.63 728.19 628.46
00001328 00000046 457.24 177.24 357.66 575.58 589.43 419.89 748.98 426.77 694.12 529.21 602.63 618.65 729.67 624.70
00001329 00000047 459.76 174.73 356.00 573.35 590.17 414.44 749.42 423.09 694.90 524.06 601.80 611.43 730.78 619.43
00001330 00000048 460.85 171.92 355.49 571.46 590.11 410.80 749.63 420.91 696.33 520.70 602.03 605.09 732.59 614.62
00001331 00000049 462.05 171.69 354.70 568.07 591.78 407.61 750.56 419.55 698.81 517.89 601.24 598.46 733.20 609.85
00001332 00000050 463.40 173.26 354.66 560.35 593.45 407.12 752.32 418.93 701.43 517.24 602.97 595.12 734.20 606.81
00001333 00000051 464.95 172.49 354.38 565.06 595.79 406.21 754.90 418.33 704.45 517.22 605.10 596.33 737.58 608.18
00001334 00000052 465.81 170.87 354.48 572.12 597.78 406.37 756.37 417.63 706.79 515.83 607.79 598.62 741.29 609.39
00001335 00000053 466.69 170.65 354.78 573.76 599.78 408.05 757.57 417.33 710.17 515.59 611.89 602.65 742.55 611.64
00001336 00000054 466.67 170.72 355.48 569.93 600.30 409.36 756.90 417.66 710.43 517.66 614.20 603.25 741.25 611.44
00001337 00000055 466.36 172.09 355.72 564.03 599.27 411.47 757.56 418.69 709.79 521.02 615.31 605.19 740.03 612.41
00001338 00000056 466.27 174.21 356.81 559.15 598.02 413.91 760.07 419.31 709.57 524.84 617.41 608.77 741.62 614.23
00001339 00000057 466.12 174.74 357.47 557.80 598.70 415.58 761.56 418.89 710.31 527.41 620.58 612.54 742.32 615.98
00001340 00000058 466.03 176.93 357.42 558.16 600.11 417.20 762.02 418.85 711.97 528.95 622.55 615.56 743.70 617.47
00001341 00000059 465.67 178.14 357.32 564.47 599.57 417.96 761.76 418.76 712.00 529.91 623.51 621.39 744.44 622.47
00001342 00000060 465.67 178.95 357.44 570.75 599.63 418.01 761.51 419.91 711.68 530.91 620.52 622.56 744.44 624.57
00001343 00000061 467.00 180.80 357.59 566.26 598.78 419.32 762.81 420.89 710.88 531.74 618.78 620.30 746.13 622.19
00001344 00000062 469.23 179.81 357.73 566.41 600.30 419.99 764.27 420.40 712.54 532.01 621.01 619.14 749.51 620.03
00001345 00000063 473.26 179.72 357.11 564.99 601.70 420.48 767.24 419.41 714.50 532.76 622.24 617.28 753.90 616.87
00001346 00000064 477.26 180.49 356.80 561.32 606.99 419.16 770.33 418.46 718.38 533.41 625.03 613.82 756.32 613.98
00001347 00000065 483.57 172.79 353.58 565.45 616.55 417.14 771.04 418.46 722.09 531.21 634.55 607.71 759.76 609.11
00001348 00000066 487.07 170.21 355.37 576.04 622.02 420.76 773.66 420.33 727.19 532.74 641.22 613.44 763.87 613.18
00001349 00000067 493.35 169.76 353.48 578.94 627.79 420.85 779.42 423.24 730.04 532.57 646.77 615.89 766.93 617.71
00001350 00000068 497.43 169.79 354.09 577.14 632.41 421.79 784.40 425.55 734.43 533.46 649.99 614.61 771.38 617.29
00001351 00000069 500.75 170.60 355.46 569.30 632.50 422.88 786.81 426.06 735.37 533.79 650.06 609.62 775.32 612.02
00001352 00000070 501.00 169.81 355.14 569.22 630.29 422.70 786.13 425.97 734.32 532.21 648.53 608.68 776.07 611.05
00001353 00000071 498.37 166.97 353.15 570.75 628.08 418.54 782.16 422.72 730.21 530.46 646.89 609.97 769.19 613.14
00001354 00000072 494.35 164.69 353.53 571.07 622.65 416.11 776.25 422.29 722.08 529.75 640.24 609.70 760.33 614.76
00001355 00000073 486.34 162.78 357.77 573.88 613.04 412.49 769.20 424.17 712.18 525.61 628.10 606.19 751.04 616.09
00001356 00000074 476.40 165.59 366.78 577.65 598.84 415.90 762.72 421.93 701.46 531.75 617.71 615.83 744.72 621.26
00001357 00000075 468.35 166.27 365.87 577.99 587.84 417.32 749.58 421.15 688.19 530.31 609.03 616.58 734.71 620.41
00001358 00000076 459.09 161.69 367.26 578.55 576.71 417.31 738.06 420.57 676.39 528.23 599.49 614.14 725.41 617.96
00001359 00000077 452.40 158.22 367.85 576.39 564.53 417.50 725.99 418.93 662.66 530.25 588.89 611.21 716.00 613.24
00001360 00000078 442.25 159.00 367.22 580.31 554.07 418.42 714.14 418.54 651.04 529.84 581.93 613.09 706.80 613.57
00001361 00000079 433.32 157.26 364.64 585.39 544.64 414.35 701.26 419.17 639.54 525.57 573.07 613.32 691.61 617.26
00001362 00000080 424.24 159.30 367.36 583.88 534.52 414.22 691.65 418.53 628.09 524.27 562.40 610.69 685.51 614.11
00001363 00000081 415.97 160.81 370.22 579.22 526.39 412.92 687.27 414.45 622.74 522.66 553.57 608.67 684.07 609.72
00001364 00000082 411.19 161.18 370.74 578.77 520.97 411.89 682.56 413.57 619.14 521.71 549.11 609.01 682.10 610.15
00001365 00000083 407.25 159.89 371.72 581.75 518.71 412.28 680.24 412.90 618.43 521.35 547.50 609.93 680.58 610.20
00001366 00000084 405.50 160.29 372.36 581.58 518.41 411.80 679.23 412.06 618.58 520.79 547.58 609.26 680.63 609.39
00001367 00000085 405.08 159.73 372.20 581.24 518.96 411.03 681.05 410.94 620.75 521.10 547.36 608.77 682.26 608.49
00001368 00000086 407.54 158.88 368.25 580.42 523.64 410.86 683.23 410.26 625.93 521.36 551.35 608.54 683.97 607.93
00001369 00000087 412.76 158.37 362.97 581.59 530.71 410.93 688.46 408.14 634.22 521.45 560.23 608.82 690.18 606.14
00001370 00000088 417.13 158.34 358.88 582.62 538.48 415.11 693.80 407.09 645.98 520.89 570.63 610.74 698.34 603.60
00001371 00000089 419.75 162.49 357.48 578.51 543.56 419.25 702.35 405.81 658.39 521.90 578.39 612.54 708.51 600.88
00001372 00000090 424.93 166.93 355.02 574.38 549.21 422.52 709.15 406.63 666.53 522.57 584.01 610.44 718.49 597.20
00001373 00000091 430.23 170.13 353.23 567.04 556.64 424.65 714.05 409.95 671.59 524.80 589.28 609.42 721.52 597.12
00001374 00000092 431.93 171.54 353.34 567.10 557.07 427.37 715.96 413.40 672.13 527.95 588.81 610.99 723.67 599.22
00001375 00000093 429.83 172.48 356.12 569.50 554.14 429.76 715.31 418.26 666.99 534.35 583.39 614.89 719.31 604.99
00001376 00000094 427.36 176.18 357.45 564.41 550.23 430.26 712.25 422.96 659.72 537.06 579.65 616.30 711.88 610.02
00001377 00000095 424.85 176.79 361.50 565.18 546.28 430.07 709.42 429.32 650.63 537.85 570.33 615.78 702.18 614.93
00001378 00000096 421.66 178.39 364.82 569.11 542.58 432.81 703.61 437.99 640.43 541.81 561.09 614.46 692.50 618.55
00001379 DELETE   417.25 176.85 369.60 575.76 530.74 434.74 698.97 443.77 626.79 543.61 549.68 615.56 687.71 622.43
00001380 00000098 411.37 178.40 374.61 580.78 518.53 429.52 692.06 439.56 614.16 543.21 534.81 618.21 677.97 626.66
00001381 00000099 408.75 179.57 374.88 581.14 513.89 423.22 682.66 440.70 601.27 542.86 523.79 614.03 663.59 629.11
00001382 00000100 407.41 181.91 372.71 573.45 509.72 420.48 677.29 440.95 593.13 542.75 518.25 614.36 654.26 631.93
00001383 00000101 406.52 180.25 372.89 574.51 505.92 420.27 674.20 442.03 586.71 542.31 512.73 615.00 647.04 633.93
00001384 00000102 406.20 181.24 372.41 574.76 504.31 420.11 672.14 442.70 583.45 543.55 510.83 616.47 643.83 636.15
00001385 00000103 406.32 180.93 373.93 577.17 504.76 419.94 673.61 443.00 584.20 543.63 511.03 618.06 643.92 638.23
00001386 00000104 408.56 181.96 373.99 576.60 509.41 419.98 675.93 443.46 589.34 543.65 516.26 618.04 647.01 638.52
00001387 00000105 409.44 183.37 374.28 573.97 514.65 421.31 681.43 443.43 599.03 545.09 523.38 618.42 654.16 637.50
00001388 00000106 411.42 182.40 375.20 576.67 519.04 423.23 687.60 440.19 608.01 546.64 531.50 620.26 664.19 634.96
00001389 00000107 412.97 180.91 376.52 579.09 524.48 424.61 693.88 438.73 618.34 547.39 540.08 622.34 674.01 634.29
00001390 00000108 417.03 181.42 374.88 583.03 531.96 424.75 701.23 437.65 629.09 547.20 549.74 623.73 684.89 634.46
00001391 00000109 420.69 183.58 370.46 580.12 542.16 426.98 706.73 436.47 640.39 548.90 558.54 624.50 691.81 632.39
00001392 00000110 424.40 186.19 365.72 574.32 548.73 429.74 712.57 436.28 648.02 550.83 565.20 625.83 696.16 631.54
00001393 00000111 427.12 188.06 364.06 574.36 550.52 432.16 715.61 437.55 651.42 553.73 567.89 627.48 700.41 632.19
00001394 00000112 429.20 190.51 362.69 573.05 551.88 433.59 717.45 437.69 653.78 555.23 571.80 629.10 704.36 632.60
00001395 00000113 428.56 191.52 363.22 571.31 551.31 434.33 718.03 437.71 654.33 555.66 571.98 628.88 705.78 631.82
00001396 00000114 427.91 190.80 362.91 570.13 550.04 434.84 717.20 437.28 653.79 555.29 571.88 628.75 705.55 630.95
00001397 00000115 425.29 190.53 363.44 571.05 547.61 434.66 713.79 436.99 651.31 554.73 569.66 628.43 703.28 630.52
00001398 00000116 419.91 193.63 366.71 568.60 541.42 433.42 706.60 436.64 643.86 553.42 564.43 627.42 697.20 630.38
00001399 00000117 411.45 192.46 374.18 569.19 524.11 433.16 695.40 438.39 625.30 554.68 549.09 625.63 687.49 630.15
00001400 00000118 407.41 187.42 371.46 573.15 511.57 430.04 679.69 443.40 602.43 553.67 529.34 623.03 665.18 634.69
00001401 00000119 396.32 190.19 368.74 572.77 496.25 431.11 660.58 439.85 576.73 559.68 514.67 629.67 644.20 637.48
00001402 00000120 391.36 188.72 369.13 565.13 485.16 431.21 651.63 437.69 563.05 554.05 505.85 624.86 638.56 630.97
00001403 00000121 388.41 183.44 368.07 561.66 479.68 424.38 643.67 426.94 556.86 544.63 505.33 620.78 632.82 623.88
00001404 00000122 387.04 171.75 370.44 574.87 476.84 419.71 639.96 420.14 552.54 538.35 505.14 620.92 631.45 622.15
00001405 00000123 385.36 164.38 370.62 585.39 478.58 414.15 638.41 415.20 553.74 533.83 506.15 620.27 627.34 621.64
00001406 00000124 384.39 160.17 371.22 587.58 478.57 409.63 638.31 411.45 554.60 529.41 503.38 615.52 626.08 617.70
00001407 00000125 384.59 160.67 369.19 583.85 477.82 408.41 635.95 410.92 551.76 526.76 500.46 612.66 621.99 615.64
00001408 00000126 383.49 162.60 369.52 578.51 474.96 408.07 632.34 411.40 547.26 526.83 496.98 610.35 617.91 614.14
00001409 00000127 381.67 163.93 370.52 574.20 471.77 408.48 630.43 413.03 544.13 526.94 492.63 608.70 615.52 613.54
00001410 00000128 380.70 166.14 371.15 569.34 469.68 410.76 629.42 415.76 542.04 528.40 490.36 609.19 614.00 614.53
00001411 00000129 380.14 167.06 369.34 568.09 468.62 412.25 628.73 418.35 540.52 530.09 487.47 608.71 612.97 614.95
00001412 00000130 380.23 170.39 368.37 562.42 466.06 413.60 627.60 420.10 537.00 532.85 484.50 609.39 611.25 616.25
00001413 00000131 381.00 172.06 367.36 561.36 465.82 414.66 627.41 422.34 535.52 533.62 483.40 610.12 609.81 618.03
00001414 00000132 382.08 175.00 366.10 560.29 466.69 415.35 627.55 424.23 534.86 534.40 482.90 609.79 609.16 618.78
00001415 00000133 384.71 175.49 364.48 564.03 469.14 417.13 628.07 427.00 534.69 536.07 484.26 612.06 608.24 621.84
00001416 00000134 387.62 178.62 362.94 561.83 469.79 418.56 630.15 429.37 534.54 539.36 484.38 613.01 608.95 623.58
00001417 00000135 389.17 179.82 362.93 560.15 470.24 420.46 631.67 431.57 535.42 542.34 484.88 613.39 610.65 624.05
00001418 00000136 390.80 180.50 361.58 560.60 471.31 422.44 632.65 433.95 536.02 544.45 485.62 614.55 611.51 625.55
00001419 00000137 392.11 182.07 362.31 561.34 473.43 421.99 634.97 433.56 538.09 545.40 487.18 615.02 613.76 626.12
CROP_BBOX: 48 0 1057 996
