Video ID: 	AnW9Zmyb74A
H: 	1080
W: 	1920
FPS: 	25.0

FRAME INDEX X0 Y0 W H [Landmarks (5 Points)]

00000489 00000000 615.68 138.95 365.87 561.05 738.89 386.58 921.42 373.44 861.61 479.25 769.56 593.78 906.71 583.16
00000490 00000001 613.43 140.43 363.76 563.11 733.46 390.30 913.75 377.62 854.91 483.95 766.08 595.25 901.80 586.04
00000491 00000002 612.28 142.43 363.65 561.92 732.15 394.26 904.91 384.05 848.23 489.55 766.22 597.28 891.62 590.80
00000492 00000003 609.56 143.29 367.32 561.53 726.37 390.93 901.93 382.39 842.45 492.32 762.62 599.69 888.79 594.48
00000493 00000004 605.36 141.56 374.60 569.56 724.23 388.49 899.07 380.62 841.96 494.81 762.19 600.65 886.36 596.16
00000494 00000005 604.32 142.12 376.48 571.08 723.24 388.73 897.60 381.41 839.10 498.98 760.43 602.15 883.80 598.20
00000495 00000006 604.45 144.74 376.90 571.71 723.97 393.89 896.54 387.48 837.17 503.27 759.38 604.46 881.48 601.33
00000496 DELETE   605.20 147.91 375.37 569.08 724.66 401.00 896.01 395.48 834.63 508.68 757.21 607.10 880.00 604.82
00000497 00000008 602.60 151.82 377.86 566.39 721.64 403.69 893.10 395.72 830.42 514.13 757.69 611.08 878.91 606.50
00000498 00000009 600.25 153.04 379.47 568.46 717.81 410.91 890.24 400.49 825.40 521.47 755.68 616.37 878.60 609.39
00000499 00000010 597.95 154.32 380.66 569.74 715.22 415.73 886.90 404.13 820.50 528.16 754.63 621.06 875.42 612.69
00000500 00000011 589.81 156.17 384.96 570.86 705.50 418.44 878.91 403.69 812.49 533.55 750.41 625.47 871.62 614.14
00000501 00000012 585.06 162.16 387.21 567.35 700.95 421.87 870.87 406.76 805.49 536.99 749.78 626.87 868.48 614.15
00000502 00000013 581.60 167.46 387.07 562.54 696.61 426.54 864.82 410.97 799.85 541.56 748.39 628.90 864.49 615.84
00000503 00000014 579.59 169.87 385.96 560.39 693.40 429.35 861.63 413.57 795.70 544.17 747.28 630.63 862.59 617.61
00000504 00000015 578.44 171.19 386.21 558.65 691.50 430.04 860.91 416.43 793.08 544.57 744.09 630.09 861.04 618.68
00000505 00000016 577.91 172.62 386.85 557.03 690.66 430.48 860.88 417.52 792.00 546.14 742.94 630.47 860.15 619.57
00000506 00000017 579.26 172.32 386.75 557.79 692.42 429.23 862.53 417.06 793.64 547.38 744.37 630.97 860.45 620.69
00000507 00000018 579.92 172.76 387.94 556.78 693.34 429.16 863.72 415.49 795.39 547.37 746.94 631.42 863.06 619.80
00000508 00000019 580.91 171.50 389.25 558.34 695.08 428.21 865.85 415.28 797.63 547.64 748.52 631.99 865.38 620.86
00000509 00000020 582.93 171.33 388.96 558.85 697.12 428.52 868.46 415.82 800.39 548.06 749.29 632.51 866.97 621.66
00000510 00000021 584.39 169.95 390.43 560.50 698.72 428.67 871.58 415.28 803.04 548.77 750.37 633.44 869.35 622.10
00000511 00000022 587.39 167.52 391.36 562.54 701.07 429.17 874.51 416.32 805.07 549.09 751.38 634.05 871.64 623.14
00000512 00000023 589.78 165.74 393.35 563.14 703.96 426.97 879.87 415.68 808.63 551.17 752.54 634.26 873.90 624.55
00000513 00000024 591.85 165.39 393.51 563.44 706.28 427.58 882.53 416.14 812.16 552.65 753.96 635.17 875.65 625.36
00000514 00000025 594.18 165.03 392.95 564.16 707.96 429.09 884.75 417.33 814.04 553.52 755.06 636.50 877.70 626.50
00000515 00000026 598.04 166.19 392.29 562.29 709.37 430.35 889.16 417.35 815.86 554.77 755.56 637.62 882.32 626.50
00000516 00000027 601.13 166.21 391.40 560.65 711.08 432.02 892.67 418.24 817.84 556.48 755.86 637.87 885.40 626.11
00000517 00000028 603.41 166.30 390.36 559.98 713.35 432.57 895.82 419.74 819.83 556.50 756.64 637.77 887.21 626.79
00000518 00000029 603.87 167.85 391.32 557.93 715.89 431.43 899.47 418.73 823.16 555.88 758.22 636.77 889.54 625.85
00000519 00000030 613.37 176.03 382.83 546.84 728.76 424.25 906.46 418.83 834.99 542.90 761.11 624.39 895.43 620.95
00000520 00000031 614.58 175.24 382.88 546.93 731.05 425.43 908.73 420.08 837.21 541.63 763.13 622.88 899.21 619.35
00000521 00000032 616.37 173.94 381.55 544.10 733.44 428.54 911.97 426.29 837.26 538.34 762.98 620.03 899.51 618.81
00000522 00000033 617.94 173.36 379.85 545.28 734.17 430.11 911.85 427.42 837.33 537.43 763.03 618.48 899.42 616.97
00000523 00000034 617.78 173.53 378.83 543.71 735.21 430.00 912.76 426.83 838.86 537.13 763.25 617.37 900.61 615.60
00000524 00000035 618.03 173.21 377.71 543.39 736.56 429.32 913.51 425.82 841.27 536.64 764.38 616.73 901.72 614.68
00000525 00000036 618.43 169.48 376.25 546.83 737.08 427.73 913.24 423.57 843.15 535.79 765.03 615.61 902.38 612.98
00000526 00000037 617.08 166.02 373.97 550.64 737.57 422.98 911.95 419.10 845.95 531.41 765.92 616.90 901.70 614.46
00000527 00000038 616.06 160.09 373.93 556.67 733.33 423.79 911.94 412.53 844.54 533.66 771.07 623.91 902.86 614.47
00000528 00000039 617.13 156.53 373.34 556.62 739.99 413.70 922.34 399.82 858.37 521.25 777.32 615.57 914.86 604.05
00000529 00000040 620.03 152.57 367.34 555.37 744.71 397.51 923.86 379.68 867.94 492.63 782.48 602.64 919.43 588.53
00000530 00000041 622.93 145.58 362.59 550.18 752.52 384.38 928.29 357.48 887.10 474.92 791.50 588.12 929.90 567.63
00000531 00000042 621.30 134.25 363.21 549.19 753.61 371.28 925.15 341.62 891.32 453.21 800.34 576.13 933.45 552.51
00000532 00000043 619.20 126.10 362.81 555.50 755.69 363.43 920.76 333.93 894.88 443.17 805.20 569.26 935.76 545.68
00000533 00000044 614.15 124.78 361.01 559.46 754.29 360.91 914.36 332.79 895.56 436.71 808.69 567.50 934.68 545.07
00000534 00000045 608.53 125.94 361.37 558.03 748.07 363.11 909.28 332.46 892.28 438.32 806.50 569.99 931.30 545.38
00000535 00000046 601.76 125.03 367.03 559.25 740.67 367.82 907.13 335.36 885.20 442.41 808.66 573.39 938.26 544.58
00000536 00000047 596.14 128.88 368.12 553.28 733.41 374.18 899.27 337.14 876.52 445.74 801.38 574.62 931.12 542.37
00000537 00000048 593.94 128.55 367.83 548.93 727.86 376.79 896.10 336.97 869.86 450.43 797.33 576.42 926.01 542.04
00000538 00000049 591.86 128.01 365.05 548.65 723.66 375.98 892.59 336.46 863.95 451.27 789.48 574.98 919.04 541.29
00000539 00000050 589.90 128.31 363.78 548.47 722.47 384.47 886.45 342.14 857.81 451.74 784.23 574.25 913.41 538.55
00000540 00000051 586.86 127.23 363.93 552.71 717.28 389.74 880.85 351.80 847.92 454.01 775.24 573.99 907.75 541.99
00000541 00000052 578.42 133.34 366.62 546.69 705.87 394.09 871.75 355.29 832.90 465.94 764.20 576.32 896.89 543.62
00000542 00000053 570.66 138.75 370.89 540.99 698.83 394.24 866.12 357.03 823.62 479.27 758.02 579.08 886.67 547.89
00000543 00000054 568.07 137.40 373.76 546.63 692.78 395.01 862.58 358.85 814.85 484.67 754.39 585.25 881.86 554.97
00000544 00000055 567.32 138.07 374.38 558.13 688.50 393.55 858.94 362.49 807.30 487.36 748.00 588.77 876.32 563.09
00000545 00000056 575.19 142.58 370.46 559.80 684.44 382.97 850.05 355.45 800.40 482.30 744.35 592.92 861.69 571.62
00000546 00000057 565.64 138.26 375.40 559.72 680.09 389.98 850.58 367.28 791.03 489.05 738.07 589.67 860.85 571.90
00000547 00000058 564.16 139.03 377.69 559.68 675.67 388.69 847.04 368.62 785.40 489.51 732.82 590.78 853.11 575.51
00000548 00000059 570.94 139.35 374.73 567.80 671.45 385.54 839.39 366.33 780.90 490.56 727.67 597.32 841.61 583.11
00000549 00000060 570.83 139.62 376.48 571.53 670.19 386.22 838.38 369.25 777.55 491.75 725.22 599.29 839.50 586.38
00000550 00000061 570.96 140.85 376.75 571.36 671.84 384.63 841.03 370.56 778.46 494.35 725.51 600.88 839.66 590.47
00000551 00000062 567.36 140.91 379.89 559.34 673.64 389.17 847.75 374.70 778.68 497.32 728.03 596.40 849.05 585.65
00000552 00000063 570.02 142.29 379.35 556.93 676.99 390.45 851.28 375.80 781.85 499.64 731.00 598.36 851.39 587.38
00000553 00000064 572.34 141.97 379.00 556.71 680.85 392.23 854.68 377.24 784.83 500.70 734.16 599.10 855.50 587.65
00000554 00000065 574.55 142.23 380.80 562.33 684.44 393.57 858.92 378.86 788.90 504.53 738.61 601.17 860.70 589.82
00000555 00000066 577.16 144.80 382.10 563.25 687.80 394.37 860.52 378.92 791.20 506.35 743.59 603.26 862.11 591.49
00000556 00000067 584.31 146.85 380.02 560.97 686.88 392.99 860.27 378.22 793.54 510.23 744.68 606.98 861.57 594.12
00000557 00000068 580.95 145.82 379.04 561.48 690.68 395.69 862.42 378.44 794.04 506.57 745.34 602.63 865.45 589.22
00000558 00000069 579.82 145.09 378.11 547.57 690.22 395.71 864.37 375.25 795.95 505.26 748.57 601.61 868.74 585.38
00000559 00000070 579.97 144.89 377.83 555.64 690.77 395.38 861.79 376.60 794.94 503.96 744.28 597.95 864.71 583.50
00000560 00000071 579.16 146.24 378.17 556.70 690.47 396.31 860.72 377.79 794.24 504.36 743.57 598.52 863.80 584.25
00000561 00000072 582.61 150.07 376.64 560.46 686.33 396.39 856.06 380.39 791.71 508.75 736.85 605.95 855.52 593.14
00000562 00000073 577.41 155.17 379.26 561.34 682.39 401.23 849.97 384.80 785.72 517.21 733.66 609.78 849.79 596.68
00000563 00000074 569.53 159.30 380.08 563.24 676.70 405.57 843.94 394.82 774.89 529.01 721.31 609.57 840.48 600.83
00000564 DELETE   566.13 170.18 381.13 559.12 670.66 424.93 837.10 421.62 761.81 542.91 709.83 612.46 835.58 609.95
00000565 DELETE   562.66 186.65 379.86 550.38 658.33 436.30 827.60 439.20 742.02 556.90 695.13 617.51 825.19 619.59
00000566 DELETE   559.27 198.05 381.62 553.98 648.45 448.33 819.44 452.31 729.97 574.33 684.28 628.68 819.77 632.04
00000567 00000078 558.14 215.32 375.66 532.48 640.93 454.02 813.80 460.40 720.82 586.95 674.55 635.22 807.89 640.77
00000568 00000079 557.88 225.04 375.07 525.75 638.90 460.18 811.93 468.20 718.35 598.18 673.37 643.49 803.01 650.56
00000569 00000080 561.30 233.77 375.02 525.10 639.33 465.29 814.62 474.63 717.48 608.26 676.09 659.95 800.77 668.20
00000570 00000081 564.32 241.80 376.83 512.34 647.11 471.63 816.55 484.22 722.36 617.58 673.29 663.04 802.61 672.10
00000571 00000082 568.03 244.54 376.52 500.71 651.44 475.10 817.84 486.67 725.21 613.76 673.25 660.23 805.54 668.17
00000572 00000083 574.42 246.15 370.44 502.30 657.65 481.08 822.70 494.78 727.78 614.45 677.04 657.43 807.65 667.52
00000573 DELETE   576.53 244.85 372.12 507.08 660.38 480.28 824.04 497.06 727.89 614.49 677.83 659.69 806.08 672.47
00000574 00000085 576.19 242.60 377.12 523.36 659.29 474.95 826.02 490.90 728.85 612.77 679.31 660.45 812.34 672.84
00000575 00000086 578.23 239.39 377.06 525.63 660.24 470.45 827.25 485.77 728.94 609.43 678.85 659.51 812.52 671.40
00000576 00000087 580.79 233.82 374.57 528.01 665.02 466.29 831.86 483.64 734.22 608.27 679.24 662.80 808.83 676.38
00000577 00000088 584.48 234.37 375.88 529.70 669.26 458.28 835.19 476.19 736.70 602.02 688.18 661.35 799.46 678.32
00000578 00000089 583.98 227.12 379.57 534.58 673.92 454.53 842.73 471.98 745.33 597.06 696.72 656.63 813.76 672.67
00000579 00000090 590.30 218.12 375.95 542.21 682.17 452.56 849.02 466.79 757.24 590.08 708.19 654.13 824.05 667.09
00000580 00000091 593.54 215.33 378.48 539.81 689.60 453.62 855.97 461.56 768.32 587.09 720.43 651.80 835.15 659.42
00000581 00000092 599.84 206.73 382.41 537.21 699.17 450.81 868.86 452.03 784.48 583.53 735.89 648.44 848.90 649.95
00000582 00000093 611.99 200.62 380.82 536.46 712.38 449.46 878.16 443.45 798.18 581.44 754.12 645.29 864.96 640.32
00000583 00000094 627.39 195.43 375.63 540.16 730.31 436.88 903.03 437.65 820.96 566.51 763.32 633.98 883.40 635.92
00000584 00000095 632.24 191.57 377.69 535.27 739.45 430.15 913.95 430.23 833.53 562.85 776.49 630.30 895.63 630.93
00000585 00000096 638.76 184.22 382.27 542.05 750.86 427.42 924.74 426.01 847.93 560.26 789.51 629.52 909.98 628.38
00000586 00000097 645.97 183.42 380.25 542.80 762.81 424.92 934.81 419.12 863.34 556.55 804.73 628.00 921.66 623.31
00000587 00000098 652.70 177.33 382.73 546.96 771.08 422.32 944.33 414.62 874.82 553.81 815.59 628.77 932.71 622.42
00000588 00000099 658.40 172.07 384.12 550.42 778.38 420.88 950.89 413.23 883.14 552.08 821.45 628.27 938.38 622.20
00000589 00000100 663.39 169.43 383.71 553.46 783.12 419.43 958.68 412.01 890.56 551.00 823.37 629.04 944.20 623.27
00000590 00000101 665.19 166.76 383.87 556.68 786.02 419.13 962.64 410.24 895.51 549.95 826.34 628.92 948.77 621.85
00000591 00000102 665.37 164.43 384.31 558.71 788.35 418.28 964.57 408.40 899.24 549.19 828.47 628.70 950.97 620.81
00000592 00000103 664.52 162.78 383.75 560.70 789.00 418.54 964.49 407.28 900.87 549.38 830.03 629.28 952.13 620.17
00000593 00000104 662.66 165.09 383.69 558.42 788.05 419.57 964.16 406.78 901.52 550.02 831.33 630.21 953.08 619.79
00000594 00000105 659.97 165.10 382.21 559.08 785.73 422.39 961.05 408.15 899.72 549.72 830.99 631.51 952.52 619.73
00000595 00000106 657.64 166.63 379.69 557.37 785.30 431.17 957.52 416.56 897.53 550.40 829.45 632.56 950.87 620.14
00000596 00000107 655.82 168.46 376.56 555.23 783.03 434.41 953.54 418.16 893.73 549.48 826.28 631.15 947.37 617.60
00000597 00000108 652.69 170.02 376.91 554.12 780.05 433.33 950.25 415.10 891.67 551.48 827.55 633.24 946.06 618.00
00000598 00000109 647.18 170.59 376.89 553.56 775.45 432.30 948.03 411.64 891.47 551.14 827.32 635.32 946.34 618.08
00000599 00000110 644.01 170.86 377.53 556.94 771.71 432.65 945.04 410.66 888.56 555.02 826.20 638.17 944.88 619.90
00000600 00000111 641.24 174.29 378.46 549.02 767.05 434.86 942.01 412.74 883.85 558.74 823.63 640.55 943.03 621.95
00000601 00000112 638.63 177.76 378.48 545.19 765.59 435.07 940.17 414.87 880.03 559.48 819.65 639.75 938.75 622.81
00000602 00000113 636.72 177.26 377.95 548.16 763.98 433.51 938.32 413.71 878.44 556.65 818.11 639.12 935.36 622.75
00000603 00000114 634.81 174.62 378.32 553.56 763.13 429.01 937.74 410.35 878.65 553.77 817.07 636.59 933.62 621.09
00000604 00000115 632.63 169.49 380.55 560.87 761.37 423.81 936.26 405.54 878.88 548.28 816.25 633.66 932.54 618.35
00000605 00000116 630.54 165.10 382.00 567.80 763.39 419.99 934.65 402.96 879.79 543.13 815.90 631.69 928.54 617.55
00000606 00000117 632.81 164.43 379.78 569.83 765.50 423.66 933.69 407.49 879.84 541.50 815.98 632.02 926.82 619.11
00000607 00000118 636.57 166.40 379.06 566.64 767.52 431.56 935.34 416.94 878.11 541.95 813.12 631.69 926.38 620.65
00000608 DELETE   636.48 166.25 379.23 567.30 764.86 428.77 934.12 415.03 875.19 542.38 811.69 628.14 926.97 617.82
00000609 00000120 637.60 167.05 378.09 564.62 764.74 424.37 934.10 409.84 875.95 542.17 813.07 627.44 927.78 616.10
00000610 00000121 638.44 163.51 379.25 565.20 765.41 418.77 934.31 405.15 876.53 539.54 814.28 624.60 928.36 613.14
00000611 00000122 641.58 159.25 379.95 567.61 766.05 415.29 936.84 401.81 878.20 536.78 816.26 625.02 931.05 613.28
00000612 00000123 643.84 156.09 381.24 569.95 766.40 412.88 940.78 401.34 880.57 532.33 814.71 622.18 933.82 611.90
00000613 00000124 646.37 153.72 380.22 572.53 769.49 412.16 943.75 400.25 883.48 530.48 816.60 621.02 936.99 610.51
00000614 00000125 649.95 153.92 378.87 570.43 773.03 415.33 946.05 403.18 885.76 531.61 818.05 621.12 938.70 611.01
00000615 00000126 656.12 154.45 374.80 568.05 776.60 418.86 949.73 409.60 886.56 530.91 817.13 619.56 940.21 612.48
00000616 00000127 654.64 154.69 377.11 565.05 778.18 416.47 950.47 405.50 888.34 531.65 818.29 618.39 939.55 610.30
00000617 00000128 653.94 154.19 377.13 565.24 777.58 413.65 948.66 400.84 889.21 531.72 820.53 617.73 941.06 607.72
00000618 00000129 655.04 154.22 375.68 564.02 779.15 412.36 947.61 400.72 889.76 531.17 822.53 616.62 940.92 607.29
00000619 00000130 656.02 153.49 375.05 564.82 779.34 411.62 947.45 399.20 889.96 530.71 823.16 616.62 940.90 607.00
00000620 00000131 655.69 152.78 375.62 566.24 778.90 410.12 947.14 397.30 889.98 529.97 823.59 616.65 941.19 606.59
00000621 00000132 655.09 152.89 376.24 565.88 777.75 409.37 946.21 396.02 888.67 529.48 823.16 616.50 941.09 605.80
00000622 00000133 654.47 152.61 376.14 566.21 777.29 409.82 944.09 396.03 887.48 529.59 823.32 616.47 939.83 605.48
00000623 00000134 654.21 153.02 376.01 565.37 776.32 412.85 943.11 400.10 884.73 528.63 821.40 616.69 938.08 606.73
00000624 00000135 656.34 153.97 374.65 563.54 777.51 415.32 941.90 403.42 882.95 528.70 820.56 615.69 936.16 606.98
00000625 00000136 653.37 153.12 377.42 566.42 774.15 412.65 940.20 399.53 881.79 528.69 819.72 617.30 934.52 607.41
00000626 00000137 650.76 154.75 379.43 564.84 772.28 410.03 938.09 397.24 880.20 527.36 819.22 615.74 933.29 605.47
00000627 00000138 649.06 153.71 380.65 564.80 767.77 407.10 935.26 396.34 874.72 527.74 815.67 615.05 929.75 606.11
00000628 00000139 647.47 154.66 382.20 564.03 766.25 406.46 933.60 396.09 871.99 529.25 813.49 615.02 925.66 606.52
00000629 00000140 646.02 154.38 383.90 562.91 763.66 405.65 931.48 395.75 868.04 530.19 810.19 615.29 921.65 607.43
00000630 00000141 644.41 154.21 385.18 562.90 761.75 402.53 930.38 394.68 864.95 527.92 805.95 612.52 918.96 606.04
00000631 00000142 644.30 154.27 385.43 562.66 760.63 401.02 929.22 393.82 863.23 526.41 804.70 611.51 918.06 605.55
00000632 00000143 644.32 153.73 385.88 564.88 760.63 400.64 928.53 393.09 862.76 525.01 802.22 608.10 918.93 601.76
00000633 00000144 644.02 152.73 386.29 569.18 761.19 399.80 928.98 392.51 863.52 525.17 801.41 606.91 919.58 600.69
00000634 00000145 644.19 153.98 385.02 562.96 761.02 400.04 929.05 392.48 863.09 525.32 801.14 605.92 919.00 599.56
00000635 00000146 644.46 154.11 383.81 558.01 760.24 400.01 928.92 391.87 862.75 525.17 801.81 605.44 919.31 598.60
00000636 00000147 642.85 154.28 384.51 558.35 759.47 400.12 927.96 391.90 862.15 524.36 802.33 605.66 918.55 598.77
00000637 00000148 641.48 154.05 385.22 557.90 758.07 399.74 927.06 392.10 861.11 523.73 800.89 606.49 916.94 600.15
00000638 00000149 639.80 154.05 385.72 557.11 756.43 399.76 925.47 392.03 859.62 523.66 800.10 607.40 915.64 600.80
00000639 00000150 638.22 153.62 385.77 557.76 753.52 400.05 923.40 392.95 856.47 524.69 798.18 607.64 914.11 601.42
00000640 00000151 636.67 153.16 384.92 556.74 751.78 400.88 922.16 393.16 854.68 527.77 797.15 608.53 913.07 601.61
00000641 00000152 634.77 152.67 386.94 555.15 750.57 402.82 922.69 393.75 850.15 527.09 796.75 602.43 916.08 595.99
00000642 00000153 631.93 150.76 389.03 558.10 747.33 400.72 921.74 393.35 847.93 523.73 791.88 601.34 914.34 596.18
00000643 00000154 630.83 149.72 389.85 558.58 745.36 399.32 922.07 393.69 846.53 522.63 787.04 601.42 911.13 597.77
00000644 00000155 630.85 150.24 388.77 563.29 744.68 401.39 917.53 396.83 848.21 527.38 786.80 614.63 906.27 610.39
00000645 DELETE   631.90 154.28 386.32 563.07 747.55 413.09 915.65 411.06 847.04 532.00 788.07 616.93 904.13 615.49
00000646 DELETE   631.98 160.49 387.30 556.21 747.42 419.13 917.40 419.17 846.50 535.59 786.12 619.89 905.42 619.95
00000647 00000158 630.20 162.12 387.57 554.44 745.89 416.98 918.00 415.51 847.88 537.82 786.48 623.07 905.90 621.73
00000648 00000159 628.36 164.35 389.89 552.77 745.73 415.96 917.92 411.99 848.64 539.11 789.02 625.37 905.52 621.91
00000649 00000160 627.34 163.39 391.19 557.95 744.79 415.58 917.28 410.94 847.74 539.20 787.57 625.24 904.45 621.48
00000650 00000161 625.64 165.35 390.89 556.77 743.78 415.62 915.83 409.76 846.29 539.02 787.22 625.20 903.46 620.67
00000651 00000162 624.91 164.86 390.35 557.02 742.41 414.60 915.16 409.00 844.92 539.26 785.53 623.92 903.23 619.68
00000652 00000163 624.02 164.03 389.51 557.26 741.23 414.07 913.96 408.33 843.99 538.75 783.73 623.55 902.38 619.19
00000653 00000164 623.94 162.63 389.28 557.95 740.15 413.03 913.75 408.23 842.57 538.58 781.46 622.16 901.48 618.53
00000654 00000165 623.86 162.08 389.09 557.41 739.97 411.65 913.27 407.29 842.18 537.92 781.05 621.07 900.47 617.83
00000655 00000166 624.03 161.19 388.22 557.46 740.15 410.52 913.67 406.24 842.79 537.68 780.94 619.98 900.42 616.80
00000656 00000167 624.34 159.83 388.85 556.95 740.23 409.37 914.90 405.42 843.32 536.53 780.24 618.21 901.23 615.17
00000657 00000168 624.39 160.11 389.13 554.56 740.86 409.49 915.26 405.32 844.10 535.27 780.68 617.90 901.74 614.63
00000658 00000169 624.77 160.10 388.84 553.40 741.25 410.43 916.71 405.52 845.63 534.79 781.08 617.25 903.93 613.28
00000659 00000170 625.59 159.97 388.09 551.28 742.29 410.92 917.94 406.15 847.05 534.76 782.19 617.20 904.90 613.25
