Video ID: 	SFxsaZyI3LM
H: 	1080
W: 	1920
FPS: 	25.0

FRAME INDEX X0 Y0 W H [Landmarks (5 Points)]

00029345 00000000 688.19 163.05 406.04 602.40 779.69 416.72 947.05 479.92 810.00 558.53 743.64 610.95 880.10 661.59
00029346 00000001 687.48 163.23 401.82 599.49 776.61 414.73 943.10 476.42 805.05 559.25 742.19 610.99 872.38 660.92
00029347 00000002 684.53 160.60 398.69 597.79 774.15 415.87 940.69 476.98 804.36 558.42 739.78 611.77 867.35 661.21
00029348 00000003 680.54 163.67 400.16 594.84 772.56 418.16 939.66 481.05 804.05 561.31 736.12 610.67 866.24 661.32
00029349 00000004 678.51 163.34 401.32 596.28 772.73 428.29 941.50 482.17 812.83 565.96 745.01 615.31 880.03 658.46
00029350 00000005 683.42 164.61 402.24 600.51 778.98 432.21 951.81 479.38 829.82 568.94 756.99 623.40 895.59 661.81
00029351 DELETE   688.70 166.07 404.36 605.83 791.48 432.04 971.89 474.53 856.76 565.37 770.70 631.62 908.72 668.14
00029352 DELETE   693.94 165.08 407.27 610.09 806.59 430.64 988.16 462.51 885.71 563.33 794.85 635.82 934.42 663.87
00029353 DELETE   696.77 158.29 407.60 616.60 824.61 426.39 1005.04 448.77 916.72 559.32 821.69 635.88 960.00 655.91
00029354 00000009 700.54 153.20 404.32 605.87 838.01 423.05 1011.29 439.08 937.86 551.03 850.40 632.91 977.67 646.82
00029355 00000010 704.80 147.70 401.30 613.78 851.74 416.76 1016.15 427.94 953.62 542.37 867.21 630.90 985.14 640.23
00029356 00000011 706.70 144.63 400.58 612.90 858.96 412.98 1019.97 421.11 964.12 535.99 877.73 625.72 995.04 631.75
00029357 00000012 706.53 141.49 402.27 611.42 858.84 407.28 1022.70 415.66 967.48 530.53 878.02 620.02 999.49 625.90
00029358 00000013 707.53 138.87 401.33 610.68 858.41 402.49 1023.98 412.57 968.83 524.12 876.90 613.32 1003.67 620.43
00029359 00000014 709.53 139.44 399.37 612.92 860.47 400.68 1024.77 410.49 971.62 519.92 877.04 611.70 1005.07 619.09
00029360 00000015 711.70 136.27 399.42 617.84 862.40 399.49 1024.95 411.29 973.47 516.80 877.60 608.59 1007.42 617.46
00029361 00000016 708.82 137.25 403.20 620.71 861.24 396.71 1023.58 409.18 971.66 515.13 870.93 604.65 1006.21 614.27
00029362 00000017 708.35 132.55 402.51 626.12 859.79 391.88 1022.19 405.96 968.43 510.86 865.56 601.19 1002.52 611.73
00029363 00000018 704.19 126.64 403.89 627.41 843.19 389.68 1018.71 402.77 957.85 508.83 852.44 595.90 1005.12 605.88
00029364 00000019 700.33 121.75 403.64 606.05 833.74 387.74 1020.92 401.88 941.58 503.76 836.43 578.49 998.02 590.10
00029365 00000020 699.41 117.50 401.18 606.34 828.68 377.60 1016.41 393.28 934.02 494.00 832.32 572.16 993.28 585.14
00029366 00000021 698.98 116.94 397.46 602.47 825.76 373.29 1011.11 390.76 927.73 487.97 829.33 568.19 985.98 582.97
00029367 00000022 699.65 118.47 396.22 590.10 825.00 372.23 1014.55 387.13 928.07 487.80 828.75 567.57 988.41 580.30
00029368 00000023 698.67 117.41 396.94 589.66 824.24 369.59 1015.95 384.29 927.43 487.02 826.07 564.65 989.99 577.25
00029369 00000024 696.74 115.48 398.12 594.38 822.04 366.51 1013.79 381.41 924.62 485.23 823.19 563.78 987.77 576.66
00029370 00000025 695.83 116.29 397.78 598.73 822.17 365.61 1006.77 381.62 921.72 482.21 822.61 562.11 980.28 576.31
00029371 00000026 695.15 117.34 394.21 589.49 820.04 371.77 1001.15 386.38 917.40 483.70 818.89 561.61 976.07 574.84
00029372 00000027 690.88 115.35 396.71 595.20 812.89 371.36 995.67 389.72 907.45 485.51 809.01 560.68 969.23 576.96
00029373 00000028 689.51 117.65 397.27 599.12 808.58 373.17 990.09 396.47 897.42 492.08 800.77 565.22 953.57 586.46
00029374 00000029 691.69 119.63 392.90 600.06 805.17 374.76 982.24 400.40 888.40 498.38 802.33 575.56 939.93 599.09
00029375 00000030 690.91 120.44 394.93 608.68 802.29 376.82 981.92 401.44 887.37 500.64 802.21 582.29 941.54 604.76
00029376 00000031 688.75 120.28 399.08 612.02 802.54 375.66 983.90 399.67 888.05 498.55 800.67 578.05 946.78 599.86
00029377 00000032 688.96 116.74 399.83 613.89 803.74 373.26 986.79 397.22 890.48 493.68 799.94 572.97 951.46 594.65
00029378 00000033 689.70 116.83 400.86 606.42 806.48 372.39 991.87 397.84 893.53 494.11 800.40 569.00 954.40 591.77
00029379 00000034 689.63 121.04 401.35 601.86 811.87 376.22 992.48 401.40 897.99 499.84 808.51 574.76 950.13 597.58
00029380 00000035 692.32 126.14 399.55 596.23 814.69 379.69 991.41 403.42 899.86 504.43 816.46 582.10 947.43 603.89
00029381 00000036 692.98 126.75 399.91 597.63 817.25 379.24 991.07 403.01 902.90 504.39 821.77 584.54 948.25 606.29
00029382 00000037 692.75 127.09 401.78 598.69 817.60 379.08 994.90 403.25 905.20 505.03 819.30 584.78 951.04 606.73
00029383 00000038 693.49 127.89 402.25 597.75 818.24 381.39 998.06 404.75 907.74 507.52 819.10 585.77 955.09 606.81
00029384 00000039 691.39 129.26 404.57 601.79 818.39 385.36 1000.29 407.28 909.61 512.04 818.02 587.93 958.24 607.58
00029385 00000040 692.61 128.13 403.31 610.28 818.43 387.89 998.47 409.37 910.24 512.74 819.37 590.78 959.84 609.87
00029386 00000041 694.42 125.65 394.37 619.85 818.90 388.72 993.23 404.11 919.65 512.89 827.83 604.45 964.51 616.60
00029387 00000042 695.99 125.26 393.80 622.55 820.39 388.15 995.98 403.70 921.84 513.98 828.89 605.21 967.07 617.41
00029388 00000043 697.46 127.12 395.10 626.15 822.15 386.67 1003.20 405.64 924.06 515.80 824.47 603.08 974.18 617.89
00029389 00000044 695.76 132.99 407.97 613.36 825.95 390.87 1013.48 414.35 922.48 518.85 818.12 588.63 976.89 608.41
00029390 00000045 695.80 131.66 412.43 610.44 835.07 390.40 1018.42 416.25 932.88 515.58 827.66 586.12 980.73 607.73
00029391 00000046 701.11 134.13 411.69 611.71 841.82 392.96 1024.48 417.97 941.12 517.79 835.75 590.21 989.04 611.09
00029392 00000047 707.14 135.96 403.53 619.78 845.65 392.77 1018.42 415.28 947.30 517.96 851.11 604.15 988.18 621.13
00029393 00000048 706.50 141.04 401.15 612.11 849.97 390.90 1014.89 415.16 945.97 516.67 854.13 605.77 976.39 624.72
00029394 00000049 708.91 137.75 395.42 610.94 851.01 391.40 1006.35 416.48 940.42 514.77 852.44 602.57 966.37 622.50
00029395 00000050 706.26 132.80 395.37 613.56 847.55 385.71 1003.97 414.56 935.14 514.89 847.61 601.68 957.02 624.74
00029396 00000051 703.06 136.43 397.85 613.40 840.66 387.38 1005.10 414.83 929.93 517.01 839.56 605.20 956.20 627.71
00029397 00000052 700.54 142.43 407.45 598.37 835.72 389.50 1012.43 414.86 923.87 517.95 832.61 597.72 963.01 620.14
00029398 00000053 706.49 134.13 396.95 610.90 840.12 387.76 1004.38 414.09 931.56 516.95 842.54 604.26 957.51 625.49
00029399 00000054 707.24 132.32 400.07 612.46 845.51 385.62 1005.44 413.63 936.05 513.17 847.67 602.93 959.65 625.02
00029400 00000055 704.97 136.98 408.34 599.16 846.14 383.16 1016.33 413.78 933.79 513.62 842.49 591.55 967.76 618.03
00029401 00000056 706.65 136.97 408.30 599.63 846.71 388.06 1018.66 415.75 936.57 515.10 845.01 593.51 973.52 617.23
00029402 00000057 707.00 137.00 407.70 600.63 848.04 387.71 1018.77 415.67 937.71 515.39 846.36 593.21 974.44 617.08
00029403 00000058 709.42 129.29 402.66 621.89 851.61 382.14 1011.89 414.39 942.77 508.46 849.55 597.45 969.07 622.35
00029404 00000059 703.58 131.71 410.77 610.10 844.76 379.42 1018.16 410.36 935.16 505.25 838.39 585.91 972.91 612.46
00029405 00000060 702.35 130.35 412.38 614.00 842.46 380.39 1021.58 414.41 933.36 507.77 827.12 580.19 975.95 609.06
00029406 00000061 700.70 130.00 413.43 613.32 839.95 386.18 1025.41 419.15 933.42 514.82 817.30 578.17 980.14 606.14
00029407 00000062 699.59 128.67 411.88 616.45 837.14 385.54 1022.31 418.22 929.37 514.35 815.36 577.79 977.88 605.49
00029408 00000063 698.84 131.26 410.08 612.30 835.45 384.60 1017.05 415.44 926.45 510.76 818.73 577.51 975.05 603.76
00029409 00000064 699.55 132.06 407.85 604.57 835.20 382.38 1013.83 412.21 925.56 507.59 823.24 579.40 969.02 605.28
00029410 00000065 704.46 130.19 399.25 615.46 833.88 383.67 1007.81 411.00 930.89 509.40 830.80 592.01 973.97 613.30
00029411 00000066 703.72 136.61 406.31 606.30 833.06 392.72 1016.01 419.52 924.08 519.28 819.49 586.17 975.58 608.85
00029412 00000067 704.05 139.38 405.93 603.85 832.12 394.59 1018.35 421.52 923.22 521.54 816.31 586.50 977.29 609.13
00029413 00000068 704.98 134.09 399.99 614.76 829.76 392.52 1011.23 419.83 926.45 518.68 821.20 592.34 981.79 614.10
00029414 00000069 704.39 134.75 400.47 622.68 832.79 393.16 1008.98 420.80 926.73 519.47 818.93 592.36 978.27 614.79
00029415 00000070 703.32 137.28 399.41 622.10 835.62 395.01 1008.03 421.21 930.07 520.71 819.73 592.40 976.81 614.21
00029416 00000071 705.57 137.90 399.10 622.35 836.51 396.94 1007.77 424.84 929.43 522.57 821.86 594.87 975.37 617.93
00029417 00000072 705.98 141.25 397.22 614.16 836.87 396.94 1009.64 426.17 927.93 524.46 823.91 598.80 968.26 622.95
00029418 00000073 706.82 142.50 396.30 606.99 834.49 396.41 1009.55 421.95 927.95 524.85 830.07 603.01 968.70 623.79
00029419 00000074 706.91 141.69 398.88 613.59 835.06 396.75 1010.22 422.75 927.52 524.21 829.38 604.41 969.74 625.62
00029420 00000075 705.16 141.25 402.21 616.65 834.05 397.76 1010.32 422.77 926.96 526.66 830.72 608.62 970.09 629.16
00029421 00000076 704.71 140.46 401.79 620.85 834.42 398.09 1009.63 423.86 926.97 526.20 831.02 610.50 968.67 631.72
00029422 00000077 704.43 137.81 402.70 625.05 835.14 395.13 1010.18 421.75 927.89 522.36 830.76 608.53 968.84 630.25
00029423 00000078 705.17 138.68 403.13 625.33 836.86 393.30 1009.47 422.08 926.83 520.72 827.86 606.14 965.71 629.81
00029424 00000079 704.96 136.66 403.54 631.10 836.45 393.91 1009.48 422.91 926.14 522.55 826.75 607.07 967.40 630.81
00029425 00000080 704.95 136.51 405.22 634.36 836.44 395.01 1010.04 423.83 926.01 523.93 826.43 607.37 970.35 630.87
00029426 00000081 705.25 135.04 404.95 636.14 836.75 394.97 1009.89 423.65 926.87 523.26 827.07 606.16 972.36 629.36
00029427 00000082 705.48 134.77 404.47 636.59 836.98 394.27 1009.95 422.96 927.38 522.41 826.95 604.93 973.80 628.07
00029428 00000083 705.84 135.54 404.47 635.00 837.03 393.49 1010.02 422.25 927.11 521.59 826.58 604.35 972.96 627.56
00029429 00000084 705.73 136.31 404.03 633.60 836.43 392.58 1010.02 421.29 926.60 520.94 825.43 603.52 973.04 626.63
00029430 00000085 705.27 135.11 403.83 634.28 836.19 391.45 1009.66 421.13 925.98 519.63 824.02 602.32 971.98 626.21
00029431 00000086 704.27 136.31 405.12 632.52 836.05 391.18 1009.20 421.10 925.92 519.40 823.57 601.30 972.21 625.35
00029432 00000087 704.03 135.42 405.12 633.79 834.34 393.56 1008.57 421.46 924.94 521.92 822.57 603.11 972.31 625.61
00029433 00000088 701.10 134.75 405.23 634.22 831.90 394.52 1007.05 421.83 923.16 523.82 819.24 603.08 971.95 624.97
00029434 00000089 699.78 133.88 403.54 628.24 826.93 393.29 1005.25 417.36 922.61 521.69 816.04 599.36 974.87 618.60
00029435 00000090 696.44 130.96 397.97 621.63 822.32 390.79 1001.46 412.43 921.26 516.97 816.48 592.53 976.21 609.71
00029436 00000091 689.57 129.01 405.15 603.07 817.70 387.31 1001.55 408.15 912.95 510.83 812.58 578.16 967.60 596.61
00029437 00000092 690.24 128.16 401.19 596.36 816.69 381.81 998.48 402.18 910.78 503.09 815.24 574.69 963.27 593.33
00029438 00000093 694.02 128.71 392.44 605.60 819.36 375.90 992.33 393.29 917.86 501.67 823.44 587.18 958.81 601.63
00029439 00000094 694.25 128.43 388.70 611.83 820.11 375.73 991.92 393.12 920.30 500.04 826.76 592.88 957.71 607.41
00029440 00000095 694.34 127.82 387.57 606.40 819.51 374.24 990.53 391.64 918.72 495.41 825.63 586.53 959.89 600.99
00029441 00000096 693.69 121.89 393.41 596.68 817.14 372.90 994.06 393.01 911.78 489.25 822.17 569.93 963.72 588.49
00029442 00000097 693.33 120.45 394.49 588.29 817.72 371.35 999.08 388.63 914.46 489.09 820.90 567.19 970.03 582.86
00029443 00000098 695.07 119.95 394.31 588.76 819.59 372.25 1002.97 390.74 917.17 489.49 822.15 567.76 972.50 584.21
00029444 00000099 695.80 121.58 395.77 592.38 821.09 375.62 1002.21 395.05 916.99 491.82 822.45 568.08 970.86 585.35
00029445 00000100 695.31 125.49 395.86 591.40 821.06 379.14 1001.34 397.59 916.83 495.01 820.99 570.63 969.22 587.49
00029446 00000101 697.01 128.69 393.14 589.38 823.90 381.59 1001.70 397.80 920.83 497.40 821.03 572.40 969.19 587.86
00029447 00000102 697.46 128.24 393.93 595.90 824.27 384.18 1000.22 403.28 920.28 500.45 819.96 573.14 969.09 590.65
00029448 00000103 696.99 127.37 396.26 601.60 823.45 384.12 1002.87 404.29 920.33 504.30 817.03 576.30 969.46 594.43
00029449 00000104 698.95 127.85 392.26 606.69 823.36 382.90 1000.85 403.51 924.40 508.16 822.15 589.59 974.73 605.98
00029450 00000105 700.51 129.85 392.51 609.19 824.68 384.27 1002.36 403.69 925.65 509.40 824.85 592.81 975.66 608.21
00029451 00000106 700.10 128.52 393.53 626.23 826.08 385.24 1000.35 403.44 926.19 509.53 826.11 598.23 972.66 612.74
00029452 00000107 699.15 125.58 393.28 617.30 821.84 383.76 1001.85 403.31 923.77 508.70 823.54 594.61 975.25 609.74
00029453 00000108 697.99 124.27 399.71 599.52 821.70 384.13 1009.18 403.29 917.50 504.11 817.42 576.19 975.14 592.86
00029454 00000109 697.50 123.92 399.07 599.14 822.09 379.51 1007.54 399.17 917.43 496.98 821.35 570.46 976.87 587.47
00029455 00000110 697.36 123.65 400.93 605.58 823.56 382.50 1006.10 401.53 918.20 502.19 821.28 575.31 974.58 592.17
00029456 00000111 698.56 124.72 394.14 623.54 824.88 382.25 998.11 399.84 925.02 508.81 832.11 596.23 969.34 610.08
00029457 00000112 696.65 125.64 392.89 621.61 822.75 386.05 993.73 399.48 923.66 511.20 833.48 602.43 963.50 613.36
00029458 00000113 695.32 126.12 394.41 616.40 819.52 385.27 994.46 400.09 919.79 509.75 827.05 596.43 967.83 608.08
00029459 00000114 691.77 126.21 402.51 603.22 815.14 386.48 1000.49 403.56 911.97 508.28 815.53 581.89 967.95 597.49
00029460 00000115 691.58 127.72 403.94 606.24 816.50 390.17 1001.46 409.22 912.95 513.94 814.09 583.06 969.97 599.91
00029461 00000116 693.81 128.43 394.29 619.23 816.65 393.42 996.14 409.44 918.96 519.20 821.16 599.05 975.77 611.59
00029462 00000117 692.03 129.90 394.78 619.53 814.95 394.80 996.31 409.33 919.54 521.42 819.09 602.85 976.59 614.29
00029463 00000118 690.05 130.70 394.99 615.77 813.08 393.71 996.00 407.46 918.54 519.67 818.51 602.04 976.83 612.80
00029464 00000119 688.39 130.70 402.98 612.10 810.16 395.24 999.74 411.34 911.89 521.46 812.46 592.23 971.98 606.15
00029465 00000120 689.11 131.40 394.87 615.31 812.23 395.04 996.25 408.65 918.89 520.05 817.69 604.20 977.60 615.02
00029466 00000121 688.93 130.81 396.26 622.21 813.64 398.24 994.99 412.36 918.63 522.61 818.29 605.82 975.85 617.04
00029467 00000122 690.13 130.76 392.62 621.77 817.76 399.26 994.11 413.26 921.81 522.78 818.85 605.13 973.17 616.60
00029468 00000123 691.57 130.76 390.01 621.64 820.66 401.07 992.78 413.30 924.61 524.32 822.18 605.06 973.15 615.21
00029469 00000124 691.76 133.32 392.29 620.89 823.99 404.01 997.89 415.04 930.88 523.43 826.60 604.96 979.62 613.75
00029470 00000125 694.75 134.64 401.20 621.97 830.11 407.78 1009.72 417.50 943.30 518.45 835.94 606.82 993.52 614.99
00029471 00000126 700.86 135.42 400.38 622.97 841.04 405.35 1013.73 412.94 954.26 518.74 849.98 606.64 999.31 612.92
00029472 00000127 705.14 132.59 399.47 626.06 853.00 404.39 1019.52 412.29 966.48 520.58 859.35 606.66 1003.79 613.63
00029473 00000128 705.59 135.18 400.57 621.87 858.93 404.13 1024.82 414.31 973.93 520.30 863.18 606.03 1005.97 615.04
00029474 00000129 708.53 134.86 400.57 619.47 860.78 404.68 1028.99 417.39 976.38 520.39 864.45 605.05 1009.88 615.98
00029475 00000130 708.96 137.16 402.10 614.55 861.24 405.48 1034.99 416.59 981.98 520.16 865.75 604.68 1015.49 614.75
00029476 00000131 706.87 138.79 403.35 612.24 862.52 405.30 1035.83 415.66 984.18 520.77 867.20 605.44 1015.01 614.94
00029477 00000132 704.25 136.95 405.29 614.01 862.93 404.14 1035.04 415.86 984.93 520.85 867.80 604.62 1015.19 614.61
00029478 00000133 703.80 134.28 406.79 613.46 862.48 400.86 1037.79 412.19 984.08 519.73 868.47 602.15 1016.22 611.56
00029479 00000134 708.34 133.77 402.03 611.53 865.40 398.94 1035.65 410.21 983.42 516.10 868.89 594.81 1016.65 604.22
00029480 00000135 709.24 133.47 401.88 607.07 869.76 393.04 1034.80 406.66 983.30 509.84 873.26 591.42 1010.92 602.18
00029481 00000136 713.64 133.79 398.65 603.23 874.85 392.91 1033.83 408.00 984.12 511.06 880.23 593.97 1006.63 605.74
00029482 00000137 716.70 135.73 397.00 597.10 877.60 393.25 1035.62 408.50 986.46 512.45 884.28 596.12 1007.52 607.98
00029483 00000138 719.66 135.22 394.66 593.69 877.66 389.95 1036.32 405.32 986.61 509.98 886.96 596.16 1005.62 607.83
00029484 00000139 718.46 129.28 397.64 597.52 874.53 385.11 1038.14 401.55 986.46 503.03 885.17 591.31 1011.03 603.86
00029485 00000140 716.11 124.77 401.80 604.51 872.60 389.19 1044.48 400.03 986.26 502.85 875.34 585.44 1018.67 594.26
00029486 00000141 717.41 125.65 401.33 601.71 874.55 389.83 1044.27 400.33 986.76 501.63 877.88 584.62 1018.78 593.11
00029487 00000142 718.51 128.30 400.45 601.33 876.33 389.89 1043.58 402.78 985.65 503.36 879.01 586.90 1016.68 597.38
00029488 00000143 721.05 131.50 396.13 603.43 877.07 391.06 1036.43 409.60 987.08 508.35 887.54 594.28 1012.17 608.52
00029489 00000144 718.73 138.47 397.14 603.97 880.48 398.05 1034.90 414.01 986.74 515.93 889.94 602.32 1008.16 614.26
00029490 00000145 714.56 137.17 403.34 612.96 878.50 402.77 1039.46 418.35 988.85 521.65 885.63 607.48 1013.23 619.35
00029491 00000146 715.50 139.20 399.94 614.15 874.65 408.03 1041.25 422.15 988.43 530.53 876.87 611.24 1014.32 623.06
00029492 00000147 714.05 141.70 401.39 615.24 873.11 412.00 1042.92 425.73 987.45 535.46 872.12 613.75 1014.79 625.35
00029493 00000148 713.36 138.07 402.10 628.16 877.37 409.32 1038.35 424.62 985.86 532.83 871.51 611.87 1011.40 624.60
00029494 00000149 713.26 132.79 402.01 636.28 876.02 404.59 1036.12 420.34 984.65 527.57 869.12 607.77 1012.18 620.86
00029495 00000150 713.22 133.72 401.80 633.05 875.49 405.66 1036.34 420.61 984.07 529.52 870.62 608.74 1012.12 621.25
00029496 00000151 715.23 140.71 402.22 626.46 878.06 414.68 1040.72 426.00 987.94 539.09 879.42 619.84 1013.66 628.84
00029497 00000152 715.65 143.06 401.04 620.91 882.53 417.01 1041.86 426.18 991.58 539.69 889.59 625.06 1011.31 632.34
00029498 00000153 715.93 144.86 400.31 612.61 885.49 414.32 1039.95 425.42 991.06 536.83 896.76 623.84 1008.41 632.52
00029499 00000154 717.46 143.23 398.32 615.07 886.49 412.69 1038.15 425.77 989.95 536.26 898.72 624.93 1005.85 635.22
00029500 00000155 717.63 144.63 398.48 612.65 885.95 416.16 1038.50 427.46 990.39 538.76 898.50 626.71 1006.65 635.70
00029501 00000156 717.99 144.12 398.96 613.71 888.10 415.84 1040.46 427.19 991.81 540.34 901.67 629.43 1008.38 638.36
00029502 00000157 718.79 144.33 399.31 616.54 889.80 414.89 1041.62 427.22 993.53 539.06 903.28 630.48 1010.00 640.13
00029503 00000158 719.52 145.04 400.40 615.32 889.92 415.33 1043.06 428.27 993.41 540.33 903.00 630.76 1010.77 640.99
00029504 00000159 721.34 144.52 400.41 616.21 889.71 415.83 1045.13 429.10 993.58 541.60 902.12 631.56 1012.50 642.01
00029505 00000160 722.94 145.24 399.33 616.16 892.23 414.84 1046.85 427.93 996.03 542.12 903.84 631.80 1013.33 642.10
00029506 00000161 722.93 145.53 398.91 617.14 893.52 413.31 1047.22 425.75 997.70 542.02 904.25 631.69 1013.51 641.29
00029507 00000162 723.27 144.24 398.91 622.81 892.25 413.76 1049.70 426.77 998.35 543.72 901.01 632.86 1016.24 642.88
00029508 00000163 722.60 144.05 400.72 622.85 888.95 413.75 1050.23 428.11 996.73 544.64 895.01 632.34 1015.02 643.64
00029509 00000164 723.51 143.68 400.89 625.62 887.95 412.71 1051.12 427.32 996.25 544.03 892.34 631.80 1016.18 643.35
00029510 00000165 723.63 143.22 401.45 631.03 889.70 412.50 1050.95 427.55 997.31 543.44 891.91 631.38 1017.46 643.23
00029511 00000166 724.15 144.05 401.23 631.88 889.46 412.57 1051.12 428.15 996.15 544.59 890.80 631.85 1017.81 644.09
00029512 00000167 723.56 143.65 401.89 635.70 889.75 413.41 1050.28 429.11 996.01 545.54 889.56 631.78 1017.43 643.95
00029513 00000168 724.51 144.05 401.12 635.83 888.98 413.84 1049.79 429.64 994.85 544.56 888.03 630.49 1017.69 642.74
00029514 00000169 724.76 144.83 400.93 634.09 888.14 412.99 1050.00 428.41 994.41 542.87 887.56 629.09 1018.78 641.04
