Video ID: 	EVijpXHIx9o
H: 	1080
W: 	1920
FPS: 	25.0

FRAME INDEX X0 Y0 W H [Landmarks (5 Points)]

00010919 00000000 570.99 283.55 438.32 585.74 781.41 507.05 967.01 528.12 919.71 633.44 802.18 742.51 928.33 761.53
00010920 DELETE   577.04 283.35 437.25 588.20 794.04 506.19 975.68 534.99 936.17 635.01 807.67 745.57 934.81 770.41
00010921 DELETE   588.59 287.55 435.78 589.56 802.83 510.42 983.52 537.21 943.04 638.85 816.24 749.17 939.61 772.40
00010922 DELETE   590.77 292.83 439.40 589.02 804.10 514.02 985.94 543.29 941.73 640.65 814.43 748.49 938.36 773.48
00010923 00000004 589.63 290.78 441.20 599.38 800.36 518.09 984.92 549.97 935.54 642.53 808.07 750.50 937.27 777.68
00010924 DELETE   579.46 288.18 449.02 602.02 790.22 518.99 978.55 550.14 925.29 647.22 794.85 751.87 929.14 778.19
00010925 00000006 564.73 298.56 451.39 587.15 784.07 518.69 968.36 554.60 916.35 642.08 789.87 749.01 917.95 777.43
00010926 00000007 558.17 297.13 448.73 590.51 758.79 523.48 952.68 550.79 893.48 644.77 769.01 754.98 906.73 776.97
00010927 00000008 550.11 302.93 449.83 591.45 738.05 517.91 938.86 537.86 877.68 638.41 754.85 755.82 899.80 771.55
00010928 DELETE   545.33 299.40 447.21 589.32 717.20 516.55 926.27 531.24 853.94 633.59 739.30 757.19 889.78 768.20
00010929 DELETE   538.04 306.89 444.89 579.10 699.24 516.42 914.17 531.30 833.59 630.24 724.25 756.89 879.45 767.91
00010930 00000011 530.17 303.87 444.69 582.70 688.24 517.96 904.68 533.52 820.86 629.93 713.73 757.81 870.28 769.24
00010931 00000012 519.83 306.60 447.83 580.93 676.95 516.81 895.21 529.78 810.85 630.77 705.33 759.42 863.87 769.07
00010932 00000013 509.68 310.08 449.71 577.14 665.80 515.94 884.99 530.05 797.41 628.44 690.59 754.93 854.77 765.89
00010933 00000014 506.86 308.02 448.36 578.50 660.62 516.61 876.21 527.54 789.76 627.65 685.75 754.78 847.29 763.16
00010934 00000015 506.55 304.64 448.00 581.63 649.48 519.31 869.41 522.94 783.80 631.98 680.99 758.81 844.05 759.83
00010935 00000016 503.77 303.40 447.11 582.09 644.67 521.13 864.71 522.93 779.86 631.26 678.06 758.50 842.93 757.97
00010936 00000017 501.14 304.24 447.09 578.85 641.25 520.77 862.94 522.40 776.89 631.44 676.37 758.74 843.10 757.84
00010937 00000018 498.70 303.72 448.46 577.23 638.17 520.41 860.76 521.18 773.57 631.57 673.99 758.72 841.57 756.91
00010938 00000019 496.33 302.04 449.54 580.42 634.83 519.33 857.18 519.11 769.60 630.17 670.90 757.08 838.69 754.24
00010939 00000020 493.59 300.99 451.07 581.36 630.39 516.32 853.69 516.25 764.04 629.06 665.78 755.08 834.37 752.27
00010940 00000021 490.29 298.77 452.33 581.75 626.77 515.92 849.99 516.24 759.37 628.39 662.35 754.70 830.54 751.92
00010941 00000022 488.73 296.79 451.43 581.07 623.19 515.85 848.00 516.09 755.15 628.75 659.76 755.84 829.52 752.74
00010942 00000023 487.30 296.79 451.39 580.67 621.73 514.63 846.85 514.98 754.32 628.41 657.94 755.21 829.30 752.22
00010943 00000024 486.03 296.74 450.86 580.96 620.50 513.97 844.97 514.15 753.19 627.28 656.83 755.40 827.45 752.20
00010944 00000025 485.31 295.58 451.00 582.01 619.70 514.23 844.02 514.99 751.97 626.65 655.30 754.50 826.47 751.79
00010945 00000026 485.22 294.09 450.70 581.83 619.47 513.95 844.26 515.99 751.36 626.40 654.15 754.19 825.43 752.50
00010946 00000027 485.09 292.45 450.46 584.29 619.06 513.42 844.23 515.72 750.74 627.18 653.13 753.05 825.25 751.58
00010947 00000028 485.27 291.80 450.16 585.45 619.28 513.20 844.29 515.25 750.84 626.92 652.86 751.87 825.22 750.25
00010948 00000029 485.00 292.33 450.86 583.71 619.61 513.15 844.48 515.57 750.77 627.03 653.01 750.65 825.56 749.45
00010949 00000030 485.40 292.43 450.45 581.14 619.52 513.19 845.03 515.83 750.77 627.19 653.09 750.78 825.89 749.70
00010950 00000031 485.46 293.08 450.26 580.52 619.62 513.19 845.17 515.81 750.99 626.78 653.19 750.75 826.32 749.71
00010951 00000032 485.78 292.91 450.16 579.55 620.19 512.99 845.74 515.76 751.70 626.73 654.05 750.64 827.12 749.72
00010952 00000033 486.20 292.95 449.92 579.52 620.48 513.37 845.99 515.99 752.06 626.74 654.28 750.84 827.53 749.81
00010953 00000034 485.66 294.58 451.09 577.78 622.16 516.50 848.23 521.13 753.40 625.93 655.16 750.47 828.13 751.07
00010954 00000035 488.49 294.18 449.29 579.72 624.96 521.28 848.27 522.81 755.75 625.86 658.11 751.66 829.78 749.92
00010955 00000036 489.47 293.85 450.18 582.08 625.76 523.01 849.68 523.26 756.21 626.89 658.31 752.44 831.80 749.65
00010956 00000037 491.81 296.50 450.76 580.99 626.90 520.94 852.75 520.66 758.59 627.81 659.08 753.16 834.66 750.19
00010957 00000038 493.42 298.16 452.49 584.08 630.75 520.40 855.05 521.15 764.28 629.39 663.65 754.77 835.46 752.79
00010958 00000039 497.16 302.09 449.45 576.78 634.18 521.39 857.98 522.37 767.39 633.35 669.64 760.14 835.43 758.33
00010959 00000040 499.24 300.70 447.67 568.42 638.08 523.74 860.24 527.01 769.89 637.40 676.86 766.36 831.96 766.36
00010960 00000041 502.85 304.01 446.18 562.94 639.96 527.30 863.85 530.54 772.51 642.80 680.45 772.17 835.76 772.02
00010961 00000042 504.66 320.85 446.45 553.91 646.58 536.14 869.98 533.23 773.87 651.57 681.09 776.13 833.43 774.72
00010962 00000043 503.37 319.16 451.41 559.31 653.51 533.22 867.48 545.28 778.21 643.26 683.57 773.44 838.00 782.39
00010963 00000044 503.88 323.98 452.99 560.76 655.07 536.10 869.22 550.66 776.73 649.36 679.66 774.32 834.50 785.94
00010964 00000045 505.68 328.77 454.38 568.12 655.09 537.74 872.26 554.60 774.24 656.32 674.42 773.75 832.51 788.16
00010965 00000046 506.23 332.70 455.21 569.45 653.68 541.53 872.59 557.69 773.22 661.00 671.45 777.14 831.68 791.39
00010966 00000047 505.52 338.91 454.82 559.01 652.57 543.81 872.95 558.24 773.01 664.53 669.46 780.40 833.02 793.05
00010967 00000048 504.97 342.33 455.78 548.90 652.23 546.31 871.38 558.64 772.22 667.33 670.01 787.20 831.11 797.75
00010968 00000049 504.89 345.05 455.05 540.85 652.97 549.44 869.86 558.81 772.79 671.53 674.34 792.44 831.51 800.41
00010969 00000050 504.60 344.91 453.56 536.66 653.62 550.95 868.74 559.41 773.63 674.62 678.42 793.86 833.69 800.94
00010970 00000051 503.41 345.24 453.97 528.00 652.08 549.82 868.52 558.41 774.26 673.27 679.11 794.94 836.87 801.38
00010971 00000052 503.23 345.16 454.68 530.56 652.30 550.04 868.90 559.46 773.72 672.84 677.43 795.57 834.66 802.97
00010972 00000053 503.79 346.20 453.17 526.33 652.39 549.66 867.37 559.34 772.86 673.10 677.13 795.60 831.61 803.04
00010973 00000054 503.58 347.33 454.32 537.27 651.71 550.76 867.49 558.80 772.13 674.47 676.64 795.12 831.79 801.78
00010974 00000055 503.11 347.67 454.38 541.34 650.87 552.04 868.36 560.01 772.44 676.08 674.17 795.55 831.75 802.39
00010975 00000056 502.70 347.94 455.44 547.78 650.21 552.59 868.66 560.11 771.84 677.87 673.10 794.35 831.12 801.28
00010976 00000057 501.99 348.09 454.59 545.15 648.86 552.37 866.78 559.38 770.24 678.27 672.07 794.69 829.99 800.99
00010977 00000058 501.64 348.60 454.85 544.91 647.84 552.41 865.69 559.21 768.43 678.46 670.87 793.87 828.74 800.04
00010978 00000059 501.69 348.60 454.67 545.67 648.08 552.44 865.82 559.19 768.88 678.28 671.32 793.21 829.23 799.37
00010979 00000060 501.72 349.16 453.95 543.77 648.38 551.93 865.35 558.71 768.41 677.82 671.27 792.06 828.36 798.21
00010980 00000061 501.37 349.92 452.85 537.65 648.71 552.05 864.32 557.81 768.97 677.44 673.61 793.15 830.47 798.12
00010981 00000062 511.21 353.04 444.56 524.72 646.83 560.62 867.53 556.05 768.42 684.09 677.60 792.07 824.44 788.86
00010982 00000063 511.93 351.83 444.37 522.38 645.82 560.76 867.26 554.78 767.37 683.49 677.57 793.04 824.78 788.60
00010983 00000064 511.41 351.76 444.17 518.68 644.67 560.72 867.26 554.26 767.37 682.77 676.36 794.51 824.28 789.61
00010984 00000065 509.80 350.58 444.69 519.36 643.81 560.45 867.37 553.75 767.55 681.96 675.88 794.63 824.76 789.58
00010985 00000066 509.12 351.07 445.96 519.43 641.75 560.68 865.56 553.08 765.54 681.74 674.80 794.19 823.89 788.47
00010986 00000067 506.45 349.69 447.43 521.31 637.84 561.53 859.17 552.94 759.62 679.20 670.71 792.66 818.63 786.30
00010987 00000068 491.29 326.15 452.47 540.04 624.14 558.28 844.11 560.67 744.13 671.90 667.17 790.69 817.79 789.95
00010988 00000069 479.58 328.36 454.14 545.00 607.67 558.63 828.81 560.71 725.41 665.80 648.79 786.55 804.72 785.96
00010989 00000070 469.30 336.97 451.19 536.47 590.70 555.41 809.61 559.97 700.81 662.28 629.23 782.79 788.16 784.64
00010990 00000071 462.41 338.48 453.96 537.96 582.35 554.35 798.71 555.63 689.99 661.27 624.06 783.99 781.17 783.31
00010991 00000072 463.68 335.00 452.03 546.43 583.92 551.91 801.88 552.33 693.94 661.97 627.99 784.92 784.96 783.63
00010992 00000073 466.71 330.63 454.05 557.59 590.92 550.04 812.16 551.78 706.64 662.33 634.33 782.95 792.74 782.80
00010993 DELETE   474.01 325.49 454.79 539.73 600.01 551.01 828.28 552.72 726.62 668.15 650.08 789.31 813.23 787.33
00010994 00000075 480.73 326.02 452.42 539.02 606.44 555.32 833.69 553.79 733.31 673.99 659.81 794.25 820.53 789.76
00010995 00000076 479.13 327.56 451.49 532.64 603.19 555.40 829.85 553.06 730.12 674.81 657.25 797.44 818.42 792.02
00010996 00000077 472.84 332.79 451.68 518.94 595.79 553.96 821.83 555.47 720.10 670.08 648.09 796.95 808.61 794.54
00010997 00000078 466.71 333.92 453.10 535.08 589.24 555.43 811.84 554.89 709.37 669.88 637.46 793.42 796.73 790.09
00010998 00000079 465.45 333.42 455.20 537.55 589.09 554.80 812.49 554.29 709.91 668.91 637.11 792.55 797.56 789.28
00010999 00000080 468.88 331.61 453.90 535.45 594.42 553.85 819.78 553.18 718.88 669.24 645.90 795.76 804.37 792.09
00011000 00000081 471.42 330.22 452.86 542.05 598.59 555.12 823.60 552.35 724.73 674.70 650.10 797.91 806.97 792.75
00011001 00000082 469.24 336.38 454.10 543.41 594.75 556.83 818.68 552.51 718.05 674.69 645.38 797.01 803.70 790.95
00011002 00000083 462.37 339.07 456.94 551.86 590.18 557.53 811.41 555.12 709.93 672.80 634.88 792.45 794.72 789.10
00011003 00000084 461.46 339.70 457.38 551.08 588.23 558.77 810.18 557.25 708.17 673.66 632.75 788.51 795.86 786.04
00011004 00000085 461.77 338.61 458.27 554.49 588.44 558.80 812.69 556.61 710.16 672.54 633.05 786.34 800.44 783.47
00011005 00000086 461.99 339.36 459.14 557.40 590.68 560.64 815.95 556.63 715.71 674.40 636.10 787.70 804.82 783.37
00011006 00000087 461.48 341.39 457.53 557.26 590.24 562.32 814.07 558.24 713.91 675.09 633.43 788.52 802.78 784.43
00011007 00000088 458.89 341.62 458.33 561.05 586.65 562.89 809.93 560.03 708.18 677.06 628.43 787.64 797.65 784.91
00011008 00000089 456.94 341.73 457.66 564.26 582.64 560.78 805.40 558.29 702.19 674.85 623.08 786.79 792.11 784.54
00011009 00000090 458.27 340.33 456.32 563.81 584.61 561.16 806.30 558.85 704.36 674.54 625.45 786.91 793.25 784.69
00011010 00000091 459.25 338.64 459.56 564.70 588.27 560.92 811.83 558.20 710.06 673.91 629.69 786.91 798.71 784.34
00011011 00000092 459.85 341.55 459.22 561.02 588.66 560.66 814.25 558.73 711.54 674.06 629.98 787.37 801.51 785.34
00011012 00000093 459.68 340.83 459.28 563.29 587.96 561.56 811.87 559.86 709.26 676.21 627.82 786.41 798.36 784.75
00011013 00000094 459.54 340.60 457.38 563.12 586.73 561.53 809.44 560.82 706.31 676.62 625.62 786.38 794.60 785.46
00011014 00000095 459.43 340.47 457.88 563.46 587.25 561.59 809.76 560.79 706.91 676.86 625.80 786.31 794.26 785.42
00011015 00000096 459.37 341.50 458.73 562.36 588.31 562.39 810.99 560.81 709.18 678.15 627.62 787.67 795.78 786.15
00011016 00000097 459.37 342.77 458.20 557.31 587.96 563.60 811.10 561.42 709.49 679.80 629.44 790.01 797.36 787.62
00011017 00000098 459.17 344.45 456.67 547.12 586.67 566.65 807.78 562.46 707.83 682.46 632.32 795.84 796.58 791.02
00011018 00000099 459.03 345.04 457.16 540.94 584.22 567.78 807.93 562.73 706.62 685.12 632.20 801.52 798.44 795.45
00011019 00000100 460.20 345.29 455.91 540.04 584.34 569.12 808.01 563.24 707.13 686.09 632.48 805.89 798.80 799.07
00011020 00000101 461.43 346.20 454.29 539.16 585.08 569.65 808.14 563.82 707.09 686.56 632.56 806.53 797.96 799.84
00011021 00000102 460.03 348.55 455.04 542.00 584.58 569.94 807.87 564.39 707.09 687.61 631.26 807.19 796.59 801.05
00011022 00000103 459.56 350.04 451.64 538.07 585.34 569.51 803.94 564.20 704.71 686.64 630.14 807.81 788.33 802.17
00011023 00000104 456.88 350.76 452.25 543.27 580.85 569.61 800.98 565.09 698.56 689.01 623.98 809.99 783.53 805.28
00011024 00000105 454.40 348.54 453.32 552.28 574.55 567.63 795.88 563.88 690.43 689.31 614.46 810.30 776.72 806.52
00011025 00000106 450.92 353.60 455.70 543.56 569.94 568.36 794.05 566.40 684.16 689.13 607.42 810.85 772.51 808.64
00011026 00000107 449.86 355.11 456.10 537.25 568.95 568.36 792.38 566.79 682.31 688.37 605.54 811.06 771.12 808.93
00011027 00000108 450.77 355.33 456.40 536.67 570.81 568.76 794.77 567.42 686.13 691.62 608.71 811.30 776.02 809.28
00011028 00000109 452.09 355.80 456.57 538.04 573.29 570.36 799.56 569.42 692.14 695.53 612.05 812.13 781.99 810.21
00011029 00000110 453.33 356.15 456.26 535.89 573.80 570.58 799.66 570.17 691.53 697.45 612.91 810.04 783.98 808.32
00011030 00000111 450.55 356.12 457.68 533.31 572.14 571.05 796.13 569.53 688.83 695.77 611.05 805.44 782.72 803.07
00011031 00000112 449.57 355.71 457.37 530.25 571.80 570.29 794.12 569.32 687.04 693.70 609.70 802.32 781.11 800.43
00011032 00000113 449.25 354.76 458.21 532.75 572.77 570.36 795.99 569.63 688.97 694.14 610.73 800.85 783.12 799.19
00011033 00000114 449.42 356.55 459.60 533.00 572.82 570.11 798.24 569.54 690.37 695.62 611.53 800.88 785.96 799.31
00011034 00000115 449.84 357.86 459.21 531.34 573.70 570.46 798.29 570.40 690.05 697.17 610.84 799.79 784.89 798.80
00011035 00000116 449.75 358.99 459.39 527.59 573.65 571.71 799.24 571.93 690.20 698.69 611.09 799.73 786.80 798.69
00011036 00000117 450.30 360.53 460.73 526.63 574.23 572.74 801.86 572.90 691.92 700.92 611.91 799.07 790.98 798.08
00011037 00000118 450.74 361.20 461.69 527.28 574.25 574.28 804.32 573.36 694.22 702.30 613.80 798.70 796.33 796.81
00011038 00000119 450.72 360.64 461.41 527.87 573.92 574.24 804.26 573.34 693.86 702.77 612.84 798.06 796.21 796.26
00011039 00000120 450.76 360.89 460.97 526.62 574.36 573.73 803.42 573.57 692.89 702.24 612.62 798.26 793.93 796.99
00011040 00000121 451.94 360.99 460.80 537.14 574.27 574.51 804.42 574.01 693.46 703.66 612.74 799.42 794.56 797.99
00011041 00000122 451.49 361.07 461.08 536.36 574.28 574.97 805.26 574.31 694.42 704.12 613.46 800.59 795.98 798.91
00011042 00000123 451.57 361.10 461.30 536.46 574.24 575.25 805.02 574.32 694.27 704.35 613.48 800.85 796.04 798.96
00011043 00000124 451.24 362.23 461.79 535.82 573.98 575.13 805.27 574.29 694.04 704.60 613.06 800.94 795.88 799.12
00011044 00000125 451.27 361.81 462.21 537.82 574.23 575.41 805.30 574.78 693.92 704.61 612.44 801.58 794.78 799.99
00011045 00000126 750.99 291.71 384.84 592.35 1017.97 521.04 1099.13 534.92 1134.24 652.90 987.39 741.01 1046.79 757.94
00011046 00000127 753.88 288.03 383.32 596.23 1019.75 522.35 1101.45 537.59 1135.15 654.85 986.90 740.51 1047.37 758.46
00011047 00000128 755.90 288.41 383.44 599.41 1022.43 521.87 1102.67 538.15 1137.49 655.23 986.51 739.66 1047.72 758.71
00011048 00000129 760.54 289.87 381.01 596.84 1024.84 521.32 1104.23 537.78 1138.97 655.57 987.90 738.04 1048.88 757.19
00011049 00000130 762.25 291.72 378.91 586.56 1023.13 521.17 1106.02 537.57 1138.36 654.70 991.95 736.16 1054.42 754.62
00011050 00000131 758.01 289.57 381.25 584.86 1019.40 519.95 1106.97 540.15 1135.13 653.14 990.88 734.54 1056.21 755.65
00011051 00000132 750.33 280.14 382.67 589.92 1011.56 520.27 1103.45 541.81 1129.64 648.22 987.03 729.73 1055.17 752.15
00011052 00000133 736.17 282.77 382.71 582.77 991.00 513.19 1104.26 543.06 1113.33 643.27 973.54 726.90 1055.53 756.66
00011053 DELETE   715.39 283.07 395.42 572.02 957.79 508.33 1099.20 533.80 1091.21 631.42 952.51 720.46 1058.07 745.89
CROP_BBOX: 308 0 1296 1071
