Video ID: 	my5BoIp4zBc
H: 	1080
W: 	1920
FPS: 	29.97002997002997

FRAME INDEX X0 Y0 W H [Landmarks (5 Points)]

00002756 00000000 979.03 224.26 461.58 655.11 1142.13 502.49 1347.15 525.06 1246.10 651.69 1132.30 729.67 1277.53 750.82
00002757 DELETE   979.41 225.11 461.33 653.99 1142.04 502.65 1347.04 525.16 1245.16 652.01 1131.99 729.61 1277.50 750.70
00002758 DELETE   978.68 229.30 461.73 652.41 1139.03 502.92 1345.60 527.43 1241.91 655.34 1128.74 732.58 1273.12 755.11
00002759 DELETE   977.76 231.15 462.94 651.21 1134.84 503.76 1343.14 528.72 1236.38 658.98 1122.04 732.54 1269.36 755.50
00002760 00000004 971.46 233.54 468.15 650.25 1128.12 510.04 1331.31 528.71 1230.15 664.69 1128.29 740.50 1276.62 755.83
00002761 DELETE   970.87 231.33 467.24 653.71 1128.04 509.85 1329.54 528.53 1229.54 662.77 1128.30 740.35 1275.79 755.56
00002762 DELETE   971.27 231.10 466.73 653.87 1127.51 509.21 1328.80 528.22 1228.46 662.55 1127.87 739.82 1275.50 755.24
00002763 00000007 970.96 229.50 465.23 658.72 1128.25 505.63 1327.09 525.19 1228.32 659.64 1126.26 738.02 1273.04 754.09
00002764 00000008 972.07 225.67 462.92 661.03 1127.52 498.42 1326.37 518.55 1227.93 654.88 1124.01 733.67 1272.97 750.14
00002765 DELETE   973.68 225.93 462.36 659.57 1132.07 489.23 1333.20 506.30 1237.98 649.24 1134.48 734.86 1279.74 748.85
00002766 00000010 978.71 223.66 464.25 658.57 1143.10 479.33 1348.44 503.39 1250.57 644.05 1137.17 723.57 1278.61 746.26
00002767 00000011 978.87 224.15 463.97 658.63 1143.30 479.27 1348.54 503.31 1250.58 643.93 1137.29 723.72 1278.65 746.42
00002768 00000012 979.07 220.70 463.69 659.98 1146.10 474.91 1348.94 500.27 1252.83 641.71 1138.32 719.10 1280.71 742.74
00002769 00000013 977.95 219.74 465.52 658.82 1147.20 470.93 1348.12 497.67 1253.15 638.09 1138.40 715.68 1280.79 740.18
00002770 00000014 978.70 217.44 466.22 660.57 1148.74 468.42 1347.89 495.95 1253.10 635.95 1139.61 713.80 1281.20 738.86
00002771 00000015 979.08 221.15 465.83 655.64 1150.30 467.15 1348.58 494.82 1254.74 633.25 1142.34 712.33 1282.86 737.45
00002772 00000016 979.47 218.62 464.92 658.47 1151.11 467.28 1348.26 495.07 1255.29 634.64 1142.46 712.47 1283.00 737.67
00002773 00000017 980.18 222.06 464.16 656.55 1153.02 466.78 1351.64 492.18 1259.05 634.30 1146.74 715.08 1286.45 738.23
00002774 00000018 981.45 216.41 463.66 663.62 1155.92 464.55 1354.08 489.97 1262.13 635.25 1149.68 716.38 1288.73 739.40
00002775 00000019 982.83 218.27 463.19 661.80 1159.42 460.68 1355.69 486.27 1264.23 634.36 1152.93 715.62 1289.23 738.53
00002776 00000020 981.28 221.28 465.03 662.01 1159.02 459.09 1355.29 485.62 1263.89 633.34 1151.19 713.68 1289.63 737.38
00002777 00000021 981.17 221.55 465.57 662.20 1158.71 459.10 1355.16 485.73 1263.45 632.79 1150.79 713.57 1289.49 737.33
00002778 00000022 980.57 221.09 466.43 663.11 1157.81 459.42 1355.93 486.91 1262.85 634.84 1146.46 711.68 1290.30 736.05
00002779 00000023 979.62 221.74 466.59 664.19 1158.32 459.64 1356.07 488.03 1263.88 634.00 1146.32 711.79 1291.20 736.90
00002780 00000024 979.85 221.77 466.16 664.16 1158.30 460.63 1356.42 488.45 1264.53 635.86 1146.41 711.28 1292.93 735.90
00002781 00000025 978.53 218.65 467.24 666.68 1158.49 460.18 1356.07 488.94 1264.50 636.13 1144.94 709.97 1291.40 735.32
00002782 00000026 978.24 219.09 467.24 666.13 1158.51 460.23 1355.69 489.14 1264.47 636.06 1144.70 709.63 1291.12 735.12
00002783 00000027 977.30 216.47 467.20 669.35 1158.47 459.31 1354.82 489.39 1264.36 635.08 1143.91 709.97 1289.89 736.41
00002784 00000028 976.48 216.95 468.71 667.92 1159.92 458.70 1355.31 489.47 1264.46 635.09 1143.94 709.52 1287.61 736.61
00002785 00000029 976.91 217.16 467.70 664.96 1160.53 458.11 1354.13 489.36 1263.53 633.84 1145.15 708.63 1285.75 736.06
00002786 00000030 976.50 216.15 466.08 660.71 1159.52 458.80 1352.81 488.32 1263.17 632.28 1147.83 709.58 1284.97 735.50
00002787 00000031 976.30 216.94 466.65 660.16 1158.71 459.08 1352.76 488.09 1262.68 632.22 1147.30 710.01 1285.11 735.53
00002788 00000032 975.86 216.37 464.93 662.54 1158.16 458.70 1352.61 488.01 1263.05 630.98 1147.16 710.92 1284.90 736.74
00002789 00000033 975.38 216.64 465.01 665.11 1157.41 459.40 1350.32 488.85 1261.33 631.63 1146.30 711.01 1283.71 737.05
00002790 00000034 973.54 220.31 466.30 660.75 1155.42 460.99 1350.08 490.00 1259.93 634.39 1142.64 711.40 1282.44 737.20
00002791 00000035 973.18 220.61 465.85 657.24 1153.82 461.29 1349.66 489.80 1258.96 632.80 1142.93 710.53 1283.07 735.80
00002792 00000036 973.14 218.94 466.00 660.01 1153.93 460.99 1349.89 489.59 1259.32 632.58 1143.14 710.70 1283.43 736.02
00002793 00000037 972.92 217.93 465.59 659.68 1154.13 460.40 1350.69 487.48 1260.40 632.64 1144.45 711.67 1284.46 735.70
00002794 00000038 974.41 215.76 458.48 662.93 1152.30 459.42 1346.87 477.70 1263.15 632.70 1155.25 723.42 1292.34 737.81
00002795 00000039 974.48 217.01 458.23 663.62 1152.21 459.12 1346.86 476.10 1264.10 633.04 1156.70 724.09 1294.45 737.31
00002796 00000040 969.94 221.44 467.26 661.92 1147.12 457.25 1351.67 478.96 1265.17 634.01 1152.35 720.93 1285.46 737.54
00002797 00000041 970.82 222.24 467.76 660.65 1146.67 456.85 1351.83 478.53 1264.50 635.16 1152.30 721.18 1285.11 737.84
00002798 00000042 970.99 225.17 467.15 658.63 1146.64 456.48 1350.78 479.13 1263.29 635.48 1149.94 719.38 1283.73 736.82
00002799 00000043 975.40 219.34 463.44 661.03 1153.89 458.40 1349.34 485.05 1260.85 630.35 1145.51 709.87 1286.03 733.53
00002800 00000044 971.99 222.56 466.13 659.10 1146.99 456.36 1351.27 479.08 1263.71 634.19 1149.38 718.02 1285.26 735.59
00002801 00000045 972.72 222.21 465.79 662.10 1148.09 455.96 1351.64 478.48 1263.88 633.91 1150.42 718.31 1285.33 735.63
00002802 00000046 972.79 221.95 465.71 662.84 1148.31 455.62 1351.73 478.08 1263.96 633.64 1150.60 718.45 1285.34 735.72
00002803 00000047 973.62 223.57 465.02 658.74 1147.54 455.99 1352.01 478.01 1263.98 633.74 1149.76 717.91 1285.75 734.92
00002804 00000048 971.53 220.97 469.16 662.82 1147.82 453.83 1353.10 477.61 1264.97 631.73 1148.88 715.42 1287.03 733.82
00002805 00000049 977.37 215.10 463.35 657.59 1153.65 453.63 1353.24 478.99 1263.92 626.40 1147.42 706.53 1289.83 728.82
00002806 00000050 976.66 215.81 465.69 660.24 1155.31 450.76 1353.21 477.72 1264.65 624.37 1148.42 704.81 1289.31 728.41
00002807 00000051 977.06 213.36 464.86 662.67 1155.06 450.86 1352.98 477.68 1264.52 624.01 1148.34 704.56 1289.51 727.96
00002808 00000052 976.90 210.44 465.51 667.78 1156.63 447.99 1353.33 475.82 1265.61 622.69 1149.13 703.94 1289.08 728.12
00002809 00000053 977.45 207.76 466.06 667.97 1156.54 447.34 1353.58 474.74 1265.93 621.51 1150.01 702.83 1290.12 726.55
00002810 00000054 978.30 205.78 465.92 669.73 1157.44 447.08 1355.37 474.32 1267.67 622.59 1151.07 704.03 1291.96 727.61
00002811 00000055 978.31 209.11 465.93 666.15 1158.52 447.38 1355.64 474.76 1267.58 621.76 1152.58 703.81 1292.12 727.41
00002812 00000056 978.46 211.71 465.53 663.13 1158.76 447.88 1355.96 474.98 1267.88 621.59 1153.19 703.71 1292.97 727.03
00002813 00000057 979.42 207.21 465.18 665.80 1158.88 446.76 1356.17 474.20 1268.44 620.80 1154.06 703.21 1292.65 726.81
00002814 00000058 980.28 204.07 464.12 666.16 1159.43 445.30 1357.09 472.51 1269.71 619.46 1154.91 702.38 1293.24 725.82
00002815 00000059 979.77 205.61 464.28 664.44 1159.64 444.91 1357.52 472.00 1270.28 619.36 1155.59 702.37 1294.01 725.68
00002816 00000060 979.50 205.32 465.37 664.95 1160.37 444.75 1358.84 472.40 1270.82 620.23 1154.97 702.56 1294.43 726.38
00002817 00000061 979.65 205.14 465.17 665.33 1160.57 444.90 1358.68 472.92 1270.72 620.39 1154.82 702.43 1293.98 726.57
00002818 00000062 979.80 204.87 464.74 666.56 1160.81 446.17 1358.47 474.17 1270.84 620.40 1155.30 703.09 1295.07 727.16
00002819 00000063 979.88 205.94 466.03 665.49 1162.20 447.09 1359.08 475.31 1271.18 621.23 1156.16 702.78 1295.17 727.06
00002820 00000064 980.28 211.41 465.24 660.66 1161.41 448.97 1359.83 475.31 1271.09 621.21 1154.94 704.22 1295.49 726.93
00002821 00000065 980.60 213.03 464.67 659.12 1161.46 449.47 1359.86 475.55 1271.36 621.82 1155.38 704.61 1296.05 727.10
00002822 00000066 981.09 211.70 464.26 660.51 1161.31 449.47 1359.61 475.30 1271.11 621.86 1155.57 704.68 1295.98 726.96
00002823 00000067 980.77 213.52 464.41 659.40 1160.90 450.79 1359.73 476.25 1271.27 623.10 1154.97 706.12 1295.99 728.09
00002824 00000068 980.64 218.52 464.66 657.28 1160.24 452.51 1358.72 476.99 1270.44 623.83 1155.43 708.13 1296.23 729.43
00002825 00000069 981.16 219.06 463.99 657.80 1159.39 454.58 1358.33 478.67 1269.12 624.70 1155.73 710.26 1297.09 731.18
00002826 00000070 979.87 221.07 464.32 657.55 1156.53 457.01 1355.90 480.34 1266.71 626.11 1153.72 712.04 1295.82 732.49
00002827 00000071 979.68 220.16 464.83 659.06 1156.08 457.57 1355.91 480.52 1266.60 627.22 1153.21 712.49 1295.75 732.66
00002828 00000072 979.91 221.71 463.87 656.34 1155.52 457.36 1355.86 480.18 1266.05 627.36 1152.58 712.58 1295.16 732.67
00002829 00000073 980.06 222.85 463.25 654.58 1155.00 457.90 1356.10 480.74 1265.96 627.33 1152.29 712.35 1295.75 732.41
00002830 00000074 980.00 221.61 463.84 656.25 1155.51 458.46 1356.37 481.73 1266.64 627.72 1152.63 712.42 1296.42 732.84
00002831 00000075 980.75 222.28 463.68 656.17 1155.78 460.12 1356.75 483.65 1266.71 629.63 1151.69 712.54 1296.55 733.28
00002832 00000076 981.04 220.34 463.73 657.68 1156.23 460.28 1356.60 484.21 1266.58 629.71 1151.58 711.69 1296.53 732.69
00002833 00000077 981.04 222.12 464.00 655.44 1156.78 461.27 1356.57 484.91 1266.55 631.40 1151.76 712.77 1295.39 733.64
00002834 00000078 981.22 220.43 464.43 657.77 1157.56 461.46 1356.89 485.49 1266.75 632.90 1151.70 713.18 1295.60 734.40
00002835 00000079 981.60 221.12 464.11 656.91 1157.49 461.62 1356.68 485.60 1266.63 632.58 1152.23 713.05 1296.11 734.22
00002836 00000080 981.98 223.10 463.45 655.03 1158.05 461.90 1357.58 486.00 1267.26 631.89 1152.60 713.22 1297.03 734.51
00002837 00000081 982.45 223.69 463.22 654.71 1158.14 461.83 1357.65 486.11 1267.52 631.46 1152.60 713.05 1297.27 734.52
00002838 00000082 982.87 222.26 462.84 656.88 1159.19 461.79 1358.10 486.66 1268.17 632.04 1153.02 713.36 1297.44 735.28
00002839 00000083 983.32 220.69 463.31 658.99 1160.83 460.94 1359.31 485.80 1269.65 632.75 1154.60 713.43 1298.85 735.25
00002840 00000084 985.74 219.55 460.73 659.60 1162.84 461.56 1360.81 486.03 1271.62 633.85 1156.99 714.90 1301.31 736.24
00002841 00000085 986.02 221.11 461.54 659.20 1163.85 461.46 1362.67 486.85 1272.09 635.17 1156.77 715.33 1301.97 737.50
00002842 00000086 985.81 221.97 461.41 658.28 1163.75 461.43 1362.01 487.04 1271.91 634.86 1156.58 715.44 1301.27 737.80
00002843 00000087 986.75 224.60 461.24 654.83 1165.13 461.75 1362.78 487.25 1272.50 635.80 1157.93 715.55 1301.49 737.84
00002844 00000088 987.00 226.12 461.41 653.69 1166.33 462.40 1363.89 488.18 1273.32 635.93 1158.22 715.87 1302.05 738.40
00002845 00000089 987.65 227.98 462.22 651.48 1167.72 464.17 1364.22 489.86 1274.05 637.41 1159.29 716.25 1301.98 738.78
00002846 00000090 989.26 229.57 461.57 651.17 1170.23 464.76 1366.06 490.68 1276.19 636.66 1161.12 717.16 1303.67 739.85
00002847 00000091 989.22 230.33 461.58 650.34 1170.72 464.74 1366.21 490.80 1276.58 636.91 1161.51 717.17 1303.79 740.02
00002848 00000092 989.33 231.13 461.92 649.63 1171.95 464.70 1367.10 491.22 1277.57 636.31 1161.91 717.49 1303.52 740.76
00002849 00000093 990.20 230.09 461.90 650.08 1172.82 464.44 1368.40 491.37 1278.24 636.33 1162.81 716.80 1305.57 740.27
00002850 00000094 990.99 228.68 462.14 649.83 1174.07 463.97 1369.94 490.86 1279.70 635.86 1165.42 715.44 1308.34 738.70
00002851 00000095 990.37 224.74 462.94 654.52 1173.82 463.51 1369.64 489.96 1279.95 635.86 1165.17 715.55 1308.50 738.33
00002852 00000096 990.42 224.95 463.18 653.12 1173.91 463.52 1369.96 490.27 1279.69 636.22 1165.04 715.09 1308.18 738.06
00002853 00000097 989.96 223.38 462.91 655.34 1173.92 463.00 1369.72 490.44 1279.69 635.60 1164.61 714.91 1307.89 738.34
00002854 00000098 990.44 222.60 462.97 654.86 1173.98 462.31 1369.95 490.13 1279.14 635.62 1164.42 714.30 1307.52 738.03
00002855 00000099 991.46 221.16 461.84 655.29 1174.34 461.59 1371.21 488.87 1280.04 635.27 1165.76 713.66 1309.58 736.77
00002856 00000100 991.45 223.75 462.46 651.64 1174.64 461.55 1371.91 487.93 1280.80 635.08 1166.99 713.62 1310.33 736.06
00002857 00000101 991.28 223.83 462.29 650.94 1175.02 460.85 1372.40 487.87 1281.15 634.79 1167.27 713.00 1310.41 735.95
00002858 00000102 990.92 223.89 462.42 650.51 1174.88 461.07 1371.68 487.96 1280.90 634.31 1167.31 712.58 1309.90 735.44
00002859 00000103 991.23 223.52 461.77 650.59 1174.59 460.98 1371.77 487.69 1280.99 633.96 1167.35 712.55 1310.24 735.22
00002860 00000104 990.94 221.98 462.33 652.98 1174.92 460.88 1371.44 487.78 1280.95 634.24 1167.49 712.60 1310.02 735.42
00002861 00000105 991.17 222.38 461.65 653.24 1174.90 461.21 1371.54 488.34 1281.22 634.96 1166.86 713.13 1309.87 736.14
00002862 00000106 991.24 221.87 461.89 654.34 1175.29 461.51 1371.75 488.62 1281.56 635.14 1166.88 713.38 1309.88 736.38
00002863 00000107 991.52 224.12 461.12 651.53 1174.78 461.80 1371.41 488.38 1280.89 634.90 1166.72 713.54 1309.79 736.17
00002864 00000108 991.08 223.07 461.47 653.63 1174.90 461.58 1371.00 488.67 1281.02 634.65 1165.97 713.45 1309.43 736.53
00002865 00000109 990.50 222.75 461.60 655.75 1174.61 462.75 1370.54 489.96 1280.76 634.97 1164.85 713.98 1309.04 737.16
00002866 00000110 990.44 226.34 460.83 653.66 1173.56 464.08 1369.88 491.27 1279.73 634.98 1164.42 715.31 1307.79 738.70
00002867 00000111 990.06 225.21 461.43 655.43 1173.49 463.97 1370.03 491.31 1279.85 635.59 1164.24 715.63 1307.99 739.07
00002868 00000112 988.71 228.03 461.81 654.43 1171.31 464.50 1368.51 491.29 1278.39 636.07 1162.22 716.86 1306.41 740.06
00002869 00000113 987.88 228.90 462.09 653.39 1170.29 464.88 1367.92 491.22 1278.24 636.89 1161.36 717.12 1305.46 740.03
00002870 00000114 987.08 228.81 462.13 655.27 1169.23 466.29 1367.43 492.42 1277.37 638.53 1159.47 718.24 1304.82 741.09
00002871 00000115 985.83 229.26 463.01 656.70 1168.25 466.59 1366.17 492.49 1276.54 639.77 1157.36 719.37 1302.45 742.24
00002872 00000116 985.04 228.30 463.96 658.03 1168.26 467.33 1365.51 493.58 1276.30 639.94 1156.99 719.00 1302.00 742.21
00002873 00000117 983.92 228.39 463.49 658.47 1166.45 467.03 1364.47 492.79 1275.72 640.36 1155.43 719.62 1300.71 742.58
00002874 00000118 984.11 228.66 463.02 657.09 1166.32 466.88 1364.58 492.92 1274.97 639.37 1154.99 719.50 1299.43 742.68
00002875 00000119 983.69 228.18 462.99 657.00 1165.93 467.33 1363.97 493.07 1275.20 638.69 1155.27 719.57 1299.34 742.52
00002876 00000120 983.77 225.64 462.84 659.59 1165.75 467.18 1363.88 492.83 1275.24 637.64 1155.56 719.28 1299.70 742.07
00002877 00000121 983.79 227.77 462.57 657.40 1165.80 467.58 1363.90 492.89 1275.11 638.14 1155.92 719.68 1299.77 742.26
00002878 00000122 983.81 227.71 462.99 657.79 1165.52 467.72 1364.02 492.97 1274.90 638.26 1155.52 719.99 1299.83 742.49
00002879 00000123 983.66 226.04 463.30 659.81 1165.40 467.82 1363.68 493.23 1274.80 637.83 1155.40 720.11 1299.65 742.74
00002880 00000124 984.14 226.23 462.87 660.29 1165.74 467.26 1363.64 493.00 1275.15 637.97 1155.52 720.43 1299.48 743.30
00002881 00000125 984.73 223.17 462.68 662.76 1166.58 475.04 1362.14 500.61 1273.63 637.71 1154.13 720.44 1299.49 743.32
00002882 00000126 984.64 223.36 462.84 661.87 1166.76 474.55 1361.70 500.69 1273.33 636.50 1154.22 719.25 1299.28 742.58
00002883 00000127 985.18 221.96 463.60 661.40 1165.99 479.66 1361.58 505.19 1271.68 635.81 1152.75 718.60 1299.20 741.42
00002884 00000128 985.68 220.77 463.01 662.15 1164.07 479.59 1361.93 504.76 1271.31 634.81 1152.80 718.53 1300.58 741.10
00002885 00000129 984.91 222.56 462.61 661.14 1164.64 478.30 1361.81 504.02 1271.75 635.07 1153.66 719.47 1300.15 742.47
00002886 00000130 984.48 223.03 463.00 659.12 1164.18 476.04 1360.66 502.51 1270.83 633.23 1154.16 718.28 1298.68 741.86
00002887 00000131 984.81 222.01 462.70 660.35 1164.48 475.33 1360.69 502.34 1270.66 633.72 1153.68 718.25 1298.33 742.24
00002888 00000132 985.04 222.11 462.96 657.95 1164.50 472.34 1361.33 500.21 1270.89 631.74 1154.10 716.41 1297.91 741.03
00002889 00000133 985.17 221.26 462.86 655.90 1163.89 469.73 1360.56 497.14 1269.52 631.00 1153.82 713.37 1298.10 737.49
00002890 00000134 984.67 215.61 462.53 659.44 1164.45 466.66 1361.03 494.30 1270.75 628.61 1154.85 711.25 1299.05 735.23
00002891 00000135 984.50 212.25 463.03 660.68 1166.26 463.63 1362.26 492.34 1272.02 627.53 1155.81 709.12 1299.26 733.72
00002892 00000136 984.58 211.57 462.83 661.34 1166.70 463.40 1362.28 492.41 1271.99 626.84 1156.06 708.66 1299.26 733.50
00002893 00000137 984.86 211.52 463.78 657.64 1169.02 461.39 1364.59 489.74 1273.68 625.35 1159.22 708.16 1300.03 732.42
00002894 00000138 984.89 209.70 464.73 656.61 1168.61 459.32 1364.95 487.68 1273.67 623.58 1159.41 705.72 1300.79 729.99
00002895 00000139 988.60 203.77 468.61 666.75 1165.90 461.02 1368.26 484.22 1275.73 621.16 1160.54 710.97 1303.55 731.87
00002896 00000140 989.68 202.74 467.49 665.51 1166.59 459.74 1368.88 481.97 1276.68 620.64 1161.14 708.81 1304.33 729.17
00002897 00000141 989.38 199.05 468.03 670.42 1167.38 459.21 1370.12 482.08 1277.40 620.72 1160.86 709.31 1304.42 730.16
00002898 00000142 990.62 195.88 467.10 671.46 1169.42 458.56 1372.20 480.17 1279.96 618.18 1162.93 707.13 1306.66 727.19
00002899 00000143 991.81 196.01 465.77 668.76 1170.96 457.14 1374.07 477.84 1282.54 615.24 1165.21 704.87 1309.99 724.18
00002900 00000144 993.81 193.51 464.92 670.18 1172.83 455.15 1374.75 475.64 1284.16 610.67 1166.78 702.45 1311.87 721.38
00002901 00000145 995.35 197.98 465.09 660.76 1174.56 453.11 1375.80 473.30 1285.92 607.85 1170.27 699.96 1313.63 718.87
00002902 00000146 997.16 195.83 463.33 662.02 1175.98 453.21 1376.26 473.35 1286.57 608.39 1170.69 700.18 1313.57 719.00
00002903 00000147 998.72 195.02 463.19 661.29 1177.29 451.97 1377.64 472.21 1287.85 607.37 1172.55 699.81 1315.10 718.70
00002904 00000148 999.34 195.41 462.67 660.12 1178.05 451.47 1378.58 471.75 1289.03 606.12 1173.53 699.31 1316.40 718.19
00002905 00000149 1001.79 197.43 460.25 655.05 1177.90 452.33 1378.62 472.70 1289.16 607.22 1173.82 699.66 1316.61 718.59
00002906 00000150 1001.40 197.63 462.54 658.42 1178.91 451.53 1379.32 472.78 1289.90 606.11 1174.75 699.11 1318.28 718.59
00002907 00000151 1001.68 196.85 462.33 659.91 1179.40 452.15 1379.95 473.25 1290.65 605.89 1174.98 699.42 1319.36 718.79
00002908 00000152 1001.93 198.40 463.48 659.35 1180.19 452.55 1381.06 473.69 1291.93 606.17 1176.63 700.32 1320.68 719.72
00002909 00000153 999.63 197.45 466.04 665.81 1181.38 452.47 1381.02 475.11 1292.51 605.79 1175.53 700.77 1319.60 721.32
00002910 00000154 999.13 198.77 468.01 667.40 1182.27 452.79 1381.90 475.29 1293.57 607.63 1176.49 702.23 1319.77 722.74
00002911 00000155 997.83 196.92 469.03 671.34 1180.92 453.43 1381.35 476.78 1291.87 609.15 1174.73 703.88 1318.12 725.06
00002912 00000156 997.21 198.24 468.66 670.29 1180.48 454.21 1380.60 477.37 1291.59 609.80 1174.66 703.75 1318.36 724.81
00002913 00000157 996.31 198.28 469.73 672.06 1179.04 455.37 1380.15 479.81 1290.06 613.73 1171.09 705.01 1317.75 727.00
00002914 00000158 995.47 197.91 470.17 674.22 1176.61 457.25 1378.75 482.65 1287.84 616.97 1167.44 706.57 1315.73 729.28
00002915 00000159 993.94 202.13 464.22 666.72 1180.29 452.83 1372.11 486.82 1283.05 621.18 1166.37 702.24 1307.54 730.73
00002916 00000160 991.39 201.68 465.68 670.95 1177.12 453.79 1369.38 487.45 1280.36 622.45 1164.06 702.76 1306.65 731.04
00002917 00000161 991.78 203.20 465.84 669.23 1176.82 453.82 1369.52 486.69 1280.28 622.83 1164.37 703.11 1306.54 730.79
00002918 00000162 989.90 204.78 468.05 670.92 1176.61 453.06 1368.82 486.30 1280.03 623.14 1164.09 703.62 1305.70 731.70
00002919 00000163 990.11 203.99 466.65 674.53 1177.07 452.73 1367.44 485.57 1280.67 622.35 1164.51 703.40 1305.99 731.07
