Video ID: 	KAsT3eYB4wk
H: 	2160
W: 	3840
FPS: 	59.94006309148265

FRAME INDEX X0 Y0 W H [Landmarks (5 Points)]

00035694 00000000 1645.00 370.48 589.93 818.28 1757.71 695.40 2030.71 689.44 1864.98 817.23 1783.24 974.68 2006.39 973.53
00035695 DELETE   1647.10 366.35 580.00 823.59 1753.96 690.40 2027.62 687.31 1859.29 812.21 1774.17 972.37 2004.86 974.41
00035696 00000002 1642.94 368.78 583.15 823.36 1751.19 689.43 2021.95 689.28 1851.82 812.45 1769.05 971.88 1995.81 976.27
00035697 00000003 1640.12 378.60 589.23 827.07 1745.14 689.64 2014.86 687.47 1849.61 825.09 1771.82 971.43 1983.32 974.24
00035698 00000004 1636.80 382.93 585.42 822.59 1744.20 699.19 2013.41 697.21 1851.82 829.17 1773.93 975.27 1985.46 977.88
00035699 00000005 1642.92 394.61 576.39 812.70 1749.00 703.03 2017.73 705.25 1853.12 827.36 1769.48 982.20 1987.16 987.60
00035700 00000006 1638.36 397.88 584.92 821.25 1750.30 714.89 2016.00 716.81 1850.99 840.41 1764.59 987.94 1989.91 993.08
00035701 00000007 1644.85 404.95 582.65 823.93 1760.93 715.87 2022.84 725.05 1857.80 841.96 1769.25 987.22 1994.29 998.27
00035702 00000008 1651.08 407.06 586.04 839.43 1767.40 718.10 2029.30 730.91 1863.74 845.35 1770.71 995.33 1993.94 1010.00
00035703 00000009 1654.89 414.02 594.59 846.13 1775.44 722.50 2036.51 742.68 1869.60 858.39 1780.52 1002.02 1997.03 1023.46
00035704 00000010 1653.97 419.00 601.90 848.73 1780.89 725.81 2047.45 745.00 1881.39 867.88 1786.95 1010.43 2003.82 1030.76
00035705 00000011 1663.21 420.50 598.76 853.32 1789.38 733.39 2061.62 757.20 1888.27 878.21 1790.14 1014.46 2011.40 1038.88
00035706 00000012 1659.12 424.96 612.35 863.78 1797.18 741.69 2066.81 765.42 1891.63 886.24 1783.13 1021.27 2029.34 1042.16
00035707 00000013 1669.26 443.54 609.78 857.78 1807.12 752.22 2078.36 779.56 1899.44 901.05 1798.26 1037.28 2035.33 1061.71
00035708 00000014 1675.89 447.24 613.39 858.54 1814.12 756.13 2089.14 781.15 1908.27 903.53 1806.96 1045.09 2042.35 1068.14
00035709 00000015 1688.42 441.34 615.55 860.17 1821.65 757.94 2093.64 778.78 1915.50 904.21 1820.32 1042.69 2048.86 1062.54
00035710 00000016 1701.28 437.34 608.86 856.12 1831.04 751.98 2107.74 773.90 1928.37 906.80 1819.18 1038.98 2054.22 1060.02
00035711 00000017 1710.27 438.74 618.36 855.61 1840.47 753.32 2119.23 778.84 1941.00 905.34 1835.86 1041.00 2064.99 1064.72
00035712 00000018 1717.50 433.76 619.49 863.64 1852.40 755.05 2129.97 783.12 1950.07 906.87 1845.60 1042.29 2075.33 1068.19
00035713 00000019 1723.55 434.98 618.90 862.99 1863.14 751.53 2143.65 782.12 1960.83 909.98 1852.49 1040.71 2091.50 1067.82
00035714 00000020 1731.86 436.76 623.03 859.76 1879.20 748.77 2155.25 781.79 1974.99 906.12 1863.64 1038.76 2098.54 1068.21
00035715 00000021 1739.41 438.73 622.99 862.33 1888.92 748.22 2163.43 778.73 1986.35 907.67 1875.50 1042.65 2108.54 1070.01
00035716 00000022 1752.83 437.90 623.66 864.70 1902.74 750.51 2178.76 784.05 1996.56 911.00 1889.28 1040.92 2122.29 1071.31
00035717 00000023 1764.74 426.79 621.48 870.87 1908.34 744.99 2190.61 780.10 2007.25 909.59 1899.67 1037.38 2118.81 1071.58
00035718 00000024 1771.29 425.39 620.61 873.16 1917.33 741.15 2199.45 780.81 2013.06 905.33 1904.61 1034.70 2122.29 1073.28
00035719 00000025 1772.71 421.77 622.87 879.46 1921.10 738.43 2202.89 778.03 2016.88 902.71 1907.52 1032.40 2128.02 1071.29
00035720 00000026 1775.38 419.98 619.89 884.75 1920.67 733.81 2202.58 773.84 2016.40 897.77 1903.58 1030.09 2131.94 1069.67
00035721 00000027 1775.70 413.94 620.54 891.10 1919.72 728.57 2201.54 768.64 2016.06 893.78 1902.80 1025.61 2131.42 1065.62
00035722 00000028 1776.64 409.64 622.39 891.34 1917.16 725.63 2200.35 762.59 2014.37 890.76 1901.73 1022.57 2134.61 1059.79
00035723 00000029 1776.24 410.33 619.04 885.98 1914.79 724.75 2194.73 757.51 2011.09 886.95 1903.10 1021.21 2136.28 1054.18
00035724 00000030 1776.59 411.41 620.00 876.17 1912.92 725.56 2191.46 754.97 2009.93 887.37 1904.19 1016.98 2139.46 1046.26
00035725 00000031 1776.40 410.36 617.42 869.24 1911.94 724.96 2187.54 752.60 2010.39 885.03 1905.21 1012.99 2139.18 1040.50
00035726 00000032 1775.79 406.91 615.71 867.78 1910.34 724.75 2185.37 751.24 2010.37 882.44 1904.33 1010.63 2138.95 1037.29
00035727 00000033 1777.97 406.98 615.31 865.79 1909.36 724.56 2185.04 747.32 2010.41 879.63 1907.47 1012.91 2141.53 1036.32
00035728 00000034 1779.91 407.43 612.78 862.68 1909.41 725.54 2184.63 746.57 2010.18 879.13 1907.87 1012.47 2144.83 1034.15
00035729 00000035 1780.94 409.27 611.92 859.35 1908.97 728.40 2181.42 745.77 2008.98 882.51 1910.43 1013.31 2142.87 1031.94
00035730 00000036 1782.70 410.45 610.22 860.52 1907.67 729.55 2180.96 745.57 2007.80 881.64 1910.32 1015.86 2143.48 1033.50
00035731 00000037 1777.38 410.16 613.49 863.13 1903.20 730.57 2176.51 745.95 2002.97 885.09 1908.50 1016.65 2139.23 1033.47
00035732 00000038 1771.43 407.45 615.41 862.87 1896.43 729.84 2171.17 743.77 1997.94 885.79 1905.89 1018.11 2130.90 1033.69
00035733 00000039 1768.73 405.55 613.07 862.24 1897.91 732.14 2165.45 742.87 1991.01 876.34 1896.25 1015.04 2138.15 1026.24
00035734 00000040 1762.66 403.72 615.87 862.32 1890.81 730.25 2159.59 741.06 1984.67 874.91 1887.77 1016.77 2132.77 1028.43
00035735 00000041 1760.52 399.41 614.31 866.65 1886.34 730.50 2153.00 738.50 1980.72 871.69 1887.02 1015.73 2127.58 1025.11
00035736 00000042 1761.34 398.04 614.05 866.88 1884.93 726.01 2150.06 733.21 1977.81 867.92 1886.81 1013.61 2127.24 1022.05
00035737 00000043 1761.08 394.33 613.02 866.83 1883.18 722.28 2151.57 730.04 1977.43 864.10 1886.88 1011.85 2125.87 1020.89
00035738 00000044 1760.59 394.31 609.86 868.65 1880.89 720.36 2149.47 727.34 1975.62 859.66 1885.12 1008.67 2123.58 1017.02
00035739 00000045 1757.12 393.63 607.72 865.02 1874.68 717.63 2146.63 725.05 1969.62 856.52 1880.88 1005.71 2118.41 1014.49
00035740 00000046 1751.35 388.77 607.61 868.78 1869.79 717.84 2140.59 724.31 1964.23 853.90 1879.16 1005.29 2112.32 1013.50
00035741 00000047 1743.50 389.28 605.06 864.45 1864.69 713.62 2133.32 720.66 1958.16 851.02 1874.40 999.51 2105.91 1007.86
00035742 00000048 1735.30 383.32 603.30 872.23 1854.92 709.02 2125.15 715.65 1951.14 846.59 1865.75 996.92 2098.07 1005.01
00035743 00000049 1731.30 381.74 601.31 865.82 1846.82 700.60 2116.67 705.34 1943.82 837.52 1860.97 994.58 2088.73 1000.99
00035744 00000050 1727.65 378.47 599.92 856.23 1837.78 687.68 2109.77 695.09 1934.35 828.89 1849.71 984.52 2077.41 992.95
00035745 00000051 1718.77 365.12 598.06 854.98 1832.77 681.67 2099.81 689.93 1921.62 826.20 1838.02 974.64 2069.96 983.49
00035746 00000052 1713.79 366.56 594.98 836.90 1827.66 677.31 2092.73 685.52 1919.38 820.02 1835.50 963.55 2060.99 972.92
00035747 00000053 1711.71 367.75 594.86 833.84 1822.75 671.22 2088.58 677.68 1914.47 812.95 1831.01 959.09 2057.21 967.08
00035748 00000054 1708.37 365.12 597.48 832.29 1819.42 668.27 2086.61 675.53 1910.56 810.07 1826.98 957.05 2053.87 965.94
00035749 00000055 1702.17 355.25 606.31 846.93 1809.55 664.09 2083.14 667.65 1910.89 811.24 1829.27 957.73 2048.19 965.32
00035750 00000056 1702.71 355.05 603.86 846.11 1812.49 662.26 2086.15 668.07 1914.95 810.52 1828.82 956.42 2049.02 966.04
00035751 00000057 1700.63 353.95 605.39 846.87 1813.99 660.70 2089.72 668.32 1918.95 810.26 1829.09 955.90 2051.24 966.90
00035752 00000058 1696.69 353.29 608.55 847.46 1816.61 658.42 2095.26 666.78 1925.97 808.31 1830.14 954.84 2057.30 966.29
00035753 00000059 1691.17 351.11 614.79 849.89 1820.69 655.52 2103.25 665.17 1935.81 809.17 1836.43 953.04 2062.76 965.07
00035754 00000060 1689.51 354.21 616.39 845.52 1828.80 651.06 2116.80 662.79 1951.40 802.30 1840.61 951.80 2073.24 965.23
00035755 00000061 1688.46 347.04 619.46 855.84 1839.32 643.45 2130.82 658.90 1966.04 794.12 1845.93 947.90 2086.71 964.12
00035756 00000062 1686.87 344.94 627.43 859.24 1851.21 633.81 2148.39 652.54 1981.98 784.66 1856.50 941.32 2098.36 960.22
00035757 00000063 1685.27 333.34 635.38 862.53 1860.34 621.09 2159.65 641.62 1997.83 775.80 1863.67 933.01 2108.18 953.11
00035758 00000064 1681.72 321.52 640.43 863.57 1865.50 611.90 2166.44 632.51 2009.01 766.44 1868.10 923.56 2115.47 943.43
00035759 00000065 1679.22 322.71 647.74 861.36 1868.16 598.44 2167.51 619.82 2010.84 754.51 1871.17 914.58 2115.07 935.15
00035760 00000066 1677.08 313.93 649.35 858.72 1870.24 588.43 2169.58 615.30 2012.61 748.90 1869.40 904.14 2113.21 928.96
00035761 00000067 1673.72 297.46 645.33 867.35 1865.44 583.40 2163.18 614.47 2005.45 744.02 1863.63 896.90 2102.54 925.21
00035762 00000068 1674.95 290.13 638.62 871.89 1857.13 585.34 2157.49 611.94 1995.96 740.46 1851.89 885.26 2105.78 910.43
00035763 00000069 1680.15 279.47 622.93 871.29 1855.42 595.71 2144.37 615.20 1986.88 736.82 1844.58 888.44 2104.54 908.19
00035764 00000070 1676.65 276.95 623.88 871.09 1850.95 595.17 2140.51 615.68 1981.22 736.19 1841.75 888.89 2097.04 909.49
00035765 00000071 1671.91 275.99 624.46 875.21 1846.95 597.79 2135.13 617.31 1977.87 737.49 1836.58 888.08 2095.98 908.02
00035766 00000072 1664.29 280.16 628.14 872.49 1841.52 601.92 2131.66 623.88 1971.71 742.65 1829.34 889.94 2091.83 911.96
00035767 00000073 1661.05 283.44 628.72 870.40 1841.34 608.38 2127.88 631.57 1968.79 746.96 1829.39 891.24 2089.05 913.96
00035768 00000074 1652.38 284.52 634.96 876.17 1840.03 613.50 2125.22 639.44 1966.90 755.36 1825.53 894.45 2086.19 919.20
00035769 00000075 1645.25 295.58 648.97 875.38 1838.66 617.29 2129.32 645.73 1966.25 768.14 1828.35 908.05 2081.86 933.15
00035770 00000076 1647.27 311.79 649.87 864.16 1833.91 617.75 2129.87 647.25 1966.06 780.43 1821.64 910.63 2069.33 938.40
00035771 00000077 1646.88 319.99 649.17 860.65 1834.38 628.19 2127.91 658.25 1966.22 796.14 1824.93 922.03 2070.68 949.67
00035772 00000078 1646.75 330.83 643.67 859.04 1831.08 636.59 2124.70 666.65 1963.70 805.36 1821.42 929.90 2067.02 957.80
00035773 00000079 1646.10 347.78 641.36 856.34 1826.15 649.25 2123.44 676.78 1961.08 818.03 1820.89 942.49 2064.71 968.84
00035774 00000080 1640.45 343.97 647.13 868.33 1823.33 656.73 2119.58 685.49 1956.29 827.32 1815.05 948.00 2061.44 975.16
00035775 00000081 1637.45 344.38 638.65 886.78 1824.30 675.11 2109.16 699.39 1947.89 837.97 1812.67 960.50 2068.03 983.28
00035776 00000082 1634.12 344.47 641.67 897.98 1818.30 680.98 2113.90 705.13 1952.80 857.06 1807.57 973.30 2058.53 997.93
00035777 00000083 1633.67 346.30 642.03 903.95 1814.35 678.76 2113.33 704.76 1950.29 860.34 1800.31 977.90 2056.37 1004.82
00035778 00000084 1631.37 344.37 641.80 905.86 1811.38 679.33 2110.89 704.24 1947.70 862.36 1798.41 978.46 2054.66 1004.56
00035779 00000085 1633.28 342.47 641.60 909.09 1813.46 674.05 2111.44 701.25 1945.93 859.09 1797.84 974.93 2054.73 1002.94
00035780 00000086 1638.21 337.79 642.59 897.88 1815.60 670.44 2102.99 697.20 1933.79 841.46 1806.36 969.52 2054.47 994.23
00035781 00000087 1647.88 338.32 638.23 886.35 1824.92 661.43 2110.35 691.13 1937.54 830.19 1809.56 956.04 2058.05 983.70
00035782 00000088 1651.08 341.82 647.11 869.25 1825.81 644.74 2122.95 680.76 1948.55 822.30 1812.76 945.78 2059.85 979.43
00035783 00000089 1658.45 340.78 646.18 861.92 1833.32 639.36 2131.86 680.33 1956.12 816.52 1818.05 938.49 2062.50 976.40
00035784 00000090 1668.73 340.20 642.74 856.23 1841.56 637.62 2138.17 680.61 1961.38 812.29 1824.25 935.84 2066.29 975.48
00035785 00000091 1676.80 342.51 642.45 856.12 1848.54 635.23 2146.73 679.91 1968.53 811.72 1829.92 934.22 2074.17 975.49
00035786 00000092 1682.66 343.92 638.35 854.88 1856.86 634.34 2153.50 681.74 1976.12 813.91 1835.67 932.19 2079.81 975.72
00035787 00000093 1692.79 341.90 633.71 856.55 1861.75 636.73 2158.91 686.35 1979.06 816.21 1837.76 931.44 2083.03 977.05
00035788 00000094 1696.70 343.74 631.45 853.35 1863.13 638.31 2158.83 685.79 1977.99 817.58 1840.93 932.16 2083.42 975.90
00035789 00000095 1695.81 340.85 632.05 857.95 1862.05 637.19 2158.31 685.06 1976.24 815.98 1841.05 931.86 2083.62 975.71
00035790 00000096 1696.68 336.49 627.08 854.64 1860.63 638.73 2149.31 680.79 1961.46 812.76 1834.53 930.84 2083.63 967.02
00035791 00000097 1698.45 345.15 624.91 847.19 1858.93 633.99 2152.28 678.74 1970.63 809.58 1840.84 931.06 2080.37 972.44
00035792 00000098 1697.09 334.36 623.75 854.70 1857.19 636.35 2142.87 672.89 1955.50 806.18 1836.64 931.00 2079.56 962.93
00035793 00000099 1702.80 334.92 618.51 854.99 1857.75 639.42 2140.49 671.49 1955.60 803.34 1840.71 932.11 2080.56 960.62
00035794 00000100 1710.21 354.55 608.49 836.20 1858.89 639.41 2145.00 673.19 1968.51 807.46 1851.74 934.10 2082.25 966.29
00035795 00000101 1708.53 339.33 610.28 852.37 1858.31 644.53 2139.72 671.09 1959.34 804.61 1847.49 937.01 2088.89 961.03
00035796 00000102 1712.19 346.19 606.39 849.66 1861.64 650.60 2140.76 675.10 1962.47 806.35 1851.99 941.22 2092.10 963.54
00035797 00000103 1719.23 354.20 602.70 843.04 1867.96 657.60 2143.91 681.76 1965.45 811.50 1859.90 944.97 2095.55 966.93
00035798 00000104 1724.06 354.99 597.23 847.85 1870.41 663.40 2145.28 686.67 1969.52 815.91 1861.89 948.21 2099.86 969.61
00035799 00000105 1725.07 356.18 600.70 849.64 1873.46 667.30 2148.04 689.56 1973.05 819.02 1869.21 954.21 2102.34 974.61
00035800 00000106 1725.66 363.07 599.37 840.56 1873.79 671.98 2149.59 693.53 1976.01 819.95 1872.06 958.87 2102.82 978.75
00035801 00000107 1724.86 368.47 600.18 835.61 1874.05 675.23 2148.87 696.22 1976.67 823.34 1872.82 961.72 2103.02 980.97
00035802 00000108 1721.21 371.14 602.46 828.68 1869.44 679.84 2146.68 699.67 1973.75 825.44 1870.02 963.81 2100.85 982.12
00035803 00000109 1722.33 374.40 599.42 825.26 1866.82 681.93 2144.09 701.27 1970.57 827.83 1869.08 966.62 2099.23 984.45
00035804 00000110 1717.71 375.49 603.43 824.94 1860.17 680.30 2139.58 700.33 1963.05 828.10 1864.05 967.44 2094.50 985.71
00035805 00000111 1716.00 377.95 603.26 830.04 1851.78 684.53 2132.81 701.28 1959.34 832.19 1861.37 970.48 2085.00 988.40
00035806 00000112 1705.18 376.22 607.93 836.16 1840.71 687.31 2120.70 699.00 1951.50 832.61 1855.48 974.70 2079.43 988.12
00035807 00000113 1699.78 382.63 610.27 847.51 1833.43 691.22 2112.68 699.70 1945.96 834.98 1853.79 981.61 2066.04 993.00
00035808 00000114 1690.27 379.91 613.06 867.53 1826.73 695.16 2106.16 702.97 1941.05 836.28 1846.91 989.61 2061.48 1000.31
00035809 00000115 1686.83 388.23 607.22 860.82 1818.44 699.28 2094.02 705.67 1934.46 844.40 1841.40 995.10 2056.13 1004.62
00035810 00000116 1679.77 392.49 610.44 860.99 1810.83 704.14 2087.59 709.01 1928.54 851.07 1830.42 996.33 2057.26 1004.24
00035811 00000117 1672.01 394.25 611.83 864.60 1802.69 702.87 2082.55 708.26 1920.82 848.49 1821.52 996.65 2054.13 1004.83
00035812 00000118 1662.70 394.28 611.82 867.06 1796.54 706.16 2075.07 711.90 1914.68 851.06 1813.74 996.86 2048.01 1005.22
00035813 00000119 1653.17 398.02 611.03 854.51 1790.43 712.35 2064.33 717.33 1903.31 853.49 1804.93 996.33 2041.20 1002.94
00035814 00000120 1632.83 382.61 623.96 868.54 1780.79 720.49 2059.32 724.81 1888.66 855.78 1790.74 999.71 2037.86 1005.64
00035815 00000121 1630.18 383.19 613.74 858.58 1774.64 720.35 2048.40 723.93 1880.75 852.56 1784.24 995.27 2025.73 1001.08
00035816 00000122 1623.41 380.99 611.12 856.67 1763.96 710.52 2038.19 714.98 1873.41 842.77 1781.54 990.49 2011.01 996.97
00035817 00000123 1617.86 377.14 612.91 852.43 1754.54 716.23 2026.15 713.24 1863.23 846.29 1778.01 994.42 2004.48 994.71
00035818 00000124 1614.24 373.15 611.98 849.50 1747.02 710.61 2020.83 708.31 1856.80 844.95 1771.52 992.99 1998.76 993.65
00035819 00000125 1606.83 375.88 610.27 848.31 1739.04 709.78 2014.89 707.58 1851.00 845.39 1763.09 992.71 1993.41 993.02
00035820 00000126 1603.59 382.64 606.01 838.06 1735.42 710.38 2009.67 708.11 1848.58 848.07 1759.26 993.30 1988.89 993.05
00035821 00000127 1603.53 388.06 600.97 841.77 1734.53 713.82 2007.62 713.40 1846.14 852.27 1753.96 997.87 1987.87 999.13
00035822 00000128 1605.57 392.74 598.98 845.68 1733.75 717.42 2005.72 716.61 1843.46 855.23 1752.89 1004.31 1982.52 1005.60
00035823 00000129 1608.92 392.47 603.82 865.82 1739.86 727.21 2008.04 725.67 1841.31 865.98 1753.96 1013.57 1989.67 1015.04
00035824 00000130 1609.52 399.59 600.59 863.41 1740.83 732.85 2007.63 729.25 1843.82 871.85 1758.35 1020.11 1995.70 1019.54
00035825 00000131 1604.72 403.63 603.22 866.84 1736.85 734.99 2006.17 730.74 1842.38 873.60 1757.96 1028.55 1992.64 1027.24
00035826 00000132 1601.99 406.00 602.43 873.01 1733.08 734.63 2002.65 730.81 1837.96 873.70 1753.11 1029.78 1990.40 1028.47
00035827 00000133 1600.36 405.14 598.98 868.36 1725.26 727.49 1995.31 726.46 1838.86 873.36 1754.34 1021.97 1971.64 1024.59
00035828 00000134 1593.60 398.20 609.38 873.22 1728.05 729.63 2001.41 728.18 1835.70 867.43 1742.70 1020.76 1986.19 1021.32
00035829 00000135 1595.77 389.86 612.34 870.57 1730.21 726.11 2003.34 725.77 1836.19 864.44 1743.06 1013.01 1983.62 1015.13
00035830 00000136 1601.68 391.40 603.93 834.25 1734.62 714.89 2008.95 718.72 1845.66 854.24 1750.35 999.05 1980.41 1004.36
00035831 00000137 1604.59 383.58 608.66 833.49 1743.80 712.18 2018.25 716.34 1856.44 849.56 1760.03 991.95 1990.86 997.66
00035832 00000138 1612.76 358.55 615.46 857.53 1746.20 706.75 2029.45 711.68 1859.93 835.51 1764.76 988.79 2001.42 996.63
00035833 00000139 1618.13 346.08 615.62 865.90 1752.42 697.22 2036.76 701.17 1866.13 828.21 1770.17 982.50 2005.83 990.09
00035834 00000140 1627.42 341.19 607.26 859.88 1757.27 689.05 2042.54 694.24 1870.54 823.07 1775.27 976.34 2009.23 985.18
00035835 00000141 1627.23 354.60 615.54 843.47 1761.24 683.23 2044.10 689.98 1872.02 821.20 1780.03 971.05 2004.57 979.73
00035836 00000142 1626.97 355.86 614.68 840.67 1765.48 679.73 2047.88 687.02 1876.83 819.71 1783.16 967.48 2008.75 976.49
00035837 00000143 1631.98 357.44 613.67 836.77 1770.36 676.18 2053.38 684.56 1883.13 818.42 1789.07 966.39 2014.40 975.85
00035838 00000144 1634.16 358.41 616.47 838.52 1774.61 676.85 2058.06 685.87 1887.52 819.20 1792.92 967.69 2019.50 977.50
00035839 00000145 1636.75 358.11 617.46 841.16 1779.21 677.09 2064.89 687.50 1893.60 818.20 1795.69 968.34 2025.39 979.03
00035840 00000146 1640.76 366.25 615.92 837.34 1786.48 678.37 2070.34 689.05 1902.66 820.43 1800.15 969.43 2031.82 980.26
00035841 00000147 1650.92 370.95 603.65 830.17 1793.19 684.37 2070.73 695.31 1913.88 832.13 1806.29 967.53 2028.76 979.49
00035842 00000148 1651.50 376.26 603.42 830.01 1798.99 691.36 2075.30 703.49 1921.06 838.99 1809.95 971.97 2034.06 984.77
00035843 00000149 1651.96 386.48 608.03 837.54 1803.03 699.21 2086.02 710.49 1926.73 843.04 1815.38 989.11 2044.53 999.60
00035844 00000150 1655.07 391.17 611.64 853.22 1814.33 710.32 2088.08 721.09 1933.94 857.46 1821.95 1001.49 2049.12 1011.70
00035845 00000151 1665.90 403.29 607.10 853.52 1823.89 729.14 2096.63 735.14 1938.08 878.68 1833.67 1017.24 2064.27 1024.88
00035846 00000152 1669.95 406.03 608.91 863.36 1832.68 740.99 2108.59 746.65 1953.93 896.16 1842.58 1029.70 2075.73 1036.89
00035847 00000153 1672.81 409.35 612.72 878.07 1845.37 753.15 2119.59 766.54 1966.48 907.61 1850.33 1040.66 2080.22 1054.53
00035848 00000154 1670.90 414.06 620.96 884.85 1851.14 768.03 2133.01 782.27 1980.72 921.30 1854.76 1053.08 2093.76 1068.36
00035849 00000155 1677.52 419.92 618.56 883.78 1859.02 773.26 2140.03 785.72 1991.89 934.55 1861.22 1059.96 2098.53 1072.80
00035850 00000156 1679.11 427.72 616.23 890.85 1861.62 777.23 2142.51 790.49 1995.52 943.93 1858.75 1067.01 2104.79 1080.57
00035851 00000157 1679.77 435.06 617.25 890.57 1864.47 786.30 2143.49 795.79 2000.94 953.66 1865.02 1074.67 2111.61 1084.98
00035852 00000158 1686.46 439.89 615.19 894.92 1868.12 792.18 2149.41 800.22 2006.09 963.29 1876.90 1089.03 2117.73 1097.27
00035853 00000159 1697.30 440.13 609.16 893.86 1875.10 793.11 2158.30 801.64 2014.12 967.90 1886.77 1093.06 2122.99 1101.48
00035854 00000160 1703.08 440.27 612.48 891.13 1884.03 792.42 2168.86 805.91 2021.17 964.19 1890.26 1090.81 2127.50 1103.57
