Video ID: 	D6xtZC6NaDE
H: 	1080
W: 	1920
FPS: 	25.0

FRAME INDEX X0 Y0 W H [Landmarks (5 Points)]

00004753 00000000 339.12 66.84 324.90 446.88
00004754 00000001 339.52 64.81 324.85 447.21
00004755 00000002 341.16 65.19 325.09 449.16
00004756 00000003 342.79 65.57 325.34 451.10
00004757 00000004 344.43 65.94 325.58 453.04
00004758 00000005 346.07 66.32 325.83 454.99
00004759 00000006 347.71 66.70 326.07 456.93
00004760 00000007 350.77 65.08 326.57 457.50
00004761 00000008 353.82 63.45 327.08 458.06
00004762 DELETE   356.88 61.83 327.58 458.63
00004763 00000010 359.94 60.21 328.08 459.19
00004764 DELETE   363.00 58.58 328.59 459.76
00004765 00000012 365.41 60.59 329.51 460.46
00004766 DELETE   367.83 62.59 330.43 461.16
00004767 00000014 370.24 64.60 331.35 461.86
00004768 00000015 372.66 66.60 332.27 462.56
00004769 00000016 375.07 68.61 333.19 463.27
00004770 00000017 377.41 67.90 333.44 463.25
00004771 00000018 379.74 67.20 333.69 463.23
00004772 00000019 382.08 66.50 333.94 463.22
00004773 00000020 384.42 65.79 334.19 463.20
00004774 00000021 386.75 65.09 334.44 463.18
00004775 00000022 746.51 173.40 522.35 707.29 832.95 450.55 1067.36 409.73 948.31 612.96 905.20 701.16 1115.93 664.40
00004776 00000023 742.65 175.81 523.98 709.15 829.52 453.49 1064.50 411.54 943.80 620.72 904.99 706.14 1114.42 668.66
00004777 00000024 738.36 173.35 527.39 717.97 826.60 456.93 1058.86 416.93 936.86 624.69 900.65 710.14 1109.82 674.15
00004778 00000025 734.78 180.47 522.50 719.98 823.93 454.88 1063.23 420.88 945.90 630.00 894.87 719.72 1105.68 689.93
00004779 00000026 729.92 178.77 522.77 715.43 818.06 453.55 1057.21 420.62 938.17 628.02 885.64 714.88 1098.03 686.05
00004780 00000027 722.40 187.40 521.49 681.15 819.85 451.44 1052.96 414.40 939.96 609.32 892.35 707.05 1092.85 673.30
00004781 00000028 714.44 183.17 524.43 681.06 816.17 444.97 1051.42 411.57 935.82 605.76 883.96 700.45 1086.17 670.57
00004782 00000029 708.08 164.54 530.10 704.23 802.01 436.54 1042.80 410.71 918.27 608.28 868.02 691.11 1078.31 667.61
00004783 00000030 707.55 157.98 530.80 709.23 800.88 431.92 1042.74 409.07 915.52 603.08 863.28 689.28 1075.62 668.16
00004784 00000031 708.18 153.62 526.66 715.62 799.63 431.97 1039.70 407.99 912.69 600.15 860.40 689.25 1073.29 667.26
00004785 00000032 709.37 156.30 524.92 710.18 799.74 430.28 1039.09 406.27 912.04 595.62 861.47 687.27 1072.59 665.31
00004786 00000033 712.17 154.82 522.18 708.20 800.56 429.22 1040.01 404.82 912.87 591.85 861.82 686.38 1072.69 664.13
00004787 00000034 714.24 154.69 520.71 707.95 801.27 431.05 1041.00 404.05 913.37 588.84 862.01 686.95 1074.21 662.59
00004788 00000035 716.59 154.48 517.83 708.13 801.37 435.28 1039.54 403.56 913.74 588.50 866.63 690.06 1076.31 661.94
00004789 00000036 716.71 157.01 519.12 705.81 801.57 436.69 1038.05 403.89 914.23 589.77 870.27 691.01 1077.07 662.06
00004790 00000037 714.57 156.23 520.00 706.28 801.23 437.38 1036.70 403.40 914.99 589.81 871.56 691.14 1077.40 661.19
00004791 00000038 712.30 159.05 521.85 705.59 800.44 439.26 1034.32 403.35 915.25 592.09 873.58 693.25 1077.54 661.64
00004792 00000039 709.60 156.95 524.85 707.87 799.58 440.10 1034.70 402.97 916.05 592.50 874.39 694.33 1078.88 661.57
00004793 00000040 705.83 153.51 527.30 713.22 796.92 440.37 1033.47 402.70 913.42 592.06 871.40 695.35 1077.74 662.02
00004794 00000041 700.82 151.81 531.62 718.78 792.13 440.12 1028.46 402.19 908.60 596.31 868.97 697.85 1074.53 664.20
00004795 00000042 704.49 158.23 521.22 717.13 796.23 448.85 1024.21 408.79 912.03 596.23 869.42 702.84 1072.76 669.39
00004796 00000043 697.60 158.40 523.20 721.69 791.68 457.65 1017.77 415.42 908.64 599.94 864.70 709.27 1067.40 673.76
00004797 00000044 688.33 161.05 531.44 725.95 782.85 458.45 1010.40 414.80 899.71 603.39 860.25 713.87 1062.35 677.02
00004798 00000045 681.76 160.29 536.55 733.92 774.46 455.84 1007.19 414.27 890.94 605.18 849.22 717.15 1055.18 681.73
00004799 00000046 667.27 162.33 536.98 738.08 759.59 450.83 1000.21 411.45 875.63 608.65 831.41 715.94 1042.73 680.73
00004800 00000047 660.31 161.81 539.03 743.60 750.95 451.58 993.37 411.08 868.09 611.82 824.76 722.06 1035.27 685.84
00004801 00000048 656.51 166.66 538.50 742.50 745.58 449.66 987.28 412.04 861.00 616.73 817.12 725.71 1025.72 692.25
00004802 00000049 643.13 165.37 546.20 753.58 741.09 452.27 980.90 420.35 854.39 622.55 814.42 730.10 1021.88 700.37
00004803 00000050 637.28 169.01 553.43 757.49 736.51 455.71 980.14 424.12 851.46 629.01 808.06 733.61 1021.22 704.49
00004804 00000051 635.05 163.02 552.46 765.72 734.22 462.75 979.97 430.90 850.84 634.87 806.42 741.15 1017.74 712.16
00004805 00000052 627.52 164.88 556.95 770.04 726.61 466.74 975.66 434.91 843.75 640.98 798.17 746.31 1011.53 717.36
00004806 00000053 621.23 164.12 558.66 779.55 717.50 469.13 971.33 436.78 834.40 646.49 787.42 751.29 1007.38 721.81
00004807 00000054 619.68 168.57 552.17 777.26 710.13 471.29 962.70 441.24 824.66 654.95 780.18 754.91 996.57 727.71
00004808 00000055 609.94 173.04 559.59 779.60 703.47 476.95 957.85 444.74 820.56 661.04 775.99 760.47 994.91 731.36
00004809 00000056 603.40 178.34 564.13 779.27 696.23 481.44 953.67 446.95 815.24 666.35 770.16 764.52 993.77 733.45
00004810 00000057 596.76 187.49 568.25 774.47 690.95 485.30 950.36 449.37 811.93 671.73 767.30 767.25 993.61 734.81
00004811 00000058 589.56 188.44 572.22 775.12 685.22 488.04 945.03 450.46 805.89 674.95 763.99 770.84 990.04 737.07
00004812 00000059 581.34 190.07 576.65 776.52 679.66 491.20 939.49 452.56 799.77 676.00 760.80 774.99 983.62 740.50
00004813 00000060 574.60 194.47 579.12 776.06 675.89 495.39 934.81 456.01 796.32 679.97 758.20 776.98 980.19 741.99
00004814 00000061 573.84 184.76 586.68 794.82 679.66 502.15 935.82 462.32 802.89 680.64 765.86 785.25 985.34 750.84
00004815 00000062 570.06 188.54 592.68 795.20 679.60 505.95 935.02 464.42 804.82 686.59 770.63 792.33 987.07 756.49
00004816 00000063 570.17 187.30 594.51 798.59 681.99 509.06 938.17 465.24 810.83 691.27 775.96 797.72 992.00 760.00
00004817 00000064 579.30 183.42 585.62 805.64 689.38 511.36 941.36 468.47 815.66 690.74 780.61 798.20 995.01 761.29
00004818 00000065 584.10 188.24 583.98 796.61 695.78 510.70 948.99 469.95 827.45 695.25 788.62 797.92 1000.89 763.01
00004819 00000066 593.47 196.21 580.32 788.57 703.81 510.34 956.59 470.96 835.00 695.59 794.82 796.54 1008.69 762.72
00004820 00000067 596.65 194.85 575.32 790.16 705.68 508.34 962.22 469.29 832.41 697.82 792.87 796.59 1010.04 761.73
00004821 00000068 602.97 193.17 575.16 786.54 710.05 506.13 966.73 467.99 836.14 693.61 796.57 792.32 1012.20 758.47
00004822 00000069 606.85 189.62 576.00 786.85 713.62 506.27 969.23 468.02 839.18 691.40 800.14 788.21 1017.04 754.08
00004823 00000070 612.65 187.68 574.54 788.32 718.22 506.43 971.92 468.33 842.05 689.85 803.62 786.40 1020.13 752.62
00004824 00000071 616.46 189.58 575.07 787.27 720.95 506.60 974.71 470.22 843.51 691.97 805.38 786.62 1021.99 754.28
00004825 00000072 617.74 190.49 578.33 788.43 724.07 506.69 978.14 471.41 846.97 690.75 806.50 788.93 1021.49 757.76
00004826 00000073 622.17 191.97 576.13 787.69 729.54 507.66 981.86 473.27 853.25 691.18 812.95 790.04 1024.81 759.52
00004827 00000074 630.64 193.51 569.89 787.49 735.75 507.50 990.07 473.11 861.75 691.63 816.79 790.61 1030.53 760.36
00004828 00000075 636.18 195.31 575.11 789.92 743.97 506.63 996.62 475.72 866.22 691.70 821.48 788.91 1037.53 761.51
00004829 00000076 640.33 198.90 573.86 788.15 748.28 506.94 999.16 477.73 867.05 691.50 821.93 788.81 1038.98 762.88
00004830 00000077 645.28 197.38 568.40 785.55 749.52 501.72 1001.06 476.44 865.32 690.48 819.24 783.81 1037.22 761.40
00004831 00000078 650.26 193.85 565.17 781.72 752.83 497.48 1003.40 473.78 866.66 685.48 820.57 777.60 1037.18 756.62
00004832 00000079 652.38 188.23 562.42 778.80 753.13 495.04 1002.82 470.02 866.59 679.64 822.64 772.73 1039.05 750.59
00004833 00000080 653.84 188.25 558.36 770.65 751.08 491.09 1003.62 466.38 865.96 674.92 821.44 767.62 1038.41 745.75
00004834 00000081 654.66 190.80 557.35 766.07 750.20 487.43 1001.78 461.92 864.34 670.32 819.44 763.72 1038.08 741.12
00004835 00000082 657.86 196.28 549.63 761.01 745.09 484.73 1002.31 451.48 862.14 672.34 816.48 763.52 1040.80 733.79
00004836 00000083 335.71 78.10 359.67 487.04
00004837 00000084 336.81 76.95 359.43 486.68
00004838 00000085 337.92 75.80 359.18 486.33
00004839 00000086 339.02 74.65 358.94 485.97
00004840 00000087 338.29 73.33 358.52 486.01
00004841 00000088 337.56 72.02 358.10 486.06
00004842 00000089 336.83 70.70 357.68 486.10
00004843 00000090 336.10 69.38 357.26 486.14
00004844 00000091 335.37 68.06 356.84 486.19
00004845 00000092 333.47 68.71 356.59 485.82
00004846 00000093 331.57 69.35 356.34 485.44
00004847 00000094 618.98 185.74 544.73 754.78 707.94 482.06 952.99 449.51 819.56 654.42 780.16 757.08 991.94 727.68
00004848 00000095 616.88 186.72 543.49 753.02 704.44 481.01 949.91 448.90 815.15 654.33 775.54 756.03 987.34 727.20
00004849 00000096 613.17 193.04 544.36 746.83 700.31 480.38 947.55 449.52 811.77 656.00 770.02 755.06 984.36 727.34
00004850 00000097 613.30 199.40 542.50 737.98 698.47 480.95 945.79 450.99 808.54 656.30 767.22 753.97 981.60 727.13
00004851 00000098 613.73 199.36 540.79 736.54 698.57 480.49 945.09 450.90 808.24 656.34 766.09 751.70 981.80 725.05
00004852 00000099 611.98 200.52 538.67 728.98 699.36 477.47 945.12 449.58 810.70 656.17 767.28 747.86 979.61 722.67
00004853 00000100 615.22 194.45 533.60 730.34 701.98 475.36 947.51 445.11 814.43 651.20 771.47 745.93 983.61 718.65
00004854 00000101 618.44 190.91 530.08 730.75 708.38 473.33 950.89 439.95 821.26 645.75 779.76 741.17 989.33 711.22
00004855 00000102 620.91 189.81 533.94 729.02 716.71 471.34 956.36 437.34 831.12 640.51 791.64 738.10 997.65 707.10
00004856 00000103 621.49 187.40 535.20 728.59 724.15 474.60 960.94 435.64 844.62 636.28 804.45 737.60 1008.43 702.09
00004857 00000104 629.95 188.82 534.37 721.52 732.18 476.84 964.96 434.22 853.17 632.45 814.73 737.00 1015.99 698.53
00004858 00000105 636.16 193.36 535.73 713.23 740.72 475.43 970.99 435.10 859.13 631.54 822.76 734.66 1021.05 698.03
00004859 00000106 647.86 198.68 531.88 704.04 747.99 479.09 978.08 438.58 863.61 631.26 829.59 736.99 1026.44 700.53
00004860 00000107 652.56 199.95 531.38 702.37 754.34 483.71 983.66 440.77 872.38 629.04 837.77 740.31 1031.76 702.23
00004861 00000108 661.54 202.91 530.15 697.56 760.71 485.30 989.48 442.38 878.85 630.53 843.76 738.83 1037.93 700.96
00004862 00000109 674.95 204.13 520.96 696.31 769.81 486.29 996.97 443.54 885.90 629.63 850.24 737.71 1042.62 700.36
00004863 00000110 683.42 207.59 514.23 692.53 781.48 495.66 994.45 453.91 890.25 630.42 857.15 736.01 1043.10 699.62
00004864 00000111 690.60 212.99 511.42 687.48 785.60 496.73 997.08 456.54 892.51 632.49 859.25 735.59 1045.62 700.86
00004865 00000112 691.81 210.67 514.14 688.18 784.03 492.04 1001.42 453.24 892.37 632.03 858.89 734.97 1046.38 701.52
00004866 00000113 692.29 205.95 514.46 694.34 780.23 486.64 1003.87 446.22 888.15 635.57 854.73 735.00 1048.37 699.01
00004867 00000114 693.54 202.83 514.59 696.65 780.94 483.84 1006.21 443.10 889.28 633.54 855.80 733.19 1051.04 696.90
00004868 00000115 692.92 202.88 513.48 696.80 779.20 483.22 1005.42 442.14 887.45 632.38 852.68 732.98 1049.04 696.59
00004869 00000116 687.29 208.89 515.58 691.45 772.09 483.25 1000.83 442.28 881.80 633.68 846.45 737.29 1040.90 701.49
00004870 00000117 680.98 211.62 521.02 691.10 766.75 484.30 995.96 443.76 876.30 637.12 840.76 737.56 1038.73 702.00
00004871 00000118 681.39 218.56 513.82 686.87 763.59 489.14 995.35 438.27 872.35 640.51 841.52 741.68 1041.97 696.36
00004872 00000119 678.15 214.41 519.04 693.57 768.79 491.95 996.97 454.67 880.69 642.77 846.48 744.42 1041.53 712.20
00004873 00000120 677.86 215.59 520.45 692.61 766.61 493.19 996.13 451.48 879.40 650.46 844.09 744.93 1041.41 708.45
00004874 00000121 678.30 216.13 520.23 691.32 768.84 492.61 997.76 451.50 882.13 649.40 845.39 743.40 1042.25 707.32
00004875 00000122 681.54 216.20 519.05 691.97 772.49 491.79 1000.32 451.01 886.09 650.94 850.68 741.56 1046.74 705.54
00004876 00000123 686.03 215.62 517.93 692.71 775.61 489.00 1004.61 449.03 888.55 648.29 853.36 740.64 1050.98 705.18
00004877 00000124 691.53 211.73 515.71 694.92 780.93 486.87 1006.84 448.34 891.02 645.03 856.40 737.76 1053.76 703.41
00004878 00000125 693.85 206.90 514.74 700.25 781.51 484.21 1008.26 446.85 890.61 643.87 855.28 736.53 1053.97 703.14
00004879 00000126 695.06 206.76 513.64 701.26 782.34 483.76 1009.02 446.11 890.66 643.67 855.66 736.47 1055.79 702.77
00004880 00000127 695.79 205.11 514.04 702.41 782.59 481.00 1010.38 444.91 890.38 642.89 854.68 734.60 1055.29 702.23
00004881 00000128 696.82 202.16 514.28 705.95 782.33 480.03 1010.80 444.98 888.55 642.53 852.33 734.26 1053.63 702.93
00004882 00000129 697.77 205.83 514.62 704.82 781.25 479.45 1010.92 445.07 886.60 642.72 850.90 734.95 1053.90 704.19
00004883 00000130 696.24 206.30 516.94 703.77 779.57 477.53 1011.18 444.37 885.18 642.42 848.24 735.23 1050.42 705.68
00004884 00000131 696.21 203.30 516.64 707.60 778.72 476.16 1011.51 444.46 883.89 642.12 845.56 735.83 1048.04 707.61
00004885 00000132 694.85 200.88 515.31 711.07 776.72 475.12 1011.49 445.05 882.22 642.95 841.12 736.45 1044.52 709.81
00004886 00000133 691.64 196.05 515.25 718.13 774.52 472.90 1011.20 444.23 880.34 642.63 837.67 738.18 1042.17 712.82
00004887 00000134 684.58 194.58 517.87 718.03 768.98 473.35 1007.83 444.13 878.04 641.45 832.05 738.75 1037.16 712.97
00004888 00000135 682.91 199.35 517.47 714.91 762.06 473.35 1004.05 439.58 868.22 643.35 828.31 741.14 1035.93 710.47
00004889 00000136 674.52 196.82 517.54 718.41 754.22 473.05 998.13 440.65 858.75 645.57 817.94 741.96 1027.69 712.30
00004890 00000137 660.98 190.90 526.81 729.24 749.52 473.30 987.96 451.82 853.97 640.28 810.99 741.57 1013.79 721.93
00004891 00000138 653.03 194.68 526.49 724.99 740.72 473.97 980.72 453.64 844.94 642.18 801.73 743.09 1005.57 724.58
00004892 00000139 641.49 191.77 528.71 728.58 729.74 471.95 971.05 450.19 835.68 641.45 790.92 745.41 996.04 725.78
00004893 00000140 635.53 191.89 526.40 736.00 721.01 472.84 962.94 449.89 824.75 642.06 778.59 746.66 987.44 726.16
00004894 00000141 626.89 190.52 527.78 740.08 709.75 472.62 954.24 447.55 814.38 644.31 767.09 747.60 980.61 725.13
00004895 00000142 613.39 192.62 530.80 740.07 695.69 471.13 946.71 446.77 803.76 644.49 753.99 754.90 967.60 733.47
00004896 00000143 602.22 194.88 530.50 742.92 682.49 475.56 936.48 447.85 793.41 648.63 744.49 758.95 960.45 734.59
00004897 00000144 593.13 197.47 534.37 747.53 676.16 478.99 929.19 449.55 781.85 659.06 738.11 759.46 954.67 732.60
00004898 00000145 584.46 198.63 540.94 756.95 669.98 489.10 921.51 466.08 775.39 669.13 732.37 766.82 947.78 746.28
00004899 00000146 580.75 197.99 549.31 763.13 672.78 492.53 920.60 474.37 779.27 673.93 735.29 769.47 945.97 752.84
00004900 00000147 578.23 209.90 551.15 761.30 672.55 497.98 921.93 479.31 781.41 682.32 737.46 780.00 948.05 763.33
00004901 00000148 582.27 215.29 550.51 760.65 677.10 499.55 923.90 481.46 784.99 686.19 741.57 783.44 951.73 767.30
00004902 00000149 585.71 212.38 548.59 764.57 682.83 501.52 928.50 480.70 792.80 686.85 749.48 785.52 958.15 767.22
00004903 00000150 587.22 211.34 550.30 765.29 686.16 501.74 932.90 478.80 798.43 685.34 754.46 784.59 964.83 764.59
00004904 00000151 594.29 209.40 547.59 765.80 693.05 501.49 935.89 477.16 803.85 679.92 762.39 784.21 970.06 762.98
00004905 00000152 602.40 212.14 546.08 757.14 699.83 502.27 941.78 476.19 812.03 676.30 769.42 780.74 975.27 758.37
00004906 00000153 606.30 211.19 548.05 751.18 704.67 503.02 945.66 476.28 817.59 675.95 775.48 776.07 981.91 753.33
00004907 00000154 603.78 210.80 545.42 746.71 698.36 503.65 944.64 474.24 810.94 681.20 768.94 768.87 982.25 742.50
00004908 00000155 605.43 204.14 543.58 747.47 699.79 500.77 946.66 471.86 812.87 678.40 769.60 765.68 984.64 739.63
00004909 00000156 609.01 203.31 543.25 746.12 703.11 498.39 947.73 469.45 816.01 677.46 772.64 763.16 988.22 736.98
00004910 00000157 616.52 203.85 539.97 738.94 708.52 495.40 950.37 468.61 819.24 672.09 778.40 759.84 988.77 735.45
00004911 00000158 618.30 198.65 538.92 738.25 709.56 491.54 951.68 464.06 820.91 667.77 781.01 758.95 986.92 734.20
00004912 00000159 621.98 201.68 538.40 732.14 712.00 487.17 952.22 461.62 819.77 663.52 782.18 756.70 987.57 733.55
00004913 00000160 625.17 199.97 537.73 733.36 716.59 485.66 956.78 459.37 825.13 659.20 786.40 755.40 989.94 731.74
00004914 00000161 631.98 199.67 534.53 731.41 721.87 485.05 961.40 458.86 828.88 654.30 789.15 754.46 993.46 730.95
CROP_BBOX: 256 0 1502 1080
