Video ID: 	KLUjmOoHHFw
H: 	1080
W: 	1920
FPS: 	29.97002997002997

FRAME INDEX X0 Y0 W H [Landmarks (5 Points)]

00001432 00000000 1288.98 213.49 507.63 634.25 1464.19 361.14 1687.10 400.93 1571.24 539.11 1444.00 624.51 1628.60 656.56
00001433 00000001 1283.65 218.84 506.08 632.92 1459.41 361.91 1677.55 400.60 1564.83 543.62 1436.52 628.03 1618.02 659.74
00001434 00000002 1277.03 233.36 508.90 631.78 1452.78 365.35 1679.82 398.54 1567.48 555.00 1430.56 640.14 1615.76 668.35
00001435 00000003 1272.00 229.20 510.74 643.39 1450.43 365.89 1675.33 397.51 1565.57 558.68 1427.43 644.15 1608.75 671.32
00001436 00000004 1271.77 236.14 508.29 643.57 1449.23 371.11 1673.62 399.04 1566.06 561.89 1425.28 651.99 1603.40 676.39
00001437 00000005 1267.08 229.58 504.13 651.04 1442.46 374.59 1668.20 401.19 1563.18 563.79 1423.14 654.23 1602.34 677.30
00001438 00000006 1254.78 224.43 504.89 645.14 1431.25 371.95 1649.95 407.17 1544.47 551.72 1413.43 643.33 1588.35 672.49
00001439 00000007 1244.15 219.00 509.65 634.43 1412.97 366.19 1638.32 402.96 1521.55 544.79 1401.48 631.88 1573.73 662.68
00001440 DELETE   1225.08 223.49 518.73 604.89 1383.32 356.31 1610.88 393.07 1480.85 526.27 1369.33 611.67 1553.86 641.95
00001441 DELETE   1204.87 221.22 513.65 600.88 1350.46 348.99 1572.42 385.57 1437.94 511.29 1333.70 597.48 1520.81 627.17
00001442 00000010 1186.25 202.56 503.29 608.87 1313.24 329.58 1539.01 364.33 1393.18 494.14 1305.54 587.77 1489.37 616.18
00001443 00000011 1169.17 158.39 496.13 637.97 1283.91 312.76 1508.08 346.38 1343.72 471.90 1265.61 575.74 1450.29 602.43
00001444 00000012 1155.61 141.14 498.67 651.16 1259.20 294.32 1477.44 331.28 1310.83 450.31 1244.22 562.48 1423.37 592.41
00001445 00000013 1142.70 130.81 504.40 660.67 1236.43 294.61 1450.59 331.49 1284.35 452.22 1229.29 565.41 1407.58 595.61
00001446 00000014 1120.80 122.44 509.23 674.53 1215.23 290.78 1435.66 324.55 1264.73 453.39 1207.69 569.02 1393.14 596.65
00001447 00000015 1102.76 104.64 516.92 698.66 1195.39 295.41 1414.55 322.77 1243.52 453.89 1192.11 573.55 1381.27 596.18
00001448 00000016 1102.76 133.13 494.79 665.13 1178.98 290.54 1389.17 319.88 1231.83 451.08 1182.58 566.09 1363.50 588.50
00001449 00000017 1080.51 124.19 503.40 685.16 1160.08 293.55 1369.54 318.42 1206.05 454.75 1155.47 572.55 1344.54 591.71
00001450 00000018 1062.32 127.15 509.06 681.49 1133.86 297.96 1341.42 318.93 1171.85 458.61 1139.18 576.27 1326.17 592.26
00001451 00000019 1046.48 124.84 515.97 683.91 1117.38 295.88 1326.07 314.34 1154.07 451.80 1128.31 575.73 1309.46 589.57
00001452 00000020 1036.45 121.18 517.63 678.15 1101.17 298.04 1307.13 314.04 1131.56 452.09 1117.29 573.32 1294.61 585.47
00001453 00000021 1024.45 124.02 521.26 674.94 1089.30 299.57 1293.08 311.47 1121.75 452.72 1109.54 575.96 1288.15 584.62
00001454 00000022 1031.90 137.26 503.55 659.75 1086.19 304.31 1277.24 313.45 1116.77 453.83 1108.85 576.11 1278.78 580.72
00001455 00000023 1026.44 141.35 507.36 655.63 1080.75 305.74 1271.47 313.50 1110.96 457.94 1104.19 578.76 1276.17 582.32
00001456 00000024 1023.03 144.93 507.71 658.77 1079.94 308.77 1271.64 315.26 1111.81 457.84 1101.52 583.05 1275.16 585.47
00001457 00000025 1019.51 146.35 507.78 673.33 1080.11 308.81 1272.91 317.61 1110.91 457.45 1097.23 587.20 1273.90 591.76
00001458 00000026 1018.09 149.55 511.20 681.52 1077.56 307.42 1271.09 316.06 1106.88 459.02 1097.72 595.05 1274.90 599.16
00001459 00000027 1015.14 151.46 508.86 682.11 1073.04 308.73 1268.20 316.80 1101.68 462.62 1094.30 596.63 1275.24 600.23
00001460 00000028 1010.23 156.91 508.67 675.62 1065.65 310.44 1262.98 319.80 1094.79 466.23 1088.20 593.52 1272.05 598.36
00001461 00000029 1004.98 159.18 510.14 668.22 1060.91 313.54 1262.58 321.66 1091.43 464.48 1082.55 594.44 1267.01 598.35
00001462 00000030 1000.23 157.96 515.79 664.54 1055.34 312.50 1261.24 321.90 1087.55 463.93 1077.04 590.85 1263.15 595.87
00001463 00000031 992.95 151.70 518.70 671.79 1049.30 311.44 1258.28 318.12 1085.60 460.46 1073.34 591.39 1260.36 594.18
00001464 00000032 991.08 145.14 518.56 676.23 1048.61 310.63 1256.93 316.97 1085.57 459.80 1072.71 589.75 1260.28 592.23
00001465 00000033 990.01 145.42 518.95 675.04 1048.64 310.38 1257.88 317.02 1086.56 460.22 1072.85 589.88 1260.20 592.70
00001466 00000034 989.66 147.22 518.24 671.49 1048.56 312.01 1259.05 318.83 1087.17 460.59 1071.73 589.36 1260.32 592.31
00001467 00000035 992.25 151.30 516.55 664.82 1050.79 314.97 1258.62 321.75 1088.51 461.50 1073.25 588.57 1261.04 591.66
00001468 00000036 993.64 146.71 518.32 665.35 1053.67 312.39 1259.95 322.94 1090.72 464.35 1076.21 584.44 1263.16 590.77
00001469 00000037 999.52 146.51 514.08 663.10 1057.80 312.38 1261.79 320.00 1093.39 461.19 1079.63 583.37 1267.01 587.08
00001470 00000038 999.57 149.64 511.64 664.18 1058.13 313.27 1261.50 320.20 1094.35 461.57 1078.21 584.46 1266.50 587.65
00001471 00000039 995.56 150.47 510.26 673.00 1054.01 317.23 1260.18 322.58 1091.94 464.33 1075.44 590.40 1267.55 592.17
00001472 00000040 989.01 149.59 514.12 676.75 1046.82 320.12 1256.72 318.33 1090.94 463.21 1074.97 596.80 1265.20 592.80
00001473 00000041 986.01 152.22 515.99 668.49 1049.14 317.26 1262.07 310.71 1090.88 459.86 1082.05 597.14 1263.77 591.23
00001474 00000042 980.27 149.84 521.83 669.58 1042.52 317.51 1254.92 308.15 1082.77 461.43 1081.80 596.52 1260.78 588.32
00001475 00000043 977.52 145.16 522.74 673.84 1038.96 316.76 1249.65 307.41 1078.43 463.30 1080.75 597.63 1258.12 589.52
00001476 00000044 978.51 149.76 521.00 668.67 1040.63 316.05 1249.97 308.54 1079.91 463.71 1082.26 596.69 1259.91 589.98
00001477 00000045 981.06 148.06 518.43 674.81 1041.54 316.91 1250.82 308.65 1081.04 463.72 1085.10 599.20 1264.48 591.66
00001478 00000046 982.93 154.86 522.35 671.24 1044.72 321.19 1254.48 310.02 1085.76 464.57 1088.46 603.14 1266.35 593.03
00001479 00000047 990.02 153.18 521.59 673.21 1049.14 318.22 1263.37 310.25 1090.92 464.92 1088.36 600.53 1270.36 592.81
00001480 00000048 1000.24 153.80 515.34 673.19 1055.97 322.42 1262.16 321.08 1100.02 471.05 1089.54 599.19 1272.69 595.45
00001481 00000049 1011.08 160.31 512.04 648.74 1067.46 323.62 1267.24 320.30 1109.48 464.72 1098.82 593.90 1271.47 588.72
00001482 00000050 1025.24 146.30 502.04 649.96 1078.92 321.26 1274.76 318.11 1122.67 459.76 1109.53 588.39 1279.39 583.59
00001483 00000051 1032.46 139.07 503.92 653.70 1089.58 313.02 1289.82 317.23 1136.22 458.13 1118.54 582.52 1287.62 583.62
00001484 00000052 1032.55 131.69 511.79 660.70 1098.66 313.98 1304.72 319.44 1141.97 459.97 1125.82 583.19 1298.14 587.24
00001485 00000053 1038.51 125.44 514.06 661.83 1103.09 311.12 1311.37 318.44 1146.93 460.14 1129.54 581.68 1303.43 587.40
00001486 00000054 1046.89 133.92 512.15 657.11 1111.09 301.34 1326.46 314.83 1159.24 460.19 1132.08 580.27 1310.25 590.48
00001487 00000055 1062.05 123.26 509.06 666.91 1128.35 303.47 1335.02 320.12 1166.65 466.68 1142.39 581.45 1319.50 594.57
00001488 00000056 1076.86 140.34 507.08 653.13 1147.77 310.21 1359.83 327.43 1197.34 465.45 1157.44 583.52 1340.71 596.50
00001489 00000057 1096.39 139.85 501.77 664.19 1173.97 306.53 1383.02 332.44 1224.04 470.21 1181.34 581.09 1361.43 600.80
00001490 00000058 1105.35 140.26 502.96 671.01 1191.62 307.96 1399.77 338.18 1242.36 474.32 1196.25 580.42 1375.13 604.02
00001491 00000059 1106.13 135.83 515.97 686.71 1200.22 311.53 1419.32 338.54 1257.44 483.68 1201.60 588.62 1397.06 610.41
00001492 00000060 1118.31 139.25 509.95 685.59 1215.14 310.55 1430.03 344.55 1269.21 485.68 1209.93 583.86 1403.70 611.28
00001493 00000061 1122.06 143.67 514.59 677.32 1218.24 311.52 1435.37 344.04 1273.41 479.71 1212.96 578.84 1409.97 604.63
00001494 00000062 1120.03 135.94 517.20 679.35 1216.59 305.26 1435.93 339.38 1270.16 473.77 1211.17 573.05 1409.26 600.43
00001495 00000063 1118.03 114.84 514.34 686.57 1210.43 295.36 1427.11 331.05 1256.38 466.40 1203.73 562.26 1400.48 591.35
00001496 00000064 1112.57 104.52 511.54 681.34 1197.46 290.51 1410.51 322.38 1238.88 452.01 1196.90 554.64 1383.69 580.34
00001497 00000065 1103.79 118.62 514.04 660.21 1174.54 289.51 1385.15 304.62 1213.55 441.00 1189.18 554.93 1374.10 566.59
00001498 00000066 1107.77 138.65 506.33 627.68 1168.19 284.65 1365.26 302.96 1199.73 435.19 1184.32 550.09 1355.63 564.67
00001499 00000067 1094.87 150.22 499.61 634.20 1143.51 296.67 1339.51 299.39 1172.15 442.60 1167.88 564.92 1343.61 564.43
00001500 00000068 1085.35 140.10 500.00 639.57 1130.30 300.68 1325.94 308.26 1158.26 453.33 1158.50 565.87 1333.33 569.63
00001501 00000069 1084.73 142.38 502.11 636.66 1130.06 303.29 1327.63 312.98 1159.04 458.22 1157.50 565.18 1335.51 570.62
00001502 00000070 1087.26 148.27 502.49 631.59 1135.71 303.35 1335.02 309.03 1172.12 459.29 1164.84 566.11 1345.06 567.99
00001503 00000071 1105.32 156.37 497.95 621.58 1159.24 296.79 1358.30 303.44 1200.67 445.16 1183.00 560.58 1361.48 563.00
00001504 00000072 1100.09 128.10 511.13 650.66 1166.56 296.25 1370.43 308.41 1208.99 450.88 1188.97 563.97 1368.43 572.94
00001505 DELETE   1103.70 123.19 514.23 668.70 1178.35 298.68 1391.55 310.94 1230.59 453.37 1200.54 569.07 1385.92 577.92
00001506 00000074 1102.72 131.56 515.48 666.27 1181.89 298.57 1398.30 305.83 1244.01 452.20 1204.62 572.04 1393.41 576.53
00001507 00000075 1104.45 139.32 512.45 653.97 1185.05 299.75 1402.26 304.83 1250.17 448.92 1208.68 569.77 1394.89 572.32
00001508 00000076 1098.71 142.17 518.03 642.55 1190.30 293.65 1408.31 297.62 1258.40 447.61 1211.78 565.64 1398.33 569.13
00001509 00000077 1106.66 134.22 513.18 655.26 1181.22 291.16 1396.25 299.88 1236.77 443.14 1207.20 562.26 1392.80 567.66
00001510 00000078 1104.90 129.74 513.96 652.38 1175.93 294.87 1387.53 299.04 1228.12 442.33 1207.00 563.04 1387.81 565.31
00001511 00000079 1102.57 131.59 512.64 649.56 1169.67 297.76 1378.97 299.33 1219.48 444.24 1203.07 564.05 1383.67 564.19
00001512 00000080 1097.55 131.74 511.58 639.25 1163.80 302.35 1372.87 300.84 1215.87 443.70 1199.36 565.54 1377.09 563.45
00001513 00000081 1089.42 120.53 517.88 644.03 1152.89 303.87 1363.26 296.87 1206.66 442.09 1190.66 566.41 1371.29 560.21
00001514 00000082 1081.63 132.72 522.48 629.54 1142.13 307.96 1350.69 296.26 1193.42 442.12 1182.55 567.08 1359.48 557.32
00001515 00000083 1075.27 136.18 524.66 624.18 1133.85 307.44 1339.69 296.47 1180.51 445.46 1177.57 566.61 1351.08 557.37
00001516 00000084 1065.85 124.54 525.29 641.74 1127.96 312.11 1330.76 298.98 1172.69 446.95 1169.64 569.86 1344.46 558.29
00001517 00000085 1074.63 145.55 508.80 629.18 1115.46 312.82 1317.99 297.51 1160.57 450.20 1169.58 571.76 1337.67 557.05
00001518 00000086 1072.48 141.54 507.00 637.75 1113.60 313.87 1313.92 297.67 1160.37 452.78 1167.30 577.53 1335.75 562.07
00001519 00000087 1076.89 136.93 507.32 644.91 1118.98 310.91 1314.37 295.79 1162.36 452.13 1173.37 580.93 1335.14 566.27
00001520 00000088 1083.89 150.03 510.89 640.07 1129.07 313.55 1327.85 297.74 1177.74 453.07 1183.30 583.84 1347.18 567.88
00001521 00000089 1096.15 153.64 510.53 636.73 1143.60 313.34 1339.12 296.50 1194.50 451.25 1196.58 587.30 1356.10 570.49
00001522 00000090 1106.21 161.88 508.84 630.67 1155.83 314.40 1355.74 303.39 1210.36 456.32 1202.36 589.58 1367.23 576.91
00001523 00000091 1103.98 125.47 521.33 675.42 1161.88 320.34 1373.01 311.19 1214.19 466.85 1203.50 608.04 1380.19 599.64
00001524 00000092 1102.60 149.64 528.32 665.28 1168.54 330.64 1385.78 319.42 1229.38 475.21 1213.60 613.64 1393.66 602.54
00001525 00000093 1108.66 153.73 530.68 666.04 1184.57 325.85 1399.26 320.40 1239.99 479.68 1225.42 615.47 1393.86 612.67
00001526 00000094 1110.30 164.36 529.65 666.94 1186.88 326.68 1402.56 323.60 1240.60 482.09 1222.92 622.66 1393.54 621.21
00001527 00000095 1110.28 166.76 523.29 669.98 1188.78 326.28 1399.42 326.34 1236.22 482.09 1221.64 623.56 1388.76 624.33
00001528 00000096 1111.05 164.40 522.33 666.91 1187.45 328.98 1397.15 328.16 1233.60 482.08 1219.74 621.80 1385.37 622.31
00001529 00000097 1112.95 162.65 521.93 656.00 1186.28 329.81 1393.39 326.72 1231.01 482.12 1222.73 616.82 1386.49 615.43
00001530 00000098 1114.63 164.31 518.08 643.84 1181.37 329.15 1395.35 325.54 1232.61 480.61 1216.99 614.83 1387.18 613.53
00001531 00000099 1118.68 162.59 516.52 643.80 1180.56 325.61 1399.39 324.80 1235.40 482.18 1213.41 610.90 1392.06 611.67
00001532 00000100 1124.19 158.42 519.62 661.54 1185.22 325.58 1402.33 327.69 1240.03 485.19 1216.19 608.57 1400.44 608.76
00001533 00000101 1123.62 156.05 525.33 666.56 1197.49 326.68 1413.23 323.37 1251.53 479.79 1228.41 612.49 1408.51 609.76
00001534 00000102 1132.48 148.89 518.33 678.93 1208.30 324.13 1421.62 328.69 1261.06 480.05 1231.22 609.87 1410.93 613.61
00001535 00000103 1143.18 162.92 512.90 663.99 1216.80 321.81 1427.93 328.79 1272.08 479.14 1238.81 605.68 1419.31 610.51
00001536 00000104 1151.13 157.74 509.30 665.06 1224.22 318.19 1434.62 328.44 1277.90 475.99 1244.33 599.74 1424.09 607.27
00001537 00000105 1158.24 160.48 504.21 663.92 1230.74 317.18 1437.48 333.14 1282.57 479.80 1244.18 590.64 1432.56 601.70
00001538 00000106 1169.44 162.68 499.54 651.38 1243.00 318.32 1447.27 336.97 1293.58 476.27 1253.51 582.27 1438.97 595.42
00001539 00000107 1174.15 162.45 504.92 637.37 1256.13 315.65 1461.65 339.87 1308.81 472.69 1264.56 573.22 1450.41 590.99
00001540 00000108 1180.81 169.66 501.60 622.41 1267.65 317.30 1477.07 340.87 1325.97 465.62 1275.46 569.78 1460.08 587.07
CROP_BBOX: 813 0 1920 1065
