Video ID: 	bLSOn0W1Qck
H: 	1080
W: 	1920
FPS: 	25.0

FRAME INDEX X0 Y0 W H [Landmarks (5 Points)]

00010020 00000000 861.70 336.73 452.00 665.41 924.36 597.76 1117.60 613.48 967.95 737.97 952.08 825.02 1115.15 836.95
00010021 00000001 854.33 326.04 453.68 660.18 910.89 584.55 1107.70 603.37 958.17 737.05 937.49 816.16 1106.75 830.88
00010022 00000002 843.92 330.23 444.51 634.34 907.16 589.76 1091.80 600.46 958.25 725.63 942.69 824.57 1084.60 831.43
00010023 DELETE   842.49 338.20 427.88 659.30 886.29 587.44 1080.23 610.77 945.69 744.95 921.07 836.72 1061.25 854.92
00010024 DELETE   806.37 408.51 473.43 594.63 938.90 632.99 1095.61 704.26 945.82 797.89 919.26 790.51 1081.50 846.18
00010025 DELETE   810.53 280.74 511.55 708.35 869.51 607.23 1070.77 630.64 914.03 734.72 899.52 807.56 1078.61 823.41
00010026 00000006 804.97 287.60 489.74 700.44 867.82 572.50 1061.91 588.81 916.79 731.18 904.82 812.59 1062.18 824.85
00010027 00000007 803.45 320.13 458.40 655.54 864.63 581.98 1062.35 583.31 919.57 713.62 891.60 816.68 1047.43 817.93
00010028 00000008 807.78 314.19 450.16 662.52 867.36 572.27 1062.43 572.45 916.45 703.97 894.40 807.11 1058.19 807.81
00010029 00000009 817.73 299.31 447.25 678.96 876.55 565.09 1067.53 561.53 919.86 693.36 901.85 802.29 1067.49 799.97
00010030 00000010 828.04 291.85 448.67 676.32 887.18 552.08 1081.66 550.28 935.41 688.17 912.40 798.33 1075.71 797.70
00010031 00000011 833.34 275.76 454.65 685.60 898.87 539.77 1102.66 547.73 953.78 681.10 913.88 782.30 1083.67 789.97
00010032 00000012 837.04 279.64 459.34 672.62 908.41 531.22 1110.41 547.78 960.32 675.24 915.32 774.69 1087.38 787.12
00010033 00000013 848.48 270.09 455.38 676.94 920.86 525.08 1124.79 545.19 970.30 666.07 923.56 769.67 1100.35 784.54
00010034 00000014 856.44 271.76 453.28 670.46 932.66 519.00 1135.31 541.75 978.85 656.98 934.20 762.87 1108.12 779.46
00010035 00000015 861.85 267.23 461.64 668.05 942.60 522.05 1144.96 538.29 988.82 650.70 940.81 757.28 1113.34 771.59
00010036 00000016 865.32 262.45 460.25 665.55 948.66 514.47 1150.09 535.29 992.25 645.61 944.39 747.28 1118.34 765.40
00010037 00000017 870.33 256.50 457.20 667.48 954.18 508.56 1153.88 534.35 995.55 640.18 946.23 739.15 1120.47 761.31
00010038 00000018 872.69 248.01 456.82 672.12 957.38 499.99 1158.36 530.98 997.38 634.05 944.69 732.58 1120.67 759.40
00010039 00000019 874.93 234.81 455.55 675.70 950.44 490.62 1156.42 517.20 993.62 622.42 942.37 727.86 1115.78 751.60
00010040 00000020 875.72 229.26 455.47 673.19 952.58 483.99 1157.24 512.05 992.10 613.88 940.21 719.55 1114.81 744.39
00010041 00000021 874.00 231.17 455.25 663.69 953.85 476.71 1156.99 507.14 990.31 607.12 938.05 712.27 1112.59 738.80
00010042 00000022 871.42 222.82 453.93 666.58 953.88 470.09 1154.40 503.40 987.31 599.26 934.92 704.32 1107.58 733.28
00010043 00000023 862.93 219.90 457.88 672.33 949.36 464.34 1150.58 498.73 984.56 592.45 929.36 698.86 1097.33 728.92
00010044 00000024 860.68 219.49 448.79 668.82 945.66 455.17 1147.56 494.07 983.31 587.72 922.49 694.59 1097.32 724.96
00010045 00000025 853.17 213.41 454.29 670.48 936.92 451.48 1139.25 486.40 972.35 579.32 914.33 692.55 1086.74 720.07
00010046 00000026 842.57 213.06 456.38 663.66 927.88 448.50 1130.09 482.74 968.10 577.83 907.52 687.81 1079.97 715.12
00010047 00000027 835.02 209.96 456.59 666.02 919.94 448.40 1120.46 480.80 960.19 577.71 901.04 688.00 1070.07 714.55
00010048 00000028 830.02 214.78 454.58 661.24 911.42 448.69 1112.37 478.38 953.06 579.75 897.41 692.96 1059.79 717.44
00010049 00000029 827.87 215.67 454.34 660.95 910.19 455.11 1106.15 482.91 948.44 582.50 891.36 696.72 1039.10 720.91
00010050 00000030 822.54 216.20 458.31 682.03 903.86 453.09 1104.77 479.13 945.72 586.78 887.52 702.53 1055.82 724.23
00010051 00000031 823.73 212.72 454.81 667.65 903.71 453.82 1105.64 479.29 947.19 584.30 888.10 699.49 1050.33 720.68
00010052 00000032 827.73 214.47 448.45 660.98 907.02 455.09 1111.41 482.93 951.82 586.19 890.81 699.93 1053.41 722.79
00010053 00000033 830.79 216.26 449.65 666.70 913.04 456.92 1115.53 486.26 956.41 587.10 895.71 703.74 1056.80 728.07
00010054 00000034 838.38 218.92 447.10 665.51 921.55 458.54 1122.84 491.41 961.08 586.03 900.49 708.56 1056.03 736.10
00010055 00000035 848.48 222.62 444.44 658.21 927.50 460.94 1125.73 494.97 962.19 589.35 906.61 710.02 1054.95 738.34
00010056 00000036 853.90 222.72 441.48 659.77 933.78 459.66 1131.11 496.35 964.74 589.60 908.06 710.65 1055.41 741.16
00010057 00000037 857.16 214.08 456.55 672.37 943.07 473.80 1135.81 503.33 969.35 586.82 922.11 716.08 1060.43 741.77
00010058 00000038 860.76 210.59 460.44 678.75 948.01 475.74 1138.46 509.17 969.55 586.28 923.65 715.29 1058.79 744.59
00010059 00000039 861.25 211.37 456.80 670.41 951.07 470.79 1145.07 511.58 978.32 593.21 923.50 710.18 1064.44 745.82
00010060 00000040 868.13 207.77 456.44 675.14 958.02 472.48 1149.82 514.60 984.95 597.20 929.88 709.21 1074.16 746.12
00010061 00000041 875.22 214.73 459.91 661.23 964.73 468.44 1162.67 510.28 998.87 597.37 936.13 709.64 1076.15 746.79
00010062 00000042 883.66 206.99 458.61 672.13 971.64 465.26 1173.52 506.18 1010.55 595.56 944.83 709.46 1090.69 746.16
00010063 00000043 884.78 207.35 463.17 682.76 979.85 462.14 1183.31 501.54 1021.77 590.52 951.85 709.61 1095.64 745.74
00010064 00000044 886.52 207.59 473.38 688.11 986.74 460.89 1196.58 505.21 1029.44 591.46 956.23 707.52 1110.42 745.11
00010065 00000045 889.22 202.79 464.16 694.90 984.81 455.47 1194.82 498.30 1028.64 588.32 952.81 706.98 1111.94 745.34
00010066 00000046 892.65 206.92 463.93 672.39 992.52 458.09 1201.96 506.71 1035.94 591.29 957.55 699.59 1108.53 740.85
00010067 00000047 896.79 208.87 460.20 661.69 994.01 457.44 1198.70 506.38 1034.71 591.12 960.89 695.29 1104.58 736.86
00010068 00000048 897.23 208.13 455.15 662.56 995.37 455.67 1197.46 502.91 1035.62 590.63 962.81 692.05 1107.55 731.99
00010069 00000049 896.45 201.04 457.00 671.87 999.48 451.18 1202.73 498.64 1039.51 584.86 963.11 691.73 1110.12 732.16
00010070 00000050 898.97 194.87 453.46 680.98 1002.76 446.17 1205.26 491.50 1041.40 575.84 964.06 687.50 1117.30 726.04
00010071 00000051 900.30 193.12 461.38 690.97 1007.70 442.31 1214.77 482.39 1049.86 564.63 967.81 691.12 1117.67 726.25
00010072 00000052 898.11 184.05 463.41 695.69 1017.16 432.49 1226.27 474.64 1065.22 554.86 970.36 679.54 1126.31 716.05
00010073 00000053 900.85 184.55 466.23 692.36 1019.75 426.59 1232.47 469.19 1071.04 542.35 972.65 676.66 1129.74 713.60
00010074 00000054 906.28 178.12 465.85 689.69 1024.50 420.00 1241.44 467.05 1077.31 534.58 978.68 668.01 1141.94 708.34
00010075 00000055 909.77 177.00 464.22 683.65 1029.30 417.74 1244.35 467.02 1080.10 535.08 982.23 665.05 1141.22 706.74
00010076 00000056 914.97 179.55 459.91 671.72 1032.37 414.12 1248.56 464.44 1083.16 534.47 986.52 662.76 1140.05 705.58
00010077 00000057 916.54 180.36 464.77 683.09 1037.86 413.83 1252.52 465.42 1083.07 533.38 985.63 666.51 1137.89 710.36
00010078 00000058 921.41 181.50 462.81 688.44 1039.68 419.21 1254.46 466.16 1084.58 536.66 987.78 672.43 1139.84 712.37
00010079 00000059 922.60 180.04 480.55 717.19 1040.12 415.39 1260.04 467.67 1096.85 520.58 988.77 680.13 1155.85 728.46
00010080 00000060 927.07 177.34 482.92 713.72 1042.75 415.11 1262.97 465.02 1084.91 535.37 989.03 674.02 1154.87 718.73
00010081 00000061 921.31 174.24 481.21 686.16 1043.12 410.68 1262.61 466.66 1089.55 530.43 987.48 659.26 1156.61 708.82
00010082 00000062 916.15 160.44 487.94 701.30 1034.97 410.01 1251.52 453.61 1082.05 520.31 994.06 651.58 1167.82 690.16
00010083 00000063 918.71 155.56 484.80 669.94 1033.46 395.73 1251.16 445.29 1075.97 506.01 988.61 625.57 1168.80 668.26
00010084 00000064 915.04 156.64 484.10 644.45 1028.38 384.34 1255.24 445.84 1074.35 495.00 978.65 612.20 1167.53 662.20
00010085 00000065 911.99 151.92 485.07 652.07 1026.67 383.01 1250.65 444.30 1072.18 492.60 976.86 609.23 1165.72 658.98
00010086 00000066 912.78 153.14 479.31 652.89 1024.32 386.94 1247.07 444.43 1066.89 496.44 973.61 614.12 1159.11 661.23
00010087 00000067 912.43 163.96 475.30 652.11 1021.87 397.33 1240.62 450.68 1061.59 511.86 972.12 626.93 1151.70 670.50
00010088 00000068 911.58 171.52 473.74 654.18 1018.97 405.75 1236.75 458.10 1062.34 526.59 975.28 641.11 1151.17 683.64
00010089 00000069 915.42 175.43 473.14 652.04 1012.51 413.80 1234.14 467.51 1062.12 535.52 979.06 644.64 1153.58 688.88
00010090 00000070 912.60 176.39 464.90 658.79 1011.11 416.50 1227.14 463.83 1055.82 541.53 973.96 656.63 1145.01 695.36
00010091 00000071 913.11 177.51 464.11 655.55 1007.49 418.24 1223.18 468.46 1054.68 543.85 975.27 651.56 1146.94 693.41
00010092 00000072 908.92 181.42 461.18 651.52 1005.85 416.76 1218.89 467.46 1051.30 544.80 970.92 650.18 1139.58 692.98
00010093 00000073 899.84 176.85 465.01 654.68 1000.58 418.11 1209.36 464.93 1040.48 542.61 963.72 653.96 1127.62 692.66
00010094 00000074 896.86 175.46 464.24 652.11 997.25 418.51 1204.37 465.05 1037.55 541.49 961.28 650.67 1124.52 689.35
00010095 00000075 898.19 178.81 463.19 652.20 994.74 422.73 1198.80 467.07 1031.00 542.81 959.36 654.63 1121.07 691.44
00010096 00000076 900.13 183.52 463.78 661.35 995.03 440.57 1196.14 480.65 1029.60 549.42 963.78 669.37 1120.67 702.29
00010097 00000077 901.82 173.13 461.88 694.12 995.82 435.97 1199.97 478.13 1034.16 546.98 967.76 675.94 1120.52 711.62
00010098 00000078 908.22 179.83 447.95 706.17 994.99 432.21 1187.88 472.89 1023.79 551.36 966.53 685.67 1106.28 723.02
00010099 00000079 903.80 182.55 447.02 720.29 988.20 434.65 1181.37 475.33 1010.85 555.86 958.08 700.60 1094.63 738.10
00010100 00000080 901.94 186.74 436.17 724.55 984.42 441.61 1171.60 482.71 998.68 563.30 954.71 708.98 1085.00 746.26
00010101 DELETE   903.26 190.52 417.73 726.13 976.16 442.95 1162.76 486.40 987.09 570.61 947.67 712.44 1084.00 750.93
00010102 00000082 904.22 180.14 416.28 728.61 968.16 453.95 1152.06 494.07 976.92 580.16 943.61 711.94 1082.63 747.88
00010103 00000083 905.14 184.59 420.67 712.67 965.71 459.65 1150.04 492.03 977.40 587.19 947.71 710.34 1094.35 739.54
00010104 00000084 898.98 194.66 446.58 700.65 968.83 465.73 1158.62 485.78 999.54 591.36 963.14 710.35 1120.72 726.20
00010105 00000085 912.74 204.12 454.91 694.13 976.38 466.47 1177.79 476.37 1019.66 593.59 983.34 715.82 1144.23 725.19
00010106 00000086 917.88 209.12 461.02 692.14 983.68 468.75 1190.17 475.94 1035.39 594.08 993.22 718.52 1156.99 725.01
00010107 00000087 916.14 209.84 458.99 688.56 988.41 471.04 1197.19 482.85 1042.93 597.85 988.77 719.67 1164.51 728.37
00010108 00000088 917.42 212.08 465.78 681.91 991.10 474.83 1197.38 487.27 1035.97 594.27 991.16 720.75 1155.93 731.67
00010109 00000089 919.20 213.27 450.93 684.06 981.92 468.43 1181.90 486.73 1022.94 595.23 979.02 717.95 1132.27 734.89
00010110 00000090 912.50 200.77 445.89 695.27 976.38 463.86 1165.42 490.37 998.96 586.16 964.69 710.24 1113.37 733.88
00010111 DELETE   905.43 189.15 420.23 701.27 961.88 457.37 1141.77 494.06 969.48 585.39 941.53 705.53 1081.43 738.31
00010112 DELETE   895.61 178.07 407.82 704.42 952.84 451.30 1122.72 494.63 953.74 576.01 930.14 696.38 1058.15 733.44
00010113 00000093 891.73 177.71 398.69 695.67 947.10 447.89 1112.45 493.32 942.33 570.09 919.02 688.16 1042.55 727.68
00010114 DELETE   889.71 177.55 399.95 698.16 948.24 444.83 1116.28 490.18 945.71 566.69 918.85 686.96 1044.59 726.59
00010115 00000095 890.07 181.70 410.40 694.72 954.32 447.34 1126.36 488.91 960.69 570.23 929.90 690.43 1057.38 726.65
00010116 00000096 889.55 182.55 422.01 699.61 954.71 452.78 1139.20 490.19 966.49 575.36 932.13 699.78 1068.25 732.85
00010117 00000097 894.43 188.69 427.23 696.06 958.66 457.58 1145.08 491.40 975.76 581.39 937.23 704.55 1075.36 735.47
00010118 00000098 896.18 194.00 430.34 691.21 961.77 460.66 1149.70 493.80 982.54 586.83 939.62 705.49 1084.46 736.12
00010119 00000099 896.29 201.98 437.01 681.33 961.75 462.94 1153.20 491.59 987.81 589.48 943.23 708.44 1092.17 735.35
00010120 00000100 895.77 205.29 440.58 678.37 961.43 463.98 1154.46 492.47 989.84 593.18 944.99 709.48 1095.95 736.03
00010121 00000101 892.44 218.17 450.13 661.10 962.15 467.31 1154.27 495.09 993.53 600.97 949.87 707.63 1101.40 730.63
00010122 00000102 892.69 222.11 450.34 658.82 962.68 470.02 1152.78 498.01 992.18 603.76 950.81 709.22 1101.41 732.25
00010123 00000103 895.96 230.69 445.32 656.78 963.09 474.27 1151.14 500.53 991.51 609.01 953.31 715.97 1102.83 737.66
00010124 00000104 898.08 230.81 444.56 660.59 964.43 477.32 1148.52 502.71 990.88 613.21 957.18 720.30 1100.44 741.24
00010125 00000105 898.81 230.54 442.89 668.49 966.46 477.45 1149.56 502.34 992.77 611.20 958.41 723.84 1099.29 744.60
00010126 00000106 909.25 220.55 432.75 688.53 964.87 472.86 1152.91 496.66 990.79 600.95 958.01 728.04 1095.15 750.29
00010127 00000107 910.48 219.21 437.99 693.07 970.94 472.50 1158.03 492.52 997.69 595.65 965.71 728.88 1099.69 748.05
00010128 00000108 911.15 212.44 439.80 695.42 976.11 466.77 1166.19 488.33 1005.33 590.41 968.16 722.36 1103.59 742.99
00010129 00000109 914.40 203.37 441.74 697.02 979.46 461.89 1170.48 484.49 1009.16 586.49 969.45 716.67 1105.63 738.29
00010130 00000110 918.30 208.47 442.03 687.43 981.99 456.26 1173.66 479.10 1013.17 583.43 974.65 711.77 1112.16 733.12
00010131 00000111 919.83 203.91 442.14 688.45 986.46 451.86 1179.72 476.31 1017.71 577.29 975.88 705.71 1115.55 728.66
00010132 00000112 915.87 200.65 448.07 678.71 989.88 451.02 1186.09 478.91 1024.93 576.76 973.61 697.88 1127.22 721.46
00010133 00000113 917.90 205.31 448.48 669.68 990.58 448.81 1188.70 479.14 1025.82 579.96 975.72 693.90 1135.27 718.89
00010134 00000114 920.35 208.58 447.15 666.43 993.26 450.30 1193.75 481.98 1029.36 585.42 978.07 694.51 1142.45 720.12
00010135 00000115 923.21 214.01 444.88 663.44 995.36 452.14 1193.79 483.67 1029.98 588.86 982.23 698.19 1141.98 723.29
00010136 00000116 922.89 213.15 445.49 665.53 995.67 454.22 1193.91 486.71 1030.02 591.71 981.96 698.71 1144.69 724.47
00010137 00000117 922.34 212.01 445.62 662.11 994.99 454.06 1194.87 488.33 1030.65 594.02 980.71 696.28 1146.34 723.51
00010138 00000118 923.03 211.67 445.42 660.98 995.68 453.83 1195.32 487.75 1031.39 592.57 981.35 694.56 1147.51 721.50
00010139 00000119 924.61 211.66 445.88 661.30 996.39 454.22 1196.71 486.71 1032.03 591.83 982.83 695.64 1149.67 721.37
00010140 00000120 926.28 212.54 444.52 662.45 999.26 454.02 1196.79 486.38 1033.70 591.06 985.36 696.65 1148.25 722.10
00010141 00000121 926.26 211.54 444.76 662.61 998.84 454.44 1196.55 486.24 1032.85 590.71 985.27 697.70 1146.61 722.83
00010142 00000122 926.47 207.52 446.14 662.00 998.86 458.31 1195.59 487.89 1034.06 587.42 985.08 695.88 1147.18 719.24
00010143 00000123 924.67 205.40 445.80 658.13 996.36 464.61 1193.76 492.86 1030.96 584.82 983.21 694.47 1146.50 716.35
00010144 00000124 921.41 205.13 445.53 658.75 994.06 464.35 1190.92 493.08 1028.05 583.14 981.11 695.21 1140.93 717.67
00010145 00000125 916.83 202.49 444.67 677.64 987.94 468.72 1180.78 497.96 1018.94 596.79 976.45 706.72 1135.18 729.45
00010146 DELETE   909.95 223.54 447.85 674.35 978.74 494.16 1166.58 518.71 1010.13 623.16 973.00 727.92 1128.91 746.87
00010147 DELETE   908.24 240.94 431.34 690.00 960.89 525.59 1146.93 548.63 992.23 662.74 966.00 761.25 1116.37 781.90
00010148 DELETE   895.04 284.05 440.34 673.65 947.89 561.25 1130.94 574.87 980.18 701.08 963.94 798.60 1107.26 811.10
00010149 00000129 878.22 305.41 446.05 664.07 934.12 570.80 1126.22 588.01 973.38 710.78 951.18 810.49 1099.95 825.66
00010150 00000130 864.76 300.56 451.69 657.45 931.03 562.14 1124.33 578.93 974.54 695.00 945.24 798.10 1095.38 812.12
00010151 DELETE   865.37 287.87 449.06 660.73 934.19 544.96 1124.35 564.88 970.69 679.68 940.44 782.89 1093.42 799.63
00010152 DELETE   862.44 268.44 449.65 665.43 931.38 528.56 1122.51 549.25 964.77 664.00 935.51 766.90 1088.46 784.29
00010153 00000133 861.96 236.89 447.77 687.92 932.43 508.05 1126.84 529.40 963.48 645.06 930.81 752.68 1090.40 770.86
00010154 00000134 857.24 227.23 449.70 687.82 933.03 486.72 1125.74 508.58 960.93 620.61 926.78 734.41 1085.51 753.46
00010155 00000135 856.46 201.58 454.01 711.04 935.55 464.41 1130.24 488.89 959.72 596.29 922.38 720.52 1083.47 742.56
00010156 00000136 863.57 196.79 441.37 715.12 929.73 448.06 1122.99 475.91 963.51 581.70 924.09 710.71 1074.79 735.08
00010157 00000137 856.43 193.90 452.77 725.47 938.16 451.89 1135.95 477.63 957.11 574.29 922.55 712.40 1089.18 735.07
00010158 00000138 861.09 196.25 442.15 725.75 933.36 459.15 1130.28 482.73 959.16 580.38 922.38 715.01 1088.67 735.01
00010159 00000139 854.20 211.16 450.54 707.05 931.56 467.20 1129.63 500.67 963.55 607.09 921.77 717.09 1096.04 742.53
00010160 00000140 854.98 227.03 451.98 685.19 934.15 481.25 1132.48 521.93 967.94 625.47 922.34 718.32 1095.29 749.39
00010161 00000141 860.30 228.24 452.52 682.00 935.46 472.94 1135.47 515.66 972.88 623.09 925.28 715.48 1090.88 751.30
00010162 00000142 864.36 218.75 456.01 672.53 941.48 470.67 1141.99 506.17 974.16 606.23 927.94 706.70 1092.98 737.08
00010163 DELETE   870.32 192.48 453.75 675.07 953.64 447.79 1149.11 486.16 983.00 581.40 932.27 682.29 1094.68 715.73
00010164 DELETE   883.54 176.60 449.85 668.39 957.73 428.44 1154.99 466.71 990.45 556.35 938.90 666.25 1091.93 700.02
00010165 00000145 876.80 163.37 463.29 676.60 967.37 414.41 1167.63 452.88 1001.28 545.62 938.33 654.24 1103.72 686.13
00010166 00000146 881.92 166.64 457.11 676.03 961.64 416.22 1164.94 454.93 993.73 543.10 937.65 656.84 1102.02 690.82
00010167 00000147 887.31 175.34 445.76 691.15 966.87 432.24 1164.37 469.28 995.61 559.08 945.44 674.73 1107.04 707.63
00010168 00000148 887.44 188.11 449.64 695.23 965.19 450.28 1161.68 483.36 994.38 582.15 946.11 693.23 1110.36 723.02
00010169 00000149 888.22 210.14 445.69 685.10 962.79 466.15 1162.41 496.07 994.27 597.85 948.67 710.78 1114.17 737.65
00010170 00000150 890.16 229.49 445.69 665.56 962.50 470.47 1163.67 499.31 996.78 601.82 950.30 714.53 1113.68 740.22
00010171 00000151 885.81 231.78 456.37 659.03 965.28 462.17 1166.48 495.63 1002.19 604.77 951.70 707.52 1117.82 734.48
00010172 00000152 887.51 220.34 458.80 664.66 966.74 454.14 1169.75 488.86 1003.42 598.44 949.80 698.91 1117.12 726.87
00010173 00000153 890.30 211.56 458.60 665.91 969.61 449.23 1171.54 486.16 1005.50 593.72 950.08 691.14 1116.70 721.02
00010174 00000154 892.84 210.31 458.58 665.84 971.12 448.11 1174.10 483.63 1008.47 592.19 952.56 691.31 1119.23 720.10
00010175 00000155 895.23 217.87 457.58 662.43 974.43 448.08 1176.08 483.56 1011.65 593.29 955.58 693.31 1119.19 722.29
00010176 00000156 897.59 217.63 456.58 661.64 977.91 447.73 1178.21 484.61 1013.82 591.81 956.43 691.43 1120.32 721.54
00010177 00000157 898.62 219.25 456.78 658.34 979.95 447.25 1180.33 485.36 1015.48 589.66 956.86 690.50 1119.27 721.83
00010178 00000158 899.58 215.46 455.53 659.57 979.23 445.81 1180.10 482.32 1015.04 586.26 957.20 689.42 1120.65 719.57
00010179 00000159 898.87 215.27 455.95 656.13 978.62 445.36 1179.55 481.72 1014.50 584.57 956.55 687.94 1119.20 718.02
00010180 00000160 897.30 214.14 456.49 656.79 976.58 445.91 1177.07 483.37 1011.79 587.05 955.17 688.29 1117.58 718.91
00010181 00000161 897.62 214.01 450.68 662.13 975.54 462.09 1168.60 497.66 1008.16 592.66 957.73 696.11 1115.28 727.82
00010182 00000162 898.40 216.73 448.73 673.46 973.03 474.77 1164.68 507.22 1005.99 599.17 960.10 706.85 1116.92 735.76
00010183 00000163 895.98 223.20 450.70 670.65 972.18 482.81 1163.30 517.31 1006.68 615.87 959.47 712.81 1124.93 739.41
00010184 00000164 893.04 233.87 454.50 670.50 967.52 488.43 1160.68 522.40 1000.88 629.95 957.54 722.38 1125.74 749.05
00010185 00000165 899.35 248.91 444.00 671.70 965.02 505.26 1160.10 534.74 999.21 642.11 960.80 738.13 1122.64 764.02
00010186 00000166 900.58 256.30 440.65 670.99 965.20 511.44 1155.03 538.42 998.19 645.31 960.66 744.73 1117.41 768.91
