Video ID: 	LnDMAJa4IHI
H: 	1080
W: 	1920
FPS: 	29.97002997002997

FRAME INDEX X0 Y0 W H [Landmarks (5 Points)]

00002884 00000000 862.24 184.04 364.85 643.05 929.85 459.01 1084.97 475.18 971.07 576.28 925.75 668.59 1062.86 681.13
00002885 00000001 862.55 184.67 364.75 639.42 930.22 458.89 1087.04 474.63 973.30 575.01 926.50 667.80 1064.77 680.11
00002886 DELETE   862.81 184.63 365.04 639.40 931.09 459.24 1088.81 474.03 976.22 573.69 928.70 668.40 1067.91 679.87
00002887 DELETE   863.04 184.57 366.60 639.83 932.48 459.18 1090.94 473.85 978.13 572.91 930.88 668.45 1069.92 679.84
00002888 00000004 863.54 182.26 367.38 642.58 932.41 460.34 1092.02 473.84 979.12 573.21 931.59 670.42 1072.66 680.72
00002889 DELETE   864.15 182.79 368.40 643.96 933.43 462.46 1093.18 475.42 980.25 574.67 933.40 671.79 1075.41 681.50
00002890 DELETE   865.67 183.64 368.30 644.35 934.09 464.37 1094.81 478.11 980.26 576.20 934.57 672.26 1077.68 682.40
00002891 00000007 865.65 183.72 368.08 649.85 934.96 466.13 1094.64 479.45 980.00 578.56 935.99 675.41 1078.28 685.14
00002892 00000008 864.57 182.57 368.67 655.02 933.76 468.16 1092.64 479.93 979.10 580.92 936.85 677.61 1080.47 685.78
00002893 00000009 864.09 182.26 368.48 656.29 933.00 470.06 1090.67 482.08 977.78 584.82 936.33 679.82 1079.42 688.21
00002894 DELETE   864.34 184.24 368.30 654.12 933.65 470.97 1090.66 484.20 978.46 586.65 935.39 679.70 1077.88 689.12
00002895 00000011 865.47 187.47 367.47 649.30 934.41 470.96 1091.61 485.44 979.21 588.98 934.13 678.76 1077.01 689.32
00002896 00000012 872.18 192.84 368.26 644.75 928.88 467.02 1093.80 482.44 974.50 587.88 930.07 676.13 1073.18 688.93
00002897 00000013 871.92 192.47 367.67 643.79 928.20 466.83 1093.75 482.39 974.64 587.68 929.97 676.09 1072.23 688.97
00002898 00000014 871.61 191.85 368.24 644.70 928.59 466.53 1093.79 482.04 973.96 586.10 930.02 676.53 1071.26 689.44
00002899 00000015 872.19 192.47 366.84 639.84 928.92 466.10 1092.59 482.71 973.16 585.93 928.95 673.49 1070.13 687.41
00002900 00000016 872.52 190.91 366.82 642.35 929.00 465.01 1093.23 481.41 974.08 585.05 929.30 673.04 1072.12 686.68
00002901 00000017 872.09 190.43 367.74 643.47 928.97 464.63 1093.22 480.98 973.73 584.64 929.33 673.04 1072.22 686.68
00002902 00000018 872.05 191.03 367.87 643.20 928.71 465.07 1093.44 481.53 973.75 585.39 929.05 673.57 1072.26 687.29
00002903 00000019 871.87 192.38 368.03 641.19 928.14 466.28 1093.06 482.32 973.78 586.92 928.64 673.51 1071.69 686.89
00002904 00000020 872.98 192.31 366.89 643.74 929.09 466.90 1093.34 482.65 974.17 587.56 929.62 675.56 1071.98 688.66
00002905 00000021 866.13 188.64 367.33 650.27 934.59 470.86 1090.57 486.31 977.86 589.37 933.09 680.49 1072.78 692.00
00002906 00000022 866.54 190.40 367.24 652.30 935.12 470.77 1089.56 485.72 976.82 588.94 934.21 682.02 1071.97 693.15
00002907 00000023 865.34 190.96 368.56 652.02 934.88 471.05 1089.89 487.19 977.02 590.40 932.95 682.26 1070.91 694.35
00002908 00000024 864.98 191.62 366.53 645.65 935.18 472.06 1089.92 489.16 978.58 591.31 931.81 679.83 1069.39 692.77
00002909 00000025 864.00 191.42 367.53 645.72 933.65 470.92 1089.39 488.98 975.93 590.10 929.44 678.11 1067.71 691.68
00002910 00000026 870.22 196.28 368.36 639.74 927.25 467.95 1091.02 484.44 971.36 588.67 927.01 676.77 1066.47 690.85
00002911 00000027 870.28 196.21 368.86 639.66 927.45 468.58 1090.30 484.42 971.37 587.90 927.96 676.93 1066.63 690.45
00002912 00000028 870.48 196.27 367.95 639.37 927.38 468.90 1090.93 484.84 971.86 588.67 927.83 677.15 1067.13 690.72
00002913 00000029 870.11 198.08 368.63 636.28 927.58 468.59 1091.38 485.31 972.88 590.37 927.87 676.62 1066.83 690.91
00002914 00000030 864.31 193.25 368.06 640.77 934.91 472.16 1090.42 490.12 978.21 591.72 931.01 678.90 1067.08 692.66
00002915 00000031 864.06 192.56 367.63 641.36 934.89 471.35 1091.31 489.26 978.16 591.97 930.80 679.20 1066.45 693.03
00002916 DELETE   864.34 189.54 369.17 648.98 934.86 470.94 1092.73 488.75 978.50 591.45 930.38 680.10 1067.56 693.71
00002917 00000033 865.79 184.84 367.76 653.84 934.38 472.59 1092.48 489.37 978.92 591.95 932.07 683.24 1067.94 696.00
00002918 00000034 868.15 181.38 365.29 662.14 934.57 473.12 1092.75 488.78 979.65 591.88 934.08 683.69 1073.03 695.23
00002919 00000035 869.28 182.39 366.18 666.73 935.03 473.10 1093.26 487.10 979.96 591.62 936.47 685.40 1076.09 695.57
00002920 00000036 869.00 182.47 365.75 670.70 935.58 473.92 1094.64 486.86 980.11 591.57 937.18 686.72 1077.06 695.82
00002921 00000037 868.12 179.83 365.68 668.96 934.07 475.10 1094.53 489.15 981.11 593.14 935.51 689.42 1074.33 699.56
00002922 00000038 868.39 183.71 366.01 664.92 935.46 475.24 1094.24 490.85 981.37 592.95 934.61 688.80 1070.33 700.71
00002923 00000039 868.01 183.29 365.89 663.66 934.87 475.45 1093.78 491.49 980.57 593.94 933.90 688.08 1070.55 700.21
00002924 00000040 868.39 181.98 365.70 665.46 933.64 476.42 1093.25 491.56 979.64 594.31 934.58 690.47 1071.07 701.85
00002925 00000041 868.37 182.04 366.45 667.52 934.49 475.38 1093.29 490.15 979.63 593.78 937.29 691.68 1071.80 702.95
00002926 DELETE   869.88 187.41 366.06 662.21 935.70 477.48 1095.05 492.53 980.53 593.55 938.58 691.57 1073.36 703.27
00002927 DELETE   871.13 188.23 366.46 661.88 937.95 477.46 1098.48 493.33 982.65 593.98 939.40 691.58 1074.47 704.20
00002928 00000044 870.91 187.72 367.19 664.10 937.56 478.46 1098.49 493.36 981.82 593.39 939.56 691.85 1075.53 703.49
00002929 00000045 872.56 189.04 365.10 666.63 938.89 477.37 1096.22 491.23 980.56 591.95 940.60 692.10 1074.10 702.87
00002930 00000046 873.26 187.06 364.22 670.05 939.49 476.42 1096.19 489.06 980.96 591.27 941.70 692.29 1074.38 702.01
00002931 00000047 873.10 184.42 364.72 672.05 939.96 475.43 1097.32 486.95 982.22 589.56 943.08 692.11 1075.88 700.92
00002932 00000048 874.51 182.67 363.27 673.24 941.07 474.11 1098.04 484.81 982.22 588.19 945.21 690.59 1078.08 698.61
00002933 00000049 876.41 181.28 361.87 674.35 942.77 473.26 1098.44 482.92 983.44 587.49 948.05 690.53 1078.88 697.79
00002934 00000050 876.07 182.48 362.25 673.23 943.45 470.06 1098.28 479.90 982.81 586.32 949.03 690.24 1078.65 697.64
00002935 00000051 877.02 180.29 362.21 675.10 944.26 469.57 1099.06 478.46 984.73 586.24 951.44 691.06 1079.66 697.91
00002936 00000052 877.36 179.88 363.35 672.29 944.95 469.95 1100.74 479.11 987.25 587.30 952.80 690.66 1080.80 697.88
00002937 00000053 878.56 178.89 364.47 673.01 945.82 469.73 1102.58 478.23 989.10 588.13 954.61 690.85 1083.14 697.43
00002938 00000054 880.11 179.06 364.71 673.56 947.63 469.88 1104.59 478.76 991.77 588.95 956.39 691.10 1084.78 697.95
00002939 00000055 881.18 178.02 364.16 671.10 948.00 470.80 1107.29 480.12 992.67 588.93 955.53 688.87 1086.66 696.05
00002940 00000056 881.62 174.30 363.95 671.30 948.30 471.17 1107.29 480.52 993.60 589.84 955.82 686.76 1087.91 693.84
00002941 00000057 881.35 173.93 365.05 666.21 947.64 470.81 1108.06 480.53 994.45 589.45 956.03 685.03 1089.20 692.34
00002942 00000058 881.47 174.67 365.52 658.47 947.40 471.83 1107.33 482.89 995.54 590.38 956.01 681.54 1089.43 689.87
00002943 00000059 882.12 174.65 365.68 658.10 947.52 471.55 1107.50 482.86 994.91 590.62 955.33 681.01 1090.09 689.42
00002944 00000060 882.66 179.90 365.01 653.23 949.32 472.15 1109.31 484.54 995.09 589.39 955.24 680.51 1090.14 689.96
00002945 00000061 884.83 181.18 361.82 657.06 950.40 471.83 1109.38 483.45 993.29 589.15 955.52 682.22 1090.30 691.00
00002946 00000062 883.40 180.66 364.04 660.36 949.42 471.36 1108.51 482.52 992.51 590.28 955.42 682.51 1092.22 690.52
00002947 00000063 882.12 179.76 365.79 665.38 947.86 472.77 1107.81 484.18 991.32 591.34 952.68 682.41 1092.59 690.29
00002948 00000064 883.97 180.54 363.28 671.18 948.66 473.53 1106.91 483.72 989.92 592.39 952.67 683.10 1093.38 689.72
00002949 00000065 885.57 178.67 362.40 680.70 949.29 472.26 1107.99 483.23 988.79 592.81 952.20 682.99 1096.38 690.04
00002950 00000066 884.67 181.30 363.48 679.33 949.09 470.65 1107.14 481.63 988.24 590.49 952.23 684.07 1095.04 691.02
00002951 00000067 884.59 179.87 363.73 678.55 949.45 470.30 1105.75 481.01 987.29 588.83 952.26 683.26 1092.51 690.23
00002952 00000068 884.19 178.53 364.37 677.46 948.63 468.64 1104.23 478.68 986.11 586.81 953.20 684.20 1090.21 690.81
00002953 00000069 883.74 178.08 365.70 671.73 948.62 468.31 1104.78 479.82 987.92 587.82 952.37 682.38 1087.15 690.81
00002954 00000070 883.66 179.55 364.88 667.71 947.96 469.04 1104.54 480.97 988.02 588.77 952.23 682.34 1087.34 691.09
00002955 00000071 883.30 179.08 366.08 668.16 947.79 468.93 1105.37 481.63 987.54 589.25 951.20 682.18 1087.82 691.44
00002956 00000072 883.88 179.25 365.00 664.26 948.03 471.18 1105.32 484.60 988.73 591.53 950.64 682.28 1086.14 692.55
00002957 00000073 884.07 179.97 364.65 662.20 947.68 471.72 1107.02 485.43 989.72 591.71 950.37 681.50 1088.16 691.89
00002958 00000074 885.43 178.96 363.48 671.04 949.80 470.97 1108.42 484.04 990.59 591.40 952.85 682.92 1091.60 692.31
00002959 00000075 886.62 181.11 363.16 669.23 950.13 470.95 1108.92 485.28 989.27 592.62 951.67 683.79 1089.62 694.34
00002960 00000076 885.67 181.40 365.25 665.50 948.98 471.66 1109.25 486.05 989.87 593.68 951.35 684.56 1089.42 695.23
00002961 00000077 884.36 185.46 366.86 656.79 948.26 473.96 1110.04 489.84 991.40 595.39 951.01 687.73 1084.91 700.68
00002962 00000078 883.99 189.17 367.34 654.07 947.46 474.93 1109.85 491.10 990.98 595.96 949.67 689.15 1082.92 702.49
00002963 00000079 883.85 189.07 366.44 656.88 947.17 475.58 1109.97 491.34 990.18 596.37 949.08 690.27 1082.80 703.13
00002964 00000080 883.23 189.54 367.59 659.47 947.38 476.24 1109.63 491.24 990.45 596.75 949.73 690.01 1084.61 701.99
00002965 00000081 883.41 188.72 366.94 662.06 948.24 475.65 1109.56 490.64 989.89 596.29 950.83 690.94 1084.15 702.97
00002966 00000082 882.93 188.51 367.16 662.75 947.53 475.41 1108.82 489.89 988.83 596.58 951.09 691.99 1083.63 703.63
00002967 00000083 883.09 189.51 366.93 660.89 947.69 475.76 1107.84 490.40 988.58 597.76 952.14 692.10 1083.28 703.90
00002968 00000084 881.55 189.52 367.96 660.32 946.42 476.02 1107.66 490.47 987.08 598.24 950.77 691.71 1084.06 703.21
00002969 00000085 880.91 190.29 367.78 661.20 945.86 476.61 1107.63 489.22 986.94 598.43 951.15 690.59 1088.63 700.01
00002970 00000086 882.18 190.86 367.42 655.36 946.29 479.71 1109.93 494.45 989.45 599.95 949.78 689.79 1086.98 701.51
00002971 00000087 884.00 191.64 365.95 651.96 948.59 481.66 1110.80 496.91 991.60 598.97 951.66 690.47 1083.70 703.25
00002972 00000088 883.91 190.69 366.34 651.62 949.37 480.45 1110.73 496.70 991.63 597.50 951.65 688.76 1083.32 702.26
00002973 00000089 881.59 191.30 368.26 648.95 947.67 479.10 1109.82 494.98 991.38 597.82 950.24 687.67 1083.55 700.87
00002974 00000090 878.78 190.70 370.24 650.70 947.67 476.78 1109.13 492.23 991.47 595.62 949.48 686.32 1083.60 699.09
00002975 00000091 878.73 191.14 371.63 647.50 947.19 475.95 1108.95 492.39 990.73 594.65 948.49 684.82 1082.29 698.65
00002976 00000092 878.58 191.60 370.90 644.11 947.29 474.34 1107.55 489.77 990.10 593.51 949.01 682.58 1083.05 695.39
00002977 00000093 878.31 190.64 369.95 644.81 947.14 471.80 1107.07 487.35 989.72 591.18 948.32 680.10 1084.47 692.65
00002978 00000094 879.02 188.04 369.50 652.91 948.05 468.52 1106.79 482.34 989.56 586.97 948.43 677.01 1088.71 687.47
00002979 00000095 881.23 183.81 367.65 665.35 948.14 465.00 1105.68 477.31 986.45 585.09 950.33 679.36 1090.27 688.09
00002980 00000096 880.79 182.74 368.13 666.61 948.25 463.36 1106.21 475.95 987.01 583.71 948.83 676.92 1092.07 685.45
00002981 00000097 880.20 181.75 368.80 667.63 948.96 461.54 1106.98 474.46 987.01 582.30 947.28 674.90 1091.54 683.61
00002982 00000098 879.27 181.49 369.50 662.98 948.03 461.91 1107.32 474.16 987.78 581.33 947.92 675.28 1091.36 683.73
00002983 00000099 881.34 180.20 367.35 656.43 948.09 462.89 1108.60 474.89 989.13 582.55 950.86 673.87 1094.01 682.08
00002984 00000100 889.71 175.85 363.71 664.99 941.93 458.97 1108.76 474.08 984.59 584.33 945.35 674.79 1090.24 687.14
00002985 00000101 889.77 175.56 363.88 661.89 941.25 458.24 1108.72 473.50 983.66 583.14 944.02 672.32 1089.91 684.75
00002986 00000102 888.91 176.52 365.97 658.12 941.52 458.99 1109.99 474.10 984.83 583.27 943.89 670.71 1090.88 682.96
00002987 00000103 890.25 178.05 365.38 654.76 942.73 458.25 1109.68 473.68 984.54 582.24 944.38 668.70 1090.78 681.27
00002988 00000104 889.91 178.08 366.54 654.14 942.99 457.78 1110.53 474.13 984.75 581.46 943.48 666.75 1091.20 680.03
00002989 00000105 890.57 179.72 365.90 650.48 942.98 457.35 1110.55 473.38 984.37 580.62 943.67 666.75 1090.67 679.84
00002990 00000106 890.93 180.53 365.96 649.85 943.67 456.83 1110.89 473.10 984.78 580.49 944.22 666.44 1091.51 679.69
00002991 00000107 891.44 180.45 366.23 650.59 944.24 457.06 1111.90 473.61 985.84 580.72 944.18 666.07 1092.43 679.57
00002992 00000108 891.66 181.94 365.60 648.10 944.76 457.07 1112.40 473.97 986.96 581.10 944.67 665.55 1092.76 679.30
00002993 00000109 891.02 182.82 364.97 647.96 945.21 456.96 1112.40 473.98 987.85 580.77 944.59 665.21 1092.57 679.15
00002994 00000110 890.51 182.43 366.68 648.87 945.33 456.58 1113.21 473.71 988.18 580.27 944.54 664.31 1094.21 678.32
00002995 00000111 890.98 182.04 366.29 648.80 946.00 457.04 1113.74 474.00 988.99 580.14 945.43 664.61 1094.43 678.54
00002996 00000112 890.73 182.39 367.22 647.53 946.55 455.18 1115.48 472.93 989.85 578.18 944.44 662.33 1094.37 677.01
00002997 00000113 883.37 181.98 369.39 634.99 949.86 456.88 1118.71 471.96 996.69 575.78 945.00 659.09 1096.18 671.04
00002998 DELETE   885.30 174.28 367.33 638.44 950.08 445.76 1118.77 460.48 995.83 563.61 947.28 654.22 1093.37 666.49
00002999 DELETE   889.13 175.30 364.85 635.67 952.36 434.00 1120.16 453.88 1000.09 555.02 946.94 640.63 1092.73 657.87
00003000 DELETE   887.93 168.92 365.49 634.67 953.98 430.15 1119.61 449.05 999.06 544.25 946.98 634.68 1089.55 651.28
00003001 00000117 887.37 165.26 365.52 634.74 952.91 427.82 1117.46 446.84 997.15 541.02 947.04 632.85 1087.10 649.57
00003002 00000118 887.90 165.80 364.48 632.77 953.14 427.06 1117.58 446.09 997.25 539.78 946.63 631.37 1086.53 648.13
00003003 00000119 886.67 164.89 366.04 631.58 953.18 426.35 1117.58 445.43 997.58 539.30 947.36 630.97 1086.33 647.83
00003004 00000120 886.64 163.69 366.32 629.73 952.91 423.54 1117.01 443.83 996.05 537.19 945.94 626.48 1086.25 644.21
00003005 00000121 885.85 161.54 368.86 632.28 953.03 421.28 1116.01 440.39 994.52 533.40 947.05 625.71 1086.37 642.29
00003006 00000122 890.55 165.66 361.57 628.26 951.74 419.56 1120.11 429.40 999.46 529.40 950.96 631.04 1090.42 640.46
00003007 00000123 892.29 161.43 360.90 636.16 953.53 418.67 1120.54 427.26 1000.33 529.68 955.71 633.71 1091.30 641.80
00003008 00000124 892.61 159.58 362.98 638.85 953.97 423.55 1123.44 432.24 1001.81 534.99 956.56 638.88 1092.87 647.12
00003009 00000125 891.05 162.22 364.60 637.76 954.20 428.02 1123.97 436.85 1004.63 540.65 957.66 641.90 1094.76 650.33
00003010 00000126 891.18 166.10 362.98 639.52 955.84 429.62 1123.09 437.53 1004.43 542.39 960.62 647.47 1094.50 654.97
00003011 00000127 890.82 168.76 360.92 642.32 956.86 429.63 1123.28 437.64 1004.44 542.99 961.07 650.14 1094.51 657.38
00003012 00000128 893.35 173.04 358.02 639.58 958.03 430.51 1123.26 438.91 1003.66 544.93 960.70 650.74 1095.28 658.26
00003013 00000129 893.53 170.18 359.01 642.36 957.50 433.31 1123.97 441.98 1003.81 545.61 957.53 649.97 1099.31 657.73
00003014 00000130 893.97 171.06 362.29 641.48 958.16 432.47 1124.45 451.02 1006.59 550.12 953.92 641.16 1096.34 657.47
00003015 00000131 893.14 171.91 362.06 639.79 956.38 432.82 1123.75 451.72 1005.29 552.13 952.31 641.82 1095.33 658.36
00003016 00000132 894.10 174.53 362.11 638.44 956.71 433.17 1123.85 452.24 1005.33 553.71 953.07 643.14 1095.79 659.83
00003017 00000133 893.35 173.74 362.62 638.76 955.78 434.89 1123.63 453.42 1004.83 554.75 952.68 644.22 1095.91 660.49
00003018 00000134 894.61 173.04 362.86 641.94 956.45 436.44 1124.65 455.46 1004.69 556.86 953.66 645.62 1098.20 662.11
00003019 00000135 894.98 174.86 363.15 646.37 955.87 440.05 1124.67 457.68 1003.94 560.52 954.45 650.02 1100.57 665.27
00003020 00000136 891.24 174.39 362.96 641.72 954.72 448.49 1120.45 457.54 1000.68 563.31 958.14 659.05 1101.17 666.61
00003021 00000137 890.81 172.54 363.67 642.15 953.53 449.47 1122.71 461.53 999.85 565.89 953.45 659.67 1098.70 669.85
00003022 00000138 891.44 172.68 363.61 641.68 953.05 450.56 1121.93 462.17 999.21 567.03 954.30 660.35 1098.25 670.02
00003023 00000139 892.52 172.86 363.94 641.01 953.70 450.81 1122.95 461.86 1000.82 568.41 956.06 660.84 1100.86 669.84
00003024 00000140 892.17 173.50 364.62 641.43 954.22 450.04 1123.03 460.63 1001.52 568.49 956.87 661.40 1100.91 669.95
00003025 00000141 892.64 173.05 365.06 642.12 954.26 450.60 1123.12 460.33 1002.92 569.12 957.70 661.99 1101.68 669.95
00003026 00000142 893.15 173.87 364.24 639.04 954.30 451.23 1124.05 460.67 1004.27 569.51 958.78 661.44 1103.96 669.25
00003027 00000143 893.17 174.44 364.27 643.40 956.59 452.29 1123.32 461.45 1005.62 570.17 961.53 662.34 1106.75 669.56
00003028 00000144 893.13 174.62 364.14 642.33 956.02 454.51 1123.05 464.50 1004.83 571.56 958.72 661.73 1105.95 669.79
00003029 00000145 893.82 175.36 362.77 642.17 956.77 456.14 1123.05 467.07 1005.30 574.67 958.73 662.81 1105.67 671.46
00003030 00000146 893.49 176.90 363.54 642.79 957.98 457.28 1124.43 468.00 1007.10 575.76 959.46 664.28 1107.51 672.77
00003031 00000147 892.43 178.41 364.07 645.37 958.58 459.41 1124.41 467.33 1009.25 577.14 962.07 667.24 1110.52 673.73
00003032 00000148 891.15 181.60 365.84 642.85 959.24 459.87 1124.97 468.09 1010.12 578.97 961.82 667.85 1109.69 674.38
CROP_BBOX: 579 0 1582 1019
