Video ID: 	iygjbTAVVG4
H: 	2160
W: 	3840
FPS: 	23.976023976023978

FRAME INDEX X0 Y0 W H [Landmarks (5 Points)]

00001179 00000000 1976.53 271.43 569.87 822.01 2058.19 595.25 2317.43 559.00 2150.11 743.42 2111.79 923.36 2337.99 896.94
00001180 DELETE   1976.86 225.69 569.14 849.15 2062.03 569.75 2318.48 539.01 2148.07 711.19 2110.46 891.89 2322.30 870.48
00001181 DELETE   1975.06 218.78 584.51 819.49 2054.85 538.95 2313.21 512.76 2141.53 677.36 2106.57 852.35 2315.85 831.46
00001182 00000003 1980.18 228.35 578.38 792.95 2056.42 523.20 2308.13 497.87 2141.79 660.91 2100.33 827.36 2315.16 808.17
00001183 00000004 1978.16 200.49 579.66 813.17 2052.40 518.38 2304.36 494.93 2134.90 653.71 2093.93 815.04 2307.05 797.71
00001184 00000005 1977.12 196.38 581.79 814.91 2051.11 520.88 2302.55 492.86 2130.72 651.49 2088.02 816.41 2309.71 794.79
00001185 00000006 1977.49 211.85 581.08 803.12 2053.17 523.71 2307.13 493.53 2142.58 659.29 2098.40 818.39 2323.20 794.33
00001186 00000007 1975.53 214.28 586.29 816.26 2054.58 537.84 2317.41 500.18 2154.22 668.82 2107.58 835.41 2342.90 803.76
00001187 00000008 1968.12 204.62 589.07 845.87 2049.53 549.84 2312.07 511.95 2146.56 681.06 2111.57 859.32 2326.41 828.97
00001188 00000009 1973.58 223.80 586.35 838.27 2048.91 532.97 2308.35 503.71 2137.10 671.35 2111.82 858.38 2316.73 834.32
00001189 00000010 1981.50 213.34 583.91 825.43 2055.90 516.67 2312.44 486.13 2142.35 644.61 2112.56 838.07 2319.45 813.46
00001190 00000011 1991.09 180.55 578.74 834.43 2061.15 512.93 2330.91 475.18 2151.04 618.25 2114.45 812.08 2328.76 783.36
00001191 00000012 1996.98 176.20 580.94 826.50 2069.17 494.92 2330.95 464.23 2150.13 603.89 2115.12 794.53 2323.58 771.35
00001192 00000013 2003.45 174.43 580.44 816.86 2073.19 493.95 2332.38 459.71 2149.92 597.49 2113.21 787.12 2327.84 760.84
00001193 00000014 2005.23 174.37 580.30 812.71 2078.60 493.04 2343.13 459.74 2163.57 592.95 2114.39 784.21 2334.04 759.47
00001194 00000015 2006.04 182.11 581.42 811.73 2081.89 495.41 2352.18 468.71 2173.19 607.43 2119.52 790.79 2338.93 772.41
00001195 00000016 2005.77 194.77 568.75 807.03 2083.88 510.21 2354.94 484.15 2168.74 629.26 2115.65 804.39 2341.03 787.31
00001196 00000017 1998.92 197.50 576.84 809.38 2073.73 519.00 2340.44 494.33 2167.30 642.98 2109.29 815.40 2335.09 798.70
00001197 00000018 1995.94 185.58 579.24 816.99 2069.50 516.89 2338.30 491.06 2158.14 635.15 2102.77 808.71 2328.12 791.30
00001198 00000019 1996.22 175.09 579.73 820.68 2068.81 509.29 2338.54 481.12 2158.57 621.02 2104.49 798.64 2329.23 779.25
00001199 00000020 1999.26 167.28 576.97 818.14 2075.80 502.23 2342.29 474.92 2163.78 607.30 2106.69 787.90 2328.98 769.18
00001200 00000021 2000.07 167.65 578.08 817.30 2075.73 502.78 2341.46 474.58 2162.68 608.35 2105.85 788.67 2330.34 769.24
00001201 00000022 1997.73 167.70 579.42 821.88 2072.36 505.89 2338.58 476.99 2159.87 616.76 2106.67 793.10 2329.05 773.02
00001202 00000023 1995.75 169.94 579.38 820.91 2069.86 507.00 2337.06 478.08 2159.06 619.25 2105.08 793.69 2328.82 773.42
00001203 00000024 1996.09 170.00 579.56 821.26 2069.47 506.03 2335.75 476.01 2157.21 615.50 2104.16 791.97 2329.42 770.42
00001204 00000025 1994.39 176.59 578.64 817.10 2067.61 508.87 2333.98 477.99 2161.14 625.89 2110.43 797.40 2331.64 775.25
00001205 DELETE   1992.20 197.59 584.60 816.44 2072.83 523.67 2330.46 490.10 2171.40 649.94 2125.88 827.84 2327.62 802.66
00001206 DELETE   1982.72 216.92 586.59 825.53 2064.25 561.46 2326.55 524.00 2161.92 696.95 2124.88 871.61 2329.76 842.98
00001207 00000028 1978.55 228.70 562.10 832.74 2062.22 578.35 2302.29 546.86 2138.58 721.92 2104.95 886.50 2310.29 864.34
00001208 DELETE   1977.30 240.65 574.86 799.68 2053.43 560.53 2302.25 531.86 2137.85 694.04 2103.77 862.87 2298.33 841.53
00001209 DELETE   1986.00 236.71 580.76 778.93 2063.86 527.77 2317.66 490.54 2157.24 649.69 2120.68 822.74 2327.84 792.67
00001210 00000031 1991.25 201.81 570.39 797.71 2063.30 522.67 2325.73 475.33 2164.64 627.56 2119.78 793.24 2345.56 754.64
00001211 00000032 1990.35 199.88 568.90 801.70 2061.81 525.51 2320.41 476.51 2159.65 633.29 2117.67 802.44 2346.27 762.73
00001212 DELETE   1982.18 254.52 581.95 773.18 2053.62 538.08 2305.93 492.27 2148.30 663.63 2123.63 840.13 2326.49 801.72
00001213 00000034 1967.96 239.42 583.20 815.53 2041.32 554.52 2289.27 505.13 2128.97 684.28 2116.94 863.43 2325.87 822.20
00001214 DELETE   1967.41 243.83 580.95 792.95 2037.18 541.62 2286.33 489.12 2126.25 663.88 2111.64 847.37 2331.84 801.83
00001215 DELETE   1977.49 213.07 565.74 786.32 2045.45 526.30 2296.80 468.45 2131.44 626.68 2108.64 814.29 2336.94 766.46
00001216 00000037 1986.24 170.84 569.96 807.02 2052.98 502.46 2308.71 445.09 2138.45 589.36 2105.54 781.63 2323.78 734.34
00001217 00000038 1986.87 170.52 569.87 797.15 2053.96 497.35 2312.05 445.28 2139.12 590.19 2101.02 778.50 2321.36 736.14
00001218 00000039 1985.10 178.42 572.36 794.62 2052.64 505.84 2314.36 460.57 2143.81 609.10 2095.99 788.01 2319.62 752.15
00001219 00000040 1988.11 182.73 569.71 794.70 2056.64 513.89 2319.54 469.02 2146.94 612.68 2100.75 791.71 2319.14 756.42
00001220 00000041 1995.16 173.29 572.18 789.53 2061.85 500.91 2322.13 452.33 2154.42 595.18 2112.16 779.44 2322.63 741.89
00001221 00000042 2002.92 168.80 565.84 779.62 2072.37 488.30 2327.55 440.41 2165.76 573.16 2114.95 760.95 2327.47 723.58
00001222 00000043 2006.11 175.08 565.40 775.71 2077.82 476.26 2331.06 434.72 2169.60 567.17 2117.38 749.76 2329.01 717.16
00001223 00000044 2006.34 172.56 566.52 794.93 2077.13 477.42 2333.28 436.95 2169.50 569.52 2122.03 756.95 2326.59 726.07
00001224 00000045 2005.88 178.43 569.50 804.21 2076.09 472.92 2329.48 436.12 2162.08 572.01 2123.16 762.71 2317.84 735.21
00001225 00000046 2008.22 176.45 565.53 803.49 2079.85 468.49 2333.22 429.83 2163.19 565.22 2122.88 761.57 2323.14 731.47
00001226 00000047 2012.61 173.39 565.18 796.42 2085.15 465.27 2338.61 425.26 2164.67 556.41 2121.17 755.00 2321.82 723.60
00001227 00000048 2013.58 170.70 566.67 789.10 2088.00 462.58 2343.37 425.85 2171.56 557.32 2122.81 746.37 2328.73 717.71
00001228 00000049 2010.91 160.52 570.82 799.01 2087.22 469.54 2343.18 431.18 2173.47 559.88 2119.05 747.70 2333.41 717.62
00001229 00000050 2009.96 157.71 564.87 793.13 2086.38 468.75 2336.62 430.38 2166.08 557.32 2110.42 746.01 2331.32 715.52
00001230 00000051 2006.18 160.73 563.21 783.96 2081.59 466.02 2328.44 426.86 2156.34 551.21 2100.96 743.04 2324.86 711.16
00001231 00000052 2002.88 162.53 562.13 782.58 2078.53 463.80 2324.14 425.21 2152.54 549.95 2098.11 738.57 2325.44 706.52
00001232 00000053 2003.44 157.98 561.12 791.40 2078.85 462.95 2325.66 425.76 2157.58 558.26 2102.32 739.90 2331.36 709.11
00001233 00000054 2003.95 151.94 566.12 810.66 2076.78 475.50 2331.11 433.48 2165.99 565.67 2109.95 749.33 2337.69 715.26
00001234 00000055 2003.42 156.20 568.33 809.85 2076.00 481.88 2332.47 437.59 2168.32 568.87 2111.27 753.79 2340.69 717.92
00001235 00000056 2003.21 156.84 567.29 807.48 2075.42 480.19 2332.41 435.93 2166.43 564.58 2107.34 749.52 2341.42 713.05
00001236 00000057 2001.60 154.65 564.07 804.84 2073.31 481.30 2328.34 435.22 2161.73 560.73 2100.77 748.17 2339.57 709.66
00001237 00000058 1999.27 151.46 564.36 810.73 2069.84 483.70 2323.29 436.58 2152.94 563.32 2097.84 750.90 2335.90 711.18
00001238 00000059 1998.19 148.95 566.69 816.01 2066.93 484.68 2319.07 437.27 2147.91 568.18 2096.05 754.36 2333.61 714.36
00001239 00000060 1998.20 146.09 570.07 821.26 2067.04 489.65 2322.12 439.33 2151.62 569.80 2099.36 758.59 2336.39 716.43
00001240 00000061 2000.96 149.03 569.41 822.70 2071.79 489.69 2329.23 440.64 2162.29 571.00 2104.35 758.17 2343.14 717.20
00001241 00000062 2001.82 154.52 571.23 818.23 2074.24 487.51 2333.60 440.16 2168.17 571.53 2108.16 756.84 2346.45 717.40
00001242 00000063 2001.90 151.29 569.76 817.92 2073.89 490.85 2331.20 440.62 2165.01 570.06 2105.77 758.41 2345.93 716.33
00001243 00000064 2001.27 148.08 569.57 827.96 2070.41 490.46 2324.92 439.67 2154.77 569.26 2102.24 759.10 2339.45 716.23
00001244 00000065 1999.08 149.71 568.58 828.86 2065.88 489.87 2319.61 437.97 2146.13 570.30 2099.27 760.94 2337.17 716.45
00001245 00000066 1998.04 149.51 569.98 834.70 2065.33 488.39 2319.36 437.57 2145.43 572.65 2100.95 762.33 2338.13 718.58
00001246 00000067 1999.79 149.22 573.08 841.48 2067.24 487.01 2324.69 437.11 2154.01 575.36 2109.22 765.63 2341.78 723.58
00001247 00000068 2001.88 151.21 569.96 844.02 2070.82 485.04 2332.87 437.58 2164.28 575.46 2118.53 764.55 2346.14 725.24
00001248 00000069 2002.88 152.57 570.43 844.89 2072.17 483.58 2334.98 434.73 2165.58 573.64 2122.46 765.05 2347.56 724.71
00001249 00000070 2002.21 153.16 566.93 845.32 2069.45 482.93 2333.95 433.07 2163.82 567.43 2122.29 767.64 2342.17 726.62
00001250 00000071 2000.38 150.34 567.61 848.34 2066.63 479.97 2327.13 430.94 2150.04 564.48 2114.39 767.16 2336.15 726.11
00001251 00000072 1997.88 146.53 565.77 852.48 2061.99 479.92 2323.02 430.99 2141.77 567.98 2109.41 769.69 2333.02 728.04
00001252 00000073 1997.97 146.23 568.93 859.32 2061.05 480.25 2326.38 431.68 2143.90 573.45 2113.59 775.64 2337.65 734.18
00001253 00000074 1999.63 146.77 570.94 856.88 2063.73 481.25 2331.73 433.43 2152.30 576.11 2118.61 776.49 2340.67 736.31
00001254 00000075 2002.29 149.74 574.12 852.89 2067.28 481.62 2335.76 432.93 2159.93 575.23 2122.29 775.19 2343.61 734.71
00001255 00000076 2002.22 152.50 572.58 850.08 2067.09 483.60 2335.55 433.66 2158.16 572.10 2120.25 773.85 2344.66 731.95
00001256 00000077 1999.48 150.59 570.63 853.39 2063.93 480.24 2331.49 430.88 2151.40 567.72 2115.82 771.98 2338.08 730.30
00001257 00000078 1996.55 148.64 567.78 856.65 2059.81 483.25 2324.70 431.61 2143.61 565.84 2111.90 774.94 2334.65 730.59
00001258 00000079 1995.51 147.17 566.84 857.19 2057.04 487.07 2320.31 431.40 2140.58 568.46 2111.21 777.32 2337.01 729.03
00001259 00000080 1997.16 147.79 567.60 857.59 2060.64 486.30 2325.05 432.51 2147.45 571.79 2114.36 775.49 2342.11 729.06
00001260 00000081 2001.94 148.74 569.25 854.82 2068.88 485.63 2334.45 430.83 2161.59 569.07 2118.00 772.41 2357.18 725.32
00001261 00000082 2003.67 150.89 571.87 848.12 2074.11 485.25 2343.16 430.89 2176.46 567.69 2127.20 769.54 2362.05 723.71
00001262 00000083 2003.56 148.67 570.79 840.88 2074.10 488.46 2341.88 432.39 2175.45 565.74 2122.54 765.90 2359.57 718.28
00001263 00000084 2004.18 152.69 562.24 829.34 2071.19 487.72 2332.13 430.60 2165.83 564.40 2114.51 758.77 2354.33 709.03
00001264 00000085 1999.67 147.21 558.45 822.23 2065.70 489.95 2320.58 433.06 2149.85 563.96 2102.38 756.78 2338.99 707.20
00001265 00000086 1997.57 150.28 558.93 816.84 2063.31 491.33 2317.26 433.78 2148.60 565.35 2101.31 755.50 2337.88 705.19
00001266 00000087 1999.85 149.71 559.29 817.34 2067.96 490.20 2325.50 433.53 2161.01 565.68 2106.33 753.61 2346.68 704.17
00001267 00000088 2002.95 154.72 561.65 806.00 2073.95 491.33 2333.93 434.77 2171.81 567.51 2107.14 753.70 2358.45 704.03
00001268 00000089 2004.24 152.20 561.24 802.63 2077.30 490.24 2336.19 434.35 2176.24 565.75 2105.90 751.13 2361.86 701.98
00001269 00000090 2002.99 149.84 557.55 804.99 2075.40 490.11 2331.93 433.31 2169.25 561.54 2101.10 749.79 2356.97 699.45
00001270 00000091 2000.45 150.86 551.58 799.95 2069.31 489.59 2319.26 434.95 2152.19 562.90 2091.58 746.14 2346.71 696.96
00001271 00000092 1995.65 145.43 552.41 802.22 2064.60 491.84 2311.01 437.18 2141.81 565.49 2088.09 747.26 2337.26 697.89
00001272 00000093 1994.85 145.10 555.11 806.51 2063.23 491.64 2312.07 436.62 2143.24 566.84 2090.24 748.34 2337.53 698.91
00001273 00000094 1998.45 147.98 555.44 805.10 2066.85 489.43 2319.55 434.99 2152.62 565.80 2094.86 747.95 2344.28 699.42
00001274 00000095 2002.36 150.36 559.91 800.32 2074.11 489.62 2328.37 434.16 2164.33 563.88 2101.85 748.51 2349.48 699.75
00001275 00000096 2002.67 149.91 558.22 797.23 2074.04 490.39 2328.99 433.87 2165.55 561.90 2099.23 747.47 2352.30 697.63
00001276 00000097 2001.60 152.07 554.71 792.97 2072.16 487.46 2321.41 432.62 2156.17 560.69 2095.80 745.65 2346.19 696.79
00001277 00000098 1998.37 147.38 551.81 799.45 2066.83 491.35 2313.24 435.02 2145.09 563.63 2092.74 747.43 2335.88 697.24
00001278 00000099 1994.91 141.49 554.36 804.60 2064.52 494.24 2310.53 436.59 2140.07 564.44 2088.69 750.34 2336.30 698.40
00001279 00000100 1997.21 146.39 554.32 799.56 2065.81 494.61 2313.53 436.54 2146.44 565.69 2093.46 751.27 2338.77 699.50
00001280 00000101 2001.18 149.24 559.49 801.66 2071.27 492.50 2324.83 434.12 2161.38 564.19 2100.59 752.39 2348.62 701.37
00001281 00000102 2004.30 149.29 558.84 794.86 2077.82 491.35 2330.96 434.77 2171.13 563.70 2105.84 749.49 2354.45 700.06
00001282 00000103 2004.43 148.61 558.85 791.08 2077.98 490.86 2330.46 433.97 2168.72 561.39 2103.46 748.56 2352.77 698.89
00001283 00000104 2004.20 148.94 556.11 788.92 2076.02 490.17 2325.23 432.56 2162.79 559.24 2098.57 746.61 2350.77 695.77
00001284 00000105 2000.93 148.90 557.05 791.41 2072.53 490.04 2319.94 431.52 2154.01 558.28 2096.18 748.93 2345.13 697.23
00001285 00000106 2000.57 148.50 555.22 792.67 2072.44 489.72 2319.77 432.19 2154.09 559.72 2096.58 747.90 2346.46 696.72
00001286 00000107 2001.35 148.02 557.37 788.87 2074.11 489.14 2325.02 432.28 2162.73 558.73 2097.80 747.00 2349.33 697.00
00001287 00000108 2002.81 145.93 559.83 794.19 2076.38 486.88 2330.10 430.23 2169.21 559.78 2101.95 744.82 2355.39 694.77
00001288 00000109 2002.44 145.68 560.11 794.19 2076.99 487.28 2330.81 430.43 2169.33 558.85 2101.27 743.57 2356.10 693.09
00001289 00000110 2001.35 153.40 558.28 784.80 2075.52 484.43 2324.95 430.74 2163.69 559.16 2098.54 740.71 2350.07 692.85
00001290 00000111 2000.28 149.67 555.10 786.23 2073.54 482.93 2319.91 430.31 2157.28 557.27 2095.88 739.61 2344.26 692.88
00001291 00000112 1999.18 149.22 554.37 785.47 2073.42 481.68 2319.90 430.89 2156.75 556.37 2093.32 738.45 2344.66 693.08
00001292 00000113 2000.03 149.84 555.77 786.61 2074.58 481.49 2321.21 429.46 2159.54 556.69 2096.29 738.63 2346.73 692.22
00001293 00000114 1999.96 150.11 557.76 789.21 2075.14 481.13 2324.69 429.99 2161.76 556.58 2096.67 738.85 2347.51 693.42
00001294 00000115 1999.80 150.84 558.06 785.54 2075.93 483.49 2323.20 432.63 2159.97 558.15 2095.57 740.23 2348.56 694.96
00001295 00000116 2000.40 148.42 555.26 786.17 2073.93 485.07 2320.93 432.71 2155.93 557.43 2093.63 742.47 2344.82 696.22
00001296 00000117 1999.92 149.20 556.57 784.92 2074.53 484.64 2320.54 433.28 2155.09 557.09 2092.40 741.98 2346.03 696.26
00001297 00000118 2000.65 150.25 556.81 782.82 2075.24 481.95 2323.27 432.23 2160.29 557.53 2094.13 739.06 2345.41 695.15
00001298 00000119 2002.08 149.16 558.69 786.81 2077.56 480.34 2326.16 431.31 2161.81 557.18 2095.95 738.74 2347.37 695.45
00001299 00000120 2002.11 148.55 558.33 786.18 2079.33 479.86 2328.11 432.55 2163.99 556.35 2096.08 737.97 2348.36 696.28
00001300 00000121 1998.33 148.85 559.28 779.02 2073.49 475.04 2336.27 430.80 2160.80 554.54 2088.31 734.02 2352.94 697.80
00001301 00000122 1999.46 147.63 561.94 777.70 2074.33 474.92 2336.33 430.24 2159.79 553.18 2088.40 733.72 2352.15 697.28
00001302 00000123 1998.99 145.89 563.51 778.05 2074.48 472.97 2336.59 430.33 2158.95 553.00 2087.16 732.79 2352.06 698.10
00001303 00000124 1998.57 144.91 563.91 780.12 2075.00 471.69 2337.30 430.71 2158.62 552.91 2086.86 731.37 2350.84 697.92
00001304 00000125 1999.11 143.98 563.67 780.20 2075.73 471.32 2337.43 430.40 2158.95 551.57 2087.27 730.17 2349.53 696.86
00001305 00000126 1998.95 144.16 561.57 779.26 2074.48 471.30 2336.28 429.56 2157.61 550.50 2085.15 730.86 2348.24 696.79
00001306 00000127 1997.84 148.04 560.13 768.31 2072.18 470.69 2332.57 428.99 2155.29 550.18 2081.87 730.95 2346.46 696.88
00001307 00000128 1996.59 147.92 557.26 773.32 2070.15 472.75 2330.05 428.17 2149.68 548.75 2079.86 732.73 2344.60 695.58
00001308 00000129 1994.86 147.91 556.86 771.32 2066.97 472.77 2325.44 427.58 2144.72 549.06 2076.76 733.21 2341.70 695.35
00001309 00000130 1989.67 147.16 556.25 776.21 2064.07 475.64 2320.62 429.32 2138.23 548.85 2071.43 735.48 2338.12 696.48
00001310 00000131 1985.03 148.65 557.41 773.30 2059.50 477.18 2314.68 429.60 2134.03 550.09 2067.49 737.64 2336.23 697.49
00001311 00000132 1981.16 149.30 559.35 774.24 2055.36 479.80 2312.16 428.31 2131.39 548.75 2065.55 739.30 2335.46 695.70
00001312 00000133 1983.51 147.56 554.55 782.52 2057.99 481.50 2298.01 433.39 2129.21 553.54 2072.99 738.01 2321.37 694.81
00001313 00000134 1981.86 147.91 556.68 781.77 2056.80 483.15 2296.54 434.21 2128.25 555.03 2072.50 738.30 2320.77 694.26
00001314 00000135 1981.74 148.86 557.84 780.98 2056.06 484.37 2296.02 433.96 2128.56 554.87 2072.46 738.95 2320.65 693.62
00001315 00000136 1981.89 148.17 557.33 781.18 2056.23 484.28 2296.18 433.61 2128.58 554.27 2072.48 739.40 2320.17 693.97
00001316 00000137 1983.53 147.24 554.56 781.23 2057.94 483.16 2296.81 433.94 2129.49 554.61 2073.28 737.93 2322.97 693.63
00001317 00000138 1981.67 148.42 557.62 774.31 2054.90 480.40 2310.76 427.19 2130.90 549.07 2067.52 739.96 2335.02 695.24
00001318 00000139 1985.01 148.79 555.74 775.23 2057.87 479.22 2312.63 428.65 2132.83 552.13 2069.82 741.24 2335.49 699.01
00001319 00000140 1989.02 148.42 553.14 775.72 2061.22 480.62 2314.96 428.18 2136.00 550.90 2074.09 740.56 2338.43 696.65
00001320 00000141 1992.35 149.23 552.85 772.02 2063.35 479.40 2318.43 429.27 2138.63 550.40 2072.86 739.75 2339.58 698.06
00001321 00000142 1995.70 148.39 554.78 771.82 2066.09 478.00 2321.70 429.32 2140.85 549.24 2076.73 739.02 2339.03 698.97
00001322 00000143 1996.51 146.21 556.57 774.13 2066.96 477.59 2322.79 429.52 2141.85 550.32 2076.92 739.32 2339.27 700.02
00001323 00000144 1996.77 147.04 558.61 773.29 2067.33 477.79 2324.26 430.40 2142.73 550.06 2077.10 739.03 2339.74 700.36
00001324 00000145 1997.03 146.67 557.98 774.25 2066.85 477.81 2324.42 430.04 2142.44 550.70 2077.05 739.53 2340.59 700.48
00001325 00000146 1996.67 146.33 557.99 778.56 2066.18 477.10 2323.33 430.46 2141.57 551.35 2076.77 738.15 2338.63 699.83
00001326 00000147 1994.60 148.07 557.02 772.27 2065.11 478.29 2319.82 430.49 2137.89 552.55 2073.54 739.94 2337.49 700.70
00001327 00000148 1992.30 147.20 555.35 773.14 2063.04 479.48 2318.09 431.09 2136.56 552.68 2073.26 740.85 2335.47 701.28
00001328 00000149 1988.07 147.15 556.17 776.67 2060.25 478.66 2315.66 431.61 2132.56 552.25 2068.34 739.80 2332.93 700.72
00001329 00000150 1985.07 147.61 555.69 776.24 2057.50 479.52 2313.87 431.49 2131.31 553.17 2067.75 741.76 2331.86 701.92
00001330 00000151 1985.94 145.46 554.78 784.93 2058.15 482.40 2299.01 436.18 2127.97 558.07 2072.78 743.12 2317.96 702.36
00001331 00000152 1984.25 145.37 554.83 785.05 2057.50 482.43 2297.63 436.26 2125.86 558.12 2071.71 743.14 2316.79 702.23
00001332 00000153 1980.60 145.43 551.91 770.55 2057.46 473.02 2302.72 425.98 2122.84 557.09 2065.63 738.95 2323.21 703.02
00001333 00000154 1983.94 146.02 555.49 783.43 2057.96 484.11 2295.87 437.31 2125.85 560.11 2072.08 744.32 2318.78 702.76
00001334 00000155 1984.78 145.49 555.01 788.40 2057.47 482.31 2299.03 437.42 2130.05 562.45 2075.22 742.61 2319.65 703.08
00001335 00000156 1988.48 146.29 551.62 784.17 2061.51 483.07 2300.39 438.57 2131.08 562.13 2075.04 743.06 2321.83 703.69
00001336 00000157 1990.29 144.57 553.14 788.48 2062.41 482.73 2304.27 437.70 2132.98 561.75 2075.99 745.68 2322.62 706.22
00001337 00000158 1992.17 145.32 553.55 786.56 2065.55 482.78 2306.66 438.07 2135.76 561.66 2079.43 744.76 2325.50 705.43
00001338 00000159 1991.95 146.64 554.51 780.95 2061.57 481.02 2319.08 433.73 2136.58 557.48 2071.77 745.28 2336.77 707.06
00001339 00000160 1993.24 147.84 556.23 778.05 2062.74 480.64 2321.82 434.02 2140.45 556.88 2074.22 744.90 2337.59 707.55
00001340 00000161 1994.66 147.57 555.53 777.66 2063.64 480.05 2320.76 432.89 2140.10 558.70 2076.93 745.58 2337.51 707.98
00001341 00000162 1994.81 147.67 554.51 777.25 2063.72 480.46 2320.82 433.08 2139.98 558.76 2076.81 746.10 2337.31 708.36
