Video ID: 	KBi2RHJ9pcM
H: 	1080
W: 	1920
FPS: 	29.97002997002997

FRAME INDEX X0 Y0 W H [Landmarks (5 Points)]

00014232 00000000 576.72 141.57 420.69 605.91 740.76 371.21 935.62 360.62 889.28 485.32 768.85 602.02 931.68 592.98
00014233 00000001 580.24 134.33 423.27 634.59 745.02 359.31 936.72 358.01 887.48 479.79 772.57 601.79 933.37 599.19
00014234 DELETE   583.81 138.90 421.87 635.74 747.62 361.66 937.91 360.34 890.88 483.68 772.43 604.81 933.80 602.54
00014235 00000003 586.53 140.36 422.18 633.68 750.60 367.16 938.61 364.38 893.59 487.11 775.02 604.87 937.80 601.51
00014236 00000004 586.47 140.48 422.22 633.68 750.42 367.41 938.37 364.45 893.44 487.01 775.34 605.05 937.81 601.55
00014237 00000005 586.78 141.71 424.25 626.48 750.02 372.75 939.79 368.30 892.81 490.87 778.17 605.08 942.40 600.39
00014238 00000006 585.27 142.10 425.13 623.23 748.65 376.56 940.02 369.54 892.21 494.19 781.01 607.86 943.75 600.98
00014239 00000007 584.06 143.64 426.19 622.86 747.74 378.36 939.17 371.16 890.68 497.18 781.14 610.31 942.36 603.41
00014240 00000008 582.20 145.52 425.89 622.89 747.59 381.45 937.56 373.11 889.73 501.00 779.61 612.23 940.19 604.50
00014241 00000009 582.19 145.53 425.87 622.77 747.63 381.46 937.56 373.12 889.78 500.99 779.66 612.22 940.18 604.50
00014242 00000010 578.50 146.50 427.66 621.77 747.64 384.00 939.54 375.51 890.26 504.97 779.15 615.40 938.28 607.62
00014243 00000011 577.82 143.84 427.75 625.37 743.28 386.74 940.03 377.58 888.23 508.86 778.08 618.90 939.71 610.40
00014244 00000012 576.46 151.83 426.02 614.11 739.36 391.34 942.52 379.00 887.97 515.00 768.26 621.61 938.53 611.08
00014245 00000013 577.10 143.77 425.06 636.30 744.13 384.74 935.23 378.22 884.44 511.05 771.08 621.16 929.26 615.20
00014246 00000014 577.15 143.12 425.24 636.85 744.00 384.75 935.23 377.87 884.39 511.01 771.28 621.38 929.30 615.08
00014247 00000015 575.75 144.51 425.20 638.99 742.81 383.23 931.90 377.77 883.04 510.02 766.83 619.63 928.42 614.60
00014248 00000016 571.64 151.27 426.98 633.56 738.27 391.78 933.23 377.25 884.35 511.40 753.62 619.94 929.42 608.46
00014249 00000017 570.35 149.66 426.14 631.09 738.30 393.13 930.74 376.39 884.71 510.27 753.70 617.56 928.37 604.42
00014250 00000018 569.25 150.55 425.41 625.44 736.19 394.52 929.16 376.08 883.30 510.78 753.49 616.96 927.91 602.41
00014251 00000019 568.87 151.01 425.84 624.48 736.25 394.64 928.94 376.23 883.46 510.79 753.75 616.77 927.76 602.22
00014252 00000020 568.91 151.83 424.98 623.98 737.03 394.53 928.98 377.00 883.08 511.28 755.04 617.46 927.47 603.57
00014253 00000021 569.64 152.27 425.40 629.50 736.83 393.51 929.71 376.70 883.36 511.13 754.38 620.70 927.07 607.36
00014254 00000022 570.51 150.96 424.66 629.80 739.78 392.70 931.60 377.86 885.58 513.04 757.07 621.23 926.80 609.75
00014255 00000023 572.04 149.13 422.90 622.63 739.87 387.64 933.15 377.00 886.47 510.59 765.60 621.98 927.12 612.91
00014256 00000024 571.97 149.28 422.85 622.93 739.90 387.27 932.96 377.23 885.78 510.29 765.64 621.87 927.05 613.22
00014257 00000025 571.97 149.50 423.44 611.96 738.89 387.51 934.03 377.81 885.90 509.65 770.71 621.83 927.88 613.11
00014258 00000026 571.81 152.62 423.55 606.85 736.90 388.49 933.36 377.07 884.60 509.78 771.69 622.31 929.39 612.01
00014259 00000027 572.80 153.22 423.42 606.45 736.53 389.72 934.48 377.76 882.76 512.23 773.94 624.32 930.97 613.20
00014260 00000028 573.33 154.97 423.49 611.22 736.27 391.84 935.28 377.96 883.85 514.71 777.21 628.85 934.69 616.05
00014261 00000029 573.32 154.29 423.47 611.21 736.26 392.13 935.42 378.55 883.88 514.73 777.03 628.66 934.60 616.13
00014262 00000030 572.73 160.35 423.00 607.81 736.33 394.24 934.85 380.08 882.37 520.01 777.88 634.07 931.92 620.75
00014263 00000031 572.99 165.45 419.74 608.51 733.27 398.98 931.39 381.47 878.80 522.86 768.39 635.43 928.48 620.30
00014264 00000032 573.79 162.83 420.64 611.80 734.14 398.13 932.53 380.58 880.17 521.69 767.03 633.37 929.66 618.37
00014265 00000033 574.95 155.48 422.06 616.94 737.28 392.23 936.34 378.06 884.37 519.24 774.41 632.32 933.06 619.29
00014266 00000034 575.13 156.01 421.71 616.59 736.98 392.51 936.10 378.07 884.12 519.03 774.24 632.37 933.19 619.10
00014267 00000035 575.58 156.24 422.12 614.72 737.14 392.12 936.40 377.32 884.29 517.91 775.17 631.24 933.84 617.75
00014268 00000036 575.98 156.90 422.22 614.70 737.25 392.08 936.63 376.99 884.71 517.32 775.31 631.18 934.49 617.49
00014269 00000037 576.61 157.55 422.15 613.30 737.89 391.60 937.10 376.86 884.65 516.73 775.91 630.50 934.51 617.11
00014270 00000038 576.91 156.66 422.46 613.95 738.51 390.95 937.58 377.06 884.92 516.15 775.89 629.77 934.41 617.19
00014271 00000039 577.32 156.70 421.91 613.11 738.62 390.70 937.79 377.34 884.66 515.89 775.56 629.37 934.08 617.26
00014272 00000040 576.89 156.54 422.16 612.33 738.99 389.81 937.67 377.22 884.38 515.32 774.84 627.84 933.16 616.42
00014273 00000041 575.05 154.86 422.75 613.65 737.42 390.38 935.75 377.30 883.13 514.13 774.10 627.37 931.82 615.46
00014274 00000042 573.19 152.85 421.68 615.59 732.86 393.13 928.72 378.29 877.54 513.72 771.18 627.35 928.18 613.97
00014275 00000043 570.40 151.94 420.88 618.19 728.39 394.00 922.61 377.66 872.00 513.44 768.87 627.70 924.21 613.01
00014276 00000044 570.38 152.28 420.94 618.01 728.39 393.99 922.63 377.70 872.06 513.30 768.81 627.62 924.27 612.97
00014277 00000045 569.04 156.43 417.35 615.07 720.42 400.25 915.51 379.90 861.05 518.50 754.81 628.08 916.22 610.43
00014278 DELETE   565.33 158.58 420.15 613.67 716.20 400.68 911.53 381.14 854.05 517.85 752.78 629.71 911.73 612.31
00014279 00000047 563.11 164.01 422.32 610.83 712.17 400.73 909.25 382.19 848.79 519.28 748.39 631.11 908.34 614.28
00014280 00000048 561.50 163.49 422.92 609.90 710.62 399.82 908.37 382.50 846.00 521.37 745.73 630.49 905.27 614.80
00014281 00000049 561.63 164.03 422.93 609.47 710.56 399.75 908.41 382.51 846.05 521.37 745.63 630.46 905.36 614.82
00014282 00000050 560.65 162.07 423.27 609.95 709.44 400.33 907.37 383.76 843.84 520.39 743.33 629.42 902.98 614.43
00014283 00000051 560.10 164.44 422.96 606.39 708.55 400.40 906.61 383.92 842.98 519.93 741.55 628.11 902.35 613.29
00014284 00000052 559.92 164.06 422.71 607.97 708.17 400.57 906.38 383.22 843.80 520.08 741.90 628.46 902.77 612.81
00014285 00000053 559.56 165.91 423.26 606.33 708.38 400.84 906.21 383.63 843.88 520.65 742.66 629.63 902.44 614.10
00014286 00000054 558.94 164.96 424.00 607.42 708.41 400.83 906.16 384.00 843.89 520.59 742.83 629.95 902.31 614.77
00014287 00000055 559.93 165.83 423.00 607.17 708.35 401.17 906.70 384.21 844.05 522.02 743.37 631.17 903.02 615.88
00014288 00000056 561.50 163.98 422.32 610.80 709.01 402.08 907.70 384.51 844.09 522.51 743.91 632.91 903.94 617.22
00014289 00000057 561.84 163.90 422.97 610.68 709.41 402.05 907.85 384.43 844.26 522.51 744.50 632.60 904.16 616.89
00014290 00000058 562.59 165.87 423.48 608.59 709.36 402.47 908.91 383.27 844.98 522.28 745.32 633.10 906.16 616.00
00014291 00000059 562.59 165.43 423.93 609.48 709.35 402.32 909.01 383.14 844.97 522.28 745.40 633.25 906.29 616.14
00014292 00000060 563.82 163.95 423.45 610.82 711.20 401.94 910.21 383.49 846.70 521.33 746.48 632.53 908.29 615.98
00014293 00000061 565.61 167.17 422.22 608.42 713.06 402.45 911.33 383.05 848.92 520.66 749.18 633.30 910.21 616.06
00014294 00000062 566.23 165.79 422.54 611.28 713.92 402.30 912.69 383.34 850.35 520.10 749.16 633.10 911.60 616.28
00014295 00000063 567.20 164.17 423.07 612.99 714.33 401.51 914.06 382.17 851.33 521.26 750.14 633.44 912.90 616.50
00014296 00000064 567.15 163.60 423.13 613.46 714.35 401.26 914.29 382.06 851.29 521.44 750.06 633.48 912.89 616.66
00014297 00000065 569.49 163.50 421.63 613.22 716.25 400.72 915.50 381.76 852.36 520.30 751.23 632.62 914.18 616.08
00014298 00000066 571.76 164.50 419.62 611.29 717.91 399.11 916.71 381.63 854.48 520.05 752.64 631.46 914.95 616.09
00014299 00000067 572.10 165.93 419.75 608.73 718.77 398.50 917.17 381.83 855.74 519.42 752.85 630.57 914.95 615.93
00014300 00000068 572.77 165.95 419.51 607.82 719.08 398.04 917.70 381.82 856.50 519.67 753.01 630.33 914.81 616.12
00014301 00000069 572.65 165.73 419.71 607.89 719.05 397.85 917.65 381.51 856.42 519.70 753.42 630.51 914.74 616.15
00014302 00000070 572.17 166.42 420.09 607.29 718.98 398.10 917.55 381.64 856.70 519.89 753.53 630.64 914.67 616.18
00014303 00000071 571.52 165.19 420.47 608.17 718.88 398.48 917.11 382.12 856.23 520.57 754.17 631.24 913.89 616.85
00014304 00000072 570.93 166.70 421.04 606.79 718.53 398.36 917.19 382.13 855.94 520.18 753.98 631.38 913.29 617.08
00014305 00000073 571.04 166.18 420.72 606.82 719.54 397.86 917.86 382.63 856.23 520.11 754.06 630.87 912.93 617.43
00014306 00000074 570.83 166.23 420.93 606.24 719.27 397.79 917.73 382.50 855.90 520.45 754.03 630.71 912.96 617.22
00014307 00000075 570.90 166.23 420.28 606.00 718.91 397.98 917.60 382.54 855.29 520.39 753.52 631.24 912.78 617.63
00014308 00000076 570.73 167.02 419.81 604.88 718.34 398.19 917.51 382.72 854.76 521.13 752.33 631.06 912.36 617.48
00014309 00000077 570.64 166.08 419.43 606.45 718.75 397.66 916.89 382.42 854.10 519.75 752.44 630.62 911.79 617.17
00014310 00000078 570.47 164.65 420.14 608.38 719.31 396.90 917.04 381.99 854.87 519.63 752.34 629.74 911.98 616.54
00014311 00000079 570.50 165.06 420.03 608.03 719.53 396.80 916.97 381.81 854.86 519.44 752.60 629.80 911.82 616.58
00014312 00000080 571.04 165.29 420.20 607.86 719.47 395.90 918.19 380.47 856.82 518.73 753.40 630.17 912.93 616.54
00014313 00000081 571.27 161.82 421.40 612.06 721.02 395.40 918.49 379.28 858.76 517.20 755.27 629.92 913.87 615.85
00014314 00000082 571.64 160.74 421.02 613.82 722.17 395.45 919.33 379.98 859.93 517.43 756.30 630.62 913.89 617.15
00014315 00000083 571.52 160.88 421.30 617.00 722.63 395.09 921.09 380.49 860.97 521.11 756.27 634.46 913.66 621.54
00014316 00000084 571.37 160.90 421.25 616.82 722.69 395.08 921.09 380.51 861.23 521.20 756.20 634.34 913.82 621.49
00014317 00000085 570.51 167.44 420.55 612.51 723.21 398.01 922.16 382.67 863.11 524.39 758.38 643.14 910.81 629.62
00014318 00000086 571.82 178.17 419.96 603.44 723.60 400.96 925.07 385.50 864.76 532.50 761.26 649.24 914.07 635.42
00014319 DELETE   574.60 195.82 417.26 589.89 726.49 407.82 924.24 391.30 865.71 538.54 765.57 655.13 914.55 640.38
00014320 DELETE   577.98 194.97 416.25 590.35 726.57 410.00 926.10 392.66 868.30 540.15 769.25 658.37 916.97 642.90
00014321 DELETE   577.90 195.15 416.34 590.27 726.43 410.10 925.99 392.63 868.25 540.05 769.14 658.32 917.05 642.74
00014322 00000090 579.53 183.32 414.66 594.95 729.09 403.99 929.56 389.15 870.08 534.43 770.21 652.57 916.92 639.64
00014323 00000091 578.84 153.26 417.49 617.42 737.38 384.73 930.43 376.11 875.92 515.38 789.65 638.64 919.68 631.26
00014324 00000092 583.40 143.04 417.96 615.82 740.78 377.58 930.20 371.43 879.39 498.35 795.61 625.71 924.52 619.61
00014325 00000093 588.83 138.61 417.54 614.26 743.42 366.61 934.80 361.49 882.85 487.80 795.91 617.09 930.06 611.75
00014326 DELETE   589.22 138.85 417.28 613.96 743.42 366.68 934.58 361.41 882.70 487.78 796.00 617.05 929.91 611.62
00014327 00000095 597.27 137.80 414.94 613.37 746.75 361.79 943.04 358.56 886.58 480.46 796.61 611.70 935.81 607.57
00014328 00000096 604.27 132.16 412.26 617.07 752.39 362.33 948.58 357.05 893.03 479.80 798.36 606.90 944.06 600.60
00014329 DELETE   609.22 131.81 413.78 617.38 758.12 361.06 954.92 352.12 901.07 478.65 803.43 605.28 953.15 595.72
00014330 DELETE   609.57 131.05 419.18 618.16 761.58 363.94 959.50 352.20 906.94 478.37 807.73 605.02 960.08 592.91
00014331 DELETE   609.64 131.01 419.17 618.50 761.85 363.65 959.62 351.76 907.15 478.22 808.01 604.90 960.27 592.66
00014332 00000100 611.09 135.78 419.99 616.44 764.66 364.02 961.80 354.02 908.41 478.84 806.12 602.52 960.86 592.02
00014333 00000101 609.54 136.34 419.98 616.65 762.82 361.16 961.70 355.07 905.47 477.46 798.61 599.72 958.14 592.55
00014334 00000102 605.56 135.27 418.94 619.31 760.15 353.73 958.59 352.98 901.68 473.39 793.05 597.64 951.21 594.83
00014335 00000103 602.49 134.16 417.37 622.47 755.22 349.95 954.64 350.59 897.11 471.22 786.34 596.00 947.77 594.40
00014336 00000104 602.34 134.09 417.50 622.50 755.11 349.92 954.66 350.56 897.04 471.17 786.18 596.01 947.80 594.39
00014337 00000105 596.96 132.68 418.77 623.66 748.26 350.89 948.26 351.76 890.14 470.29 778.17 594.52 942.78 593.14
00014338 00000106 592.58 133.99 419.20 620.54 745.42 352.51 944.52 353.12 886.62 471.01 776.89 595.36 938.75 593.87
00014339 00000107 591.14 131.52 420.94 621.23 745.91 355.73 943.17 354.85 885.99 474.70 781.90 597.43 937.05 594.80
00014340 00000108 592.44 134.76 419.09 618.04 746.97 358.32 943.12 357.74 885.01 478.24 783.37 599.93 934.44 598.03
00014341 00000109 592.00 135.60 419.57 617.33 746.98 358.39 943.06 357.68 884.87 478.16 783.55 599.85 934.37 597.85
00014342 00000110 588.36 137.96 422.49 616.94 742.19 364.21 942.48 362.70 883.98 481.56 781.10 602.92 940.09 600.07
00014343 00000111 587.44 136.51 422.78 620.76 742.11 368.00 939.72 364.16 883.84 485.95 783.66 607.55 939.08 602.80
00014344 00000112 588.18 138.79 421.41 619.87 742.20 369.51 938.88 365.00 883.80 486.59 788.37 610.36 940.09 605.09
00014345 00000113 587.51 137.78 421.14 621.36 743.19 370.48 938.59 365.64 885.21 487.08 790.69 611.72 940.62 606.23
00014346 00000114 587.26 137.79 421.41 621.65 742.65 370.49 938.61 365.30 884.97 487.00 790.56 612.15 940.90 606.31
00014347 00000115 585.97 137.44 421.76 622.43 743.21 371.17 938.44 365.94 885.55 488.44 790.71 612.91 940.37 607.00
00014348 00000116 584.66 139.91 422.67 619.31 742.75 372.67 937.86 367.80 884.52 490.10 789.42 612.10 939.28 606.58
00014349 00000117 584.01 140.33 422.31 618.79 742.30 374.00 937.30 369.04 884.61 491.40 788.65 613.16 938.02 607.76
00014350 00000118 584.14 139.79 422.35 620.16 741.88 375.90 936.46 370.06 883.88 492.80 788.56 614.10 937.73 607.88
00014351 00000119 584.31 140.34 422.33 619.51 741.79 375.77 936.36 369.70 883.84 492.77 788.87 614.12 937.94 607.72
00014352 00000120 584.40 142.28 422.58 617.94 742.91 376.77 935.64 369.97 884.37 493.93 791.33 615.30 937.81 608.35
00014353 00000121 585.65 142.06 421.67 618.16 744.00 377.21 936.02 369.96 885.14 494.69 793.24 616.20 938.17 608.88
00014354 00000122 586.50 141.19 421.56 619.82 745.14 375.81 936.05 368.19 885.83 493.80 795.21 616.46 938.64 608.88
00014355 00000123 587.66 140.41 420.59 619.89 746.00 374.90 936.52 367.13 886.86 492.48 796.64 616.23 939.19 608.45
00014356 00000124 587.74 140.61 420.65 619.32 745.94 374.76 936.65 367.34 886.50 492.56 796.22 615.72 939.22 608.23
00014357 00000125 588.24 139.84 420.08 619.09 745.76 374.58 936.38 367.56 886.44 492.00 797.68 616.10 938.63 608.90
CROP_BBOX: 236 0 1296 1010
