Video ID: 	om3_g7tyCQA
H: 	1080
W: 	1920
FPS: 	25.0

FRAME INDEX X0 Y0 W H [Landmarks (5 Points)]

00008771 00000000 838.42 253.70 378.07 519.60 948.59 462.15 1120.61 474.60 1036.90 558.93 954.73 639.33 1099.56 649.76
00008772 00000001 835.72 240.43 379.32 524.83 945.02 452.09 1128.64 467.17 1038.80 551.70 941.07 627.67 1102.44 640.39
00008773 00000002 835.84 243.21 378.55 512.11 941.69 445.33 1125.73 461.50 1031.52 543.02 934.38 617.80 1099.70 631.53
00008774 00000003 834.76 239.22 376.47 508.57 935.41 440.72 1116.48 456.65 1021.09 536.13 926.30 607.65 1096.41 620.99
00008775 00000004 832.18 240.07 374.45 502.37 928.55 440.34 1109.37 458.19 1012.49 534.67 915.80 602.14 1090.72 617.36
00008776 00000005 828.34 233.46 374.32 515.92 921.01 441.19 1104.11 461.97 999.79 539.58 915.59 609.95 1087.11 629.08
00008777 DELETE   826.77 242.75 378.66 520.83 922.93 452.94 1103.97 474.51 1000.25 552.33 913.68 615.53 1091.22 634.68
00008778 00000007 826.28 261.98 383.24 512.29 930.94 463.28 1106.64 486.21 1007.68 566.17 920.04 623.90 1092.89 644.49
00008779 00000008 830.22 275.41 374.75 503.77 931.36 466.20 1115.65 488.21 1014.71 576.59 911.84 631.87 1100.07 650.56
00008780 00000009 829.44 272.82 378.75 518.41 933.24 466.41 1116.97 486.98 1017.38 577.66 915.28 636.76 1099.08 654.32
00008781 00000010 829.77 265.62 382.71 521.96 932.26 464.51 1111.27 483.44 1010.60 569.20 922.87 629.76 1103.07 647.36
00008782 00000011 828.76 253.52 380.96 523.21 927.82 457.96 1108.53 474.21 1008.15 558.19 920.12 622.74 1102.87 637.86
00008783 00000012 829.35 245.34 379.00 525.57 926.03 450.58 1107.10 467.53 1006.48 547.95 917.65 614.27 1099.95 630.59
00008784 00000013 832.29 234.53 375.55 528.72 928.49 439.73 1110.30 461.83 1007.67 541.52 917.84 607.72 1096.81 628.41
00008785 00000014 832.99 229.25 375.39 529.30 931.03 433.54 1113.34 458.63 1010.88 537.29 918.68 604.83 1093.99 627.82
00008786 00000015 834.16 238.89 374.87 516.81 937.35 433.93 1118.27 459.32 1018.79 537.37 920.14 605.32 1091.44 626.14
00008787 00000016 834.54 239.10 372.46 515.25 937.41 436.35 1117.87 462.47 1019.61 542.80 922.38 610.94 1085.83 632.93
00008788 00000017 831.77 249.67 375.74 509.59 934.88 442.76 1117.24 469.27 1020.29 556.19 924.63 619.57 1085.72 641.79
00008789 00000018 832.04 262.18 376.90 501.48 932.63 451.74 1115.48 473.88 1017.33 567.79 925.76 635.53 1081.59 655.30
00008790 00000019 832.54 269.16 374.52 497.35 932.92 456.37 1115.79 477.26 1017.97 572.51 927.08 639.41 1081.24 657.81
00008791 00000020 832.89 255.06 376.96 509.52 931.30 453.25 1114.11 468.64 1015.51 565.46 936.12 641.55 1088.07 655.59
00008792 00000021 830.67 250.95 375.46 509.36 934.98 446.49 1116.05 467.26 1022.69 556.99 932.46 627.31 1084.79 645.25
00008793 00000022 833.47 244.30 371.40 505.11 935.29 441.52 1114.63 460.65 1020.10 543.53 928.22 615.48 1083.64 632.55
00008794 00000023 834.15 240.44 372.66 502.76 936.35 433.48 1115.66 454.88 1019.33 535.00 926.88 605.55 1083.71 624.10
00008795 00000024 836.13 231.00 375.42 510.38 942.40 427.84 1122.91 450.84 1022.79 530.36 927.78 599.80 1088.70 619.59
00008796 00000025 838.33 225.80 375.94 511.91 950.08 425.26 1132.06 449.51 1030.80 523.96 927.71 593.58 1097.17 614.57
00008797 00000026 841.49 223.06 379.10 513.68 956.50 424.03 1139.49 449.34 1038.06 521.08 929.58 590.54 1106.68 612.43
00008798 00000027 838.99 218.21 383.45 517.97 956.78 414.20 1141.45 445.93 1037.54 517.55 943.37 588.00 1106.03 615.26
00008799 00000028 841.53 216.37 385.22 528.61 960.15 414.13 1145.04 447.20 1041.88 518.53 947.34 593.33 1107.29 621.84
00008800 00000029 840.17 217.19 387.89 537.04 960.23 415.55 1144.02 448.06 1041.67 523.67 948.00 598.05 1105.47 626.19
00008801 00000030 847.16 232.92 381.42 525.21 960.97 424.92 1136.57 449.86 1043.34 533.54 951.01 609.42 1097.93 630.25
00008802 00000031 845.92 235.66 381.23 531.15 959.17 427.32 1135.32 450.17 1043.70 537.12 952.38 616.15 1096.27 635.22
00008803 00000032 843.33 233.50 381.94 536.49 954.39 427.69 1131.99 446.72 1042.49 536.95 954.75 620.91 1095.88 636.60
00008804 00000033 841.14 230.13 382.09 540.64 950.38 425.38 1127.53 444.42 1038.80 535.22 953.04 619.86 1092.27 635.36
00008805 00000034 838.18 227.14 381.78 543.92 946.67 425.30 1123.38 442.76 1035.75 531.26 950.86 619.76 1088.42 634.00
00008806 00000035 836.29 224.21 378.56 545.22 941.22 427.13 1117.75 442.81 1029.91 528.52 947.42 619.54 1084.42 632.43
00008807 00000036 835.71 223.18 376.37 543.28 940.92 431.64 1113.72 440.33 1028.68 527.99 946.97 626.72 1089.04 635.04
00008808 00000037 837.13 227.28 374.48 540.44 941.05 434.86 1112.74 442.96 1028.47 530.64 948.66 629.74 1089.50 637.60
00008809 00000038 835.15 229.78 378.60 540.36 939.12 438.87 1115.30 443.45 1029.49 535.12 950.24 633.97 1095.78 638.78
00008810 00000039 836.98 231.65 376.78 537.10 940.41 439.59 1117.36 444.29 1031.07 538.16 952.48 634.84 1098.04 639.82
00008811 00000040 837.29 228.36 375.36 534.80 939.76 436.96 1118.55 441.76 1030.49 537.67 950.72 633.47 1095.86 638.66
00008812 00000041 834.85 227.80 378.54 532.76 943.22 435.14 1125.97 449.19 1033.70 536.10 944.72 618.83 1094.88 630.52
00008813 00000042 837.98 225.83 378.61 528.71 947.01 433.06 1128.23 448.77 1034.06 533.37 945.87 613.66 1092.86 626.94
00008814 00000043 839.89 220.53 381.19 530.03 949.20 424.39 1129.49 446.77 1029.72 536.32 949.11 612.38 1092.61 632.07
00008815 00000044 852.01 231.70 375.94 520.72 953.57 430.82 1131.30 447.83 1037.80 541.98 957.24 621.54 1094.37 635.31
00008816 00000045 857.94 234.20 374.21 523.60 961.01 437.69 1140.04 454.65 1046.03 546.25 964.61 626.95 1104.30 640.83
00008817 00000046 863.59 235.42 373.44 520.10 964.36 440.49 1144.47 454.03 1051.34 548.70 972.70 629.37 1114.79 640.45
00008818 00000047 865.28 232.50 373.51 516.72 965.40 436.27 1146.71 448.87 1052.67 546.18 974.51 623.93 1119.21 634.07
00008819 00000048 860.31 222.24 374.10 518.14 961.12 431.24 1146.91 440.82 1050.34 540.47 975.30 614.04 1127.05 622.86
00008820 00000049 860.84 218.34 373.94 517.76 961.08 428.48 1145.61 438.44 1048.91 534.40 973.82 606.33 1129.39 615.51
00008821 00000050 859.78 220.66 374.97 517.32 961.17 426.73 1144.41 438.34 1047.40 536.24 966.08 598.33 1131.46 609.18
00008822 00000051 862.06 221.59 374.97 519.67 962.60 427.11 1149.06 441.35 1047.51 534.53 962.88 596.72 1136.18 609.78
00008823 00000052 865.44 226.53 376.55 518.23 966.40 426.37 1155.50 444.68 1049.86 537.15 962.60 594.55 1144.17 610.94
00008824 00000053 871.71 232.09 374.08 521.19 971.75 429.14 1161.29 450.29 1054.65 543.55 963.39 596.74 1149.74 615.72
00008825 00000054 878.58 239.06 375.12 516.52 976.30 441.09 1159.34 466.29 1054.32 558.10 961.66 601.18 1148.61 623.82
00008826 00000055 879.89 247.59 377.02 518.62 978.87 447.69 1161.12 471.57 1057.29 560.84 965.42 608.25 1152.45 629.60
00008827 00000056 881.59 255.51 375.49 517.16 979.53 450.53 1160.45 471.90 1057.68 564.83 967.69 612.86 1152.77 632.46
00008828 00000057 879.97 255.03 374.01 519.98 974.98 449.74 1156.37 466.59 1054.26 560.29 966.35 613.43 1152.09 629.02
00008829 00000058 877.90 246.44 371.99 525.07 972.25 443.63 1153.38 463.54 1049.79 552.47 962.99 607.59 1148.52 625.29
00008830 00000059 877.25 238.80 371.41 524.03 969.25 438.25 1151.90 458.51 1046.18 546.94 961.96 602.24 1147.18 619.99
00008831 00000060 879.32 229.68 371.66 526.70 970.24 429.88 1154.00 451.27 1047.80 540.08 959.31 593.32 1146.94 611.67
00008832 00000061 882.88 226.21 373.67 527.17 975.58 425.52 1157.69 445.90 1054.45 535.10 965.36 589.60 1149.03 606.67
00008833 00000062 886.88 224.21 375.46 530.49 982.41 426.75 1164.47 446.72 1063.76 534.05 971.93 590.66 1155.88 607.23
00008834 00000063 890.74 227.04 376.60 531.25 990.15 431.41 1172.11 451.17 1074.15 538.41 980.39 600.19 1159.84 617.34
00008835 00000064 897.45 234.95 372.39 522.58 998.96 442.55 1176.43 460.63 1084.00 544.78 993.47 611.84 1161.75 628.31
00008836 00000065 902.61 240.34 371.21 521.15 1003.69 453.88 1179.74 464.07 1090.95 553.63 1003.50 624.77 1165.60 634.66
00008837 00000066 903.08 244.80 372.07 514.84 1001.26 459.07 1182.74 465.00 1091.24 562.55 1008.03 636.14 1167.19 642.95
00008838 00000067 902.03 242.66 372.54 518.44 997.10 459.47 1181.14 462.38 1087.61 567.28 1007.09 639.95 1168.01 644.44
00008839 00000068 898.01 240.05 371.53 521.67 990.36 457.91 1171.43 458.46 1080.99 565.19 1004.61 639.01 1162.12 641.00
00008840 00000069 892.99 233.71 368.79 525.83 983.18 451.51 1163.21 452.86 1073.78 557.19 999.84 635.63 1155.21 637.24
00008841 00000070 888.90 232.02 366.55 523.12 977.38 445.18 1158.59 445.52 1068.86 549.45 996.91 632.26 1149.80 632.07
00008842 00000071 882.12 228.86 368.18 523.88 972.51 440.77 1154.72 438.31 1068.68 544.54 996.26 630.86 1144.83 628.05
00008843 00000072 877.84 226.10 369.02 524.60 970.05 439.46 1153.93 433.48 1069.05 540.82 997.33 631.33 1144.54 625.32
00008844 00000073 873.76 228.87 370.34 524.74 968.80 441.98 1148.70 431.96 1069.82 543.17 1000.86 634.48 1141.50 625.22
00008845 00000074 869.58 231.58 370.35 523.62 965.55 443.03 1145.52 432.26 1067.80 545.87 998.86 636.83 1139.80 627.23
00008846 00000075 864.90 232.40 373.04 523.53 963.79 442.65 1142.72 434.28 1064.04 543.50 996.44 634.98 1135.51 627.35
00008847 00000076 862.43 235.20 372.72 519.37 961.62 441.35 1141.72 436.31 1060.58 543.05 991.26 631.52 1132.20 626.70
00008848 00000077 853.29 230.14 373.92 521.81 954.44 443.51 1140.99 437.81 1054.03 547.53 979.86 626.01 1137.30 621.90
00008849 00000078 852.62 226.81 372.93 523.82 950.43 440.44 1139.53 437.64 1048.62 543.33 970.06 621.09 1133.98 619.41
00008850 00000079 846.97 220.83 374.25 534.30 947.51 432.97 1137.73 433.74 1045.46 538.59 960.73 613.92 1132.31 615.07
00008851 00000080 841.78 215.59 378.94 540.18 944.93 428.77 1132.68 431.92 1041.25 535.56 954.88 606.04 1130.21 608.89
00008852 00000081 837.68 212.44 381.25 540.12 940.46 428.03 1129.71 432.50 1035.72 533.70 949.46 601.93 1129.63 605.66
00008853 00000082 836.12 217.17 379.58 535.13 937.72 429.48 1128.20 433.58 1032.53 537.09 944.63 601.28 1128.73 604.97
00008854 00000083 841.20 220.44 373.14 533.12 938.23 435.48 1127.73 433.40 1036.97 537.42 935.84 601.97 1125.41 599.69
00008855 00000084 838.15 218.60 374.54 530.82 936.71 436.46 1124.55 433.44 1034.90 538.50 934.98 599.75 1124.50 596.54
00008856 00000085 834.36 217.76 374.00 526.11 932.30 435.60 1119.30 432.80 1030.78 537.94 931.50 596.52 1123.27 593.59
00008857 00000086 830.17 215.77 374.28 523.50 926.79 433.61 1115.45 433.14 1024.48 534.26 923.37 591.94 1119.32 591.28
00008858 00000087 829.65 218.74 374.02 518.48 923.15 435.34 1113.80 434.79 1021.19 535.06 920.60 593.70 1117.75 593.29
00008859 00000088 829.91 221.47 372.57 518.37 922.00 438.56 1110.54 441.09 1017.81 539.83 917.54 593.41 1115.45 595.10
00008860 00000089 829.22 228.95 371.54 519.02 917.99 446.98 1102.26 445.33 1006.47 541.78 920.87 601.32 1108.04 601.19
00008861 00000090 829.34 231.50 370.73 524.08 919.16 445.61 1102.27 447.74 1005.89 543.76 918.86 603.32 1106.67 606.37
00008862 00000091 830.89 230.50 371.04 528.18 922.00 442.19 1105.79 445.52 1009.99 544.13 922.44 605.64 1108.37 609.69
00008863 00000092 832.08 229.40 372.75 529.74 924.09 442.66 1109.26 445.74 1014.11 544.97 926.15 608.17 1111.20 612.07
00008864 00000093 834.91 229.10 372.09 532.12 925.17 442.41 1110.93 445.41 1014.75 545.55 929.61 611.90 1113.11 616.00
00008865 00000094 837.01 227.30 370.61 534.26 925.35 442.46 1111.38 446.22 1015.19 544.62 930.31 613.77 1112.07 618.43
00008866 00000095 836.95 217.61 370.10 544.49 927.68 434.22 1111.45 440.39 1017.20 537.07 931.13 611.94 1108.06 618.37
00008867 00000096 835.09 211.96 373.06 547.82 930.69 424.38 1114.64 432.47 1014.59 523.28 933.65 605.30 1105.68 613.51
00008868 00000097 837.17 201.19 371.78 547.58 938.62 422.89 1119.05 431.77 1014.58 507.13 926.76 593.06 1103.92 599.60
00008869 DELETE   838.93 197.59 372.69 542.02 937.06 410.05 1123.14 420.79 1015.89 497.02 920.88 585.35 1105.37 594.07
00008870 00000099 840.38 193.37 374.32 535.62 937.91 398.31 1129.36 412.16 1018.30 492.91 919.31 578.78 1109.76 590.25
00008871 00000100 845.53 192.20 373.29 525.92 944.38 395.76 1134.55 411.80 1022.32 491.34 925.29 573.70 1112.37 587.01
00008872 00000101 849.08 190.06 373.91 527.31 947.34 392.19 1133.95 415.11 1029.98 486.35 943.42 569.44 1115.25 589.00
00008873 DELETE   856.74 192.96 376.23 530.05 955.53 396.74 1144.03 421.65 1038.59 492.10 954.64 574.43 1126.55 595.62
00008874 00000103 864.75 199.68 375.91 530.24 966.46 405.82 1152.22 426.88 1049.42 503.78 967.11 586.21 1129.41 604.57
00008875 00000104 871.28 205.28 376.36 526.27 969.86 412.59 1159.54 427.74 1057.14 511.56 979.15 598.23 1136.92 611.93
00008876 00000105 873.97 205.47 377.87 529.07 973.60 417.53 1163.17 431.05 1062.02 519.28 984.94 602.04 1144.14 614.02
00008877 00000106 876.05 208.99 376.72 528.06 973.04 420.58 1161.20 434.16 1059.21 524.28 983.83 603.31 1143.01 615.19
00008878 00000107 880.71 210.80 371.02 523.57 972.66 419.53 1158.79 435.23 1054.62 523.80 982.75 601.89 1138.78 615.64
00008879 00000108 882.94 210.24 369.60 522.27 971.97 418.93 1158.00 435.06 1051.57 524.83 980.86 600.10 1138.44 614.26
00008880 00000109 883.08 208.02 370.05 520.34 973.11 416.85 1157.94 433.69 1051.55 524.68 980.68 597.78 1136.66 612.63
00008881 00000110 885.08 208.29 371.60 519.42 975.69 417.07 1161.06 433.28 1054.80 522.11 983.54 596.60 1140.70 610.83
00008882 00000111 886.89 207.87 375.56 520.74 980.10 417.85 1164.35 432.93 1060.94 523.57 988.12 595.79 1146.82 609.23
00008883 00000112 890.62 213.72 376.99 517.55 986.31 421.72 1168.92 434.53 1068.86 527.03 994.81 597.44 1154.63 609.21
00008884 00000113 893.63 221.09 379.26 515.60 993.26 426.16 1176.10 438.51 1078.53 532.24 1001.86 601.69 1161.05 613.27
00008885 00000114 900.78 226.80 374.03 510.71 1000.23 437.24 1182.69 447.64 1090.53 537.03 999.12 601.63 1164.20 610.94
00008886 00000115 903.66 228.23 372.37 510.59 1003.81 439.97 1186.39 449.92 1094.31 538.61 1002.36 603.07 1167.80 611.93
00008887 00000116 903.49 228.79 372.37 510.94 1002.39 440.02 1185.37 449.31 1093.31 540.31 1002.07 604.40 1167.92 612.58
00008888 00000117 902.56 230.07 371.78 507.94 998.68 439.02 1180.95 447.60 1088.77 539.08 999.63 603.56 1164.81 611.13
00008889 00000118 898.26 222.89 373.33 513.95 992.81 436.06 1172.97 440.23 1079.73 533.65 1000.14 608.19 1161.50 612.33
00008890 00000119 892.98 216.15 371.65 515.65 986.46 428.19 1166.89 441.22 1065.63 528.04 993.59 597.07 1153.74 608.85
00008891 DELETE   893.37 210.07 369.06 527.38 981.45 421.86 1161.40 434.11 1055.15 516.81 987.09 599.91 1143.16 610.87
00008892 DELETE   887.36 204.00 369.91 531.21 976.06 414.58 1155.23 428.62 1047.28 509.15 979.13 594.24 1134.63 606.88
00008893 00000122 882.90 196.45 367.82 534.93 969.40 405.81 1148.04 424.64 1035.89 499.98 969.88 586.83 1125.55 603.53
00008894 00000123 879.60 195.82 368.33 527.50 964.75 400.78 1143.08 419.86 1031.78 494.86 965.32 581.41 1121.20 598.27
00008895 00000124 879.17 196.54 367.09 522.84 964.15 402.05 1142.67 420.87 1031.90 496.62 965.90 581.27 1120.67 598.00
00008896 00000125 878.38 197.79 366.03 521.83 963.90 404.88 1142.58 424.21 1033.03 499.08 966.13 581.75 1121.81 598.75
00008897 00000126 877.81 202.36 365.91 515.99 964.29 409.40 1142.81 427.20 1036.26 503.55 968.43 582.75 1124.02 598.30
00008898 00000127 876.56 204.83 365.82 513.42 963.07 412.79 1142.39 430.27 1035.97 505.32 967.74 581.97 1127.73 597.19
00008899 00000128 876.08 206.11 364.90 509.97 962.94 413.76 1141.59 430.95 1036.58 505.26 967.89 580.95 1127.56 595.88
00008900 00000129 874.14 207.43 366.01 507.40 962.68 414.90 1140.84 431.18 1037.55 505.99 967.60 580.00 1127.40 594.36
00008901 00000130 873.04 207.52 367.07 505.19 962.63 414.30 1140.86 431.44 1037.45 506.42 965.95 577.57 1127.29 592.81
00008902 00000131 873.05 207.08 367.96 504.57 962.54 414.11 1140.52 431.19 1037.23 506.47 965.72 576.25 1127.57 591.45
00008903 00000132 872.81 207.90 368.46 504.17 962.60 413.72 1140.67 431.11 1037.11 505.52 965.40 575.06 1128.67 590.51
00008904 00000133 872.96 207.37 368.59 504.15 962.87 414.24 1141.41 431.08 1038.40 506.08 965.82 574.86 1130.34 589.83
00008905 00000134 872.82 208.82 367.93 503.66 962.32 414.21 1141.18 431.61 1037.00 506.17 964.32 574.65 1129.79 590.20
00008906 00000135 872.84 209.12 368.04 504.39 962.55 414.76 1140.95 432.63 1037.02 507.43 964.79 575.64 1129.30 591.47
00008907 00000136 873.04 207.76 367.96 508.13 962.19 415.15 1140.91 433.02 1036.52 509.25 963.90 576.59 1128.91 592.37
00008908 00000137 875.22 207.53 367.24 511.32 962.83 415.10 1142.21 432.66 1035.89 510.63 965.28 580.06 1129.28 595.46
00008909 00000138 876.42 204.51 368.12 524.57 964.01 414.69 1143.40 431.58 1036.86 511.20 967.74 585.66 1129.25 600.32
00008910 00000139 878.17 205.96 366.03 530.91 963.61 416.45 1145.55 433.21 1036.30 513.21 967.26 591.05 1131.07 605.50
00008911 00000140 878.63 208.20 367.12 534.14 964.40 417.30 1146.36 434.29 1037.00 516.78 967.76 593.32 1132.61 608.07
00008912 00000141 878.77 209.63 367.20 534.61 964.18 418.89 1147.65 436.58 1036.77 519.41 967.11 594.13 1135.25 609.41
00008913 00000142 878.48 213.50 368.73 530.58 966.24 423.16 1147.93 442.29 1037.76 520.45 967.01 591.98 1136.42 608.42
00008914 00000143 878.27 219.58 369.55 523.84 967.49 425.28 1149.12 444.47 1039.14 520.82 967.89 593.29 1135.62 609.90
00008915 00000144 878.42 224.96 369.40 522.99 966.52 429.91 1149.56 448.40 1038.90 527.73 966.60 597.27 1138.71 613.22
00008916 00000145 876.33 234.16 370.16 520.13 967.45 436.43 1149.86 456.04 1039.06 533.63 966.11 601.87 1139.01 618.60
00008917 00000146 878.67 242.76 370.41 514.94 968.92 449.94 1145.66 469.01 1042.33 544.84 965.82 611.36 1136.47 628.06
00008918 00000147 876.31 247.08 372.97 516.28 969.21 453.89 1147.38 473.34 1043.13 554.50 966.13 618.69 1137.07 635.82
00008919 00000148 877.43 259.72 372.42 508.92 969.49 461.57 1146.34 480.16 1042.49 563.95 966.62 625.03 1137.96 641.80
00008920 00000149 874.61 268.76 371.30 503.14 968.81 466.89 1145.24 484.16 1044.27 569.64 967.41 629.61 1137.07 645.67
00008921 00000150 873.10 277.93 371.15 494.60 968.41 471.30 1147.42 489.54 1045.71 578.12 967.08 633.24 1137.35 650.62
00008922 00000151 869.77 281.74 372.89 493.67 966.37 477.38 1145.56 495.03 1045.53 585.46 967.43 637.58 1136.11 654.25
00008923 00000152 870.43 282.06 370.93 494.92 966.81 479.30 1145.37 495.91 1046.42 589.46 969.80 643.22 1132.95 659.04
00008924 00000153 871.49 278.91 369.05 500.29 967.83 480.34 1146.03 496.65 1047.90 588.58 972.18 647.68 1131.04 663.04
00008925 00000154 871.81 279.81 368.79 496.86 968.54 478.86 1146.83 495.65 1049.52 587.45 974.21 649.42 1129.22 665.11
00008926 00000155 872.26 271.63 370.71 504.91 970.23 473.17 1147.76 490.10 1050.47 580.94 975.27 647.54 1128.94 663.15
00008927 00000156 873.35 263.41 371.25 513.31 970.62 467.14 1147.63 482.76 1049.78 572.73 975.60 644.98 1129.52 659.29
00008928 00000157 875.38 250.60 372.01 525.06 970.58 461.70 1146.39 477.56 1048.55 561.65 975.37 641.08 1130.13 654.75
00008929 00000158 875.53 242.66 371.54 523.70 969.33 452.22 1147.35 470.36 1045.47 554.71 971.93 632.83 1127.62 648.32
00008930 00000159 874.33 238.07 372.61 519.69 968.98 447.90 1146.77 465.53 1046.18 543.49 972.49 622.35 1127.81 636.97
00008931 DELETE   874.09 231.79 373.82 517.34 970.03 440.52 1146.74 458.42 1046.38 535.87 973.03 615.22 1124.86 629.87
00008932 00000161 874.05 226.17 372.15 514.83 965.29 434.04 1144.58 448.26 1043.11 530.32 970.93 610.92 1121.77 622.66
00008933 00000162 867.91 215.00 369.43 516.22 961.45 425.41 1143.18 444.04 1037.55 522.34 968.50 597.81 1119.32 614.24
00008934 00000163 867.96 201.48 366.05 520.22 960.79 416.07 1143.18 436.13 1036.86 511.94 965.34 590.72 1117.05 608.34
00008935 00000164 868.98 197.78 366.17 517.49 961.33 408.10 1141.49 428.84 1035.86 499.07 966.40 584.64 1116.35 603.04
00008936 00000165 870.71 188.71 369.72 520.19 963.28 398.04 1143.88 418.59 1038.60 490.79 966.66 578.92 1119.02 597.11
00008937 00000166 873.70 182.01 369.66 518.46 965.10 390.03 1143.08 412.48 1037.43 483.10 965.97 571.87 1115.80 591.34
