Video ID: 	V6nYRzhq54E
H: 	1080
W: 	1920
FPS: 	29.97002997002997

FRAME INDEX X0 Y0 W H [Landmarks (5 Points)]

00001421 00000000 822.43 148.21 397.48 598.07 951.87 404.74 1133.66 413.56 1062.51 528.24 972.62 636.51 1101.17 644.02
00001422 00000001 820.20 141.05 397.44 601.60 934.27 412.87 1120.37 412.38 1041.61 538.72 965.30 639.89 1093.95 639.96
00001423 00000002 818.45 138.44 399.63 600.68 933.54 406.31 1119.73 409.27 1036.43 533.20 959.04 633.20 1088.78 636.02
00001424 00000003 830.95 139.47 395.10 599.85 941.30 396.33 1124.73 411.60 1035.72 519.68 956.73 614.89 1081.46 629.40
00001425 00000004 834.11 137.88 396.72 601.99 946.04 393.24 1128.20 408.93 1039.27 518.63 961.47 613.10 1085.39 628.09
00001426 00000005 842.40 136.74 396.07 606.01 953.87 392.77 1135.64 409.25 1044.64 515.39 967.87 614.44 1092.97 629.91
00001427 00000006 844.98 136.38 396.54 611.64 962.67 395.34 1143.54 410.26 1059.77 516.95 977.64 624.39 1102.47 636.21
00001428 00000007 854.65 136.17 399.93 612.02 969.20 393.62 1154.26 408.22 1062.01 516.54 982.19 617.02 1116.16 630.04
00001429 00000008 856.82 134.62 399.14 614.12 975.22 394.86 1158.16 407.36 1078.09 513.69 994.09 620.83 1125.18 630.10
00001430 00000009 866.61 137.12 398.53 602.67 984.57 397.23 1167.86 408.02 1086.72 516.09 1004.37 618.59 1138.38 627.03
00001431 00000010 872.44 136.24 400.77 604.31 992.80 398.40 1175.91 408.39 1095.49 520.05 1013.36 619.03 1147.98 626.93
00001432 00000011 877.91 134.89 405.05 607.04 998.63 399.90 1185.96 405.76 1106.20 516.32 1019.99 618.41 1161.90 623.36
00001433 DELETE   889.04 128.97 400.71 606.34 1006.99 395.03 1198.54 397.19 1117.96 510.82 1031.45 614.11 1174.78 616.37
00001434 DELETE   896.42 115.04 402.30 620.59 1024.91 382.65 1215.01 394.03 1133.47 494.69 1043.05 595.08 1180.78 606.42
00001435 DELETE   900.38 111.04 403.68 621.77 1027.01 379.37 1217.52 390.39 1134.76 490.71 1045.03 592.55 1185.90 603.26
00001436 00000015 900.54 123.99 405.36 609.78 1020.59 383.10 1208.95 395.32 1120.36 501.78 1035.43 595.85 1172.46 607.81
00001437 DELETE   908.59 140.93 397.86 602.22 1012.54 396.46 1198.63 412.51 1099.58 521.02 1020.80 607.58 1160.12 622.00
00001438 00000017 901.77 149.45 399.27 595.04 1009.99 398.64 1193.19 422.92 1091.84 522.42 1011.48 611.84 1154.33 631.89
00001439 00000018 906.04 148.96 397.49 599.34 1009.83 399.82 1192.01 425.17 1086.10 523.76 1008.62 613.54 1152.73 634.38
00001440 00000019 916.72 148.11 400.45 605.40 1014.20 400.75 1195.17 426.70 1082.57 521.44 1011.02 612.74 1158.95 633.60
00001441 00000020 929.57 151.14 398.34 608.17 1020.77 404.77 1197.55 427.71 1081.35 523.63 1021.82 620.61 1161.72 639.54
00001442 00000021 940.20 158.07 398.19 604.73 1031.35 413.63 1208.71 434.83 1093.12 538.71 1034.61 634.43 1169.93 652.58
00001443 00000022 959.14 175.87 392.76 600.25 1041.30 425.49 1218.16 449.75 1099.96 550.68 1046.89 644.32 1171.84 664.70
00001444 00000023 958.89 199.95 395.99 594.75 1039.39 451.68 1216.40 475.25 1090.67 579.58 1041.75 670.20 1178.51 688.76
00001445 00000024 974.02 205.04 393.59 623.49 1045.42 463.32 1223.52 489.95 1091.20 595.54 1047.28 687.80 1177.12 710.02
00001446 00000025 980.86 227.70 396.73 599.68 1060.46 470.77 1230.98 501.12 1107.65 605.58 1063.69 689.89 1187.62 714.47
00001447 00000026 993.12 217.06 406.92 616.06 1071.34 475.78 1253.88 498.89 1118.40 601.52 1072.59 702.26 1197.40 722.45
00001448 00000027 1009.59 217.73 404.64 606.57 1082.20 458.67 1270.52 485.70 1134.55 587.16 1078.85 693.91 1202.90 717.67
00001449 00000028 1020.62 200.29 395.09 607.99 1095.26 448.60 1278.37 478.06 1147.42 573.68 1090.28 678.45 1209.61 704.29
00001450 00000029 1025.61 189.34 396.85 603.99 1098.06 440.33 1279.52 467.95 1150.03 562.99 1099.04 668.72 1212.04 692.18
00001451 00000030 1028.32 189.83 397.52 605.71 1102.05 436.64 1281.83 461.08 1150.97 558.92 1105.42 663.94 1220.23 684.39
00001452 00000031 1028.95 189.57 400.58 601.60 1103.25 435.89 1283.02 459.64 1153.12 558.61 1108.48 661.49 1225.90 680.92
00001453 00000032 1029.91 180.24 399.58 606.60 1103.70 427.58 1287.93 452.78 1156.71 555.40 1107.68 653.65 1234.32 674.34
00001454 00000033 1033.81 163.29 396.93 617.67 1106.14 414.98 1289.79 439.81 1157.28 545.60 1106.19 644.67 1238.35 665.48
00001455 00000034 1039.62 146.87 385.85 624.36 1113.91 403.17 1294.75 427.46 1164.65 533.45 1114.71 633.77 1243.36 654.30
00001456 00000035 1041.91 140.54 386.28 617.43 1117.84 395.38 1298.54 417.06 1171.99 525.11 1121.62 624.51 1248.40 643.02
00001457 00000036 1032.11 141.95 399.44 591.19 1112.39 397.07 1294.41 410.27 1169.37 520.95 1120.37 613.57 1262.29 624.39
00001458 00000037 1031.60 140.36 396.65 585.40 1113.11 393.83 1294.85 406.19 1170.98 511.28 1119.77 609.00 1262.69 619.10
00001459 00000038 1040.07 133.19 399.93 601.66 1119.24 390.57 1303.72 401.14 1172.26 494.84 1120.84 609.86 1255.29 620.54
00001460 00000039 1033.73 135.71 390.88 583.26 1118.41 384.94 1301.70 398.27 1180.54 499.76 1122.20 601.02 1265.33 611.95
00001461 00000040 1036.45 132.90 387.70 584.95 1123.53 379.57 1306.09 393.89 1187.44 494.91 1125.74 595.95 1267.26 607.95
00001462 00000041 1038.31 131.76 386.62 585.28 1128.10 376.92 1310.41 391.37 1193.74 492.67 1129.88 595.62 1267.98 608.11
00001463 00000042 1040.45 133.72 385.52 582.32 1131.47 377.02 1313.22 390.62 1198.54 492.00 1133.56 598.35 1267.15 610.65
00001464 00000043 1047.72 129.77 387.65 596.73 1140.56 371.95 1317.27 402.50 1204.42 489.51 1136.37 588.27 1256.21 615.41
00001465 00000044 1046.23 131.42 388.31 594.50 1140.94 372.50 1318.02 402.55 1207.63 490.22 1137.08 588.85 1256.86 615.64
00001466 00000045 1046.09 127.59 388.57 598.28 1142.53 371.89 1319.11 402.37 1210.43 489.09 1138.25 587.39 1258.11 614.61
00001467 00000046 1046.77 124.87 387.88 600.04 1143.67 370.60 1320.58 401.92 1211.82 487.79 1139.44 584.08 1261.83 612.04
00001468 00000047 1045.84 123.34 389.33 606.97 1144.68 368.54 1321.99 400.24 1213.41 486.04 1138.94 582.96 1264.56 611.47
00001469 00000048 1039.30 129.29 389.38 596.92 1138.79 371.29 1320.26 386.55 1213.40 487.70 1139.95 591.12 1279.85 604.41
00001470 00000049 1037.84 128.19 391.47 600.52 1138.54 370.36 1321.53 386.63 1213.10 486.54 1138.18 589.20 1281.05 603.14
00001471 00000050 1036.37 126.81 392.82 602.18 1137.57 369.80 1321.15 387.49 1211.94 485.26 1135.69 587.43 1281.44 602.51
00001472 00000051 1035.91 127.32 392.96 601.58 1137.26 368.64 1321.20 387.57 1211.25 484.28 1133.72 586.02 1280.91 602.17
00001473 00000052 1035.84 128.92 392.30 599.74 1136.88 368.81 1320.85 388.15 1210.06 484.11 1132.75 585.73 1280.09 602.37
00001474 00000053 1035.25 128.47 392.39 599.60 1136.13 369.19 1320.78 388.89 1209.48 484.37 1132.41 586.39 1279.60 603.22
00001475 00000054 1035.13 129.75 391.60 597.35 1136.21 369.40 1320.53 389.88 1208.71 485.70 1131.43 587.14 1277.92 604.59
00001476 00000055 1034.44 132.01 392.46 594.92 1135.14 370.27 1320.47 391.82 1207.08 486.19 1130.40 587.41 1278.19 605.48
00001477 00000056 1033.68 133.88 393.54 592.64 1134.13 372.09 1319.51 394.50 1205.36 487.54 1129.40 588.06 1276.29 606.71
00001478 00000057 1034.45 134.91 393.15 592.93 1133.31 375.29 1318.84 397.24 1203.38 490.35 1128.13 590.57 1275.96 608.90
00001479 00000058 1034.38 136.07 393.52 593.00 1132.72 378.20 1318.00 399.87 1202.57 492.97 1127.96 592.94 1276.10 611.02
00001480 00000059 1033.99 138.56 395.87 592.10 1132.64 380.30 1319.14 401.98 1202.57 495.62 1128.96 595.66 1277.02 613.66
00001481 00000060 1033.05 139.06 397.44 591.97 1132.31 382.87 1318.73 404.60 1202.99 498.33 1129.45 598.13 1277.07 616.07
00001482 00000061 1033.25 139.63 398.20 591.81 1132.58 384.35 1319.61 406.75 1202.99 499.91 1129.40 598.38 1278.22 616.81
00001483 00000062 1033.75 141.10 398.26 590.79 1133.01 385.63 1320.07 407.97 1204.06 501.13 1130.95 598.71 1279.67 617.12
00001484 00000063 1034.19 141.75 398.51 589.26 1133.41 386.13 1321.34 408.52 1205.10 502.03 1131.76 599.69 1280.70 618.19
00001485 00000064 1035.30 143.86 397.32 587.18 1134.18 387.33 1321.34 410.09 1205.60 503.45 1132.69 599.44 1281.01 618.33
00001486 00000065 1036.07 143.52 397.66 590.21 1134.63 388.14 1322.35 410.57 1206.69 504.89 1134.24 601.28 1282.47 619.82
00001487 00000066 1036.91 144.73 397.31 590.28 1135.99 388.84 1323.03 411.52 1207.95 506.33 1135.58 601.78 1283.30 620.60
00001488 00000067 1039.00 145.14 396.71 591.24 1137.70 389.64 1324.49 412.03 1209.23 508.75 1138.42 603.28 1285.18 621.82
00001489 00000068 1045.86 145.03 396.13 601.93 1150.38 385.89 1333.54 417.83 1222.41 509.76 1135.88 602.02 1276.36 628.97
00001490 00000069 1046.09 146.98 396.13 600.05 1151.55 387.02 1334.65 419.17 1224.33 512.12 1136.60 603.58 1277.50 630.76
00001491 00000070 1047.19 147.42 396.55 603.54 1152.21 387.71 1335.56 420.57 1224.90 512.91 1137.37 603.31 1278.80 631.11
00001492 00000071 1047.81 147.17 396.14 604.00 1152.89 388.38 1335.91 420.69 1225.75 513.92 1138.56 604.59 1279.84 631.93
00001493 00000072 1047.42 148.83 396.70 601.92 1153.64 389.36 1336.49 421.41 1227.48 513.20 1139.18 604.34 1281.40 631.36
00001494 00000073 1048.50 148.40 395.57 604.77 1154.40 389.82 1336.59 421.57 1227.78 514.01 1140.24 604.65 1281.83 631.54
00001495 00000074 1048.36 149.14 395.54 604.98 1155.18 390.30 1337.01 422.11 1228.90 514.11 1140.80 604.51 1282.53 631.42
00001496 00000075 1049.43 149.40 395.16 606.04 1156.08 390.15 1337.72 422.29 1229.20 513.63 1141.19 603.96 1283.45 631.11
00001497 00000076 1049.38 148.93 395.07 605.58 1156.24 390.46 1337.74 422.48 1229.75 512.99 1141.88 603.95 1284.07 630.91
00001498 00000077 1050.27 148.69 394.12 606.75 1156.95 390.52 1338.15 422.89 1229.77 513.21 1142.86 603.92 1284.13 631.26
00001499 00000078 1050.73 149.03 394.24 607.97 1157.93 389.88 1338.98 422.66 1230.28 512.92 1143.81 604.35 1284.38 632.08
00001500 00000079 1051.54 150.01 393.98 605.13 1158.61 390.75 1339.10 423.62 1230.99 512.61 1144.47 604.08 1284.84 631.85
00001501 00000080 1052.40 149.67 393.08 606.15 1159.43 391.33 1339.54 423.77 1232.18 512.30 1145.46 604.66 1286.80 632.01
00001502 00000081 1053.35 150.21 391.87 605.34 1160.74 391.79 1340.31 424.10 1233.62 511.78 1146.96 604.68 1288.21 631.91
00001503 00000082 1053.71 149.99 391.92 605.52 1161.81 392.22 1340.75 424.91 1234.28 512.24 1148.09 604.75 1288.79 632.31
00001504 00000083 1053.93 149.78 392.35 605.29 1162.30 392.22 1341.43 424.96 1234.86 512.45 1148.41 604.69 1289.78 632.24
00001505 00000084 1054.25 150.07 392.46 604.76 1162.39 391.99 1341.80 424.92 1235.07 512.67 1148.61 604.26 1290.46 631.93
00001506 00000085 1054.53 149.36 392.40 605.66 1162.56 392.11 1342.14 424.94 1235.38 512.49 1148.93 604.23 1291.26 631.77
00001507 00000086 1054.43 149.60 393.09 604.41 1162.28 391.60 1342.35 424.18 1235.19 512.45 1149.22 603.52 1292.21 630.79
00001508 00000087 1054.95 150.88 393.33 601.82 1162.00 391.59 1342.01 423.94 1234.87 512.22 1149.00 602.27 1292.80 629.30
00001509 00000088 1056.58 150.90 392.07 602.58 1161.83 391.60 1341.94 424.78 1232.96 512.43 1147.59 600.41 1294.42 627.99
00001510 00000089 1056.94 152.03 393.08 600.53 1161.47 391.56 1342.99 424.99 1232.42 512.60 1147.28 599.37 1296.30 627.04
00001511 00000090 1058.02 152.64 393.24 599.19 1162.15 392.14 1343.82 426.39 1230.95 512.10 1147.81 598.49 1298.21 626.65
00001512 00000091 1059.61 153.33 393.44 600.06 1163.54 392.73 1345.16 428.33 1230.26 513.24 1147.89 598.14 1297.82 627.34
00001513 00000092 1060.52 155.06 393.70 598.73 1164.80 396.15 1346.04 433.01 1231.30 514.48 1149.17 598.62 1300.60 628.65
00001514 00000093 1065.99 156.20 390.52 596.85 1168.10 401.96 1346.98 441.58 1230.92 515.00 1152.25 598.25 1301.37 630.61
00001515 00000094 1066.04 156.53 391.88 600.09 1169.04 401.73 1350.65 442.95 1231.81 517.36 1152.02 600.93 1302.29 634.63
00001516 00000095 1064.95 157.75 395.20 603.35 1167.90 402.53 1349.41 442.53 1230.53 524.05 1150.26 607.56 1300.26 640.67
00001517 00000096 1069.14 164.89 402.46 606.96 1170.42 409.77 1353.70 451.18 1228.22 534.89 1151.58 620.07 1298.73 655.10
00001518 00000097 1070.34 175.82 406.35 608.19 1171.33 421.01 1354.07 462.30 1225.24 549.58 1153.35 632.88 1298.15 668.16
00001519 00000098 1074.04 193.45 407.32 607.51 1170.70 433.74 1352.75 476.07 1223.49 563.86 1152.05 648.57 1295.37 684.54
00001520 00000099 1072.38 212.97 408.24 605.15 1170.45 457.18 1353.02 491.69 1227.14 576.52 1156.86 669.85 1307.84 697.75
00001521 00000100 1074.58 221.06 402.72 607.63 1170.40 471.96 1352.28 507.07 1226.60 596.14 1156.17 688.00 1302.33 716.93
00001522 00000101 1074.09 230.81 406.84 614.87 1169.11 481.18 1354.95 518.29 1224.91 607.02 1153.75 700.05 1300.81 731.24
00001523 00000102 1071.77 243.60 412.42 614.36 1169.50 488.53 1357.93 528.48 1224.56 619.41 1151.56 710.07 1299.19 744.11
00001524 00000103 1071.79 249.25 415.04 618.73 1168.77 495.84 1359.95 537.91 1223.61 627.23 1149.13 716.38 1298.80 752.04
00001525 00000104 1071.10 257.37 415.81 618.07 1167.85 501.36 1358.33 547.41 1220.60 635.58 1144.56 721.32 1293.81 760.09
00001526 00000105 1068.75 267.33 418.76 615.69 1166.15 509.18 1355.20 555.02 1218.01 642.61 1141.87 726.08 1292.69 764.59
00001527 00000106 1067.51 274.33 417.55 617.77 1162.89 513.62 1351.91 563.68 1211.68 654.26 1136.86 732.38 1287.96 774.28
00001528 00000107 1061.81 278.51 416.03 621.40 1160.72 519.76 1347.34 570.37 1209.12 661.64 1136.54 740.42 1281.80 782.82
00001529 00000108 1056.15 285.45 414.91 621.26 1156.82 527.37 1340.35 577.11 1203.98 665.74 1132.60 747.27 1271.02 789.28
00001530 00000109 1049.48 288.39 416.85 625.20 1148.28 532.57 1331.72 580.86 1194.83 671.05 1126.15 752.97 1264.51 794.14
00001531 00000110 1039.81 291.62 425.85 627.11 1138.91 538.69 1323.99 586.66 1182.21 679.10 1117.60 759.53 1256.46 800.62
00001532 00000111 1031.28 292.00 422.30 628.83 1132.21 541.79 1326.83 585.54 1187.55 677.29 1111.40 764.31 1260.68 800.23
00001533 00000112 1014.69 296.44 421.90 622.14 1116.55 549.01 1311.04 588.82 1173.04 690.63 1103.89 776.15 1256.17 808.26
00001534 00000113 1003.72 297.28 426.03 626.38 1108.20 550.79 1303.63 594.96 1165.02 693.39 1088.51 778.93 1243.27 814.63
CROP_BBOX: 586 0 1781 1080
