Video ID: 	GVgZJnac3nA
H: 	1080
W: 	1920
FPS: 	29.97002997002997

FRAME INDEX X0 Y0 W H [Landmarks (5 Points)]

00018006 00000000 1036.22 166.15 410.34 587.49 1121.17 424.34 1284.10 433.11 1190.58 568.63 1167.57 641.27 1277.81 648.75
00018007 00000001 1044.12 169.06 412.07 583.85 1134.36 429.46 1299.81 434.30 1209.87 573.12 1179.37 646.32 1294.32 650.62
00018008 00000002 1049.20 165.58 420.81 600.21 1143.44 430.03 1309.68 434.42 1219.38 571.28 1186.71 644.40 1306.65 648.01
00018009 00000003 1055.19 165.71 422.85 606.02 1149.05 430.33 1319.50 432.39 1227.13 571.84 1191.84 644.87 1321.60 646.11
00018010 00000004 1057.49 166.47 426.19 607.30 1153.71 433.06 1328.32 432.96 1235.24 573.81 1197.63 644.23 1332.76 643.58
00018011 00000005 1059.21 170.72 426.67 603.18 1156.69 436.75 1333.06 435.00 1239.10 576.31 1201.57 644.53 1339.93 642.27
00018012 00000006 1057.38 174.61 428.41 594.74 1153.86 441.03 1332.58 439.74 1237.57 583.64 1200.29 648.71 1337.97 646.77
00018013 00000007 1054.53 176.62 428.63 594.13 1150.12 443.06 1328.24 443.89 1233.00 583.61 1194.12 649.45 1331.26 649.47
00018014 00000008 1053.25 174.71 424.15 592.94 1147.12 442.56 1323.12 445.00 1228.86 582.19 1189.66 648.45 1324.97 649.75
00018015 00000009 1051.82 170.34 422.00 597.78 1145.14 439.26 1316.76 445.10 1221.37 580.63 1183.48 646.84 1313.89 651.21
00018016 00000010 1050.44 171.32 419.75 598.03 1144.16 429.99 1311.71 439.39 1216.19 571.30 1178.84 638.77 1305.89 646.39
00018017 00000011 1051.42 162.01 421.16 592.09 1145.37 416.60 1311.49 426.33 1218.02 561.19 1183.27 632.23 1303.08 640.26
00018018 00000012 1055.11 153.55 425.48 586.23 1154.49 405.57 1321.49 411.11 1232.52 547.53 1188.88 622.33 1309.92 626.90
00018019 DELETE   1065.91 134.05 426.86 608.91 1161.98 393.34 1327.29 397.12 1239.30 533.31 1200.26 615.32 1317.58 617.79
00018020 00000014 1082.62 116.40 419.94 613.36 1177.04 380.71 1355.14 391.19 1252.34 517.67 1203.20 586.46 1332.62 596.44
00018021 00000015 1091.48 104.55 414.75 607.55 1189.11 368.52 1363.94 381.26 1264.18 503.07 1210.63 572.25 1341.53 584.02
00018022 00000016 1095.40 101.50 418.34 604.80 1194.41 363.11 1370.66 375.97 1269.78 498.87 1216.93 568.26 1348.99 579.99
00018023 00000017 1100.88 101.77 419.03 603.40 1199.53 361.20 1374.88 374.00 1274.91 499.38 1222.48 568.14 1353.22 580.22
00018024 00000018 1103.08 103.78 422.36 605.25 1204.46 362.51 1378.22 375.81 1279.15 500.83 1226.02 569.26 1357.38 581.92
00018025 00000019 1105.02 105.96 422.03 603.98 1206.19 364.76 1382.17 378.84 1281.76 502.24 1225.26 569.97 1359.36 583.26
00018026 00000020 1108.59 109.54 419.86 600.21 1207.31 366.77 1383.53 382.55 1281.00 504.67 1224.17 569.60 1360.45 584.12
00018027 00000021 1108.96 114.80 419.43 597.68 1206.89 368.88 1382.54 384.64 1279.77 507.76 1222.98 571.30 1360.62 585.75
00018028 00000022 1109.14 119.06 420.47 594.15 1207.81 373.29 1381.72 388.46 1279.62 509.22 1224.58 574.10 1359.64 587.91
00018029 00000023 1109.85 118.75 420.49 596.90 1207.83 375.13 1381.18 389.60 1279.70 510.84 1226.29 578.23 1359.61 591.46
00018030 00000024 1109.81 120.68 420.85 598.21 1208.84 375.82 1380.67 389.78 1280.17 509.91 1227.76 580.22 1358.97 593.04
00018031 00000025 1109.83 119.01 422.12 607.73 1208.45 374.98 1381.17 388.42 1280.87 509.08 1228.08 580.92 1363.74 593.21
00018032 00000026 1108.55 117.06 422.79 620.17 1204.72 375.54 1375.66 387.37 1276.07 511.05 1226.60 582.16 1365.23 592.83
00018033 00000027 1101.93 112.56 421.42 621.54 1194.23 372.91 1368.09 384.76 1264.66 507.01 1218.38 578.83 1358.66 589.17
00018034 00000028 1091.19 113.29 415.64 626.28 1177.80 377.77 1349.90 388.10 1246.77 512.17 1206.52 583.42 1342.00 592.35
00018035 00000029 1079.68 125.59 415.70 617.23 1156.82 381.20 1331.17 388.52 1225.44 521.60 1190.93 591.72 1325.77 598.48
00018036 00000030 1060.15 137.65 417.65 605.83 1142.72 389.38 1306.55 393.91 1210.87 526.40 1177.12 606.88 1304.25 609.52
00018037 00000031 1049.15 146.47 418.21 592.71 1132.49 398.42 1296.52 402.02 1203.51 538.16 1172.59 612.08 1296.27 614.58
00018038 00000032 1042.27 156.75 414.86 577.52 1128.05 404.19 1295.01 410.19 1200.10 546.68 1165.31 616.26 1286.17 621.11
00018039 00000033 1035.58 160.11 419.30 577.20 1123.23 406.77 1293.61 412.30 1197.36 550.83 1163.03 618.83 1283.38 623.36
00018040 00000034 1032.93 156.89 419.86 588.23 1122.38 408.12 1294.47 413.74 1198.09 551.52 1163.36 621.68 1282.68 626.69
00018041 00000035 1030.89 158.34 419.37 582.72 1121.08 408.35 1294.00 412.86 1199.85 553.97 1164.97 626.07 1282.63 630.12
00018042 00000036 1030.19 158.52 420.58 582.07 1122.06 408.31 1294.70 411.73 1202.03 553.08 1166.61 627.38 1283.02 630.57
00018043 00000037 1031.24 158.46 417.06 578.71 1125.92 408.18 1296.90 411.35 1206.73 551.80 1169.20 625.24 1284.51 628.39
00018044 00000038 1039.10 167.63 413.90 564.70 1129.52 413.20 1302.84 415.41 1207.18 550.15 1171.24 619.93 1284.54 623.16
00018045 00000039 1041.54 165.55 413.30 565.41 1132.65 413.51 1303.52 416.29 1208.41 549.92 1172.51 614.96 1287.80 618.56
00018046 00000040 1039.89 161.52 419.65 571.63 1135.73 415.43 1307.11 417.00 1211.00 547.69 1171.91 611.31 1292.38 613.86
00018047 00000041 1041.00 159.76 421.86 572.69 1138.59 414.67 1311.61 416.45 1215.09 547.92 1173.27 610.19 1297.15 612.58
00018048 00000042 1037.04 150.74 425.43 585.71 1145.24 411.36 1315.11 416.22 1227.04 549.28 1173.47 619.06 1297.20 623.23
00018049 00000043 1040.39 150.99 427.92 584.25 1148.30 410.86 1318.05 413.67 1231.39 548.14 1179.01 617.14 1304.81 619.53
00018050 00000044 1042.76 149.13 429.38 586.54 1150.46 410.31 1320.38 411.48 1235.29 546.08 1184.71 617.18 1310.39 618.17
00018051 00000045 1045.21 146.77 428.85 595.45 1152.01 408.77 1320.40 409.36 1237.02 542.98 1188.56 616.94 1312.11 617.52
00018052 00000046 1046.59 147.90 429.48 593.73 1154.15 409.11 1322.07 409.15 1239.80 543.17 1191.43 616.79 1314.94 616.82
00018053 00000047 1048.21 145.80 431.69 595.52 1154.37 410.20 1325.32 409.08 1242.16 544.86 1192.92 618.15 1319.93 616.96
00018054 00000048 1049.98 145.77 433.91 598.92 1157.32 412.58 1326.92 410.98 1245.55 545.04 1196.17 618.48 1323.65 616.87
00018055 00000049 1051.04 148.31 435.38 599.46 1160.01 413.60 1328.42 412.07 1248.30 546.12 1199.56 617.81 1327.39 616.32
00018056 00000050 1053.08 149.24 435.63 598.00 1161.43 413.52 1331.01 411.95 1249.88 545.87 1200.60 617.70 1330.41 615.98
00018057 00000051 1054.01 148.86 434.91 597.89 1163.49 413.66 1332.12 411.85 1251.62 544.05 1203.09 616.94 1332.92 614.84
00018058 00000052 1054.06 147.96 436.59 600.46 1165.07 413.50 1333.87 410.82 1253.46 540.48 1203.10 615.26 1335.94 612.17
00018059 00000053 1055.07 144.62 434.63 602.41 1167.54 411.91 1336.37 408.96 1256.76 537.92 1205.24 612.99 1338.81 609.49
00018060 00000054 1059.89 139.81 429.95 605.47 1171.91 407.61 1338.64 408.10 1260.80 536.39 1209.13 611.33 1336.49 610.56
00018061 00000055 1064.74 131.89 425.39 612.54 1175.10 404.17 1340.34 407.09 1262.69 535.45 1210.27 610.28 1334.69 611.43
00018062 00000056 1077.03 130.25 422.52 617.42 1181.25 403.56 1355.77 409.37 1258.56 533.22 1207.31 603.67 1336.66 609.54
00018063 00000057 1078.56 130.05 421.69 617.22 1182.53 402.38 1356.90 409.16 1259.87 532.58 1208.73 603.52 1337.20 610.14
00018064 00000058 1079.56 128.92 420.98 618.46 1183.41 401.78 1357.00 409.41 1260.45 532.93 1210.39 604.45 1337.38 611.71
00018065 00000059 1079.20 128.86 421.73 619.30 1184.14 402.90 1357.79 410.37 1261.14 533.53 1210.90 604.11 1337.88 611.16
00018066 00000060 1079.05 127.16 422.46 621.41 1184.27 403.20 1358.65 410.45 1261.59 533.76 1210.57 603.47 1339.93 610.23
00018067 00000061 1078.52 126.99 422.79 620.06 1184.09 403.36 1358.76 410.27 1261.63 533.47 1209.79 602.25 1340.36 608.76
00018068 00000062 1078.22 127.79 422.71 616.36 1183.09 402.56 1358.69 409.66 1260.93 534.21 1208.09 600.90 1339.63 607.78
00018069 00000063 1075.67 128.34 424.58 616.26 1180.96 402.02 1356.29 408.99 1257.91 534.79 1206.35 601.52 1335.19 608.40
00018070 00000064 1062.59 129.27 428.83 614.99 1172.78 401.83 1341.02 403.96 1262.28 536.00 1208.67 612.78 1332.21 613.06
00018071 00000065 1060.30 134.02 428.38 609.46 1169.43 402.54 1339.00 403.20 1260.63 536.83 1209.03 615.17 1331.83 614.60
00018072 00000066 1056.21 135.46 434.28 607.29 1164.39 403.48 1335.25 402.87 1254.44 535.62 1202.95 613.93 1330.26 612.42
00018073 00000067 1054.58 135.45 434.51 605.60 1159.31 402.38 1329.27 401.41 1247.63 538.00 1196.46 614.20 1323.45 612.83
00018074 00000068 1052.14 136.23 431.88 605.39 1154.42 399.19 1322.27 399.68 1239.42 536.14 1190.89 612.73 1313.84 612.71
00018075 00000069 1046.90 140.43 429.35 602.07 1149.95 401.75 1318.34 404.10 1233.19 537.09 1182.49 613.03 1307.92 614.64
00018076 00000070 1041.56 145.38 431.49 607.06 1144.80 406.98 1315.05 408.15 1228.48 544.46 1179.46 618.62 1308.91 619.52
00018077 00000071 1038.64 152.25 430.23 594.13 1142.20 413.98 1317.02 414.63 1229.55 555.35 1180.39 626.55 1312.60 627.06
00018078 00000072 1042.34 156.01 431.04 611.17 1142.26 424.45 1315.30 420.02 1230.49 563.36 1189.44 635.99 1327.66 631.83
00018079 00000073 1045.63 167.85 431.63 607.55 1150.71 438.67 1326.86 430.94 1243.83 573.34 1197.48 648.78 1334.37 642.49
00018080 00000074 1048.19 174.50 429.11 605.64 1158.00 450.06 1334.47 435.98 1255.33 580.31 1209.19 656.33 1344.57 644.66
00018081 00000075 1046.80 176.82 431.60 608.41 1162.11 451.59 1336.68 436.28 1259.61 579.49 1213.73 659.50 1345.42 647.14
00018082 00000076 1048.37 173.71 430.21 602.99 1162.60 443.28 1338.42 430.47 1259.27 572.88 1211.54 654.39 1342.13 644.20
00018083 00000077 1046.33 164.96 429.91 594.48 1161.00 432.92 1336.54 422.17 1258.95 560.83 1211.64 646.34 1338.95 637.70
00018084 00000078 1043.53 160.76 436.97 598.38 1160.51 421.88 1336.87 410.61 1260.40 550.17 1213.45 636.96 1340.68 627.68
00018085 00000079 1046.07 150.45 433.50 603.45 1160.21 410.62 1336.01 401.27 1260.02 542.62 1209.03 626.56 1336.32 618.76
00018086 00000080 1048.01 131.54 432.28 623.94 1159.06 401.08 1333.67 393.78 1259.25 533.14 1205.81 618.03 1334.09 611.44
00018087 00000081 1048.72 126.51 433.28 610.95 1160.79 390.21 1338.09 386.90 1252.28 522.14 1204.06 601.76 1337.70 599.79
00018088 00000082 1050.12 117.82 429.84 613.23 1162.32 381.99 1338.30 379.51 1252.36 512.46 1202.65 592.79 1334.59 592.17
00018089 00000083 1050.18 113.65 433.09 612.12 1162.46 377.67 1339.87 373.77 1252.45 504.85 1200.48 585.16 1338.51 582.85
00018090 00000084 1051.64 108.58 431.85 611.86 1163.92 373.74 1341.39 370.79 1253.03 500.77 1199.83 579.79 1339.20 577.90
00018091 00000085 1051.73 105.65 432.60 613.96 1164.73 371.99 1342.77 368.86 1254.13 498.11 1200.92 577.10 1342.18 574.71
00018092 00000086 1053.59 106.33 431.39 612.51 1166.18 372.50 1343.74 369.48 1255.27 497.39 1202.01 576.48 1343.19 574.04
00018093 00000087 1053.53 105.08 432.36 614.09 1166.79 373.30 1345.22 369.67 1256.69 497.46 1202.79 575.36 1346.02 572.10
00018094 00000088 1054.73 106.84 431.20 608.75 1167.82 373.73 1346.47 369.22 1258.09 497.49 1203.78 573.37 1348.13 569.24
00018095 00000089 1054.18 106.01 432.15 609.55 1168.41 374.59 1346.48 367.24 1260.51 496.83 1203.74 569.60 1352.26 562.75
00018096 00000090 1055.23 106.79 431.46 608.03 1170.15 375.34 1345.81 365.82 1262.42 494.88 1205.03 565.79 1355.72 557.20
00018097 00000091 1056.69 105.98 430.58 605.95 1170.37 373.72 1343.99 362.08 1261.77 490.19 1206.38 560.85 1358.93 550.30
00018098 00000092 1057.42 105.10 433.76 607.90 1171.58 372.70 1344.64 361.30 1261.78 489.40 1205.86 557.96 1361.14 547.64
00018099 00000093 1057.84 106.75 435.89 606.00 1171.85 373.51 1345.32 362.21 1261.51 492.77 1206.29 559.12 1360.59 548.90
00018100 00000094 1057.11 111.11 437.40 602.51 1170.48 377.12 1344.85 366.51 1259.65 499.53 1205.82 563.60 1357.66 553.97
00018101 00000095 1054.98 112.58 438.51 605.95 1168.86 380.70 1344.43 371.00 1259.14 505.51 1205.40 570.89 1353.75 562.00
00018102 00000096 1055.49 116.33 435.79 603.01 1166.36 384.29 1343.14 376.96 1254.84 510.30 1204.90 578.23 1349.84 571.40
00018103 00000097 1053.81 119.03 433.78 605.90 1162.29 384.51 1339.87 379.27 1250.06 513.60 1201.18 583.18 1345.55 578.69
00018104 00000098 1053.34 121.16 431.45 601.70 1157.91 381.23 1335.15 378.72 1242.86 512.14 1195.84 582.34 1338.74 580.12
00018105 00000099 1051.98 115.52 432.29 607.68 1152.99 375.60 1328.50 375.71 1234.54 505.42 1189.28 579.36 1331.32 579.36
00018106 00000100 1053.59 109.81 425.74 602.41 1151.05 367.51 1324.42 369.85 1230.07 498.93 1187.71 575.43 1324.82 577.21
00018107 00000101 1051.59 102.01 424.46 602.97 1150.57 361.05 1320.66 365.72 1227.44 490.42 1184.18 569.72 1315.67 573.73
00018108 00000102 1051.04 96.90 421.83 603.41 1150.03 355.37 1316.65 362.21 1224.35 487.81 1181.74 566.35 1306.22 572.35
00018109 00000103 1048.68 95.30 424.13 605.34 1146.63 352.00 1313.46 359.10 1220.48 486.23 1178.97 564.28 1303.74 570.41
00018110 00000104 1046.84 96.50 422.69 604.01 1143.35 352.66 1311.16 361.16 1216.09 486.12 1174.42 563.32 1300.25 570.67
00018111 00000105 1044.50 94.13 420.60 606.22 1136.86 353.70 1308.65 361.72 1210.71 487.66 1167.96 564.44 1299.15 571.26
CROP_BBOX: 750 0 1729 925
