Video ID: 	tqjNjMSR_F0
H: 	1080
W: 	1920
FPS: 	29.97002997002997

FRAME INDEX X0 Y0 W H [Landmarks (5 Points)]

00006068 00000000 985.77 155.63 387.78 629.57 1050.58 430.76 1214.38 471.24 1083.35 555.78 1041.93 629.42 1181.71 661.43
00006069 00000001 976.00 155.81 386.59 630.18 1038.46 434.07 1198.92 477.74 1067.94 556.53 1026.91 627.49 1165.63 661.91
00006070 00000002 972.89 159.59 386.09 632.00 1034.89 437.09 1194.21 479.36 1064.92 561.23 1024.85 633.82 1161.35 667.59
00006071 00000003 972.48 163.53 390.37 634.77 1039.51 441.56 1202.50 479.87 1076.03 565.14 1032.56 640.52 1171.57 671.12
00006072 00000004 974.72 169.02 391.89 632.07 1045.63 446.41 1212.19 479.60 1092.28 570.80 1043.87 646.94 1182.60 673.87
00006073 00000005 973.01 174.80 395.97 621.85 1052.17 451.48 1221.99 478.51 1108.27 569.63 1051.84 649.75 1190.40 672.19
00006074 DELETE   973.29 175.72 400.29 610.59 1060.07 449.10 1235.93 473.60 1123.08 566.21 1061.36 646.05 1202.71 666.66
00006075 00000007 974.63 168.96 400.53 611.56 1065.68 448.63 1244.64 466.53 1139.44 563.43 1073.40 643.89 1219.35 658.93
00006076 00000008 973.22 161.25 401.68 615.03 1067.04 443.46 1248.00 456.44 1147.44 560.00 1082.43 642.29 1230.28 653.20
00006077 00000009 969.27 149.63 400.51 622.02 1062.88 437.99 1243.28 445.60 1147.88 554.11 1085.07 639.00 1234.56 645.41
00006078 DELETE   954.93 146.00 401.90 612.55 1046.74 440.98 1231.02 437.31 1132.99 549.19 1080.87 638.54 1229.21 633.29
00006079 00000011 946.06 140.74 394.20 610.18 1030.61 432.24 1211.06 428.56 1114.31 538.18 1066.69 628.03 1216.32 622.84
00006080 DELETE   933.70 134.52 400.28 614.77 1012.16 427.06 1182.20 419.04 1080.51 535.30 1042.89 618.50 1183.37 611.64
00006081 DELETE   923.79 130.05 398.63 621.44 994.75 414.18 1164.25 412.83 1054.46 524.80 1022.52 613.86 1161.06 613.09
00006082 00000014 919.45 123.09 394.23 625.71 987.95 412.64 1145.20 413.19 1037.60 514.20 1013.16 607.70 1140.80 608.53
00006083 00000015 916.43 121.15 394.62 623.87 984.15 407.31 1136.17 407.57 1030.48 508.10 1009.63 604.07 1128.42 604.74
00006084 00000016 915.18 111.54 394.56 632.22 981.59 403.08 1134.34 404.13 1027.95 504.40 1007.45 601.04 1127.27 602.24
00006085 00000017 917.69 97.23 389.94 642.61 986.31 394.17 1138.59 398.50 1031.93 494.90 1007.19 593.34 1125.52 597.10
00006086 00000018 925.87 87.78 383.00 651.09 981.34 384.97 1144.77 388.86 1031.73 487.09 1004.66 590.27 1129.53 593.98
00006087 00000019 924.93 78.84 382.32 646.09 996.95 367.34 1146.06 368.38 1041.74 459.08 1017.09 573.37 1135.33 574.91
00006088 00000020 926.21 75.77 381.91 634.47 998.09 359.53 1150.72 355.09 1044.51 442.44 1017.72 565.29 1134.82 562.37
00006089 00000021 926.20 67.83 381.68 633.76 1001.03 354.45 1155.63 349.25 1047.95 430.82 1014.43 557.02 1133.66 553.46
00006090 00000022 928.92 59.51 384.81 641.79 1001.00 355.62 1161.53 344.18 1050.66 425.50 1013.87 556.91 1136.98 550.16
00006091 00000023 930.89 59.68 384.08 643.74 1000.87 355.87 1161.09 342.67 1049.52 425.45 1013.97 558.29 1138.03 549.93
00006092 00000024 929.88 59.25 385.62 640.73 999.99 356.36 1160.45 342.42 1049.53 427.33 1015.50 555.99 1141.51 546.94
00006093 00000025 930.32 59.62 386.84 634.46 999.30 357.55 1159.76 343.36 1048.31 428.35 1015.52 551.03 1144.31 541.64
00006094 00000026 928.85 61.22 390.01 624.17 998.66 359.58 1160.85 346.32 1049.73 431.81 1015.35 545.88 1148.16 537.05
00006095 00000027 929.61 66.08 391.42 614.42 997.15 361.38 1160.27 348.86 1047.71 434.46 1012.54 543.86 1147.84 535.45
00006096 00000028 929.74 65.91 391.86 609.60 996.28 363.09 1159.68 352.48 1046.67 438.44 1011.56 541.77 1146.94 534.87
00006097 00000029 928.13 67.47 392.25 606.84 994.47 364.97 1159.93 353.88 1046.62 440.40 1010.27 543.33 1146.70 536.03
00006098 00000030 925.61 68.53 392.68 606.98 991.81 366.18 1158.92 353.60 1045.70 440.12 1010.06 546.86 1145.46 538.28
00006099 00000031 922.91 69.77 393.53 606.26 988.38 367.14 1154.42 352.81 1041.78 439.33 1008.82 549.55 1141.30 539.32
00006100 00000032 917.73 70.85 395.62 606.51 983.90 366.67 1149.65 353.28 1039.07 440.76 1008.12 551.33 1138.52 541.57
00006101 00000033 911.54 61.79 392.83 622.27 968.65 360.04 1138.01 349.80 1024.50 445.47 993.89 559.73 1131.60 550.77
00006102 00000034 906.95 64.76 393.60 617.85 961.41 363.31 1128.12 352.25 1013.05 448.76 987.28 560.11 1123.90 550.30
00006103 00000035 897.00 67.43 397.95 616.01 950.19 368.69 1118.22 353.94 1003.41 454.24 977.21 565.24 1116.52 552.21
00006104 00000036 885.63 73.06 404.59 614.23 941.43 374.99 1109.64 356.72 994.97 458.73 970.62 570.03 1108.03 553.87
00006105 00000037 876.79 77.68 408.26 611.66 936.62 381.74 1100.17 363.62 987.46 465.75 967.71 574.53 1100.84 558.29
00006106 00000038 872.52 84.28 404.00 607.72 934.25 385.10 1094.53 366.45 984.23 470.62 965.53 578.27 1096.72 561.67
00006107 00000039 868.95 87.16 405.15 609.15 932.79 387.77 1091.19 370.21 982.36 476.00 963.74 581.37 1093.00 565.61
00006108 00000040 867.67 91.55 405.74 609.88 932.25 390.62 1090.86 371.67 984.78 479.56 965.08 582.81 1095.32 565.70
00006109 00000041 866.39 96.25 406.82 606.98 931.33 392.98 1089.09 372.32 986.02 480.20 968.43 585.24 1096.79 566.63
00006110 00000042 866.30 99.22 408.49 607.41 931.23 394.54 1090.50 373.98 988.23 482.82 970.36 587.88 1099.47 569.44
00006111 00000043 865.98 96.11 412.31 614.29 931.25 397.26 1093.37 375.86 991.18 486.35 972.83 592.51 1102.58 573.38
00006112 00000044 870.56 94.51 399.92 619.96 930.20 397.74 1095.46 378.34 994.79 489.25 968.58 592.21 1101.56 575.84
00006113 00000045 871.29 95.54 401.51 618.38 933.12 398.30 1100.21 378.88 999.56 489.72 972.13 592.98 1106.70 576.51
00006114 00000046 872.96 94.70 402.38 619.42 936.09 399.30 1104.02 378.62 1004.04 490.34 976.67 594.21 1111.99 576.52
00006115 00000047 874.52 99.09 403.53 615.78 938.83 399.56 1106.60 379.56 1007.30 491.75 980.85 594.88 1114.47 577.75
00006116 00000048 877.22 96.25 404.63 620.98 942.75 400.30 1110.53 381.25 1011.66 493.90 985.41 595.51 1119.43 579.18
00006117 00000049 880.56 99.06 404.53 619.91 946.81 402.51 1112.40 385.08 1014.79 497.85 990.36 596.14 1122.27 581.41
00006118 00000050 883.52 103.58 404.87 616.59 949.90 405.53 1115.28 388.36 1017.79 499.07 993.92 598.35 1125.20 584.15
00006119 00000051 885.98 104.76 405.94 614.02 952.90 405.98 1118.69 389.85 1019.73 500.66 996.71 598.86 1127.74 585.73
00006120 00000052 889.18 106.13 405.93 611.19 957.57 405.69 1122.03 390.92 1023.37 501.00 1000.97 598.25 1129.55 586.36
00006121 00000053 892.12 107.19 404.82 609.28 959.93 404.51 1125.28 391.13 1025.85 501.51 1002.84 598.95 1131.01 588.15
00006122 00000054 895.06 106.41 404.75 609.24 962.29 404.83 1127.91 392.86 1027.72 501.90 1003.97 598.72 1132.55 589.04
00006123 00000055 897.95 107.60 403.83 608.74 965.01 404.11 1129.81 393.37 1029.19 502.66 1005.42 598.33 1133.69 589.66
00006124 00000056 900.91 110.38 404.37 606.55 967.51 404.05 1132.54 394.10 1029.86 503.13 1006.62 598.32 1135.09 590.26
00006125 00000057 903.05 111.87 404.17 606.33 968.86 404.05 1134.56 394.97 1029.68 503.38 1005.65 598.74 1134.97 591.43
00006126 00000058 904.68 117.23 404.33 601.71 971.33 404.71 1135.74 397.20 1030.34 504.16 1007.01 598.28 1134.78 592.17
00006127 00000059 906.05 114.99 404.37 604.68 972.25 405.17 1136.17 398.47 1029.84 504.24 1006.53 598.66 1133.91 593.13
00006128 00000060 907.43 115.47 402.67 606.78 974.53 405.07 1137.43 401.49 1030.83 506.99 1006.24 598.83 1133.10 595.81
00006129 00000061 908.12 116.81 402.31 606.06 974.59 405.70 1137.50 402.04 1030.32 507.71 1005.90 599.50 1132.89 596.41
00006130 00000062 908.46 115.86 403.05 606.95 975.25 405.88 1137.58 403.05 1030.47 508.14 1006.41 599.16 1132.84 596.68
00006131 00000063 908.60 118.08 402.02 604.59 975.20 406.57 1137.50 403.70 1031.12 508.66 1006.81 599.48 1133.01 597.02
00006132 00000064 908.08 118.41 402.89 605.58 975.26 407.09 1138.18 403.84 1031.57 508.89 1006.62 599.80 1133.85 597.04
00006133 00000065 908.26 121.04 403.31 604.41 975.33 408.19 1137.82 404.56 1031.69 509.58 1006.56 600.97 1133.39 598.04
00006134 00000066 908.56 122.08 402.64 607.51 975.94 409.19 1138.10 404.95 1032.47 510.65 1007.50 602.48 1134.87 599.01
00006135 00000067 908.22 123.86 402.77 610.54 976.11 409.18 1138.08 404.88 1032.87 512.76 1008.41 603.88 1136.83 600.21
00006136 00000068 907.89 122.45 402.58 617.17 975.98 409.45 1138.97 404.41 1033.21 512.18 1006.48 606.20 1136.16 601.90
00006137 00000069 907.84 123.91 400.38 620.04 977.21 409.45 1138.62 404.86 1034.50 511.42 1005.83 607.28 1132.34 603.63
00006138 00000070 907.20 123.88 400.92 624.20 978.07 409.43 1137.25 404.90 1033.85 510.80 1005.86 608.36 1129.52 604.81
00006139 00000071 906.92 123.50 401.35 624.79 978.08 409.60 1136.96 405.16 1033.66 510.37 1005.61 608.09 1128.96 604.61
00006140 00000072 906.13 123.72 401.37 624.53 978.67 409.67 1136.23 405.80 1034.06 510.85 1006.82 606.41 1129.16 603.35
00006141 00000073 905.73 124.64 401.50 625.27 979.36 409.98 1135.68 406.07 1034.50 511.02 1008.26 605.55 1129.86 602.48
00006142 00000074 905.49 123.74 401.65 625.27 978.86 410.16 1135.81 406.31 1034.44 511.36 1007.83 605.12 1130.47 601.99
00006143 00000075 905.74 122.58 400.82 625.24 978.71 409.55 1135.44 405.79 1034.51 510.45 1007.97 604.31 1129.79 601.30
00006144 00000076 906.47 122.43 399.48 624.11 978.95 409.12 1135.48 405.56 1034.20 509.39 1007.38 604.19 1128.74 601.40
00006145 00000077 906.38 118.71 399.55 625.89 978.45 407.29 1134.56 404.37 1032.65 508.32 1006.35 603.19 1126.93 600.88
00006146 00000078 907.97 117.97 398.42 625.43 978.02 406.42 1134.55 403.54 1031.46 508.31 1006.52 603.65 1128.36 601.22
00006147 00000079 907.80 117.29 398.51 623.66 976.86 405.54 1135.33 402.77 1031.22 508.06 1004.93 603.62 1129.17 601.35
00006148 00000080 906.08 116.24 400.44 621.72 974.12 404.07 1134.70 401.41 1028.73 507.26 1002.38 602.46 1128.67 600.29
00006149 00000081 904.53 115.13 400.61 622.24 971.90 403.38 1132.08 401.64 1024.68 507.06 999.21 602.05 1124.55 600.70
00006150 00000082 904.24 114.56 399.12 625.28 969.78 404.60 1127.77 401.23 1019.77 505.80 997.77 604.17 1119.77 601.75
00006151 00000083 903.21 117.49 396.76 630.26 970.36 406.14 1123.30 400.87 1018.95 505.10 1000.81 604.82 1118.82 601.00
00006152 00000084 902.83 112.97 395.91 639.08 968.07 406.39 1119.08 399.39 1012.40 503.88 998.60 605.28 1117.81 599.98
00006153 00000085 901.57 110.48 396.73 639.84 964.09 405.52 1116.23 399.12 1006.91 502.11 993.52 604.28 1114.81 599.59
00006154 00000086 900.16 106.71 397.65 641.84 959.96 405.60 1111.73 399.09 1000.77 502.20 989.44 603.43 1112.00 598.46
00006155 00000087 899.87 106.78 395.95 640.94 959.06 406.36 1110.06 400.50 999.88 502.94 988.85 603.60 1109.71 599.07
00006156 00000088 899.60 108.05 397.21 639.38 960.08 405.73 1111.81 401.41 1000.53 502.72 987.65 603.38 1108.49 600.24
00006157 00000089 903.01 114.23 395.24 633.43 966.37 405.29 1119.59 402.73 1010.45 504.98 992.86 602.70 1114.08 601.00
00006158 00000090 908.08 112.31 395.46 635.04 979.53 402.90 1133.32 401.42 1029.09 503.60 1005.14 602.24 1125.02 601.49
00006159 00000091 909.86 112.18 400.06 634.06 989.55 401.45 1151.17 400.63 1044.78 501.45 1013.22 597.30 1144.31 596.76
00006160 00000092 919.24 113.26 398.51 627.87 1001.95 401.06 1170.49 401.37 1066.10 501.78 1023.17 593.53 1166.41 593.47
00006161 00000093 922.69 115.45 402.93 621.47 1010.80 399.21 1183.86 396.77 1082.53 503.65 1032.61 591.09 1182.18 588.72
00006162 00000094 927.80 110.81 402.60 621.11 1019.88 401.06 1198.87 401.25 1096.73 505.66 1040.64 591.27 1192.16 591.26
00006163 00000095 928.53 116.11 403.61 616.80 1025.06 403.16 1203.94 401.85 1104.48 507.64 1045.95 595.22 1195.34 594.25
00006164 00000096 929.66 119.30 403.04 616.86 1028.23 406.66 1203.00 404.29 1107.38 509.78 1049.96 599.57 1194.66 597.89
00006165 00000097 931.18 123.88 401.42 615.81 1028.74 409.52 1201.59 407.56 1105.63 513.20 1049.42 603.17 1192.46 601.93
00006166 00000098 933.24 127.83 398.74 615.46 1024.97 413.25 1197.29 411.34 1097.39 517.18 1043.87 605.29 1188.23 604.34
00006167 00000099 932.02 137.53 397.92 607.49 1017.48 414.77 1191.14 415.10 1086.13 522.47 1034.61 605.03 1180.83 605.80
00006168 00000100 929.77 140.11 395.56 608.03 1010.39 412.69 1182.06 416.52 1073.53 523.73 1024.42 603.92 1169.88 607.71
00006169 00000101 925.38 134.22 397.34 616.14 1005.38 414.85 1175.51 421.11 1062.79 525.64 1015.51 604.49 1160.48 610.48
00006170 00000102 925.08 133.04 393.30 617.43 997.25 415.28 1164.41 421.83 1045.68 521.07 1007.89 605.54 1147.77 611.70
00006171 00000103 916.48 126.86 397.53 626.82 985.50 412.67 1147.04 418.66 1030.30 515.85 999.85 608.14 1128.41 613.64
00006172 00000104 911.86 124.79 396.23 629.85 978.03 408.93 1129.48 416.63 1011.95 507.75 988.24 601.06 1112.36 607.58
00006173 00000105 906.94 116.17 397.01 636.91 967.63 403.73 1114.16 410.08 992.36 498.99 980.61 597.56 1100.55 602.73
00006174 00000106 903.01 112.24 390.12 637.50 955.79 403.90 1101.78 405.94 983.85 497.84 973.81 598.55 1090.47 599.92
00006175 00000107 897.57 103.93 387.42 633.74 948.19 399.19 1093.96 401.43 977.03 493.03 967.21 592.27 1082.30 592.71
00006176 00000108 894.12 94.56 386.41 633.93 940.28 394.40 1090.00 395.53 974.34 487.99 958.68 588.39 1079.63 587.68
00006177 00000109 891.85 94.93 397.95 627.76 936.15 392.64 1097.10 389.32 974.67 490.85 953.95 589.97 1081.65 587.13
00006178 00000110 889.51 90.95 403.20 631.81 940.12 389.92 1101.79 384.76 982.33 488.33 960.82 584.95 1091.97 580.54
00006179 00000111 893.39 77.16 398.51 641.80 950.23 388.02 1110.89 380.10 1000.83 480.44 977.55 581.05 1112.13 572.74
00006180 00000112 894.98 84.60 404.55 642.51 955.93 389.96 1120.48 383.35 1002.84 486.03 981.78 585.77 1113.27 580.20
00006181 00000113 897.89 86.85 401.85 644.87 967.34 387.57 1136.08 382.58 1023.01 485.57 993.61 587.56 1130.02 583.03
00006182 00000114 905.48 87.64 396.89 641.94 984.63 386.61 1147.49 384.77 1045.44 476.42 1008.53 580.38 1144.06 578.82
00006183 00000115 910.99 91.94 395.57 636.95 994.84 387.14 1160.49 388.17 1060.45 481.85 1018.29 580.32 1157.20 580.77
00006184 00000116 914.10 94.05 397.81 630.98 1002.35 387.13 1169.03 388.77 1072.89 482.94 1027.29 578.59 1167.52 579.20
00006185 00000117 915.91 94.33 399.16 625.75 1005.23 386.61 1177.47 388.18 1079.27 483.23 1028.69 574.83 1176.72 574.89
00006186 00000118 916.91 96.96 400.89 620.50 1006.24 384.32 1182.29 387.27 1080.88 481.93 1027.64 572.49 1178.88 573.86
00006187 00000119 916.97 96.14 401.14 621.82 1006.16 384.23 1180.66 388.61 1078.39 482.02 1025.52 570.32 1177.01 572.85
00006188 00000120 918.47 94.73 398.46 629.93 1003.60 385.08 1177.12 392.91 1070.47 482.82 1017.38 571.35 1169.98 576.68
00006189 00000121 917.10 96.76 396.16 634.04 1001.09 385.39 1170.05 394.61 1061.31 485.89 1015.64 578.37 1158.14 585.52
00006190 00000122 912.36 100.04 399.01 636.03 991.69 387.76 1157.28 396.12 1043.76 487.05 1004.93 582.62 1142.58 589.50
00006191 00000123 911.21 99.83 395.56 638.49 982.57 389.33 1144.08 397.55 1027.79 487.48 992.83 586.70 1123.81 593.83
00006192 00000124 907.00 98.68 392.73 641.62 970.86 390.71 1122.86 397.20 1004.21 484.28 979.34 589.43 1099.60 594.96
00006193 00000125 904.02 96.79 387.05 643.35 957.04 387.81 1106.56 398.92 981.38 482.86 961.49 586.15 1080.01 594.96
00006194 00000126 900.32 101.65 377.92 633.35 950.32 385.66 1094.86 401.83 971.51 479.30 952.08 583.49 1063.98 596.05
00006195 00000127 900.68 99.48 371.91 632.23 947.66 379.48 1086.08 399.93 962.34 474.54 945.82 580.71 1052.81 596.75
00006196 00000128 900.33 90.92 376.38 630.71 949.57 375.30 1089.02 397.42 965.19 469.81 947.02 573.98 1054.39 591.22
00006197 00000129 902.98 88.93 383.65 627.53 956.10 374.37 1098.13 394.31 973.36 467.06 953.36 569.58 1066.05 584.55
00006198 00000130 908.64 90.61 392.60 620.46 968.91 369.29 1118.56 392.30 986.60 466.74 959.83 566.74 1080.15 584.08
00006199 00000131 916.98 90.57 396.73 617.44 981.10 369.90 1141.79 394.58 1007.72 469.84 969.27 565.15 1099.27 583.75
00006200 00000132 925.95 96.65 396.18 614.75 992.83 369.41 1155.99 398.46 1021.13 475.23 980.90 563.36 1113.74 586.25
00006201 00000133 937.56 107.33 388.74 609.76 1004.45 374.75 1165.42 403.86 1038.54 482.93 994.40 564.64 1128.44 589.20
00006202 00000134 945.09 111.55 391.24 618.64 1014.17 378.20 1182.81 404.46 1054.93 490.59 1005.74 572.56 1148.98 595.00
00006203 00000135 950.34 112.24 396.18 620.60 1027.15 385.73 1200.71 407.56 1075.44 496.45 1024.55 579.34 1171.11 598.14
00006204 00000136 964.41 106.41 396.43 628.36 1046.84 390.57 1218.76 411.88 1105.27 492.58 1042.84 579.50 1185.75 596.56
00006205 00000137 970.77 112.58 397.67 617.13 1056.34 389.40 1229.12 413.24 1115.86 490.36 1052.17 577.15 1195.83 596.77
00006206 00000138 974.22 115.06 399.30 608.37 1065.79 386.27 1240.64 412.55 1127.96 489.28 1059.61 569.29 1209.47 591.09
00006207 00000139 978.74 116.56 399.07 606.31 1072.65 379.93 1250.39 408.52 1137.58 488.42 1063.99 564.33 1220.01 587.87
00006208 00000140 983.16 114.47 397.94 605.43 1078.41 375.00 1255.50 404.04 1145.65 485.93 1071.10 561.42 1226.55 585.38
00006209 00000141 986.18 112.29 399.49 606.70 1084.59 371.61 1263.59 401.22 1153.02 481.84 1075.80 560.60 1230.75 585.19
00006210 00000142 988.83 109.46 399.29 607.89 1088.69 366.75 1268.89 397.96 1155.20 478.05 1076.68 559.78 1231.05 585.87
00006211 00000143 988.81 105.70 400.75 608.31 1092.04 362.50 1271.43 394.50 1159.12 474.46 1080.71 558.81 1229.98 585.59
00006212 00000144 988.98 104.30 402.30 608.90 1094.83 360.40 1272.25 392.72 1161.65 471.44 1082.95 557.99 1227.61 585.29
00006213 00000145 990.37 102.41 401.71 611.77 1097.15 358.70 1272.90 392.35 1162.37 468.74 1083.57 557.65 1225.57 586.34
00006214 00000146 991.45 101.10 400.73 614.61 1098.44 357.06 1272.68 391.29 1162.26 466.83 1082.41 555.66 1224.65 584.97
00006215 00000147 992.73 101.48 399.53 616.72 1099.13 356.50 1272.10 390.09 1161.59 465.49 1081.82 554.41 1225.38 583.31
00006216 00000148 995.36 114.18 394.45 607.26 1098.12 353.81 1274.16 383.33 1166.26 462.69 1083.07 556.21 1230.10 580.87
00006217 00000149 995.53 98.88 398.03 620.01 1098.64 353.77 1271.19 386.85 1157.48 461.14 1080.26 552.61 1224.46 581.21
00006218 00000150 994.27 94.78 399.83 616.70 1096.45 351.49 1269.36 386.63 1153.89 458.82 1078.33 548.16 1221.96 577.77
00006219 00000151 992.80 95.13 400.27 608.45 1092.24 348.92 1268.84 386.82 1149.44 458.37 1072.79 543.93 1221.77 575.21
00006220 00000152 989.88 96.09 399.89 602.21 1089.37 347.47 1266.39 387.20 1146.47 459.03 1068.64 540.39 1218.44 572.99
00006221 00000153 986.75 95.64 399.13 597.97 1082.96 347.66 1259.64 386.77 1136.99 458.65 1063.06 538.27 1212.79 569.87
00006222 00000154 980.47 93.28 401.27 597.39 1076.39 348.53 1251.50 385.26 1130.70 457.24 1060.62 538.65 1207.88 568.02
00006223 00000155 976.79 92.54 402.03 597.82 1070.20 348.87 1246.08 383.73 1122.30 455.59 1054.36 540.65 1201.31 568.42
00006224 00000156 973.11 87.75 400.77 601.41 1065.02 349.52 1239.20 383.18 1113.88 453.59 1046.55 541.17 1190.08 567.89
00006225 00000157 969.34 86.82 398.99 597.59 1055.89 347.58 1231.71 378.50 1104.80 451.44 1038.84 541.34 1181.28 565.78
00006226 00000158 962.61 91.18 397.40 585.38 1040.98 347.10 1223.90 370.92 1088.72 459.03 1035.48 543.23 1182.40 563.38
00006227 00000159 955.45 87.81 403.86 582.44 1035.61 345.91 1219.10 372.55 1080.92 457.11 1027.94 539.66 1177.22 561.67
00006228 00000160 950.82 86.57 404.38 582.36 1030.07 344.79 1212.72 374.32 1073.27 456.94 1018.03 536.49 1170.04 560.74
00006229 00000161 948.42 86.56 403.73 583.98 1025.15 346.34 1207.63 378.19 1066.01 456.18 1008.47 535.17 1161.52 561.14
00006230 00000162 945.42 83.62 401.92 590.05 1021.71 347.02 1203.24 381.49 1062.37 456.64 1003.37 536.06 1155.60 563.95
00006231 00000163 943.29 87.60 402.78 590.32 1019.83 348.23 1198.94 383.51 1058.79 458.56 1000.53 537.68 1149.60 566.47
00006232 00000164 942.72 87.55 398.91 593.55 1017.17 350.47 1193.97 385.55 1055.99 461.90 998.37 539.35 1147.09 567.94
00006233 00000165 942.87 93.03 394.54 592.56 1016.36 352.98 1189.50 386.24 1054.87 463.72 998.88 543.31 1143.78 570.86
