Video ID: 	CLdzpTw38eY
H: 	1080
W: 	1920
FPS: 	29.97002997002997

FRAME INDEX X0 Y0 W H [Landmarks (5 Points)]

00004526 00000000 677.87 254.50 413.48 547.04 747.45 467.87 944.33 474.38 818.52 579.96 755.07 681.24 916.49 687.63
00004527 00000001 680.38 255.34 417.68 549.18 751.86 468.82 952.12 473.27 826.57 580.51 762.25 683.49 924.71 687.83
00004528 00000002 680.75 257.71 420.03 549.67 753.83 472.04 955.69 476.87 829.98 584.23 764.40 686.37 926.51 690.79
00004529 00000003 678.98 269.86 422.91 541.72 753.08 476.94 956.87 481.39 833.25 588.68 765.49 689.33 927.77 693.19
00004530 00000004 682.26 269.27 425.37 545.96 757.97 480.80 962.98 482.53 841.53 591.84 771.38 691.40 937.50 692.88
00004531 00000005 687.13 273.20 427.81 547.72 764.29 485.40 969.70 480.66 854.24 593.63 782.58 696.56 950.18 692.61
00004532 00000006 688.48 272.39 429.21 550.79 766.63 485.17 970.24 479.08 856.04 593.30 787.93 697.17 952.90 691.86
00004533 00000007 685.85 271.07 427.87 551.62 761.03 483.95 961.96 481.06 844.27 593.00 779.67 695.86 941.92 693.10
00004534 00000008 685.39 265.53 410.34 549.66 748.87 478.12 942.76 482.46 819.79 589.96 763.65 693.11 918.98 696.89
00004535 00000009 669.98 254.11 409.92 550.84 739.87 481.90 935.91 490.13 797.95 585.31 748.08 678.65 907.11 686.09
00004536 00000010 668.35 250.38 413.18 551.61 739.07 478.31 934.01 490.92 791.59 583.15 741.61 673.99 900.64 684.93
00004537 00000011 669.75 246.11 411.87 552.23 739.63 472.78 934.35 488.48 790.01 580.90 738.02 667.61 899.36 680.78
00004538 00000012 676.08 249.63 412.68 548.00 742.86 460.17 931.79 481.47 798.89 578.11 740.96 669.11 895.10 687.26
00004539 00000013 668.91 239.21 410.67 549.81 738.26 458.34 928.35 483.86 778.90 566.18 724.63 653.51 885.26 674.35
00004540 00000014 669.78 231.21 409.04 552.90 737.58 450.49 923.97 482.40 772.92 560.00 718.53 648.69 876.25 674.51
00004541 00000015 682.40 224.72 406.25 553.60 737.82 435.61 927.56 474.10 783.84 550.30 724.84 639.81 867.82 672.69
00004542 DELETE   690.08 208.45 407.43 564.99 754.17 423.06 941.86 464.13 798.68 542.63 737.59 633.29 879.62 667.76
00004543 00000017 702.14 211.98 405.43 553.27 767.76 418.70 953.38 456.20 810.57 536.30 753.83 630.40 892.80 660.81
00004544 DELETE   708.52 199.03 408.97 560.24 775.43 414.21 956.08 448.88 813.18 523.63 760.12 623.83 898.66 651.63
00004545 00000019 714.19 197.80 404.35 554.13 781.67 406.38 955.33 446.91 810.57 512.82 759.26 613.74 889.90 646.26
00004546 00000020 717.73 189.10 403.02 559.97 786.11 398.85 949.62 441.65 801.13 498.83 756.34 605.23 876.04 640.23
00004547 00000021 724.19 178.13 404.55 565.82 786.57 395.02 955.60 435.53 799.80 500.81 750.31 603.01 877.28 636.30
00004548 00000022 732.30 162.73 407.98 578.26 796.14 387.71 964.86 433.82 805.43 498.36 760.64 595.51 887.87 633.91
00004549 00000023 733.97 158.45 412.82 590.53 803.41 386.32 974.68 432.67 820.54 490.83 775.39 597.19 896.78 635.84
00004550 00000024 745.57 163.39 404.37 580.19 812.19 389.20 984.90 430.63 835.42 492.44 784.15 599.18 906.63 634.16
00004551 00000025 757.31 165.18 405.24 577.54 820.58 386.58 992.54 429.70 844.95 492.16 791.95 598.26 912.60 634.54
00004552 00000026 768.13 169.17 401.31 575.43 836.32 389.63 1001.93 429.28 859.59 498.02 803.64 597.46 923.46 630.24
00004553 00000027 772.69 184.23 402.55 562.49 840.21 393.50 1009.81 430.75 865.34 500.32 809.44 602.75 932.60 632.93
00004554 00000028 775.46 184.21 407.46 564.74 845.17 396.25 1014.78 432.21 869.14 500.79 814.29 604.47 937.24 633.63
00004555 00000029 779.03 182.94 411.86 570.66 850.72 399.47 1021.34 435.70 873.49 499.88 817.87 607.13 943.11 636.72
00004556 00000030 781.45 180.79 414.10 572.44 854.02 401.58 1026.78 438.73 875.88 501.61 819.92 608.43 946.06 638.66
00004557 00000031 784.74 184.15 413.49 570.96 857.55 401.97 1030.87 439.41 878.00 503.27 821.27 608.77 948.44 639.79
00004558 00000032 786.02 181.96 416.10 575.24 859.21 402.18 1033.26 441.16 878.97 504.61 823.50 609.41 950.77 641.75
00004559 00000033 787.72 188.27 415.73 571.06 860.52 402.68 1034.66 442.19 878.70 507.64 823.87 610.31 951.96 643.08
00004560 00000034 793.50 188.47 412.61 577.21 861.12 405.27 1032.59 441.94 883.34 508.19 827.97 612.76 954.50 642.35
00004561 00000035 786.25 192.06 416.70 571.46 860.41 404.12 1035.25 444.86 879.55 511.39 823.82 611.82 953.89 645.55
00004562 00000036 792.70 190.75 410.77 577.95 860.48 408.18 1031.31 444.09 883.11 511.26 826.99 614.40 953.03 643.45
00004563 00000037 783.84 191.77 416.34 575.03 858.23 408.63 1030.93 448.02 879.21 514.52 824.18 614.66 953.59 647.24
00004564 00000038 790.90 194.46 409.78 574.86 859.30 412.62 1029.66 447.97 883.19 514.58 826.40 617.49 953.06 646.11
00004565 00000039 790.02 198.50 409.04 572.44 858.79 413.43 1028.70 448.12 882.26 515.83 825.77 618.50 952.19 646.64
00004566 00000040 788.85 200.02 410.37 572.04 857.92 414.32 1028.53 448.56 881.18 515.82 825.20 619.96 951.54 647.70
00004567 00000041 788.21 202.46 410.31 570.78 857.31 414.64 1028.03 448.90 880.67 517.23 824.12 620.95 950.76 648.81
00004568 00000042 787.03 206.85 409.04 568.26 857.11 415.78 1027.12 449.42 881.13 518.13 824.87 621.90 950.85 649.47
00004569 00000043 786.41 208.46 408.19 567.10 856.24 416.49 1026.32 449.26 880.76 518.57 824.46 622.94 950.75 649.81
00004570 00000044 781.85 205.69 407.98 569.15 855.02 406.85 1031.75 454.16 881.48 515.50 826.71 617.14 955.83 655.52
00004571 00000045 785.78 204.24 410.97 574.74 855.12 416.84 1026.11 450.36 879.08 521.66 823.65 624.72 951.45 652.16
00004572 00000046 782.05 204.59 408.43 570.49 854.65 409.32 1032.78 455.83 882.13 518.03 826.95 620.28 956.66 658.18
00004573 00000047 782.05 201.14 409.23 575.12 855.52 410.53 1033.47 457.79 882.34 518.71 827.26 621.06 955.55 659.69
00004574 00000048 782.74 206.46 407.55 569.64 856.48 410.87 1033.91 458.91 883.00 519.36 827.28 620.74 956.04 660.09
00004575 00000049 783.16 211.81 407.23 564.19 857.01 411.99 1034.98 459.92 883.29 519.53 827.62 621.32 956.63 660.60
00004576 00000050 785.08 213.89 410.54 567.78 855.48 419.75 1029.03 454.46 880.07 525.28 824.24 629.79 953.20 658.38
00004577 00000051 784.72 214.28 409.21 568.05 855.18 420.40 1028.31 455.38 880.09 526.41 823.88 630.53 952.28 659.30
00004578 00000052 784.78 216.43 410.43 566.80 855.06 419.76 1028.49 454.92 879.62 526.45 823.57 631.06 952.28 660.05
00004579 00000053 784.32 218.73 409.53 564.11 854.18 420.38 1028.71 455.23 880.24 527.73 823.53 633.13 952.68 661.92
00004580 00000054 783.93 214.42 410.17 569.65 854.38 420.92 1028.71 456.17 879.60 528.55 822.98 633.60 951.54 662.73
00004581 00000055 783.61 218.13 410.54 566.87 854.75 420.56 1029.21 455.43 880.27 528.43 823.32 633.74 952.06 662.69
00004582 00000056 783.66 220.09 409.04 564.23 854.27 421.13 1028.38 456.17 879.32 530.85 822.00 635.83 950.14 664.92
00004583 00000057 784.21 223.32 403.91 550.93 855.12 416.83 1035.97 466.31 882.55 526.08 825.86 628.47 951.62 669.23
00004584 00000058 783.94 223.05 402.33 548.83 855.41 417.91 1035.49 466.67 882.75 526.85 826.10 629.99 949.45 670.24
00004585 00000059 783.17 221.09 402.04 550.50 855.02 417.45 1034.98 466.41 882.54 525.89 825.89 629.10 949.13 669.52
00004586 00000060 781.85 222.25 405.64 550.68 853.46 415.45 1034.67 464.39 882.24 525.58 824.50 627.54 948.31 667.99
00004587 00000061 779.78 214.89 412.80 570.06 853.34 420.84 1027.62 455.90 881.46 530.20 821.01 633.38 946.54 662.70
00004588 00000062 778.56 219.74 407.86 555.98 853.75 413.82 1036.37 466.02 884.36 526.81 822.78 624.29 950.82 667.51
00004589 00000063 776.60 224.66 408.76 552.36 853.26 417.15 1037.89 472.00 885.33 532.72 820.63 625.74 952.39 671.21
00004590 00000064 773.23 232.50 413.25 552.27 851.06 422.33 1035.61 476.95 884.40 537.21 819.45 628.47 952.88 673.71
00004591 00000065 774.16 235.70 415.09 566.41 853.52 431.44 1029.66 473.89 882.12 542.75 820.99 639.58 953.04 675.32
00004592 00000066 767.46 236.03 418.77 553.88 848.49 425.66 1032.30 479.98 881.72 537.67 815.03 630.80 951.45 675.67
00004593 00000067 764.41 233.69 416.34 540.79 848.14 416.27 1031.32 477.28 881.21 534.28 811.88 618.28 950.77 668.40
00004594 00000068 761.50 228.30 415.90 539.79 844.21 414.53 1027.25 472.13 877.17 528.18 811.04 617.45 947.05 664.70
00004595 00000069 758.02 225.13 415.32 539.52 841.09 412.81 1023.00 470.43 873.38 527.85 808.29 616.25 941.84 663.51
00004596 00000070 756.41 225.35 414.60 541.68 837.26 412.12 1018.82 473.57 868.24 531.47 802.13 617.15 935.22 667.67
00004597 00000071 752.54 226.73 413.24 549.64 833.25 412.92 1013.03 480.86 864.06 535.69 795.47 618.25 926.80 674.04
00004598 00000072 748.11 236.46 417.68 551.52 829.79 422.47 1008.33 487.51 858.19 540.59 791.32 628.83 920.22 682.57
00004599 00000073 745.87 236.28 418.36 552.34 826.69 419.80 1004.11 484.92 854.13 536.87 788.27 623.98 921.67 677.51
00004600 00000074 735.94 229.88 421.88 555.01 818.34 410.19 1002.53 470.73 844.23 532.45 781.66 623.80 923.69 673.23
00004601 00000075 732.37 203.21 427.25 572.71 819.18 400.42 1003.37 458.35 844.46 513.89 779.36 610.03 923.08 657.52
00004602 DELETE   731.96 201.87 426.58 565.04 816.59 392.99 1001.60 446.16 846.93 506.62 781.55 606.33 925.80 649.67
00004603 00000077 735.21 192.34 422.69 562.52 811.44 387.80 996.95 436.08 843.85 502.95 781.54 600.51 929.03 639.73
00004604 00000078 736.95 185.89 419.70 562.62 805.22 392.13 989.05 428.61 837.44 499.60 783.14 600.70 929.66 630.82
00004605 00000079 737.13 188.15 417.63 555.51 799.39 398.83 978.20 422.14 832.47 498.90 787.07 604.18 929.90 623.80
00004606 DELETE   729.53 206.12 414.65 531.86 778.84 412.36 954.55 421.82 810.51 507.90 781.99 609.28 929.09 616.69
00004607 00000081 721.27 192.67 420.61 551.71 772.94 415.08 945.04 416.68 813.19 513.64 788.21 622.50 920.50 623.16
00004608 00000082 718.27 204.57 408.77 542.31 765.71 420.72 933.60 418.25 808.45 519.52 788.06 630.10 915.30 627.47
00004609 00000083 707.29 215.52 408.03 543.68 745.12 421.16 919.52 416.70 790.20 521.97 770.39 638.07 911.23 635.05
00004610 00000084 698.98 220.88 411.08 544.86 737.59 424.83 910.11 420.58 783.22 526.28 765.31 641.32 901.73 637.71
00004611 00000085 691.96 232.99 411.88 539.52 734.00 428.77 905.82 424.02 779.90 530.03 763.87 642.13 899.48 637.72
00004612 00000086 684.56 235.25 415.27 540.59 732.43 430.69 901.99 425.63 776.30 532.23 763.56 640.73 896.84 636.12
00004613 00000087 681.56 235.69 412.04 539.05 729.96 428.20 898.49 424.63 773.06 532.75 761.84 643.02 888.29 639.80
00004614 00000088 677.16 233.47 410.92 539.08 728.76 426.63 894.37 424.73 769.22 529.58 754.24 640.76 875.28 639.12
00004615 00000089 673.73 227.31 410.16 544.82 727.58 425.70 891.80 424.18 767.01 528.48 752.09 640.70 871.72 639.49
00004616 00000090 671.23 228.63 410.98 550.67 728.28 424.92 892.36 423.41 764.88 527.54 752.37 639.56 874.53 638.42
00004617 00000091 671.99 228.10 410.23 553.64 728.26 424.41 891.48 422.87 763.61 526.70 754.62 639.20 878.01 637.90
00004618 00000092 670.63 237.62 419.29 540.79 724.07 421.85 892.85 421.38 764.51 531.23 751.53 639.29 875.75 641.36
00004619 00000093 668.39 230.93 415.60 548.59 723.81 426.26 891.74 423.76 761.73 529.73 749.51 642.52 878.06 640.59
00004620 00000094 667.61 233.77 415.23 545.91 721.49 426.57 891.75 425.04 760.17 531.90 745.53 643.68 878.38 642.59
00004621 00000095 666.69 234.53 415.46 542.72 718.14 428.50 889.93 425.70 758.54 533.05 742.56 647.05 876.15 645.09
00004622 00000096 669.34 239.08 411.00 532.61 715.86 428.11 888.85 426.71 755.72 535.71 739.56 648.48 874.59 647.72
00004623 00000097 669.72 237.39 412.25 533.32 717.04 430.79 889.68 430.50 756.09 537.12 738.38 648.08 873.74 648.19
00004624 00000098 672.94 242.05 408.15 526.60 718.78 431.93 891.70 431.45 758.26 538.14 738.13 648.24 876.13 648.23
00004625 00000099 674.91 247.01 409.39 520.47 721.11 431.71 894.61 433.00 761.51 538.16 737.64 646.72 876.57 647.99
00004626 00000100 674.24 231.83 410.93 536.47 721.96 431.55 896.95 432.18 766.17 538.54 740.62 647.03 880.52 647.81
00004627 00000101 677.87 242.84 408.24 525.94 724.68 433.34 900.54 434.71 768.63 539.90 741.31 647.40 882.60 648.71
00004628 00000102 680.17 245.83 407.62 524.07 726.64 434.82 902.82 435.04 770.91 539.96 744.09 648.22 885.92 648.59
00004629 00000103 682.58 248.31 407.25 521.48 729.10 434.23 904.75 435.13 772.82 540.81 745.68 648.01 887.18 648.88
00004630 00000104 683.96 247.43 408.46 522.82 731.03 434.63 906.90 436.92 774.85 541.52 747.00 648.24 886.93 650.29
00004631 00000105 684.10 242.11 410.51 530.06 731.85 435.09 907.70 437.66 775.94 541.88 747.71 649.47 888.11 651.77
00004632 00000106 684.53 239.87 411.32 533.10 732.81 433.57 909.29 438.00 776.21 541.86 748.37 648.76 888.95 652.39
00004633 00000107 683.80 233.84 413.17 542.53 734.11 432.85 911.09 438.18 778.11 541.75 750.13 649.64 889.54 653.94
00004634 00000108 684.35 228.16 415.30 549.67 734.33 432.34 912.07 437.93 779.55 541.36 750.57 650.29 892.83 654.72
00004635 00000109 685.59 233.22 413.74 547.28 734.96 432.95 911.91 438.42 779.38 542.61 751.53 651.00 894.05 655.26
00004636 00000110 685.74 232.56 413.94 548.68 736.28 433.71 912.32 439.06 780.74 542.20 753.26 650.31 894.03 654.45
00004637 00000111 686.05 237.25 412.33 544.39 737.26 432.84 913.49 438.95 782.99 541.73 753.85 649.51 893.41 654.32
00004638 00000112 686.40 232.38 411.21 550.05 738.52 431.71 914.72 438.85 783.76 540.19 754.11 648.61 892.87 654.26
00004639 00000113 687.45 233.67 411.10 549.28 739.07 431.78 915.51 439.19 784.43 540.43 753.44 648.57 891.62 654.58
00004640 00000114 688.17 237.30 410.10 546.57 741.30 430.13 916.44 439.55 785.61 540.26 754.86 647.62 892.43 655.30
00004641 00000115 689.18 233.63 411.22 550.96 742.57 429.63 917.51 439.44 785.32 539.46 755.61 646.31 894.79 654.33
00004642 00000116 689.25 232.25 412.91 554.47 743.31 428.59 919.25 439.37 785.59 538.87 756.37 646.15 896.37 655.02
00004643 00000117 689.55 223.19 413.78 565.31 743.16 429.09 920.13 439.73 786.36 538.56 757.34 646.46 897.80 655.29
00004644 00000118 689.65 219.09 416.58 572.90 743.84 430.12 922.01 440.27 787.99 539.10 759.28 645.93 902.15 654.37
00004645 00000119 690.94 221.91 416.96 571.63 745.34 430.47 923.28 440.34 789.30 539.19 760.95 645.88 905.70 654.10
00004646 00000120 692.49 219.48 416.97 575.99 747.26 431.42 926.07 440.71 791.98 539.22 762.96 646.07 909.36 653.88
00004647 00000121 693.83 219.72 417.37 576.97 748.76 432.60 927.96 442.19 793.44 539.61 764.66 645.78 911.32 653.82
00004648 00000122 698.45 225.56 414.91 572.18 752.87 431.19 933.85 437.04 792.36 535.34 764.82 650.05 914.72 654.73
00004649 00000123 699.78 226.32 415.04 572.12 755.09 428.73 935.99 435.67 793.66 533.15 765.95 648.50 915.81 654.28
00004650 00000124 701.01 224.72 415.45 573.74 756.46 427.57 936.88 435.40 795.02 532.36 767.11 648.34 915.81 654.88
00004651 00000125 703.22 222.45 413.52 575.05 758.56 426.34 939.21 435.44 796.55 531.52 767.36 646.96 916.57 654.65
00004652 00000126 704.75 228.90 412.64 567.10 760.45 425.18 940.93 434.44 796.99 529.83 768.00 645.63 917.48 653.51
00004653 00000127 706.38 228.19 410.33 566.35 761.71 423.89 942.59 433.64 798.45 528.36 767.78 645.50 916.68 653.83
00004654 00000128 709.59 234.20 402.74 558.58 764.85 428.81 941.08 438.60 800.86 526.54 768.80 644.22 916.24 652.80
00004655 00000129 712.65 229.82 400.03 555.32 765.93 428.22 940.79 439.18 801.73 524.86 766.79 642.51 909.39 651.69
00004656 00000130 712.93 216.34 398.83 553.30 772.76 420.51 940.68 443.48 802.78 522.11 765.67 628.12 899.30 646.00
00004657 00000131 710.54 211.19 402.05 548.13 775.44 413.47 944.33 441.95 803.86 514.59 762.14 618.52 894.89 641.39
00004658 00000132 711.66 196.01 402.26 554.74 778.23 405.91 945.19 435.97 803.50 503.64 761.91 610.48 891.33 634.76
00004659 00000133 715.01 198.95 399.49 545.42 782.74 399.74 945.91 437.11 801.53 498.38 758.01 604.02 880.51 634.69
00004660 00000134 716.35 194.06 397.57 553.70 786.33 397.86 949.65 438.13 805.08 497.55 757.96 603.64 878.00 637.04
00004661 00000135 716.97 197.36 399.64 557.28 785.97 400.49 951.12 438.73 807.43 499.88 760.68 610.94 879.52 642.46
00004662 00000136 720.71 206.58 394.29 554.45 779.88 408.99 946.93 435.93 809.22 509.70 758.07 618.25 881.87 640.30
00004663 00000137 721.47 195.35 398.26 568.96 778.77 407.49 947.93 436.25 805.71 511.21 760.58 616.74 888.76 640.34
00004664 00000138 715.87 195.00 399.89 571.97 775.99 410.80 945.45 442.03 801.90 515.58 759.08 618.30 891.41 643.99
CROP_BBOX: 471 0 1546 1013
