Video ID: 	746yPBlslVk
H: 	1080
W: 	1920
FPS: 	23.976023976023978

FRAME INDEX X0 Y0 W H [Landmarks (5 Points)]

00001928 00000000 822.83 72.35 338.18 537.26 936.93 277.85 1098.16 283.63 1041.67 345.11 966.69 477.76 1089.03 483.91
00001929 00000001 827.48 70.74 332.20 552.24 935.30 269.52 1097.27 277.44 1038.69 336.35 963.13 482.74 1084.40 491.02
00001930 00000002 828.32 72.11 331.40 557.20 936.71 267.86 1098.92 277.46 1040.36 332.47 960.73 482.99 1084.75 492.99
00001931 00000003 831.12 73.13 330.79 556.97 938.11 267.18 1100.53 276.57 1039.90 331.47 960.38 482.61 1084.73 492.50
00001932 00000004 832.83 76.22 329.72 558.37 940.77 268.36 1100.50 277.10 1041.98 333.37 961.47 484.25 1084.92 493.81
00001933 00000005 830.04 88.87 335.31 542.96 939.56 265.56 1104.55 276.49 1045.50 338.13 960.65 485.93 1084.00 497.59
00001934 00000006 833.45 89.25 333.70 547.43 941.12 269.04 1109.48 279.34 1048.17 343.45 961.12 493.16 1086.20 504.45
00001935 00000007 832.50 91.20 335.78 550.95 942.54 274.68 1109.66 282.76 1048.84 353.83 962.28 499.41 1087.35 509.00
00001936 00000008 830.55 93.99 339.57 557.77 941.88 278.37 1110.89 285.77 1051.47 359.77 964.13 504.96 1091.48 513.38
00001937 DELETE   831.26 98.90 340.90 562.12 944.35 285.64 1115.51 295.19 1053.92 367.34 965.93 515.45 1093.87 525.44
00001938 00000010 832.63 100.36 341.93 564.61 947.80 298.42 1117.06 306.38 1055.62 380.19 969.30 522.10 1097.86 530.95
00001939 00000011 834.11 105.31 340.51 566.57 952.92 305.15 1119.19 312.92 1059.12 392.00 974.59 530.11 1098.05 538.83
00001940 DELETE   833.04 108.56 342.09 567.36 954.90 316.93 1118.25 321.56 1061.55 404.99 979.24 539.68 1100.45 545.27
00001941 00000013 831.96 111.15 349.43 565.75 957.40 329.27 1125.09 332.70 1066.19 421.31 982.38 546.71 1107.13 550.70
00001942 00000014 831.65 114.74 351.06 567.53 958.07 342.00 1127.52 344.96 1067.70 436.60 986.42 557.63 1111.45 560.69
00001943 00000015 832.39 121.76 351.68 563.01 958.87 354.09 1124.77 352.41 1066.38 451.73 990.81 568.65 1110.29 567.72
00001944 00000016 832.16 124.86 354.80 575.46 962.50 361.17 1127.17 360.63 1069.09 463.78 993.27 580.65 1110.44 580.56
00001945 DELETE   835.49 124.83 353.18 587.70 964.89 371.39 1131.18 371.89 1073.45 477.70 990.58 589.27 1114.62 589.77
00001946 00000018 836.45 133.97 356.18 570.56 957.96 375.57 1138.60 379.99 1073.34 487.53 976.52 585.31 1116.10 590.38
00001947 00000019 836.09 137.29 360.22 573.93 958.14 380.77 1141.50 386.86 1073.56 494.92 975.33 592.36 1116.33 599.08
00001948 00000020 836.65 139.94 363.20 588.19 963.07 384.87 1141.50 391.89 1076.33 500.67 978.16 600.02 1116.70 607.33
00001949 00000021 836.06 140.32 365.20 595.17 964.11 391.20 1138.43 398.42 1072.85 510.44 979.70 606.50 1115.11 613.66
00001950 00000022 834.35 145.62 367.96 591.72 965.60 395.34 1136.36 401.46 1070.33 518.50 983.61 610.54 1113.99 616.05
00001951 00000023 835.97 147.54 367.95 592.10 966.88 399.32 1134.72 403.72 1070.15 522.52 985.94 613.59 1113.22 617.61
00001952 00000024 834.39 155.60 369.35 585.83 966.84 399.18 1135.78 402.37 1071.97 522.97 988.57 616.40 1113.92 619.47
00001953 00000025 835.20 156.33 368.59 586.37 966.53 399.82 1134.40 401.04 1073.26 526.43 989.97 618.67 1113.57 620.13
00001954 00000026 835.46 156.52 368.39 585.56 967.13 397.63 1134.06 398.09 1073.15 527.15 991.76 619.39 1112.83 620.12
00001955 00000027 836.55 156.23 366.53 586.94 967.36 396.28 1135.24 397.23 1073.19 526.85 992.34 620.10 1113.97 621.08
00001956 00000028 836.12 157.07 366.89 586.26 967.48 395.59 1134.73 397.06 1072.84 526.65 992.04 619.35 1113.61 620.81
00001957 00000029 836.88 155.41 365.74 586.53 967.47 395.36 1134.40 396.57 1072.98 526.52 992.66 619.16 1113.22 620.45
00001958 00000030 836.91 154.00 365.85 587.58 968.31 394.85 1134.30 396.43 1073.42 525.96 992.77 618.13 1112.76 619.71
00001959 00000031 837.96 152.08 364.32 589.09 968.57 394.29 1133.76 396.35 1073.01 525.04 992.86 617.25 1112.32 619.17
00001960 00000032 838.02 152.85 364.41 586.84 967.98 393.04 1133.85 395.92 1072.39 523.76 992.16 616.01 1111.49 618.75
00001961 00000033 836.63 150.87 364.84 588.52 968.47 390.79 1134.81 393.93 1073.11 522.73 992.31 615.35 1112.01 618.22
00001962 00000034 836.94 147.76 363.74 590.13 967.79 390.04 1133.20 391.86 1072.72 520.29 992.03 613.16 1111.72 614.93
00001963 00000035 833.80 142.60 365.50 593.34 966.03 387.05 1132.58 388.50 1073.85 515.74 990.56 611.12 1110.87 612.75
00001964 00000036 831.95 141.02 365.77 593.76 962.55 385.53 1132.15 386.68 1072.81 508.24 988.47 609.61 1109.75 611.12
00001965 00000037 830.02 139.88 362.89 589.42 959.32 380.05 1128.74 380.11 1071.46 499.81 987.29 605.01 1106.77 605.76
00001966 00000038 829.45 138.50 359.88 580.75 956.23 374.55 1126.34 373.53 1069.27 493.81 986.63 598.84 1103.88 599.18
00001967 00000039 827.45 130.83 357.48 585.90 953.83 370.24 1120.40 368.57 1066.70 487.85 984.76 593.62 1099.38 593.34
00001968 00000040 825.87 122.56 355.60 590.49 949.59 367.22 1115.75 363.58 1065.05 478.35 981.57 588.01 1098.68 586.31
00001969 00000041 824.77 117.18 353.91 595.08 948.43 360.71 1114.43 357.69 1063.50 469.27 979.01 582.18 1098.14 580.70
00001970 00000042 827.44 107.80 348.13 603.83 949.71 351.97 1109.84 347.37 1059.08 464.53 987.30 586.80 1101.74 582.38
00001971 00000043 826.05 102.66 347.70 599.87 948.13 346.87 1107.22 341.39 1058.56 457.18 987.94 578.82 1103.52 573.45
00001972 00000044 824.84 102.64 349.87 589.60 947.48 340.14 1109.70 334.53 1060.61 445.69 990.74 571.63 1107.08 566.35
00001973 00000045 827.39 97.85 346.33 593.69 948.48 332.69 1110.43 326.27 1063.28 439.02 994.27 568.28 1109.46 562.45
00001974 00000046 826.94 93.37 346.06 588.76 948.94 328.99 1113.02 321.17 1068.17 432.68 997.47 561.27 1114.00 554.82
00001975 00000047 826.69 88.31 351.37 583.72 950.59 329.61 1119.29 321.33 1073.89 430.72 998.18 550.49 1123.32 544.13
00001976 00000048 828.16 90.08 351.15 584.88 955.19 331.66 1122.91 321.81 1081.54 432.68 1001.21 550.26 1129.20 542.85
00001977 00000049 829.64 95.32 351.06 579.78 955.90 337.83 1125.28 328.35 1080.56 441.35 999.87 554.84 1129.50 547.41
00001978 00000050 828.94 107.27 352.85 581.59 965.05 346.40 1129.24 341.68 1085.40 456.64 997.74 561.70 1125.97 557.03
00001979 00000051 829.35 115.47 354.45 589.61 969.37 356.90 1130.75 350.27 1088.83 472.61 994.33 571.78 1123.91 565.41
00001980 00000052 829.04 125.37 357.54 577.89 970.13 368.08 1134.61 361.75 1096.26 482.49 992.84 575.56 1124.34 571.01
00001981 00000053 827.39 129.76 361.62 591.11 970.55 372.83 1136.79 366.99 1097.95 489.96 994.75 586.32 1126.21 581.64
00001982 00000054 828.14 134.68 362.04 586.22 968.82 376.87 1135.46 371.67 1096.94 493.11 995.29 588.95 1125.89 585.16
00001983 00000055 828.66 134.15 359.64 588.87 967.87 384.98 1136.16 377.71 1095.63 502.06 995.01 596.02 1125.66 590.64
00001984 00000056 830.44 133.47 361.18 607.34 968.03 390.13 1139.27 381.37 1096.85 513.43 994.06 604.77 1132.21 597.90
00001985 00000057 830.51 143.41 365.11 598.40 968.98 394.84 1139.64 384.87 1095.19 517.56 997.60 610.72 1132.92 602.72
00001986 00000058 830.77 153.90 365.04 597.74 973.04 398.47 1142.39 388.46 1098.34 524.80 1003.90 621.05 1133.25 612.47
00001987 00000059 831.30 161.37 364.66 601.75 977.88 402.72 1144.08 390.42 1102.19 532.77 1006.61 629.61 1133.72 618.73
00001988 00000060 833.12 166.73 362.66 603.28 979.05 407.32 1141.97 394.75 1101.38 533.40 1006.01 635.21 1131.36 624.15
00001989 00000061 831.60 164.65 362.89 606.72 977.02 408.22 1140.59 396.98 1099.41 533.55 1004.45 636.42 1129.88 626.43
00001990 00000062 832.03 165.86 362.74 601.51 975.35 407.64 1139.90 395.66 1098.60 533.67 1003.71 634.99 1128.65 624.59
00001991 00000063 831.29 162.59 361.98 603.68 975.32 407.13 1139.75 395.42 1098.46 533.48 1003.62 634.47 1127.77 624.30
00001992 00000064 830.57 162.74 362.80 602.90 975.61 407.00 1140.15 396.04 1098.78 533.68 1004.55 635.37 1127.32 625.80
00001993 00000065 831.89 163.77 362.21 600.04 975.07 407.74 1140.28 396.62 1098.41 533.55 1004.58 635.37 1127.98 625.65
00001994 00000066 831.67 162.73 361.85 596.42 973.13 406.30 1140.91 396.49 1096.73 532.76 1003.36 633.58 1127.56 624.92
00001995 00000067 829.04 156.99 364.61 590.04 969.35 403.98 1139.23 394.72 1094.04 531.96 1002.31 628.53 1126.60 620.82
00001996 00000068 827.82 154.07 365.14 588.74 967.95 402.03 1137.69 393.41 1092.91 529.21 1001.44 623.56 1126.35 616.72
00001997 00000069 826.90 153.22 365.47 581.58 965.24 400.72 1135.72 392.03 1090.34 527.62 1003.73 622.04 1125.19 615.25
00001998 00000070 824.66 151.39 367.17 582.95 964.24 398.07 1133.23 389.86 1087.31 526.27 1004.76 622.35 1122.21 615.75
00001999 00000071 824.07 150.86 365.10 580.23 963.68 396.87 1131.27 387.75 1086.49 526.31 1004.32 620.91 1120.05 613.43
00002000 00000072 822.68 145.62 365.58 588.07 961.90 396.35 1130.28 387.31 1084.73 527.34 1000.08 619.38 1119.19 611.69
00002001 00000073 822.28 144.30 365.16 588.96 961.87 395.62 1129.45 386.78 1083.66 527.31 997.40 617.59 1116.54 610.14
00002002 00000074 820.71 145.51 366.41 589.34 962.95 395.55 1128.65 387.59 1082.89 528.45 998.34 618.60 1115.57 611.78
00002003 00000075 821.28 146.58 365.83 589.36 963.35 395.44 1127.68 388.42 1082.30 528.47 998.52 618.83 1113.80 612.90
00002004 00000076 821.11 146.01 366.04 592.37 962.54 395.05 1128.03 389.00 1081.93 528.32 996.36 619.35 1113.10 614.26
00002005 00000077 820.78 144.35 364.46 596.45 962.19 394.33 1126.79 389.50 1079.89 527.38 993.34 617.53 1111.24 613.18
00002006 00000078 820.25 146.33 362.01 600.97 963.86 392.35 1125.96 389.10 1080.20 525.63 989.87 616.63 1108.10 613.68
00002007 00000079 820.28 145.96 361.14 602.63 964.88 391.29 1125.82 388.75 1080.61 524.73 987.62 614.47 1107.18 612.23
00002008 00000080 821.11 145.67 361.76 599.36 962.99 391.06 1127.65 388.41 1081.29 523.55 985.66 611.44 1110.50 609.16
00002009 00000081 821.41 143.07 362.76 598.87 963.18 389.57 1128.82 387.91 1081.62 522.74 985.97 610.13 1111.24 608.58
00002010 00000082 822.11 141.45 362.31 598.22 963.40 389.03 1129.90 386.90 1084.07 520.28 986.27 608.31 1113.20 606.55
00002011 00000083 823.20 143.05 362.22 596.45 964.75 388.12 1131.02 386.00 1085.77 519.20 987.50 608.21 1113.75 606.66
00002012 00000084 823.49 143.39 362.95 595.77 965.50 387.31 1131.99 385.67 1086.46 519.00 987.60 607.83 1114.05 606.71
00002013 00000085 823.86 142.55 363.22 593.76 964.87 386.82 1132.56 385.34 1086.56 518.28 987.15 606.42 1115.08 605.46
00002014 00000086 823.63 143.12 362.94 591.80 964.64 385.72 1133.22 383.42 1087.56 516.88 987.34 605.62 1116.02 604.01
00002015 00000087 823.93 142.26 362.99 590.11 964.08 385.68 1134.21 383.42 1088.27 516.48 986.36 604.19 1117.30 602.65
00002016 00000088 824.34 142.58 361.53 586.24 965.21 385.51 1133.43 382.19 1089.33 516.15 987.38 601.62 1117.61 599.38
00002017 00000089 823.91 144.06 361.71 583.28 964.55 385.37 1132.41 382.57 1087.93 516.03 986.97 601.28 1115.86 599.37
00002018 00000090 823.28 143.69 362.34 584.29 963.53 384.77 1131.58 382.47 1086.47 514.99 986.46 601.40 1114.86 599.78
00002019 00000091 822.59 142.58 361.43 583.95 961.36 383.90 1129.87 381.90 1084.70 512.78 984.98 600.17 1113.28 598.82
00002020 00000092 822.48 141.20 360.94 585.60 961.37 383.84 1128.88 381.51 1084.49 511.41 985.01 599.24 1113.14 597.68
00002021 00000093 822.59 141.76 361.05 584.48 961.23 383.17 1128.83 381.10 1084.74 509.59 984.83 598.15 1113.19 596.87
00002022 00000094 820.92 141.92 360.78 584.35 960.73 381.21 1126.80 379.87 1083.73 506.50 984.42 595.97 1111.53 595.24
00002023 00000095 819.56 141.83 360.13 583.41 958.96 380.51 1125.76 378.35 1082.58 503.98 984.02 595.36 1110.33 593.84
00002024 00000096 817.92 142.56 360.71 580.90 956.46 378.47 1124.60 377.10 1080.26 500.66 981.74 593.13 1108.97 592.14
00002025 00000097 815.54 141.17 361.15 580.80 951.08 376.18 1121.47 375.14 1076.25 495.91 977.82 589.80 1107.83 588.96
00002026 00000098 817.41 136.92 356.88 582.10 953.62 379.36 1116.08 378.92 1072.90 497.05 977.11 585.82 1103.41 585.38
00002027 00000099 815.51 129.59 357.75 588.32 950.02 376.58 1112.44 377.30 1068.42 493.47 972.83 582.87 1099.90 583.25
00002028 DELETE   813.77 118.74 356.48 601.61 943.54 369.62 1105.29 372.19 1060.40 484.55 965.41 578.07 1092.55 580.30
00002029 DELETE   809.61 113.24 356.72 602.42 938.28 360.93 1101.64 362.72 1056.92 473.23 958.89 572.53 1088.66 574.37
00002030 00000102 805.49 107.82 359.09 603.67 928.21 354.38 1097.65 353.57 1044.86 464.13 947.44 567.10 1085.11 566.77
00002031 00000103 800.16 96.26 355.32 619.19 918.55 349.28 1084.85 352.21 1024.96 462.16 940.23 565.54 1080.94 567.31
00002032 00000104 799.12 104.68 355.08 618.33 917.04 344.16 1082.12 341.27 1021.59 451.89 935.73 564.10 1067.70 561.67
00002033 00000105 797.02 105.59 353.33 617.60 913.77 341.50 1077.68 340.98 1015.63 451.92 932.05 568.14 1058.94 567.77
00002034 00000106 792.73 94.15 357.07 614.62 912.91 345.40 1072.12 350.72 1011.84 457.34 938.15 569.21 1059.01 573.60
CROP_BBOX: 415 0 1462 968
