Video ID: 	agTtM0I6DFs
H: 	1080
W: 	1920
FPS: 	29.97002997002997

FRAME INDEX X0 Y0 W H [Landmarks (5 Points)]

00085377 00000000 488.76 133.77 376.73 574.53 613.53 370.59 779.65 352.69 731.10 468.70 663.37 579.79 788.50 563.68
00085378 DELETE   487.68 127.27 376.83 573.43 612.42 365.33 778.76 346.34 731.17 460.26 663.05 572.26 789.94 555.46
00085379 00000002 481.82 120.14 382.80 572.66 607.50 365.91 778.01 349.55 724.57 458.50 658.68 564.43 796.79 549.74
00085380 00000003 481.83 118.87 383.57 572.34 607.99 367.04 776.17 350.35 724.31 453.75 658.84 561.73 797.09 546.72
00085381 00000004 483.09 114.65 382.04 574.56 608.21 368.63 771.85 352.40 719.84 452.42 657.18 558.70 793.19 544.06
00085382 00000005 482.88 114.64 382.46 575.50 607.74 367.33 771.01 350.27 719.63 451.49 657.23 558.88 792.81 543.69
00085383 00000006 482.92 115.06 382.41 575.15 606.69 365.62 770.88 347.43 720.01 451.99 657.39 559.64 792.78 543.75
00085384 00000007 481.64 114.16 383.42 575.98 603.77 363.53 768.28 344.52 717.16 451.35 656.70 559.61 791.75 543.08
00085385 00000008 480.29 114.57 383.83 575.21 600.56 363.64 766.16 343.88 713.89 451.21 655.35 560.50 790.62 543.40
00085386 00000009 479.54 116.09 384.11 574.69 598.27 363.79 765.35 343.00 711.85 452.06 654.36 561.53 790.53 543.60
00085387 00000010 478.14 115.69 385.66 575.49 596.82 364.25 764.97 343.80 710.09 453.13 652.80 562.13 789.32 544.47
00085388 00000011 478.33 116.50 385.30 577.48 596.30 364.28 764.59 344.70 709.32 454.24 652.06 563.38 789.07 546.40
00085389 00000012 478.23 117.85 385.39 580.28 597.65 364.79 765.25 345.61 710.24 455.70 652.09 565.04 788.57 548.46
00085390 00000013 481.76 123.80 384.54 586.49 604.33 362.98 768.50 340.95 719.71 455.69 657.04 572.85 780.42 553.29
00085391 00000014 482.33 125.86 383.69 590.53 606.20 362.08 770.39 342.26 722.35 456.89 656.32 574.68 783.47 556.88
00085392 00000015 483.16 126.02 382.44 591.79 607.98 362.79 771.40 344.23 724.16 458.42 656.84 575.71 784.67 559.08
00085393 00000016 483.16 125.57 382.56 592.79 607.95 363.82 771.33 344.56 724.21 458.94 657.13 575.63 785.73 558.25
00085394 00000017 482.87 125.78 383.23 591.83 607.43 363.70 771.62 343.89 724.00 459.19 656.67 575.42 785.93 557.55
00085395 00000018 482.77 124.64 383.32 591.08 606.99 364.05 771.80 343.71 723.78 459.05 656.40 575.07 786.11 556.81
00085396 00000019 482.42 126.04 383.40 587.13 606.42 364.60 771.48 343.51 723.20 459.21 656.11 574.53 785.07 555.74
00085397 00000020 482.11 125.41 383.74 585.76 606.16 365.12 771.50 344.32 722.84 460.07 655.09 573.89 784.28 555.40
00085398 00000021 481.47 125.95 384.70 586.28 604.89 366.33 770.32 344.55 721.73 460.85 655.00 574.56 784.70 555.20
00085399 00000022 481.19 124.78 384.89 587.31 604.91 367.34 770.12 345.30 722.18 461.92 655.60 575.56 784.46 556.00
00085400 00000023 480.82 126.87 385.77 586.14 604.69 367.85 769.89 345.70 721.99 462.17 655.23 576.35 784.44 556.73
00085401 00000024 481.17 128.17 384.92 585.90 605.40 368.44 769.27 346.11 722.56 462.58 656.27 576.90 784.81 557.12
00085402 00000025 481.23 129.56 385.35 584.76 605.51 368.73 769.67 345.82 722.83 462.47 657.05 577.18 785.56 556.86
00085403 00000026 481.46 129.61 385.43 584.84 606.71 368.74 769.98 346.13 724.00 461.86 657.84 577.36 785.36 557.37
00085404 00000027 481.96 129.07 384.91 585.68 607.49 368.71 769.81 346.11 724.43 461.12 659.30 577.57 785.56 557.55
00085405 00000028 481.96 129.55 385.09 585.60 607.64 368.93 769.62 346.39 724.38 460.89 659.56 577.84 785.60 557.85
00085406 00000029 482.13 130.00 384.91 585.24 607.66 369.46 769.08 347.09 724.01 460.77 659.52 578.02 785.36 558.17
00085407 00000030 482.06 130.43 384.73 585.15 607.64 371.02 769.01 348.54 724.03 461.58 658.67 578.82 784.85 559.02
00085408 00000031 482.57 130.23 383.89 586.46 608.96 375.72 768.39 352.87 724.95 462.50 658.67 579.27 785.94 559.29
00085409 00000032 483.13 130.26 383.77 586.65 608.78 378.73 767.37 355.22 724.01 462.32 657.85 579.75 786.34 559.49
00085410 00000033 483.88 129.56 383.29 586.37 609.06 379.54 767.19 355.95 724.23 462.50 658.90 579.96 786.85 559.64
00085411 00000034 484.16 129.37 383.47 586.14 609.73 377.12 768.46 352.56 725.58 462.44 661.00 580.23 787.36 558.81
00085412 00000035 484.35 128.89 383.91 586.12 609.82 376.38 769.62 350.96 726.17 462.84 662.42 580.34 788.16 558.13
00085413 00000036 484.13 129.73 384.14 584.50 609.40 375.39 770.07 350.40 725.99 462.70 662.70 580.37 787.56 558.52
00085414 00000037 483.91 129.56 384.26 584.07 608.89 373.48 770.62 348.94 726.32 462.66 662.71 580.17 788.10 558.56
00085415 00000038 483.83 129.68 383.87 583.79 608.77 373.57 770.18 349.20 726.39 462.93 663.23 580.42 788.39 558.91
00085416 00000039 483.69 129.59 383.53 583.16 607.50 373.59 770.49 349.34 725.38 463.72 662.17 580.48 788.49 559.05
00085417 00000040 483.14 130.53 383.53 581.56 606.83 373.39 770.89 349.04 725.48 464.57 662.04 581.06 788.38 559.56
00085418 00000041 483.16 130.21 383.43 583.16 606.78 373.19 770.59 349.12 725.16 464.36 661.70 581.48 787.41 560.24
00085419 00000042 482.24 131.25 384.16 584.65 606.68 372.71 770.28 349.90 724.46 464.66 659.23 581.48 786.29 561.33
00085420 00000043 482.03 131.80 384.27 585.20 606.88 372.34 769.93 349.93 724.48 465.00 659.36 581.90 786.19 562.04
00085421 00000044 482.48 132.34 383.75 584.84 607.24 372.25 770.11 350.31 724.26 465.35 659.11 581.70 785.97 562.27
00085422 00000045 482.63 133.26 383.59 583.56 607.56 372.43 770.64 350.48 724.71 465.52 659.31 581.87 786.50 562.46
00085423 00000046 482.43 133.45 384.41 583.43 608.05 372.73 771.05 350.36 725.59 465.50 660.11 582.24 787.05 562.52
00085424 00000047 482.99 134.65 384.56 580.53 608.10 373.64 772.07 350.78 726.14 466.63 660.83 582.93 787.91 562.83
00085425 00000048 483.45 135.84 384.33 577.04 608.55 374.59 773.13 351.24 726.84 467.35 662.36 582.96 789.01 562.43
00085426 00000049 484.43 135.60 384.98 577.34 608.53 374.55 774.06 350.65 726.67 468.20 662.64 582.71 790.38 561.51
00085427 00000050 484.71 135.51 385.89 578.52 609.08 374.99 774.11 351.00 727.27 468.65 663.48 583.54 791.06 562.21
00085428 00000051 484.92 135.89 385.68 580.43 610.11 375.45 774.13 351.33 728.06 469.72 663.50 584.34 791.54 562.85
00085429 00000052 486.13 136.05 384.67 579.63 611.07 376.51 774.52 352.30 728.73 470.63 664.54 584.65 792.85 563.01
00085430 00000053 486.60 134.54 385.30 579.88 610.27 377.87 775.90 352.47 728.67 471.75 663.79 584.60 795.30 561.82
00085431 00000054 487.38 133.35 384.55 575.85 608.65 377.67 777.87 351.78 728.35 473.10 660.97 583.06 796.53 559.81
00085432 00000055 487.30 135.26 385.13 570.39 607.23 378.65 778.98 351.52 728.80 474.39 658.53 579.35 801.22 555.49
00085433 00000056 487.61 136.64 386.32 571.70 609.17 378.98 779.35 351.02 729.14 475.97 657.72 576.32 802.22 551.92
00085434 00000057 487.98 137.39 386.19 569.26 609.17 378.69 779.91 350.87 729.21 476.16 656.05 573.96 802.94 549.91
00085435 00000058 488.00 137.68 386.35 568.82 609.22 379.00 780.38 350.73 729.90 475.94 655.06 572.31 804.45 547.93
00085436 00000059 488.27 137.44 386.33 568.38 609.50 378.51 780.69 350.16 729.89 475.23 655.16 571.58 804.50 547.10
00085437 00000060 488.30 137.30 385.89 566.80 609.94 377.14 780.49 349.79 729.78 473.58 655.24 570.39 803.38 546.79
00085438 00000061 487.21 135.65 387.52 571.16 609.22 377.40 779.84 348.97 729.91 472.98 656.70 573.14 804.28 548.26
00085439 00000062 486.18 136.06 388.67 578.08 610.43 376.35 779.17 348.54 730.83 471.21 660.46 578.69 800.62 553.98
00085440 00000063 485.30 138.43 389.79 583.81 613.38 376.56 776.10 351.46 729.76 475.08 662.29 583.08 796.82 560.34
00085441 00000064 486.26 142.70 388.35 587.11 613.40 380.75 777.11 359.23 729.23 481.54 658.18 586.58 796.51 566.95
00085442 00000065 488.67 140.86 385.92 599.08 612.76 387.50 778.41 366.94 729.62 489.85 657.87 595.29 797.83 576.61
00085443 00000066 489.02 144.36 386.23 604.43 614.45 394.68 780.65 377.91 729.36 501.52 654.42 600.48 798.48 584.93
00085444 00000067 491.46 146.80 383.86 603.19 617.00 402.72 779.82 387.18 728.72 508.06 653.70 602.62 797.06 588.66
00085445 00000068 491.21 148.31 386.71 596.88 614.89 405.38 780.85 389.98 727.61 509.18 654.26 601.69 799.00 588.09
00085446 00000069 491.96 148.58 387.03 591.66 613.19 407.45 782.17 390.52 728.37 507.84 655.27 601.20 801.85 586.66
00085447 DELETE   492.60 143.82 385.11 592.14 618.24 403.55 781.85 387.73 731.37 503.04 660.73 599.32 798.27 585.45
00085448 00000071 493.05 144.34 384.15 586.93 617.99 401.18 781.61 383.80 731.94 497.84 663.29 597.22 798.24 582.04
00085449 00000072 491.92 143.95 383.86 583.37 615.83 399.43 780.15 380.62 730.41 492.02 663.09 593.55 798.37 576.99
00085450 00000073 489.65 141.96 384.46 584.16 614.27 398.61 778.04 376.90 730.68 487.91 662.98 591.15 798.50 572.20
00085451 00000074 489.18 139.79 383.81 585.60 612.33 398.89 776.23 376.71 729.11 487.64 662.38 590.99 798.54 571.74
00085452 00000075 488.58 142.56 383.73 583.34 611.50 400.89 775.32 377.77 728.59 490.18 663.48 593.98 798.12 574.05
00085453 00000076 487.83 144.11 384.16 583.53 610.99 402.45 774.68 379.83 727.78 494.72 663.91 597.57 796.23 578.08
00085454 00000077 487.33 145.94 384.28 583.25 610.55 403.48 774.33 380.85 727.81 497.16 664.68 599.58 796.64 580.09
00085455 00000078 486.89 144.46 383.41 585.13 609.46 403.51 773.72 379.02 727.91 497.24 664.94 600.75 797.08 579.70
00085456 00000079 484.88 145.10 383.94 586.41 607.40 402.15 771.70 374.81 727.47 496.58 664.07 600.95 797.80 577.52
00085457 DELETE   483.05 144.72 384.12 589.04 607.46 398.00 772.20 370.79 728.84 491.71 662.77 600.20 796.96 576.84
00085458 00000081 481.17 141.26 385.05 594.40 606.72 393.63 771.40 366.23 729.35 486.03 662.05 597.98 797.88 574.21
00085459 00000082 479.29 140.73 385.40 592.68 605.62 390.88 768.02 361.23 728.77 482.01 662.75 595.37 798.07 569.68
00085460 00000083 476.34 140.83 387.74 590.76 603.19 389.59 767.00 358.62 727.60 479.53 662.03 593.15 799.26 566.30
00085461 00000084 476.01 138.28 387.60 590.53 601.88 389.96 765.20 357.74 726.19 477.79 661.76 592.17 798.97 564.36
00085462 00000085 474.51 137.59 388.84 588.81 600.79 390.60 764.92 357.03 725.44 477.50 661.43 591.13 798.81 562.17
00085463 00000086 475.04 139.36 388.56 585.74 600.52 390.28 765.04 356.47 724.93 478.18 662.23 590.94 799.11 561.64
00085464 00000087 474.75 139.97 388.68 584.39 600.17 390.95 765.17 356.25 725.02 479.43 663.24 591.93 799.28 561.85
00085465 00000088 475.10 140.26 388.43 583.71 600.02 391.04 765.41 356.13 724.83 480.30 663.58 592.70 799.24 562.45
00085466 00000089 475.02 140.03 388.44 584.05 600.01 390.81 765.89 355.99 725.06 480.41 663.69 592.96 799.47 562.76
00085467 00000090 475.05 139.53 388.75 584.47 599.99 391.55 765.71 355.71 725.41 479.82 664.20 593.05 800.31 561.98
00085468 00000091 474.52 138.89 389.45 584.57 600.29 390.83 766.26 354.39 726.50 478.14 665.19 592.50 801.34 560.92
00085469 00000092 474.39 138.62 390.14 585.14 600.90 390.95 766.61 354.15 727.81 477.17 666.27 592.78 802.24 560.93
00085470 00000093 476.41 138.81 389.35 586.05 602.05 390.37 767.12 353.34 728.74 477.31 668.51 594.10 803.01 561.95
00085471 00000094 477.89 136.78 389.18 588.54 603.57 390.65 767.55 353.39 729.95 476.57 670.53 594.41 803.74 561.96
00085472 00000095 479.15 135.60 389.18 590.53 605.20 390.52 767.25 353.16 730.29 475.36 671.82 594.07 804.03 561.48
00085473 00000096 481.94 135.82 388.06 591.95 607.12 388.91 767.52 352.18 730.48 474.35 672.18 593.76 804.27 561.56
00085474 00000097 481.10 136.76 389.24 591.04 608.88 385.90 767.43 350.58 730.72 471.39 672.51 592.22 802.50 561.23
00085475 00000098 480.39 135.48 390.17 590.70 610.11 382.85 768.86 348.01 732.39 468.45 672.16 590.01 802.76 559.51
00085476 00000099 479.89 134.65 391.13 589.31 610.39 380.94 769.19 345.81 733.04 464.52 672.80 587.40 803.07 556.63
00085477 00000100 479.39 135.04 392.95 587.14 611.02 379.54 770.09 343.54 733.75 461.53 674.04 585.22 804.61 553.69
00085478 00000101 479.14 133.62 393.24 586.25 611.03 379.02 770.26 342.25 734.18 460.01 674.40 583.68 804.60 551.51
00085479 00000102 479.14 133.30 392.94 585.04 610.58 379.61 769.97 342.26 734.15 458.86 674.62 582.68 805.29 550.09
00085480 00000103 479.46 132.79 393.31 583.97 609.95 381.93 769.94 342.95 734.02 459.45 675.39 582.64 806.58 548.68
00085481 00000104 479.76 133.75 392.32 581.75 609.01 383.81 769.64 344.61 733.38 461.56 675.70 584.03 806.65 549.94
00085482 00000105 479.60 134.53 390.55 580.44 607.85 384.94 770.21 346.28 733.47 465.66 674.04 586.20 806.10 552.69
00085483 00000106 480.89 134.20 389.45 583.33 607.01 385.72 769.70 347.10 732.23 467.93 673.45 588.34 805.76 554.78
00085484 00000107 480.82 134.64 389.89 582.83 606.70 386.48 769.02 347.94 731.49 469.37 674.34 589.64 805.32 556.11
00085485 00000108 481.43 134.69 390.12 585.99 607.34 386.27 768.46 347.63 731.43 469.36 675.29 590.88 804.94 557.19
00085486 00000109 481.69 134.58 390.08 588.46 607.85 385.84 767.94 347.52 731.34 469.11 675.87 592.04 804.43 558.54
00085487 00000110 481.91 135.16 389.82 589.92 608.73 385.70 768.12 348.26 731.73 469.82 676.13 593.12 804.20 560.27
00085488 00000111 482.24 135.38 389.69 591.13 609.03 385.42 768.38 348.99 731.50 470.76 675.80 593.45 803.81 561.38
00085489 00000112 482.70 134.61 388.98 592.95 609.39 385.83 768.34 349.91 731.68 471.37 676.03 594.49 803.20 562.86
00085490 00000113 482.85 134.53 388.35 592.94 609.38 385.79 768.42 350.71 731.66 471.63 675.81 595.05 802.69 564.14
00085491 00000114 483.05 134.44 387.87 593.48 610.03 386.18 768.58 351.49 731.79 472.13 676.35 595.49 802.45 564.89
00085492 00000115 483.29 134.31 387.28 594.32 610.31 386.42 768.52 351.99 732.04 472.64 676.55 596.06 802.15 565.69
00085493 00000116 483.30 134.37 387.40 593.91 610.55 386.16 768.88 351.83 732.24 472.42 676.80 595.79 802.28 565.49
00085494 00000117 483.63 134.82 387.53 593.25 611.18 386.22 768.84 351.94 732.30 471.70 677.87 595.66 802.26 565.39
00085495 00000118 484.13 134.76 386.64 591.90 611.69 385.88 768.83 351.48 732.25 471.24 679.12 595.40 801.60 565.10
00085496 00000119 484.82 134.44 385.15 590.42 612.03 385.91 768.43 351.94 732.33 470.71 679.49 594.83 800.86 565.00
00085497 00000120 485.22 133.70 384.86 590.18 612.53 384.93 769.89 351.77 732.62 470.70 679.64 594.59 800.77 565.44
00085498 00000121 484.99 134.79 385.33 587.00 612.39 385.21 770.94 352.31 732.76 471.10 679.84 594.50 801.53 565.57
00085499 00000122 485.53 135.15 384.50 585.16 613.07 386.44 771.21 354.00 733.15 471.78 679.51 594.22 800.82 565.84
00085500 00000123 485.97 137.78 383.87 582.24 613.23 387.97 772.49 356.08 733.65 475.10 679.51 596.60 800.54 568.75
00085501 00000124 486.93 141.85 382.23 580.28 614.53 390.19 772.61 360.00 733.26 479.61 681.15 599.99 799.08 573.62
00085502 00000125 488.29 145.35 382.16 582.58 615.23 394.98 775.45 365.80 733.83 487.69 682.83 606.73 800.56 581.08
00085503 00000126 488.51 146.78 381.51 587.60 615.81 402.66 778.72 374.03 736.24 496.50 682.86 613.40 803.96 588.27
00085504 DELETE   488.21 153.85 381.87 590.42 618.87 417.19 779.49 391.55 736.47 507.98 681.06 621.79 803.45 599.38
00085505 DELETE   487.66 153.27 382.13 605.05 618.26 422.23 778.23 393.84 736.34 517.54 676.84 629.57 804.14 604.61
00085506 DELETE   489.45 155.81 382.20 613.55 618.56 423.85 781.57 394.66 735.77 523.19 671.79 633.07 806.98 607.12
00085507 00000130 489.86 154.78 384.79 618.42 616.75 422.66 784.95 393.86 735.78 520.94 665.64 630.03 810.35 604.52
00085508 00000131 487.58 152.72 388.66 613.50 617.24 414.92 784.26 387.22 737.30 512.90 665.04 621.19 810.57 596.63
00085509 DELETE   488.81 149.46 388.80 608.96 616.14 406.59 784.12 380.58 737.40 503.95 665.74 613.44 810.74 590.49
00085510 00000133 489.25 145.87 388.76 606.45 614.20 400.53 782.33 373.26 737.10 496.51 667.33 608.61 810.83 584.57
00085511 00000134 489.19 146.71 388.57 595.25 614.40 396.88 781.53 368.18 736.46 492.05 671.95 606.00 809.81 580.43
00085512 00000135 488.75 145.80 390.45 591.19 613.43 396.66 780.64 366.63 734.55 490.99 674.24 604.98 809.72 578.06
00085513 00000136 488.58 145.98 390.14 587.27 612.67 397.39 780.75 367.14 734.33 491.14 675.16 604.76 809.53 577.79
00085514 00000137 488.82 146.53 389.67 587.27 612.36 397.79 780.54 367.49 733.80 492.72 675.56 605.74 809.40 578.72
00085515 00000138 488.65 145.36 389.37 588.49 611.71 398.05 779.68 367.50 733.33 491.89 675.52 606.04 808.96 578.81
00085516 00000139 487.93 145.71 389.95 584.98 610.84 396.34 778.27 364.55 732.94 488.61 675.97 603.85 808.41 575.59
00085517 00000140 486.97 144.11 391.73 584.34 610.22 394.09 777.64 361.46 731.95 484.05 675.32 600.85 807.97 571.77
00085518 00000141 486.89 142.18 391.21 583.66 611.34 392.67 777.02 358.65 732.99 481.42 676.28 598.92 807.54 568.70
00085519 00000142 487.00 141.43 391.09 584.73 611.55 390.99 776.25 357.13 732.62 479.87 676.37 597.49 807.55 567.30
00085520 00000143 486.81 141.65 391.26 584.81 611.55 390.84 776.21 356.84 732.83 480.32 676.03 598.00 807.15 567.74
00085521 00000144 488.21 142.01 388.39 588.60 611.85 390.98 776.24 358.89 733.21 483.66 673.59 600.10 806.11 571.68
00085522 00000145 488.20 141.93 387.33 593.01 612.84 391.93 776.62 360.98 733.44 486.42 674.65 603.17 805.47 575.61
00085523 00000146 487.73 145.01 387.44 590.36 612.73 393.59 777.81 364.17 734.04 488.57 675.08 605.18 805.76 578.97
00085524 00000147 488.88 146.19 386.60 589.60 612.55 400.02 777.89 369.87 734.17 492.01 675.03 607.56 805.88 581.32
00085525 00000148 488.62 147.63 388.38 587.32 612.96 409.00 779.02 377.51 734.61 498.48 676.03 609.15 808.36 582.05
00085526 00000149 488.06 154.62 388.89 578.02 614.86 415.16 780.24 383.53 735.95 504.92 678.57 611.95 808.29 584.68
00085527 00000150 489.79 159.03 385.99 575.81 615.91 423.36 780.96 390.86 736.30 513.67 676.00 615.87 808.83 588.09
00085528 00000151 492.07 163.11 385.49 577.46 615.16 431.63 782.77 397.05 734.84 524.86 672.13 622.60 809.44 593.52
00085529 00000152 493.84 166.37 384.07 578.25 617.71 439.64 784.82 404.98 735.97 531.71 669.86 627.15 810.01 598.03
CROP_BBOX: 184 0 1282 1028
