Video ID: 	ySIPrr-KnJU
H: 	1080
W: 	1920
FPS: 	25.0

FRAME INDEX X0 Y0 W H [Landmarks (5 Points)]

00047370 00000000 1041.04 138.02 559.55 744.47 1126.21 391.34 1372.36 401.28 1189.64 534.25 1128.13 687.06 1337.77 696.70
00047371 00000001 1044.15 138.67 562.18 750.94 1129.11 389.54 1375.89 402.21 1188.31 534.07 1128.85 685.74 1337.91 698.31
00047372 00000002 1055.00 143.72 558.00 745.58 1131.27 387.93 1383.84 399.84 1194.13 535.67 1132.15 684.78 1347.28 696.51
00047373 00000003 1055.60 137.11 559.56 754.96 1135.39 388.96 1391.40 400.65 1201.01 535.64 1137.16 687.49 1350.44 699.48
00047374 00000004 1059.60 138.22 554.03 755.18 1139.43 388.77 1392.69 399.06 1204.50 532.14 1139.77 686.21 1354.09 696.46
00047375 00000005 1061.62 140.32 554.59 750.55 1141.77 388.34 1395.84 400.12 1208.37 530.27 1140.66 684.37 1354.08 695.57
00047376 00000006 1057.84 124.53 559.65 762.00 1143.43 400.35 1396.42 413.20 1209.00 531.39 1138.65 685.33 1354.62 697.65
00047377 00000007 1058.23 132.01 557.53 748.65 1147.47 391.09 1399.73 406.46 1215.19 527.96 1138.68 677.83 1347.79 692.07
00047378 00000008 1054.45 140.35 561.65 748.18 1146.99 398.75 1401.07 414.00 1219.23 527.90 1139.89 687.10 1349.85 701.48
00047379 00000009 1058.99 146.53 555.72 727.61 1144.49 399.41 1404.08 413.84 1223.03 529.67 1140.08 686.75 1352.51 700.26
00047380 00000010 1062.59 151.05 553.92 724.51 1145.34 391.02 1406.89 408.72 1222.81 526.21 1138.74 681.52 1358.36 697.90
00047381 00000011 1061.75 147.78 548.92 725.28 1148.64 385.28 1405.05 400.17 1224.64 524.46 1144.02 677.01 1356.56 691.27
00047382 00000012 1056.97 146.08 551.69 736.02 1153.71 384.63 1401.26 398.10 1225.88 519.21 1148.31 675.63 1345.06 688.84
00047383 00000013 1059.84 142.07 548.26 743.95 1158.67 382.68 1405.45 396.57 1232.29 517.05 1154.67 678.53 1347.67 691.88
00047384 00000014 1060.45 139.34 550.40 745.95 1157.19 377.27 1409.50 390.48 1236.96 512.91 1156.69 677.92 1348.41 690.98
00047385 00000015 1063.97 132.49 544.76 740.51 1157.26 369.50 1410.79 390.96 1236.17 509.56 1148.45 665.10 1352.62 685.17
00047386 00000016 1062.53 133.68 546.53 735.28 1158.29 368.89 1408.48 387.56 1235.88 502.20 1149.61 660.54 1344.66 678.86
00047387 00000017 1061.10 141.11 543.37 723.52 1159.74 368.43 1405.04 385.34 1237.86 502.58 1154.72 658.86 1338.79 676.02
00047388 00000018 1061.93 138.32 544.30 725.13 1159.98 372.69 1407.45 390.16 1240.34 505.19 1154.65 660.89 1341.84 678.30
00047389 DELETE   1062.88 144.69 544.17 724.31 1156.18 383.17 1405.81 392.86 1241.97 514.32 1158.36 672.31 1353.69 682.26
00047390 00000020 1062.79 148.42 547.98 722.10 1161.18 388.65 1412.50 400.74 1247.89 521.38 1163.19 677.04 1362.04 688.34
00047391 00000021 1056.74 149.23 545.77 726.76 1155.55 388.60 1405.34 395.52 1244.85 519.77 1161.18 679.75 1357.98 686.68
00047392 00000022 1054.60 136.96 530.33 726.91 1152.46 384.93 1400.27 380.98 1246.04 514.29 1169.98 673.05 1351.78 673.57
00047393 DELETE   1051.52 144.97 537.91 707.06 1148.62 379.28 1394.61 383.50 1234.22 511.42 1161.66 665.72 1345.07 671.38
00047394 00000024 1047.93 147.76 544.37 719.85 1145.25 376.45 1395.56 379.22 1231.29 511.44 1159.34 670.56 1352.73 674.52
00047395 00000025 1045.62 159.99 551.50 709.23 1147.38 379.78 1402.65 384.59 1237.21 508.63 1159.73 670.61 1361.42 675.58
00047396 00000026 1052.03 155.42 549.83 718.85 1149.59 382.19 1401.79 381.13 1238.62 512.30 1165.16 670.51 1366.20 670.40
00047397 00000027 1057.03 142.99 548.32 731.73 1155.14 382.67 1405.46 379.94 1240.03 514.40 1169.31 671.17 1376.84 669.40
00047398 00000028 1056.34 149.53 548.90 730.07 1155.36 379.48 1407.45 378.45 1242.88 519.37 1170.04 675.58 1377.76 674.80
00047399 00000029 1059.81 147.96 549.80 726.41 1156.34 377.18 1408.74 376.26 1244.77 519.87 1170.38 673.53 1376.90 673.22
00047400 00000030 1061.62 149.21 554.24 723.56 1160.43 375.33 1414.37 377.30 1248.17 517.40 1171.08 668.62 1383.53 670.58
00047401 00000031 1061.36 155.00 557.05 713.35 1166.32 370.68 1421.92 379.57 1253.23 514.03 1172.01 664.27 1382.15 672.25
00047402 00000032 1060.66 126.26 553.70 739.45 1166.16 373.61 1416.72 380.40 1256.74 504.54 1173.54 665.17 1383.45 672.57
00047403 00000033 1055.46 147.70 558.85 720.93 1164.96 371.41 1427.51 376.25 1262.98 501.49 1179.38 670.96 1388.86 675.45
00047404 00000034 1058.19 141.12 555.12 724.38 1167.00 364.96 1430.30 371.13 1271.64 493.50 1174.77 658.60 1396.64 663.31
00047405 00000035 1058.48 136.37 559.08 725.98 1170.35 359.43 1433.19 367.14 1273.43 484.69 1181.50 655.77 1399.59 661.54
00047406 00000036 1060.96 139.66 561.04 729.81 1175.57 361.05 1434.62 364.59 1271.60 481.07 1188.63 656.39 1395.11 659.30
00047407 00000037 1060.92 144.67 555.90 722.78 1174.38 360.68 1432.72 361.54 1269.89 480.48 1188.60 657.21 1399.73 657.33
00047408 00000038 1057.78 148.43 559.74 720.48 1170.67 361.47 1431.69 362.07 1268.24 480.25 1186.41 660.75 1401.82 660.41
00047409 00000039 1057.51 147.95 559.22 717.32 1170.75 360.10 1430.36 360.67 1268.87 480.24 1187.42 659.78 1397.97 659.83
00047410 00000040 1058.97 149.82 557.15 718.57 1169.55 359.89 1429.45 361.85 1266.06 482.36 1185.72 660.69 1399.38 661.67
00047411 00000041 1058.95 149.07 559.19 723.22 1169.74 360.45 1431.66 361.40 1264.67 480.70 1184.06 662.28 1405.69 662.10
00047412 00000042 1059.81 144.64 559.45 725.94 1168.08 360.85 1433.64 360.82 1268.93 481.08 1184.08 662.01 1415.08 661.15
00047413 00000043 1058.46 142.99 557.57 723.54 1167.56 359.87 1430.04 358.42 1269.81 481.62 1186.53 657.60 1411.45 655.64
00047414 00000044 1056.75 144.73 565.17 718.26 1168.80 357.45 1431.97 347.23 1278.93 482.27 1192.20 656.14 1415.28 647.85
00047415 00000045 1055.60 145.30 561.51 701.68 1168.29 358.58 1430.77 347.53 1281.10 484.32 1195.04 656.52 1408.64 647.65
00047416 00000046 1055.63 149.28 559.84 707.25 1168.14 360.73 1434.62 358.35 1274.80 479.00 1190.92 660.14 1406.11 657.71
00047417 00000047 1054.59 154.43 561.90 704.96 1169.53 359.21 1434.22 358.82 1277.15 482.52 1193.62 659.12 1407.89 658.07
00047418 00000048 1055.01 151.08 561.12 707.30 1169.58 360.65 1433.51 358.53 1276.66 480.87 1195.99 660.16 1406.55 657.67
00047419 00000049 1053.38 140.72 568.35 723.87 1170.41 361.62 1433.72 351.61 1283.20 485.09 1197.37 661.44 1414.00 652.99
00047420 00000050 1054.82 133.63 569.27 730.71 1172.26 363.21 1436.36 352.33 1283.74 484.11 1198.66 662.66 1418.10 653.77
00047421 00000051 1056.19 131.87 565.01 729.98 1175.66 361.48 1439.21 353.87 1288.32 486.43 1199.85 659.70 1419.46 653.45
00047422 00000052 1060.75 129.16 563.25 733.86 1178.32 359.59 1438.79 351.31 1288.32 487.08 1203.47 660.13 1420.49 653.27
00047423 00000053 1061.34 127.43 562.73 733.81 1179.32 360.11 1440.84 352.36 1289.55 485.51 1203.21 659.45 1420.73 653.00
00047424 00000054 1065.93 132.31 560.50 730.16 1180.28 359.32 1440.96 350.33 1290.99 485.29 1206.01 660.33 1425.10 652.63
00047425 00000055 1073.16 140.94 555.94 719.82 1185.58 355.29 1443.14 349.05 1292.47 484.76 1209.83 654.67 1427.22 649.16
00047426 00000056 1075.89 136.09 553.48 726.00 1190.06 354.16 1446.00 349.17 1296.64 482.97 1212.14 655.42 1427.23 651.43
00047427 00000057 1077.36 138.63 560.23 720.24 1190.83 355.17 1455.16 350.15 1301.09 478.82 1212.12 654.29 1434.42 649.77
00047428 00000058 1080.49 135.80 563.40 723.36 1191.85 353.16 1461.94 349.54 1301.53 475.83 1211.26 653.08 1438.47 649.70
00047429 00000059 1084.53 144.84 563.63 716.51 1197.54 353.67 1463.72 351.35 1306.24 474.88 1215.20 649.57 1441.79 647.07
00047430 00000060 1090.01 149.58 561.53 708.70 1201.16 351.90 1465.38 349.12 1307.78 472.85 1219.20 648.28 1445.04 645.21
00047431 00000061 1092.36 135.95 562.96 727.55 1202.41 352.69 1467.65 346.35 1309.90 471.74 1220.24 650.93 1449.68 644.89
00047432 00000062 1097.88 133.06 559.69 723.57 1204.27 353.95 1473.54 343.56 1314.88 469.83 1226.19 653.50 1458.03 643.85
00047433 00000063 1096.65 133.36 562.08 716.28 1205.52 353.88 1477.99 347.75 1318.87 467.13 1226.56 650.29 1456.11 644.35
00047434 00000064 1094.09 137.64 561.96 711.92 1208.58 355.20 1475.08 350.73 1317.78 463.31 1225.47 645.33 1449.94 641.15
00047435 00000065 1095.32 139.28 562.34 703.50 1211.57 361.35 1474.31 358.45 1317.72 463.35 1225.16 639.80 1449.47 637.10
00047436 00000066 1093.95 146.26 562.45 699.95 1213.13 360.79 1471.87 359.83 1316.48 465.40 1224.32 636.99 1447.78 635.54
00047437 00000067 1098.16 136.27 556.75 707.87 1211.45 360.77 1474.37 358.64 1317.59 463.90 1221.37 642.51 1444.41 640.94
00047438 00000068 1097.61 143.20 552.90 710.97 1223.69 355.47 1480.98 362.37 1319.36 445.88 1222.46 640.78 1432.94 648.88
00047439 00000069 1091.55 133.46 563.50 708.96 1219.42 346.54 1489.83 353.30 1328.81 432.60 1226.48 640.96 1442.41 648.23
00047440 00000070 1095.18 125.93 563.79 693.66 1228.67 333.15 1500.61 347.80 1339.72 420.48 1218.90 618.40 1468.51 631.46
00047441 00000071 1097.04 117.80 571.56 700.66 1241.63 333.29 1506.55 343.39 1348.51 407.39 1230.17 610.36 1466.83 620.80
00047442 00000072 1098.23 122.50 566.24 701.38 1250.37 329.47 1507.72 341.82 1361.67 411.25 1248.81 614.66 1456.53 626.70
00047443 00000073 1097.68 119.33 572.54 698.02 1255.04 323.35 1516.21 346.58 1369.49 409.83 1248.46 614.02 1455.70 635.37
00047444 00000074 1094.55 101.79 579.73 724.48 1253.37 324.16 1519.06 344.70 1362.05 405.15 1228.54 600.84 1468.03 619.92
00047445 00000075 1103.80 127.06 564.45 686.51 1250.37 317.13 1507.61 344.67 1357.80 404.50 1234.18 586.96 1451.39 609.01
00047446 00000076 1102.98 117.36 569.10 693.73 1251.98 313.40 1507.08 346.13 1352.10 401.22 1228.84 581.85 1441.32 608.88
00047447 00000077 1113.79 122.75 559.43 684.88 1257.58 312.44 1510.29 346.63 1352.43 404.39 1229.86 582.52 1440.90 610.95
00047448 00000078 1115.44 128.48 555.62 681.60 1260.71 320.68 1520.16 350.82 1357.07 407.46 1231.24 588.49 1451.24 614.63
00047449 00000079 1116.47 132.73 558.37 685.12 1265.31 319.06 1522.47 352.04 1366.16 410.79 1235.16 592.80 1450.79 621.28
00047450 00000080 1115.12 129.37 558.41 693.28 1270.94 322.32 1519.42 355.84 1370.63 407.52 1239.99 592.44 1447.76 621.14
00047451 00000081 1118.58 133.09 559.49 679.97 1273.02 322.93 1529.02 356.14 1378.27 403.79 1242.89 593.35 1455.99 622.37
00047452 00000082 1125.68 124.18 563.85 688.37 1282.85 323.12 1530.55 357.72 1380.01 402.33 1249.54 586.34 1451.51 617.77
00047453 00000083 1119.15 130.43 559.94 677.53 1274.89 323.11 1527.84 361.48 1376.14 406.62 1242.36 590.94 1450.34 624.34
00047454 00000084 1118.65 127.33 550.98 672.50 1270.16 325.27 1518.69 360.50 1373.22 412.38 1248.56 583.74 1451.09 613.75
00047455 00000085 1114.04 136.36 557.98 677.52 1259.80 324.35 1517.90 356.11 1359.74 413.75 1235.86 586.89 1454.70 613.62
00047456 00000086 1113.30 129.83 555.22 676.55 1259.97 326.58 1510.82 353.83 1353.70 411.14 1237.04 585.51 1442.03 609.24
00047457 00000087 1107.04 130.01 568.41 678.48 1263.48 330.50 1512.84 350.55 1349.58 403.87 1233.26 590.87 1444.82 610.84
00047458 00000088 1098.00 106.36 577.12 689.58 1250.37 327.04 1507.43 347.34 1343.54 393.97 1221.92 587.78 1449.91 608.05
00047459 00000089 1097.64 99.49 570.64 696.89 1241.27 326.17 1501.25 343.64 1337.21 398.37 1218.34 595.00 1445.97 612.94
00047460 00000090 1090.89 107.75 570.86 693.37 1243.03 327.15 1480.63 340.69 1328.84 404.47 1229.89 597.55 1409.90 612.60
00047461 00000091 1093.02 101.12 571.04 722.80 1237.51 328.70 1487.27 341.91 1323.44 407.17 1218.14 610.70 1418.21 625.73
00047462 00000092 1093.97 94.64 567.05 713.23 1236.03 333.10 1486.08 350.23 1325.21 416.10 1213.84 601.30 1423.71 619.46
00047463 00000093 1094.43 86.64 572.31 720.66 1233.60 332.78 1490.48 353.89 1321.84 418.47 1204.62 598.44 1433.68 619.40
00047464 00000094 1096.86 92.62 571.03 719.37 1236.62 334.28 1490.28 350.94 1322.41 417.46 1212.85 602.48 1428.41 620.09
00047465 00000095 1096.64 95.55 567.05 714.58 1236.63 331.89 1485.92 348.19 1323.74 416.94 1220.52 603.78 1421.28 621.35
00047466 00000096 1095.77 94.40 570.89 728.33 1235.02 333.36 1491.45 349.45 1324.96 417.72 1218.23 610.29 1429.73 627.50
00047467 00000097 1095.25 90.05 572.66 734.09 1235.21 331.49 1495.13 351.16 1328.75 421.08 1217.74 612.96 1431.54 632.55
00047468 00000098 1100.04 105.53 569.54 724.03 1239.33 333.06 1497.21 350.74 1331.18 421.65 1220.68 613.64 1438.19 631.55
00047469 00000099 1104.32 106.13 564.66 717.91 1246.41 338.03 1497.27 356.85 1337.48 425.42 1224.61 605.94 1439.89 624.20
00047470 00000100 1101.64 102.13 569.98 720.62 1246.61 343.89 1495.34 361.37 1338.05 428.61 1225.91 602.33 1447.18 618.23
00047471 00000101 1101.29 103.07 572.35 728.47 1248.24 347.88 1496.17 366.86 1340.15 432.32 1229.41 610.40 1442.78 627.51
00047472 00000102 1101.72 97.60 573.13 740.32 1247.34 339.65 1498.99 357.85 1336.99 428.97 1226.74 616.17 1440.74 633.18
00047473 00000103 1103.36 106.18 568.36 739.48 1247.62 338.23 1499.86 353.99 1334.32 422.83 1225.92 618.67 1438.23 634.55
00047474 00000104 1100.34 103.54 570.63 739.47 1243.77 338.32 1500.38 351.28 1336.44 418.23 1228.38 622.63 1440.32 636.15
00047475 00000105 1097.58 86.28 573.42 738.57 1235.05 342.31 1504.74 356.74 1337.59 417.96 1218.17 614.40 1460.97 628.49
00047476 00000106 1094.70 86.09 575.56 743.52 1235.92 336.67 1504.17 354.14 1335.44 420.78 1212.97 611.77 1456.21 628.28
00047477 00000107 1092.35 89.60 573.83 735.61 1232.37 337.79 1494.03 353.25 1327.01 416.72 1216.33 615.20 1438.84 630.86
00047478 00000108 1088.50 96.12 571.80 733.78 1231.46 333.56 1483.98 351.91 1318.96 419.35 1207.26 617.40 1411.65 636.55
00047479 00000109 1086.89 88.17 565.46 722.75 1221.74 330.85 1471.32 347.80 1305.02 420.11 1193.19 598.48 1407.52 616.70
00047480 00000110 1086.43 81.08 565.97 733.26 1217.57 329.11 1466.77 348.82 1302.05 424.66 1193.38 599.16 1406.46 619.56
00047481 00000111 1083.49 84.36 573.24 734.67 1218.88 333.54 1471.18 352.84 1299.99 419.93 1189.05 612.03 1398.29 632.31
00047482 00000112 1086.04 90.68 567.85 737.98 1219.28 337.00 1472.22 357.01 1301.22 432.58 1196.31 619.49 1402.44 640.11
00047483 00000113 1085.69 95.54 570.46 741.03 1221.43 340.93 1473.26 359.44 1306.34 437.69 1203.50 624.65 1405.93 644.05
00047484 00000114 1089.96 93.97 566.10 739.26 1220.47 342.11 1476.86 356.78 1307.83 437.58 1205.32 621.86 1416.69 637.43
00047485 00000115 1090.72 90.96 566.86 745.50 1215.79 341.97 1482.29 361.05 1307.31 440.28 1197.28 624.88 1429.38 643.21
00047486 00000116 1092.29 94.76 565.33 738.17 1218.46 342.83 1482.02 364.98 1308.20 443.23 1197.59 618.81 1431.87 639.38
00047487 00000117 1092.58 100.55 565.25 731.73 1217.72 345.16 1483.15 363.94 1309.58 443.94 1200.22 621.00 1431.04 638.43
00047488 00000118 1091.52 110.33 561.08 716.91 1220.88 342.84 1482.35 358.09 1313.03 433.53 1209.41 622.44 1422.52 638.05
00047489 00000119 1088.35 95.30 566.84 745.04 1226.73 333.16 1474.51 347.98 1307.80 427.96 1210.50 622.48 1401.93 639.39
00047490 00000120 1084.98 96.04 571.48 732.79 1215.63 336.12 1471.82 351.48 1300.47 422.64 1193.09 621.98 1401.62 638.85
00047491 00000121 1086.01 73.75 569.52 745.08 1211.08 332.75 1468.65 344.96 1295.72 421.38 1192.66 609.81 1411.41 623.58
00047492 00000122 1084.69 81.08 565.88 726.55 1210.69 331.63 1462.68 346.64 1296.76 421.18 1193.19 608.39 1404.86 624.58
00047493 00000123 1079.90 86.67 573.85 747.45 1206.24 336.51 1462.36 345.95 1290.43 419.12 1192.35 620.07 1397.44 632.17
00047494 00000124 1078.25 89.48 571.53 748.88 1204.97 340.03 1458.68 351.34 1285.17 429.14 1189.48 622.21 1393.72 635.52
00047495 00000125 1071.87 101.10 566.10 740.46 1193.30 340.93 1445.30 356.85 1281.46 440.45 1183.24 624.99 1393.69 638.60
00047496 00000126 1064.68 100.68 561.39 734.52 1182.37 349.07 1432.73 364.10 1269.00 450.33 1171.53 628.04 1377.45 641.30
00047497 00000127 1061.49 110.23 557.34 721.14 1171.13 354.21 1423.99 366.95 1256.30 461.15 1163.91 629.51 1372.28 640.47
00047498 00000128 1056.60 111.26 561.18 728.92 1162.44 353.84 1419.98 365.85 1247.45 471.87 1155.90 633.55 1368.77 644.24
00047499 00000129 1058.20 110.96 556.55 732.49 1157.54 361.22 1412.64 366.14 1241.69 483.33 1158.35 640.11 1370.59 645.66
00047500 00000130 1059.69 123.60 551.93 711.91 1150.94 362.51 1402.15 362.53 1233.45 483.93 1160.50 637.62 1371.11 638.16
00047501 DELETE   1055.05 116.83 551.77 712.14 1148.52 359.54 1393.54 360.62 1225.35 477.67 1157.13 634.77 1359.04 636.06
00047502 00000132 1042.57 117.61 556.75 711.93 1142.83 355.70 1387.03 357.75 1212.55 461.80 1139.83 632.80 1340.99 635.01
00047503 00000133 1043.16 111.51 557.41 720.55 1139.59 354.77 1386.71 355.82 1209.91 459.96 1136.76 633.92 1343.35 635.27
00047504 00000134 1044.69 115.78 556.67 716.70 1142.18 354.75 1389.90 355.89 1215.89 463.59 1142.06 637.06 1345.16 638.45
00047505 00000135 1046.93 118.43 554.04 715.03 1145.95 359.14 1388.31 356.07 1218.84 467.39 1148.81 642.53 1343.30 640.64
00047506 00000136 1047.61 115.94 561.07 727.78 1150.60 356.70 1395.51 356.94 1224.50 474.15 1153.92 642.72 1354.89 643.25
00047507 00000137 1050.35 120.94 560.99 724.26 1147.76 359.62 1392.31 358.77 1221.68 480.39 1153.87 645.31 1356.22 644.80
00047508 00000138 1047.72 126.54 557.15 712.80 1142.34 362.20 1390.09 359.89 1221.29 481.00 1151.35 645.56 1355.14 643.61
00047509 00000139 1050.99 126.11 551.93 714.30 1138.42 365.92 1386.52 362.21 1216.61 483.94 1148.88 648.26 1356.16 645.56
00047510 00000140 1051.29 123.25 553.31 716.54 1137.54 366.91 1385.19 364.48 1213.88 486.09 1148.00 646.32 1357.78 644.76
00047511 00000141 1050.85 122.96 553.42 720.49 1135.08 367.71 1385.33 365.85 1213.35 489.84 1144.92 643.58 1364.50 642.66
00047512 00000142 1051.57 125.40 555.17 721.42 1135.14 367.75 1388.56 367.89 1214.05 491.90 1142.04 641.76 1367.68 642.51
00047513 00000143 1051.51 128.21 559.67 721.18 1134.05 362.49 1391.79 363.79 1215.04 492.60 1142.30 640.14 1370.35 641.54
00047514 00000144 1052.56 129.57 560.06 723.62 1133.79 363.36 1390.48 363.17 1214.85 495.17 1143.74 641.03 1373.80 640.74
00047515 00000145 1051.83 128.66 559.58 726.71 1134.56 360.64 1392.36 363.20 1215.99 495.07 1141.30 638.28 1373.92 640.28
00047516 00000146 1054.28 131.79 558.08 721.81 1136.29 359.19 1393.73 362.88 1217.85 494.65 1143.18 636.58 1375.49 639.64
00047517 00000147 1053.94 130.18 554.90 726.14 1137.86 357.72 1396.63 361.36 1222.39 494.34 1143.70 636.74 1378.21 639.92
00047518 00000148 1055.54 143.31 556.42 717.25 1139.13 354.51 1399.93 358.48 1224.32 493.33 1143.88 634.61 1381.12 637.95
00047519 00000149 1053.61 126.78 556.36 738.01 1137.47 355.84 1402.25 360.59 1222.94 494.74 1139.62 636.19 1384.03 640.86
00047520 00000150 1053.93 125.84 555.17 734.88 1137.80 355.49 1401.94 361.11 1223.06 495.36 1140.42 635.91 1380.61 641.61
00047521 00000151 1051.46 130.49 557.16 743.22 1137.93 355.06 1399.59 359.10 1221.62 492.21 1138.81 634.59 1382.45 638.43
00047522 00000152 1052.43 129.89 554.36 737.51 1136.57 354.52 1396.84 356.23 1221.73 491.06 1140.34 634.50 1380.25 636.31
00047523 00000153 1050.26 123.16 555.89 747.78 1135.12 357.87 1396.15 355.55 1219.85 488.35 1137.62 636.45 1379.22 634.84
00047524 00000154 1052.46 121.29 540.66 743.09 1133.29 361.20 1389.05 352.88 1217.52 481.64 1140.89 640.44 1373.76 634.31
00047525 00000155 1048.73 129.95 537.81 729.70 1128.09 358.25 1380.81 342.45 1215.16 479.01 1146.18 644.51 1370.38 632.04
00047526 00000156 1044.22 129.05 535.75 720.04 1122.38 361.19 1369.22 340.05 1213.88 476.93 1146.55 644.35 1362.63 626.68
00047527 00000157 1042.36 133.71 543.35 718.67 1120.85 356.30 1370.47 336.26 1213.52 472.35 1146.33 640.47 1365.63 623.04
00047528 00000158 1031.80 130.31 541.59 717.34 1117.41 364.16 1368.82 340.95 1210.81 464.43 1141.23 640.74 1349.40 622.75
00047529 00000159 1024.24 128.69 545.67 721.47 1113.20 367.93 1365.96 342.52 1209.76 461.37 1138.09 642.72 1349.93 622.85
00047530 00000160 1022.58 131.84 550.95 722.83 1112.90 361.96 1362.54 344.73 1202.74 460.33 1129.72 640.16 1347.62 623.97
00047531 00000161 1018.86 135.18 549.47 725.45 1108.15 362.12 1356.76 342.59 1202.91 463.72 1124.75 636.86 1354.12 617.59
00047532 00000162 1022.44 133.08 538.56 719.43 1104.60 358.90 1356.33 340.94 1204.00 462.35 1119.81 634.44 1352.94 617.40
