Video ID: 	Ab0F7bgh_lY
H: 	1080
W: 	1920
FPS: 	25.0

FRAME INDEX X0 Y0 W H [Landmarks (5 Points)]

00004161 00000000 838.32 218.07 455.71 636.19 944.41 474.48 1150.55 500.64 1021.79 639.24 938.88 685.99 1127.97 706.97
00004162 00000001 835.35 215.62 459.24 640.05 942.41 474.03 1150.65 500.85 1021.03 639.52 936.66 686.05 1128.02 707.63
00004163 DELETE   832.14 217.49 462.32 635.63 942.12 476.50 1153.28 500.37 1025.70 642.11 939.44 686.48 1132.76 705.92
00004164 00000003 831.01 219.68 462.92 634.38 943.18 478.99 1155.78 500.16 1030.51 644.38 941.87 688.66 1136.17 706.05
00004165 00000004 829.81 220.78 463.75 634.35 940.25 479.15 1154.44 499.84 1027.71 644.80 940.03 689.20 1136.65 706.23
00004166 DELETE   827.05 219.64 461.31 636.51 934.70 478.94 1150.07 503.04 1019.11 644.46 934.20 689.92 1130.11 709.63
00004167 00000006 827.74 218.78 461.65 639.29 932.07 473.50 1146.80 505.26 1008.15 646.79 927.26 687.00 1122.24 712.68
00004168 00000007 828.19 219.23 462.19 638.72 931.52 471.32 1144.86 505.61 1004.31 646.37 923.98 684.56 1119.43 712.14
00004169 00000008 828.87 216.38 462.50 641.28 932.23 473.67 1146.38 505.83 1007.16 647.11 928.22 686.99 1123.09 712.82
00004170 00000009 830.93 218.95 459.06 641.69 935.86 478.47 1150.67 504.35 1016.89 645.19 934.10 690.89 1130.11 711.90
00004171 DELETE   831.21 216.20 467.48 645.51 939.94 480.65 1153.95 503.07 1023.21 645.15 940.61 693.66 1135.16 711.79
00004172 00000011 836.11 207.30 470.77 657.26 941.17 472.74 1156.08 495.57 1024.38 640.68 944.48 693.37 1129.23 714.03
00004173 DELETE   833.97 215.28 467.33 649.14 940.86 479.33 1153.58 504.03 1020.90 644.97 939.61 693.43 1133.97 713.26
00004174 00000013 835.08 214.79 467.71 649.96 941.02 478.46 1153.43 504.03 1019.43 645.03 939.89 693.13 1134.11 713.52
00004175 DELETE   841.95 206.73 467.45 657.51 941.54 472.10 1156.04 497.20 1021.09 642.00 945.51 691.76 1130.18 714.32
00004176 00000015 841.46 206.13 470.33 657.82 945.17 472.88 1164.43 497.57 1029.41 643.67 948.72 693.45 1134.46 715.66
00004177 00000016 843.96 211.48 474.31 652.91 947.00 473.35 1169.76 496.83 1033.16 650.16 954.12 694.37 1143.15 716.18
00004178 00000017 849.43 209.41 473.28 655.52 952.81 474.02 1174.93 500.14 1037.98 653.18 956.29 690.33 1151.00 714.43
00004179 DELETE   853.12 208.44 469.79 657.25 955.57 474.85 1177.39 502.11 1041.06 653.84 957.52 689.18 1154.98 714.13
00004180 00000019 855.35 210.65 469.48 658.43 958.70 478.66 1182.37 506.36 1044.72 656.16 960.90 693.48 1157.99 718.81
00004181 00000020 854.09 213.04 472.90 660.65 964.18 484.69 1189.02 508.82 1052.16 657.35 965.59 698.67 1162.61 720.91
00004182 DELETE   854.08 219.16 473.48 654.38 970.57 485.90 1194.19 509.45 1061.14 658.45 970.82 698.49 1167.15 720.10
00004183 00000022 857.44 223.13 474.39 647.21 974.60 487.61 1200.40 509.91 1068.83 659.01 974.25 700.52 1169.68 721.04
00004184 00000023 859.05 217.88 477.38 653.19 977.94 486.31 1206.50 508.82 1074.34 661.02 976.33 699.69 1174.18 720.57
00004185 00000024 860.08 215.46 479.83 653.31 979.62 485.21 1208.32 506.12 1077.36 659.91 979.15 700.10 1174.33 719.50
00004186 00000025 862.34 212.93 480.41 652.66 980.07 485.81 1209.61 505.81 1077.05 657.67 984.65 705.61 1171.03 723.83
00004187 00000026 864.96 205.61 480.76 657.97 981.16 484.51 1212.03 504.46 1078.90 654.89 987.15 709.95 1166.56 727.70
00004188 00000027 865.09 201.94 485.08 661.67 981.72 481.40 1215.27 501.61 1081.58 653.94 989.75 712.06 1167.49 729.71
00004189 00000028 866.62 201.56 485.74 661.20 982.70 481.49 1217.87 499.90 1084.28 652.84 993.23 715.11 1168.23 731.31
00004190 00000029 865.73 201.76 487.94 663.25 983.20 480.41 1218.29 498.84 1085.18 651.18 993.12 715.68 1166.98 732.02
00004191 00000030 867.65 204.77 486.03 661.00 984.02 479.04 1217.97 497.53 1086.48 650.20 994.40 714.16 1168.88 730.32
00004192 00000031 869.99 195.25 484.64 668.09 986.85 479.78 1219.39 496.48 1088.64 646.91 996.23 714.78 1168.71 729.43
00004193 00000032 872.12 192.50 482.65 668.28 988.99 480.62 1219.01 497.31 1088.60 644.45 996.51 714.43 1166.82 728.99
00004194 00000033 874.29 197.62 481.33 665.65 987.29 477.58 1215.96 495.45 1084.57 642.79 995.67 713.44 1165.47 728.92
00004195 00000034 873.98 192.44 482.79 673.81 987.57 475.87 1214.79 494.48 1082.04 639.64 992.07 707.87 1167.09 723.91
00004196 00000035 876.12 197.08 480.51 668.22 986.94 474.19 1215.19 494.27 1080.59 640.03 990.86 702.50 1174.33 719.64
00004197 00000036 877.35 201.98 478.08 660.10 988.51 474.68 1215.64 494.75 1082.60 639.99 990.01 697.29 1176.83 714.51
00004198 00000037 877.05 200.79 478.78 660.78 987.78 474.77 1215.98 493.90 1082.32 640.20 990.42 698.70 1176.52 715.21
00004199 00000038 875.79 199.35 479.28 663.18 984.26 473.73 1212.84 494.94 1076.52 640.25 987.08 700.49 1170.82 718.65
00004200 00000039 874.81 194.76 477.93 666.13 979.26 472.99 1206.48 496.58 1068.04 640.79 981.38 699.21 1165.33 719.47
00004201 00000040 871.22 197.06 480.33 665.69 973.72 469.52 1200.02 495.67 1059.55 637.81 975.57 695.81 1161.35 718.24
00004202 00000041 868.41 200.41 482.52 666.43 970.98 466.03 1198.33 494.20 1054.26 637.79 974.02 695.01 1161.53 719.13
00004203 00000042 866.76 198.97 482.61 668.98 970.04 464.58 1198.36 490.22 1055.24 636.51 974.42 696.44 1162.02 718.47
00004204 00000043 865.18 201.14 482.54 658.40 970.40 465.75 1199.14 489.58 1058.43 634.93 975.05 693.62 1161.02 714.34
00004205 00000044 864.05 200.73 480.74 658.70 964.31 466.82 1192.66 489.67 1052.03 636.44 972.18 697.72 1154.57 717.83
00004206 00000045 864.65 207.34 473.08 656.23 958.38 465.88 1183.85 489.63 1044.90 634.37 968.21 700.46 1147.04 721.62
00004207 00000046 860.57 205.87 473.95 659.91 953.83 467.43 1180.13 488.17 1043.05 638.40 966.33 704.80 1143.26 723.60
00004208 00000047 859.11 209.15 471.87 654.75 953.21 468.55 1179.45 487.59 1044.24 638.23 966.74 705.25 1143.78 722.70
00004209 00000048 858.82 210.76 470.18 651.69 954.54 469.46 1181.09 486.47 1046.79 637.14 969.82 706.04 1145.87 721.73
00004210 00000049 858.51 208.56 469.56 654.64 953.78 469.64 1180.12 483.91 1047.45 635.62 970.88 706.97 1146.92 720.38
00004211 00000050 855.36 205.19 471.66 661.67 950.00 467.02 1175.46 482.37 1043.40 634.33 967.42 708.71 1141.92 723.14
00004212 00000051 849.20 204.73 472.87 667.31 945.98 464.68 1168.54 480.59 1037.28 632.88 959.48 705.28 1138.45 720.35
00004213 00000052 849.31 201.73 471.30 672.74 944.38 462.08 1166.50 481.17 1031.38 633.71 954.30 701.64 1139.54 719.31
00004214 00000053 848.02 193.21 475.27 678.70 947.69 466.44 1167.05 484.02 1034.59 638.05 954.43 700.55 1144.97 715.96
00004215 00000054 846.81 193.12 476.22 680.60 948.47 464.99 1169.19 481.95 1037.48 637.73 955.62 700.60 1147.58 715.60
00004216 00000055 845.62 196.73 473.40 681.49 947.75 461.26 1172.51 478.67 1040.53 635.53 956.28 700.20 1149.44 716.08
00004217 00000056 846.49 199.95 470.42 667.35 949.50 461.25 1174.99 477.37 1045.22 636.71 958.58 693.48 1153.51 708.34
00004218 00000057 844.84 198.44 469.06 661.54 948.20 462.29 1175.04 475.69 1045.20 636.17 959.39 692.43 1153.23 705.27
00004219 00000058 840.85 195.73 471.35 662.23 943.04 463.19 1169.80 477.34 1038.27 637.96 954.77 694.00 1146.38 707.49
00004220 00000059 839.50 201.01 469.27 656.75 941.39 462.33 1164.79 478.66 1033.07 633.03 948.07 690.13 1137.59 705.69
00004221 00000060 839.65 199.28 467.48 658.39 941.41 463.63 1163.91 479.21 1032.36 632.72 949.04 691.48 1135.71 706.45
00004222 00000061 842.30 195.44 465.50 659.18 943.35 465.11 1166.91 478.46 1037.36 634.26 955.57 693.94 1140.69 707.00
00004223 00000062 843.66 195.38 465.15 659.23 945.34 466.11 1172.18 476.23 1044.61 635.86 960.42 697.95 1146.23 708.31
00004224 00000063 845.85 205.74 464.45 651.15 947.04 467.03 1172.84 477.10 1044.42 635.03 962.16 699.53 1143.09 710.11
00004225 00000064 846.39 205.27 462.33 656.08 946.05 467.73 1168.73 479.53 1041.02 633.76 960.66 700.39 1139.41 712.18
00004226 00000065 846.52 205.16 461.13 658.67 945.44 466.68 1166.10 479.58 1038.11 632.81 958.94 699.06 1138.21 711.76
00004227 00000066 845.38 204.10 463.32 663.31 945.30 465.48 1165.69 479.98 1036.96 634.24 956.36 697.51 1140.83 711.40
00004228 00000067 845.10 204.05 466.19 668.93 945.83 462.16 1165.99 479.09 1036.30 632.77 953.69 695.43 1143.56 711.03
00004229 00000068 845.77 205.10 468.70 667.12 946.16 461.03 1168.04 478.28 1037.19 632.58 954.66 695.99 1145.93 711.86
00004230 00000069 847.77 210.39 466.23 656.86 949.11 462.49 1171.47 479.48 1041.39 635.78 956.82 693.10 1147.78 709.07
00004231 00000070 850.46 210.87 468.76 651.17 953.62 464.34 1177.06 481.56 1046.19 637.78 961.70 691.55 1149.96 707.81
00004232 00000071 852.87 212.21 469.30 645.79 956.30 466.26 1181.99 482.48 1049.17 636.35 965.06 690.02 1154.14 705.47
00004233 00000072 854.00 211.72 470.37 646.36 959.25 465.94 1184.66 482.94 1051.84 634.61 966.43 689.41 1155.41 705.44
00004234 00000073 854.55 210.47 470.38 650.40 959.37 465.47 1184.47 482.50 1052.22 634.31 966.88 689.89 1156.62 705.78
00004235 00000074 854.55 211.82 469.49 650.31 957.66 465.94 1181.85 482.84 1049.88 635.46 966.73 692.18 1154.13 707.96
00004236 00000075 854.07 211.86 469.12 650.48 957.51 465.73 1180.87 482.86 1049.25 634.48 966.09 692.55 1152.33 708.51
00004237 00000076 854.09 213.33 469.70 648.57 958.84 466.23 1183.91 483.03 1051.50 635.11 967.23 691.91 1155.34 707.67
00004238 00000077 854.88 206.83 467.27 654.82 962.61 466.58 1188.38 483.97 1056.79 636.82 968.48 690.54 1160.43 706.75
00004239 00000078 855.00 203.60 467.70 661.83 965.03 467.86 1192.00 484.68 1060.63 639.97 969.88 691.06 1165.31 706.82
00004240 00000079 854.05 204.73 469.58 662.63 965.61 469.76 1190.58 486.97 1060.98 640.60 970.79 693.42 1163.47 709.24
00004241 00000080 854.39 208.87 471.62 658.73 966.34 472.08 1190.46 488.82 1061.28 641.17 971.28 694.58 1161.74 710.08
00004242 00000081 855.06 209.70 472.80 658.63 966.40 471.31 1190.48 490.33 1060.29 642.80 970.81 694.82 1160.59 712.22
00004243 00000082 855.08 207.44 474.88 661.88 968.33 472.33 1193.70 490.61 1062.74 643.07 971.22 694.28 1162.50 711.15
00004244 00000083 855.97 203.77 472.87 665.72 970.00 473.93 1196.28 489.97 1066.78 642.88 974.66 696.31 1166.51 711.25
00004245 00000084 856.53 209.24 474.20 660.61 970.31 472.84 1197.86 489.66 1066.50 644.66 975.40 696.35 1167.74 712.06
00004246 00000085 855.91 209.09 475.89 661.31 970.15 472.31 1198.26 489.94 1065.90 644.92 973.98 695.82 1167.70 712.21
00004247 00000086 855.52 204.87 477.98 665.70 970.64 474.27 1197.87 491.16 1066.60 643.50 973.61 695.44 1168.16 711.01
00004248 00000087 856.22 203.02 477.94 667.61 970.36 473.96 1198.08 489.66 1067.06 644.10 975.49 697.66 1167.41 712.17
00004249 00000088 856.30 198.37 478.75 674.09 970.60 474.59 1198.75 489.93 1067.68 644.95 975.33 698.45 1168.18 712.57
00004250 00000089 855.87 202.93 480.41 670.37 970.74 473.11 1198.06 489.44 1066.59 644.57 975.28 697.28 1168.51 712.20
00004251 00000090 855.24 205.99 480.60 668.63 969.18 471.89 1195.81 489.11 1064.02 645.10 973.57 696.27 1168.33 711.99
00004252 00000091 854.56 210.04 480.58 663.81 965.45 470.20 1192.99 488.43 1059.19 645.80 970.57 695.77 1166.24 712.47
00004253 00000092 853.45 210.49 477.29 660.05 962.54 470.32 1186.31 491.86 1053.62 646.44 966.07 693.23 1160.14 712.79
00004254 00000093 850.93 204.24 477.68 665.91 956.00 472.48 1181.05 491.93 1046.85 641.51 965.52 703.22 1149.05 720.68
00004255 00000094 853.91 201.62 476.63 668.70 954.26 476.41 1180.88 493.20 1047.60 645.18 970.04 715.78 1144.51 731.05
00004256 00000095 855.68 205.49 475.04 666.88 955.12 474.19 1182.47 489.78 1049.75 641.75 976.30 721.19 1144.81 735.46
00004257 00000096 855.74 204.91 477.35 673.17 956.87 474.38 1182.25 490.02 1050.71 639.42 977.81 722.25 1145.33 736.38
00004258 00000097 853.45 198.51 477.26 680.50 960.35 474.26 1188.86 498.34 1053.60 645.69 973.03 717.51 1153.16 737.84
00004259 00000098 851.94 204.31 478.36 676.27 952.77 474.33 1179.27 488.80 1047.42 641.49 971.67 719.83 1146.50 733.05
00004260 00000099 849.22 202.20 481.58 677.03 952.45 471.70 1180.03 485.76 1047.95 640.94 968.59 715.12 1147.88 728.16
00004261 00000100 848.76 202.57 478.26 674.86 953.11 470.43 1180.94 483.96 1050.09 641.28 968.65 713.05 1149.47 725.79
00004262 00000101 848.69 199.35 476.61 675.45 955.41 470.41 1183.67 483.78 1053.64 640.17 969.34 709.98 1154.27 722.40
00004263 00000102 851.43 197.37 475.11 674.49 959.03 469.99 1186.33 483.15 1056.79 638.65 970.38 704.39 1158.79 716.74
00004264 00000103 849.69 196.92 478.15 675.85 963.79 472.37 1192.28 484.07 1062.46 642.06 972.46 699.82 1165.54 711.03
00004265 00000104 851.71 200.25 476.76 672.40 967.65 474.06 1197.03 483.13 1069.59 642.16 978.94 702.00 1168.92 711.00
00004266 00000105 853.73 204.55 477.60 669.41 967.55 473.71 1195.85 484.54 1067.27 639.70 980.61 705.45 1165.10 715.64
00004267 00000106 855.81 205.78 478.17 667.99 965.89 473.72 1194.45 489.29 1062.64 641.18 979.03 708.76 1158.54 722.75
00004268 00000107 857.57 201.46 477.25 673.81 965.70 474.93 1193.43 492.35 1061.27 642.89 978.16 710.42 1156.83 725.71
00004269 00000108 858.25 199.46 477.09 675.11 968.45 475.33 1197.11 491.93 1064.91 643.74 979.90 710.23 1159.64 724.94
00004270 00000109 858.18 193.54 479.90 682.03 972.56 476.24 1205.33 494.20 1070.75 648.15 980.97 710.34 1164.21 726.35
00004271 00000110 858.73 198.96 481.97 674.14 977.68 481.87 1207.68 497.61 1076.12 650.58 984.79 710.72 1166.59 724.95
00004272 00000111 857.54 201.52 484.78 670.09 979.49 482.21 1210.95 496.98 1081.15 650.85 988.07 710.85 1169.86 724.14
00004273 00000112 858.33 202.86 484.49 670.32 980.06 484.14 1212.73 498.17 1083.25 652.82 987.79 711.93 1172.11 724.79
00004274 00000113 858.73 208.92 485.73 665.43 980.69 486.20 1212.83 501.10 1083.84 655.07 989.44 713.55 1172.77 726.97
00004275 00000114 860.66 222.17 471.49 653.25 984.19 494.90 1212.02 514.65 1084.99 658.34 989.00 714.97 1178.48 732.11
00004276 00000115 860.05 226.67 471.57 648.73 984.87 495.94 1211.87 514.53 1085.60 659.12 988.74 714.97 1177.90 731.40
00004277 00000116 857.13 218.87 471.85 659.10 983.56 498.16 1211.38 516.63 1084.91 662.43 987.09 716.75 1177.92 732.90
00004278 00000117 859.75 217.68 466.19 660.37 982.22 498.11 1211.02 514.76 1085.31 663.79 987.44 718.29 1179.71 732.93
00004279 00000118 859.41 213.74 462.00 664.95 979.49 499.80 1210.41 515.06 1083.23 667.41 986.87 718.46 1181.46 731.81
00004280 00000119 853.39 209.97 468.69 669.15 972.09 493.95 1201.93 508.72 1072.42 664.70 981.70 718.12 1170.90 732.21
00004281 00000120 852.94 214.93 466.91 662.62 967.05 493.39 1196.37 509.26 1064.88 666.62 978.64 716.89 1168.73 732.01
00004282 00000121 848.67 229.43 455.52 650.92 967.06 506.18 1185.20 518.70 1063.04 667.88 977.29 720.56 1165.21 730.49
00004283 00000122 845.84 227.44 455.85 649.25 963.45 505.21 1181.97 517.27 1059.87 665.82 976.00 720.01 1162.47 729.51
00004284 00000123 843.27 231.14 456.15 644.32 960.81 503.73 1180.39 514.95 1059.07 665.34 974.08 719.93 1160.71 729.02
00004285 00000124 840.72 227.71 458.09 646.79 957.85 501.73 1177.16 510.90 1057.66 664.49 972.41 719.40 1159.50 726.96
00004286 00000125 835.35 221.04 462.90 651.74 954.29 497.53 1174.96 505.86 1057.39 662.05 969.28 716.19 1159.35 723.11
00004287 00000126 828.34 218.22 468.75 652.13 949.13 494.15 1172.67 502.24 1055.02 661.20 965.86 715.24 1158.01 722.05
00004288 00000127 827.50 220.85 465.98 649.81 945.27 493.30 1169.30 500.00 1051.30 659.70 963.67 715.06 1156.59 720.77
00004289 00000128 825.16 221.38 464.70 648.62 941.84 493.95 1166.32 500.28 1047.68 658.82 959.98 715.69 1152.58 721.21
00004290 00000129 824.97 224.23 463.73 644.88 941.28 494.96 1164.97 502.50 1045.15 658.57 958.57 716.11 1148.13 722.62
00004291 00000130 824.87 223.95 464.71 646.38 940.85 495.71 1164.58 503.06 1044.07 658.17 959.95 719.41 1146.06 725.56
00004292 00000131 827.10 221.86 463.82 648.48 941.40 495.84 1165.46 502.86 1044.43 656.26 963.69 723.83 1145.44 729.34
00004293 00000132 827.32 215.16 465.32 655.72 943.16 495.01 1165.46 502.64 1046.82 652.54 966.14 726.93 1142.71 732.65
00004294 00000133 828.03 217.62 467.65 653.51 943.38 494.39 1165.82 501.28 1047.33 652.61 969.15 728.69 1143.41 733.80
00004295 00000134 827.32 213.85 468.83 661.01 943.64 492.53 1166.74 499.69 1048.46 651.35 966.99 727.81 1144.41 733.22
00004296 00000135 825.26 214.50 471.82 661.20 943.31 490.05 1166.83 496.48 1048.58 649.67 965.55 724.26 1147.33 729.30
00004297 00000136 824.61 213.24 472.04 662.33 943.06 488.54 1166.50 494.75 1048.88 648.91 964.43 721.44 1149.32 726.31
00004298 00000137 824.05 215.49 471.73 660.16 942.46 486.64 1166.12 493.79 1047.77 650.21 962.22 717.60 1150.64 723.48
00004299 00000138 824.26 212.32 471.91 661.22 941.21 485.92 1165.63 493.73 1046.31 651.88 959.89 714.84 1151.56 721.35
00004300 00000139 823.33 217.41 473.14 652.23 940.47 486.94 1165.61 494.89 1044.25 653.57 958.03 712.01 1151.72 718.91
00004301 00000140 824.80 219.21 469.25 650.38 940.40 489.61 1165.33 497.23 1044.16 656.63 957.74 712.52 1151.97 719.20
00004302 00000141 823.83 219.63 471.99 653.45 938.70 490.71 1164.29 498.40 1041.78 656.46 957.41 716.65 1149.40 723.21
00004303 00000142 822.01 219.30 474.21 658.11 936.39 490.87 1160.69 498.68 1038.09 656.74 957.08 720.59 1145.47 727.05
00004304 00000143 824.33 215.08 471.76 663.18 934.96 492.64 1157.78 499.17 1035.77 656.25 959.57 726.61 1142.31 731.59
00004305 00000144 825.99 213.92 470.92 666.03 934.16 493.21 1157.07 501.35 1032.54 655.22 958.78 727.93 1140.96 734.08
00004306 00000145 827.03 218.11 468.31 664.55 931.34 494.41 1154.78 501.53 1028.13 657.03 957.96 728.18 1141.85 733.64
00004307 00000146 825.24 215.63 471.76 667.77 930.40 494.08 1152.87 503.51 1023.77 656.32 952.47 725.20 1138.48 732.62
00004308 00000147 823.64 218.27 475.54 665.72 929.64 492.27 1153.50 505.22 1021.23 656.97 948.25 722.26 1136.44 732.66
00004309 00000148 824.11 217.42 476.17 664.13 930.72 490.98 1154.74 503.32 1023.29 655.95 948.96 722.85 1136.43 732.83
00004310 00000149 828.69 216.63 472.55 665.29 935.15 491.10 1156.34 501.81 1029.75 654.01 956.73 726.91 1138.57 735.00
00004311 00000150 827.19 220.22 475.63 661.09 937.15 493.88 1159.93 501.19 1037.13 653.93 961.86 728.74 1143.33 734.08
00004312 00000151 829.03 219.80 476.25 662.67 941.08 491.96 1164.82 499.15 1042.39 655.19 966.02 728.81 1147.55 734.18
00004313 00000152 826.90 214.76 479.45 670.63 942.37 489.85 1167.12 498.24 1043.95 653.02 963.42 724.89 1150.50 731.25
00004314 00000153 825.43 212.14 479.99 673.77 943.51 486.07 1167.36 497.79 1042.98 652.89 960.38 720.24 1149.61 729.24
00004315 00000154 832.98 198.17 476.64 688.70 942.06 478.20 1168.96 490.42 1040.51 649.06 956.73 720.08 1142.92 731.56
00004316 00000155 833.41 195.91 476.75 689.52 944.19 479.32 1172.17 491.42 1044.56 651.23 957.38 716.28 1148.82 727.31
00004317 00000156 834.32 194.39 478.45 690.68 946.23 478.34 1176.88 488.09 1049.07 651.43 961.18 716.43 1155.43 725.35
00004318 00000157 835.29 194.23 478.18 688.68 947.90 479.74 1177.14 489.40 1050.02 652.19 962.77 715.17 1155.70 724.06
00004319 00000158 835.32 196.97 480.72 685.17 947.37 478.21 1176.22 489.65 1047.30 650.99 961.08 714.00 1152.95 724.46
00004320 00000159 834.54 196.78 482.68 684.22 947.03 477.36 1176.52 489.93 1046.77 650.74 959.45 713.12 1151.81 724.57
00004321 00000160 834.51 196.70 481.24 683.79 946.24 478.52 1174.22 492.66 1044.34 652.44 957.66 712.33 1149.43 725.07
00004322 00000161 834.83 199.36 481.41 680.70 946.15 476.83 1173.94 493.79 1042.81 652.04 954.94 709.84 1147.95 725.14
00004323 00000162 834.42 202.11 480.66 677.67 945.60 475.85 1173.41 492.61 1042.36 651.45 954.86 709.29 1148.12 724.49
00004324 00000163 834.05 199.90 479.65 679.83 945.30 475.71 1172.77 492.41 1042.57 650.77 953.72 708.74 1147.06 723.82
00004325 00000164 834.27 197.35 478.44 681.11 944.87 474.96 1172.48 491.17 1042.45 650.37 953.24 708.95 1145.70 723.67
00004326 00000165 834.29 195.56 476.08 681.00 945.45 476.20 1172.14 491.34 1043.10 649.67 953.79 708.15 1145.66 721.96
00004327 00000166 834.22 197.78 476.31 678.57 945.09 475.87 1172.68 490.56 1042.93 649.77 953.64 707.88 1146.68 721.44
