Video ID: 	eMSLjE2oQRg
H: 	1080
W: 	1920
FPS: 	23.976023976023978

FRAME INDEX X0 Y0 W H [Landmarks (5 Points)]

00000943 00000000 679.16 250.44 351.10 544.95 794.91 433.86 973.00 449.05 921.59 491.61 814.79 637.48 965.98 651.34
00000944 DELETE   689.81 248.57 356.29 542.37 809.51 442.74 985.28 455.23 935.43 501.58 831.58 638.03 981.55 649.24
00000945 00000002 700.05 253.65 359.21 534.91 821.52 448.66 994.49 459.02 947.53 506.95 848.72 642.61 991.53 652.42
00000946 00000003 704.51 259.25 363.26 530.31 831.64 451.29 1001.46 463.90 950.80 519.45 861.47 647.22 992.36 657.36
00000947 00000004 714.96 260.01 359.67 532.59 837.26 455.07 1011.35 463.97 955.25 524.30 867.73 656.97 997.25 664.65
00000948 00000005 725.59 260.56 358.63 545.80 843.10 455.32 1022.87 467.63 964.75 523.44 866.30 662.63 1008.28 673.74
00000949 00000006 735.14 266.25 355.11 552.31 856.34 460.15 1037.91 477.13 981.25 535.80 864.60 654.95 1028.09 670.74
00000950 00000007 752.94 275.19 352.68 546.45 870.94 462.42 1050.52 478.94 991.04 541.38 874.61 654.37 1041.66 669.99
00000951 00000008 765.08 277.92 358.23 544.22 883.95 463.61 1063.24 477.66 1004.62 538.86 891.35 654.73 1055.78 668.18
00000952 00000009 777.93 275.92 356.02 546.70 897.07 464.58 1077.38 479.39 1021.63 537.53 906.13 657.01 1068.73 671.30
00000953 00000010 785.20 265.84 358.06 545.55 905.19 457.12 1088.66 475.75 1024.69 539.99 917.25 652.10 1077.36 668.15
00000954 00000011 794.89 267.05 356.50 536.47 911.72 457.53 1095.61 471.94 1030.67 537.40 925.68 650.85 1085.10 663.98
00000955 00000012 803.49 269.31 356.15 525.54 920.00 459.19 1099.20 471.88 1037.97 531.96 934.83 648.16 1089.21 659.68
00000956 00000013 810.26 268.27 352.17 517.37 926.78 459.45 1104.52 471.04 1043.23 530.10 940.57 644.83 1093.07 655.55
00000957 00000014 812.58 268.40 352.61 515.29 929.20 460.24 1108.09 471.74 1046.22 528.09 944.06 644.76 1097.19 655.44
00000958 00000015 814.83 269.67 351.44 514.29 930.16 462.48 1109.41 473.94 1047.05 529.13 945.66 645.96 1099.31 656.67
00000959 00000016 816.95 272.21 350.60 511.71 930.14 465.74 1110.96 475.68 1046.97 535.29 947.12 649.53 1100.92 659.02
00000960 00000017 820.16 275.24 350.82 511.15 930.54 469.30 1115.24 480.01 1046.29 540.76 947.18 653.87 1104.12 664.12
00000961 00000018 823.17 277.98 350.82 509.66 934.31 471.04 1120.42 484.49 1049.05 544.63 948.31 654.41 1106.40 667.10
00000962 00000019 826.61 278.12 351.16 509.21 937.10 472.30 1123.47 485.45 1050.08 545.91 950.61 655.21 1108.40 667.68
00000963 00000020 828.46 278.58 350.30 509.25 939.01 472.34 1125.00 484.20 1051.48 546.25 953.44 655.02 1111.34 666.29
00000964 00000021 830.23 278.27 351.08 509.84 940.31 472.28 1126.02 482.50 1053.87 545.63 955.64 653.94 1114.18 663.82
00000965 00000022 833.75 275.17 352.42 513.00 941.83 470.84 1127.50 479.52 1054.12 544.86 958.13 653.63 1116.34 662.16
00000966 00000023 837.51 272.95 351.75 515.09 943.07 469.18 1130.02 476.91 1054.90 541.75 960.66 655.03 1117.86 662.75
00000967 00000024 840.30 273.05 353.01 517.50 945.60 468.15 1132.20 474.49 1057.59 542.22 964.26 656.33 1120.64 662.82
00000968 00000025 841.92 270.69 355.11 521.07 948.68 466.59 1136.40 472.22 1063.47 541.77 967.90 655.44 1126.05 661.24
00000969 00000026 843.23 269.41 355.43 521.69 951.54 465.37 1138.72 471.00 1067.37 540.53 970.67 654.37 1128.41 660.22
00000970 00000027 844.03 269.31 356.21 521.82 952.90 464.79 1139.94 470.33 1069.23 539.56 972.12 653.63 1130.30 659.45
00000971 00000028 843.32 268.72 356.67 521.30 953.11 465.02 1139.25 471.56 1069.09 541.00 971.22 652.58 1129.52 659.27
00000972 00000029 843.27 269.14 355.81 520.02 953.00 465.73 1139.28 472.21 1068.91 542.23 970.53 651.84 1129.90 658.52
00000973 00000030 842.83 269.33 356.87 520.51 953.11 465.66 1138.52 472.31 1068.55 542.64 970.08 651.48 1128.84 658.35
00000974 00000031 844.17 269.14 355.42 519.64 954.33 465.34 1140.60 471.74 1071.24 541.04 973.24 651.74 1131.47 658.23
00000975 00000032 848.58 271.60 353.84 518.34 959.83 464.49 1142.79 469.03 1079.03 541.90 981.55 652.84 1135.25 657.78
00000976 00000033 852.19 275.07 353.01 518.71 968.29 467.04 1143.65 474.33 1087.67 544.69 994.18 653.98 1139.00 660.92
00000977 00000034 861.22 273.51 351.98 522.90 978.11 466.08 1154.52 474.77 1096.87 545.08 1002.90 656.61 1146.16 664.91
00000978 00000035 867.44 269.48 351.41 536.31 984.01 462.33 1161.70 472.14 1101.52 540.45 1007.26 662.95 1144.99 672.18
00000979 00000036 874.58 266.25 347.42 552.86 984.78 456.71 1167.36 466.96 1103.90 533.82 1003.25 667.21 1151.51 677.22
00000980 00000037 878.90 263.59 348.78 550.10 988.69 454.06 1173.01 467.80 1107.93 529.14 1002.98 662.40 1154.81 675.64
00000981 00000038 880.06 264.46 353.02 534.57 996.18 458.66 1176.49 474.13 1116.06 529.89 1007.77 649.33 1164.41 663.88
00000982 00000039 884.81 268.10 353.38 523.12 1002.07 460.71 1181.88 476.09 1119.80 531.27 1009.77 644.84 1169.16 659.71
00000983 00000040 888.69 268.47 350.94 518.47 1004.33 463.84 1184.26 478.74 1121.98 533.57 1013.33 646.68 1171.46 661.17
00000984 00000041 892.10 274.77 346.55 515.90 1003.91 471.30 1187.09 486.02 1118.75 541.13 1012.40 651.95 1173.92 666.21
00000985 00000042 892.75 279.81 344.15 521.17 1000.78 475.80 1186.03 489.04 1114.35 543.87 1007.62 656.60 1174.45 669.53
00000986 00000043 889.26 281.14 345.09 525.58 997.89 477.71 1186.22 493.76 1112.74 545.48 1006.67 660.80 1173.99 675.46
00000987 00000044 889.06 281.95 343.82 529.80 995.35 480.18 1186.44 495.58 1111.27 550.02 1006.04 667.61 1172.46 681.98
00000988 00000045 886.21 283.80 346.82 520.06 992.21 481.96 1183.76 496.65 1105.01 552.34 1004.75 666.52 1169.37 680.11
00000989 00000046 881.72 288.16 347.75 512.83 989.00 482.96 1181.92 497.79 1104.06 554.62 1003.47 665.86 1168.19 679.33
00000990 00000047 876.38 291.78 346.74 510.78 984.00 485.34 1176.09 498.51 1099.70 558.90 1001.33 668.18 1163.30 680.10
00000991 00000048 868.44 296.71 347.19 507.99 978.95 493.94 1166.32 506.27 1093.70 562.93 997.97 670.17 1155.31 681.21
00000992 00000049 861.22 301.42 346.12 508.30 972.16 504.09 1153.90 515.51 1086.96 561.96 991.97 671.55 1149.68 681.03
00000993 00000050 849.30 305.74 349.12 515.41 962.64 513.70 1137.86 516.42 1076.77 567.71 976.03 683.40 1127.92 686.28
00000994 DELETE   840.90 304.64 339.44 526.93 943.27 507.75 1117.69 511.93 1060.00 566.26 967.47 699.23 1111.70 704.40
00000995 00000052 821.92 305.14 344.46 537.82 927.37 513.86 1096.71 510.24 1037.57 574.64 953.16 709.79 1089.18 709.32
00000996 00000053 804.75 315.42 342.92 534.47 910.30 515.33 1075.66 514.41 1016.69 572.42 941.71 707.71 1068.23 710.12
00000997 00000054 788.47 318.71 345.81 529.10 899.68 523.69 1056.17 521.36 1004.27 580.77 932.64 708.76 1052.24 709.39
00000998 00000055 782.10 322.48 350.96 532.18 891.80 534.36 1058.06 532.87 1001.22 595.84 919.10 705.64 1065.20 707.17
00000999 00000056 786.13 321.17 351.29 540.60 894.11 535.61 1057.78 533.04 1001.69 601.75 921.38 708.70 1068.20 708.87
00001000 00000057 790.64 319.02 350.65 544.63 897.11 535.76 1063.32 531.91 1005.98 602.89 924.66 711.39 1072.86 710.62
00001001 00000058 793.88 316.13 348.42 548.57 897.37 535.45 1064.36 529.47 1005.59 602.08 926.22 713.19 1074.76 710.83
00001002 00000059 790.50 317.75 347.40 545.12 893.67 536.50 1061.85 530.68 1003.27 603.85 922.96 716.11 1070.37 714.37
00001003 00000060 783.81 321.36 352.33 536.01 889.48 537.43 1060.87 533.26 999.98 606.27 915.50 714.00 1066.75 713.56
00001004 00000061 788.15 321.38 345.05 512.96 886.93 537.55 1059.14 526.41 995.85 606.76 910.39 710.54 1060.84 703.17
00001005 00000062 784.72 319.69 346.47 513.61 884.38 539.02 1059.77 526.43 995.00 606.95 911.80 715.81 1061.21 707.08
00001006 00000063 785.11 318.54 346.51 533.42 883.62 540.41 1058.91 527.82 995.40 609.24 913.85 726.62 1060.90 717.89
00001007 00000064 785.66 320.66 344.72 536.24 881.07 547.26 1058.45 533.49 992.25 616.36 910.64 733.17 1061.10 724.01
00001008 00000065 785.05 323.97 344.12 527.35 881.20 554.99 1056.09 539.00 991.36 623.33 912.66 731.55 1063.43 719.78
00001009 00000066 780.71 331.57 349.01 522.98 882.44 561.59 1055.29 542.69 999.44 625.36 920.28 730.69 1069.01 718.69
00001010 00000067 785.56 325.20 350.04 535.58 887.43 560.09 1058.58 539.79 1006.55 625.32 930.04 733.15 1078.18 719.98
00001011 00000068 791.70 324.19 350.59 543.83 890.36 553.61 1062.02 533.91 1011.00 616.81 939.29 740.92 1079.37 728.19
00001012 00000069 792.75 321.63 348.64 545.27 890.12 549.04 1061.70 529.74 1009.57 613.20 938.82 740.68 1076.40 728.30
00001013 00000070 788.77 321.29 349.10 538.70 887.61 549.30 1058.66 530.61 1005.95 615.00 935.21 738.11 1072.33 726.56
00001014 00000071 783.85 322.13 349.12 529.62 884.01 550.52 1056.07 532.12 999.56 617.38 927.89 730.00 1069.38 718.52
00001015 00000072 783.14 325.90 348.91 515.13 884.74 554.51 1055.72 533.28 999.60 617.95 928.24 727.41 1069.10 713.25
00001016 00000073 787.78 321.35 351.56 508.25 892.08 553.26 1066.75 529.54 1009.61 616.67 937.89 720.97 1083.18 701.80
00001017 00000074 798.06 323.53 349.01 515.68 895.13 551.22 1065.10 526.46 1011.67 617.94 943.22 730.73 1083.14 713.32
00001018 00000075 805.92 319.48 347.72 528.85 898.02 548.33 1075.81 522.88 1016.06 616.92 946.03 735.77 1092.82 717.49
00001019 00000076 807.35 319.48 346.45 535.29 898.30 546.65 1077.49 521.19 1016.18 617.62 945.28 737.04 1094.21 718.42
00001020 00000077 801.94 320.12 345.17 531.00 894.80 548.09 1071.76 524.26 1013.80 619.89 938.98 733.35 1090.19 716.16
00001021 00000078 794.64 323.11 346.52 523.93 890.26 551.13 1064.21 527.32 1008.78 622.83 933.39 729.20 1085.62 711.88
00001022 00000079 792.42 323.62 346.50 520.83 888.26 552.84 1062.22 528.92 1005.88 624.25 930.81 729.66 1081.55 712.32
00001023 00000080 792.53 324.38 346.06 520.23 888.24 551.34 1062.93 527.97 1006.37 624.21 931.75 729.62 1082.12 712.59
00001024 00000081 793.71 323.42 344.15 520.50 887.73 549.27 1063.88 525.32 1005.34 624.71 932.29 730.68 1081.93 713.19
00001025 00000082 794.10 325.25 342.19 515.60 887.62 547.76 1064.84 523.48 1006.36 624.16 933.24 731.49 1081.70 713.65
00001026 00000083 792.04 326.22 342.69 517.44 886.43 545.93 1062.66 520.21 1006.16 625.51 932.90 732.21 1079.39 713.43
00001027 00000084 789.65 326.83 344.07 521.07 885.25 544.91 1061.12 521.28 1005.82 627.10 933.87 734.99 1076.17 718.06
00001028 00000085 795.47 329.68 342.03 517.58 891.90 545.22 1064.04 520.08 1013.32 626.69 945.14 739.23 1078.16 720.69
00001029 00000086 812.41 324.94 341.86 517.37 900.46 540.37 1075.37 515.72 1018.10 618.84 954.71 739.09 1087.03 720.47
00001030 00000087 821.46 318.94 342.79 520.54 912.93 536.37 1085.63 510.58 1025.88 613.28 962.44 734.41 1094.26 714.41
00001031 00000088 817.30 313.62 346.07 524.49 911.87 529.20 1084.88 504.54 1026.66 604.03 960.10 727.76 1094.27 708.68
00001032 00000089 806.82 310.00 342.03 526.12 904.10 523.11 1074.55 501.04 1020.72 595.64 948.38 717.32 1083.49 700.73
00001033 00000090 806.30 303.60 339.13 540.75 902.77 511.37 1077.05 492.23 1020.24 580.74 943.36 711.17 1083.21 697.62
00001034 00000091 814.90 285.81 343.95 561.38 909.81 504.10 1087.50 488.43 1027.86 567.77 945.12 701.53 1097.14 689.36
00001035 DELETE   835.89 280.59 339.68 556.95 929.82 486.55 1107.20 471.87 1046.64 544.63 957.86 684.66 1116.75 674.66
00001036 00000093 849.33 275.18 345.50 551.21 946.53 469.39 1128.26 464.35 1065.39 532.63 971.79 666.67 1136.36 663.56
00001037 00000094 853.53 274.82 348.34 539.44 959.91 466.33 1137.43 466.78 1081.17 534.52 980.36 656.83 1139.79 658.87
00001038 00000095 850.15 272.55 350.13 533.22 955.90 468.67 1137.61 466.90 1077.69 539.69 978.94 657.75 1139.88 657.76
00001039 00000096 842.33 267.74 349.77 531.84 946.68 476.90 1131.88 471.53 1063.74 547.50 973.02 665.38 1132.76 662.16
00001040 00000097 839.21 269.53 348.48 528.78 943.18 481.75 1128.60 473.92 1059.20 553.03 970.46 670.71 1127.28 665.52
00001041 00000098 840.03 269.98 348.96 528.28 942.90 482.51 1128.50 473.57 1058.47 553.75 972.63 673.08 1127.38 666.73
00001042 00000099 842.61 268.20 350.54 526.08 945.16 480.55 1131.23 471.85 1060.03 553.19 975.69 672.21 1129.35 665.96
00001043 00000100 844.61 267.59 351.78 523.80 947.58 479.48 1134.35 470.32 1063.52 554.20 979.76 671.54 1132.51 664.95
00001044 00000101 847.14 269.05 351.37 524.93 951.62 478.87 1134.77 469.38 1067.71 554.33 982.69 668.54 1134.62 661.77
00001045 00000102 850.65 271.57 348.97 526.02 955.68 477.88 1136.40 468.79 1073.23 554.17 988.07 669.46 1137.48 662.88
00001046 00000103 849.02 269.63 351.55 529.38 961.77 474.97 1133.30 472.70 1077.82 556.87 1000.61 670.14 1130.16 668.72
00001047 00000104 854.88 270.67 349.84 532.17 964.26 478.61 1138.90 476.30 1083.55 556.73 1002.16 672.72 1136.37 671.22
00001048 00000105 862.44 271.56 346.54 529.06 970.59 482.08 1143.77 477.39 1089.17 557.01 1007.58 667.70 1146.45 664.34
00001049 00000106 868.25 270.16 346.67 527.24 975.38 480.67 1152.44 476.73 1096.25 554.53 1011.36 668.00 1153.44 665.78
00001050 00000107 871.03 267.38 347.30 530.35 977.26 479.35 1158.54 476.15 1101.16 554.23 1009.53 668.30 1158.63 667.03
00001051 00000108 871.53 267.62 349.58 527.19 983.71 479.87 1158.60 476.94 1105.03 550.42 1012.16 660.05 1162.40 658.70
00001052 00000109 871.76 268.65 352.61 527.31 988.33 476.54 1161.74 473.93 1110.24 543.43 1010.71 652.03 1166.25 650.79
00001053 00000110 871.02 264.27 356.65 530.50 993.04 471.92 1163.29 470.31 1117.39 539.40 1016.70 650.97 1167.21 650.60
00001054 00000111 875.09 258.40 354.31 533.31 997.28 471.49 1165.13 467.80 1122.63 537.97 1026.48 655.11 1169.13 653.27
00001055 00000112 875.95 255.44 352.59 535.05 995.35 471.93 1164.95 465.97 1122.46 539.44 1026.55 657.24 1169.95 653.70
00001056 00000113 874.25 254.55 352.89 529.40 994.50 470.36 1164.54 465.40 1119.93 538.79 1025.85 655.51 1166.61 652.49
00001057 00000114 874.05 255.09 351.23 531.83 990.15 472.72 1164.76 467.72 1116.23 543.64 1022.01 659.92 1166.58 656.93
00001058 00000115 873.35 256.26 352.33 531.84 988.90 476.57 1165.34 469.80 1116.07 549.70 1023.54 666.08 1167.25 661.11
00001059 00000116 873.97 258.46 352.86 531.85 989.44 479.36 1167.86 470.52 1119.21 551.93 1025.05 669.22 1170.52 662.71
00001060 00000117 872.82 256.61 353.50 528.96 989.55 477.11 1163.05 466.42 1117.69 548.27 1026.01 663.93 1169.05 655.49
00001061 00000118 871.17 252.73 353.79 525.98 987.21 470.93 1159.58 459.21 1113.78 539.46 1025.30 657.59 1165.42 648.84
00001062 00000119 867.91 247.98 351.76 524.25 981.04 465.01 1150.11 446.92 1109.42 530.17 1027.98 653.55 1164.08 639.64
00001063 00000120 864.99 248.41 352.02 526.41 976.59 464.74 1145.90 442.68 1107.18 529.83 1027.07 654.74 1163.63 637.87
00001064 00000121 863.92 253.38 354.52 538.00 971.10 480.01 1143.62 454.57 1103.40 543.24 1023.15 669.15 1165.29 649.73
00001065 00000122 858.22 268.71 354.65 545.02 967.33 498.35 1142.59 466.07 1105.29 561.08 1018.47 686.42 1168.61 661.51
00001066 00000123 852.31 277.94 353.42 538.14 960.08 509.49 1136.22 473.74 1096.92 571.99 1014.91 693.90 1164.85 664.98
00001067 00000124 842.87 276.56 354.80 529.85 946.96 507.36 1124.05 468.24 1083.82 566.22 1009.37 688.10 1160.39 656.76
00001068 00000125 832.11 269.82 359.78 519.33 938.62 500.29 1114.36 461.65 1069.49 552.69 992.18 676.94 1146.31 645.03
00001069 00000126 825.71 260.15 361.23 516.72 929.76 491.78 1102.82 445.93 1063.53 539.56 990.83 666.91 1142.22 628.64
00001070 00000127 824.17 258.25 358.99 514.41 924.17 494.05 1092.55 438.03 1058.63 539.90 991.10 667.76 1137.70 620.90
00001071 00000128 819.23 264.65 360.02 514.99 919.25 503.99 1086.96 445.97 1052.14 548.10 989.60 677.15 1134.25 628.50
00001072 00000129 815.89 277.19 361.66 514.17 914.81 518.62 1084.63 458.95 1046.29 562.93 987.17 692.50 1130.50 642.22
00001073 00000130 810.36 285.16 366.21 511.79 908.75 527.16 1077.75 462.51 1041.11 574.44 983.20 699.39 1127.24 644.83
00001074 00000131 804.88 290.16 367.67 511.87 905.34 529.78 1074.93 465.87 1038.59 576.40 981.16 703.04 1123.26 649.37
00001075 00000132 800.12 287.37 368.50 514.03 903.64 529.90 1071.73 464.82 1036.54 574.80 981.62 702.79 1121.33 647.79
00001076 00000133 797.68 284.38 364.42 509.16 903.46 522.22 1067.18 460.64 1036.45 565.20 984.24 697.49 1118.01 645.29
00001077 00000134 801.92 277.82 361.40 510.48 901.65 505.23 1068.05 448.18 1034.17 552.11 983.49 689.91 1116.87 641.71
00001078 00000135 804.95 268.89 359.83 503.41 904.75 487.21 1068.57 434.01 1036.58 534.63 986.56 673.78 1115.83 629.33
00001079 00000136 809.87 262.93 356.32 500.88 909.55 479.64 1071.95 427.58 1042.53 525.24 989.65 663.73 1119.42 619.78
00001080 00000137 810.68 260.45 354.99 504.52 910.52 473.54 1078.37 428.87 1043.22 524.57 985.14 662.17 1118.71 624.17
00001081 00000138 810.44 262.86 354.46 506.90 909.77 473.92 1079.24 434.15 1040.01 526.91 978.08 663.39 1113.10 629.85
00001082 00000139 810.00 263.89 353.49 508.78 913.39 474.30 1083.16 440.51 1043.47 530.80 976.84 664.26 1111.64 635.86
00001083 00000140 811.35 265.97 353.32 509.52 918.49 477.17 1087.67 444.63 1049.27 532.81 974.87 659.58 1115.94 632.14
00001084 00000141 810.55 265.74 354.32 513.65 920.15 477.23 1088.71 446.98 1050.99 532.88 972.72 656.99 1115.81 631.56
00001085 00000142 807.11 267.00 355.60 521.91 916.70 478.04 1083.05 449.85 1043.98 535.78 969.56 664.42 1107.06 641.11
00001086 00000143 803.33 269.36 354.88 521.62 912.56 477.67 1078.44 450.24 1041.03 536.53 966.27 665.50 1102.99 642.85
00001087 00000144 807.34 269.10 353.62 517.27 916.28 476.77 1084.32 451.84 1043.80 535.92 970.18 666.31 1105.42 645.53
00001088 00000145 816.58 263.99 348.18 516.26 927.76 473.37 1094.47 454.87 1056.81 534.51 975.85 659.86 1113.27 644.64
00001089 00000146 826.99 263.69 344.86 512.85 939.19 473.80 1108.02 456.45 1069.48 534.72 986.19 658.25 1127.65 644.28
00001090 00000147 836.62 263.56 346.58 517.67 948.43 475.64 1123.41 458.13 1078.56 535.25 994.00 659.01 1142.34 644.94
00001091 00000148 844.02 268.82 348.21 517.53 961.14 477.87 1130.39 456.91 1089.35 540.33 1003.14 658.42 1149.64 641.92
00001092 00000149 852.59 276.36 345.05 512.57 970.37 479.67 1133.45 460.94 1101.72 542.96 1013.03 653.66 1154.03 638.65
00001093 00000150 862.08 276.30 350.25 517.06 977.06 479.65 1140.82 462.10 1105.26 544.24 1018.97 658.43 1160.18 644.15
00001094 00000151 871.09 278.40 347.84 516.65 987.78 480.92 1156.24 468.73 1116.84 547.05 1022.96 660.51 1170.04 650.92
00001095 00000152 880.03 278.76 350.29 511.30 996.78 484.79 1167.44 473.86 1124.99 547.19 1028.01 660.27 1178.76 652.07
00001096 00000153 887.04 271.85 347.31 513.57 1003.43 484.79 1176.38 474.11 1133.08 548.15 1032.53 659.47 1185.60 651.69
00001097 00000154 893.12 272.73 345.98 513.68 1007.42 482.83 1181.92 472.51 1136.65 548.21 1034.44 659.38 1189.88 652.20
00001098 00000155 898.47 271.31 346.31 523.12 1010.51 480.41 1187.83 469.93 1138.09 549.20 1037.64 663.17 1195.71 656.01
00001099 00000156 903.19 268.83 346.90 526.18 1018.06 475.89 1195.31 467.11 1147.67 546.12 1046.02 661.18 1203.10 655.42
00001100 00000157 909.92 264.69 347.00 528.44 1028.32 468.56 1204.14 462.37 1160.50 540.79 1055.55 654.64 1210.50 651.11
00001101 00000158 915.04 260.34 348.33 525.67 1038.31 465.58 1212.41 458.85 1169.92 537.83 1065.76 651.49 1217.46 647.59
00001102 00000159 918.26 256.22 347.90 518.80 1043.63 464.84 1216.61 458.83 1176.11 533.22 1075.05 649.90 1222.38 646.58
00001103 00000160 921.25 255.62 346.57 518.54 1045.63 466.93 1218.57 463.14 1178.07 531.66 1076.80 649.24 1223.67 647.67
00001104 00000161 922.33 254.50 342.33 521.16 1046.95 468.36 1218.22 466.94 1179.45 533.83 1077.32 650.53 1222.63 650.97
00001105 00000162 919.35 252.25 341.48 524.90 1045.13 471.77 1217.51 472.48 1177.58 538.63 1073.64 652.86 1220.28 655.07
00001106 00000163 911.67 258.23 347.03 524.45 1040.30 479.03 1212.19 478.14 1172.51 547.17 1070.24 660.13 1215.83 661.06
00001107 00000164 910.15 263.99 348.47 519.40 1037.90 481.81 1210.70 478.51 1170.29 548.50 1070.73 662.70 1216.65 661.41
00001108 00000165 912.38 260.31 347.58 518.83 1040.06 479.57 1213.17 476.35 1172.08 546.07 1073.01 660.03 1219.30 658.87
