Video ID: 	-QJw7ZjxAbw
H: 	1080
W: 	1920
FPS: 	25.0

FRAME INDEX X0 Y0 W H [Landmarks (5 Points)]

00004890 00000000 632.79 183.91 559.98 771.29 708.79 539.64 943.79 499.92 791.02 678.18 778.84 808.57 957.78 775.28
00004891 00000001 639.83 184.41 555.75 783.79 715.47 533.00 951.78 504.80 792.70 678.19 775.41 812.68 950.10 789.80
00004892 00000002 654.56 183.61 545.25 796.49 735.70 532.41 971.66 512.06 814.38 685.15 790.10 821.83 963.15 805.14
00004893 00000003 658.08 185.02 570.95 785.29 751.02 531.22 1005.81 513.32 852.24 692.14 810.09 827.70 988.46 813.02
00004894 00000004 674.43 174.39 566.81 796.28 780.38 528.60 1031.40 507.08 883.53 693.55 839.47 821.72 1020.21 804.30
00004895 00000005 680.17 167.78 556.43 815.88 788.94 533.63 1039.06 499.60 901.75 689.03 858.64 823.92 1043.99 796.35
00004896 00000006 699.60 177.09 528.12 796.28 780.61 528.41 1024.42 502.98 883.14 693.57 848.02 818.54 1029.68 798.01
00004897 00000007 683.12 171.26 549.42 805.71 767.62 528.03 1017.58 512.19 854.74 690.07 821.32 824.33 1001.58 812.04
00004898 00000008 686.16 178.69 549.36 795.79 768.75 526.07 1021.52 516.48 854.08 691.19 816.93 823.41 999.04 816.43
00004899 00000009 692.63 198.49 550.91 775.63 787.03 528.15 1030.52 518.90 879.29 700.95 843.00 820.15 1017.81 811.79
00004900 00000010 698.64 176.97 550.83 822.78 794.36 526.36 1041.60 511.93 890.45 693.02 848.13 825.34 1035.00 813.92
00004901 00000011 700.63 178.27 541.29 802.81 789.68 530.17 1037.61 508.05 887.67 689.17 848.38 819.99 1033.77 801.51
00004902 DELETE   687.52 180.38 557.12 795.33 773.98 538.34 1020.70 512.81 865.11 684.79 834.48 823.52 1016.05 802.52
00004903 00000013 683.39 186.42 546.27 799.65 767.40 541.34 1006.97 522.23 846.23 681.48 818.50 817.75 1005.51 801.88
00004904 00000014 678.96 183.13 557.10 802.49 761.65 536.57 1000.60 514.03 842.08 678.44 817.66 812.38 1011.50 792.60
00004905 00000015 678.60 178.38 551.23 802.20 765.05 531.10 1006.29 509.72 848.83 675.48 817.44 803.55 1022.33 784.38
00004906 00000016 683.84 172.01 552.65 803.11 771.40 523.92 1015.44 507.15 855.78 675.59 818.38 794.18 1032.48 778.71
00004907 00000017 687.95 177.99 541.40 796.39 774.86 526.51 1019.84 509.38 861.93 676.86 820.27 789.85 1039.37 773.64
00004908 00000018 686.70 173.88 541.94 790.51 775.82 524.13 1020.65 508.68 861.60 675.90 816.07 777.43 1038.29 762.36
00004909 00000019 682.17 172.70 540.10 776.91 769.71 518.04 1013.64 504.06 853.45 667.54 808.07 768.32 1031.61 754.53
00004910 00000020 677.88 166.89 552.89 773.32 765.77 512.94 1008.76 498.15 847.88 660.87 805.23 761.20 1028.91 746.48
00004911 00000021 679.36 155.68 552.85 782.61 771.47 507.82 1013.42 494.31 853.17 658.76 809.32 755.51 1032.34 741.84
00004912 00000022 682.77 147.94 555.39 786.35 773.85 503.78 1018.02 488.18 856.10 654.78 812.97 749.76 1040.88 733.99
00004913 00000023 682.52 144.46 559.56 790.06 771.81 499.80 1017.32 480.62 855.06 649.57 812.45 746.44 1043.02 727.47
00004914 00000024 682.09 149.94 545.06 777.98 761.76 501.91 1005.36 481.75 848.98 644.58 812.45 745.20 1037.24 726.30
00004915 00000025 670.87 149.35 552.40 773.24 748.81 502.82 989.24 482.15 832.59 642.91 800.79 744.19 1023.59 725.24
00004916 00000026 666.20 153.18 548.32 766.00 743.38 499.58 983.17 477.29 826.02 637.89 792.64 743.11 1016.46 723.54
00004917 00000027 665.27 147.71 554.14 771.04 742.14 498.77 985.74 475.17 826.68 635.13 792.13 744.31 1016.59 723.95
00004918 00000028 664.02 144.04 551.70 780.58 749.87 498.36 992.06 471.75 837.28 634.04 796.68 746.70 1022.12 722.37
00004919 00000029 664.51 143.53 556.42 786.15 749.42 499.59 991.77 472.02 835.51 634.46 795.75 747.77 1023.48 722.35
00004920 00000030 659.90 140.40 554.34 794.04 744.46 499.86 984.55 471.58 828.43 632.02 789.14 747.79 1016.82 721.77
00004921 00000031 660.64 156.07 541.81 779.26 741.88 498.08 972.22 474.28 817.19 630.84 782.88 742.92 1005.08 721.11
00004922 00000032 664.92 157.55 519.09 783.00 740.43 500.58 967.55 479.03 807.65 631.45 774.53 739.12 992.79 718.79
00004923 00000033 661.18 157.46 522.75 777.04 742.47 496.67 968.12 476.76 811.05 625.66 775.51 734.74 989.69 715.81
00004924 00000034 656.97 160.72 530.99 768.85 745.20 494.37 979.57 469.53 830.27 625.83 785.94 737.21 1006.78 714.19
00004925 00000035 664.38 163.56 543.36 759.40 758.69 496.23 997.49 469.78 851.93 621.83 800.44 735.79 1024.86 711.86
00004926 00000036 667.62 152.28 551.69 773.47 761.97 498.53 1007.42 462.61 862.02 622.13 806.91 737.82 1045.15 704.88
00004927 00000037 667.52 155.04 543.49 767.06 756.83 493.96 1000.54 454.49 856.89 619.86 803.47 733.88 1045.24 697.72
00004928 00000038 662.24 152.23 540.77 763.39 748.66 488.91 987.93 453.45 846.09 622.77 794.34 728.62 1032.77 695.62
00004929 00000039 656.55 151.60 544.36 756.04 745.02 486.47 978.71 453.09 836.29 613.45 786.60 718.34 1027.02 686.95
00004930 00000040 655.39 151.97 545.94 750.69 743.62 479.43 981.42 448.46 838.30 609.37 781.64 707.96 1031.51 678.10
00004931 00000041 661.97 145.27 540.36 757.08 750.92 473.61 989.88 445.77 846.84 604.89 786.09 701.66 1039.27 674.53
00004932 00000042 669.24 139.21 541.36 761.09 755.68 475.21 1002.35 443.29 856.41 603.35 794.01 704.45 1052.46 673.65
00004933 00000043 673.65 138.64 545.64 759.41 761.36 475.99 1009.99 442.93 866.13 605.85 799.89 702.68 1060.42 670.52
00004934 00000044 677.97 140.45 540.41 756.38 764.47 475.53 1012.41 442.61 868.57 604.94 801.91 701.37 1061.58 669.65
00004935 00000045 675.32 139.42 537.28 758.79 759.03 475.49 1006.48 442.20 862.34 604.04 796.79 701.15 1055.52 669.21
00004936 00000046 670.08 140.28 539.48 755.70 755.00 474.43 998.70 442.90 853.01 599.49 790.98 699.71 1048.06 669.47
00004937 00000047 663.55 147.49 537.92 744.93 750.89 468.89 989.72 444.20 845.56 599.23 784.53 695.06 1035.98 670.91
00004938 00000048 657.97 145.52 538.22 748.03 744.32 465.76 988.65 445.59 837.70 596.56 776.38 688.54 1030.00 667.08
00004939 00000049 653.99 144.68 537.49 757.43 738.14 455.86 987.79 448.80 826.69 598.79 758.07 690.80 1011.79 681.47
00004940 00000050 648.93 145.36 535.62 756.60 739.38 456.38 984.77 455.22 825.76 599.84 755.35 689.29 1002.00 684.95
00004941 00000051 647.96 157.85 521.10 750.83 736.95 458.50 981.04 458.57 817.04 600.04 744.88 692.51 992.58 689.54
00004942 00000052 642.38 156.36 529.56 763.10 734.56 456.60 980.21 460.56 814.86 600.93 740.74 697.27 986.08 698.15
00004943 00000053 637.04 154.41 528.80 788.64 731.04 457.72 978.66 461.44 809.39 601.11 735.26 714.79 979.88 716.22
00004944 00000054 636.26 162.36 524.04 782.73 729.11 463.50 978.26 470.49 805.41 609.83 734.09 722.45 973.98 727.09
00004945 00000055 634.93 176.96 519.71 760.49 723.48 467.29 971.80 477.86 798.44 617.81 728.10 723.64 963.68 731.50
00004946 00000056 631.05 183.76 519.63 749.33 716.73 471.31 964.07 483.22 791.07 625.27 723.70 728.26 955.91 737.37
00004947 00000057 627.24 188.37 522.54 744.46 715.76 473.84 963.34 485.98 791.90 629.92 726.45 734.01 952.62 743.52
00004948 00000058 629.25 187.14 522.98 749.57 719.01 478.72 970.07 487.81 800.41 635.24 731.99 743.02 957.37 750.37
00004949 00000059 629.46 187.82 527.76 750.67 720.33 480.33 978.91 485.14 810.10 635.92 737.58 746.97 966.10 750.61
00004950 00000060 626.72 181.51 526.50 759.00 718.97 479.85 978.45 482.58 811.51 634.12 737.54 745.74 967.26 747.60
00004951 00000061 623.69 178.88 535.26 761.04 715.02 478.69 972.15 483.44 802.46 631.96 731.95 743.46 956.99 747.33
00004952 00000062 612.28 185.50 540.17 756.17 703.71 483.08 954.31 491.06 786.01 631.33 723.78 745.99 931.39 753.50
00004953 00000063 606.72 189.47 536.39 773.66 699.92 481.14 942.89 493.35 769.15 629.74 712.32 753.87 917.68 764.53
00004954 00000064 606.40 191.63 523.23 783.64 701.38 481.89 945.12 495.06 771.79 633.04 712.93 759.86 927.16 770.61
00004955 00000065 610.11 192.55 532.01 780.28 703.37 486.10 951.05 498.46 776.72 634.82 716.51 759.63 938.30 769.55
00004956 00000066 615.56 193.66 524.70 755.73 703.00 487.60 961.06 496.93 786.00 637.26 718.08 753.38 949.11 760.42
00004957 00000067 618.12 194.57 527.11 743.46 703.75 487.13 963.30 498.25 787.23 640.48 717.04 745.23 958.77 752.88
00004958 00000068 616.92 194.55 531.24 738.93 704.35 484.45 963.79 497.24 787.69 640.54 715.39 737.88 966.15 746.37
00004959 00000069 618.37 195.24 531.47 738.72 707.01 480.03 963.65 495.69 787.12 636.66 712.67 728.38 970.17 738.85
00004960 00000070 623.64 187.02 529.27 749.30 712.02 473.11 965.08 488.91 788.31 630.57 712.68 719.12 973.88 729.62
00004961 00000071 628.70 184.98 523.25 751.06 718.24 470.49 971.62 486.16 796.22 625.54 715.51 713.27 982.01 723.40
00004962 00000072 632.29 184.10 531.79 755.35 721.70 470.49 979.06 486.04 802.02 627.57 718.66 715.37 989.18 725.19
00004963 00000073 633.61 182.60 535.75 757.74 723.85 470.78 982.09 487.58 805.02 629.67 721.43 715.29 991.13 725.97
00004964 00000074 634.92 186.02 532.52 758.42 723.60 472.02 981.40 488.46 803.27 630.93 720.42 716.63 992.86 726.86
00004965 00000075 634.07 189.22 544.91 757.09 727.60 472.13 984.67 492.90 804.75 634.03 723.42 714.72 994.07 728.32
00004966 00000076 636.47 184.61 540.94 764.02 730.64 472.33 988.74 491.94 809.48 632.32 724.04 714.59 997.01 727.25
00004967 00000077 643.24 181.14 539.25 763.93 736.27 469.94 997.03 490.97 814.13 623.93 727.66 711.77 1000.62 726.03
00004968 00000078 652.12 171.76 543.28 775.23 743.53 464.20 1002.78 483.53 815.57 612.93 735.51 709.12 1001.35 722.46
00004969 00000079 656.89 162.99 537.27 782.00 746.97 459.37 1008.18 479.84 819.19 609.30 737.36 707.87 1001.73 722.45
00004970 00000080 659.11 165.71 532.89 775.56 750.01 459.22 1009.48 481.68 822.36 611.56 740.58 706.67 1001.82 722.95
00004971 00000081 659.63 175.61 532.53 760.59 750.76 466.17 1007.73 489.74 822.79 622.36 745.05 708.95 1003.89 725.60
00004972 00000082 661.25 184.12 531.54 743.90 755.63 478.98 999.97 496.84 829.72 625.10 755.35 708.84 1008.53 720.99
00004973 00000083 664.97 184.40 529.19 741.94 762.42 488.10 1005.55 504.52 839.03 622.80 762.63 712.09 1013.91 723.19
00004974 00000084 674.36 177.36 532.40 750.70 770.91 490.20 1017.77 503.27 847.67 615.96 772.43 717.68 1022.07 726.74
00004975 DELETE   687.08 175.48 522.36 746.30 783.04 483.74 1027.76 498.21 861.68 612.84 781.13 712.07 1028.97 722.52
00004976 00000086 692.32 171.67 523.81 749.29 790.34 472.80 1039.11 492.36 871.48 612.86 787.43 710.98 1033.36 725.78
00004977 00000087 696.95 166.06 525.04 755.77 796.54 470.39 1048.12 487.12 881.55 613.95 797.81 717.49 1033.98 730.64
00004978 00000088 698.73 160.27 529.09 763.53 798.65 466.45 1048.82 487.00 878.77 612.90 797.31 717.59 1029.52 734.31
00004979 00000089 698.97 158.78 526.73 769.04 795.16 460.11 1042.94 482.92 868.07 607.93 791.19 714.92 1022.79 733.66
00004980 00000090 699.06 157.73 531.91 762.77 793.33 455.85 1037.68 482.19 858.05 598.36 785.49 707.50 1015.96 729.29
00004981 00000091 698.35 153.99 528.47 757.94 791.92 453.15 1035.00 479.32 855.30 593.30 785.16 700.19 1015.20 721.75
00004982 00000092 698.11 148.70 530.35 754.84 792.40 450.40 1036.20 477.29 857.96 592.74 786.24 691.51 1021.32 713.09
00004983 00000093 700.15 146.94 532.48 752.31 794.36 451.56 1037.80 476.51 861.28 593.85 790.67 690.14 1026.92 709.67
00004984 00000094 701.76 142.94 546.99 753.33 793.60 456.09 1039.55 473.32 864.50 591.32 799.67 688.74 1037.40 699.80
00004985 00000095 702.67 132.41 544.15 761.41 790.85 454.64 1036.55 466.58 858.51 582.67 796.53 687.46 1034.56 694.51
00004986 00000096 698.77 137.06 543.95 756.03 784.55 455.33 1027.83 462.27 849.32 579.06 792.00 684.96 1032.16 687.76
00004987 00000097 691.27 121.99 555.23 773.86 774.47 453.49 1021.25 452.55 837.53 575.58 785.02 684.52 1034.22 680.23
00004988 00000098 683.04 124.73 556.48 773.40 765.22 459.14 1012.66 451.74 831.12 579.17 782.63 687.90 1034.46 677.97
00004989 00000099 678.68 127.07 553.65 775.42 762.22 463.38 1009.91 457.14 831.18 587.54 780.94 689.66 1035.52 680.45
00004990 00000100 679.14 132.35 547.80 781.24 763.75 468.72 1012.60 463.86 839.22 599.65 781.70 692.28 1042.79 683.49
00004991 00000101 683.62 133.30 544.10 790.72 773.67 478.30 1018.13 470.09 850.96 609.00 788.78 707.72 1047.35 697.59
00004992 00000102 689.57 134.35 549.91 802.81 778.30 489.56 1022.87 475.16 856.12 618.79 798.03 717.08 1058.43 701.04
00004993 00000103 696.81 136.84 546.64 795.95 782.64 490.39 1024.14 475.22 858.66 620.08 804.87 717.11 1060.23 700.46
00004994 00000104 692.53 134.99 558.63 779.44 782.87 486.76 1023.25 476.92 857.56 616.44 810.52 701.28 1058.64 687.53
00004995 00000105 691.38 129.15 554.34 783.73 778.01 475.10 1019.89 459.92 853.05 601.45 804.33 698.64 1055.99 680.99
00004996 00000106 690.42 121.06 559.64 789.66 768.98 467.40 1015.95 445.39 842.13 585.26 796.61 694.74 1054.22 671.45
00004997 00000107 686.92 115.03 560.26 791.81 765.20 466.76 1010.63 437.60 839.19 578.47 797.52 693.47 1053.17 664.26
00004998 00000108 681.89 117.41 567.64 793.48 759.32 472.73 1004.83 435.01 834.54 578.99 797.39 698.58 1052.51 662.14
00004999 00000109 677.52 118.96 574.39 802.59 755.93 476.35 1001.06 439.28 832.57 587.42 796.46 704.02 1054.05 667.80
00005000 00000110 681.34 129.34 557.81 793.08 760.00 477.31 997.76 443.36 835.21 591.32 797.08 713.40 1050.43 680.72
00005001 00000111 681.92 130.07 561.42 799.04 761.63 479.80 999.09 449.03 836.06 597.39 798.17 718.07 1050.23 688.24
00005002 00000112 681.74 134.01 558.60 793.36 762.89 481.21 1000.29 452.63 837.74 601.47 796.59 715.84 1050.40 687.82
00005003 00000113 683.53 132.40 557.47 795.09 763.65 479.96 1001.53 452.68 837.91 602.02 796.49 714.90 1051.05 687.88
00005004 00000114 684.40 134.12 554.01 779.75 764.86 478.87 1001.58 453.35 839.59 600.69 796.27 710.94 1048.36 685.55
00005005 00000115 683.99 131.06 554.17 769.14 762.60 475.90 1001.48 450.69 839.25 596.87 795.77 706.04 1044.52 681.03
00005006 00000116 684.91 130.22 551.88 777.94 764.62 475.96 1003.30 449.22 839.87 594.18 798.01 710.31 1045.35 684.21
00005007 00000117 692.14 120.97 546.25 806.11 764.53 476.06 1003.44 448.10 837.02 601.93 806.03 725.36 1041.62 700.33
00005008 00000118 691.61 127.32 551.38 810.50 770.38 479.33 1007.82 451.02 840.89 597.43 802.80 726.22 1047.63 699.31
00005009 00000119 694.75 128.32 549.47 807.11 776.00 479.20 1015.65 455.61 848.48 602.34 804.73 725.00 1048.43 702.20
00005010 00000120 698.25 130.04 558.08 798.19 786.20 491.45 1030.04 476.29 860.55 613.33 815.07 719.24 1055.49 702.48
00005011 00000121 708.15 132.09 545.76 799.57 794.95 493.90 1037.55 478.06 872.36 615.36 821.37 721.73 1061.37 704.64
00005012 00000122 710.91 129.46 560.95 810.86 801.85 491.06 1045.89 482.33 875.86 615.82 824.04 721.84 1064.20 710.97
00005013 00000123 714.12 125.89 558.83 818.85 805.54 488.14 1043.65 481.58 875.49 617.17 826.98 722.24 1062.88 713.03
00005014 00000124 715.15 124.52 555.23 827.78 806.28 482.53 1042.25 480.12 872.32 614.50 824.32 725.29 1055.56 719.97
00005015 00000125 723.55 123.42 540.24 817.64 798.61 474.69 1038.26 465.44 862.44 610.69 824.44 734.99 1047.61 725.21
00005016 00000126 712.59 121.71 543.63 815.39 795.20 477.21 1034.51 472.33 857.86 605.99 810.62 728.02 1036.37 722.85
00005017 00000127 708.52 122.62 547.71 808.63 788.92 482.91 1026.43 475.73 850.14 608.81 808.09 730.55 1028.73 723.35
00005018 00000128 701.72 132.45 551.14 807.82 783.27 491.42 1017.90 479.52 845.47 615.58 805.26 739.08 1028.56 727.28
00005019 00000129 700.34 135.86 554.70 810.43 783.93 496.35 1012.25 485.59 842.38 623.33 807.40 744.41 1026.51 733.12
00005020 00000130 701.87 144.57 539.76 792.69 777.42 501.35 1007.94 491.88 839.71 633.90 809.03 749.67 1024.29 740.06
00005021 00000131 708.15 146.96 536.63 789.48 779.89 502.42 1008.07 493.29 839.45 633.67 810.98 751.46 1024.10 742.26
00005022 00000132 711.18 145.09 537.98 797.74 789.56 502.01 1012.03 492.44 839.46 629.75 812.16 747.04 1026.41 736.39
00005023 00000133 716.41 146.65 535.18 790.50 785.84 506.25 1010.59 495.48 841.19 635.96 819.88 752.78 1028.86 741.88
00005024 00000134 717.92 146.02 535.07 789.72 787.89 509.95 1012.88 498.52 842.59 637.25 822.41 753.62 1031.80 742.07
00005025 00000135 723.79 144.22 540.69 793.61 792.74 510.02 1016.83 500.90 844.16 639.08 826.72 752.64 1034.37 742.64
00005026 00000136 723.78 157.17 543.19 787.51 796.55 504.90 1022.42 502.39 847.77 640.02 835.13 757.05 1043.95 752.13
00005027 00000137 728.53 164.41 535.39 781.31 800.42 512.06 1026.94 507.81 851.73 643.56 840.79 763.26 1049.57 756.65
00005028 00000138 729.81 166.88 530.44 778.93 802.87 515.17 1028.95 510.35 855.81 646.05 844.12 763.72 1053.07 756.50
00005029 00000139 732.71 166.65 524.70 777.47 805.93 514.18 1032.98 509.57 860.18 645.23 845.38 763.39 1054.20 756.46
00005030 00000140 734.66 168.63 524.02 774.05 807.61 514.99 1034.17 510.10 862.84 645.87 846.62 763.47 1054.81 756.40
00005031 00000141 738.35 169.66 512.10 773.33 810.92 515.25 1034.56 509.85 865.21 646.09 849.01 762.64 1056.58 755.20
00005032 00000142 739.36 170.88 507.64 771.61 812.16 516.56 1034.05 510.24 865.89 645.99 850.38 762.30 1056.27 754.07
00005033 00000143 739.61 170.44 508.73 771.17 812.46 515.89 1034.45 510.14 866.24 645.87 850.75 762.11 1055.98 754.39
00005034 00000144 739.65 170.13 512.61 771.08 811.81 514.96 1034.34 509.87 865.72 645.60 849.68 761.35 1054.79 754.27
00005035 00000145 739.59 172.68 516.34 767.63 811.34 515.41 1034.34 509.80 865.70 645.55 850.26 761.33 1055.30 753.86
00005036 00000146 741.65 173.57 513.02 766.58 812.48 518.65 1034.81 510.63 867.32 647.52 851.93 763.93 1056.15 754.44
00005037 00000147 743.71 176.02 508.89 763.36 814.05 519.78 1035.47 510.76 869.20 648.06 853.09 764.21 1057.34 753.88
00005038 00000148 744.93 175.59 525.17 762.26 815.15 519.94 1041.48 510.50 872.98 646.93 853.41 764.36 1061.17 753.87
00005039 00000149 744.65 177.54 529.14 756.91 817.17 518.92 1045.42 509.42 877.25 645.43 853.98 762.35 1063.38 752.18
00005040 00000150 745.54 172.83 535.17 760.30 818.33 517.97 1047.91 508.67 879.62 645.77 855.10 762.02 1064.37 752.02
00005041 00000151 749.34 172.13 529.74 758.92 823.05 517.03 1051.96 507.29 884.81 646.01 860.53 763.24 1065.59 753.31
00005042 DELETE   751.45 172.02 523.26 753.22 826.87 516.70 1052.03 505.92 888.71 642.35 863.18 761.25 1060.24 752.20
00005043 00000153 752.91 167.35 529.07 769.90 833.82 524.31 1065.38 516.81 894.50 652.83 871.18 774.25 1060.59 766.84
00005044 00000154 758.53 170.28 535.95 773.73 839.80 526.64 1072.73 519.88 901.76 659.13 875.44 782.68 1060.74 776.50
00005045 DELETE   760.80 168.97 543.28 781.53 846.21 526.19 1081.66 523.89 910.36 665.56 880.68 785.61 1067.43 783.23
00005046 DELETE   763.39 177.48 541.84 782.45 847.97 538.77 1089.66 536.22 917.55 676.64 883.69 797.60 1073.66 796.15
00005047 00000157 769.96 184.46 546.31 786.76 851.84 551.87 1093.86 543.83 926.94 684.74 886.82 810.68 1080.57 804.21
00005048 DELETE   768.20 187.71 548.60 808.49 856.16 559.33 1096.61 547.26 930.23 688.34 893.80 821.70 1098.32 810.83
00005049 00000159 770.31 192.97 547.23 805.48 862.07 563.12 1101.98 555.09 937.91 696.34 890.04 807.73 1116.28 798.92
00005050 00000160 765.55 201.90 553.53 785.42 862.79 564.37 1106.13 559.74 944.85 698.26 891.78 793.79 1121.08 786.15
00005051 00000161 763.01 192.72 551.47 785.78 859.51 558.86 1105.56 556.23 943.47 695.79 886.93 786.58 1121.85 780.47
00005052 00000162 760.29 191.12 548.78 782.05 856.21 554.16 1104.68 549.01 943.94 689.30 883.41 777.77 1125.52 769.20
00005053 00000163 756.54 184.56 543.19 782.25 850.20 545.24 1101.71 538.57 942.80 680.07 874.51 767.05 1124.89 757.07
00005054 00000164 750.34 181.09 541.03 778.88 846.46 537.85 1099.05 533.63 941.75 674.62 865.84 756.53 1122.07 748.70
00005055 DELETE   738.73 182.70 554.33 776.38 847.63 535.35 1105.67 534.28 950.61 671.51 860.17 750.57 1124.22 745.68
00005056 DELETE   744.11 178.62 553.95 779.18 857.03 522.69 1124.29 528.56 966.02 664.69 857.33 740.87 1134.97 741.65
00005057 00000167 741.72 169.71 555.71 786.31 856.95 513.54 1122.06 517.05 966.81 659.46 858.40 734.96 1137.52 733.79
00005058 00000168 734.42 168.80 552.70 795.58 848.13 513.87 1105.25 513.39 954.05 662.12 852.77 739.23 1126.26 735.35
