Video ID: 	UWYOjYqdn_c
H: 	1080
W: 	1920
FPS: 	25.0

FRAME INDEX X0 Y0 W H [Landmarks (5 Points)]

00004179 00000000 852.81 201.39 370.52 516.69 978.91 413.40 1151.88 425.06 1080.56 512.36 990.01 595.42 1126.64 606.43
00004180 00000001 854.07 212.61 371.87 514.07 980.23 418.48 1151.70 428.09 1082.13 524.28 990.80 605.38 1121.79 615.21
00004181 00000002 854.72 220.37 371.05 509.62 977.64 424.90 1148.77 432.71 1078.22 531.00 989.74 611.60 1118.64 619.97
00004182 00000003 854.22 227.99 371.82 512.06 975.75 428.71 1148.10 438.01 1074.56 535.18 983.49 615.73 1116.07 625.61
00004183 00000004 853.40 227.75 371.28 518.00 972.01 429.05 1146.31 439.63 1071.79 536.26 980.58 619.16 1116.32 629.86
00004184 00000005 857.32 232.89 367.73 513.96 972.34 425.84 1141.74 435.03 1069.58 537.07 975.85 620.59 1113.49 628.60
00004185 00000006 853.32 232.67 370.04 517.79 968.70 426.45 1139.83 434.74 1066.94 538.87 972.13 622.16 1111.30 629.35
00004186 00000007 849.80 230.11 371.53 522.89 966.52 429.19 1137.59 437.77 1063.77 541.70 967.66 623.18 1109.90 630.51
00004187 00000008 846.12 232.10 372.56 525.25 962.55 431.21 1135.94 438.68 1060.14 543.35 965.41 625.54 1109.05 631.68
00004188 00000009 842.15 231.91 371.70 523.89 957.28 433.57 1131.81 440.94 1056.35 544.10 962.93 627.41 1107.98 633.25
00004189 00000010 840.63 237.64 366.36 517.92 950.90 436.53 1129.44 443.29 1055.28 550.13 960.32 631.26 1107.21 637.45
00004190 00000011 836.01 233.69 367.12 522.52 947.43 438.19 1125.73 443.67 1051.98 553.79 959.16 633.11 1104.46 638.45
00004191 00000012 834.50 231.07 365.84 522.83 938.97 445.16 1121.50 448.39 1047.49 549.96 955.65 634.35 1105.95 637.61
00004192 00000013 830.09 229.03 366.13 528.29 935.69 444.24 1115.08 447.32 1042.60 549.24 951.37 636.44 1097.69 639.39
00004193 00000014 827.73 226.32 366.04 536.73 931.08 444.75 1112.27 445.90 1039.02 548.11 949.01 639.64 1098.25 640.61
00004194 00000015 825.58 225.71 365.56 537.41 928.68 445.17 1110.33 446.29 1036.09 548.47 947.10 642.31 1094.11 643.43
00004195 00000016 824.80 231.22 364.88 530.15 928.60 449.42 1111.61 452.18 1035.39 553.59 945.76 646.78 1090.59 649.71
00004196 DELETE   822.98 242.27 368.54 523.58 929.42 457.26 1110.81 460.79 1034.22 569.07 949.75 656.91 1084.49 660.22
00004197 DELETE   821.94 252.64 372.84 520.45 925.93 470.64 1109.04 476.00 1027.15 582.83 948.95 666.71 1083.51 671.41
00004198 DELETE   821.21 270.50 370.59 510.65 925.01 488.39 1101.61 490.26 1023.26 597.82 944.86 672.67 1081.24 675.14
00004199 00000020 819.46 277.94 367.00 506.40 921.61 493.25 1096.82 493.60 1019.00 601.52 941.83 676.08 1077.16 677.33
00004200 00000021 816.63 272.79 366.22 508.80 916.10 491.70 1091.86 490.18 1014.77 597.73 939.13 673.40 1075.51 672.75
00004201 00000022 811.75 266.61 366.05 509.48 910.17 484.01 1087.83 481.08 1009.28 590.69 935.99 668.04 1072.02 666.02
00004202 00000023 809.00 264.65 364.51 509.05 907.59 479.22 1086.02 475.57 1007.10 587.40 932.23 662.91 1072.34 660.34
00004203 00000024 809.31 268.44 362.43 504.18 907.60 482.57 1084.08 476.93 1007.26 589.11 933.07 662.62 1073.29 658.59
00004204 00000025 808.92 272.01 361.89 504.88 908.65 486.27 1083.71 479.70 1008.32 592.81 935.33 665.89 1073.21 661.08
00004205 00000026 808.86 270.74 360.36 509.16 908.08 485.36 1082.73 479.70 1007.95 591.94 932.87 665.59 1072.48 661.54
00004206 00000027 807.11 263.53 360.81 513.14 905.99 475.43 1082.11 471.13 1006.00 582.47 928.87 659.47 1071.44 656.06
00004207 00000028 807.52 254.29 357.89 513.67 905.35 463.55 1077.64 456.03 1003.60 570.03 927.00 651.07 1065.91 645.43
00004208 00000029 807.82 244.74 358.63 518.85 903.85 458.75 1075.55 451.96 1002.17 562.55 920.71 639.67 1069.48 634.82
00004209 00000030 809.59 236.21 358.86 522.88 903.50 454.76 1075.81 448.70 1002.30 558.18 919.81 635.54 1069.95 631.39
00004210 00000031 811.58 238.58 360.53 521.00 907.66 453.75 1079.86 448.81 1006.02 556.02 923.28 633.62 1073.33 630.19
00004211 00000032 815.46 234.78 358.64 522.90 911.19 453.66 1083.04 448.28 1010.78 555.62 927.47 631.85 1078.45 627.84
00004212 00000033 817.38 232.38 358.52 518.65 913.16 448.25 1085.49 442.65 1014.83 551.21 932.37 627.08 1082.44 622.72
00004213 DELETE   821.53 221.75 358.37 518.71 912.94 434.24 1088.57 424.04 1015.56 536.09 939.23 623.08 1082.12 614.30
00004214 00000035 822.06 210.68 358.64 522.33 917.93 423.93 1092.16 417.98 1015.76 523.22 944.68 612.11 1081.89 608.40
00004215 00000036 823.30 199.24 357.71 528.81 918.60 415.85 1093.90 407.73 1017.38 512.59 942.41 602.86 1087.44 597.36
00004216 00000037 823.56 193.01 358.40 530.95 918.91 411.15 1095.69 401.67 1019.75 507.12 942.77 598.53 1090.37 591.88
00004217 00000038 823.75 192.57 359.70 530.12 921.25 411.17 1097.16 402.39 1022.57 508.52 945.11 598.16 1091.17 591.98
00004218 00000039 824.34 199.43 359.84 522.99 922.92 417.74 1099.14 412.22 1022.22 510.95 945.78 599.50 1091.99 596.08
00004219 00000040 823.21 204.91 361.90 518.32 924.31 425.83 1097.62 422.40 1021.65 514.95 948.38 602.48 1090.53 600.52
00004220 00000041 823.76 208.78 360.67 516.19 924.02 426.56 1098.25 422.30 1023.02 517.04 949.92 604.53 1091.28 601.89
00004221 00000042 823.23 207.37 359.43 516.85 922.16 424.63 1097.73 419.37 1022.26 515.60 949.18 604.81 1091.18 601.48
00004222 00000043 817.96 198.56 361.19 523.13 916.08 419.29 1092.71 410.39 1018.11 512.53 945.69 603.89 1087.25 597.42
00004223 00000044 813.13 195.17 362.39 526.15 911.09 413.26 1086.96 401.91 1014.01 505.92 941.94 599.61 1085.34 590.91
00004224 00000045 812.01 186.10 361.98 524.02 907.27 398.89 1083.58 389.66 1008.79 491.83 941.45 592.56 1077.57 585.46
00004225 00000046 810.16 173.56 360.58 529.97 903.94 391.41 1078.16 382.25 1005.08 485.51 934.26 585.27 1073.48 577.85
00004226 00000047 807.35 168.59 358.66 523.58 900.03 388.85 1073.64 379.69 1002.70 478.16 928.04 573.79 1076.14 566.49
00004227 00000048 804.28 168.97 358.67 526.31 900.03 386.98 1068.85 375.41 1001.04 477.66 927.88 570.66 1072.76 561.24
00004228 00000049 802.53 171.95 356.87 524.15 900.69 386.69 1065.63 375.75 1000.33 477.18 929.29 570.18 1069.02 561.68
00004229 00000050 799.12 177.46 357.28 524.14 898.53 387.89 1065.74 377.27 999.05 481.94 926.93 574.60 1066.79 566.65
00004230 00000051 796.74 180.57 356.44 521.11 895.07 390.28 1061.69 379.83 993.92 488.46 926.81 582.23 1059.42 574.41
00004231 00000052 793.81 180.49 356.09 528.72 893.27 391.86 1060.19 384.98 990.95 490.66 924.19 587.72 1054.68 582.97
00004232 00000053 790.70 181.62 356.76 528.86 889.42 391.62 1059.63 385.28 988.25 490.62 920.39 588.28 1055.34 583.89
00004233 00000054 789.35 181.42 357.16 525.10 887.84 390.28 1058.53 385.90 984.79 489.23 914.77 583.18 1054.40 580.39
00004234 00000055 789.50 181.91 356.76 525.64 887.82 390.46 1058.51 386.43 984.62 489.48 914.68 582.75 1054.14 580.28
00004235 00000056 788.71 186.17 356.55 523.34 887.18 392.31 1059.38 389.31 984.55 491.33 914.64 585.24 1053.80 583.71
00004236 00000057 786.93 186.36 358.54 527.10 886.55 395.17 1058.28 392.28 985.29 494.19 915.12 588.72 1054.32 587.23
00004237 00000058 782.07 186.08 363.29 532.56 884.11 399.99 1055.63 396.84 984.40 496.15 913.66 590.58 1053.77 588.74
00004238 00000059 779.03 189.00 364.92 530.38 881.10 402.40 1054.29 398.65 981.51 497.21 910.91 591.21 1053.43 588.90
00004239 00000060 776.57 189.11 366.23 529.60 878.51 401.97 1052.18 399.09 977.90 496.30 907.97 590.36 1051.56 588.69
00004240 00000061 775.96 186.38 366.43 531.86 878.33 397.89 1050.53 396.47 976.65 492.01 908.18 586.61 1050.61 585.96
00004241 00000062 776.05 183.22 364.78 529.62 878.56 393.21 1051.14 392.61 976.95 488.29 907.64 583.56 1049.07 583.65
00004242 00000063 775.73 178.93 365.88 533.57 878.98 391.16 1050.89 389.64 978.18 486.02 908.49 581.71 1049.39 580.86
00004243 00000064 778.12 178.55 363.62 531.53 881.38 386.67 1052.52 385.41 979.73 484.10 910.68 581.44 1046.74 580.90
00004244 00000065 780.63 177.32 361.86 530.41 882.57 384.57 1054.04 382.98 980.71 479.07 911.08 577.62 1047.87 576.84
00004245 00000066 782.57 176.81 360.66 527.20 884.55 382.88 1057.04 381.73 982.83 474.75 910.48 573.30 1050.30 573.05
00004246 00000067 786.04 178.16 359.25 523.79 888.34 380.32 1059.24 380.79 985.33 473.24 912.06 570.11 1052.42 571.22
00004247 00000068 789.15 176.22 359.00 524.79 893.28 379.91 1061.87 379.52 989.57 470.08 914.99 564.58 1058.30 565.07
00004248 00000069 795.17 172.33 354.78 516.70 900.09 379.08 1066.76 375.76 999.78 469.94 921.88 561.03 1064.52 559.00
00004249 00000070 799.38 166.84 357.51 523.19 905.75 379.44 1072.12 375.77 1009.03 468.70 928.41 559.70 1072.76 557.08
00004250 00000071 804.34 165.31 357.88 525.39 909.69 379.60 1079.09 374.57 1016.70 468.19 936.05 561.93 1081.52 557.92
00004251 00000072 809.09 164.13 357.57 526.28 910.36 383.28 1083.91 375.91 1019.90 471.11 939.36 567.86 1087.28 561.72
00004252 00000073 809.22 168.65 360.33 525.90 913.50 384.89 1086.54 376.93 1023.29 475.47 946.83 576.06 1085.71 569.13
00004253 00000074 811.38 174.21 360.02 522.13 915.87 389.21 1089.79 381.14 1026.20 478.85 949.50 581.46 1087.13 574.63
00004254 00000075 814.74 179.76 359.81 524.32 920.99 395.52 1094.82 388.81 1031.71 481.68 952.29 582.35 1092.64 576.95
00004255 00000076 814.66 189.13 361.13 526.30 926.66 405.53 1098.55 400.06 1037.43 493.43 954.92 588.52 1095.47 584.40
00004256 00000077 819.65 204.09 359.95 523.71 932.11 414.43 1108.53 411.94 1044.05 508.15 957.78 599.09 1102.70 597.70
00004257 00000078 821.57 212.06 363.34 520.53 936.40 422.10 1113.18 420.43 1048.04 518.69 963.01 610.72 1103.07 609.94
00004258 00000079 823.97 222.96 363.25 516.37 939.44 431.32 1114.55 427.98 1050.37 529.16 969.73 621.07 1104.81 618.54
00004259 00000080 829.82 223.15 357.55 515.68 936.61 436.91 1117.16 433.59 1052.48 540.62 959.94 625.57 1110.96 623.98
00004260 00000081 825.34 227.92 358.14 519.05 932.14 451.32 1109.65 444.30 1046.02 546.92 956.35 632.13 1107.21 627.40
00004261 00000082 820.98 232.00 357.98 520.40 925.73 455.97 1102.13 445.72 1040.03 551.06 952.49 637.64 1101.92 629.85
00004262 00000083 814.78 238.97 361.33 519.67 918.75 460.24 1093.74 449.07 1030.79 554.68 949.27 643.20 1094.83 634.06
00004263 00000084 808.29 237.85 362.57 524.79 910.35 459.09 1084.53 446.10 1020.04 555.88 946.44 651.14 1084.39 639.42
00004264 00000085 804.90 241.14 363.52 531.68 907.81 460.31 1080.45 447.25 1014.66 557.46 941.79 653.47 1079.52 642.08
00004265 00000086 802.26 245.77 363.43 527.06 904.28 462.08 1078.79 448.65 1011.06 562.14 939.08 658.18 1075.19 646.97
00004266 00000087 801.07 250.04 364.17 525.48 904.73 463.00 1079.72 450.03 1011.60 564.12 937.95 660.91 1072.19 650.41
00004267 00000088 801.05 246.65 362.73 529.22 905.19 461.06 1078.81 449.10 1011.17 562.11 937.51 659.73 1070.70 650.13
00004268 00000089 801.76 236.18 361.35 535.17 904.84 457.37 1075.89 446.79 1009.06 556.77 936.92 653.71 1071.81 644.80
00004269 00000090 801.09 234.80 360.06 532.16 905.72 452.68 1075.92 441.40 1011.53 550.97 936.29 647.75 1072.23 638.44
00004270 00000091 801.55 234.23 361.16 528.77 904.71 445.83 1076.51 435.92 1011.23 545.47 932.22 639.39 1074.84 630.96
00004271 00000092 802.94 228.56 362.37 527.48 905.24 435.73 1078.67 426.58 1012.21 534.12 930.82 631.72 1073.20 623.70
00004272 00000093 802.95 223.43 362.24 519.57 905.96 426.75 1080.22 418.69 1013.76 524.00 927.64 619.41 1071.01 612.72
00004273 00000094 797.99 207.54 367.59 530.20 907.35 423.72 1087.11 422.77 1015.40 520.69 929.80 609.42 1074.41 610.11
00004274 00000095 800.35 205.06 368.11 528.20 908.62 417.70 1089.97 419.39 1014.85 513.27 929.74 604.59 1074.55 607.51
00004275 00000096 803.02 199.84 367.39 533.91 910.12 411.90 1091.59 414.14 1015.79 505.84 928.65 600.84 1077.58 604.07
00004276 00000097 803.04 195.25 367.41 536.01 908.82 406.04 1093.88 410.32 1016.69 500.13 924.90 594.75 1082.10 599.30
00004277 00000098 804.05 194.62 363.91 527.16 910.25 400.84 1093.21 405.78 1017.45 497.16 926.90 591.51 1078.15 596.61
00004278 00000099 803.45 191.93 364.53 529.44 910.97 395.59 1090.93 400.75 1014.47 491.60 927.16 587.85 1073.90 593.05
00004279 00000100 804.05 187.63 363.60 531.98 910.10 390.55 1087.78 394.01 1012.81 486.48 926.80 585.61 1071.12 589.63
00004280 00000101 805.45 182.17 360.83 531.90 908.74 388.57 1084.19 389.04 1010.54 484.36 927.13 582.81 1071.72 584.27
00004281 00000102 805.79 182.19 359.27 531.43 906.96 388.80 1083.01 388.65 1008.29 485.14 928.05 584.29 1071.31 584.99
00004282 00000103 805.54 187.37 359.86 530.89 906.13 392.25 1084.64 393.87 1006.56 486.56 926.95 586.83 1070.78 589.02
00004283 00000104 804.28 192.97 361.02 530.66 904.98 404.43 1084.50 407.20 1006.14 492.10 924.46 591.07 1072.89 594.39
00004284 00000105 803.30 194.93 364.96 534.42 908.09 414.63 1085.20 419.57 1006.06 499.77 925.32 595.30 1071.71 600.72
00004285 00000106 803.39 198.30 364.43 531.99 907.67 417.18 1087.29 421.14 1007.47 503.42 926.88 600.08 1073.11 604.77
00004286 00000107 804.19 198.47 364.90 531.01 907.26 416.22 1088.30 419.35 1008.60 503.23 929.14 601.42 1075.97 605.32
00004287 00000108 805.56 196.38 364.83 532.08 908.19 414.50 1089.56 416.79 1011.44 502.15 928.36 599.14 1078.01 602.36
00004288 00000109 807.67 196.31 365.58 528.58 911.27 412.25 1090.65 413.72 1014.26 502.35 929.69 593.94 1080.50 596.25
00004289 00000110 808.76 198.78 365.45 526.11 913.24 411.38 1090.73 413.30 1014.79 502.90 930.15 592.89 1078.82 595.72
00004290 00000111 810.19 200.53 365.00 528.28 913.35 412.72 1092.65 416.57 1014.28 503.73 930.30 595.86 1080.17 600.31
00004291 00000112 810.21 200.13 365.36 527.94 914.47 414.77 1091.41 418.50 1012.93 506.71 934.82 601.99 1073.78 606.68
00004292 00000113 809.32 202.35 364.17 526.53 912.25 417.01 1092.89 421.73 1010.95 508.50 930.74 603.78 1074.01 609.45
00004293 00000114 807.33 205.27 364.09 524.90 910.43 417.73 1092.01 421.85 1010.39 509.54 928.35 603.95 1073.39 609.19
00004294 00000115 804.72 203.35 364.80 528.23 908.42 417.89 1091.28 421.70 1010.10 511.66 926.88 604.51 1073.62 609.35
00004295 00000116 803.48 203.98 363.85 526.72 906.36 418.52 1089.02 421.42 1008.76 511.82 926.34 605.17 1072.69 609.14
00004296 00000117 802.41 204.94 363.22 525.45 905.25 419.24 1087.15 422.03 1007.67 513.31 924.91 606.19 1069.80 610.17
00004297 00000118 800.93 206.19 362.51 525.02 903.87 420.25 1084.66 423.09 1006.02 512.66 924.82 606.40 1068.86 610.28
00004298 00000119 799.86 205.88 363.04 528.78 905.27 422.25 1080.74 424.57 1007.22 515.56 928.90 611.65 1062.58 615.21
00004299 00000120 798.99 206.91 363.26 529.45 904.93 422.49 1080.27 424.87 1007.37 517.11 927.75 611.89 1062.07 615.54
00004300 00000121 798.99 206.36 363.31 527.45 904.52 422.87 1080.65 424.82 1007.17 517.14 927.66 611.44 1063.43 614.69
00004301 00000122 799.80 207.50 362.32 525.05 903.80 420.73 1082.87 422.40 1007.23 516.31 927.45 611.01 1065.54 613.95
00004302 00000123 801.08 208.42 360.57 524.00 903.12 416.65 1085.23 416.86 1008.95 513.19 926.10 608.78 1069.20 610.52
00004303 00000124 801.72 201.64 363.01 529.99 903.06 408.74 1087.55 410.07 1009.33 506.72 923.96 603.97 1069.98 606.56
00004304 00000125 804.94 200.08 359.38 525.45 904.84 404.56 1089.57 405.63 1012.06 499.60 925.12 598.01 1073.96 600.07
00004305 00000126 806.63 197.05 359.64 523.99 907.59 398.34 1092.24 402.33 1013.88 492.17 927.68 593.55 1074.43 597.91
00004306 00000127 809.30 197.33 359.15 518.64 910.00 392.78 1095.16 398.58 1015.06 488.51 929.89 589.92 1076.26 595.67
00004307 00000128 809.09 193.93 361.44 522.57 912.45 397.02 1095.12 403.45 1017.06 492.37 931.46 590.36 1077.85 596.45
00004308 00000129 809.79 197.62 364.08 527.41 913.04 407.22 1095.24 410.64 1017.39 501.17 931.45 596.88 1079.98 600.91
00004309 00000130 813.41 212.25 362.00 514.41 916.39 419.62 1096.26 426.68 1014.02 510.05 931.21 601.93 1077.65 609.45
00004310 00000131 815.91 215.55 360.76 521.94 920.04 426.88 1095.00 433.26 1016.19 519.99 936.04 610.44 1076.43 617.24
00004311 00000132 817.82 221.21 360.04 517.88 921.77 428.58 1096.56 435.52 1017.88 526.00 937.94 613.77 1076.48 621.00
00004312 00000133 819.50 221.14 360.05 518.82 924.47 430.37 1098.81 438.68 1019.37 528.28 939.36 614.83 1077.72 623.12
00004313 00000134 822.31 224.67 360.09 519.01 927.62 431.35 1103.59 441.81 1023.62 528.24 939.28 613.97 1082.35 623.91
00004314 00000135 823.66 225.36 362.18 517.67 929.71 431.53 1105.49 443.39 1026.10 526.66 940.00 612.06 1084.69 623.05
00004315 00000136 823.88 223.81 364.34 520.40 931.06 430.91 1106.05 443.63 1026.44 525.85 940.24 611.60 1084.31 623.29
00004316 00000137 824.45 221.98 364.92 522.22 932.06 430.70 1106.58 443.63 1027.67 525.24 941.12 611.43 1084.75 623.34
00004317 00000138 823.69 222.42 364.98 521.63 931.17 430.54 1106.02 443.45 1027.16 525.65 941.85 612.88 1083.66 624.68
00004318 00000139 823.03 225.42 364.41 518.61 929.42 433.10 1102.41 444.49 1024.49 528.77 941.89 614.93 1081.22 625.38
00004319 DELETE   825.90 225.38 357.41 518.66 928.15 436.26 1100.32 447.61 1024.06 530.82 933.85 619.45 1076.28 629.73
00004320 00000141 823.44 230.23 357.43 518.99 925.83 439.79 1102.17 450.65 1023.39 539.73 930.88 622.82 1079.94 633.13
00004321 00000142 821.28 230.81 358.73 521.29 923.91 438.24 1101.54 447.79 1023.38 540.35 930.70 624.56 1080.83 633.40
00004322 00000143 821.57 225.85 357.00 518.62 922.83 429.99 1101.04 440.01 1023.15 532.93 930.97 618.77 1081.28 627.94
00004323 00000144 820.43 220.80 360.73 512.66 926.21 419.33 1103.52 430.75 1023.39 517.67 939.19 606.76 1080.01 617.91
00004324 00000145 821.07 209.41 361.64 518.30 930.52 407.44 1107.63 422.36 1028.46 501.65 940.84 595.73 1084.74 609.70
00004325 00000146 822.04 196.94 362.03 525.94 934.63 394.85 1112.26 411.01 1035.88 487.97 941.66 586.75 1087.83 601.91
00004326 00000147 824.66 195.92 361.20 525.37 938.97 390.62 1116.36 406.13 1042.28 487.25 943.21 584.00 1090.02 598.91
00004327 00000148 827.21 206.92 360.97 516.42 941.63 400.04 1116.90 416.20 1042.17 497.50 945.68 588.22 1091.26 603.60
00004328 00000149 826.87 218.07 365.66 513.61 943.53 408.26 1119.40 427.54 1042.77 509.96 947.46 596.88 1089.18 614.42
00004329 00000150 826.65 222.82 363.23 510.01 939.81 411.19 1115.81 428.45 1040.11 518.18 939.03 602.68 1082.14 617.96
CROP_BBOX: 469 0 1410 918
