Video ID: 	bBmD7djGcJk
H: 	2160
W: 	3840
FPS: 	25.0

FRAME INDEX X0 Y0 W H [Landmarks (5 Points)]

00006730 00000000 1432.21 447.67 694.57 875.88 1603.03 724.55 1899.05 670.38 1772.66 850.81 1695.48 1047.58 1945.51 999.66
00006731 00000001 1425.00 449.09 698.63 883.62 1594.32 727.28 1889.10 668.78 1763.74 859.90 1691.49 1053.29 1940.75 1001.35
00006732 DELETE   1424.11 458.05 699.94 880.55 1592.50 732.11 1885.56 673.57 1758.77 873.94 1688.21 1059.61 1934.98 1008.44
00006733 00000003 1423.36 462.04 701.91 882.69 1592.11 739.00 1886.69 680.41 1759.90 891.79 1684.72 1068.75 1936.71 1018.30
00006734 00000004 1418.13 473.17 706.60 873.48 1595.80 752.10 1886.21 697.03 1760.19 909.89 1681.47 1079.59 1930.78 1029.36
00006735 DELETE   1420.84 467.04 698.21 875.46 1593.31 754.75 1889.65 707.04 1761.51 912.61 1673.54 1078.33 1934.31 1037.80
00006736 00000006 1420.19 464.55 695.32 875.97 1593.64 754.25 1890.43 708.76 1762.28 914.16 1672.75 1078.43 1931.14 1039.96
00006737 00000007 1418.42 461.21 693.61 873.11 1591.99 754.60 1890.58 708.65 1763.70 913.04 1675.30 1077.94 1927.60 1038.88
00006738 00000008 1414.83 458.52 694.98 872.86 1588.72 752.59 1891.11 708.88 1760.38 916.10 1674.42 1080.88 1922.77 1043.77
00006739 00000009 1410.88 456.07 696.99 875.20 1586.87 751.82 1890.28 709.19 1758.85 918.82 1673.43 1082.73 1921.04 1046.31
00006740 00000010 1411.15 460.76 696.13 873.82 1588.54 752.31 1888.09 710.48 1759.21 914.55 1680.42 1089.74 1912.03 1054.36
00006741 00000011 1414.43 484.04 692.24 854.02 1594.73 758.67 1885.61 718.71 1759.71 914.68 1679.49 1087.63 1914.26 1053.70
00006742 00000012 1410.21 481.16 693.91 863.50 1592.52 762.96 1880.80 718.55 1757.30 921.68 1677.42 1091.23 1913.08 1051.10
00006743 00000013 1411.68 464.05 691.06 875.55 1586.73 764.31 1884.72 719.78 1757.56 917.98 1671.37 1088.99 1918.96 1049.11
00006744 00000014 1405.48 458.27 694.68 879.05 1579.63 764.46 1880.85 719.16 1752.20 917.48 1667.21 1090.35 1915.02 1049.90
00006745 00000015 1398.39 456.64 698.58 884.35 1573.17 763.89 1876.64 716.36 1747.31 920.03 1662.19 1090.02 1912.56 1047.50
00006746 00000016 1393.68 457.06 700.30 888.75 1568.74 763.20 1872.68 715.09 1744.64 918.83 1663.61 1094.10 1908.83 1051.70
00006747 00000017 1390.92 457.24 705.45 892.42 1565.14 763.55 1873.22 714.36 1742.87 919.36 1660.07 1100.42 1911.94 1056.99
00006748 00000018 1392.37 465.15 705.86 889.44 1566.67 760.88 1873.53 713.00 1742.82 915.01 1665.49 1102.34 1908.49 1060.10
00006749 00000019 1392.50 466.46 705.65 886.08 1566.04 761.73 1871.26 713.02 1740.55 915.77 1666.76 1100.43 1906.63 1057.34
00006750 00000020 1392.11 464.71 704.96 888.53 1565.06 760.39 1870.11 711.95 1738.15 915.74 1662.96 1099.24 1905.33 1056.35
00006751 00000021 1393.28 464.50 703.61 881.24 1563.62 760.66 1869.23 712.51 1735.13 914.83 1658.55 1094.73 1905.44 1051.70
00006752 00000022 1395.68 460.71 699.38 886.97 1564.18 765.16 1870.00 716.40 1734.02 911.45 1654.85 1091.57 1904.97 1048.07
00006753 00000023 1395.31 454.61 700.14 893.22 1564.58 766.97 1870.26 717.92 1734.08 912.96 1654.34 1092.12 1904.68 1048.47
00006754 00000024 1394.83 454.79 701.67 892.85 1564.50 767.48 1871.65 717.81 1734.96 913.21 1653.59 1091.84 1906.63 1047.46
00006755 00000025 1394.79 455.57 702.81 893.23 1565.18 767.26 1872.17 718.32 1735.77 913.42 1654.09 1092.25 1907.60 1048.37
00006756 00000026 1395.82 453.80 702.06 894.75 1565.06 765.92 1871.71 717.46 1734.68 913.37 1653.67 1093.72 1906.60 1050.31
00006757 00000027 1396.29 455.44 702.47 894.07 1565.79 765.94 1871.82 716.75 1735.98 914.28 1654.28 1093.73 1909.10 1049.46
00006758 00000028 1395.42 457.11 701.94 889.59 1564.82 767.75 1872.90 719.20 1736.91 913.50 1653.82 1096.47 1909.19 1052.99
00006759 00000029 1394.74 454.07 701.91 890.00 1564.97 769.51 1874.01 721.65 1738.98 917.01 1656.71 1099.46 1908.20 1057.05
00006760 00000030 1393.65 459.57 702.21 885.40 1563.33 772.04 1872.23 723.36 1736.54 919.16 1656.99 1101.72 1907.24 1058.39
00006761 00000031 1392.06 462.11 701.08 880.47 1563.66 770.92 1870.59 724.31 1735.82 918.54 1654.64 1099.46 1906.58 1057.84
00006762 00000032 1390.36 462.28 700.96 878.57 1561.96 769.61 1869.78 724.52 1734.96 918.45 1653.78 1099.26 1902.94 1059.28
00006763 00000033 1389.58 463.96 701.65 875.65 1561.29 770.94 1868.10 725.32 1734.25 918.87 1653.98 1100.11 1903.24 1059.58
00006764 00000034 1391.16 465.27 701.03 879.10 1560.90 772.10 1868.32 727.00 1732.89 923.03 1653.70 1104.82 1902.27 1064.95
00006765 00000035 1391.47 464.19 702.76 887.83 1562.13 776.76 1869.97 730.88 1733.47 930.78 1655.99 1108.47 1904.78 1067.45
00006766 00000036 1396.76 475.68 697.72 890.01 1570.52 784.87 1867.07 740.66 1733.01 940.07 1654.45 1109.18 1899.16 1069.53
00006767 DELETE   1399.48 491.07 697.28 888.67 1582.20 784.56 1872.69 740.50 1742.55 952.17 1666.43 1113.78 1905.84 1075.53
00006768 DELETE   1401.11 484.76 699.50 893.55 1583.85 788.16 1881.26 744.75 1749.41 958.36 1666.12 1115.93 1910.17 1078.62
00006769 00000039 1403.64 464.54 696.59 899.62 1583.49 794.65 1883.13 751.94 1748.91 962.92 1660.37 1117.93 1911.37 1079.81
00006770 00000040 1402.58 466.20 697.51 891.31 1582.04 795.53 1881.96 750.95 1749.27 965.55 1663.26 1116.27 1911.59 1076.47
00006771 00000041 1399.67 462.39 699.52 896.45 1580.34 795.38 1881.24 749.51 1749.22 965.70 1663.88 1116.60 1912.31 1075.86
00006772 00000042 1398.76 471.33 700.47 887.85 1578.91 796.26 1880.27 747.72 1750.06 963.03 1666.00 1118.50 1914.75 1075.05
00006773 00000043 1399.07 466.59 697.15 889.47 1578.23 796.51 1877.87 749.47 1747.63 963.93 1666.17 1117.36 1909.83 1075.79
00006774 00000044 1397.57 463.16 697.66 891.64 1575.05 797.11 1874.83 749.11 1743.79 964.27 1667.58 1118.50 1908.66 1076.11
00006775 00000045 1397.59 471.28 696.21 881.22 1574.51 796.34 1873.86 748.55 1743.09 960.67 1670.54 1119.16 1907.34 1076.70
00006776 00000046 1397.19 473.31 696.77 872.20 1570.98 794.22 1872.66 746.55 1739.70 957.74 1671.52 1116.91 1902.94 1074.43
00006777 00000047 1398.41 470.10 695.72 871.10 1569.86 790.35 1870.71 742.00 1737.45 956.07 1669.80 1110.60 1902.89 1067.47
00006778 00000048 1401.32 465.67 696.75 878.27 1571.12 788.45 1872.31 740.01 1737.42 951.83 1667.84 1105.68 1905.35 1062.76
00006779 00000049 1409.77 465.23 691.85 882.89 1580.27 789.15 1874.95 742.34 1739.97 945.61 1665.09 1102.99 1910.24 1061.19
00006780 00000050 1412.88 463.70 690.81 889.44 1583.79 788.01 1874.95 741.78 1738.98 939.68 1666.89 1104.99 1912.31 1063.96
00006781 00000051 1407.11 482.13 696.57 864.65 1584.14 782.32 1872.06 738.62 1740.31 934.15 1667.95 1101.51 1913.17 1063.60
00006782 00000052 1404.79 474.70 703.20 867.75 1577.38 776.55 1875.55 729.17 1741.88 930.46 1672.41 1100.50 1915.28 1059.19
00006783 00000053 1403.71 468.64 703.36 869.84 1576.78 770.51 1877.39 722.34 1744.70 923.23 1671.19 1097.87 1916.90 1056.11
00006784 00000054 1406.22 464.58 702.99 871.80 1578.65 766.84 1878.39 717.34 1747.76 919.16 1674.89 1096.21 1920.49 1053.52
00006785 00000055 1410.23 468.05 702.80 869.26 1580.05 765.14 1880.32 715.58 1748.51 915.14 1678.09 1095.58 1920.67 1052.85
00006786 00000056 1418.46 467.14 700.51 867.42 1583.58 763.03 1883.91 714.21 1748.52 912.94 1682.93 1092.32 1921.72 1050.20
00006787 00000057 1425.06 466.85 696.82 863.27 1588.28 761.91 1886.34 715.00 1750.37 912.88 1682.38 1089.08 1922.63 1048.54
00006788 00000058 1431.73 464.01 694.16 865.59 1592.55 759.64 1889.69 712.17 1754.06 909.82 1689.63 1088.56 1926.22 1048.03
00006789 00000059 1437.16 463.88 696.41 869.70 1596.80 755.30 1894.91 707.61 1759.19 906.51 1695.61 1086.43 1933.10 1045.64
00006790 00000060 1437.88 465.05 697.89 872.52 1600.77 756.87 1892.30 707.74 1759.36 911.08 1694.91 1088.71 1926.20 1044.15
00006791 00000061 1446.76 461.86 690.91 871.94 1599.33 753.33 1896.37 706.84 1756.66 903.69 1692.40 1082.39 1934.34 1042.71
00006792 00000062 1449.63 464.03 689.70 865.92 1596.97 753.75 1894.48 706.25 1751.66 903.97 1690.58 1080.43 1932.75 1039.79
00006793 00000063 1452.01 465.07 687.43 857.81 1596.42 752.97 1894.74 706.67 1750.39 904.12 1688.31 1078.89 1931.40 1039.24
00006794 00000064 1455.36 462.73 683.90 852.12 1597.71 751.17 1896.40 704.88 1750.19 902.43 1686.49 1077.42 1932.40 1037.82
00006795 00000065 1457.65 459.39 682.82 854.31 1599.99 750.14 1899.56 703.87 1752.30 901.25 1687.79 1075.86 1933.13 1036.54
00006796 00000066 1460.64 463.14 683.11 850.53 1604.67 749.61 1904.51 704.65 1757.35 901.82 1691.51 1075.85 1934.42 1037.91
00006797 00000067 1463.79 463.84 684.53 858.10 1611.10 748.34 1909.90 705.26 1762.20 903.74 1695.66 1078.30 1938.49 1042.19
00006798 00000068 1467.29 459.60 686.80 868.51 1617.55 749.36 1916.01 707.02 1766.95 904.25 1698.36 1078.47 1941.85 1042.86
00006799 00000069 1469.40 458.59 686.40 868.67 1621.68 748.90 1922.72 708.82 1772.51 904.10 1699.78 1078.25 1943.24 1044.68
00006800 00000070 1468.96 467.01 688.48 864.02 1628.41 749.94 1928.22 705.78 1776.74 904.41 1699.42 1087.44 1941.34 1046.02
00006801 00000071 1473.86 477.77 682.11 851.05 1633.09 754.48 1928.34 712.38 1777.14 906.30 1700.17 1085.22 1940.92 1045.37
00006802 00000072 1478.55 469.83 676.91 855.89 1635.44 756.25 1925.37 718.85 1779.11 904.88 1702.14 1074.94 1944.55 1043.17
00006803 00000073 1477.45 468.71 678.66 853.93 1634.59 756.69 1928.26 719.85 1780.50 906.04 1700.22 1072.48 1946.11 1040.89
00006804 00000074 1475.08 456.67 680.26 864.86 1630.05 753.35 1928.03 715.11 1779.90 906.01 1698.26 1071.73 1947.15 1039.00
00006805 00000075 1474.80 453.81 680.70 866.06 1627.82 750.43 1926.65 712.11 1777.87 905.73 1697.07 1071.08 1947.39 1038.32
00006806 00000076 1473.71 452.90 682.02 867.89 1626.49 749.56 1926.56 711.17 1776.79 905.69 1696.50 1072.07 1947.48 1039.14
00006807 00000077 1473.44 449.84 681.88 870.43 1626.61 750.11 1926.56 711.60 1777.38 906.77 1697.74 1073.62 1947.37 1040.73
00006808 00000078 1474.19 452.44 680.54 866.59 1628.24 751.25 1928.06 713.73 1779.67 909.09 1701.15 1077.32 1947.52 1045.30
00006809 00000079 1473.09 448.74 683.93 871.23 1630.13 750.65 1929.81 715.96 1780.45 910.01 1702.98 1079.55 1943.35 1050.16
00006810 00000080 1473.69 447.53 683.60 874.67 1631.56 751.51 1930.26 717.59 1781.42 912.26 1704.04 1082.20 1942.75 1053.42
00006811 00000081 1474.35 443.73 684.86 880.16 1632.25 752.28 1930.68 718.74 1781.21 913.36 1703.88 1083.39 1942.57 1054.92
00006812 00000082 1474.37 444.61 684.65 878.59 1632.71 751.75 1931.61 718.33 1782.25 912.71 1704.93 1083.91 1941.93 1055.57
00006813 00000083 1476.80 445.78 684.16 877.67 1634.33 751.38 1932.94 718.77 1782.10 911.87 1706.21 1084.21 1940.72 1056.80
00006814 00000084 1477.79 443.38 683.62 879.06 1635.01 749.81 1934.89 717.90 1782.69 910.69 1706.62 1083.49 1938.87 1056.87
00006815 00000085 1480.88 439.04 680.77 881.93 1636.66 749.21 1935.14 717.63 1782.57 908.83 1708.63 1084.21 1937.98 1058.11
00006816 00000086 1483.47 440.93 678.33 880.25 1637.61 747.91 1935.99 717.05 1782.95 907.89 1708.92 1085.86 1937.06 1060.43
00006817 00000087 1484.72 439.76 678.36 883.97 1639.57 745.36 1937.20 716.63 1782.24 905.04 1712.22 1088.33 1931.60 1065.04
00006818 00000088 1475.41 454.78 687.05 877.58 1639.05 739.90 1937.38 706.76 1787.10 902.44 1718.95 1095.41 1922.43 1065.92
00006819 00000089 1478.40 470.66 687.85 862.77 1644.60 737.48 1941.37 705.30 1791.39 896.03 1723.47 1094.43 1920.84 1065.76
00006820 00000090 1487.32 475.70 684.76 859.11 1653.68 734.19 1949.57 707.86 1801.02 895.12 1728.78 1092.07 1924.06 1069.07
00006821 00000091 1497.14 487.88 685.28 847.96 1663.24 732.23 1961.22 706.50 1811.47 891.47 1734.76 1087.82 1940.27 1065.30
00006822 00000092 1508.54 472.28 687.27 860.60 1679.30 726.54 1982.90 711.13 1826.48 889.22 1741.07 1084.78 1956.91 1070.70
00006823 00000093 1516.88 471.35 682.76 861.43 1694.04 724.71 2004.35 716.50 1846.27 887.33 1745.29 1083.52 1972.56 1075.47
00006824 00000094 1526.48 487.09 679.26 851.10 1710.23 723.08 2016.66 721.82 1859.50 889.05 1751.35 1078.78 1978.08 1077.55
00006825 00000095 1532.67 480.80 677.62 856.52 1719.56 720.05 2026.02 724.39 1869.15 885.76 1755.69 1073.57 1980.08 1077.60
00006826 00000096 1538.86 473.88 673.40 860.17 1726.69 716.30 2032.06 724.18 1876.49 882.87 1759.25 1069.09 1982.94 1076.51
00006827 00000097 1542.24 461.34 673.12 872.75 1731.54 711.73 2037.28 723.39 1881.39 879.67 1760.86 1066.22 1985.57 1077.25
00006828 00000098 1544.93 458.63 672.77 874.78 1738.45 711.08 2044.38 725.81 1889.69 879.88 1762.52 1063.29 1990.53 1077.27
00006829 00000099 1542.88 457.14 678.98 880.72 1740.63 710.85 2055.37 725.48 1896.28 877.46 1762.83 1058.86 2006.46 1070.99
00006830 00000100 1546.77 456.45 679.27 876.52 1744.56 711.06 2061.44 726.79 1902.43 880.90 1765.38 1056.73 2013.92 1069.95
00006831 00000101 1552.02 453.74 677.96 873.92 1748.62 712.63 2065.23 729.21 1904.87 882.98 1768.18 1054.10 2018.89 1068.02
00006832 00000102 1555.62 449.74 678.23 876.25 1753.73 713.08 2069.67 730.74 1910.56 883.41 1770.59 1053.04 2025.48 1067.96
00006833 00000103 1561.31 447.24 679.67 875.85 1761.31 711.65 2078.43 731.95 1918.47 880.06 1774.84 1049.57 2031.76 1067.02
00006834 00000104 1565.73 439.88 681.38 882.67 1767.48 709.36 2083.81 731.64 1924.76 882.91 1778.12 1047.82 2036.11 1067.34
00006835 00000105 1574.02 456.69 674.98 866.13 1777.11 713.60 2086.34 738.20 1929.83 884.28 1783.15 1045.73 2037.25 1067.44
00006836 00000106 1575.53 464.04 677.62 857.96 1780.97 713.58 2087.58 737.59 1931.78 884.39 1787.78 1046.83 2038.46 1067.69
00006837 00000107 1578.23 456.11 678.83 863.81 1784.38 714.82 2094.05 741.02 1937.27 885.88 1792.73 1049.35 2041.74 1071.49
00006838 00000108 1575.66 432.01 685.77 884.85 1783.56 712.92 2100.91 740.10 1942.57 887.25 1793.89 1053.35 2048.30 1075.69
00006839 00000109 1579.89 431.04 683.39 882.52 1785.81 712.66 2103.76 738.38 1945.02 889.04 1800.50 1053.65 2050.48 1074.47
00006840 00000110 1580.67 438.12 682.90 876.26 1786.80 713.02 2105.33 739.18 1947.19 888.31 1801.45 1053.88 2051.97 1075.01
00006841 00000111 1582.44 432.90 682.57 883.26 1789.28 713.06 2108.71 739.50 1950.77 890.10 1803.21 1056.19 2056.05 1077.43
00006842 00000112 1583.79 435.08 681.48 877.90 1791.25 712.99 2109.80 739.11 1953.59 890.88 1804.73 1055.60 2059.13 1076.33
00006843 00000113 1583.93 439.68 683.30 876.17 1794.53 711.80 2112.50 736.76 1959.70 892.80 1807.24 1054.91 2064.61 1075.04
00006844 00000114 1584.20 439.77 685.38 881.65 1795.91 710.57 2114.15 735.89 1960.81 893.63 1810.84 1056.24 2060.64 1077.08
00006845 00000115 1585.82 441.26 685.00 880.00 1798.32 709.19 2116.00 734.16 1963.44 894.30 1816.73 1057.17 2057.21 1077.67
00006846 00000116 1584.61 438.82 687.46 884.01 1801.25 708.29 2118.23 733.97 1967.32 894.52 1819.34 1059.58 2056.49 1080.69
00006847 00000117 1588.46 442.11 685.69 880.66 1806.68 708.84 2121.15 734.96 1971.70 896.36 1824.28 1060.56 2056.52 1082.11
CROP_BBOX: 1036 0 2614 1665
