Video ID: 	yfYchU1gpOY
H: 	2160
W: 	3840
FPS: 	23.976023976023978

FRAME INDEX X0 Y0 W H [Landmarks (5 Points)]

00032752 00000000 1730.93 568.53 573.65 677.31 1885.21 866.05 2160.11 844.14 2035.62 1034.61 1899.49 1053.17 2171.78 1029.97
00032753 DELETE   1719.29 635.63 578.04 647.83 1877.02 932.48 2155.61 913.12 2028.32 1094.07 1897.55 1089.79 2161.98 1068.57
00032754 00000002 1708.56 715.59 589.24 596.10 1866.56 977.65 2145.32 960.34 2010.83 1141.18 1885.89 1128.94 2147.02 1109.03
00032755 00000003 1696.59 776.54 594.14 563.86 1854.20 1025.07 2148.13 1011.10 2019.71 1191.80 1880.53 1161.05 2142.84 1144.60
00032756 DELETE   1685.12 836.60 615.71 523.94 1857.85 1064.05 2148.69 1043.02 2016.85 1224.26 1883.13 1184.84 2137.46 1167.12
00032757 00000005 1690.46 853.62 602.94 513.65 1854.85 1086.25 2133.53 1057.29 2008.08 1240.25 1891.90 1198.11 2138.73 1170.85
00032758 00000006 1687.32 865.08 606.49 504.50 1854.74 1099.15 2133.32 1072.41 2007.41 1245.88 1885.19 1201.25 2131.44 1178.08
00032759 00000007 1686.70 877.18 606.80 492.85 1854.35 1102.50 2130.44 1077.95 2005.43 1253.03 1886.81 1207.96 2129.48 1187.02
00032760 00000008 1685.09 877.77 609.96 496.39 1855.14 1107.29 2129.13 1076.63 2007.98 1252.42 1894.21 1213.85 2131.91 1187.99
00032761 00000009 1685.84 875.75 610.24 498.28 1855.44 1108.47 2129.46 1077.95 2007.21 1253.44 1893.27 1211.54 2132.95 1185.62
00032762 00000010 1687.12 877.04 606.55 493.47 1855.52 1101.18 2133.07 1073.19 2008.90 1252.03 1886.83 1207.71 2132.34 1184.30
00032763 00000011 1687.79 870.26 606.66 496.22 1854.93 1096.84 2133.69 1069.52 2008.52 1242.25 1886.11 1201.40 2134.04 1178.27
00032764 00000012 1686.73 862.24 606.05 501.43 1853.93 1096.63 2134.00 1064.62 2010.62 1242.78 1890.19 1198.96 2138.54 1170.73
00032765 00000013 1691.21 853.43 604.16 511.47 1857.42 1090.41 2136.81 1059.17 2011.89 1237.68 1891.19 1197.41 2138.06 1169.70
00032766 00000014 1693.33 852.20 604.54 512.50 1860.08 1080.31 2139.02 1054.47 2011.40 1234.27 1891.43 1195.21 2137.37 1171.61
00032767 00000015 1696.12 845.93 601.23 517.04 1862.31 1080.11 2135.40 1052.97 2010.52 1228.01 1891.23 1192.91 2134.73 1168.48
00032768 00000016 1697.00 842.54 604.11 521.24 1863.31 1080.43 2134.98 1056.48 2009.49 1226.89 1892.22 1189.02 2136.29 1166.87
00032769 00000017 1698.35 840.13 606.12 527.00 1864.81 1080.15 2140.49 1056.19 2013.67 1228.29 1893.85 1192.70 2139.51 1171.02
00032770 00000018 1697.95 840.70 605.52 525.42 1864.47 1083.31 2140.31 1058.05 2013.84 1229.44 1893.27 1192.86 2138.65 1170.16
00032771 00000019 1700.52 841.25 602.06 523.74 1865.86 1083.08 2141.50 1058.16 2014.47 1231.41 1892.72 1193.95 2137.28 1171.99
00032772 00000020 1700.24 841.77 603.65 524.75 1866.34 1084.15 2142.77 1057.48 2015.80 1229.10 1893.93 1194.77 2138.10 1171.64
00032773 00000021 1696.87 841.57 605.60 524.90 1866.73 1082.77 2142.15 1055.24 2016.54 1229.55 1892.79 1193.27 2137.36 1169.15
00032774 00000022 1696.15 841.73 604.94 523.72 1864.50 1082.41 2140.69 1055.17 2015.10 1228.48 1891.59 1191.95 2138.31 1167.71
00032775 00000023 1694.48 841.09 608.98 526.84 1865.18 1081.19 2139.78 1054.63 2014.93 1228.29 1892.16 1192.45 2138.08 1169.12
00032776 00000024 1695.52 840.24 605.70 525.26 1867.35 1077.10 2136.79 1052.60 2012.95 1226.25 1891.36 1188.75 2132.59 1167.30
00032777 00000025 1693.08 839.49 605.82 524.04 1866.31 1077.28 2137.01 1052.84 2012.90 1222.91 1890.56 1184.23 2133.17 1162.78
00032778 00000026 1694.27 834.37 607.06 532.97 1868.89 1070.81 2138.13 1048.39 2013.19 1221.05 1889.72 1186.17 2130.69 1166.60
00032779 00000027 1691.90 834.02 608.12 530.83 1865.23 1065.68 2137.58 1045.83 2010.27 1219.14 1888.48 1184.94 2132.14 1166.62
00032780 00000028 1691.51 832.84 605.89 527.89 1865.64 1059.71 2139.34 1042.84 2010.61 1212.91 1885.05 1180.10 2130.64 1164.84
00032781 00000029 1695.65 828.52 600.03 533.41 1869.58 1052.66 2136.65 1039.37 2007.97 1206.36 1885.15 1175.09 2126.25 1162.51
00032782 00000030 1693.36 825.37 604.20 536.01 1870.68 1048.61 2141.22 1035.04 2012.53 1203.60 1883.89 1176.23 2127.25 1164.09
00032783 00000031 1693.68 826.46 606.25 534.72 1862.82 1046.91 2149.49 1034.61 2014.13 1215.07 1878.05 1179.74 2133.34 1169.31
00032784 00000032 1695.48 829.19 606.41 533.83 1868.34 1046.11 2152.11 1032.39 2018.98 1210.42 1879.94 1178.81 2136.39 1167.96
00032785 00000033 1696.94 818.86 606.89 542.25 1868.43 1045.78 2152.58 1033.14 2018.06 1212.82 1883.28 1176.97 2136.17 1166.28
00032786 00000034 1699.13 823.67 606.93 536.25 1865.26 1041.53 2154.32 1034.00 2014.07 1212.61 1881.40 1173.75 2139.49 1166.53
00032787 00000035 1704.53 817.82 604.36 546.21 1871.82 1048.34 2156.41 1039.65 2018.94 1216.26 1883.85 1176.75 2140.15 1169.25
00032788 00000036 1710.07 812.72 597.09 558.58 1880.81 1051.45 2149.47 1043.53 2018.32 1212.53 1896.01 1180.95 2137.12 1171.94
00032789 00000037 1711.31 830.59 599.27 537.23 1878.02 1062.21 2149.56 1056.18 2017.80 1225.59 1897.14 1183.92 2141.40 1176.77
00032790 00000038 1714.60 837.41 594.62 539.87 1874.79 1080.16 2144.71 1069.99 2014.46 1240.31 1896.08 1193.33 2139.15 1182.52
00032791 00000039 1712.03 849.94 596.56 530.84 1867.20 1082.07 2140.96 1084.59 2002.96 1249.94 1886.61 1189.61 2135.18 1189.52
00032792 00000040 1712.16 860.12 589.94 524.78 1860.12 1088.25 2135.94 1086.38 1996.69 1256.90 1884.34 1203.68 2128.50 1199.57
00032793 00000041 1706.73 855.63 589.65 534.26 1852.03 1087.36 2135.52 1090.14 1991.69 1259.81 1875.70 1210.01 2127.43 1209.09
00032794 00000042 1705.31 860.55 594.10 515.31 1840.89 1080.99 2136.60 1095.62 1991.60 1256.12 1872.71 1208.41 2132.39 1213.46
00032795 00000043 1695.00 892.93 607.67 433.36 1843.73 1095.15 2144.94 1116.88 1993.57 1264.96 1865.46 1206.75 2111.68 1222.24
00032796 00000044 1690.02 897.67 598.69 413.00 1850.52 1097.61 2132.01 1115.74 1983.40 1263.11 1855.85 1224.12 2066.42 1238.70
00032797 00000045 1689.58 891.10 602.29 427.27 1852.01 1105.51 2117.93 1131.14 1965.48 1261.80 1839.88 1229.35 2034.35 1250.97
00032798 00000046 1695.75 870.71 594.40 405.56 1855.24 1101.28 2110.16 1107.15 1974.96 1250.40 1861.13 1213.81 2052.64 1221.39
00032799 00000047 1703.62 866.10 588.55 415.95 1853.36 1098.26 2108.76 1102.24 1976.08 1247.48 1877.91 1205.69 2079.14 1209.58
00032800 00000048 1697.53 885.77 597.84 421.65 1841.11 1104.99 2111.29 1106.49 1970.57 1251.81 1866.18 1211.74 2080.20 1215.84
00032801 00000049 1696.14 879.52 594.78 423.31 1845.32 1100.11 2111.09 1106.01 1972.61 1244.76 1879.05 1213.56 2081.11 1217.18
00032802 00000050 1695.06 886.92 592.63 411.86 1849.92 1103.16 2105.81 1107.14 1972.35 1240.88 1884.09 1211.76 2074.09 1213.96
00032803 00000051 1693.39 891.23 591.08 412.15 1847.46 1106.74 2102.33 1111.09 1969.39 1246.35 1881.06 1218.04 2069.57 1220.83
00032804 00000052 1686.68 878.21 597.89 407.69 1844.40 1101.40 2097.70 1100.75 1965.76 1244.91 1871.61 1212.33 2056.66 1214.79
00032805 00000053 1689.29 881.54 598.23 414.41 1846.00 1099.49 2099.92 1097.77 1968.03 1239.47 1877.23 1221.64 2057.40 1223.76
00032806 00000054 1688.51 880.79 601.27 424.43 1845.86 1096.79 2099.29 1093.95 1969.44 1245.15 1875.30 1222.97 2061.64 1223.09
00032807 00000055 1688.50 869.03 602.38 433.18 1842.66 1094.96 2104.51 1082.67 1975.31 1241.97 1887.52 1225.49 2076.87 1217.78
00032808 00000056 1694.60 857.18 588.56 461.00 1833.30 1079.54 2106.72 1065.27 1977.44 1246.00 1894.04 1200.46 2122.34 1183.65
00032809 00000057 1691.85 841.84 591.53 483.87 1838.67 1056.93 2107.54 1047.74 1978.93 1227.89 1890.48 1187.89 2124.81 1174.25
00032810 00000058 1680.18 832.16 615.96 497.83 1835.29 1049.32 2120.16 1031.57 1980.47 1219.77 1877.94 1186.08 2123.53 1166.70
00032811 00000059 1677.58 828.33 613.62 502.49 1833.87 1039.75 2116.68 1027.83 1974.32 1217.02 1869.39 1179.63 2107.90 1165.61
00032812 00000060 1670.22 831.02 614.08 467.58 1830.18 1046.47 2107.36 1034.65 1966.37 1207.59 1860.27 1173.25 2076.28 1164.01
00032813 00000061 1665.06 833.84 608.24 462.15 1823.16 1043.71 2094.38 1038.96 1956.04 1210.87 1857.39 1175.32 2064.15 1171.34
00032814 00000062 1663.71 826.11 604.42 458.48 1817.06 1047.02 2089.29 1042.73 1950.41 1203.68 1851.82 1172.56 2057.42 1170.87
00032815 00000063 1664.91 824.93 599.27 460.89 1817.45 1052.66 2083.36 1045.76 1944.53 1195.75 1849.23 1191.39 2035.85 1190.40
00032816 00000064 1645.70 819.89 621.98 437.14 1809.16 1041.96 2081.61 1037.03 1944.14 1185.45 1834.26 1163.78 2031.38 1166.42
00032817 00000065 1648.60 829.67 601.52 449.89 1816.63 1054.52 2077.13 1054.95 1936.67 1192.12 1827.68 1170.76 2016.64 1175.42
00032818 00000066 1657.33 833.96 602.76 459.66 1813.10 1063.02 2081.07 1056.17 1938.91 1208.74 1835.68 1196.45 2024.13 1196.24
00032819 00000067 1661.68 838.29 597.11 464.70 1818.83 1064.79 2084.25 1053.93 1946.47 1207.56 1842.27 1202.47 2028.71 1199.06
00032820 00000068 1662.88 832.76 609.40 483.38 1811.38 1058.21 2091.32 1045.00 1948.68 1216.84 1856.07 1201.39 2068.17 1190.76
00032821 00000069 1667.65 831.18 603.15 503.26 1814.04 1049.79 2096.00 1038.80 1951.39 1222.17 1858.19 1195.58 2087.98 1181.24
00032822 00000070 1670.88 827.69 601.87 503.85 1816.06 1038.52 2103.33 1029.54 1959.41 1221.29 1865.17 1189.34 2104.53 1174.17
00032823 00000071 1679.61 806.54 596.25 533.29 1817.49 1030.21 2104.80 1020.62 1962.64 1220.87 1879.42 1193.62 2121.12 1175.88
00032824 00000072 1697.67 782.27 577.99 577.98 1830.65 1021.24 2103.30 1012.18 1964.61 1217.85 1888.77 1196.92 2121.54 1178.76
00032825 00000073 1711.57 759.48 558.78 597.20 1837.51 1006.51 2104.66 1004.42 1965.38 1206.64 1893.28 1195.03 2119.35 1182.85
00032826 00000074 1712.78 750.25 564.49 602.12 1843.46 993.05 2109.06 993.18 1969.98 1193.68 1898.41 1192.07 2120.56 1182.35
00032827 00000075 1709.95 733.12 573.51 613.12 1850.89 989.46 2111.65 981.31 1980.10 1179.57 1906.36 1191.34 2122.76 1175.55
00032828 00000076 1701.00 705.32 580.05 635.04 1848.70 973.12 2117.30 958.43 1986.05 1166.91 1906.01 1187.59 2123.88 1166.47
00032829 00000077 1696.61 684.14 578.83 649.95 1839.01 963.19 2110.53 945.75 1979.45 1150.10 1897.92 1177.25 2122.26 1153.46
00032830 00000078 1694.97 672.11 577.96 661.73 1838.95 952.90 2101.77 929.61 1974.27 1137.34 1896.11 1174.33 2117.97 1147.28
00032831 00000079 1686.38 672.60 583.54 661.27 1834.37 954.29 2099.11 927.61 1972.97 1139.17 1894.73 1174.69 2116.91 1144.55
00032832 00000080 1683.78 680.30 582.95 656.77 1825.97 961.39 2094.34 938.94 1965.50 1148.82 1889.93 1176.63 2112.49 1148.26
00032833 00000081 1669.95 696.96 593.88 643.34 1812.98 963.21 2087.12 942.67 1955.21 1157.27 1884.60 1182.59 2108.54 1155.18
00032834 00000082 1660.98 703.11 602.62 638.99 1805.63 964.76 2079.93 942.58 1949.23 1157.02 1881.72 1185.55 2107.18 1156.74
00032835 00000083 1659.80 698.15 596.08 639.08 1800.21 963.14 2069.90 940.44 1942.58 1145.89 1878.70 1177.07 2101.20 1147.69
00032836 00000084 1658.79 688.81 591.90 646.20 1798.21 957.97 2065.62 932.09 1940.79 1135.64 1873.59 1178.33 2097.05 1147.78
00032837 00000085 1661.53 686.00 589.94 643.29 1800.73 955.33 2062.73 927.80 1937.94 1134.51 1873.30 1171.43 2094.04 1139.68
00032838 00000086 1663.85 684.66 581.70 640.95 1800.88 955.14 2059.69 922.55 1938.06 1127.87 1873.04 1170.77 2090.40 1136.27
00032839 00000087 1661.47 682.71 586.25 642.21 1799.86 951.71 2057.52 920.51 1936.76 1127.03 1875.63 1170.63 2091.49 1136.88
00032840 00000088 1659.60 682.20 585.20 640.39 1798.75 950.75 2057.62 918.63 1937.73 1124.37 1877.75 1171.99 2089.47 1137.85
00032841 00000089 1660.40 680.36 587.40 642.38 1795.88 949.03 2058.09 914.59 1936.29 1124.57 1877.16 1170.83 2095.66 1134.29
00032842 00000090 1657.18 678.13 591.03 639.54 1793.01 947.80 2059.05 911.48 1937.53 1123.26 1877.62 1168.27 2096.44 1130.27
00032843 00000091 1659.60 672.16 586.06 642.42 1794.83 946.17 2059.08 909.53 1938.54 1120.32 1878.05 1163.45 2096.78 1125.10
00032844 00000092 1658.42 666.57 591.36 648.74 1794.18 943.36 2060.71 908.23 1936.66 1121.74 1876.21 1160.43 2098.54 1122.65
00032845 00000093 1660.80 669.14 588.80 640.79 1796.57 943.04 2059.89 907.70 1939.27 1117.07 1880.06 1159.95 2098.87 1122.56
00032846 00000094 1661.60 672.09 587.31 635.73 1798.99 941.96 2063.60 906.14 1943.16 1113.84 1880.42 1158.45 2098.87 1121.21
00032847 00000095 1661.71 669.43 587.18 643.12 1797.92 940.43 2063.01 906.09 1940.32 1117.02 1877.38 1158.02 2098.29 1121.31
00032848 00000096 1661.77 668.75 587.84 644.73 1797.72 941.18 2062.84 906.33 1940.02 1117.18 1876.48 1158.37 2099.39 1121.14
00032849 00000097 1662.64 669.24 585.99 643.68 1797.17 940.55 2062.54 907.79 1938.08 1118.37 1874.31 1157.22 2097.10 1121.56
00032850 00000098 1662.86 666.74 581.29 647.51 1793.88 939.27 2058.49 908.11 1932.84 1120.32 1870.33 1156.32 2094.80 1121.48
00032851 00000099 1660.45 663.90 585.82 650.06 1792.87 937.78 2058.43 905.53 1932.80 1117.58 1869.91 1154.96 2095.10 1119.26
00032852 00000100 1661.74 662.25 577.05 645.55 1792.80 940.14 2055.44 912.15 1927.72 1119.14 1867.04 1154.59 2086.50 1121.78
00032853 00000101 1661.82 660.96 577.13 647.73 1792.16 942.67 2054.21 913.20 1926.28 1120.14 1864.81 1156.18 2084.21 1122.81
00032854 00000102 1662.07 658.77 577.63 647.88 1791.49 941.47 2051.10 912.27 1924.15 1118.05 1867.38 1156.73 2083.33 1123.52
00032855 00000103 1659.80 658.95 578.48 646.15 1792.03 939.94 2051.47 910.76 1925.67 1114.56 1870.50 1155.20 2083.81 1121.70
00032856 00000104 1658.32 653.57 577.70 652.10 1791.42 939.05 2052.14 910.37 1924.84 1116.47 1863.51 1151.73 2080.89 1118.58
00032857 00000105 1658.17 649.96 579.07 654.01 1788.91 937.84 2048.66 909.65 1920.29 1113.24 1861.49 1152.15 2078.73 1119.91
00032858 00000106 1655.90 650.91 580.38 653.74 1786.34 940.28 2046.59 908.75 1919.32 1115.63 1863.15 1154.07 2081.68 1118.52
00032859 00000107 1656.60 653.65 578.02 649.23 1788.95 940.21 2047.31 908.41 1922.00 1113.90 1864.28 1152.35 2080.12 1116.83
00032860 00000108 1654.21 653.74 580.44 647.29 1788.00 940.46 2046.54 908.08 1921.40 1112.21 1862.76 1150.63 2078.20 1115.03
00032861 00000109 1653.50 652.34 579.99 648.27 1786.39 939.64 2045.93 909.20 1919.44 1111.66 1859.47 1150.15 2076.01 1116.28
00032862 00000110 1653.30 651.95 579.12 646.58 1785.88 937.96 2045.27 909.22 1917.95 1111.57 1857.86 1148.80 2074.49 1116.27
00032863 00000111 1654.76 651.21 578.17 646.18 1785.10 937.43 2045.57 909.58 1916.69 1112.65 1857.64 1148.55 2075.63 1116.43
00032864 00000112 1655.17 651.98 577.21 644.75 1785.51 937.82 2045.29 908.10 1917.74 1110.53 1858.70 1148.10 2075.96 1114.73
00032865 00000113 1656.49 653.53 575.88 641.62 1787.25 937.72 2044.89 907.02 1918.25 1108.02 1859.22 1145.99 2074.80 1112.16
00032866 00000114 1655.29 650.83 576.76 642.34 1787.22 936.49 2045.58 906.63 1919.04 1106.63 1859.26 1144.92 2074.15 1111.81
00032867 00000115 1656.44 651.15 576.68 640.19 1787.88 935.73 2046.07 905.50 1919.70 1106.09 1859.36 1143.81 2074.85 1110.55
00032868 00000116 1657.51 652.62 573.70 640.86 1789.31 934.03 2043.84 903.61 1918.38 1102.24 1860.39 1141.81 2073.39 1108.36
00032869 00000117 1656.23 643.95 577.72 649.25 1790.12 931.59 2046.85 901.14 1920.89 1101.51 1859.11 1140.66 2074.58 1107.43
00032870 00000118 1655.13 643.83 580.78 649.38 1790.73 929.87 2047.21 897.48 1923.01 1096.37 1859.62 1139.21 2076.25 1104.55
00032871 00000119 1656.70 639.98 580.88 653.14 1790.97 926.83 2047.66 894.94 1922.76 1095.24 1861.38 1139.11 2078.23 1104.50
00032872 00000120 1654.86 633.83 580.93 658.25 1790.28 923.65 2048.24 893.80 1922.73 1093.23 1860.89 1138.54 2075.41 1105.86
00032873 00000121 1652.67 632.39 586.27 659.91 1789.72 922.36 2048.32 890.93 1923.67 1094.56 1858.26 1136.17 2079.62 1101.53
00032874 00000122 1650.00 625.74 587.80 665.06 1787.71 920.16 2050.18 888.46 1924.41 1095.06 1857.94 1136.57 2080.58 1101.91
00032875 00000123 1649.80 625.09 589.55 663.95 1788.04 916.19 2051.23 887.55 1924.10 1096.08 1857.72 1135.20 2080.44 1102.66
00032876 00000124 1651.55 621.12 587.57 667.65 1788.50 914.44 2049.85 884.52 1923.76 1090.06 1861.32 1135.79 2081.68 1101.97
00032877 00000125 1652.12 612.80 587.56 679.29 1789.20 911.20 2047.75 882.48 1922.04 1082.62 1861.08 1132.83 2078.42 1100.27
00032878 00000126 1654.85 604.17 577.10 683.75 1789.50 901.74 2041.79 869.00 1918.09 1073.71 1858.11 1127.30 2073.02 1094.39
00032879 00000127 1655.10 597.18 576.33 687.02 1789.58 896.03 2043.39 865.91 1919.24 1068.14 1853.66 1124.16 2070.17 1094.31
00032880 00000128 1652.40 583.77 577.51 701.45 1787.90 890.38 2041.03 859.82 1917.22 1059.27 1852.72 1120.96 2071.32 1090.09
00032881 00000129 1650.50 581.19 580.63 701.64 1786.87 884.55 2042.34 854.96 1917.00 1056.58 1852.59 1119.05 2071.18 1088.76
00032882 00000130 1650.92 571.82 580.15 704.84 1786.14 879.74 2043.62 852.13 1916.22 1051.16 1848.79 1114.21 2068.63 1086.29
00032883 00000131 1647.10 564.96 588.20 713.83 1785.19 872.92 2041.25 846.34 1914.04 1047.04 1848.63 1111.05 2068.27 1083.42
00032884 00000132 1646.97 554.81 588.11 719.17 1785.18 869.29 2037.52 842.36 1911.85 1038.64 1849.63 1108.74 2063.19 1081.50
00032885 00000133 1643.65 544.43 593.72 731.68 1781.68 862.61 2036.17 836.44 1906.95 1034.79 1845.73 1106.02 2060.81 1079.46
00032886 00000134 1641.65 536.01 591.96 735.18 1780.14 854.39 2033.41 830.58 1903.38 1029.57 1843.52 1097.02 2057.85 1071.26
00032887 00000135 1643.24 531.98 593.48 740.01 1781.12 851.21 2032.36 825.34 1902.40 1022.81 1845.12 1092.54 2060.70 1064.89
00032888 00000136 1642.75 528.07 593.25 738.54 1779.35 844.74 2032.53 819.22 1902.44 1018.84 1844.83 1085.87 2063.37 1057.48
00032889 00000137 1641.91 520.35 593.03 743.79 1778.86 839.44 2032.77 811.97 1903.52 1011.67 1846.15 1084.34 2065.06 1054.23
00032890 00000138 1640.74 516.88 593.76 741.50 1778.35 836.38 2032.13 807.96 1904.47 1005.59 1845.25 1081.85 2062.60 1051.56
00032891 00000139 1639.82 512.76 593.85 740.96 1777.25 834.71 2029.16 805.35 1903.66 1001.45 1845.78 1079.24 2060.50 1048.45
00032892 00000140 1637.79 510.49 592.90 735.34 1775.32 832.26 2030.43 804.75 1903.66 999.55 1845.08 1079.16 2056.37 1050.32
00032893 00000141 1637.34 508.37 593.17 736.88 1775.38 830.84 2030.41 802.10 1904.40 997.11 1846.35 1077.13 2057.44 1047.01
00032894 00000142 1636.59 506.93 592.48 737.93 1775.54 830.56 2029.91 800.94 1904.95 993.99 1847.30 1075.84 2057.48 1045.07
00032895 00000143 1637.86 508.24 589.64 735.15 1777.45 830.47 2028.76 802.10 1905.53 991.64 1846.70 1074.76 2053.85 1045.50
00032896 00000144 1637.86 509.53 589.29 735.19 1777.07 828.68 2030.27 800.86 1905.87 991.87 1845.76 1074.76 2055.19 1045.57
00032897 00000145 1635.82 504.77 591.43 741.31 1777.32 828.12 2030.18 800.25 1906.25 992.03 1846.32 1075.79 2053.92 1046.70
00032898 00000146 1633.78 503.79 594.98 742.86 1777.43 828.46 2029.81 801.17 1905.26 991.11 1846.89 1075.14 2052.85 1046.51
00032899 00000147 1633.67 505.70 595.27 739.72 1777.02 829.20 2030.05 802.01 1905.13 991.53 1846.59 1074.79 2053.30 1046.27
00032900 00000148 1634.31 505.38 594.34 739.98 1776.47 827.79 2029.76 801.01 1904.02 991.64 1846.24 1074.87 2052.88 1046.53
00032901 00000149 1634.73 504.75 592.07 741.50 1776.29 826.19 2030.71 799.43 1904.98 993.08 1845.33 1072.85 2054.68 1043.96
00032902 00000150 1632.30 504.85 595.85 739.24 1773.61 824.24 2029.81 798.10 1902.40 991.88 1844.48 1071.84 2053.10 1043.30
00032903 00000151 1631.73 505.27 596.46 738.88 1772.67 825.00 2028.31 798.15 1901.60 992.15 1844.27 1072.36 2053.48 1043.34
00032904 00000152 1631.41 503.56 595.76 738.85 1771.39 825.73 2026.39 797.93 1900.29 992.31 1843.84 1072.41 2053.53 1042.76
00032905 00000153 1631.44 503.95 595.93 737.52 1771.17 825.36 2025.14 797.71 1899.35 992.83 1844.20 1073.02 2052.38 1043.52
00032906 00000154 1632.69 505.82 594.65 736.87 1771.51 825.90 2026.62 797.96 1900.39 994.56 1844.04 1073.58 2054.41 1043.71
00032907 00000155 1634.87 509.84 589.42 733.70 1774.28 828.29 2027.18 800.76 1902.53 995.71 1844.36 1073.08 2054.03 1043.55
00032908 00000156 1636.08 510.04 590.12 734.24 1776.19 831.29 2030.75 802.75 1907.81 1000.21 1845.53 1076.23 2057.07 1046.00
00032909 00000157 1638.08 513.83 589.59 736.12 1781.53 839.99 2036.38 808.36 1916.51 1009.01 1852.61 1078.52 2068.09 1044.86
