Video ID: 	78sHrVt-gVo
H: 	1080
W: 	1920
FPS: 	25.0

FRAME INDEX X0 Y0 W H [Landmarks (5 Points)]

00000784 00000000 762.33 122.26 422.36 619.09 996.78 327.10 1157.31 375.83 1152.02 418.04 1009.04 553.08 1140.58 590.98
00000785 00000001 770.15 120.66 421.42 618.14 1004.18 325.97 1163.10 376.36 1158.38 417.36 1006.25 547.06 1141.22 586.53
00000786 00000002 776.16 115.00 418.90 618.52 1006.40 325.78 1168.72 373.44 1165.98 416.53 1011.89 546.79 1147.75 584.34
00000787 00000003 781.54 110.69 414.46 613.40 1011.98 327.47 1173.35 371.97 1170.89 415.49 1019.70 543.52 1153.44 578.92
00000788 00000004 788.81 113.16 410.11 606.43 1017.15 329.88 1173.29 373.08 1171.90 414.20 1025.90 542.38 1155.60 577.15
00000789 00000005 793.52 116.08 406.54 605.52 1017.21 334.42 1172.89 374.87 1169.84 417.75 1030.52 548.03 1158.10 580.52
00000790 00000006 790.98 125.11 409.16 602.79 1014.84 343.75 1172.50 383.05 1167.50 426.24 1027.66 555.42 1155.71 586.81
00000791 00000007 793.62 136.19 406.00 605.31 1013.97 358.16 1173.89 400.42 1159.52 444.22 1019.45 567.88 1150.36 601.94
00000792 DELETE   797.03 146.91 403.99 602.82 1007.00 368.83 1172.22 411.17 1148.21 458.61 1009.59 579.76 1143.61 614.41
00000793 00000009 798.25 151.72 401.50 594.34 1003.13 369.43 1170.23 411.10 1144.79 458.20 1008.50 579.18 1142.88 613.54
00000794 00000010 798.67 152.25 397.40 588.44 1001.29 368.52 1168.48 410.37 1142.46 460.93 1006.17 577.38 1140.23 611.76
00000795 00000011 799.03 152.98 397.07 587.40 998.28 367.05 1163.99 407.47 1134.19 461.14 999.60 575.56 1133.54 608.99
00000796 00000012 798.87 153.24 395.43 584.66 996.47 364.39 1161.83 406.50 1129.41 458.53 995.79 572.32 1128.61 607.37
00000797 00000013 798.90 155.65 395.80 580.68 995.86 364.22 1158.98 404.91 1126.24 459.32 992.61 570.73 1125.04 604.82
00000798 00000014 801.31 156.01 394.11 581.73 997.42 365.15 1160.54 404.88 1126.85 462.33 994.35 573.52 1125.79 606.92
00000799 00000015 802.03 156.78 396.31 583.44 1001.23 366.41 1163.78 408.54 1130.62 465.55 997.48 574.97 1127.53 610.15
00000800 00000016 804.50 158.67 395.65 583.05 1005.39 367.32 1166.19 411.09 1133.04 467.41 998.30 575.29 1127.93 612.07
00000801 00000017 804.93 159.08 397.17 583.78 1008.26 367.25 1167.98 412.47 1134.38 468.32 996.84 573.99 1128.27 612.11
00000802 00000018 801.65 159.08 399.32 585.62 1008.16 365.73 1165.35 414.15 1131.90 467.50 993.89 573.39 1123.29 614.35
00000803 00000019 800.49 156.04 398.81 588.43 1007.01 364.06 1162.98 413.02 1130.02 466.87 992.91 571.89 1122.03 613.28
00000804 00000020 795.98 154.79 401.51 588.90 1005.41 362.83 1162.97 415.25 1129.61 466.66 988.52 567.91 1120.43 611.79
00000805 00000021 790.65 153.91 403.53 587.13 1004.61 361.80 1160.58 415.34 1128.80 466.71 985.15 562.79 1119.77 607.22
00000806 00000022 782.33 153.24 409.81 588.01 1002.79 360.95 1158.03 416.83 1127.96 464.45 981.53 561.88 1114.01 608.44
00000807 00000023 777.73 152.55 411.64 590.04 1001.90 360.81 1152.80 416.01 1125.26 465.57 982.39 563.33 1109.09 609.32
00000808 00000024 774.81 147.77 410.71 592.93 999.06 360.04 1150.72 416.73 1124.13 465.26 979.73 562.05 1105.66 609.03
00000809 00000025 771.45 146.31 412.57 595.29 1000.81 361.40 1148.83 418.76 1123.24 464.80 981.79 560.57 1105.32 607.57
00000810 00000026 770.97 146.86 412.15 592.30 1004.40 359.23 1151.29 419.16 1126.48 465.01 983.84 560.52 1103.76 609.69
00000811 00000027 773.23 144.62 409.58 596.44 1007.38 355.12 1152.84 417.77 1130.05 463.09 984.95 559.77 1102.94 611.41
00000812 00000028 777.69 144.14 407.42 590.48 1013.33 352.49 1158.18 417.40 1135.98 464.72 990.60 559.48 1105.12 612.72
00000813 00000029 781.44 146.75 404.15 586.61 1018.01 350.58 1161.14 415.97 1141.17 460.87 994.86 557.00 1108.76 610.62
00000814 00000030 783.59 150.81 401.50 584.96 1025.62 352.79 1165.76 422.21 1149.48 462.29 999.52 556.89 1113.43 614.02
00000815 00000031 788.11 155.16 396.19 581.59 1033.27 356.34 1168.94 427.99 1156.81 465.09 1004.06 557.83 1116.04 616.97
00000816 00000032 791.23 157.50 394.90 585.33 1038.62 362.36 1172.70 433.02 1161.05 471.03 1007.23 563.44 1119.59 621.99
00000817 00000033 798.35 161.93 390.31 584.03 1045.60 363.95 1174.46 434.65 1164.60 474.85 1010.00 565.56 1120.10 624.75
00000818 00000034 802.02 165.95 389.27 579.96 1047.89 363.99 1178.14 434.49 1167.13 475.49 1010.69 565.42 1122.40 624.52
00000819 00000035 801.74 166.02 391.69 579.70 1047.41 363.32 1179.66 432.50 1168.09 473.27 1013.49 566.48 1125.48 624.32
00000820 00000036 804.41 166.50 391.56 563.91 1047.82 358.17 1172.62 417.26 1169.55 473.03 1035.28 562.86 1141.73 611.56
00000821 00000037 813.04 164.24 381.76 564.95 1050.94 358.15 1174.96 412.40 1176.43 468.74 1049.21 562.40 1151.92 607.28
00000822 00000038 820.91 166.61 378.06 561.82 1056.18 360.61 1178.93 414.06 1179.79 469.37 1057.46 563.37 1157.38 607.45
00000823 00000039 824.12 169.05 380.40 566.55 1060.92 362.78 1181.73 421.93 1183.89 473.24 1056.11 564.28 1156.56 613.04
00000824 00000040 829.56 174.48 378.47 562.79 1063.44 365.83 1186.57 432.11 1183.20 480.50 1045.45 565.36 1147.50 620.37
00000825 00000041 825.13 184.06 381.61 551.24 1054.14 366.80 1183.73 426.95 1175.41 475.98 1034.66 563.50 1147.08 613.98
00000826 00000042 812.92 185.75 390.45 553.58 1035.28 366.52 1170.20 423.27 1153.69 474.39 1012.49 565.26 1134.76 612.73
00000827 00000043 806.07 181.18 387.84 567.05 1014.64 364.50 1160.70 429.02 1130.49 462.79 978.34 560.53 1108.53 615.81
00000828 00000044 799.03 182.81 390.22 579.16 993.77 362.89 1144.87 426.27 1108.73 458.52 956.93 562.33 1095.29 616.95
00000829 00000045 790.23 177.27 389.32 577.59 970.33 357.14 1127.75 416.84 1086.05 449.01 940.69 560.19 1079.19 611.71
00000830 00000046 782.62 178.60 390.48 567.15 953.86 357.74 1116.80 413.91 1066.54 452.14 923.74 556.00 1064.61 604.53
00000831 00000047 770.54 177.19 393.37 560.16 938.03 359.05 1111.06 416.65 1050.04 452.00 910.85 553.74 1060.55 602.23
00000832 00000048 759.90 175.21 393.15 558.49 925.23 360.95 1104.47 414.56 1036.80 455.32 900.73 555.13 1059.01 599.73
00000833 00000049 752.22 176.27 392.39 555.12 914.25 359.35 1091.56 409.03 1025.99 453.86 891.80 553.01 1049.93 594.11
00000834 00000050 754.53 176.13 383.17 553.27 905.24 363.44 1081.03 407.63 1019.02 447.22 885.65 552.48 1044.81 591.08
00000835 00000051 747.48 174.64 382.82 553.48 898.68 361.25 1073.19 404.77 1015.02 443.97 880.69 550.55 1038.76 588.52
00000836 00000052 740.22 173.37 384.62 547.35 894.25 357.98 1070.19 403.50 1011.09 440.35 876.36 549.75 1031.52 589.13
00000837 00000053 732.26 172.40 387.98 548.20 891.24 356.77 1065.92 403.70 1006.33 439.05 871.89 549.05 1024.74 589.90
00000838 00000054 727.19 171.06 388.97 551.66 887.94 357.31 1061.91 404.76 1002.54 441.64 866.43 549.01 1019.62 590.35
00000839 00000055 720.70 167.69 392.04 557.27 882.96 356.87 1057.72 403.73 998.68 444.02 862.00 549.44 1014.95 589.79
00000840 00000056 715.72 164.43 391.60 561.24 877.51 356.75 1055.27 404.19 994.44 445.42 856.57 550.80 1010.67 591.38
00000841 00000057 709.98 164.92 393.43 561.42 873.02 356.25 1052.58 407.01 990.43 444.61 850.18 548.89 1006.90 591.93
00000842 00000058 703.52 165.61 394.24 560.60 869.51 355.23 1047.70 407.30 986.74 445.00 846.47 548.20 1002.91 592.11
00000843 00000059 698.14 164.48 396.25 561.65 867.84 353.59 1044.96 407.08 984.71 445.80 843.11 548.21 999.63 593.17
00000844 00000060 695.39 163.34 395.99 564.15 865.14 351.49 1042.62 406.45 983.15 445.09 840.13 547.43 998.03 593.58
00000845 00000061 693.22 162.10 393.00 565.65 862.49 349.16 1039.52 406.00 981.93 443.02 838.97 546.66 995.77 594.36
00000846 00000062 688.89 160.56 393.73 566.81 859.03 347.75 1036.90 405.29 979.30 441.63 836.95 545.61 993.35 593.60
00000847 00000063 686.26 158.29 392.74 569.42 854.57 345.62 1033.84 399.97 976.97 439.31 838.62 547.54 992.72 592.28
00000848 00000064 682.80 156.32 394.42 571.01 851.01 346.60 1030.61 397.83 973.76 437.91 841.43 548.64 993.03 590.38
00000849 00000065 678.80 154.09 396.46 564.54 846.61 346.52 1026.47 393.30 970.39 433.51 843.42 543.61 994.05 581.28
00000850 00000066 677.79 148.47 389.56 565.99 844.33 344.21 1019.21 383.40 970.75 424.88 837.21 541.12 991.11 574.52
00000851 00000067 673.77 144.39 389.67 565.54 841.16 339.97 1016.09 380.98 969.56 417.63 837.38 537.25 988.56 571.61
00000852 00000068 669.02 137.58 391.87 569.40 837.20 338.06 1012.93 378.52 968.75 413.63 838.02 535.61 987.68 568.99
00000853 00000069 665.47 132.88 391.01 573.19 834.02 336.43 1010.52 378.06 966.61 412.34 834.72 533.09 985.15 567.25
00000854 00000070 663.80 122.79 392.11 578.77 834.25 334.26 1018.04 379.85 970.52 409.78 834.01 529.32 994.60 566.77
00000855 00000071 655.98 127.45 396.92 588.00 828.57 332.68 1002.58 377.38 957.69 407.27 825.39 531.84 975.23 568.33
00000856 00000072 652.55 126.08 398.63 602.68 825.49 328.47 998.40 372.67 954.55 406.41 816.66 533.68 970.64 570.43
00000857 00000073 649.79 124.83 396.79 604.99 820.43 324.78 993.23 366.46 951.25 405.49 808.82 531.27 966.35 566.21
00000858 00000074 644.33 121.76 396.58 604.90 813.87 321.08 989.51 363.28 948.95 401.83 805.47 526.95 965.39 561.81
00000859 00000075 638.08 116.62 397.87 604.52 808.68 317.80 986.89 362.34 946.77 400.74 800.94 522.54 962.80 559.05
00000860 00000076 630.33 106.18 403.80 602.01 806.27 311.76 989.38 357.43 943.00 400.67 794.59 515.11 963.91 552.90
00000861 00000077 623.66 102.62 406.87 601.73 799.86 310.15 984.25 353.25 938.07 401.50 791.65 514.82 960.76 549.85
00000862 00000078 617.20 108.52 410.05 597.89 796.04 313.40 976.47 357.47 936.45 402.16 797.01 518.40 955.78 554.17
00000863 00000079 615.12 101.30 408.79 604.23 798.61 316.81 981.30 357.09 942.16 401.74 795.83 517.08 959.84 549.37
00000864 00000080 608.35 105.43 415.32 606.92 800.47 317.36 978.73 361.93 951.17 404.27 811.36 521.41 966.61 556.52
00000865 00000081 607.38 105.54 419.72 603.86 813.87 324.22 986.79 368.48 966.34 407.80 826.13 522.85 977.63 558.01
00000866 00000082 609.11 105.38 417.77 607.89 826.37 324.37 987.88 370.73 975.33 406.56 839.36 526.35 978.18 563.07
00000867 00000083 607.22 99.89 419.49 618.76 828.01 323.66 987.28 369.21 978.35 404.39 842.63 528.94 978.91 564.65
00000868 00000084 605.18 96.51 421.33 625.34 827.38 321.56 984.93 363.93 979.79 403.33 845.56 531.09 980.02 563.98
00000869 00000085 602.67 93.89 421.07 621.10 826.96 320.71 983.28 361.16 980.03 402.15 848.87 529.50 980.57 560.94
00000870 00000086 597.49 89.22 424.59 617.90 825.44 317.02 985.80 358.42 982.09 405.35 842.44 523.41 980.81 556.19
00000871 00000087 587.03 89.51 434.61 620.35 821.87 310.99 981.23 352.59 977.58 400.53 838.01 522.09 975.45 555.01
00000872 00000088 580.20 89.56 438.62 625.45 816.80 309.08 975.11 347.24 971.19 400.22 832.98 524.96 968.26 555.59
00000873 00000089 577.12 85.44 438.06 636.54 810.50 307.99 972.40 343.88 968.84 400.63 825.85 528.00 963.98 556.86
00000874 00000090 573.17 84.16 436.98 638.64 808.94 309.72 969.16 344.85 967.33 400.19 832.02 532.49 965.02 560.48
00000875 00000091 566.03 79.57 440.31 643.96 807.75 310.72 969.25 345.80 968.82 403.94 835.07 537.08 966.07 564.67
00000876 00000092 560.18 76.22 441.93 651.06 808.35 311.68 966.32 344.98 969.28 408.20 840.03 540.94 966.08 566.92
00000877 00000093 555.31 65.47 444.55 660.81 805.46 317.08 960.24 346.68 962.76 414.53 834.08 543.74 960.80 566.22
00000878 00000094 548.70 66.06 445.88 661.96 799.35 317.20 953.70 347.46 956.65 415.34 832.45 546.35 956.41 569.18
00000879 00000095 543.66 66.23 447.51 665.94 794.56 318.43 948.17 345.42 953.40 417.55 830.24 550.99 953.25 571.06
00000880 00000096 540.03 64.00 446.70 669.26 788.42 320.42 948.49 339.94 959.38 414.76 824.71 558.83 954.41 573.59
00000881 00000097 536.75 63.05 447.55 671.45 786.03 321.09 946.26 340.05 957.43 416.12 824.23 560.86 953.21 575.14
00000882 00000098 534.29 62.87 447.31 670.18 783.55 321.73 945.68 340.27 955.63 417.92 821.93 562.14 951.47 576.05
00000883 00000099 533.00 61.42 449.03 670.64 782.07 322.26 944.88 340.73 953.69 417.71 820.10 561.72 950.22 575.53
00000884 00000100 531.79 62.05 449.38 669.46 781.46 322.10 942.89 340.80 949.78 419.49 816.84 559.57 946.76 573.66
00000885 00000101 531.01 61.25 450.83 670.87 779.33 319.97 941.25 340.93 945.77 416.96 808.97 553.21 942.27 569.59
00000886 00000102 529.68 62.70 452.05 668.87 776.51 317.35 939.02 339.26 942.06 415.24 800.85 547.24 938.40 564.62
00000887 00000103 528.07 64.03 454.03 670.87 774.37 317.22 937.46 338.45 940.38 413.58 797.45 547.29 937.48 564.11
00000888 00000104 527.21 64.26 455.70 674.34 772.45 317.32 936.92 336.18 938.97 414.25 793.58 548.21 937.44 563.24
00000889 00000105 525.41 65.54 458.10 675.98 770.34 318.83 937.81 336.89 937.38 418.08 790.87 550.64 937.77 565.07
00000890 00000106 526.25 65.92 461.39 677.90 772.12 321.21 940.93 337.80 940.59 420.52 791.61 552.30 940.66 565.65
00000891 00000107 529.54 65.43 462.14 678.37 775.04 321.65 945.36 335.74 945.34 422.36 793.72 552.31 944.68 564.05
00000892 00000108 534.24 64.43 459.11 675.88 778.56 318.49 951.72 336.96 948.91 419.30 794.29 548.17 947.70 563.54
00000893 00000109 534.89 57.21 463.21 674.67 780.66 312.80 956.86 344.25 946.60 415.65 789.98 537.66 947.69 561.45
00000894 00000110 539.77 58.57 464.17 670.05 782.84 310.64 961.48 345.66 945.89 412.01 790.91 533.85 949.48 560.69
00000895 00000111 550.09 58.65 457.77 656.83 790.43 311.49 967.62 345.83 950.43 413.60 812.38 537.27 958.30 563.48
00000896 00000112 566.78 60.10 452.07 657.79 803.55 312.97 980.58 343.83 966.28 410.76 842.41 547.51 979.72 570.92
00000897 DELETE   585.32 57.81 440.34 677.61 825.09 318.23 993.20 346.27 987.03 415.64 863.96 558.33 995.03 579.81
00000898 DELETE   596.68 62.10 434.64 673.69 843.99 320.09 998.69 348.05 1009.27 421.11 887.61 565.87 1004.95 588.06
00000899 DELETE   602.40 63.51 437.65 673.80 859.14 325.31 1006.40 349.38 1024.04 429.74 897.66 570.51 1010.03 588.90
00000900 00000116 602.29 67.31 441.18 670.01 865.88 332.73 1012.81 355.71 1031.78 437.63 899.87 574.58 1012.89 592.02
00000901 00000117 600.59 73.89 452.61 675.85 872.75 339.63 1001.03 356.59 1027.53 452.45 900.75 578.13 1000.09 592.34
00000902 00000118 597.88 78.61 454.29 680.25 880.23 340.15 1010.14 360.78 1040.12 447.97 900.63 579.10 1003.90 595.14
00000903 00000119 601.11 80.04 455.84 693.52 887.35 342.50 995.16 351.98 1042.08 462.06 900.00 589.66 984.99 599.61
00000904 00000120 601.80 80.41 457.09 691.84 890.31 345.75 996.89 351.16 1045.99 468.71 907.68 594.82 988.13 601.64
00000905 00000121 605.63 84.43 451.75 677.63 893.08 352.16 995.14 354.75 1045.48 468.08 914.25 592.15 989.58 596.82
00000906 00000122 604.70 88.31 456.38 666.96 896.48 350.03 1004.96 362.32 1041.57 466.59 916.72 585.70 998.55 595.95
00000907 00000123 606.98 85.90 450.99 669.67 894.62 352.81 995.81 358.98 1043.44 467.62 915.50 588.02 989.09 595.66
00000908 00000124 606.52 90.90 453.02 655.91 902.79 351.89 1005.62 366.44 1045.93 468.59 918.94 581.47 997.26 593.86
00000909 00000125 607.66 92.03 452.50 652.69 905.92 353.43 1002.86 365.62 1046.18 467.85 920.33 580.52 993.10 591.29
00000910 00000126 617.93 86.51 442.47 668.46 904.67 357.78 990.91 360.31 1046.58 468.49 922.65 587.62 985.63 592.35
00000911 00000127 615.83 96.00 443.04 653.77 908.37 356.12 995.32 369.00 1044.74 469.49 924.72 584.88 988.13 596.16
00000912 00000128 620.47 91.63 436.28 664.75 906.21 358.80 983.90 364.68 1042.06 467.30 928.19 588.24 981.79 595.77
00000913 00000129 614.98 90.44 438.38 663.42 902.52 359.22 978.22 366.31 1036.65 466.58 926.78 587.84 978.34 595.95
00000914 00000130 611.54 96.71 438.27 659.79 898.33 356.14 974.29 364.71 1035.22 463.47 921.85 585.72 975.25 595.38
00000915 00000131 603.24 97.09 436.05 648.49 894.23 349.59 983.27 368.66 1039.15 456.76 912.12 576.07 980.78 593.23
00000916 00000132 598.67 90.52 436.15 654.71 886.97 342.97 972.25 363.68 1030.37 448.56 902.85 567.49 973.52 586.23
00000917 00000133 596.44 88.09 436.71 648.94 883.04 337.50 973.34 362.82 1027.31 442.77 900.26 561.04 974.26 583.28
00000918 00000134 599.26 85.16 431.93 647.29 883.86 334.43 973.95 364.00 1027.25 438.20 899.79 555.45 973.68 580.89
00000919 00000135 603.06 83.95 432.01 639.21 887.27 334.48 980.25 364.31 1030.54 439.41 904.57 555.16 978.28 580.76
00000920 00000136 608.46 93.06 436.62 627.49 892.35 333.62 977.59 359.01 1028.23 441.41 908.21 550.98 974.10 573.99
00000921 00000137 613.53 90.11 436.07 629.84 897.45 336.18 984.10 358.69 1032.20 442.70 911.82 551.80 978.34 572.55
00000922 00000138 615.03 89.27 438.48 631.17 895.10 336.93 991.23 359.60 1031.09 440.79 913.22 552.65 985.34 573.26
00000923 00000139 613.12 83.34 441.36 638.68 885.57 340.91 1002.64 359.28 1029.29 445.35 908.96 558.37 997.91 574.48
00000924 00000140 616.08 81.01 428.67 646.18 870.96 338.37 1016.53 358.18 1037.46 436.37 905.15 569.51 1017.59 583.98
00000925 00000141 619.05 80.14 425.90 649.11 864.36 333.95 1021.71 358.39 1032.41 433.82 898.85 569.81 1019.62 588.19
00000926 00000142 624.65 81.44 435.41 649.21 864.65 333.09 1023.30 364.06 1016.31 439.96 895.15 562.49 1016.03 586.71
00000927 00000143 638.11 83.33 436.69 648.91 874.16 334.03 1033.91 368.21 1021.40 437.83 897.12 556.56 1020.96 583.60
00000928 00000144 654.74 98.93 432.37 636.68 887.58 328.46 1052.68 373.94 1038.15 431.09 905.00 553.57 1034.45 589.56
00000929 00000145 673.71 99.31 427.27 629.75 903.37 332.83 1068.62 381.19 1052.19 433.42 912.58 549.90 1045.07 588.51
00000930 00000146 688.98 96.87 425.03 623.71 921.64 334.57 1083.81 375.89 1072.93 432.78 934.17 551.66 1062.40 584.25
00000931 00000147 707.19 103.74 417.93 621.06 945.58 335.42 1098.49 376.62 1097.69 431.06 953.29 552.11 1076.77 585.06
00000932 00000148 729.67 113.53 425.60 618.82 960.04 331.45 1118.80 379.20 1103.61 448.04 963.60 553.34 1093.00 592.04
00000933 00000149 751.77 118.13 414.48 642.77 985.36 330.76 1132.52 389.67 1126.44 437.15 982.79 557.55 1104.04 604.32
00000934 00000150 762.10 124.47 411.01 637.72 1004.30 330.18 1147.04 392.78 1145.84 437.31 998.40 559.87 1116.97 609.96
00000935 00000151 770.33 123.95 409.48 624.27 1014.48 330.01 1153.72 388.28 1158.95 434.13 1012.99 555.69 1127.55 602.47
00000936 00000152 772.04 114.26 408.23 610.30 1023.29 331.05 1160.64 389.02 1169.71 427.75 1028.27 547.18 1135.67 593.23
00000937 00000153 776.29 112.11 404.59 602.19 1027.60 331.94 1169.22 386.53 1177.89 427.40 1031.32 542.10 1143.30 585.61
00000938 00000154 779.16 111.68 404.40 600.40 1028.56 329.93 1170.61 384.66 1178.17 423.84 1029.10 537.42 1144.45 581.28
00000939 00000155 783.61 112.61 403.69 603.23 1031.19 327.76 1168.11 384.63 1175.63 419.91 1027.93 536.18 1140.73 581.87
00000940 00000156 788.35 108.31 402.42 603.10 1028.57 327.46 1171.17 381.47 1174.16 419.76 1027.54 536.50 1143.65 580.21
00000941 00000157 792.63 111.59 399.06 573.25 1026.59 332.27 1183.16 387.32 1176.80 419.47 1018.09 523.87 1148.08 568.99
00000942 00000158 784.47 107.93 397.51 572.96 1003.85 329.66 1171.47 379.51 1152.46 418.60 1019.13 534.85 1145.50 575.39
00000943 00000159 785.52 122.62 393.26 536.57 977.36 328.27 1149.89 369.18 1119.17 414.54 992.97 527.09 1123.06 560.46
00000944 DELETE   781.11 117.88 394.15 547.22 957.91 329.44 1131.88 353.50 1092.53 423.79 986.40 536.38 1110.49 556.04
00000945 00000161 772.51 102.84 408.15 582.93 931.28 313.93 1112.22 356.41 1043.87 393.10 917.54 504.57 1075.20 539.61
00000946 00000162 781.39 99.09 400.63 577.22 926.37 316.73 1115.62 349.31 1042.71 396.27 927.88 516.49 1085.87 543.95
00000947 00000163 780.28 96.05 407.70 594.07 923.84 314.40 1114.34 345.67 1036.65 396.95 920.44 516.30 1085.62 542.34
00000948 00000164 785.30 95.38 407.01 584.54 923.13 313.94 1114.47 340.25 1034.76 393.71 923.50 511.52 1090.54 533.10
00000949 00000165 791.15 96.15 406.17 587.44 926.54 310.16 1116.95 335.09 1036.71 389.08 925.65 509.77 1095.11 530.52
00000950 00000166 796.38 93.47 403.30 590.74 930.74 308.56 1118.06 330.47 1040.77 383.60 931.14 509.00 1097.33 527.66
00000951 00000167 798.73 89.44 403.13 594.10 933.91 306.62 1120.19 326.08 1044.92 379.72 936.36 508.51 1100.62 525.12
