Video ID: 	B4NZMp11ywc
H: 	1080
W: 	1920
FPS: 	25.0

FRAME INDEX X0 Y0 W H [Landmarks (5 Points)]

00006940 00000000 1103.00 109.23 491.93 760.56 1159.91 387.57 1373.03 414.17 1191.12 531.07 1151.50 665.32 1314.24 690.57
00006941 00000001 1101.81 107.99 488.65 750.96 1157.82 387.09 1369.94 413.02 1187.78 525.80 1147.59 659.57 1314.16 683.96
00006942 DELETE   1096.94 105.26 493.55 750.46 1158.03 389.42 1364.56 419.25 1182.69 524.25 1147.52 653.10 1314.88 680.32
00006943 DELETE   1092.76 103.33 497.00 752.23 1155.16 389.75 1363.98 416.39 1183.26 524.01 1146.55 653.29 1314.84 678.10
00006944 DELETE   1095.61 105.54 494.64 741.93 1154.49 385.27 1362.71 416.15 1180.80 523.84 1144.62 649.58 1312.53 677.82
00006945 00000005 1096.78 102.52 494.10 750.29 1156.08 383.79 1362.91 415.85 1179.24 522.42 1143.76 648.80 1311.04 678.24
00006946 00000006 1102.46 102.90 489.70 741.68 1155.99 382.05 1363.71 412.71 1179.75 522.16 1143.22 650.00 1306.92 678.34
00006947 00000007 1100.81 111.84 488.42 727.00 1159.82 381.53 1368.50 406.12 1187.86 519.83 1142.79 646.93 1306.61 670.72
00006948 00000008 1111.84 112.56 484.68 726.75 1164.33 379.90 1372.09 414.56 1189.71 527.89 1147.86 650.83 1304.92 682.88
00006949 00000009 1117.06 110.94 484.98 730.32 1167.19 380.72 1377.66 413.58 1194.43 528.41 1152.91 652.00 1310.79 682.66
00006950 DELETE   1122.37 108.55 482.98 730.38 1170.21 379.57 1381.80 410.47 1199.29 526.48 1159.16 652.89 1313.67 681.92
00006951 00000011 1123.94 107.92 482.16 734.74 1174.24 377.44 1384.76 408.68 1203.31 523.31 1162.48 649.41 1320.14 678.63
00006952 00000012 1125.82 105.48 483.13 738.64 1177.82 373.76 1391.93 407.82 1205.83 521.74 1164.54 647.23 1327.69 678.74
00006953 00000013 1129.20 105.62 480.80 735.65 1179.51 372.24 1395.68 406.33 1209.82 520.67 1167.22 646.94 1331.46 678.44
00006954 00000014 1130.44 105.35 483.14 736.62 1180.44 373.48 1396.01 405.91 1209.90 519.82 1170.40 647.47 1335.91 677.37
00006955 00000015 1129.39 105.85 486.68 741.07 1182.97 373.71 1398.46 407.85 1210.27 520.02 1170.98 646.96 1337.77 678.04
00006956 00000016 1128.69 107.21 487.24 738.63 1183.72 375.32 1398.38 409.27 1212.04 521.68 1171.98 647.24 1338.01 678.16
00006957 00000017 1119.19 113.63 493.60 727.89 1191.22 375.33 1409.91 414.59 1221.68 520.38 1174.66 642.27 1343.61 675.79
00006958 00000018 1120.58 113.88 493.89 720.73 1191.03 377.65 1412.28 415.62 1225.61 522.11 1178.10 643.78 1347.24 675.73
00006959 00000019 1118.50 116.39 497.51 729.01 1191.42 379.44 1414.43 416.77 1227.83 524.07 1178.42 647.49 1349.97 679.35
00006960 DELETE   1121.92 119.91 498.62 733.94 1195.60 387.95 1417.43 414.52 1234.93 526.34 1187.25 654.76 1363.99 678.03
00006961 00000021 1120.47 114.05 500.33 744.76 1195.64 376.96 1419.41 413.10 1234.53 522.86 1182.63 647.75 1360.33 679.03
00006962 00000022 1126.69 114.91 495.85 726.98 1199.18 381.31 1421.41 407.29 1240.23 520.81 1189.91 646.61 1369.12 669.59
00006963 00000023 1128.12 114.61 497.36 729.84 1203.23 379.77 1425.43 406.76 1245.05 521.06 1192.31 644.86 1372.89 668.81
00006964 00000024 1131.31 114.94 499.36 731.99 1205.88 378.77 1428.47 407.05 1249.94 525.00 1196.44 644.99 1379.49 670.12
00006965 00000025 1136.41 113.63 499.20 743.41 1208.04 380.85 1430.34 411.25 1252.53 529.61 1198.77 649.07 1383.11 676.09
00006966 00000026 1139.60 114.84 501.60 745.09 1211.95 387.46 1431.87 418.77 1251.50 532.19 1202.54 655.06 1381.94 682.83
00006967 00000027 1143.42 112.66 496.09 750.47 1213.12 386.96 1433.44 418.05 1252.92 531.37 1202.45 654.88 1383.75 682.62
00006968 00000028 1143.41 110.59 495.30 744.46 1214.58 381.61 1433.40 413.91 1254.99 525.46 1201.71 646.93 1381.72 675.86
00006969 00000029 1140.53 107.34 498.83 749.75 1214.59 376.91 1434.39 408.59 1256.53 521.97 1201.87 644.94 1382.36 673.47
00006970 00000030 1137.99 109.16 498.43 741.61 1211.63 376.30 1432.38 407.32 1255.80 522.56 1199.51 640.90 1380.35 668.99
00006971 00000031 1134.60 113.93 498.29 743.79 1209.07 384.07 1431.04 411.78 1251.42 525.20 1198.66 651.28 1378.22 676.32
00006972 00000032 1128.06 122.92 506.85 742.88 1209.95 387.94 1424.83 417.46 1244.05 528.85 1194.49 653.31 1372.15 680.09
00006973 00000033 1131.28 128.43 504.10 741.28 1211.59 392.63 1427.38 425.52 1243.33 536.73 1193.44 657.34 1374.32 686.58
00006974 00000034 1134.90 133.87 503.40 736.16 1213.04 397.42 1430.66 427.40 1249.09 538.67 1196.76 662.45 1376.59 689.42
00006975 00000035 1138.44 134.40 502.37 726.48 1215.72 396.46 1433.21 429.08 1251.42 537.52 1197.89 660.45 1373.78 689.78
00006976 00000036 1137.76 124.81 500.39 732.65 1210.56 394.80 1429.10 428.46 1247.74 538.14 1198.84 659.67 1373.79 689.38
00006977 00000037 1126.49 119.10 504.43 730.75 1203.63 388.82 1422.16 421.22 1238.98 528.39 1190.80 650.07 1366.22 678.64
00006978 00000038 1122.50 115.77 493.52 724.03 1192.32 382.34 1407.39 414.89 1222.45 521.03 1178.30 642.73 1354.13 670.85
00006979 00000039 1117.51 105.72 489.25 728.93 1172.47 375.49 1385.10 408.88 1201.36 520.65 1161.50 640.76 1329.46 671.02
00006980 00000040 1110.65 105.15 490.08 735.96 1168.52 375.02 1380.30 407.47 1195.04 518.20 1156.11 643.38 1322.53 672.88
00006981 00000041 1106.54 107.57 493.72 736.98 1166.24 375.90 1376.95 409.16 1187.21 519.29 1151.11 646.30 1319.46 676.10
00006982 00000042 1103.77 113.35 496.74 738.59 1165.15 381.47 1375.88 410.54 1188.56 522.24 1151.33 651.56 1323.78 678.04
00006983 00000043 1103.78 121.50 497.32 732.39 1162.53 390.88 1374.66 424.01 1187.31 531.92 1150.53 659.17 1322.42 688.48
00006984 00000044 1101.78 126.40 501.01 740.05 1162.00 395.47 1376.27 431.42 1187.04 542.00 1147.97 668.38 1320.05 700.29
00006985 00000045 1105.75 125.85 504.70 738.90 1163.14 399.23 1380.24 435.84 1188.39 545.86 1149.55 671.02 1323.27 703.20
00006986 00000046 1110.39 121.86 509.05 751.45 1168.75 397.30 1387.59 434.07 1192.14 543.43 1153.82 672.06 1329.82 704.55
00006987 00000047 1114.79 121.30 510.80 755.27 1172.99 394.68 1394.12 431.95 1197.64 542.98 1158.01 672.00 1335.78 704.89
00006988 00000048 1115.55 121.37 508.28 754.40 1177.59 391.00 1400.87 434.07 1203.34 545.69 1159.19 666.77 1338.69 704.41
00006989 DELETE   1117.77 122.37 515.06 772.12 1181.10 391.07 1405.33 434.50 1202.66 547.90 1164.02 673.48 1347.34 711.22
00006990 00000050 1120.51 123.29 510.39 766.99 1184.51 390.77 1408.32 435.23 1206.26 548.40 1166.64 671.29 1349.33 709.78
00006991 00000051 1115.81 137.04 514.06 736.41 1195.97 397.28 1413.17 436.62 1219.51 549.64 1175.70 666.21 1358.62 700.80
00006992 00000052 1117.75 138.02 513.03 730.28 1196.18 397.66 1413.52 437.38 1220.08 548.52 1176.05 665.37 1357.31 700.33
00006993 00000053 1117.47 140.54 513.08 731.52 1195.75 400.13 1413.30 439.18 1219.82 549.38 1175.33 668.00 1357.58 702.32
00006994 00000054 1117.56 143.52 511.10 727.26 1194.67 402.72 1410.22 441.64 1217.93 549.91 1174.71 668.72 1353.68 702.96
00006995 00000055 1116.83 146.51 508.17 724.97 1193.60 405.00 1406.14 443.25 1214.98 550.88 1174.21 669.02 1350.32 702.55
00006996 00000056 1121.09 133.15 504.77 738.65 1182.86 402.08 1401.34 444.99 1204.93 548.37 1167.01 671.41 1339.35 708.90
00006997 00000057 1119.44 133.47 501.38 743.78 1179.29 402.27 1396.09 444.35 1201.67 548.52 1163.29 672.35 1337.50 709.20
00006998 00000058 1119.16 134.98 498.69 731.97 1176.81 404.82 1393.55 444.20 1202.58 549.30 1163.60 672.43 1334.61 707.00
00006999 00000059 1115.74 137.20 497.48 731.46 1174.98 405.57 1390.28 445.92 1199.79 550.17 1160.42 671.14 1331.16 706.47
00007000 00000060 1111.97 138.09 499.33 728.26 1171.08 408.80 1388.28 448.32 1196.86 552.35 1156.28 672.59 1327.89 707.25
00007001 00000061 1110.41 137.50 498.90 727.61 1168.23 408.02 1384.70 448.83 1193.30 553.19 1153.06 672.78 1324.42 708.42
00007002 00000062 1107.56 138.49 496.11 724.14 1166.85 405.88 1383.69 445.30 1195.07 548.74 1150.47 669.15 1324.06 703.80
00007003 00000063 1106.77 136.14 499.21 733.80 1166.80 403.40 1382.95 441.72 1192.55 545.29 1150.20 670.18 1323.81 704.06
00007004 00000064 1107.03 132.51 502.15 733.63 1168.28 402.41 1384.67 439.71 1194.06 541.70 1151.16 668.51 1324.01 701.61
00007005 00000065 1109.69 133.36 500.46 727.20 1169.92 402.39 1387.67 439.28 1198.01 540.66 1152.90 667.25 1325.60 700.03
00007006 00000066 1115.56 134.57 499.78 732.66 1174.93 404.30 1395.16 440.80 1203.87 545.05 1160.61 671.17 1334.50 703.44
00007007 00000067 1118.10 134.02 498.38 737.13 1178.48 401.32 1402.00 440.05 1210.29 547.76 1163.39 670.60 1340.65 704.79
00007008 00000068 1118.73 130.53 498.76 741.61 1182.02 399.80 1407.29 438.16 1216.97 546.58 1167.36 668.72 1346.12 702.68
00007009 00000069 1108.55 133.01 507.12 724.03 1188.80 398.42 1417.43 433.29 1229.95 543.89 1173.47 663.65 1352.38 693.43
00007010 00000070 1118.11 134.83 503.69 708.74 1190.50 401.09 1414.83 432.33 1230.83 543.66 1174.24 662.65 1352.99 690.93
00007011 00000071 1109.41 126.33 509.75 738.20 1191.90 398.93 1419.39 431.93 1235.15 536.79 1177.20 666.16 1354.58 694.56
00007012 00000072 1110.90 128.42 508.85 737.60 1192.16 400.65 1419.79 432.51 1236.80 539.13 1179.54 667.31 1358.31 694.64
00007013 00000073 1119.73 136.17 503.17 719.97 1194.61 405.71 1419.43 432.64 1238.57 543.74 1181.03 668.60 1363.30 693.08
00007014 00000074 1122.72 138.75 505.12 715.43 1197.65 402.84 1423.04 432.00 1241.46 541.29 1183.95 666.39 1364.83 692.65
00007015 00000075 1125.67 135.42 505.71 721.01 1201.95 400.08 1427.56 429.66 1246.31 540.17 1187.45 665.94 1369.73 692.63
00007016 00000076 1131.69 130.54 504.78 726.47 1210.01 399.57 1436.35 428.09 1256.84 536.89 1194.95 666.54 1376.48 692.66
00007017 00000077 1140.52 129.19 504.91 726.78 1215.87 403.51 1444.57 425.48 1272.17 538.28 1206.95 670.55 1387.34 691.48
00007018 00000078 1151.53 134.75 504.60 730.40 1229.63 401.39 1460.44 429.32 1283.73 538.91 1217.05 668.76 1404.00 694.21
00007019 00000079 1161.96 122.79 499.57 742.64 1240.92 400.74 1477.47 431.37 1299.75 545.39 1226.38 671.48 1412.63 699.45
00007020 00000080 1170.10 126.16 500.45 746.16 1247.03 402.04 1486.11 431.13 1312.54 549.06 1235.63 672.02 1426.26 698.85
00007021 00000081 1175.49 128.73 506.78 746.31 1255.03 402.10 1493.47 431.50 1318.12 547.26 1243.92 672.71 1434.90 699.40
00007022 00000082 1172.91 130.67 512.54 738.87 1266.22 398.31 1504.67 434.60 1328.50 545.78 1251.43 664.48 1441.31 695.84
00007023 00000083 1173.44 132.48 514.97 734.51 1268.78 400.59 1507.40 436.61 1332.43 546.98 1252.97 664.96 1443.10 696.11
00007024 00000084 1175.82 134.40 515.69 738.22 1270.78 402.41 1509.57 437.36 1334.52 546.93 1254.53 667.52 1445.96 697.92
00007025 00000085 1177.24 134.00 514.25 734.73 1271.88 403.00 1512.15 437.85 1336.74 549.63 1255.73 668.66 1446.73 698.79
00007026 00000086 1175.90 134.99 513.79 739.49 1274.31 404.76 1512.57 439.97 1339.03 550.12 1255.69 668.99 1447.17 699.59
00007027 00000087 1175.53 134.85 515.21 742.78 1274.94 406.13 1512.82 441.10 1339.61 550.46 1256.48 669.68 1449.28 700.09
00007028 00000088 1175.50 138.53 514.57 733.82 1275.23 406.84 1513.41 441.59 1340.02 551.04 1256.64 668.42 1448.42 698.63
00007029 00000089 1175.08 140.09 523.02 753.09 1278.89 407.62 1509.57 443.95 1334.26 555.26 1257.53 668.18 1452.91 699.78
00007030 00000090 1175.44 142.99 521.10 751.73 1279.34 410.12 1508.34 444.72 1335.19 555.14 1258.33 670.06 1451.28 700.32
00007031 00000091 1173.84 142.24 523.07 758.67 1278.96 409.06 1507.39 444.72 1332.73 554.58 1256.84 668.34 1452.30 699.20
00007032 00000092 1173.14 142.79 524.11 762.13 1279.02 408.40 1507.77 443.00 1334.21 554.16 1257.83 669.29 1453.74 699.34
00007033 00000093 1171.96 139.26 515.91 745.96 1270.99 405.52 1511.93 438.18 1340.63 553.28 1256.20 672.62 1449.70 701.21
00007034 00000094 1172.35 138.56 513.12 741.93 1270.27 406.26 1509.85 439.90 1338.09 554.36 1255.55 674.03 1445.40 703.38
00007035 00000095 1170.95 139.47 514.81 747.99 1269.12 409.85 1508.77 439.44 1337.68 554.27 1257.04 681.44 1444.33 707.64
00007036 00000096 1172.46 137.37 512.10 745.94 1269.64 410.69 1508.10 440.39 1337.95 554.93 1256.80 680.00 1442.92 706.33
00007037 00000097 1171.46 139.19 513.08 743.19 1269.02 412.67 1508.15 442.01 1338.35 556.99 1258.40 680.44 1445.57 706.37
00007038 00000098 1171.71 138.70 513.63 744.45 1270.09 412.94 1509.37 442.37 1339.04 557.88 1259.03 680.07 1448.04 705.92
00007039 00000099 1171.59 141.13 514.43 745.22 1269.50 414.86 1509.55 442.13 1340.35 559.30 1260.59 681.53 1452.79 705.33
00007040 00000100 1172.02 140.53 514.55 747.37 1271.06 414.78 1509.98 441.94 1340.87 557.81 1260.88 682.26 1452.88 706.02
00007041 00000101 1172.32 141.29 514.52 748.42 1270.66 414.59 1510.56 441.81 1340.99 559.20 1260.02 682.27 1453.60 706.17
00007042 00000102 1176.87 138.35 526.86 775.10 1277.00 415.79 1506.22 444.60 1336.68 552.39 1258.11 681.95 1459.01 708.29
00007043 00000103 1175.78 138.56 527.77 781.48 1278.10 415.61 1508.04 444.04 1339.02 552.94 1259.71 682.25 1461.90 708.07
00007044 00000104 1176.75 140.38 524.35 766.80 1276.99 416.15 1507.77 444.55 1340.18 550.93 1259.12 680.84 1461.87 706.53
00007045 00000105 1171.57 144.01 514.87 739.28 1271.97 412.91 1514.52 442.25 1345.29 559.05 1259.97 679.06 1454.90 704.61
00007046 00000106 1172.86 142.17 513.64 742.21 1273.09 414.15 1515.36 442.68 1347.65 558.84 1262.30 680.21 1457.41 704.93
00007047 00000107 1173.69 143.56 513.65 743.77 1276.07 414.51 1516.87 443.71 1351.10 559.00 1265.28 683.75 1456.76 709.20
00007048 00000108 1174.48 143.09 512.61 742.93 1278.12 415.70 1518.72 442.71 1354.84 560.04 1268.06 683.48 1460.02 707.14
00007049 00000109 1174.89 142.91 513.29 747.64 1280.87 416.65 1521.82 441.90 1360.59 558.30 1272.18 687.82 1463.03 709.98
00007050 00000110 1176.94 142.96 511.57 746.33 1284.22 416.69 1526.94 442.58 1365.98 557.60 1273.32 688.48 1465.95 711.21
00007051 00000111 1176.83 139.17 515.61 746.99 1289.29 415.77 1534.05 445.92 1374.71 560.34 1277.15 687.51 1469.44 713.77
00007052 00000112 1189.49 143.42 510.25 754.19 1302.47 424.42 1546.35 454.32 1391.09 568.38 1294.23 696.74 1491.98 722.44
00007053 00000113 1192.26 146.63 510.46 744.94 1315.19 427.53 1563.06 461.39 1410.76 575.36 1306.51 697.36 1504.27 726.27
00007054 00000114 1199.02 147.51 509.25 754.15 1322.50 431.57 1573.35 463.45 1425.44 578.32 1315.27 704.41 1515.92 731.87
00007055 DELETE   1205.12 151.04 505.56 743.49 1328.77 436.74 1582.37 463.41 1439.55 583.61 1328.82 709.35 1527.63 732.21
00007056 00000116 1205.99 154.37 507.56 743.13 1332.91 440.85 1589.48 465.32 1448.68 588.46 1333.63 712.27 1538.46 733.06
00007057 DELETE   1213.34 151.23 505.20 780.45 1345.25 434.85 1580.67 463.66 1452.55 589.02 1341.52 719.09 1535.10 743.85
00007058 DELETE   1208.18 157.19 512.31 743.76 1339.74 444.48 1600.57 467.80 1462.39 596.37 1342.01 716.67 1551.56 736.29
00007059 DELETE   1214.00 155.19 507.91 778.53 1351.23 437.80 1589.89 464.84 1467.01 593.59 1350.73 722.02 1547.73 745.26
00007060 00000120 1212.37 152.27 512.91 788.81 1353.75 438.73 1592.67 466.55 1471.07 593.32 1352.58 724.30 1551.98 747.91
00007061 00000121 1213.96 149.99 511.20 789.29 1353.36 438.40 1593.29 466.97 1470.45 594.47 1351.96 724.18 1551.89 748.50
00007062 00000122 1214.48 151.48 510.40 789.14 1353.74 438.47 1592.97 465.76 1471.53 593.75 1353.35 724.86 1552.47 748.02
00007063 00000123 1213.31 150.47 510.00 793.10 1353.73 438.70 1593.29 465.27 1473.66 592.63 1353.83 725.91 1554.80 748.21
00007064 00000124 1205.78 157.88 512.74 775.97 1350.29 441.81 1599.93 459.73 1473.50 598.02 1354.08 726.44 1559.38 742.32
00007065 00000125 1207.00 156.62 511.64 781.11 1352.82 439.86 1598.59 457.49 1474.24 595.54 1356.50 724.23 1557.15 739.95
00007066 00000126 1207.55 154.46 511.76 760.82 1344.49 444.45 1606.17 466.26 1473.62 598.25 1349.87 727.53 1557.38 745.97
00007067 00000127 1217.97 147.87 502.47 754.30 1347.30 435.26 1590.13 454.52 1468.17 596.08 1360.44 722.68 1550.38 739.60
00007068 00000128 1215.79 148.65 503.22 756.08 1345.65 435.16 1585.75 454.25 1464.31 594.29 1358.04 722.24 1543.96 739.00
00007069 00000129 1208.83 149.93 506.51 778.78 1345.00 434.51 1582.65 455.57 1463.26 592.35 1351.52 722.85 1544.09 740.85
00007070 00000130 1208.48 152.23 508.72 775.06 1344.43 434.75 1582.97 457.10 1462.31 593.96 1350.47 721.91 1544.79 740.94
00007071 00000131 1207.83 153.07 510.35 780.93 1345.08 435.02 1584.81 457.31 1464.97 594.28 1350.10 722.09 1550.34 740.89
00007072 00000132 1207.27 153.10 512.21 779.20 1347.24 435.04 1586.18 458.35 1467.70 592.17 1349.82 719.53 1551.00 739.21
00007073 00000133 1208.17 149.79 512.46 782.45 1349.48 436.88 1588.82 459.95 1470.06 593.69 1352.25 720.26 1554.21 739.59
00007074 00000134 1209.97 151.21 513.16 786.99 1352.86 437.16 1592.94 461.18 1473.52 594.65 1356.53 723.22 1558.20 743.35
00007075 00000135 1213.62 150.83 508.83 780.76 1355.26 438.74 1596.96 463.88 1477.12 598.06 1358.80 723.25 1559.90 744.55
00007076 00000136 1211.98 148.25 512.10 793.62 1358.40 439.36 1599.44 464.33 1483.56 598.38 1364.72 728.42 1564.59 749.42
00007077 00000137 1212.95 149.30 512.25 794.24 1361.16 440.02 1604.77 466.65 1488.66 600.43 1365.74 732.35 1565.84 754.76
00007078 00000138 1215.76 146.83 509.56 794.93 1363.86 441.13 1607.56 468.29 1490.55 600.34 1366.83 731.74 1566.79 754.93
00007079 00000139 1216.00 150.38 510.31 789.38 1365.53 442.51 1609.67 467.13 1494.52 600.04 1371.62 731.82 1571.42 752.84
00007080 00000140 1215.54 149.78 509.68 788.81 1365.87 441.90 1609.21 467.01 1494.70 598.91 1371.32 729.46 1571.55 750.71
00007081 00000141 1215.41 148.24 509.99 788.73 1362.88 441.48 1607.30 465.33 1492.30 598.99 1369.07 727.36 1573.91 747.46
00007082 00000142 1213.39 148.17 508.93 789.55 1360.36 441.37 1603.19 466.65 1487.71 598.82 1365.69 728.58 1567.35 749.93
00007083 00000143 1212.87 147.28 508.83 794.43 1358.80 440.82 1599.70 465.77 1484.99 597.85 1364.30 728.09 1566.00 749.18
CROP_BBOX: 765 0 1920 1080
