Video ID: 	wDfqXR_5yyQ
H: 	2160
W: 	3840
FPS: 	23.976023976023978

FRAME INDEX X0 Y0 W H [Landmarks (5 Points)]

00014249 00000000 1853.95 301.23 718.00 1013.51 2125.51 749.14 2417.24 635.08 2411.73 855.17 2261.96 1096.75 2499.70 1002.09
00014250 00000001 1875.85 298.48 719.04 1034.19 2152.09 734.37 2426.57 629.61 2441.13 852.09 2278.46 1102.15 2511.66 1017.75
00014251 DELETE   1893.69 301.27 713.18 1034.49 2161.70 745.08 2441.10 636.73 2447.95 851.06 2293.80 1105.16 2531.38 1016.96
00014252 00000003 1906.95 305.73 709.56 1025.43 2170.01 751.03 2463.81 644.55 2458.88 864.18 2303.06 1116.22 2543.68 1028.10
00014253 00000004 1918.08 304.04 710.66 1027.56 2177.81 756.42 2483.76 650.92 2473.26 875.01 2314.27 1125.91 2563.35 1037.56
00014254 00000005 1928.02 304.44 710.93 1039.95 2192.48 757.94 2503.14 660.57 2483.23 890.03 2320.95 1139.30 2565.65 1059.42
00014255 DELETE   1947.77 320.80 702.09 1051.04 2215.29 767.68 2518.19 683.29 2499.22 899.65 2333.24 1150.62 2574.02 1083.29
00014256 00000007 1959.48 334.55 701.36 1060.11 2226.85 779.72 2534.70 707.78 2507.42 918.28 2336.40 1167.03 2581.09 1110.05
00014257 00000008 1962.37 349.81 692.06 1076.39 2236.09 785.56 2540.21 725.71 2512.69 937.87 2343.54 1186.22 2578.60 1139.21
00014258 00000009 1967.77 359.33 691.87 1090.09 2239.53 784.24 2547.31 738.02 2514.14 942.02 2343.11 1197.07 2579.15 1161.04
00014259 00000010 1973.34 365.80 692.01 1094.47 2240.60 778.98 2551.45 740.21 2513.08 940.22 2340.42 1200.11 2579.87 1170.31
00014260 00000011 1973.19 368.17 697.77 1097.38 2240.03 774.10 2555.02 740.54 2515.10 933.98 2337.50 1196.57 2583.44 1170.70
00014261 00000012 1970.65 371.87 700.45 1094.43 2235.65 769.79 2555.52 742.30 2510.65 930.80 2330.46 1194.01 2582.03 1172.87
00014262 00000013 1973.53 375.49 698.44 1096.60 2236.60 772.05 2555.78 745.93 2509.50 935.54 2328.11 1197.49 2579.50 1177.80
00014263 00000014 1977.74 386.25 698.54 1090.75 2239.82 779.65 2562.57 757.96 2507.52 940.56 2327.20 1203.37 2580.01 1187.29
00014264 00000015 1979.30 402.56 694.08 1087.26 2240.37 799.26 2567.40 774.56 2507.30 960.38 2321.84 1217.42 2582.43 1198.24
00014265 00000016 1973.68 419.95 701.17 1084.93 2235.80 813.66 2566.75 787.83 2508.33 978.63 2314.42 1230.41 2579.87 1209.69
00014266 00000017 1959.02 430.60 708.74 1069.51 2229.87 833.69 2557.86 797.99 2503.43 1002.30 2298.83 1248.44 2560.64 1221.18
00014267 00000018 1956.45 434.51 711.99 1056.84 2227.19 843.98 2561.29 800.66 2504.30 1018.54 2289.10 1246.62 2563.89 1214.06
00014268 00000019 1957.25 437.19 717.22 1032.44 2226.99 843.95 2569.08 805.91 2501.85 1021.18 2302.16 1228.62 2576.39 1196.89
00014269 00000020 1956.88 433.85 716.10 1022.45 2225.81 849.44 2566.60 806.18 2495.21 1024.79 2304.90 1229.55 2572.17 1193.76
00014270 00000021 1957.27 433.39 716.21 1020.55 2222.99 853.74 2560.29 809.26 2486.05 1026.32 2310.18 1236.21 2566.88 1199.03
00014271 00000022 1953.99 430.13 718.15 1025.15 2219.76 858.09 2556.87 813.33 2480.53 1029.75 2314.28 1244.12 2566.42 1206.38
00014272 00000023 1950.81 429.91 717.27 1028.18 2215.24 861.36 2552.33 816.13 2474.84 1035.15 2310.49 1248.25 2561.15 1210.19
00014273 00000024 1944.38 436.14 717.56 1031.51 2208.15 864.68 2548.44 821.26 2469.22 1039.22 2307.07 1257.15 2557.17 1220.12
00014274 00000025 1938.23 441.15 711.55 1038.29 2197.61 870.89 2536.26 823.13 2457.70 1044.45 2299.79 1267.85 2547.93 1227.06
00014275 00000026 1931.98 435.33 701.56 1041.02 2181.06 873.74 2520.78 828.09 2443.22 1042.56 2272.17 1271.01 2528.29 1234.16
00014276 00000027 1925.51 431.72 698.08 1046.96 2169.24 872.69 2510.56 822.28 2433.16 1042.40 2266.96 1273.99 2522.12 1232.49
00014277 00000028 1911.87 424.43 704.16 1052.74 2162.10 868.72 2501.33 813.54 2432.28 1039.90 2267.60 1274.29 2514.22 1227.82
00014278 00000029 1901.64 419.27 707.56 1054.66 2158.11 862.46 2498.26 805.51 2433.15 1040.59 2259.61 1267.76 2507.72 1220.13
00014279 00000030 1889.43 411.19 712.03 1065.83 2151.15 854.87 2488.69 797.91 2430.79 1034.71 2252.91 1266.74 2495.89 1219.36
00014280 00000031 1879.09 411.55 709.69 1063.66 2150.19 844.20 2481.72 796.42 2428.67 1033.24 2248.52 1263.41 2480.67 1224.39
00014281 00000032 1867.18 416.32 711.60 1057.97 2144.35 834.61 2470.13 791.84 2420.02 1022.34 2238.99 1255.43 2472.73 1220.97
00014282 00000033 1850.79 396.34 714.94 1070.31 2126.43 834.70 2449.20 787.63 2397.91 1021.80 2235.78 1244.35 2466.33 1205.35
00014283 00000034 1844.60 398.81 713.40 1070.22 2114.32 834.38 2432.38 784.66 2385.43 1013.66 2227.69 1241.91 2456.63 1201.17
00014284 00000035 1829.72 402.34 712.76 1064.80 2102.25 824.38 2420.49 779.11 2371.00 999.51 2216.99 1230.70 2444.15 1193.96
00014285 00000036 1819.51 397.04 712.11 1065.92 2093.83 811.34 2417.29 774.50 2365.45 983.10 2205.46 1220.21 2438.28 1190.36
00014286 00000037 1823.20 394.59 712.09 1060.87 2095.82 812.72 2428.84 773.69 2363.87 975.20 2183.26 1212.68 2443.74 1181.19
00014287 00000038 1814.96 386.98 711.68 1050.25 2085.01 800.42 2424.36 771.14 2353.97 973.49 2166.82 1202.83 2428.83 1179.81
00014288 DELETE   1816.00 380.08 712.34 1048.55 2083.76 786.60 2432.82 772.25 2351.55 969.33 2152.02 1193.80 2423.34 1183.47
00014289 00000040 1822.12 369.15 714.64 1048.25 2098.75 771.62 2449.69 776.02 2355.46 964.29 2144.90 1174.34 2418.68 1180.77
00014290 00000041 1831.26 364.92 716.89 1055.69 2117.02 761.01 2460.53 782.93 2358.46 962.03 2142.83 1163.14 2414.73 1184.55
00014291 00000042 1822.91 359.42 723.32 1082.01 2130.31 754.29 2462.98 798.76 2363.40 962.06 2141.59 1158.96 2396.07 1197.81
00014292 00000043 1821.38 366.52 740.18 1099.99 2143.85 756.17 2472.35 821.96 2368.14 970.29 2130.94 1164.79 2382.66 1221.58
00014293 00000044 1817.97 368.33 761.55 1118.73 2158.64 754.73 2485.23 838.32 2374.49 975.96 2122.47 1167.10 2374.17 1238.76
00014294 00000045 1823.33 373.74 773.17 1118.88 2174.12 750.95 2494.83 850.03 2378.55 976.76 2118.41 1163.55 2367.55 1248.26
00014295 00000046 1820.05 374.68 785.92 1114.12 2186.28 747.70 2500.31 858.82 2383.14 980.88 2113.92 1156.56 2359.29 1251.40
00014296 00000047 1818.59 376.46 791.83 1106.85 2193.52 746.98 2503.05 863.62 2383.14 983.80 2110.83 1153.89 2352.09 1253.60
00014297 00000048 1816.47 379.57 788.71 1098.23 2193.29 743.27 2499.45 865.87 2380.84 982.95 2105.16 1150.29 2342.98 1254.83
00014298 00000049 1815.76 377.51 786.90 1094.43 2193.72 743.45 2496.11 867.77 2373.88 982.13 2101.03 1147.80 2333.94 1253.81
00014299 00000050 1806.77 375.82 790.78 1088.17 2194.74 743.98 2495.07 868.33 2370.99 983.02 2100.07 1145.17 2332.25 1251.19
00014300 00000051 1800.50 376.82 789.19 1075.62 2186.19 746.93 2489.30 868.94 2362.90 984.71 2092.53 1145.32 2328.61 1249.16
00014301 00000052 1792.01 376.56 785.55 1066.17 2177.33 748.64 2479.05 868.14 2350.06 987.55 2082.34 1143.68 2318.43 1244.75
00014302 00000053 1781.60 375.39 786.71 1049.60 2170.39 749.59 2472.37 869.97 2342.79 990.25 2071.48 1141.70 2310.22 1242.64
00014303 00000054 1769.14 370.07 790.64 1052.04 2157.31 749.00 2459.14 867.62 2326.89 993.27 2056.53 1135.40 2297.74 1234.59
00014304 00000055 1757.58 373.61 793.76 1041.04 2144.81 750.84 2444.30 864.02 2311.03 994.11 2043.89 1132.28 2285.60 1226.66
00014305 00000056 1755.34 378.49 788.37 1035.84 2139.17 750.97 2438.76 865.93 2303.17 995.23 2035.85 1133.59 2276.74 1229.54
00014306 00000057 1741.46 383.45 795.26 1037.10 2131.67 747.45 2428.11 861.26 2293.06 999.71 2030.86 1134.48 2260.59 1229.77
00014307 00000058 1726.10 389.31 800.02 1039.22 2113.92 744.50 2411.03 861.72 2278.55 998.02 2014.48 1138.73 2244.97 1237.14
00014308 00000059 1709.88 392.15 805.35 1041.16 2099.82 761.83 2400.77 877.82 2270.90 999.86 2010.75 1136.90 2236.79 1235.48
00014309 00000060 1692.54 387.93 805.76 1059.93 2089.36 763.54 2385.98 882.99 2259.48 1006.25 1994.29 1146.47 2215.28 1247.86
00014310 00000061 1678.95 378.47 806.19 1070.34 2079.10 760.11 2377.65 883.30 2249.79 1009.37 1980.07 1149.26 2201.27 1253.68
00014311 00000062 1667.86 379.27 806.56 1062.98 2066.18 757.85 2367.77 875.02 2230.15 1006.71 1968.57 1147.67 2191.04 1245.68
00014312 00000063 1646.82 376.87 808.15 1056.39 2045.19 764.34 2347.89 874.80 2209.30 1003.04 1957.23 1147.85 2178.15 1239.27
00014313 00000064 1630.70 371.69 810.31 1063.52 2024.23 762.84 2331.49 872.36 2193.04 1003.07 1938.76 1147.83 2165.81 1237.97
00014314 00000065 1615.79 362.30 811.52 1077.59 2009.94 755.62 2316.28 867.06 2177.31 1007.95 1918.41 1148.01 2142.91 1240.66
00014315 00000066 1603.43 360.43 815.60 1104.10 1997.60 744.99 2304.28 864.10 2163.44 1012.13 1892.03 1148.94 2125.66 1249.82
00014316 00000067 1599.75 371.05 810.32 1101.59 1988.42 735.12 2295.30 863.48 2154.23 1006.34 1872.25 1151.35 2112.45 1260.47
00014317 00000068 1591.11 369.07 812.83 1103.13 1979.69 727.62 2287.77 853.84 2149.58 1002.09 1867.55 1153.80 2107.08 1261.07
00014318 00000069 1580.47 356.35 818.86 1116.02 1977.65 720.86 2281.44 850.82 2150.18 993.99 1862.82 1146.70 2101.94 1257.22
00014319 00000070 1573.95 346.62 824.07 1125.76 1972.15 712.56 2273.24 841.81 2151.74 982.54 1863.07 1140.55 2097.44 1250.33
00014320 00000071 1568.29 340.55 825.27 1138.98 1962.78 708.93 2264.58 837.20 2149.22 975.92 1856.41 1140.48 2093.67 1249.77
00014321 00000072 1563.73 335.80 827.91 1152.50 1957.20 709.98 2265.10 837.01 2147.30 980.51 1852.14 1147.91 2092.11 1256.28
00014322 00000073 1562.96 340.18 823.16 1153.82 1952.25 718.60 2259.76 842.56 2143.94 989.89 1846.57 1157.64 2090.56 1263.84
00014323 00000074 1564.39 353.00 808.27 1123.08 1953.32 734.75 2257.34 843.98 2145.51 980.03 1868.31 1152.96 2102.84 1247.64
00014324 00000075 1565.68 364.31 800.07 1090.74 1948.35 759.48 2257.43 852.24 2144.54 997.67 1891.86 1160.40 2117.77 1239.97
00014325 00000076 1559.77 367.46 800.99 1089.60 1939.32 775.03 2251.85 848.49 2143.32 1017.72 1902.87 1181.38 2121.68 1243.70
00014326 00000077 1561.98 378.06 793.65 1075.14 1929.96 783.62 2250.32 839.74 2139.81 1027.39 1907.00 1190.97 2126.29 1238.57
00014327 00000078 1561.02 377.12 790.42 1073.93 1920.31 782.72 2245.64 829.09 2131.80 1030.65 1904.66 1196.29 2122.94 1235.79
00014328 00000079 1558.08 366.29 788.35 1080.50 1912.73 774.54 2240.25 820.12 2125.19 1024.93 1900.95 1193.19 2120.68 1231.75
00014329 00000080 1550.68 359.53 784.93 1076.65 1904.85 766.27 2233.23 808.59 2116.24 1014.98 1893.73 1186.53 2114.43 1221.47
00014330 00000081 1549.17 348.26 777.18 1077.54 1894.28 759.09 2224.99 801.92 2106.07 1000.04 1883.90 1180.37 2109.29 1215.23
00014331 00000082 1541.53 329.20 781.79 1091.92 1888.84 748.46 2218.45 801.87 2097.71 990.77 1870.14 1171.74 2098.35 1214.58
00014332 00000083 1543.18 323.55 779.15 1096.60 1883.10 745.84 2216.96 801.52 2092.38 987.87 1861.92 1170.48 2095.62 1215.32
00014333 00000084 1539.31 321.96 782.37 1102.22 1882.78 745.13 2217.77 804.47 2092.19 988.40 1857.17 1170.88 2094.01 1218.89
00014334 00000085 1538.34 317.92 784.26 1110.51 1884.13 741.06 2219.54 804.03 2094.04 986.83 1853.68 1169.92 2093.10 1221.14
00014335 00000086 1538.21 308.87 786.42 1112.29 1881.85 732.00 2220.99 792.95 2092.07 986.47 1849.06 1167.71 2090.30 1216.45
00014336 00000087 1528.72 292.89 798.60 1119.01 1878.58 718.72 2222.67 786.24 2085.36 985.01 1845.00 1142.11 2095.80 1201.66
00014337 00000088 1538.73 283.30 792.43 1112.17 1879.29 706.68 2218.96 757.42 2093.44 972.83 1852.36 1151.74 2088.01 1191.21
00014338 00000089 1543.60 272.86 787.86 1113.57 1876.81 695.74 2217.53 743.36 2092.52 963.52 1854.63 1145.35 2088.71 1182.28
00014339 00000090 1526.62 257.64 796.75 1122.79 1870.10 696.48 2218.35 735.01 2090.73 955.00 1862.35 1128.90 2104.42 1164.74
00014340 00000091 1526.93 250.95 795.27 1130.19 1870.34 692.70 2216.07 732.14 2091.06 953.93 1863.00 1126.40 2103.64 1163.04
00014341 00000092 1526.34 248.52 795.70 1130.99 1869.30 690.84 2218.14 729.77 2092.20 951.31 1863.06 1125.86 2106.86 1161.95
00014342 00000093 1546.70 251.47 790.73 1136.76 1878.04 675.23 2220.74 728.73 2095.58 951.55 1852.99 1134.72 2085.26 1177.53
00014343 00000094 1546.69 252.76 795.80 1146.25 1887.15 670.03 2226.77 733.41 2105.15 950.04 1845.78 1129.93 2091.65 1183.00
00014344 00000095 1545.20 247.53 804.25 1153.78 1892.40 662.32 2232.10 726.43 2112.44 945.24 1847.00 1121.78 2099.74 1176.63
00014345 00000096 1540.20 238.84 812.15 1150.76 1889.25 657.01 2237.40 722.64 2116.33 937.31 1846.19 1107.64 2114.27 1164.02
00014346 00000097 1519.24 223.54 825.71 1162.61 1879.48 661.67 2227.59 717.72 2107.47 923.05 1857.56 1092.00 2125.92 1141.31
00014347 00000098 1517.85 220.11 829.41 1168.37 1879.42 658.61 2229.16 714.06 2110.98 917.07 1856.56 1090.02 2128.68 1138.74
00014348 00000099 1541.01 230.89 820.43 1155.63 1888.62 646.55 2246.20 709.59 2126.08 924.52 1852.51 1089.60 2134.86 1144.80
00014349 00000100 1543.20 219.76 817.72 1162.54 1885.46 639.72 2246.68 698.83 2127.73 914.94 1854.56 1082.37 2139.24 1134.28
00014350 00000101 1534.20 200.50 814.81 1180.22 1877.90 642.10 2225.90 688.00 2118.88 892.82 1864.95 1073.03 2143.52 1112.89
00014351 00000102 1541.26 195.51 807.74 1167.98 1880.79 635.34 2229.38 678.59 2122.40 877.76 1875.22 1057.40 2156.02 1094.43
00014352 00000103 1543.79 189.43 807.03 1165.93 1881.44 629.52 2234.20 672.93 2126.24 863.70 1877.48 1044.93 2164.93 1081.48
00014353 00000104 1551.01 183.97 800.96 1163.34 1885.12 624.41 2238.62 663.98 2132.51 854.67 1883.88 1039.61 2170.16 1073.23
00014354 00000105 1555.72 179.50 799.06 1166.79 1885.86 621.73 2241.57 656.49 2136.93 851.41 1890.79 1039.36 2179.96 1068.83
00014355 00000106 1561.35 183.50 799.95 1162.49 1889.29 626.33 2247.27 656.03 2141.41 862.12 1897.47 1044.24 2188.49 1069.57
00014356 00000107 1571.60 188.23 798.96 1161.84 1899.59 638.51 2252.39 663.55 2150.47 880.43 1913.11 1058.71 2197.07 1079.95
00014357 DELETE   1586.51 206.75 792.29 1140.93 1905.95 657.91 2262.00 675.20 2158.18 898.36 1927.73 1074.63 2209.87 1090.22
00014358 DELETE   1595.49 240.00 789.06 1127.76 1912.45 668.81 2280.70 690.00 2175.79 927.07 1922.75 1091.42 2219.05 1112.09
00014359 DELETE   1606.66 250.59 790.76 1157.30 1929.62 688.96 2298.24 713.13 2191.07 962.30 1929.36 1127.51 2228.81 1150.37
00014360 00000111 1621.56 268.20 788.94 1157.03 1937.66 708.78 2311.73 730.33 2204.43 981.32 1936.69 1147.22 2243.44 1168.00
00014361 00000112 1633.55 279.29 781.08 1142.86 1944.99 719.56 2319.96 740.42 2209.89 983.10 1945.43 1149.89 2254.99 1170.10
00014362 00000113 1638.27 271.84 778.20 1132.98 1946.22 720.84 2319.92 733.05 2210.95 976.97 1951.05 1135.11 2269.58 1148.74
00014363 00000114 1620.86 255.70 798.01 1148.07 1944.25 702.07 2315.67 701.15 2205.98 962.87 1966.32 1127.25 2263.97 1131.46
00014364 00000115 1620.70 248.56 802.76 1138.06 1943.25 691.53 2316.41 691.39 2204.86 952.00 1965.37 1114.12 2262.25 1119.28
00014365 00000116 1616.87 234.48 805.87 1135.16 1942.50 684.04 2311.77 682.07 2203.94 933.77 1970.19 1100.14 2262.85 1103.48
00014366 00000117 1613.36 228.14 810.57 1146.81 1940.18 673.20 2302.33 668.59 2206.81 917.68 1970.25 1090.55 2268.92 1090.85
00014367 00000118 1615.75 230.49 807.06 1138.53 1936.33 663.70 2300.18 659.69 2207.79 905.49 1968.75 1082.00 2275.40 1082.27
00014368 00000119 1618.33 220.35 807.03 1139.17 1938.05 659.00 2301.58 651.74 2212.16 889.28 1976.95 1069.94 2288.77 1066.43
00014369 00000120 1620.52 213.90 812.97 1139.82 1942.48 653.63 2306.38 646.05 2216.49 882.56 1984.26 1061.54 2295.75 1057.46
00014370 00000121 1625.19 209.25 811.51 1135.18 1947.83 651.29 2312.02 649.05 2217.08 881.10 1991.35 1057.73 2292.43 1058.35
00014371 00000122 1633.05 206.90 810.67 1135.56 1953.51 653.70 2321.13 653.47 2222.58 884.56 2001.73 1063.56 2299.41 1065.74
00014372 00000123 1639.29 210.11 812.12 1136.69 1959.95 659.92 2326.75 658.05 2229.48 891.03 2011.81 1071.42 2305.05 1072.10
00014373 00000124 1647.91 217.76 813.10 1143.88 1965.20 669.39 2334.63 662.99 2236.76 903.97 2023.08 1089.29 2317.18 1085.75
00014374 00000125 1660.34 225.91 808.79 1155.85 1977.86 681.88 2349.17 674.55 2249.79 921.10 2032.94 1110.90 2324.72 1106.09
00014375 00000126 1673.58 242.15 815.80 1165.88 2004.89 695.15 2365.46 696.22 2275.30 937.78 2050.26 1126.21 2331.72 1126.40
00014376 00000127 1695.58 256.34 806.40 1156.08 2016.02 706.27 2383.60 708.12 2289.74 948.09 2052.01 1131.86 2351.27 1134.05
00014377 00000128 1703.09 264.04 808.30 1151.20 2024.64 718.20 2394.69 716.49 2305.47 949.65 2052.84 1131.12 2366.10 1131.88
00014378 00000129 1707.29 258.81 808.12 1158.07 2034.24 723.32 2398.39 714.99 2320.98 946.73 2057.73 1127.07 2373.55 1123.65
00014379 00000130 1708.05 249.77 807.47 1165.33 2039.07 725.76 2397.15 712.21 2326.83 934.27 2062.06 1122.61 2375.09 1114.71
00014380 00000131 1708.88 241.59 809.80 1170.74 2037.99 720.71 2400.65 703.31 2327.90 922.87 2066.55 1116.84 2382.65 1104.93
00014381 00000132 1709.61 234.08 809.20 1172.86 2038.00 717.92 2399.75 699.17 2328.52 915.19 2067.07 1111.53 2384.10 1098.60
00014382 00000133 1707.12 226.62 810.66 1175.99 2039.02 713.00 2398.61 698.55 2326.63 911.65 2067.16 1107.39 2382.52 1098.03
00014383 00000134 1705.62 227.01 808.50 1170.97 2031.97 710.14 2393.98 695.08 2319.14 906.58 2064.29 1103.87 2380.30 1093.63
00014384 00000135 1699.52 224.86 809.83 1170.13 2026.14 708.05 2386.22 689.77 2314.28 903.84 2062.54 1100.48 2378.08 1087.77
00014385 00000136 1688.91 227.39 813.61 1164.43 2015.87 702.36 2375.52 679.92 2306.13 895.68 2059.55 1095.76 2375.61 1079.02
00014386 00000137 1686.26 226.55 810.58 1160.87 2006.89 692.77 2367.53 666.21 2297.14 890.72 2058.61 1094.62 2374.73 1073.23
00014387 00000138 1683.19 232.11 810.45 1154.54 2006.78 690.45 2363.48 666.31 2295.03 888.97 2060.11 1093.29 2372.02 1073.68
00014388 00000139 1683.80 236.76 809.05 1156.51 2006.02 689.16 2361.60 669.45 2291.51 890.52 2061.65 1099.65 2366.28 1083.27
00014389 00000140 1683.55 248.26 809.34 1171.16 2008.46 694.00 2360.53 681.51 2292.45 891.98 2063.81 1115.01 2360.09 1104.42
00014390 00000141 1690.15 264.00 807.85 1195.70 2011.58 702.99 2364.81 690.06 2307.20 906.32 2062.06 1146.30 2357.28 1135.47
00014391 00000142 1700.70 275.02 792.36 1214.97 2018.12 725.74 2374.21 715.65 2317.26 931.41 2057.67 1173.16 2352.64 1165.73
00014392 00000143 1702.36 296.86 783.72 1219.18 2022.32 741.67 2374.57 736.56 2316.99 951.89 2065.97 1193.85 2354.54 1190.15
00014393 00000144 1708.90 299.16 781.88 1230.51 2025.97 744.37 2378.11 744.13 2324.89 949.55 2073.87 1201.21 2362.82 1201.87
00014394 00000145 1710.64 302.29 782.38 1235.52 2026.85 742.79 2379.54 747.83 2330.60 944.69 2076.44 1203.40 2367.11 1208.85
00014395 00000146 1712.59 305.69 778.60 1235.94 2027.44 743.64 2377.42 753.09 2329.45 945.96 2073.69 1205.55 2362.68 1214.87
00014396 00000147 1710.79 311.96 782.66 1222.64 2028.89 753.93 2380.77 759.85 2333.12 956.28 2070.84 1208.24 2364.85 1215.22
00014397 00000148 1702.63 323.61 795.13 1194.16 2032.47 769.29 2384.94 772.09 2328.03 968.55 2078.44 1209.36 2364.94 1212.73
00014398 00000149 1703.50 335.53 799.07 1182.78 2029.39 797.22 2392.62 781.73 2324.37 1007.81 2084.72 1233.44 2375.40 1221.21
00014399 00000150 1706.59 357.10 798.58 1168.13 2027.06 820.10 2391.75 802.55 2316.77 1033.00 2081.86 1254.07 2368.80 1240.47
00014400 00000151 1705.07 372.48 797.34 1189.62 2029.14 825.65 2388.53 816.39 2321.47 1047.25 2080.55 1278.59 2357.73 1271.71
00014401 00000152 1698.23 383.47 801.95 1192.47 2039.01 833.27 2389.37 822.85 2332.39 1056.92 2082.92 1290.00 2352.37 1283.66
00014402 00000153 1692.29 378.22 801.06 1189.44 2031.55 829.78 2379.78 819.74 2317.09 1052.77 2083.60 1283.43 2348.89 1276.16
00014403 00000154 1686.70 368.59 798.63 1173.77 2017.53 830.33 2370.63 819.24 2298.12 1049.77 2083.36 1275.76 2343.60 1265.65
00014404 00000155 1677.18 367.91 799.74 1151.05 2006.17 830.85 2363.60 814.26 2287.22 1050.20 2080.58 1270.58 2340.31 1255.38
00014405 00000156 1671.16 364.09 799.75 1141.51 1999.53 827.89 2357.85 809.78 2279.60 1048.42 2076.70 1267.32 2334.72 1250.37
00014406 00000157 1662.54 367.83 805.36 1145.86 1998.52 826.53 2350.58 812.93 2276.92 1048.83 2069.36 1268.68 2328.57 1255.60
