Video ID: 	9j43MjTS4_I
H: 	1080
W: 	1920
FPS: 	25.0

FRAME INDEX X0 Y0 W H [Landmarks (5 Points)]

00001026 00000000 595.94 260.66 391.07 548.98 648.68 500.60 816.21 491.23 710.70 609.46 693.76 700.93 812.48 691.36
00001027 00000001 609.53 267.62 385.71 541.14 661.77 499.94 828.04 494.33 720.63 609.01 699.92 698.27 821.21 692.25
00001028 00000002 622.03 261.91 384.15 545.80 672.39 495.32 842.23 489.08 731.67 608.45 713.49 698.19 834.48 692.30
00001029 00000003 638.80 258.91 381.93 544.86 688.56 487.16 860.95 481.88 750.45 603.02 728.54 690.69 854.48 686.01
00001030 00000004 653.57 255.54 381.48 548.01 713.91 485.19 870.08 478.25 762.75 588.30 742.25 679.82 867.01 674.65
00001031 00000005 670.25 254.59 381.97 539.42 727.87 481.08 887.34 468.48 778.64 578.63 761.63 679.03 873.25 668.29
00001032 00000006 685.73 252.44 383.40 535.40 738.29 476.35 911.06 471.73 791.72 577.14 771.84 681.37 894.05 677.74
00001033 00000007 706.09 253.44 382.02 530.90 766.98 476.00 932.25 468.14 817.00 571.99 796.69 678.16 913.16 671.80
00001034 DELETE   727.38 259.70 377.44 531.11 789.86 474.67 950.44 470.77 840.71 569.96 810.75 669.90 934.46 668.76
00001035 00000009 744.56 251.64 379.84 544.41 806.28 478.35 969.19 467.58 853.97 566.83 826.28 675.44 943.62 666.63
00001036 00000010 755.13 247.96 378.35 550.33 806.31 469.86 983.25 471.43 853.76 573.64 827.14 682.73 955.31 685.33
00001037 00000011 767.20 249.07 375.33 548.85 819.79 471.68 989.92 477.38 856.48 571.78 832.90 680.74 959.93 686.32
00001038 00000012 774.22 250.28 375.22 548.84 826.07 471.74 992.75 477.53 859.01 569.89 839.19 680.39 963.14 685.81
00001039 00000013 776.50 243.27 378.04 555.52 827.89 466.18 995.79 469.79 861.48 566.47 842.55 678.82 966.96 682.33
00001040 00000014 770.50 236.83 382.61 560.83 823.52 464.12 992.80 465.04 860.02 562.45 841.21 677.21 966.56 678.41
00001041 00000015 761.79 227.60 385.12 570.69 814.56 459.90 989.11 462.81 853.24 559.99 828.99 674.04 960.72 677.09
00001042 00000016 750.83 223.12 390.89 574.56 801.69 451.32 983.28 453.29 846.96 556.74 817.64 671.16 953.49 674.30
00001043 00000017 749.00 216.75 389.08 582.17 798.45 448.05 981.45 449.84 843.17 553.95 811.17 670.38 947.56 673.82
00001044 00000018 746.62 204.44 392.35 590.37 797.73 441.18 982.28 441.00 843.90 546.22 809.70 666.43 948.00 668.36
00001045 00000019 740.95 198.76 399.22 591.43 794.07 428.22 977.93 428.36 839.83 534.52 806.45 656.84 942.72 659.29
00001046 00000020 736.13 191.03 400.54 587.80 791.27 418.82 973.55 418.88 836.28 522.91 803.81 644.86 941.69 647.50
00001047 00000021 739.92 196.68 395.88 576.72 804.54 417.38 981.26 418.81 847.72 511.04 811.59 629.97 942.24 631.27
00001048 00000022 738.38 193.88 398.11 578.96 806.86 415.28 985.39 418.55 854.21 510.24 813.72 628.15 945.09 630.84
00001049 00000023 735.97 184.82 397.34 593.67 799.95 412.54 981.31 416.45 850.04 513.77 809.64 630.75 942.45 634.90
00001050 00000024 730.51 191.33 397.33 589.84 796.91 412.02 978.37 420.54 846.86 517.40 804.94 633.69 935.76 641.94
00001051 00000025 726.75 192.37 394.91 584.73 792.69 411.54 971.58 422.03 843.85 518.74 802.37 633.75 924.92 643.72
00001052 00000026 717.62 195.87 403.35 583.49 791.01 417.22 964.07 423.86 836.44 516.45 803.06 638.93 918.81 643.94
00001053 00000027 719.60 202.06 403.15 584.86 788.73 425.28 964.58 430.16 836.51 525.00 802.43 648.78 917.25 652.41
00001054 DELETE   724.93 200.52 409.82 601.90 795.04 445.16 975.04 447.79 843.15 545.07 807.65 664.21 924.11 667.12
00001055 DELETE   732.21 220.12 405.55 592.80 800.30 464.99 986.90 467.96 854.28 571.16 816.58 691.36 932.17 694.13
00001056 DELETE   738.27 238.14 406.91 592.45 812.35 479.91 997.44 485.98 869.52 593.75 829.85 708.22 947.68 715.07
00001057 00000031 753.89 239.01 397.91 591.00 824.88 492.72 997.97 500.61 881.28 610.38 846.88 712.64 958.75 719.49
00001058 00000032 761.05 241.87 406.03 577.07 839.21 489.73 1020.27 499.16 898.43 605.43 854.54 704.90 977.38 713.34
00001059 00000033 763.01 238.64 411.31 572.92 849.84 485.16 1029.04 498.12 912.59 599.84 862.95 695.50 985.65 706.75
00001060 00000034 764.70 238.44 410.52 571.38 857.58 483.95 1035.72 498.96 922.03 598.53 867.84 693.36 989.34 706.46
00001061 00000035 758.63 250.34 410.53 559.68 859.67 488.83 1038.10 505.56 933.85 603.07 870.16 697.20 997.12 711.55
00001062 00000036 757.96 256.75 407.31 561.60 862.45 501.33 1037.64 520.02 936.00 616.11 874.84 704.59 995.58 721.17
00001063 DELETE   754.19 265.60 406.15 566.66 861.61 518.16 1037.49 536.95 938.77 636.43 871.96 719.06 989.01 736.35
00001064 DELETE   749.04 276.14 408.63 572.11 853.55 533.25 1037.04 548.76 935.33 664.41 868.64 737.83 984.37 750.39
00001065 00000039 739.34 286.02 407.50 566.50 845.45 546.64 1030.24 551.59 937.32 677.93 870.90 750.56 985.19 754.37
00001066 00000040 725.63 296.35 405.61 563.42 842.06 551.13 1020.38 550.41 936.11 672.50 868.12 755.63 987.54 756.47
00001067 00000041 718.65 290.54 404.30 567.24 835.12 548.39 1015.85 547.84 930.49 670.59 861.07 752.30 983.10 753.15
00001068 00000042 708.47 285.32 406.60 570.92 831.38 547.27 1012.53 545.40 928.15 669.17 857.08 749.82 978.89 750.13
00001069 00000043 700.29 285.20 409.59 570.18 824.54 545.14 1007.07 540.86 926.77 666.96 854.01 750.60 974.21 749.28
00001070 00000044 692.41 281.37 410.10 572.83 820.48 543.35 1002.54 536.92 925.44 663.14 852.36 748.38 972.00 745.62
00001071 DELETE   689.83 276.61 409.49 572.76 823.45 539.78 1007.17 534.84 929.48 657.99 852.44 743.81 974.49 742.30
00001072 DELETE   689.35 277.14 405.92 567.44 829.73 538.28 1012.05 529.50 942.08 649.53 863.39 738.53 986.35 733.50
00001073 DELETE   691.94 266.84 400.89 573.31 834.25 533.06 1014.98 518.77 950.68 644.33 876.82 737.00 998.40 726.91
00001074 00000048 692.51 262.18 400.91 570.18 844.04 524.03 1021.23 501.12 969.46 637.89 898.33 735.20 1014.34 716.41
00001075 00000049 696.45 259.11 397.80 570.85 851.58 524.16 1027.14 492.16 984.35 632.42 912.29 730.99 1028.86 703.71
00001076 00000050 700.02 253.30 401.95 577.66 854.19 522.79 1035.08 486.67 994.25 629.06 916.60 730.04 1039.59 698.98
00001077 00000051 710.67 249.96 400.66 587.05 860.26 517.58 1042.51 476.42 1006.21 614.74 915.39 733.90 1045.63 698.96
00001078 00000052 717.42 244.48 398.06 588.96 865.84 520.44 1047.80 476.69 1012.79 614.01 922.22 735.44 1051.52 698.21
00001079 00000053 717.75 246.99 402.20 585.50 871.20 526.05 1051.94 480.20 1017.99 620.59 932.72 736.24 1058.02 697.58
00001080 00000054 718.87 248.79 404.70 576.40 872.20 529.20 1055.27 481.20 1018.98 620.02 937.67 735.51 1063.06 694.82
00001081 00000055 720.19 250.18 404.38 572.64 870.60 531.56 1056.75 478.79 1021.63 622.51 938.03 737.88 1065.41 693.45
00001082 00000056 721.57 257.52 403.77 567.28 870.63 533.78 1056.25 479.05 1021.97 624.08 939.56 740.25 1065.95 694.18
00001083 00000057 719.04 259.72 403.44 565.63 869.96 535.81 1053.45 483.22 1019.15 624.08 939.04 740.69 1063.04 696.37
00001084 00000058 715.86 257.68 399.69 566.03 864.34 536.78 1046.03 484.59 1011.35 627.22 934.14 739.87 1058.53 695.66
00001085 00000059 698.82 258.47 404.37 567.74 851.99 529.58 1033.56 485.90 995.16 625.63 921.88 733.27 1044.65 695.90
00001086 00000060 687.27 262.26 403.05 560.57 836.58 525.10 1015.56 477.99 979.58 620.91 907.87 728.35 1030.09 688.90
00001087 00000061 674.57 255.58 404.32 564.49 824.08 521.00 1002.08 472.79 968.02 612.86 897.98 724.24 1022.82 684.74
00001088 00000062 660.64 256.59 399.65 565.97 809.20 519.92 986.20 475.09 951.34 606.61 884.37 720.53 1011.23 684.46
00001089 00000063 649.62 254.65 399.70 561.92 796.82 527.09 974.85 475.29 940.63 612.74 874.83 734.09 993.40 690.33
00001090 00000064 643.78 250.72 396.41 569.88 787.13 528.04 963.50 474.49 931.38 616.68 871.22 738.30 985.43 692.60
00001091 00000065 642.32 249.29 395.95 577.08 784.07 526.37 955.98 473.79 928.39 606.34 857.82 735.47 973.91 691.28
00001092 00000066 640.95 246.58 398.93 579.56 781.62 524.11 957.65 472.21 926.89 605.57 855.30 734.24 976.48 689.62
00001093 00000067 640.51 246.67 399.93 578.44 780.77 524.27 957.01 471.74 925.28 605.55 852.87 733.37 975.99 688.02
00001094 00000068 638.35 246.08 400.23 579.25 778.00 521.80 954.60 471.18 920.39 605.37 848.82 731.31 972.98 687.25
00001095 00000069 628.58 252.89 399.85 567.89 771.29 521.22 946.74 472.53 910.58 611.50 850.97 726.56 968.65 685.39
00001096 00000070 626.52 251.11 399.58 566.07 769.33 517.46 943.15 470.29 907.38 608.06 851.27 725.03 964.56 685.13
00001097 00000071 625.17 252.07 399.83 562.42 768.08 515.75 941.37 468.49 905.93 605.30 850.67 722.73 962.88 682.91
00001098 00000072 625.01 252.52 399.22 561.13 768.00 512.51 940.84 467.95 904.95 603.16 848.24 719.88 961.06 682.17
00001099 00000073 624.22 249.61 398.60 567.16 768.02 511.60 939.51 467.97 905.22 602.01 847.37 719.91 959.84 683.22
00001100 00000074 623.86 249.69 397.68 568.97 768.38 511.42 937.57 468.70 903.72 603.35 848.88 722.73 956.46 686.93
00001101 00000075 623.58 249.94 396.57 563.90 769.01 509.15 937.88 468.20 903.66 600.74 848.78 719.76 954.39 685.53
00001102 00000076 623.29 250.29 395.11 559.45 769.23 508.18 938.13 467.19 904.02 600.15 849.47 718.44 954.58 684.30
00001103 00000077 623.00 250.06 392.47 557.53 768.79 507.00 936.59 464.51 903.84 599.20 849.76 716.32 954.56 681.26
00001104 00000078 624.53 244.59 392.47 559.52 768.32 509.35 935.73 465.73 902.26 594.11 846.37 712.53 954.29 676.77
00001105 00000079 627.46 244.35 393.77 556.84 771.85 511.89 940.07 470.56 903.84 591.23 846.45 710.68 956.30 677.12
00001106 00000080 628.57 246.88 392.08 560.58 773.21 511.65 939.65 466.55 908.75 591.31 852.46 714.48 962.25 677.36
00001107 00000081 633.85 245.96 391.10 566.14 775.85 512.05 942.54 462.74 916.38 593.37 858.36 718.65 969.05 678.06
00001108 00000082 638.36 246.22 392.08 564.00 780.45 511.02 950.06 461.93 922.13 593.31 863.62 718.85 976.01 677.58
00001109 00000083 642.89 248.41 393.39 558.80 784.86 514.19 959.55 460.45 929.36 597.93 865.19 719.27 983.13 673.47
00001110 00000084 644.86 247.19 396.64 562.08 787.89 517.79 970.02 459.21 939.19 601.11 862.18 719.89 992.05 670.19
00001111 00000085 649.66 248.76 393.66 562.20 790.92 521.37 970.52 463.64 941.01 603.46 860.24 720.98 991.73 672.55
00001112 00000086 651.24 256.25 394.35 559.73 793.22 524.61 973.25 468.40 944.95 603.58 860.47 723.65 994.00 676.56
00001113 00000087 656.02 255.25 394.92 570.75 793.01 529.72 969.17 471.05 947.54 603.11 856.76 730.81 988.24 682.08
00001114 00000088 660.10 261.10 392.92 568.20 795.26 532.16 971.69 474.58 948.39 607.32 857.29 734.05 989.52 686.35
00001115 00000089 663.72 267.69 391.00 565.15 796.78 535.93 975.82 476.87 952.21 613.63 853.80 737.87 991.27 689.98
00001116 00000090 665.47 268.50 390.17 566.34 799.08 539.94 978.53 481.89 955.18 619.88 850.12 738.58 991.19 692.31
00001117 00000091 663.93 275.13 393.82 570.78 803.46 539.82 984.07 495.94 947.26 625.93 866.97 730.08 1007.55 694.70
00001118 00000092 664.72 280.18 394.58 561.55 806.72 541.82 988.33 496.72 951.01 626.67 870.98 728.59 1011.91 691.92
00001119 00000093 666.47 280.05 394.37 560.12 809.38 543.40 989.20 498.23 952.56 628.12 873.21 729.09 1011.99 692.43
00001120 00000094 667.21 280.64 394.53 559.49 809.86 542.92 990.65 498.00 953.50 627.46 873.52 728.83 1013.74 692.23
00001121 00000095 667.13 281.14 394.81 562.50 809.73 542.10 989.73 497.80 953.21 627.77 872.78 729.83 1012.05 693.95
00001122 00000096 666.77 280.49 395.81 563.85 809.84 542.86 990.60 497.80 954.33 628.05 874.58 731.17 1014.10 694.60
00001123 00000097 666.53 280.80 394.38 561.60 810.07 544.40 989.83 498.25 954.47 626.92 877.70 732.03 1013.43 694.78
00001124 00000098 667.12 283.19 393.57 558.08 810.53 545.36 990.16 497.99 955.24 627.19 881.80 733.73 1015.84 695.37
00001125 00000099 666.83 280.12 395.64 559.77 810.42 545.84 990.65 497.30 955.67 627.47 882.39 734.56 1016.94 695.08
00001126 00000100 669.17 277.73 396.04 559.90 811.78 550.53 993.00 506.19 951.29 627.59 875.52 732.58 1012.23 696.59
00001127 00000101 670.18 274.22 394.28 561.33 812.78 549.34 997.21 504.34 954.08 628.27 872.26 730.55 1014.31 693.87
00001128 00000102 669.49 277.47 393.68 557.06 815.83 544.22 997.12 497.11 960.33 628.10 876.03 726.32 1017.31 688.02
00001129 00000103 671.57 280.24 392.12 550.58 816.65 537.31 995.89 486.57 965.06 626.53 880.66 724.79 1019.31 683.18
00001130 00000104 673.86 281.42 391.39 546.07 817.40 531.72 996.66 480.96 966.96 623.21 882.18 723.03 1021.11 681.51
00001131 00000105 676.00 276.96 393.78 547.43 819.63 529.24 999.74 478.09 968.65 621.54 884.45 722.12 1023.32 680.00
00001132 00000106 678.72 275.51 394.83 545.76 823.41 527.70 1002.07 475.43 971.83 619.53 889.06 721.23 1023.71 678.19
00001133 00000107 681.94 268.05 396.76 551.22 827.07 525.77 1003.82 471.27 975.22 618.88 894.70 720.98 1024.95 676.42
00001134 00000108 685.49 263.82 398.46 553.54 831.22 526.98 1006.64 471.81 978.28 619.07 895.52 719.54 1025.91 674.55
00001135 00000109 686.76 265.06 402.52 552.02 834.71 527.83 1013.79 472.46 983.31 621.10 897.43 720.89 1029.24 675.26
00001136 00000110 691.54 263.02 402.71 553.86 840.86 528.20 1022.36 473.97 990.03 622.97 903.24 721.68 1036.11 676.53
00001137 00000111 699.51 263.94 400.84 555.03 849.85 531.74 1031.42 476.52 1000.38 624.36 911.91 725.70 1042.56 679.66
00001138 00000112 704.92 262.40 401.12 556.57 854.39 533.44 1038.46 481.02 1002.53 625.55 915.86 727.37 1047.41 683.31
00001139 00000113 709.40 257.71 401.62 559.63 857.39 531.35 1043.15 478.25 1005.82 623.41 920.50 728.41 1052.72 683.54
00001140 00000114 710.38 254.33 402.55 560.78 856.76 527.79 1044.70 475.96 1005.81 619.46 920.83 726.47 1055.67 682.58
00001141 00000115 711.08 250.38 403.47 563.51 857.07 525.39 1046.02 475.11 1005.72 618.36 921.01 725.31 1055.95 682.77
00001142 00000116 709.76 247.89 402.80 567.18 856.25 524.27 1045.41 474.37 1005.72 619.36 920.34 726.29 1055.29 683.97
00001143 00000117 708.49 249.52 401.22 569.43 855.94 527.15 1043.57 476.70 1004.91 623.28 917.83 728.03 1052.15 685.39
00001144 00000118 708.65 257.79 400.87 566.29 858.75 533.70 1044.88 480.97 1008.01 630.06 920.51 732.13 1052.94 687.57
00001145 00000119 711.21 263.88 399.75 564.72 861.92 539.15 1045.92 486.00 1010.51 633.89 920.28 734.31 1052.93 689.75
00001146 00000120 708.73 266.48 402.01 570.56 862.97 547.98 1044.81 496.35 1009.88 640.48 918.08 739.34 1050.26 696.14
00001147 00000121 708.72 273.28 402.58 569.86 861.84 552.58 1043.15 505.27 1004.75 647.07 918.02 743.35 1049.63 703.20
00001148 00000122 709.84 279.69 401.99 563.62 862.12 555.49 1043.90 508.41 1004.27 650.01 918.52 743.54 1050.34 703.52
00001149 00000123 711.09 269.37 405.73 569.55 864.62 549.72 1047.99 501.25 1008.99 642.00 923.76 742.26 1053.60 701.28
00001150 00000124 714.00 262.39 406.75 567.58 868.14 540.73 1053.73 488.36 1016.98 637.07 927.18 737.60 1057.55 693.61
00001151 00000125 716.15 253.56 408.96 571.30 869.48 536.45 1058.91 481.11 1020.28 633.25 928.68 735.35 1061.50 689.21
00001152 00000126 725.34 254.87 405.06 570.46 878.13 536.37 1063.98 492.80 1021.86 624.74 937.99 723.05 1075.49 688.60
00001153 00000127 731.30 264.69 403.40 566.85 885.73 543.74 1074.26 505.12 1028.84 633.40 938.81 725.52 1077.25 695.08
00001154 00000128 733.20 261.99 404.37 574.40 889.52 546.05 1076.64 504.37 1033.62 637.52 944.95 730.26 1083.34 696.70
00001155 00000129 735.18 266.49 406.94 570.42 892.96 541.34 1081.13 495.50 1041.86 637.58 952.56 732.64 1090.88 695.53
00001156 00000130 738.60 259.06 406.17 569.39 897.15 528.51 1083.79 479.91 1048.06 628.28 956.93 726.56 1094.84 687.40
00001157 00000131 738.85 236.28 407.35 584.33 898.09 520.91 1079.88 468.51 1052.70 612.19 961.23 720.23 1095.17 678.73
00001158 00000132 742.42 232.31 405.79 585.89 900.52 515.11 1079.88 465.15 1050.41 609.97 963.32 716.07 1092.81 676.87
00001159 00000133 744.31 234.43 405.68 585.95 903.06 516.19 1082.86 464.97 1054.04 612.33 964.44 717.74 1093.37 677.62
00001160 00000134 747.81 236.12 405.51 589.29 906.00 521.98 1088.00 470.77 1058.19 617.90 966.46 722.47 1096.91 682.14
00001161 00000135 751.75 246.20 404.10 581.57 907.89 526.65 1090.15 477.95 1055.45 625.13 970.82 727.39 1099.64 688.07
00001162 00000136 753.79 244.80 403.75 584.28 910.35 528.58 1092.09 480.71 1057.38 626.72 973.48 729.14 1101.04 690.33
00001163 00000137 752.51 242.43 403.80 586.27 911.45 526.71 1094.16 477.56 1060.70 625.68 974.51 728.66 1102.51 688.42
00001164 00000138 752.73 239.79 402.68 587.69 912.36 524.59 1093.49 473.71 1062.89 623.21 974.85 727.63 1101.49 686.40
00001165 00000139 751.75 237.96 403.36 590.56 911.76 525.06 1093.89 474.06 1063.26 624.00 974.65 728.24 1101.71 687.02
00001166 00000140 752.07 242.57 403.83 588.66 911.66 529.04 1093.80 481.31 1059.76 628.08 972.89 729.75 1101.11 690.90
00001167 00000141 751.24 253.38 403.11 582.39 912.47 537.56 1095.06 491.44 1060.32 635.85 971.41 734.78 1101.35 696.73
00001168 00000142 752.53 261.80 399.58 580.44 913.83 544.77 1097.42 499.91 1060.25 647.12 970.34 740.07 1101.33 702.98
00001169 00000143 751.96 258.83 400.18 585.96 911.51 548.97 1095.61 502.57 1058.24 649.60 966.75 741.83 1101.17 703.62
00001170 00000144 750.79 258.73 400.02 587.91 910.82 551.04 1093.09 505.56 1056.04 648.94 965.18 741.17 1099.15 703.91
00001171 00000145 749.95 258.76 398.22 589.17 908.13 552.92 1091.43 507.35 1054.41 650.06 962.00 741.71 1098.37 704.43
00001172 00000146 746.66 261.55 397.82 587.04 903.97 554.79 1090.08 508.64 1052.07 652.40 957.43 743.59 1095.71 706.03
00001173 00000147 742.10 258.26 399.56 591.42 899.16 557.68 1087.92 509.12 1050.80 654.08 955.23 745.58 1095.89 705.91
00001174 00000148 737.72 257.67 399.87 594.27 894.12 559.20 1085.43 507.32 1049.77 653.47 951.18 746.61 1096.34 704.39
00001175 00000149 731.57 256.73 401.98 595.64 890.11 557.20 1082.85 505.06 1047.93 650.31 946.10 744.61 1093.90 702.39
00001176 00000150 722.99 246.44 403.29 605.48 884.23 555.52 1078.72 504.92 1042.95 647.61 938.41 742.57 1087.77 701.57
00001177 00000151 713.52 247.41 404.72 603.20 881.45 562.74 1063.55 508.76 1032.40 655.26 927.45 754.98 1065.07 709.90
00001178 00000152 706.94 255.24 405.64 597.33 874.63 559.41 1057.31 508.44 1024.20 655.82 922.06 753.35 1057.96 710.89
00001179 00000153 701.71 256.08 404.47 592.39 871.17 557.75 1051.47 505.96 1022.45 649.82 918.99 749.18 1052.61 706.43
00001180 00000154 698.62 250.14 403.13 593.73 865.90 556.15 1045.85 503.27 1017.51 645.51 916.91 746.24 1050.64 702.77
00001181 00000155 693.79 247.12 403.37 594.77 861.78 555.77 1042.15 498.85 1018.88 642.10 912.07 744.02 1047.04 697.92
00001182 00000156 690.95 247.82 405.20 592.14 858.62 551.12 1040.30 495.87 1014.75 640.94 909.75 742.54 1043.54 697.74
00001183 00000157 688.13 249.09 406.50 590.42 857.31 549.28 1038.95 493.58 1013.35 639.83 907.33 740.89 1040.91 695.92
00001184 00000158 688.42 249.52 405.33 590.35 855.34 549.55 1036.44 494.19 1010.27 640.20 905.03 739.59 1039.79 694.81
00001185 00000159 687.94 251.65 405.18 588.64 854.93 550.72 1035.44 496.06 1009.01 641.37 903.44 738.81 1038.96 694.53
00001186 00000160 689.01 253.95 404.62 587.71 855.58 552.02 1036.40 498.17 1009.02 643.09 902.87 739.07 1039.98 695.36
00001187 00000161 690.47 251.55 404.19 591.09 855.84 552.47 1037.42 499.01 1009.74 643.44 902.78 740.02 1041.54 696.59
00001188 00000162 692.11 251.23 403.08 592.03 856.66 554.65 1037.55 500.92 1009.87 644.32 903.14 740.65 1042.23 697.02
00001189 00000163 692.03 248.74 403.53 595.08 856.78 555.61 1037.44 501.00 1010.17 645.99 903.86 741.54 1043.13 697.15
00001190 00000164 694.31 251.25 400.73 593.74 858.41 558.26 1037.26 504.78 1010.39 647.28 903.04 741.55 1043.21 698.08
00001191 00000165 695.33 253.16 400.34 592.95 859.67 559.99 1037.99 505.30 1012.70 647.73 903.28 742.45 1043.58 698.23
00001192 00000166 695.33 254.51 400.68 590.78 861.46 559.31 1039.36 505.50 1013.61 648.37 903.94 741.76 1043.57 698.23
00001193 00000167 695.43 258.70 401.52 586.27 862.61 559.93 1040.98 506.46 1015.71 650.29 900.58 739.44 1043.81 696.51
00001194 00000168 695.66 257.42 401.78 587.32 864.00 560.50 1041.33 506.85 1016.28 649.75 901.59 739.41 1043.46 696.35
