Video ID: 	nmnkSnvgw04
H: 	1080
W: 	1920
FPS: 	25.0

FRAME INDEX X0 Y0 W H [Landmarks (5 Points)]

00069888 00000000 847.59 96.33 503.87 646.44 948.92 358.67 1145.42 354.56 1025.16 495.57 988.47 582.34 1137.66 579.57
00069889 00000001 841.08 100.18 505.36 643.09 941.73 362.55 1139.05 357.20 1018.77 501.12 984.65 587.34 1132.39 583.54
00069890 00000002 833.51 101.50 501.74 633.39 934.86 364.70 1143.58 354.04 1019.89 501.78 980.95 590.57 1130.27 581.91
00069891 00000003 832.36 99.11 499.28 635.01 936.17 363.49 1144.63 353.64 1021.63 501.45 981.02 591.76 1127.66 583.93
00069892 00000004 831.50 94.72 500.10 642.88 939.81 361.71 1146.75 352.14 1026.38 497.61 984.12 592.94 1127.72 585.31
00069893 00000005 831.28 93.42 500.92 645.27 944.08 360.85 1152.20 351.35 1034.26 496.68 988.62 593.31 1133.21 585.74
00069894 00000006 835.36 98.21 501.54 637.76 947.63 362.30 1159.22 351.67 1041.38 497.84 992.69 594.60 1142.16 586.61
00069895 00000007 838.05 96.19 505.83 642.10 952.43 363.59 1167.81 352.50 1049.66 499.74 997.10 594.96 1154.55 586.75
00069896 00000008 842.35 103.55 507.90 635.33 958.33 365.66 1175.21 351.34 1060.01 500.15 1007.00 595.99 1166.77 585.14
00069897 00000009 849.38 110.34 514.34 634.56 968.70 370.14 1186.92 353.38 1074.48 504.56 1021.68 601.74 1182.24 588.76
00069898 00000010 858.41 103.92 514.54 646.92 980.95 373.12 1196.43 354.96 1087.84 502.61 1036.65 604.96 1194.97 590.59
00069899 00000011 868.52 113.14 511.82 640.38 993.53 375.73 1209.74 356.98 1103.12 505.69 1049.04 608.56 1206.60 593.89
00069900 00000012 884.59 111.67 500.97 642.92 1014.15 372.37 1226.54 358.87 1122.15 501.49 1061.84 607.47 1210.64 597.27
00069901 DELETE   890.43 100.22 501.89 655.74 1027.87 373.16 1243.68 360.49 1141.19 500.18 1071.61 608.61 1228.06 598.93
00069902 DELETE   900.07 114.06 501.97 642.75 1041.63 378.44 1254.78 362.07 1159.24 502.24 1091.40 609.57 1245.44 596.90
00069903 DELETE   910.38 121.45 504.59 634.43 1057.16 384.44 1272.57 364.10 1181.35 507.52 1111.26 614.55 1266.89 598.84
00069904 00000016 921.56 134.84 501.87 625.03 1071.72 387.96 1283.95 366.47 1197.38 508.51 1128.10 617.90 1278.53 601.17
00069905 00000017 930.34 141.33 500.31 624.81 1087.19 383.82 1297.91 371.11 1215.04 504.75 1140.26 617.11 1289.16 604.59
00069906 00000018 937.51 144.99 496.29 620.51 1096.11 384.12 1306.07 370.19 1226.65 511.00 1150.82 619.90 1298.28 606.32
00069907 00000019 941.93 146.03 493.15 620.11 1103.01 384.82 1311.10 372.22 1234.27 508.61 1155.58 618.38 1304.63 605.89
00069908 00000020 947.42 145.75 488.44 617.79 1107.38 385.48 1316.38 370.95 1239.86 506.02 1161.59 619.73 1310.53 605.87
00069909 00000021 951.48 141.62 488.24 622.74 1114.55 385.10 1323.01 369.92 1247.78 502.49 1167.97 619.02 1317.78 604.40
00069910 00000022 954.71 137.41 487.81 628.20 1119.67 384.50 1329.96 367.14 1257.22 504.10 1170.66 619.91 1325.82 603.42
00069911 00000023 960.32 138.37 485.15 624.13 1121.97 385.04 1335.20 365.38 1262.00 503.56 1173.25 619.87 1332.53 601.36
00069912 00000024 961.46 127.66 484.15 633.57 1126.69 388.47 1337.66 369.65 1263.40 505.91 1175.26 614.98 1331.71 600.25
00069913 00000025 962.58 126.42 484.53 634.26 1128.57 388.66 1339.12 369.78 1265.34 504.93 1176.25 613.35 1333.52 598.47
00069914 00000026 962.09 128.64 484.56 630.25 1128.18 390.07 1338.94 370.13 1265.60 505.59 1176.96 613.99 1333.56 598.26
00069915 DELETE   961.54 131.00 483.50 629.38 1129.12 400.54 1334.75 379.53 1264.13 505.93 1176.51 615.35 1331.59 598.63
00069916 DELETE   961.04 129.09 483.23 633.28 1130.98 405.19 1334.28 386.25 1264.29 505.64 1174.46 614.72 1329.21 599.73
00069917 DELETE   959.93 125.72 483.92 638.20 1128.04 401.93 1333.47 383.06 1262.54 503.53 1172.75 615.43 1329.58 600.22
00069918 00000030 959.56 123.78 484.20 641.45 1125.78 397.21 1332.82 378.40 1260.45 502.99 1172.43 615.42 1328.63 600.22
00069919 00000031 960.49 123.62 483.04 640.88 1126.62 393.75 1332.78 376.03 1260.54 502.51 1173.59 614.88 1326.98 600.81
00069920 00000032 960.42 124.70 482.91 640.23 1125.79 391.45 1333.42 373.21 1260.96 501.97 1174.01 615.93 1327.37 601.49
00069921 00000033 960.18 126.40 483.47 638.94 1126.69 391.12 1333.93 372.80 1261.71 503.55 1174.90 615.78 1326.68 601.35
00069922 00000034 959.51 126.26 483.89 640.35 1127.24 390.36 1333.73 372.47 1262.10 503.25 1174.82 615.83 1326.20 601.75
00069923 00000035 960.61 125.80 483.32 644.80 1127.26 388.90 1332.75 372.07 1260.82 502.62 1174.76 616.18 1325.12 602.95
00069924 00000036 961.75 126.14 482.43 649.77 1128.49 386.94 1330.64 372.35 1259.27 500.20 1177.66 618.65 1322.51 607.43
00069925 00000037 958.27 134.85 485.71 640.59 1124.80 385.98 1328.64 368.78 1260.72 498.93 1177.77 625.89 1322.26 609.61
00069926 00000038 958.62 140.30 485.09 628.44 1119.77 386.08 1329.49 367.80 1257.66 500.09 1169.96 620.01 1327.21 602.91
00069927 00000039 956.33 127.07 487.24 632.00 1117.67 389.45 1327.26 371.73 1249.98 503.09 1163.94 610.96 1321.10 596.64
00069928 00000040 955.83 138.23 488.28 615.12 1111.38 383.01 1326.48 366.65 1248.08 497.78 1163.10 612.03 1324.20 596.14
00069929 00000041 954.34 140.87 487.87 609.56 1109.91 381.89 1325.24 365.97 1245.68 497.44 1162.04 611.42 1321.58 595.81
00069930 00000042 953.60 140.97 488.84 609.83 1109.26 381.71 1324.35 366.00 1244.35 497.12 1161.10 610.88 1320.34 595.42
00069931 00000043 952.39 143.10 488.84 607.88 1108.21 381.90 1323.87 366.22 1243.91 497.22 1160.06 610.72 1320.09 595.24
00069932 00000044 953.07 141.28 488.27 608.00 1108.60 381.72 1323.76 365.85 1243.70 496.45 1160.15 610.04 1319.72 594.46
00069933 00000045 952.90 141.72 487.45 614.40 1111.18 380.70 1322.48 363.65 1246.07 496.98 1164.63 612.12 1319.22 595.70
00069934 00000046 952.93 134.10 488.19 625.73 1115.22 380.41 1323.43 363.57 1250.25 495.04 1167.57 612.55 1319.77 596.30
00069935 00000047 955.72 119.30 486.24 636.96 1121.04 385.02 1326.91 368.62 1252.83 496.68 1165.88 602.75 1323.38 589.45
00069936 00000048 958.52 117.58 484.97 638.66 1125.60 384.24 1334.27 367.85 1259.97 494.71 1168.67 602.24 1328.97 589.02
00069937 00000049 960.48 117.46 483.89 635.67 1130.00 382.23 1337.96 366.61 1265.79 492.39 1174.66 601.88 1330.38 589.58
00069938 00000050 963.22 114.20 482.67 632.58 1135.14 380.13 1339.36 364.37 1270.67 489.99 1182.57 601.61 1329.62 589.66
00069939 00000051 966.32 113.55 481.09 630.49 1139.96 374.73 1343.70 360.60 1275.90 488.56 1188.06 599.83 1331.99 589.29
00069940 00000052 971.09 114.20 482.57 626.86 1143.38 372.58 1348.33 357.15 1279.80 487.54 1191.42 597.83 1339.11 586.30
00069941 00000053 974.15 109.28 483.18 626.47 1146.52 372.86 1353.02 356.13 1283.19 485.04 1193.89 594.87 1345.40 581.98
00069942 00000054 976.31 108.57 482.74 626.65 1148.64 369.94 1354.11 354.22 1284.42 483.02 1197.40 594.33 1345.86 582.31
00069943 00000055 977.82 107.50 482.13 628.47 1151.56 368.02 1353.15 353.71 1286.80 480.35 1201.03 593.38 1345.40 582.74
00069944 00000056 979.15 108.81 480.68 628.03 1153.06 365.82 1352.30 352.69 1287.67 477.63 1201.86 592.37 1345.38 582.90
00069945 00000057 979.73 107.94 481.08 627.72 1153.16 365.45 1352.46 352.68 1286.82 476.13 1201.47 591.61 1345.23 582.37
00069946 00000058 979.10 107.86 481.69 628.97 1152.47 364.86 1351.89 351.92 1286.11 476.37 1201.43 591.49 1344.95 582.04
00069947 00000059 977.44 105.78 482.48 630.43 1150.04 366.04 1351.67 352.73 1284.09 478.24 1198.16 592.51 1343.37 582.71
00069948 00000060 974.13 108.64 483.48 627.86 1145.17 367.24 1346.61 354.30 1277.95 479.69 1195.70 593.51 1338.20 583.81
00069949 00000061 971.41 109.24 484.05 633.72 1140.89 367.95 1344.22 356.19 1273.52 482.64 1189.23 597.62 1333.15 588.97
00069950 00000062 970.19 112.98 482.17 637.67 1137.81 368.16 1340.92 357.57 1268.95 483.78 1185.29 599.63 1328.27 592.02
00069951 00000063 968.20 113.92 482.51 641.28 1135.48 368.60 1339.47 358.25 1267.47 484.88 1181.94 601.79 1326.98 594.26
00069952 00000064 965.89 111.55 484.41 640.45 1131.92 370.18 1339.11 358.70 1264.11 485.56 1179.00 602.45 1325.98 593.86
00069953 00000065 964.24 113.02 485.76 629.35 1126.31 373.10 1337.54 358.15 1259.44 487.64 1174.59 601.04 1327.63 589.25
00069954 00000066 960.23 108.42 487.87 626.27 1121.94 374.80 1334.32 358.64 1253.36 487.34 1169.76 598.83 1323.03 586.01
00069955 00000067 959.15 109.18 487.45 622.32 1117.43 376.36 1330.22 359.37 1246.91 487.21 1163.62 598.07 1318.96 584.60
00069956 00000068 954.39 109.01 491.74 625.17 1110.27 377.86 1324.50 359.43 1239.16 485.79 1156.91 597.98 1315.07 583.22
00069957 00000069 947.77 115.44 497.05 616.56 1101.90 381.17 1316.14 361.35 1232.29 492.60 1150.28 599.08 1308.33 583.11
00069958 00000070 942.91 113.92 498.68 614.02 1095.86 380.70 1311.55 360.69 1225.49 491.16 1145.25 597.66 1303.63 581.70
00069959 00000071 940.88 121.64 496.82 604.74 1090.11 379.10 1306.86 360.74 1217.38 493.38 1139.39 596.11 1297.98 581.44
00069960 00000072 938.59 123.25 498.57 603.02 1085.12 378.50 1301.79 360.50 1209.27 491.66 1131.82 593.10 1292.47 578.83
00069961 00000073 937.22 124.92 499.23 598.18 1081.05 376.46 1298.12 358.37 1203.57 492.75 1127.39 591.40 1288.70 577.22
00069962 00000074 937.88 121.69 496.88 591.22 1079.20 370.20 1295.07 351.39 1200.80 488.37 1130.11 585.72 1287.53 570.80
00069963 00000075 937.49 122.38 498.48 584.54 1081.03 360.98 1297.50 343.04 1205.18 476.03 1134.69 576.54 1293.10 561.82
00069964 00000076 939.05 112.59 499.66 597.81 1085.91 355.43 1304.68 338.37 1213.79 470.01 1139.69 575.53 1299.98 561.27
00069965 00000077 941.16 107.08 499.37 610.77 1090.72 353.54 1309.35 337.34 1220.80 465.61 1140.55 575.85 1304.61 562.43
00069966 00000078 942.13 109.21 498.66 613.99 1094.12 355.64 1307.33 338.46 1223.35 466.52 1145.61 578.19 1303.68 564.26
00069967 00000079 943.33 112.39 496.90 610.66 1096.37 357.83 1309.40 339.85 1226.63 472.00 1146.63 579.80 1304.49 565.34
00069968 00000080 943.71 110.56 495.52 610.95 1096.31 360.24 1307.91 341.26 1226.09 473.01 1146.54 579.69 1304.57 564.31
00069969 00000081 941.00 115.97 497.69 606.94 1092.39 359.92 1305.28 341.13 1221.84 473.29 1144.14 579.65 1303.06 564.49
00069970 00000082 938.52 114.85 498.17 608.18 1087.46 359.45 1301.54 340.79 1215.64 470.70 1140.25 579.19 1299.79 564.18
00069971 00000083 932.95 120.28 499.28 602.95 1079.45 360.58 1292.16 340.49 1205.34 471.48 1136.28 579.92 1293.96 563.92
00069972 00000084 926.67 122.82 500.05 602.63 1071.47 363.24 1285.15 341.20 1197.69 476.33 1130.42 583.17 1289.07 565.61
00069973 00000085 921.93 116.17 499.49 610.86 1067.63 367.53 1278.21 343.96 1193.12 478.64 1126.19 585.53 1284.70 566.73
00069974 00000086 916.74 120.51 498.15 609.38 1061.17 368.79 1271.96 345.82 1185.99 481.17 1121.16 588.18 1277.11 569.83
00069975 00000087 913.43 122.15 497.56 611.03 1056.25 368.83 1267.60 347.03 1178.73 480.11 1115.20 590.28 1270.17 572.78
00069976 00000088 910.13 120.07 497.51 614.88 1051.85 368.70 1263.03 346.81 1172.78 481.01 1110.67 592.35 1265.47 574.77
00069977 00000089 906.68 117.42 497.86 618.11 1048.87 369.17 1259.70 346.48 1169.95 480.02 1108.06 593.19 1262.26 574.90
00069978 00000090 903.63 120.00 496.21 616.87 1046.67 369.24 1256.94 346.78 1168.38 481.89 1105.60 593.98 1259.05 575.99
00069979 00000091 901.91 120.62 496.94 620.21 1043.58 371.57 1254.23 347.83 1165.38 485.86 1103.62 597.10 1257.95 577.97
00069980 00000092 902.06 125.32 496.29 616.86 1042.13 374.10 1253.12 349.24 1164.16 487.60 1102.71 599.24 1258.12 579.13
00069981 00000093 901.82 125.82 496.63 617.94 1042.60 375.95 1253.45 350.54 1165.66 489.01 1103.97 600.57 1259.27 579.90
00069982 00000094 903.21 126.06 498.53 619.40 1045.29 378.21 1256.10 351.74 1169.60 490.11 1107.76 602.12 1263.72 580.59
00069983 00000095 905.79 122.59 501.38 626.12 1052.30 381.00 1262.76 354.18 1179.19 491.87 1115.72 605.04 1270.69 583.25
00069984 00000096 911.20 123.47 500.65 626.64 1058.33 384.57 1269.96 356.43 1187.85 495.61 1121.08 605.97 1279.28 583.38
00069985 00000097 915.15 115.80 501.00 637.18 1067.19 386.76 1276.45 358.22 1199.08 494.01 1128.69 604.92 1288.47 581.93
00069986 00000098 918.72 125.70 501.36 627.87 1073.96 386.42 1282.06 356.81 1208.67 491.32 1137.53 605.54 1295.91 581.52
00069987 00000099 925.95 125.48 498.49 634.95 1084.07 381.22 1291.12 360.28 1217.97 486.30 1140.34 607.25 1301.00 586.66
00069988 00000100 931.76 131.15 495.32 630.61 1090.79 382.62 1298.24 361.90 1227.44 489.01 1148.25 609.17 1308.35 588.97
00069989 00000101 934.22 130.11 495.60 630.89 1093.55 385.06 1302.57 363.62 1233.87 492.28 1152.55 610.96 1314.51 590.25
00069990 00000102 936.31 132.84 493.86 624.75 1094.46 387.95 1303.52 365.07 1234.69 493.71 1154.96 611.21 1315.76 589.54
00069991 00000103 936.37 132.56 494.32 625.16 1093.97 389.74 1302.73 365.50 1234.22 494.55 1155.16 611.57 1315.91 588.89
00069992 00000104 935.83 132.48 495.89 627.43 1095.49 387.86 1305.90 364.58 1236.22 493.94 1154.81 611.22 1316.65 589.38
00069993 00000105 936.04 137.50 494.95 622.70 1095.62 387.40 1306.20 362.66 1237.11 492.11 1155.50 610.71 1318.03 587.64
00069994 00000106 935.96 133.36 495.58 623.16 1095.33 385.45 1306.76 360.15 1237.59 490.77 1156.15 609.48 1319.41 585.84
CROP_BBOX: 625 0 1677 993
