Video ID: 	lgbBQBZLwOQ
H: 	1080
W: 	1920
FPS: 	25.0

FRAME INDEX X0 Y0 W H [Landmarks (5 Points)]

00003341 00000000 911.27 291.87 449.70 564.16 1117.09 513.83 1300.56 512.23 1241.62 658.46 1119.37 727.14 1245.39 729.66
00003342 00000001 906.54 280.87 443.81 570.05 1107.80 506.89 1293.31 505.22 1233.46 650.88 1109.85 721.73 1239.53 723.83
00003343 DELETE   901.81 281.65 444.64 564.41 1103.12 501.71 1289.65 500.29 1230.92 646.26 1107.16 717.15 1238.38 719.30
00003344 00000003 897.06 284.07 446.83 558.70 1101.88 498.54 1288.65 496.47 1232.54 644.28 1107.02 713.56 1240.10 715.18
00003345 DELETE   896.28 282.34 447.00 559.59 1100.78 496.67 1288.21 495.05 1232.18 642.01 1107.75 713.51 1240.75 715.33
00003346 00000005 898.74 279.46 446.66 563.34 1103.30 496.91 1289.42 494.40 1233.41 642.48 1109.30 714.33 1241.04 715.44
00003347 00000006 904.87 278.54 443.75 565.16 1107.79 496.98 1290.49 494.01 1234.11 643.48 1114.39 715.93 1241.72 716.57
00003348 00000007 910.09 277.87 444.41 569.65 1112.59 499.53 1296.16 497.57 1236.32 647.62 1116.34 719.59 1242.91 721.10
00003349 00000008 912.03 279.72 449.43 573.41 1112.69 501.97 1300.68 501.89 1237.33 650.83 1111.56 721.00 1246.05 724.58
00003350 00000009 910.48 283.96 455.39 576.97 1107.60 504.07 1302.85 504.31 1237.69 652.46 1102.58 722.67 1247.18 727.16
00003351 00000010 909.99 282.20 456.24 574.45 1104.26 504.95 1301.96 505.28 1233.13 652.91 1099.08 720.14 1245.93 724.81
00003352 00000011 909.42 281.74 450.24 567.05 1099.05 500.94 1295.42 503.44 1223.42 649.96 1094.63 713.88 1241.15 719.95
00003353 00000012 900.44 285.28 452.35 557.71 1088.08 496.33 1289.23 500.69 1214.10 646.24 1082.93 707.17 1234.48 714.39
00003354 00000013 896.80 273.88 445.20 557.32 1078.10 485.27 1275.51 487.02 1206.79 637.53 1080.85 704.73 1231.56 706.39
00003355 00000014 891.35 263.31 449.61 565.15 1070.78 477.78 1272.39 479.03 1201.65 629.75 1078.26 699.92 1230.81 700.61
00003356 00000015 889.61 248.31 449.36 585.48 1069.44 477.68 1262.79 470.56 1192.88 621.74 1078.58 700.82 1226.73 696.39
00003357 00000016 887.33 246.06 451.57 584.38 1064.89 474.04 1258.42 468.83 1186.85 618.06 1072.33 696.29 1222.26 693.41
00003358 00000017 886.81 244.17 451.59 582.89 1061.97 473.29 1255.65 469.06 1182.78 614.91 1069.16 694.19 1219.05 691.95
00003359 00000018 884.93 243.94 453.60 582.24 1060.28 473.63 1254.49 471.56 1179.99 615.54 1067.45 693.73 1216.14 693.28
00003360 00000019 882.42 245.88 454.72 579.29 1056.38 474.43 1252.24 472.69 1175.75 616.17 1063.20 692.48 1212.97 692.62
00003361 00000020 881.42 242.20 451.36 579.52 1053.02 472.91 1245.97 470.67 1170.79 613.55 1062.47 690.18 1209.99 689.72
00003362 00000021 876.15 240.90 451.70 577.42 1045.69 471.99 1240.18 470.80 1163.87 610.45 1054.83 685.98 1204.69 686.44
00003363 00000022 876.52 244.78 452.16 566.51 1036.36 475.24 1238.33 474.73 1154.85 616.70 1041.80 679.98 1193.57 682.37
00003364 00000023 872.53 242.51 453.58 567.44 1030.89 473.38 1236.36 473.36 1151.18 613.73 1037.28 677.95 1192.84 680.99
00003365 00000024 870.05 240.52 453.33 571.98 1028.49 471.86 1233.16 471.26 1148.79 611.28 1039.28 679.55 1190.34 682.06
00003366 00000025 869.77 239.85 451.74 572.94 1028.89 469.69 1231.93 468.35 1149.43 609.70 1041.97 679.98 1190.08 681.90
00003367 00000026 868.87 236.14 452.22 577.18 1028.55 469.64 1231.67 467.35 1149.60 609.03 1041.63 678.71 1191.51 679.89
00003368 00000027 866.91 238.10 454.18 573.88 1027.84 470.24 1231.76 467.71 1149.42 610.47 1041.05 679.36 1190.58 680.50
00003369 00000028 866.56 238.75 453.83 573.87 1027.81 470.79 1232.02 467.41 1150.52 610.70 1042.29 680.71 1191.42 681.11
00003370 00000029 868.44 243.27 451.40 570.10 1028.58 472.80 1232.08 468.51 1151.40 613.05 1044.62 683.03 1192.28 682.59
00003371 00000030 868.71 241.02 447.55 573.87 1036.73 469.09 1232.51 467.82 1156.57 608.40 1050.91 684.34 1199.16 684.52
00003372 00000031 870.33 240.30 446.47 577.26 1042.10 473.52 1232.82 470.18 1161.16 611.83 1057.26 688.02 1201.32 686.53
00003373 00000032 874.45 245.37 446.43 574.29 1044.82 477.85 1236.51 472.71 1164.10 616.78 1061.43 691.61 1204.96 689.07
00003374 00000033 878.66 262.51 449.25 561.61 1049.91 482.90 1244.04 476.87 1170.24 627.16 1066.77 699.33 1209.19 696.57
00003375 00000034 882.83 268.89 447.54 563.35 1054.33 489.26 1248.30 482.60 1175.04 636.42 1072.23 707.47 1214.09 704.01
00003376 00000035 887.20 276.67 448.80 566.61 1061.39 498.36 1255.95 494.58 1182.93 645.23 1071.25 712.94 1219.61 711.85
00003377 00000036 893.28 280.04 443.25 564.42 1062.38 500.23 1260.21 501.12 1188.20 646.73 1075.46 720.24 1226.62 720.77
00003378 00000037 896.72 271.57 446.00 584.36 1073.40 512.91 1263.89 510.80 1193.59 655.46 1082.82 726.49 1227.08 726.28
00003379 00000038 910.17 281.33 449.96 586.64 1081.98 516.29 1279.86 518.54 1203.56 659.95 1088.98 727.94 1235.41 733.40
00003380 00000039 922.20 303.89 447.16 566.72 1092.93 528.01 1288.11 527.43 1215.19 675.76 1102.09 734.74 1246.07 738.69
00003381 00000040 931.59 308.41 452.98 565.17 1102.52 536.55 1302.34 536.01 1225.02 683.44 1108.17 742.21 1254.08 746.19
00003382 00000041 938.31 310.36 455.71 564.13 1114.92 538.35 1313.79 538.80 1235.51 687.96 1117.35 746.29 1259.99 750.70
00003383 00000042 946.20 320.76 451.79 551.75 1127.02 537.04 1319.96 537.09 1246.10 686.84 1127.57 747.11 1264.96 750.82
00003384 00000043 948.98 316.31 447.95 553.07 1133.24 532.70 1322.86 532.88 1251.45 682.38 1135.56 745.20 1267.67 748.73
00003385 00000044 944.74 306.77 447.58 557.59 1130.54 525.72 1322.20 529.13 1250.71 675.32 1130.20 735.97 1268.38 742.34
00003386 00000045 940.55 293.53 448.38 561.74 1128.00 518.09 1320.87 521.13 1248.51 665.43 1127.44 725.42 1269.34 731.25
00003387 00000046 932.96 286.22 449.71 563.98 1122.23 507.13 1314.85 508.04 1243.93 654.75 1123.58 717.71 1265.45 722.07
00003388 00000047 924.76 282.98 449.02 561.16 1115.78 499.54 1307.00 499.26 1239.67 643.75 1121.57 711.53 1263.05 714.77
00003389 00000048 917.88 284.99 443.15 560.63 1106.03 494.94 1295.39 495.45 1232.61 638.55 1108.91 707.35 1255.17 711.51
00003390 00000049 906.14 281.67 447.22 563.62 1100.28 491.00 1287.16 494.39 1225.57 635.87 1101.07 705.86 1243.03 711.99
00003391 00000050 898.80 287.93 439.57 549.54 1087.08 488.48 1276.35 484.48 1219.23 634.14 1099.35 711.27 1239.51 708.49
00003392 00000051 887.89 284.72 440.35 552.80 1078.60 489.52 1265.13 483.92 1209.61 631.30 1092.43 709.72 1231.62 704.90
00003393 00000052 879.38 285.04 435.70 551.55 1070.94 488.74 1252.83 480.74 1199.53 631.55 1083.68 708.03 1218.77 701.19
00003394 00000053 865.82 277.25 439.81 553.19 1056.30 483.15 1241.13 476.68 1183.26 629.01 1073.94 700.68 1207.66 697.68
00003395 00000054 853.01 277.63 445.74 554.92 1045.36 484.08 1230.69 476.07 1173.56 628.15 1061.12 698.39 1198.06 694.52
00003396 00000055 850.47 280.22 432.57 548.75 1027.80 483.44 1217.74 473.93 1165.97 623.35 1047.33 702.85 1193.23 694.66
00003397 00000056 847.67 276.64 429.60 550.18 1025.67 480.95 1215.78 470.52 1164.63 619.51 1045.84 700.65 1192.41 691.92
00003398 00000057 845.83 270.50 428.89 555.67 1024.51 481.14 1214.26 468.36 1165.36 617.49 1046.19 700.34 1193.27 689.63
00003399 00000058 846.43 270.05 428.64 554.77 1025.92 481.30 1215.47 466.51 1168.98 615.08 1050.33 700.13 1196.82 687.59
00003400 00000059 848.67 267.20 427.11 553.28 1027.56 481.33 1217.12 466.14 1171.46 612.15 1054.35 698.65 1201.63 685.49
00003401 00000060 851.67 258.82 434.11 563.21 1044.91 477.53 1225.52 461.93 1178.88 610.61 1071.09 694.02 1204.62 683.33
00003402 00000061 857.15 258.32 436.54 562.61 1049.18 478.20 1233.95 462.43 1184.37 614.97 1076.15 696.12 1209.93 685.32
00003403 00000062 861.36 266.00 438.58 560.18 1052.19 481.19 1238.22 466.68 1186.99 623.47 1080.01 700.58 1213.57 690.95
00003404 00000063 868.61 270.71 435.74 560.93 1056.77 485.69 1242.45 471.92 1188.43 631.87 1083.13 707.08 1215.14 697.85
00003405 00000064 874.73 271.45 432.04 563.29 1061.45 490.03 1246.26 475.92 1191.40 636.34 1086.77 713.86 1215.72 704.40
00003406 00000065 875.80 273.48 433.87 561.10 1064.25 492.43 1250.74 478.29 1195.76 637.05 1089.31 716.00 1217.77 706.51
00003407 00000066 876.77 272.95 433.28 558.98 1064.51 491.64 1251.86 476.00 1196.69 635.73 1090.33 714.50 1219.91 703.63
00003408 00000067 877.83 273.22 434.36 556.21 1063.85 488.56 1253.48 473.85 1196.84 633.18 1088.31 709.68 1222.78 699.64
00003409 00000068 877.93 272.74 435.57 557.44 1065.55 488.08 1252.88 472.69 1197.86 632.69 1089.18 708.49 1223.19 697.97
00003410 00000069 877.59 272.17 435.57 556.50 1064.15 487.26 1252.12 472.15 1197.01 631.22 1088.03 707.18 1223.55 696.86
00003411 00000070 877.84 270.00 436.00 555.66 1062.19 484.73 1251.19 470.51 1194.53 627.71 1085.50 703.68 1223.38 694.13
00003412 00000071 875.19 266.53 435.93 557.91 1058.59 483.19 1246.20 469.66 1189.44 626.04 1083.93 701.82 1220.23 692.65
00003413 00000072 870.69 269.69 437.23 554.01 1054.71 482.60 1242.11 470.65 1184.47 626.36 1080.78 701.50 1213.87 693.74
00003414 00000073 867.95 268.73 438.78 553.92 1049.95 483.05 1241.06 471.44 1180.76 625.49 1074.74 699.88 1212.52 692.79
00003415 00000074 863.81 272.57 440.62 551.66 1048.52 484.51 1238.04 473.57 1179.01 628.69 1072.84 701.35 1208.58 695.01
00003416 00000075 861.98 275.93 440.02 554.52 1044.73 487.88 1236.06 477.63 1175.40 633.08 1067.21 704.51 1207.32 699.14
00003417 00000076 860.67 279.58 441.13 556.35 1041.88 490.18 1233.22 481.15 1171.52 635.28 1062.13 705.48 1205.42 701.27
00003418 00000077 857.26 281.47 443.25 556.64 1038.05 491.54 1230.52 483.40 1168.91 635.29 1057.99 705.63 1204.56 702.18
00003419 00000078 854.49 282.79 441.38 555.46 1034.74 490.25 1225.43 482.21 1165.28 633.23 1055.39 704.89 1201.19 701.40
00003420 00000079 851.39 278.65 442.46 556.29 1032.64 488.29 1223.52 480.31 1162.97 629.51 1052.30 702.43 1197.43 698.88
00003421 00000080 849.08 275.55 442.91 558.06 1031.52 485.56 1220.34 477.29 1160.74 626.24 1051.60 700.44 1195.16 696.52
00003422 00000081 848.78 275.11 442.22 559.95 1030.33 486.17 1219.29 477.73 1159.72 626.63 1050.51 701.57 1194.56 697.58
00003423 00000082 850.76 277.48 442.73 559.59 1031.35 487.95 1221.52 480.84 1160.76 630.73 1052.26 703.75 1196.30 700.89
00003424 00000083 855.20 282.06 444.75 556.53 1037.44 492.34 1230.28 484.88 1167.54 637.08 1054.85 707.08 1201.25 704.22
00003425 00000084 864.80 284.11 444.09 558.88 1046.74 498.76 1239.59 490.51 1174.72 644.48 1060.83 712.71 1205.55 709.33
00003426 00000085 875.67 288.60 437.49 555.78 1057.43 501.78 1246.51 493.75 1185.05 646.46 1072.57 715.62 1213.34 711.64
00003427 00000086 885.48 291.15 433.97 556.01 1069.30 504.72 1257.53 498.81 1198.32 643.86 1080.30 720.59 1223.47 715.78
00003428 00000087 888.87 284.11 439.98 564.52 1074.69 505.43 1268.13 502.56 1205.80 646.51 1083.20 722.52 1229.74 720.52
00003429 00000088 894.86 287.37 440.54 561.00 1078.75 505.38 1275.25 503.38 1210.81 650.15 1088.21 725.67 1234.73 724.20
00003430 00000089 895.04 287.65 442.14 564.37 1080.76 505.46 1275.95 503.60 1212.33 650.63 1088.72 726.57 1235.36 725.31
00003431 00000090 894.70 287.15 442.24 562.82 1079.96 505.27 1275.60 503.78 1211.33 650.86 1086.91 724.51 1235.61 723.76
00003432 00000091 894.33 289.22 439.66 556.32 1077.52 505.74 1273.49 503.43 1208.79 650.23 1084.47 722.83 1233.30 721.61
00003433 00000092 885.57 282.15 439.58 556.74 1069.54 506.31 1261.59 499.57 1196.96 649.03 1079.06 715.80 1221.55 712.54
00003434 00000093 879.99 285.81 438.07 552.51 1055.50 510.59 1245.26 500.78 1178.30 648.53 1066.12 713.38 1207.77 708.58
00003435 00000094 864.48 287.27 441.89 550.65 1031.88 507.81 1226.14 499.28 1155.82 639.79 1050.37 711.02 1197.60 707.11
00003436 00000095 847.71 278.04 444.88 559.35 1010.40 501.31 1209.92 493.56 1136.37 636.11 1031.63 707.16 1181.03 703.82
00003437 00000096 841.63 272.29 436.50 559.99 996.05 498.79 1194.44 488.94 1121.70 645.16 1012.02 711.65 1172.82 702.99
00003438 00000097 830.10 270.84 442.56 566.92 985.37 501.37 1180.25 489.42 1104.34 645.65 1003.49 708.78 1158.24 700.65
00003439 00000098 824.44 273.25 441.24 563.83 977.59 500.18 1172.71 490.36 1095.40 642.59 1000.89 711.27 1151.53 704.70
00003440 00000099 821.64 273.81 441.28 560.48 974.47 496.11 1170.79 486.19 1092.43 639.98 999.25 708.73 1148.92 702.10
00003441 00000100 819.52 272.84 443.59 562.80 971.98 493.82 1170.95 485.58 1091.30 638.19 993.57 706.29 1148.27 701.31
00003442 00000101 817.90 271.75 443.66 564.81 971.62 493.21 1169.30 486.19 1090.39 636.54 991.78 704.77 1148.08 700.83
00003443 00000102 818.50 270.34 442.21 564.79 973.70 493.81 1171.45 485.44 1093.41 637.43 995.71 706.30 1150.07 701.19
00003444 00000103 821.77 267.81 440.02 568.10 979.98 496.67 1173.79 487.87 1098.90 638.34 998.96 705.87 1152.29 700.45
00003445 00000104 823.42 269.49 442.15 568.21 985.90 497.41 1181.77 489.30 1107.23 641.03 994.88 703.55 1155.84 699.08
00003446 00000105 828.15 269.67 441.18 566.65 993.56 493.94 1191.26 491.12 1118.48 643.82 1002.22 707.64 1161.27 705.16
00003447 00000106 832.60 273.82 440.90 566.67 1000.17 493.02 1199.18 489.24 1129.27 641.74 1012.23 710.40 1171.11 706.92
00003448 00000107 841.90 272.77 439.40 571.57 1008.46 491.20 1204.53 486.30 1139.04 637.77 1021.29 712.33 1178.03 708.15
00003449 00000108 849.54 272.90 441.08 575.17 1017.79 491.51 1213.42 488.26 1145.48 630.69 1029.22 705.51 1188.09 706.09
00003450 00000109 858.01 277.83 442.90 560.01 1029.42 492.35 1226.17 485.15 1159.45 632.70 1045.98 702.66 1202.31 699.93
00003451 00000110 869.51 278.41 440.83 553.17 1043.58 492.66 1236.88 484.01 1171.48 635.96 1059.51 699.92 1210.87 696.20
00003452 00000111 879.14 274.72 435.43 557.14 1057.33 491.02 1246.07 480.43 1184.16 637.69 1075.31 705.59 1216.96 699.39
00003453 00000112 891.79 275.39 434.84 558.31 1071.36 486.20 1259.59 479.22 1201.73 629.21 1087.49 706.20 1232.67 700.30
00003454 00000113 897.41 275.28 437.49 557.76 1081.72 482.75 1271.09 475.76 1215.90 625.27 1096.50 704.78 1242.29 699.29
00003455 00000114 910.97 269.62 429.46 551.67 1091.30 478.39 1280.58 471.29 1227.72 619.34 1106.59 697.00 1254.47 691.40
00003456 00000115 915.82 261.19 434.42 554.38 1100.09 476.48 1290.99 468.52 1241.29 612.58 1116.67 692.38 1267.34 685.78
00003457 00000116 923.77 252.17 442.23 563.75 1125.08 471.18 1306.65 462.33 1255.14 609.40 1138.40 690.71 1270.85 685.24
00003458 00000117 933.60 253.70 439.73 558.08 1139.60 470.94 1316.77 462.95 1267.67 609.79 1149.18 685.99 1278.67 681.41
00003459 00000118 941.89 251.39 434.92 557.93 1146.27 468.77 1323.19 461.69 1275.54 605.84 1157.29 683.96 1286.67 679.99
00003460 00000119 948.41 251.77 431.17 554.97 1151.85 465.40 1330.33 460.84 1281.26 602.10 1163.40 680.13 1294.10 678.06
00003461 00000120 955.02 246.92 428.41 556.96 1160.65 463.76 1340.01 457.37 1295.58 597.49 1168.22 677.47 1302.60 673.96
00003462 00000121 957.05 246.89 433.81 555.84 1167.06 462.66 1349.76 455.19 1308.89 594.67 1175.13 677.27 1313.18 672.82
00003463 00000122 970.10 247.06 429.95 551.37 1174.56 462.92 1361.46 455.41 1318.02 589.73 1188.21 678.50 1327.16 673.16
00003464 00000123 980.24 245.57 428.50 550.94 1187.73 464.02 1371.73 455.27 1330.89 590.58 1199.86 679.37 1336.36 672.84
00003465 00000124 991.12 248.31 424.34 547.44 1200.90 463.14 1381.78 456.05 1344.93 591.37 1213.14 681.90 1344.11 677.00
00003466 00000125 996.59 242.52 428.92 561.54 1220.84 460.13 1385.10 457.76 1352.43 591.90 1234.48 682.65 1346.82 680.64
00003467 00000126 1006.12 240.97 426.35 563.74 1229.29 460.48 1394.32 457.97 1359.72 595.53 1246.16 686.94 1354.27 684.67
00003468 00000127 1008.32 241.68 430.08 566.53 1233.75 464.59 1400.83 458.49 1366.29 601.97 1250.72 693.01 1358.18 688.15
00003469 00000128 1008.21 245.84 431.29 567.15 1233.84 468.02 1402.92 460.67 1368.55 608.78 1251.92 699.39 1359.75 693.83
00003470 00000129 1007.16 249.09 431.61 565.80 1226.98 470.94 1400.25 461.56 1361.76 613.51 1245.88 702.31 1357.58 695.48
00003471 00000130 1002.86 252.79 434.11 563.61 1220.01 473.09 1393.15 462.59 1353.19 615.06 1240.22 703.60 1352.91 695.85
00003472 00000131 992.56 253.12 439.15 563.37 1207.64 471.21 1385.62 460.68 1341.59 615.35 1225.68 701.77 1345.72 694.12
00003473 00000132 985.19 254.07 442.35 563.63 1196.76 470.15 1375.81 461.96 1328.75 612.39 1214.52 696.55 1339.25 691.12
00003474 00000133 983.57 252.93 429.12 560.07 1179.12 474.09 1364.65 464.89 1315.61 609.37 1205.92 701.08 1335.06 692.18
00003475 00000134 973.86 249.10 431.22 563.67 1169.74 473.40 1354.51 465.04 1302.67 608.09 1195.63 700.11 1322.28 692.30
00003476 00000135 962.83 253.32 435.95 559.09 1157.78 469.57 1344.60 461.92 1289.35 610.02 1178.41 697.58 1306.66 691.72
00003477 00000136 949.77 252.95 435.49 562.00 1146.27 470.47 1329.95 464.03 1276.37 610.68 1168.72 700.46 1291.96 695.94
00003478 00000137 937.33 252.94 440.86 562.10 1133.46 472.18 1316.58 463.88 1260.08 613.86 1148.91 695.79 1276.81 690.49
00003479 00000138 920.47 253.03 445.13 562.24 1117.87 471.12 1301.90 463.92 1246.26 609.17 1130.19 688.83 1265.75 684.63
00003480 00000139 912.31 260.84 434.17 550.18 1094.44 470.33 1285.43 464.24 1232.73 608.80 1112.06 691.50 1257.06 686.10
00003481 00000140 905.08 246.58 434.59 568.03 1089.38 471.28 1280.04 463.24 1220.92 608.48 1109.57 692.85 1252.21 685.98
00003482 00000141 897.86 244.11 435.57 575.10 1081.43 471.96 1272.80 462.51 1213.67 610.04 1102.91 695.93 1245.55 688.42
00003483 00000142 891.48 245.77 436.28 573.83 1075.93 473.57 1266.04 463.55 1207.95 610.41 1098.33 697.20 1237.65 689.55
00003484 00000143 887.64 250.64 436.88 570.50 1072.09 477.28 1261.53 465.42 1203.57 614.31 1094.43 700.21 1231.56 691.44
00003485 00000144 884.31 257.33 436.96 568.54 1069.30 481.53 1258.90 470.53 1200.12 621.19 1090.90 705.47 1226.12 697.87
00003486 00000145 881.50 264.97 436.76 566.42 1068.91 484.43 1257.35 474.79 1198.17 629.30 1091.04 712.51 1220.59 706.19
00003487 00000146 879.86 270.26 437.32 562.62 1068.72 485.94 1256.83 478.03 1197.50 633.12 1089.85 714.10 1218.42 709.37
00003488 00000147 882.32 270.54 437.24 565.79 1071.54 489.77 1260.86 481.71 1200.76 635.51 1090.02 716.23 1221.36 711.25
00003489 00000148 886.56 278.16 440.19 558.32 1074.16 491.59 1264.02 485.04 1205.65 635.09 1087.48 713.79 1226.20 708.15
00003490 00000149 889.87 278.36 440.50 558.09 1079.15 490.40 1268.82 485.86 1210.97 633.36 1089.92 709.76 1231.97 705.92
00003491 00000150 896.07 275.77 439.21 560.99 1084.95 487.68 1275.86 485.24 1217.65 632.20 1095.15 708.45 1239.34 706.64
00003492 00000151 899.23 279.80 438.88 558.67 1089.15 487.00 1277.94 481.96 1222.58 632.03 1099.70 710.00 1242.32 706.66
00003493 00000152 909.62 282.41 431.67 551.33 1095.84 486.39 1283.85 481.11 1231.42 629.64 1105.88 707.32 1252.32 703.94
00003494 00000153 914.61 281.44 434.77 547.33 1102.62 485.94 1292.76 480.41 1241.72 627.59 1115.73 704.98 1264.46 700.77
00003495 00000154 922.37 279.24 444.96 556.88 1121.27 487.25 1306.00 482.82 1249.38 631.82 1128.81 700.74 1267.04 700.35
00003496 00000155 932.56 284.13 441.22 551.74 1131.74 490.68 1314.33 485.36 1259.94 636.31 1137.92 703.97 1275.02 702.79
00003497 00000156 941.36 283.07 436.11 552.49 1141.89 492.65 1323.18 486.18 1270.17 638.97 1149.28 708.52 1281.67 706.06
00003498 00000157 951.58 286.23 434.45 547.07 1150.66 494.72 1333.10 487.84 1283.09 635.12 1156.93 712.05 1294.32 706.36
00003499 00000158 955.21 285.99 435.20 546.40 1154.41 493.28 1337.73 487.81 1286.78 631.89 1161.49 711.10 1298.24 706.34
00003500 00000159 957.83 286.05 437.27 546.22 1156.38 491.24 1340.77 484.91 1289.98 630.40 1164.80 709.21 1303.63 703.94
00003501 00000160 957.54 283.19 439.84 547.50 1156.03 487.88 1339.32 481.65 1288.61 624.85 1166.92 705.96 1304.89 700.63
00003502 00000161 957.51 280.74 439.06 548.51 1154.86 487.01 1337.61 480.75 1287.02 622.83 1167.12 704.85 1303.84 699.28
00003503 00000162 956.77 275.70 438.22 549.76 1153.21 485.43 1336.91 478.60 1286.24 621.03 1165.98 701.88 1304.69 695.74
00003504 00000163 955.72 274.85 436.36 549.47 1152.32 484.06 1335.16 477.20 1285.05 620.80 1165.57 702.10 1302.74 695.82
