Video ID: 	TEg93sEsVag
H: 	1080
W: 	1920
FPS: 	24.0

FRAME INDEX X0 Y0 W H [Landmarks (5 Points)]

00001868 00000000 1174.96 165.33 464.19 653.75 1206.18 438.05 1356.84 434.97 1206.72 561.79 1236.38 670.35 1342.33 668.60
00001869 00000001 1179.09 166.04 466.14 656.08 1209.86 439.93 1360.61 437.47 1211.46 566.40 1240.59 674.31 1346.36 673.04
00001870 00000002 1180.73 172.00 465.00 658.44 1216.33 443.01 1368.50 434.41 1224.47 567.88 1251.22 675.83 1362.98 670.07
00001871 00000003 1188.72 173.83 461.00 667.70 1225.49 442.39 1369.77 435.64 1230.76 572.00 1268.91 672.07 1387.17 666.07
00001872 00000004 1193.23 163.79 465.34 671.59 1227.32 443.72 1366.43 438.93 1222.48 576.27 1275.00 670.14 1391.27 665.04
00001873 00000005 1194.00 161.46 463.00 668.84 1227.05 442.09 1367.54 440.89 1224.25 574.93 1269.66 669.56 1382.55 668.04
00001874 00000006 1196.59 160.35 462.83 667.35 1229.10 441.78 1368.82 442.42 1227.05 575.23 1268.68 671.42 1374.80 671.78
00001875 00000007 1197.73 160.64 462.85 653.30 1229.82 438.86 1381.84 431.89 1240.33 559.92 1259.69 662.73 1372.66 658.44
00001876 00000008 1199.86 152.17 455.13 658.03 1229.45 426.92 1388.40 428.46 1229.67 557.90 1263.29 662.99 1372.61 663.28
00001877 00000009 1209.95 153.71 460.60 659.63 1243.37 434.92 1380.17 437.91 1243.63 562.86 1274.17 657.80 1373.78 660.39
00001878 00000010 1209.47 158.54 462.94 650.38 1241.16 440.27 1396.67 433.86 1255.19 559.53 1267.91 659.12 1384.98 655.50
00001879 DELETE   1216.62 159.64 463.90 668.82 1254.27 435.73 1391.48 435.45 1255.90 571.04 1293.32 669.91 1392.81 668.66
00001880 00000012 1218.42 162.03 465.36 680.30 1258.22 438.35 1392.89 436.62 1254.74 576.07 1302.28 672.62 1408.30 669.75
00001881 00000013 1214.68 162.18 462.62 681.73 1251.62 439.31 1402.44 428.50 1249.18 574.51 1300.46 680.24 1421.07 668.21
00001882 00000014 1217.98 163.58 462.88 683.28 1255.89 441.17 1393.65 435.98 1253.70 578.36 1303.56 676.76 1414.76 671.11
00001883 00000015 1219.69 159.54 461.65 668.48 1256.15 434.66 1400.70 434.52 1261.13 569.83 1295.46 668.37 1403.48 667.18
00001884 00000016 1219.38 156.25 459.77 661.58 1255.68 429.27 1401.67 431.65 1261.22 564.44 1291.22 659.98 1402.08 660.85
00001885 00000017 1216.90 151.66 463.18 663.13 1255.74 426.49 1401.46 428.03 1261.35 558.41 1290.38 655.87 1401.44 656.07
00001886 00000018 1217.43 152.29 465.26 662.95 1258.00 425.58 1405.62 426.98 1264.39 558.21 1294.10 654.79 1408.15 654.68
00001887 00000019 1217.65 148.30 469.67 671.23 1260.52 424.00 1420.24 421.30 1266.96 561.57 1299.50 660.56 1429.89 656.66
00001888 00000020 1218.11 144.18 469.33 676.36 1261.69 422.70 1422.52 421.50 1269.84 563.26 1300.34 660.42 1432.91 657.73
00001889 00000021 1219.68 142.60 469.88 679.15 1262.05 421.72 1424.21 420.02 1270.79 562.69 1300.39 661.86 1433.08 659.00
00001890 00000022 1219.26 142.71 471.69 679.52 1260.80 420.56 1425.94 417.98 1271.69 561.92 1300.24 664.60 1430.83 661.37
00001891 00000023 1219.22 140.08 471.09 681.61 1259.71 418.60 1427.42 414.52 1272.47 558.23 1298.12 665.59 1427.06 661.50
00001892 00000024 1223.45 135.95 469.58 686.95 1260.92 415.24 1422.06 415.26 1273.01 554.98 1297.85 659.12 1419.26 658.77
00001893 00000025 1216.86 133.99 472.24 685.68 1258.78 413.36 1430.53 408.34 1274.54 553.03 1295.60 663.09 1428.31 658.49
00001894 00000026 1223.40 135.67 470.24 688.00 1260.30 413.33 1423.84 412.95 1273.33 553.83 1296.97 659.70 1420.05 659.16
00001895 00000027 1221.91 133.70 470.81 689.87 1258.10 414.19 1422.40 411.85 1273.07 553.01 1294.89 660.45 1417.10 658.17
00001896 00000028 1214.60 132.25 474.69 689.79 1255.92 414.19 1429.19 406.81 1273.32 552.68 1294.34 666.50 1424.68 660.15
00001897 00000029 1213.50 130.39 475.38 693.45 1255.31 414.23 1428.64 406.42 1272.69 552.72 1294.30 667.93 1423.06 661.34
00001898 00000030 1210.39 131.54 476.94 693.46 1252.56 414.85 1427.32 406.18 1270.02 551.66 1291.95 668.71 1420.15 661.51
00001899 00000031 1214.02 134.29 473.54 701.01 1256.18 413.82 1417.92 408.48 1269.57 550.15 1294.73 664.73 1415.54 660.38
00001900 00000032 1214.35 135.29 471.86 704.75 1257.12 415.64 1417.52 407.89 1269.71 552.45 1297.80 668.63 1420.33 661.96
00001901 00000033 1214.33 131.59 469.27 706.35 1257.46 422.26 1415.60 412.95 1270.00 554.13 1297.42 671.01 1419.36 663.10
00001902 00000034 1214.47 131.23 465.94 694.52 1256.10 429.97 1412.08 425.37 1269.72 553.03 1292.52 660.94 1416.13 655.96
00001903 00000035 1207.93 127.69 469.38 691.85 1248.23 419.29 1410.41 415.31 1265.75 548.39 1283.71 654.39 1413.86 650.91
00001904 00000036 1208.40 120.15 466.08 704.32 1247.04 411.11 1410.81 405.53 1265.35 543.84 1282.06 657.52 1408.18 653.25
00001905 00000037 1206.48 117.29 468.70 713.81 1247.64 407.94 1412.31 400.44 1264.25 538.51 1282.31 658.22 1408.89 652.43
00001906 00000038 1206.50 115.08 468.53 715.90 1245.72 406.11 1412.18 397.91 1262.45 536.78 1280.10 657.27 1409.30 651.15
00001907 00000039 1202.52 114.81 467.91 696.14 1241.36 399.59 1409.90 399.95 1259.78 533.02 1269.27 642.89 1396.72 644.25
00001908 00000040 1200.83 115.08 467.16 688.96 1237.41 398.96 1406.22 399.67 1257.87 530.83 1263.31 640.41 1386.65 642.49
00001909 00000041 1196.63 111.95 470.12 689.14 1233.62 401.39 1401.85 399.04 1253.71 528.87 1259.24 642.53 1377.77 642.44
00001910 00000042 1195.65 111.15 467.43 688.00 1230.30 400.80 1398.46 397.91 1252.40 528.73 1255.96 644.42 1370.21 644.23
00001911 00000043 1195.14 112.03 462.19 684.14 1227.73 415.42 1386.46 407.46 1247.29 525.13 1253.86 646.72 1360.77 642.25
00001912 00000044 1196.10 112.97 460.86 681.78 1227.06 410.61 1388.96 405.64 1247.82 524.92 1252.80 644.91 1360.27 643.04
00001913 00000045 1196.05 112.01 462.91 682.81 1228.54 400.09 1394.25 398.57 1250.72 523.74 1252.34 641.51 1362.50 642.49
00001914 00000046 1194.13 112.31 464.43 680.62 1228.26 395.07 1394.06 392.65 1248.64 522.87 1252.36 640.53 1363.00 640.71
00001915 00000047 1192.22 111.07 463.49 681.37 1227.12 393.08 1393.62 390.21 1246.31 521.15 1249.95 640.42 1360.59 640.35
00001916 00000048 1192.37 112.76 462.27 680.46 1226.67 392.09 1392.49 389.80 1245.14 521.95 1250.11 640.06 1359.81 640.48
00001917 00000049 1189.84 111.79 463.66 683.58 1226.87 392.10 1392.24 389.11 1244.17 520.61 1250.49 639.44 1360.92 639.07
00001918 00000050 1189.82 113.46 463.28 683.28 1226.43 391.50 1390.57 388.77 1242.41 521.54 1250.55 639.54 1361.80 639.28
00001919 00000051 1188.12 115.01 461.65 685.67 1224.52 389.21 1389.62 389.05 1239.23 521.81 1248.24 638.77 1361.84 640.40
00001920 00000052 1188.08 118.48 460.63 683.12 1223.24 390.35 1388.13 390.82 1237.35 522.63 1246.71 639.88 1360.54 642.10
00001921 00000053 1185.53 118.79 460.65 681.85 1220.97 390.21 1387.09 391.89 1236.54 523.76 1245.35 638.76 1361.14 641.83
00001922 00000054 1185.29 118.02 457.08 682.40 1220.00 390.55 1385.70 393.62 1234.39 524.43 1243.98 638.16 1359.75 642.41
00001923 00000055 1178.76 123.78 456.29 673.07 1212.44 391.38 1380.67 396.89 1229.50 529.60 1238.00 637.78 1355.31 643.96
00001924 00000056 1177.96 120.03 454.86 679.70 1209.32 392.63 1378.09 399.45 1224.74 533.47 1234.63 640.64 1351.86 647.89
00001925 00000057 1173.81 121.22 457.29 682.92 1208.51 395.00 1377.24 401.25 1222.99 537.10 1235.15 644.27 1353.52 650.80
00001926 00000058 1171.61 126.80 458.02 681.98 1205.41 403.98 1369.85 408.72 1221.61 541.67 1236.45 648.62 1354.18 653.73
00001927 00000059 1164.45 129.44 461.91 675.01 1201.97 411.73 1373.77 415.91 1220.79 542.70 1231.48 647.82 1357.41 652.26
00001928 00000060 1165.01 131.09 462.11 669.52 1202.91 410.22 1375.25 413.17 1221.96 543.22 1231.41 645.49 1359.58 649.04
00001929 00000061 1165.01 132.59 463.49 665.03 1201.92 409.15 1375.57 410.76 1220.99 542.44 1229.73 643.48 1361.21 645.93
00001930 00000062 1164.47 133.92 461.20 663.16 1202.26 405.90 1377.14 409.88 1221.59 541.69 1228.92 641.01 1361.06 645.41
00001931 00000063 1163.98 138.90 459.90 665.52 1202.39 405.86 1377.82 410.68 1222.95 543.13 1231.75 643.97 1364.31 648.93
00001932 00000064 1162.80 137.95 460.81 664.25 1200.84 405.93 1377.30 411.65 1222.51 545.46 1230.40 643.01 1365.61 648.65
00001933 00000065 1160.54 139.81 461.15 661.63 1200.55 407.27 1377.21 413.56 1222.66 546.00 1228.32 641.82 1365.87 647.83
00001934 00000066 1157.64 140.97 464.17 663.03 1199.50 408.64 1377.28 414.25 1222.73 547.29 1227.52 643.26 1366.40 648.69
00001935 00000067 1157.43 142.78 460.33 664.37 1198.36 411.01 1375.56 416.90 1222.25 550.75 1225.65 652.83 1355.14 658.84
00001936 00000068 1156.94 144.21 460.84 663.68 1197.74 412.73 1376.25 417.87 1223.16 552.90 1226.05 656.43 1354.72 661.80
00001937 00000069 1155.91 143.67 461.60 665.39 1196.83 413.28 1376.35 417.71 1223.12 553.52 1225.60 658.62 1354.58 663.44
00001938 00000070 1156.48 145.96 461.42 666.16 1196.22 414.49 1376.63 417.70 1222.59 554.63 1225.95 662.51 1354.79 666.37
00001939 00000071 1156.15 148.99 461.81 663.53 1196.98 418.85 1376.66 421.71 1223.56 557.54 1227.46 665.67 1354.05 669.28
00001940 00000072 1155.32 147.95 462.84 664.24 1197.29 418.51 1377.40 421.99 1224.43 557.06 1227.65 664.69 1354.13 668.75
00001941 00000073 1154.74 149.07 462.52 662.17 1197.46 418.42 1377.94 421.83 1225.83 556.93 1228.07 664.15 1354.76 668.14
00001942 00000074 1154.19 146.57 462.65 663.13 1197.48 416.38 1377.68 420.21 1225.85 554.95 1227.11 661.20 1353.99 665.59
00001943 00000075 1151.47 145.84 463.85 660.15 1197.38 414.89 1378.60 419.70 1227.98 553.01 1225.59 656.54 1356.09 661.73
00001944 00000076 1149.63 146.18 463.24 657.29 1197.35 413.84 1379.32 419.94 1228.92 551.62 1223.35 652.07 1356.20 658.21
00001945 00000077 1146.74 145.60 463.57 653.84 1195.37 417.19 1378.33 422.16 1229.28 552.20 1222.70 649.30 1357.63 654.27
00001946 00000078 1146.26 144.43 462.39 655.57 1194.67 422.42 1374.39 427.79 1225.01 552.56 1220.26 648.88 1356.62 653.84
00001947 00000079 1140.02 152.83 464.15 652.59 1187.77 429.39 1369.26 433.72 1218.68 559.50 1216.18 652.45 1357.21 655.80
00001948 00000080 1137.72 159.28 462.62 649.96 1185.80 433.22 1367.09 435.48 1219.20 563.34 1217.50 656.69 1357.04 658.15
00001949 00000081 1136.36 164.05 459.14 646.17 1184.02 436.47 1365.82 438.52 1218.46 565.99 1216.37 659.61 1353.55 660.99
00001950 00000082 1134.27 165.56 457.13 645.90 1180.86 439.00 1364.96 441.28 1215.92 568.56 1211.44 661.86 1350.57 663.58
00001951 00000083 1134.91 173.60 456.04 639.60 1179.42 443.27 1363.42 443.91 1214.62 572.79 1213.00 667.60 1349.95 667.93
00001952 00000084 1135.27 176.99 455.11 636.81 1178.49 444.46 1364.36 445.94 1214.64 576.06 1212.83 670.63 1349.30 671.72
00001953 00000085 1136.09 179.27 453.57 636.04 1177.79 445.77 1365.43 448.47 1214.57 578.55 1211.34 673.99 1348.12 676.27
00001954 00000086 1135.95 178.32 454.53 638.67 1177.44 447.37 1365.68 450.07 1213.93 580.90 1210.97 676.82 1347.70 679.16
00001955 00000087 1136.22 177.44 456.24 640.54 1178.18 448.13 1366.91 450.96 1214.78 582.63 1212.49 679.35 1348.46 681.83
00001956 00000088 1137.36 177.20 456.25 642.23 1179.27 449.23 1368.48 451.89 1214.64 583.59 1212.91 681.72 1348.41 684.16
00001957 00000089 1137.30 178.13 458.51 641.77 1179.56 450.18 1369.22 453.40 1214.65 585.65 1213.97 683.24 1348.57 686.15
00001958 00000090 1137.62 177.94 457.83 644.08 1179.60 451.07 1369.31 454.68 1214.08 587.46 1213.94 684.82 1349.38 688.02
00001959 00000091 1138.04 179.03 459.26 643.51 1179.40 450.05 1369.27 453.74 1213.41 587.53 1215.37 685.11 1350.51 688.22
00001960 00000092 1138.28 178.77 459.11 643.61 1180.18 448.60 1369.19 452.88 1213.44 587.44 1216.01 684.31 1350.19 687.89
00001961 00000093 1138.03 178.14 460.36 645.66 1179.97 446.83 1368.44 451.17 1212.78 587.57 1216.55 684.48 1350.09 688.16
00001962 00000094 1137.68 177.81 459.29 646.86 1180.46 447.08 1369.35 452.01 1212.80 586.91 1215.26 684.61 1348.14 689.00
00001963 00000095 1136.91 177.38 460.60 648.36 1180.39 448.52 1370.70 454.30 1213.69 589.89 1215.30 686.70 1348.56 691.91
00001964 00000096 1137.06 178.52 460.69 647.33 1181.50 449.72 1370.78 455.55 1214.61 590.56 1216.26 686.56 1348.92 691.79
00001965 00000097 1135.25 179.73 460.08 649.31 1179.70 452.63 1370.77 460.37 1212.67 593.85 1214.32 686.64 1353.60 692.80
00001966 00000098 1134.92 182.85 459.57 647.94 1179.01 457.20 1372.02 463.69 1214.10 592.62 1214.04 685.33 1359.42 689.86
00001967 00000099 1130.45 181.26 466.66 657.75 1180.31 454.44 1373.62 460.54 1218.92 595.51 1217.34 686.32 1366.47 690.69
00001968 00000100 1132.76 180.14 463.83 658.63 1182.63 455.54 1372.51 460.45 1219.48 596.02 1219.15 687.19 1366.28 690.47
00001969 00000101 1129.22 180.48 464.82 656.57 1181.00 454.69 1371.11 457.63 1220.05 595.06 1218.30 688.07 1363.71 690.09
00001970 00000102 1129.58 180.88 462.56 654.57 1179.43 453.75 1371.35 456.87 1219.46 595.05 1215.55 689.96 1358.49 692.60
00001971 00000103 1128.32 184.19 462.21 651.19 1177.84 455.51 1373.86 459.39 1221.64 598.22 1213.09 693.89 1354.93 697.49
00001972 00000104 1129.13 185.84 462.31 650.44 1178.06 457.85 1375.32 460.86 1223.40 599.60 1213.74 696.15 1356.46 699.03
00001973 00000105 1130.49 186.65 464.29 649.70 1181.56 458.05 1379.72 463.56 1227.10 599.40 1213.86 694.88 1358.15 699.73
00001974 00000106 1134.21 186.23 463.83 650.71 1185.36 456.90 1385.05 463.51 1231.35 598.06 1215.15 693.84 1360.37 699.68
00001975 00000107 1137.30 185.83 463.39 651.87 1191.85 456.58 1392.45 466.30 1240.33 597.97 1218.78 693.32 1364.96 701.66
00001976 00000108 1137.59 187.28 464.28 650.83 1193.25 458.23 1396.29 467.60 1244.33 598.11 1219.33 694.32 1366.67 702.47
CROP_BBOX: 895 0 1920 994
