Video ID: 	LIXJeJhe5Fk
H: 	1080
W: 	1920
FPS: 	24.0

FRAME INDEX X0 Y0 W H [Landmarks (5 Points)]

00006077 00000000 1179.43 89.43 403.25 599.54 1220.25 324.80 1354.74 347.83 1202.51 425.57 1200.10 535.26 1302.97 554.57
00006078 00000001 1181.57 91.76 403.69 598.19 1223.54 327.83 1358.42 351.60 1207.92 427.82 1202.90 536.32 1306.76 556.22
00006079 00000002 1176.32 97.28 408.62 597.36 1229.16 327.24 1361.75 355.35 1201.08 427.53 1205.87 535.32 1309.98 558.25
00006080 00000003 1182.43 98.80 408.11 596.23 1231.95 331.74 1363.57 357.46 1204.66 429.74 1209.35 538.59 1312.50 559.69
00006081 00000004 1184.27 98.59 410.20 598.58 1232.84 335.01 1365.43 359.21 1206.75 431.81 1210.43 541.69 1316.06 561.73
00006082 00000005 1188.61 98.39 408.90 601.19 1235.06 336.41 1370.25 362.30 1212.21 436.22 1214.22 545.43 1322.10 567.08
00006083 00000006 1195.20 105.05 402.37 599.80 1235.07 341.02 1371.69 365.18 1218.38 441.11 1216.90 552.36 1323.85 572.90
00006084 00000007 1206.39 107.80 400.90 601.85 1248.98 351.14 1375.80 369.79 1232.26 447.50 1235.28 556.24 1342.93 569.99
00006085 00000008 1211.26 119.12 399.54 595.49 1254.35 355.28 1377.98 374.02 1238.12 455.25 1242.16 560.57 1347.81 574.41
00006086 00000009 1213.17 135.35 405.86 589.98 1255.46 368.89 1394.58 380.79 1248.03 470.59 1247.93 575.10 1359.43 587.03
00006087 00000010 1219.94 141.36 402.90 591.98 1258.02 375.28 1396.45 388.84 1248.38 477.31 1251.31 582.96 1363.81 595.96
00006088 00000011 1223.51 146.70 401.30 597.23 1258.65 385.01 1397.93 401.83 1249.66 489.22 1252.79 593.29 1364.23 608.83
00006089 00000012 1224.84 154.80 399.26 607.41 1258.37 394.24 1392.15 412.59 1243.67 501.20 1253.31 606.54 1358.87 622.58
00006090 00000013 1218.43 161.17 400.19 624.07 1250.24 407.13 1378.49 423.98 1229.24 512.34 1243.86 627.12 1342.61 642.02
00006091 00000014 1209.56 171.01 404.73 618.90 1251.38 414.28 1377.43 428.42 1230.67 512.67 1243.76 630.83 1346.53 641.03
00006092 00000015 1197.37 179.45 406.26 620.81 1239.26 425.46 1364.63 442.42 1224.08 526.99 1235.23 637.64 1336.01 649.96
00006093 00000016 1191.20 185.95 395.71 619.16 1229.45 430.90 1353.14 452.20 1215.90 536.91 1218.94 643.89 1313.46 660.54
00006094 00000017 1169.38 205.94 405.32 609.04 1214.89 445.48 1341.35 459.49 1199.20 546.99 1202.39 662.47 1292.52 676.23
00006095 00000018 1159.69 208.86 401.94 607.39 1202.21 448.04 1329.18 465.71 1185.53 550.98 1187.78 664.94 1275.35 681.95
00006096 DELETE   1144.31 217.41 402.38 607.17 1188.94 455.98 1312.84 477.43 1171.65 563.15 1175.49 673.78 1259.11 692.76
00006097 00000020 1138.65 217.53 398.83 613.92 1183.87 457.99 1307.16 482.44 1162.42 565.79 1170.79 678.33 1254.17 699.14
00006098 00000021 1119.86 224.46 406.83 608.83 1161.71 461.67 1300.30 481.54 1136.13 568.04 1140.13 689.30 1243.35 707.51
00006099 00000022 1115.12 216.77 410.00 621.95 1161.43 458.49 1295.01 475.44 1129.23 567.16 1140.13 690.79 1237.52 706.42
00006100 00000023 1112.02 217.63 402.04 626.94 1152.24 459.41 1280.68 478.69 1132.09 569.16 1137.44 685.45 1229.31 701.85
00006101 00000024 1109.48 226.76 396.48 618.46 1143.34 462.02 1275.70 480.75 1126.68 571.88 1127.25 688.27 1223.32 704.51
00006102 00000025 1094.68 228.40 398.95 623.29 1126.11 469.99 1262.71 487.91 1112.96 578.08 1113.17 694.88 1213.59 711.34
00006103 00000026 1081.67 233.99 399.72 621.83 1112.87 470.74 1248.03 491.08 1101.42 585.04 1102.64 700.20 1200.99 718.71
00006104 00000027 1064.18 238.11 403.63 619.82 1104.88 476.92 1237.25 493.89 1090.15 581.67 1098.68 700.22 1201.51 713.07
00006105 00000028 1053.81 243.30 402.75 616.80 1087.63 478.36 1224.87 500.83 1075.54 589.04 1081.76 702.80 1186.50 722.01
00006106 00000029 1036.96 251.26 402.56 610.96 1078.17 485.49 1213.51 510.01 1064.23 593.66 1073.76 702.43 1178.44 722.21
00006107 00000030 1036.70 249.30 394.66 620.32 1070.56 488.48 1199.47 511.18 1056.88 604.95 1065.91 708.19 1168.66 726.96
00006108 00000031 1018.73 254.78 392.77 624.61 1053.30 493.45 1182.45 517.51 1040.56 612.52 1053.63 717.85 1153.49 738.08
00006109 00000032 999.02 266.65 404.02 610.14 1045.63 495.54 1171.56 510.84 1026.46 608.84 1042.93 717.55 1147.72 729.52
00006110 00000033 989.98 264.94 406.28 614.72 1034.80 501.07 1159.26 512.94 1016.50 610.44 1036.24 718.58 1141.76 727.03
00006111 00000034 987.62 267.86 405.20 613.16 1028.21 505.36 1153.34 514.26 1013.74 611.54 1032.99 721.32 1138.30 726.76
00006112 00000035 986.96 270.74 401.79 610.73 1024.54 508.57 1153.55 519.37 1017.30 616.67 1031.62 723.33 1138.76 730.48
00006113 00000036 983.14 276.47 406.54 611.92 1023.19 511.80 1153.97 519.73 1017.80 618.22 1031.64 728.19 1139.42 733.26
00006114 00000037 985.16 280.15 408.63 624.81 1016.23 524.76 1158.99 525.58 1016.68 626.81 1034.48 749.81 1147.23 750.21
00006115 00000038 983.48 281.05 413.45 638.26 1014.40 529.05 1162.24 528.31 1016.51 632.22 1035.86 760.71 1150.69 759.88
00006116 00000039 979.23 287.74 417.40 642.34 1012.14 532.61 1160.69 532.01 1015.62 639.81 1035.71 766.30 1151.49 765.65
00006117 00000040 971.55 291.70 425.63 639.18 1007.65 536.20 1161.82 533.94 1015.41 644.76 1031.08 770.01 1151.54 768.15
00006118 00000041 960.58 301.64 428.34 626.86 1001.14 544.02 1158.45 538.89 1013.68 651.70 1024.70 771.69 1150.39 767.64
00006119 00000042 954.41 310.89 428.78 618.63 997.71 552.43 1154.86 546.05 1009.91 654.88 1021.16 774.69 1146.53 769.77
00006120 00000043 938.81 320.95 433.23 612.81 986.84 557.87 1147.56 552.04 1005.50 662.16 1011.71 780.06 1137.45 775.30
00006121 00000044 933.99 321.98 431.84 616.09 982.12 561.06 1143.14 553.88 1002.71 666.48 1008.95 787.92 1131.04 781.96
00006122 00000045 933.74 319.27 430.50 618.76 979.19 562.80 1140.53 556.77 999.35 670.13 1002.83 791.80 1122.77 787.11
00006123 00000046 936.47 313.45 426.97 617.45 982.49 557.17 1136.21 555.29 993.12 661.54 999.32 783.85 1111.43 782.87
00006124 00000047 944.80 297.72 414.99 619.01 975.83 549.06 1122.76 545.45 983.44 651.41 986.34 773.57 1090.91 772.16
00006125 00000048 945.64 292.55 409.29 620.95 975.28 541.88 1116.53 543.11 980.27 649.45 982.87 766.16 1082.79 768.85
00006126 00000049 947.41 287.09 405.42 621.37 980.50 537.93 1109.46 543.06 973.63 641.69 981.45 758.86 1071.75 764.78
00006127 00000050 952.61 286.55 404.78 623.87 988.36 536.45 1110.59 540.95 973.45 640.61 990.33 758.13 1078.70 762.85
00006128 00000051 963.69 280.99 399.01 632.67 997.73 532.12 1115.86 531.78 966.05 644.38 1005.00 767.37 1096.62 766.15
00006129 00000052 968.91 281.39 402.29 635.12 1007.93 531.59 1123.35 532.68 970.14 645.61 1009.91 768.81 1099.76 768.59
00006130 00000053 976.07 288.92 408.55 618.85 1015.66 533.07 1131.49 539.87 986.08 643.05 1024.29 757.90 1112.03 762.27
00006131 00000054 986.12 287.60 405.44 617.99 1022.45 533.36 1136.10 539.07 991.46 643.03 1033.62 756.83 1120.89 760.60
00006132 00000055 1001.12 287.22 399.05 616.39 1035.08 534.18 1143.83 536.96 1008.71 644.69 1051.26 757.55 1135.07 759.65
00006133 00000056 1010.96 282.64 400.72 616.45 1049.52 532.58 1158.41 535.31 1026.23 640.18 1061.62 752.77 1148.57 755.46
00006134 00000057 1035.71 263.74 398.07 635.76 1070.29 523.30 1181.98 522.28 1033.04 637.10 1082.22 754.96 1171.69 752.89
00006135 00000058 1042.46 275.28 409.39 619.94 1085.10 522.10 1204.56 525.93 1057.80 630.06 1092.55 746.21 1187.52 748.28
00006136 00000059 1060.36 263.85 406.46 619.06 1102.73 509.71 1216.88 512.97 1078.92 615.07 1112.07 727.80 1204.63 728.61
00006137 00000060 1072.36 261.67 406.27 614.07 1117.13 501.44 1233.53 507.47 1091.42 614.05 1123.91 724.17 1219.07 728.25
00006138 00000061 1109.52 250.55 399.45 619.85 1143.31 495.74 1259.53 506.56 1120.62 609.79 1149.79 717.89 1241.27 725.63
00006139 00000062 1117.13 248.31 405.25 618.77 1152.47 489.01 1277.34 501.96 1133.41 595.83 1158.89 710.23 1255.51 720.15
00006140 00000063 1136.83 240.01 403.78 616.04 1175.41 482.77 1296.87 489.71 1152.86 584.51 1176.71 702.97 1271.87 706.83
00006141 00000064 1152.34 235.10 396.94 620.07 1185.62 479.33 1298.98 488.12 1158.53 587.70 1186.94 702.81 1274.97 710.52
00006142 00000065 1173.89 227.55 396.19 618.74 1208.88 473.23 1326.41 480.27 1182.48 578.76 1206.18 693.38 1295.50 699.43
00006143 00000066 1184.00 224.84 394.93 616.44 1217.98 468.13 1340.71 476.29 1197.55 574.42 1215.93 689.80 1306.05 696.26
00006144 00000067 1184.42 221.54 401.91 622.70 1226.87 462.35 1350.41 469.43 1194.34 573.82 1222.29 696.59 1313.81 702.64
00006145 00000068 1184.84 219.78 401.64 622.20 1230.43 462.66 1352.81 470.44 1196.25 570.35 1220.03 696.24 1307.85 703.69
00006146 00000069 1186.10 218.58 400.03 618.99 1231.06 462.06 1350.24 467.38 1194.75 567.98 1216.33 695.78 1301.81 701.38
00006147 00000070 1184.46 215.31 393.58 615.92 1221.42 465.76 1338.62 471.61 1200.61 564.31 1209.60 687.22 1286.05 692.89
00006148 00000071 1177.47 215.22 393.71 619.04 1215.36 462.12 1333.47 470.44 1193.68 562.06 1200.73 685.57 1278.99 693.69
00006149 00000072 1169.91 215.87 395.89 618.09 1205.44 459.55 1327.77 470.79 1187.37 561.31 1191.00 684.57 1275.49 695.34
00006150 00000073 1161.86 217.36 396.04 612.61 1196.36 458.68 1321.08 469.31 1179.86 560.00 1183.80 682.79 1269.87 693.48
00006151 00000074 1157.06 217.26 396.69 609.25 1193.31 457.76 1317.82 469.37 1176.13 558.67 1178.87 679.75 1264.73 691.46
00006152 00000075 1149.80 216.46 395.86 608.33 1191.41 454.55 1311.13 467.09 1169.39 554.02 1173.74 676.78 1253.39 688.85
00006153 00000076 1143.59 216.20 397.51 605.28 1184.18 451.71 1306.81 464.77 1165.09 553.20 1169.42 674.66 1250.56 686.92
00006154 00000077 1140.35 215.73 398.19 602.60 1175.22 451.24 1300.34 461.95 1158.89 549.89 1165.15 671.34 1249.97 681.23
00006155 00000078 1135.74 213.21 399.27 605.80 1170.70 450.91 1296.94 460.31 1152.08 548.70 1162.81 671.65 1251.85 679.89
00006156 00000079 1129.88 212.40 401.97 607.59 1165.49 451.19 1293.08 458.28 1145.23 547.63 1162.71 671.51 1255.61 677.40
00006157 00000080 1124.37 211.68 403.13 607.56 1163.42 450.39 1291.00 458.11 1141.10 548.61 1160.38 670.17 1257.38 676.14
00006158 00000081 1116.68 198.80 402.52 621.67 1151.58 443.41 1281.83 452.59 1125.81 553.07 1149.74 671.40 1254.72 680.23
00006159 00000082 1114.93 198.39 397.42 616.44 1146.85 442.65 1277.33 452.84 1121.93 551.00 1144.23 668.77 1249.28 678.63
00006160 00000083 1111.49 200.15 388.12 605.88 1140.38 442.25 1264.95 455.97 1127.90 546.15 1135.37 656.49 1231.98 667.00
00006161 00000084 1106.35 201.55 391.73 610.53 1138.40 441.96 1262.46 455.86 1123.72 546.41 1134.35 660.02 1228.85 670.72
00006162 00000085 1094.35 204.18 404.07 610.81 1132.19 449.45 1262.86 454.55 1120.21 553.68 1131.38 668.28 1237.30 674.21
00006163 00000086 1090.61 205.40 404.02 613.19 1129.27 452.53 1259.64 455.67 1118.77 554.81 1130.63 670.79 1235.31 675.08
00006164 00000087 1088.68 209.29 403.32 610.83 1127.84 454.43 1257.59 458.38 1119.18 558.38 1131.61 672.37 1235.53 677.08
00006165 00000088 1089.13 209.19 401.42 613.89 1127.64 454.92 1257.72 459.67 1119.66 559.80 1131.90 672.88 1235.89 678.28
00006166 00000089 1090.32 209.33 404.37 617.60 1128.53 456.47 1259.15 459.44 1121.88 559.93 1134.37 675.07 1237.75 678.93
00006167 00000090 1090.91 208.92 402.34 617.33 1128.13 457.45 1262.00 458.99 1125.05 560.14 1135.12 676.12 1240.24 678.91
00006168 00000091 1093.19 209.47 401.89 618.03 1130.64 457.02 1264.26 458.27 1127.41 559.49 1137.27 676.14 1242.47 678.60
00006169 00000092 1092.78 208.65 402.15 617.57 1130.26 456.34 1266.48 457.26 1130.02 558.92 1137.42 675.98 1244.41 678.27
00006170 00000093 1090.94 205.97 403.21 618.04 1126.43 457.04 1266.65 455.03 1130.97 556.89 1132.31 678.66 1238.80 679.15
00006171 00000094 1088.55 204.19 403.02 617.03 1122.23 455.53 1264.61 455.86 1126.68 555.97 1125.12 676.36 1231.32 679.24
00006172 00000095 1087.43 203.37 400.60 614.23 1119.24 454.03 1259.57 454.60 1122.10 554.58 1119.82 675.56 1223.65 678.71
00006173 00000096 1089.15 205.11 400.47 612.12 1122.46 457.43 1257.48 455.18 1122.30 554.57 1125.06 677.07 1222.51 677.59
00006174 00000097 1089.28 205.15 401.78 613.74 1123.82 460.58 1252.30 455.07 1119.49 555.06 1128.14 679.87 1218.59 677.46
00006175 00000098 1089.23 206.33 401.58 612.15 1124.14 461.87 1250.72 456.22 1118.05 555.19 1128.62 679.74 1217.35 677.08
00006176 00000099 1090.20 207.34 405.13 611.09 1126.50 462.14 1250.39 456.38 1117.58 556.02 1130.06 679.41 1217.91 676.51
00006177 00000100 1092.42 205.99 404.28 613.39 1129.34 462.00 1253.98 457.27 1120.13 556.87 1131.95 679.17 1221.13 677.25
00006178 00000101 1097.69 206.04 406.61 611.97 1134.12 461.26 1265.70 459.15 1128.05 559.93 1136.92 676.76 1234.99 676.79
00006179 00000102 1108.26 204.52 398.20 614.30 1138.35 454.18 1272.19 456.52 1121.03 561.36 1141.49 679.30 1243.03 682.26
00006180 00000103 1113.37 204.48 401.08 623.89 1145.75 454.87 1274.97 457.69 1123.60 566.43 1148.55 685.38 1247.35 688.51
00006181 00000104 1113.02 208.17 406.17 623.28 1148.47 457.27 1277.62 458.95 1126.63 570.26 1153.24 690.18 1249.00 692.42
00006182 00000105 1113.41 213.35 407.47 620.35 1149.63 459.58 1280.29 462.99 1128.81 572.52 1153.16 693.89 1246.70 697.64
00006183 00000106 1113.51 214.98 407.80 620.53 1150.86 461.02 1281.66 464.24 1130.17 573.08 1153.46 695.40 1246.98 699.05
00006184 00000107 1116.86 221.71 402.17 609.74 1152.66 467.64 1278.57 475.82 1134.89 574.92 1159.14 687.60 1249.42 694.06
00006185 DELETE   1118.47 221.27 402.50 609.51 1152.62 469.34 1281.18 479.01 1137.13 574.73 1160.30 684.93 1256.33 692.52
00006186 00000109 1118.51 223.96 406.87 606.60 1148.69 468.92 1285.95 476.65 1142.18 580.05 1162.06 685.47 1267.00 691.71
00006187 00000110 1120.91 225.71 410.68 606.84 1150.29 469.93 1289.99 476.47 1146.14 579.76 1164.84 686.27 1275.12 691.61
00006188 00000111 1123.73 227.70 410.26 608.53 1150.68 469.36 1293.51 475.39 1150.46 582.70 1166.88 691.13 1278.23 696.44
00006189 00000112 1124.76 229.89 411.56 606.93 1151.39 469.28 1296.55 476.03 1152.57 582.64 1167.72 690.88 1280.80 697.01
00006190 00000113 1124.81 224.84 410.78 613.50 1154.51 466.97 1292.97 472.05 1149.96 576.82 1169.79 691.94 1272.71 696.56
00006191 00000114 1121.17 221.12 407.35 609.72 1152.28 457.99 1290.73 466.56 1145.02 569.45 1162.71 682.98 1262.65 690.09
00006192 00000115 1117.45 202.19 404.79 624.68 1154.44 448.09 1278.76 453.56 1122.61 555.53 1149.85 679.18 1247.17 684.38
00006193 00000116 1108.95 206.26 400.63 616.68 1162.79 445.58 1276.00 458.22 1121.18 542.52 1149.39 666.16 1233.30 675.44
00006194 00000117 1107.05 191.47 394.46 639.58 1154.54 433.41 1262.75 449.00 1120.46 536.82 1140.04 660.16 1222.59 672.04
00006195 00000118 1105.59 191.51 394.02 637.01 1151.80 432.33 1262.16 449.55 1118.53 534.86 1134.85 659.17 1216.81 672.52
00006196 00000119 1107.77 194.39 397.87 634.61 1150.88 435.18 1269.72 451.00 1124.40 536.20 1133.02 662.45 1221.82 674.58
00006197 00000120 1102.44 208.42 408.90 611.72 1148.63 441.44 1287.17 455.73 1131.24 537.40 1138.01 665.95 1235.11 676.99
00006198 00000121 1108.10 217.23 415.76 600.07 1148.14 445.42 1301.40 459.35 1147.45 542.39 1138.86 668.80 1244.33 680.22
00006199 00000122 1113.05 219.09 417.70 602.30 1155.41 447.43 1316.61 457.98 1148.89 548.68 1136.54 674.15 1255.44 685.30
00006200 00000123 1141.26 216.42 406.82 596.20 1180.96 446.85 1334.35 462.59 1188.07 547.50 1168.57 666.16 1274.25 681.37
00006201 00000124 1150.95 216.64 412.01 594.86 1194.14 445.04 1342.50 464.60 1196.12 547.07 1177.61 660.49 1286.38 679.25
00006202 00000125 1159.38 223.93 415.79 587.11 1216.82 432.16 1363.62 463.83 1202.82 537.65 1189.35 656.59 1292.28 682.04
00006203 00000126 1171.29 219.06 409.95 594.25 1223.13 429.00 1364.81 463.51 1207.04 538.30 1198.08 654.21 1295.86 681.68
00006204 00000127 1182.38 191.67 401.79 609.91 1236.82 422.16 1356.05 458.63 1208.44 531.61 1202.51 642.01 1285.36 671.49
00006205 00000128 1181.29 191.64 405.39 602.30 1240.29 415.18 1357.11 454.01 1206.56 524.46 1201.27 635.44 1279.75 666.70
00006206 00000129 1173.69 198.71 417.87 594.97 1241.39 412.85 1369.16 448.51 1208.92 516.41 1200.71 635.66 1286.77 664.17
00006207 00000130 1174.92 199.92 417.86 592.90 1240.95 412.90 1371.23 446.65 1211.55 514.34 1200.72 634.75 1289.04 661.83
00006208 00000131 1176.13 196.49 416.63 602.61 1236.71 417.59 1370.45 447.28 1213.93 518.23 1202.94 640.08 1294.18 664.27
00006209 00000132 1173.56 201.35 415.79 599.12 1230.68 421.73 1367.78 449.06 1212.57 523.93 1203.46 644.05 1297.89 666.27
00006210 00000133 1177.07 194.91 398.97 607.29 1218.47 426.28 1351.73 451.14 1207.42 530.42 1195.94 644.27 1294.14 665.23
00006211 00000134 1163.46 202.84 404.73 604.42 1204.08 437.74 1343.81 449.17 1198.02 541.43 1194.15 656.27 1299.41 668.56
00006212 00000135 1145.71 205.56 404.25 604.25 1181.44 444.22 1320.76 450.32 1177.74 545.63 1179.51 663.05 1283.02 670.02
00006213 00000136 1130.49 202.15 402.05 611.55 1163.55 447.85 1300.61 449.12 1143.37 544.71 1159.75 667.19 1268.56 669.19
00006214 00000137 1119.23 201.54 406.84 617.75 1150.98 446.94 1289.94 452.56 1132.28 552.36 1148.23 673.18 1256.56 680.03
00006215 00000138 1115.03 204.41 394.27 613.03 1143.22 446.77 1277.60 456.43 1121.73 556.38 1141.22 673.21 1248.93 682.73
00006216 00000139 1093.22 210.45 399.45 605.89 1129.70 456.00 1260.18 460.65 1118.41 557.73 1127.02 671.84 1228.67 677.50
00006217 00000140 1082.94 217.37 402.12 599.39 1119.26 459.63 1245.21 464.25 1104.26 557.77 1118.12 672.00 1215.82 677.31
00006218 00000141 1072.42 224.58 399.06 595.21 1105.49 464.98 1229.15 471.42 1087.38 564.77 1107.66 675.60 1203.48 681.93
00006219 00000142 1066.89 225.30 399.34 600.65 1098.63 466.18 1222.31 474.12 1076.46 570.67 1100.14 680.49 1196.52 687.72
00006220 00000143 1063.68 223.76 399.62 611.27 1094.47 472.66 1215.86 478.49 1068.79 575.88 1094.78 689.50 1188.12 694.80
00006221 00000144 1064.06 228.05 397.64 612.17 1092.71 478.03 1211.08 482.34 1065.98 579.20 1093.87 696.08 1183.00 699.88
00006222 00000145 1063.44 231.76 399.44 615.82 1092.31 480.88 1214.39 486.55 1069.63 583.03 1093.25 701.53 1182.82 706.70
00006223 00000146 1066.11 231.41 396.93 619.08 1095.68 482.07 1214.80 490.84 1071.19 584.60 1094.52 703.21 1181.19 711.09
00006224 00000147 1063.03 224.41 396.98 620.36 1101.07 477.14 1207.55 486.00 1064.19 575.99 1092.33 698.36 1167.98 705.72
00006225 00000148 1054.52 224.13 398.32 612.51 1101.54 471.87 1205.56 480.91 1058.75 568.43 1081.33 691.60 1155.64 698.72
00006226 00000149 1047.81 214.83 399.85 616.30 1103.88 456.50 1214.32 466.58 1054.31 559.73 1071.97 687.26 1153.31 696.84
00006227 00000150 1044.04 223.39 398.03 590.50 1094.90 450.17 1212.06 472.67 1063.71 549.42 1067.21 669.88 1145.02 687.79
00006228 00000151 1049.05 210.09 405.73 613.44 1100.27 455.79 1221.55 467.68 1060.94 557.40 1075.84 680.61 1163.04 692.70
00006229 00000152 1056.63 219.32 402.24 600.99 1100.24 459.97 1214.64 473.50 1068.31 561.80 1087.34 675.64 1167.06 687.12
00006230 00000153 1060.86 222.10 399.67 609.59 1097.18 466.71 1212.36 473.26 1067.30 569.17 1097.73 684.59 1183.28 690.05
00006231 00000154 1053.24 221.34 402.74 615.45 1093.84 467.03 1205.61 471.84 1059.47 569.55 1096.18 685.84 1180.40 689.15
00006232 00000155 1038.47 220.32 394.26 618.06 1082.10 475.32 1178.98 475.48 1043.00 577.77 1084.90 692.34 1158.25 691.69
00006233 00000156 1019.73 223.58 395.80 616.52 1068.04 479.89 1154.73 480.17 1023.08 586.45 1070.82 698.46 1138.20 698.65
00006234 DELETE   994.62 232.05 389.61 613.44 1046.47 487.34 1124.41 497.58 992.68 588.96 1039.80 702.08 1097.21 709.70
00006235 DELETE   983.51 237.08 390.18 611.30 1039.10 487.17 1113.93 499.27 986.55 594.42 1028.62 703.51 1080.85 712.44
00006236 00000159 973.81 241.80 394.17 609.34 1029.90 487.69 1108.11 496.71 980.05 596.19 1023.10 705.13 1076.06 710.93
00006237 00000160 972.70 239.72 395.80 611.60 1028.28 485.66 1108.57 492.91 978.89 594.30 1021.77 704.91 1076.40 709.22
00006238 00000161 974.55 237.10 395.27 611.50 1028.88 483.81 1110.22 489.83 979.04 592.39 1023.65 703.49 1079.82 706.87
00006239 00000162 978.29 232.49 400.67 610.13 1028.85 480.55 1116.02 484.09 980.94 587.74 1028.72 698.99 1090.58 700.66
