Video ID: 	cQCZYeWAhrs
H: 	1080
W: 	1920
FPS: 	25.0

FRAME INDEX X0 Y0 W H [Landmarks (5 Points)]

00003949 00000000 989.49 214.95 393.61 583.84 1061.80 457.27 1222.75 455.53 1122.89 561.03 1092.20 656.34 1225.96 654.80
00003950 00000001 992.52 212.00 393.33 584.09 1064.89 454.95 1225.39 455.22 1124.43 559.95 1090.86 652.40 1227.26 652.37
00003951 00000002 993.74 212.97 392.19 581.77 1065.60 453.18 1225.96 453.66 1124.88 557.78 1091.74 650.71 1227.96 650.89
00003952 00000003 994.74 213.11 392.91 583.20 1066.93 452.53 1226.75 453.21 1125.99 557.54 1094.35 650.75 1229.27 651.01
00003953 00000004 993.88 213.41 394.74 578.98 1066.25 453.20 1227.56 453.56 1127.25 559.61 1094.35 649.73 1231.06 649.68
00003954 00000005 993.15 212.02 394.85 582.22 1065.55 454.15 1227.32 454.73 1126.11 561.26 1094.48 651.09 1231.80 651.07
00003955 00000006 993.24 214.14 394.60 587.34 1066.82 454.23 1226.41 454.22 1125.74 561.31 1097.14 654.72 1231.27 654.23
00003956 00000007 993.81 213.66 395.53 594.18 1066.37 454.27 1224.40 451.07 1124.15 560.47 1098.84 657.12 1235.87 653.63
00003957 DELETE   993.65 213.17 394.29 590.35 1064.19 454.11 1223.70 449.11 1123.70 558.38 1097.79 655.49 1236.64 650.70
00003958 00000009 993.50 211.48 394.54 585.94 1063.70 453.54 1223.07 447.48 1124.75 557.68 1098.48 652.11 1236.88 646.33
00003959 00000010 992.61 203.61 395.99 587.76 1063.78 451.63 1220.70 442.44 1118.11 554.63 1099.79 644.50 1236.19 637.25
00003960 00000011 993.15 202.04 396.16 589.43 1064.62 451.57 1221.11 442.46 1119.10 554.40 1100.40 644.78 1236.40 637.67
00003961 00000012 995.93 208.99 392.55 585.05 1066.01 453.64 1225.40 449.07 1127.50 557.71 1101.06 651.45 1235.53 647.12
00003962 00000013 996.72 211.40 393.11 581.12 1066.61 454.47 1226.73 449.76 1128.23 559.02 1100.13 652.35 1235.35 648.05
00003963 00000014 997.40 212.34 393.78 581.77 1068.79 455.21 1227.88 450.80 1130.73 560.05 1101.89 652.88 1235.91 648.95
00003964 00000015 997.60 210.84 395.32 588.67 1070.98 456.48 1228.76 451.33 1132.65 561.78 1104.09 654.63 1239.43 649.87
00003965 00000016 998.14 213.36 396.93 590.39 1072.92 457.41 1229.38 450.44 1134.03 561.51 1106.52 656.42 1242.94 649.97
00003966 00000017 999.86 216.92 398.07 590.30 1074.71 457.00 1230.19 449.42 1133.16 560.47 1108.71 657.85 1244.10 650.81
00003967 00000018 1000.34 217.82 398.23 588.64 1075.70 456.82 1231.28 449.83 1133.74 561.27 1109.43 658.06 1244.29 651.53
00003968 00000019 1000.38 223.57 399.20 580.08 1077.56 457.56 1235.03 452.50 1136.40 561.35 1109.96 656.06 1243.87 651.17
00003969 00000020 1001.31 226.23 398.27 571.94 1079.83 466.60 1238.00 459.89 1142.09 562.02 1111.56 652.91 1245.43 647.25
00003970 00000021 1002.35 223.98 397.47 572.94 1080.24 468.29 1240.41 460.91 1144.11 562.91 1109.87 651.85 1249.23 645.52
00003971 00000022 1002.39 222.96 398.66 573.70 1078.92 466.10 1243.55 456.98 1145.26 562.52 1108.69 651.43 1252.95 644.05
00003972 00000023 1002.64 218.91 398.68 574.85 1079.05 462.87 1239.95 452.82 1144.66 560.99 1109.48 649.23 1253.44 640.79
00003973 00000024 1005.34 218.90 394.66 571.54 1079.95 458.36 1240.00 448.76 1144.53 556.44 1110.61 645.78 1253.08 638.05
00003974 00000025 1006.28 216.43 393.84 571.01 1080.50 456.40 1241.05 445.20 1147.38 554.56 1113.65 644.84 1254.30 636.17
00003975 00000026 1006.98 215.84 393.58 570.65 1080.68 455.33 1239.28 443.19 1147.19 552.52 1114.71 644.59 1252.44 635.36
00003976 00000027 1007.87 214.53 392.90 572.10 1082.45 453.13 1240.86 440.57 1150.03 550.21 1118.29 644.38 1253.37 634.89
00003977 00000028 1009.57 214.82 392.80 579.25 1084.38 450.97 1239.32 438.58 1148.24 547.98 1119.94 646.30 1251.67 636.59
00003978 00000029 1010.81 213.60 391.68 584.71 1084.14 450.51 1240.10 436.45 1146.90 546.45 1121.01 648.48 1254.21 637.18
00003979 00000030 1011.44 212.70 391.80 585.73 1084.16 450.11 1240.31 435.86 1146.95 546.47 1121.12 648.62 1254.75 637.29
00003980 00000031 1011.89 212.98 391.38 585.20 1084.44 450.62 1240.70 436.67 1146.99 547.05 1120.83 648.48 1254.90 637.39
00003981 00000032 1012.47 212.39 390.56 583.81 1084.83 452.12 1240.46 438.99 1146.35 548.36 1119.90 647.24 1254.77 636.81
00003982 00000033 1011.61 210.68 389.86 577.55 1082.87 454.03 1239.02 441.34 1144.99 548.46 1117.27 643.78 1252.66 633.93
00003983 00000034 1011.40 211.61 387.83 572.35 1082.32 453.83 1238.65 444.11 1143.50 546.09 1112.64 639.72 1250.98 632.41
00003984 DELETE   1010.54 209.91 386.54 571.12 1079.70 452.66 1235.69 444.48 1138.74 545.18 1108.14 637.42 1247.40 631.04
00003985 00000036 1010.06 212.07 386.30 568.85 1076.77 450.80 1231.16 444.35 1131.64 542.33 1104.75 636.18 1241.15 631.34
00003986 00000037 1010.05 211.32 384.36 571.63 1074.37 448.99 1227.13 443.13 1125.34 540.34 1101.92 637.44 1235.62 633.03
00003987 00000038 1011.09 211.54 382.67 572.46 1072.51 447.99 1224.06 443.32 1119.31 539.67 1098.69 638.07 1231.29 634.57
00003988 00000039 1009.87 211.41 382.71 571.96 1070.67 447.82 1222.94 443.36 1117.60 539.54 1096.64 638.88 1228.73 635.56
00003989 00000040 1007.50 198.90 383.03 583.12 1067.17 443.39 1216.79 439.42 1106.04 541.42 1092.90 636.26 1223.79 633.54
00003990 00000041 1006.16 195.81 384.52 584.26 1066.94 440.77 1216.79 437.47 1105.51 538.17 1091.27 633.48 1222.87 630.97
00003991 00000042 1006.42 189.13 382.76 585.50 1068.28 435.68 1218.71 433.99 1108.45 533.44 1091.44 629.76 1221.87 628.41
00003992 00000043 1007.02 183.94 381.82 586.85 1068.31 431.84 1218.04 430.30 1106.56 528.96 1091.49 628.10 1219.35 626.69
00003993 00000044 1006.51 185.75 381.07 582.34 1066.77 430.29 1216.57 427.36 1104.42 526.20 1090.51 626.38 1217.79 623.84
00003994 00000045 1006.44 183.93 380.66 580.01 1067.24 428.62 1216.56 426.78 1104.08 524.85 1090.02 623.92 1215.73 622.26
00003995 00000046 1006.87 185.88 380.56 579.35 1068.66 430.31 1217.43 427.98 1106.03 525.68 1090.20 624.39 1215.25 622.56
00003996 00000047 1009.35 201.24 379.26 564.59 1069.61 431.19 1222.55 429.89 1115.35 523.03 1091.85 618.49 1218.13 617.96
00003997 00000048 1009.33 202.55 380.57 568.92 1070.65 436.82 1223.34 434.64 1118.32 527.07 1093.13 624.23 1221.27 622.95
00003998 00000049 1009.91 203.61 380.41 572.13 1071.76 441.45 1223.65 439.07 1119.06 530.27 1094.82 628.15 1224.65 626.67
00003999 DELETE   1012.10 211.29 381.67 569.22 1071.62 447.76 1227.70 440.99 1118.35 532.14 1095.42 633.14 1229.86 628.00
00004000 DELETE   1012.16 212.10 381.95 570.60 1074.21 448.52 1227.76 441.78 1121.35 532.97 1099.46 633.84 1231.87 628.68
00004001 00000052 1013.21 203.45 382.10 574.40 1075.20 445.75 1232.49 439.64 1126.63 533.26 1099.93 630.61 1236.72 626.25
00004002 DELETE   1012.94 200.74 383.49 569.89 1075.96 445.25 1235.09 437.45 1131.35 533.45 1101.95 628.46 1241.14 623.14
00004003 DELETE   1010.67 194.76 386.12 570.59 1078.46 438.58 1235.19 434.07 1129.16 534.62 1106.37 625.24 1240.08 621.90
00004004 00000055 1010.85 195.15 386.73 568.77 1080.09 437.41 1238.34 432.34 1132.32 532.94 1108.24 623.51 1243.42 619.72
00004005 00000056 1011.74 192.33 386.70 570.23 1082.51 437.24 1242.69 431.40 1136.87 531.14 1110.48 622.62 1245.70 618.35
00004006 00000057 1012.28 193.07 388.07 568.68 1084.48 437.53 1243.81 431.19 1138.98 530.34 1112.43 623.23 1245.00 618.75
00004007 00000058 1012.22 191.66 388.38 570.04 1085.97 437.16 1247.00 430.34 1142.39 530.13 1113.71 623.31 1247.43 618.48
00004008 00000059 1012.38 191.86 388.86 568.03 1087.26 436.77 1248.89 429.93 1145.30 531.79 1115.81 622.95 1249.93 618.14
00004009 00000060 1012.69 191.93 389.23 568.02 1087.57 437.71 1250.69 430.15 1146.48 533.00 1116.86 623.75 1251.83 618.38
00004010 00000061 1013.66 192.98 388.86 567.97 1088.00 438.02 1251.83 431.10 1147.59 535.73 1117.71 624.76 1253.83 619.92
00004011 00000062 1013.93 194.81 388.97 567.35 1087.63 439.49 1251.24 431.73 1146.91 536.67 1118.38 626.74 1253.71 621.28
00004012 00000063 1013.48 196.49 390.31 569.24 1088.09 440.57 1251.93 432.03 1147.95 537.37 1118.70 627.98 1254.87 622.05
00004013 00000064 1018.10 201.66 387.78 571.95 1086.73 445.43 1252.25 429.79 1152.33 533.26 1117.11 633.73 1258.22 622.58
00004014 00000065 1019.10 202.01 387.21 574.65 1087.90 445.22 1252.67 429.48 1152.71 532.39 1118.08 633.69 1259.68 622.29
00004015 00000066 1019.88 200.50 387.27 576.30 1087.97 445.16 1255.02 427.76 1153.54 530.77 1118.14 633.63 1262.60 620.81
00004016 00000067 1020.40 201.27 386.90 574.27 1089.42 444.88 1256.87 427.55 1155.58 529.91 1118.48 632.77 1264.20 619.89
00004017 00000068 1016.55 192.00 388.79 583.62 1093.30 444.02 1259.04 432.82 1154.86 534.60 1120.82 628.82 1264.21 620.51
00004018 00000069 1017.02 192.27 388.91 586.06 1095.02 445.22 1260.73 433.26 1155.28 532.28 1121.45 629.88 1265.21 620.95
00004019 00000070 1018.39 191.28 388.94 590.95 1096.97 444.43 1260.57 431.62 1156.71 530.94 1123.69 631.40 1264.79 621.81
00004020 00000071 1018.83 190.04 388.55 589.72 1096.94 443.58 1260.22 430.61 1158.09 530.79 1124.68 630.76 1265.15 621.09
00004021 00000072 1019.41 188.73 388.37 587.93 1097.58 442.40 1260.49 430.22 1159.67 530.04 1125.54 629.08 1265.30 619.99
00004022 00000073 1019.76 189.69 388.38 585.54 1098.19 440.57 1261.94 429.02 1160.83 529.08 1125.85 628.13 1265.75 619.51
00004023 00000074 1019.98 189.43 389.03 586.67 1098.75 438.64 1263.56 427.51 1161.93 528.49 1125.77 627.99 1266.09 619.71
00004024 00000075 1020.10 186.95 389.59 590.73 1099.57 437.80 1264.25 426.76 1162.96 528.48 1126.98 628.73 1266.67 620.58
00004025 00000076 1020.27 187.51 389.58 589.61 1100.18 437.12 1264.56 426.70 1164.03 528.58 1127.68 628.19 1266.64 620.50
00004026 00000077 1020.28 188.26 389.30 582.57 1099.57 437.10 1264.60 427.61 1164.27 530.01 1127.61 626.13 1266.73 619.12
00004027 00000078 1019.17 187.36 390.10 580.84 1098.79 437.53 1264.63 430.36 1163.72 532.06 1125.71 624.41 1266.07 619.29
00004028 00000079 1019.25 187.69 388.84 579.99 1098.18 438.41 1264.04 432.04 1162.28 533.34 1124.01 624.07 1265.21 619.67
00004029 00000080 1019.84 192.09 388.82 580.30 1099.30 438.86 1264.63 431.94 1163.11 533.89 1125.36 626.66 1265.69 621.89
00004030 00000081 1024.35 195.88 387.01 580.29 1097.44 442.01 1262.07 427.06 1165.32 529.45 1125.96 630.55 1266.31 619.68
00004031 00000082 1024.62 196.65 386.41 578.21 1097.49 441.99 1262.62 426.47 1165.24 528.04 1126.60 631.00 1266.58 619.60
00004032 00000083 1020.14 190.88 389.11 583.22 1099.87 438.46 1263.85 429.89 1163.07 533.06 1128.33 629.74 1264.22 623.77
00004033 00000084 1019.83 189.19 389.66 580.46 1098.80 437.83 1263.35 428.93 1162.38 530.73 1127.38 627.06 1264.24 620.66
00004034 00000085 1019.34 188.96 389.62 570.91 1097.85 436.07 1263.37 428.99 1161.73 530.79 1126.46 623.42 1262.83 618.49
00004035 00000086 1019.41 188.74 389.32 568.82 1097.64 435.62 1264.63 429.09 1162.49 530.90 1125.61 622.35 1263.68 617.80
00004036 00000087 1019.56 188.71 389.91 572.03 1097.85 436.16 1264.10 429.31 1161.84 530.55 1126.15 623.82 1262.98 619.08
00004037 00000088 1019.84 190.34 389.33 577.03 1098.14 437.25 1263.30 429.18 1161.34 531.49 1126.67 626.89 1263.01 621.36
00004038 00000089 1020.48 191.00 388.69 581.08 1099.18 437.52 1264.07 429.31 1162.33 532.11 1127.37 629.01 1263.68 623.40
00004039 00000090 1020.39 190.55 389.25 584.81 1099.48 437.83 1264.55 429.13 1162.54 532.90 1128.01 630.70 1264.58 624.67
00004040 00000091 1020.42 191.14 389.18 585.15 1099.31 437.82 1264.41 428.61 1161.85 532.34 1127.79 631.40 1264.15 625.04
00004041 00000092 1019.87 190.05 389.69 581.90 1098.91 437.13 1263.54 427.84 1161.90 531.76 1128.30 629.59 1263.54 623.10
00004042 00000093 1019.64 191.36 389.76 576.54 1099.05 436.47 1262.66 427.28 1162.85 530.25 1128.26 626.83 1262.73 620.34
00004043 00000094 1019.33 189.45 390.66 575.25 1099.11 434.38 1262.55 426.54 1163.14 529.32 1127.71 623.87 1262.50 618.39
00004044 00000095 1020.53 187.90 390.46 581.80 1100.08 433.56 1263.36 425.01 1162.10 527.12 1126.93 625.84 1261.23 619.94
00004045 00000096 1026.34 193.69 387.42 580.88 1098.10 434.49 1264.15 417.00 1163.51 517.40 1126.69 629.98 1264.31 616.93
00004046 00000097 1021.11 187.81 389.59 584.43 1099.71 432.65 1262.99 421.34 1161.17 525.45 1127.63 626.92 1262.76 618.61
00004047 00000098 1019.67 186.56 390.75 576.83 1098.06 431.92 1264.08 422.13 1161.27 524.92 1126.12 622.82 1263.20 615.61
00004048 00000099 1020.63 187.90 389.65 568.50 1098.78 430.71 1265.56 422.60 1162.68 524.10 1126.32 618.87 1264.43 612.81
00004049 00000100 1021.40 186.49 388.54 568.68 1098.46 433.24 1265.92 425.42 1162.65 523.61 1125.17 618.95 1264.14 613.16
00004050 00000101 1021.02 188.63 388.50 564.35 1097.63 435.29 1267.68 427.70 1161.54 523.09 1124.17 618.28 1265.75 612.62
00004051 DELETE   1021.96 187.73 387.22 564.20 1097.13 435.84 1266.69 428.05 1161.04 523.78 1123.50 617.74 1265.95 611.90
00004052 00000103 1022.32 187.84 387.96 565.81 1098.39 436.35 1264.75 429.34 1161.56 526.39 1124.48 617.88 1264.66 612.72
00004053 00000104 1021.73 188.06 387.61 575.84 1098.21 439.71 1261.00 431.02 1160.33 529.23 1125.45 623.36 1262.61 617.21
00004054 00000105 1021.10 190.80 387.81 579.72 1097.86 441.41 1259.26 431.89 1159.20 532.26 1125.39 625.98 1262.46 619.25
00004055 00000106 1019.96 194.16 388.31 580.09 1096.26 443.16 1256.94 434.66 1156.34 536.24 1123.16 626.69 1262.53 620.65
00004056 00000107 1023.46 202.36 386.50 576.40 1091.54 451.40 1253.30 434.40 1155.13 537.46 1118.75 631.91 1268.47 619.08
00004057 00000108 1023.29 204.93 387.52 578.15 1091.23 455.19 1251.30 437.83 1152.70 542.52 1120.93 637.74 1267.00 624.20
00004058 00000109 1024.09 206.40 388.53 584.93 1094.26 457.95 1259.01 441.62 1154.40 545.91 1122.53 645.76 1268.40 632.67
00004059 00000110 1024.29 209.73 388.86 583.04 1096.43 460.73 1255.97 448.71 1154.01 549.57 1122.72 645.41 1265.03 635.72
00004060 00000111 1023.67 209.99 389.70 577.82 1096.55 459.36 1258.26 448.02 1157.67 551.39 1123.25 643.95 1265.58 634.86
00004061 00000112 1023.56 206.71 390.12 577.92 1096.02 455.50 1259.51 444.86 1158.84 549.04 1123.02 641.57 1265.54 633.22
00004062 00000113 1023.72 206.60 389.08 576.23 1095.30 452.29 1259.75 440.44 1159.23 545.61 1122.37 639.96 1265.22 631.04
00004063 00000114 1024.78 204.23 387.61 577.53 1095.57 450.19 1259.56 437.39 1159.67 541.70 1122.79 640.15 1262.88 631.00
00004064 00000115 1025.36 202.49 387.46 577.30 1095.81 448.06 1260.36 434.56 1160.67 539.28 1123.67 639.02 1263.03 629.38
00004065 00000116 1025.75 203.08 387.52 576.29 1096.12 446.88 1260.06 432.54 1160.68 535.87 1123.43 635.95 1265.01 625.71
00004066 00000117 1022.59 196.80 387.71 578.97 1100.42 440.64 1263.75 433.83 1160.38 538.16 1126.40 630.55 1263.36 626.04
00004067 00000118 1022.32 192.22 388.18 575.75 1099.92 438.24 1264.34 432.12 1160.84 536.38 1126.28 626.21 1264.40 622.13
00004068 00000119 1022.17 190.44 387.17 568.99 1099.79 435.76 1265.82 431.39 1162.47 534.47 1124.48 620.95 1265.03 618.19
00004069 00000120 1022.08 188.56 387.93 568.71 1099.29 434.90 1263.06 428.30 1161.27 530.96 1126.48 620.83 1262.20 616.32
00004070 00000121 1021.88 189.04 388.32 570.85 1099.82 432.63 1262.06 424.67 1160.76 528.60 1126.69 621.29 1259.81 615.87
00004071 00000122 1020.63 188.58 388.96 576.21 1099.01 432.31 1259.95 422.45 1159.53 527.46 1126.79 623.13 1259.00 616.11
00004072 00000123 1020.21 189.48 389.18 572.87 1098.74 431.80 1259.98 422.46 1160.06 526.26 1126.45 622.07 1258.59 615.45
00004073 00000124 1020.18 190.52 388.63 566.77 1099.24 431.50 1260.77 423.25 1161.73 526.09 1126.12 619.58 1258.59 613.84
00004074 00000125 1019.03 189.47 389.56 574.65 1099.12 431.35 1260.85 422.73 1161.47 526.34 1125.55 622.19 1258.93 616.14
00004075 00000126 1018.09 188.20 389.31 583.39 1098.26 433.68 1260.96 423.68 1161.33 527.99 1125.45 627.25 1259.55 620.14
00004076 00000127 1018.09 188.58 388.68 580.49 1096.31 436.66 1263.02 427.75 1160.85 532.24 1124.58 626.76 1264.51 620.53
00004077 DELETE   1017.01 191.04 389.42 581.40 1096.58 439.10 1264.33 430.74 1162.13 537.70 1125.62 630.55 1265.78 624.86
00004078 DELETE   1016.23 196.67 389.90 583.00 1096.11 442.60 1265.45 432.16 1163.08 540.60 1127.26 636.98 1268.03 629.58
00004079 00000130 1019.80 204.82 391.75 583.65 1096.17 451.79 1260.75 434.83 1166.93 544.07 1130.15 645.96 1268.16 633.62
00004080 00000131 1020.00 209.94 393.03 593.42 1098.73 456.28 1262.34 440.06 1169.37 552.79 1133.59 654.96 1275.16 642.39
00004081 DELETE   1019.42 217.63 394.90 590.92 1102.24 461.32 1265.35 445.82 1172.67 559.75 1137.91 660.34 1278.36 647.36
00004082 00000133 1019.76 218.12 394.13 592.67 1103.67 466.96 1265.31 452.25 1173.57 566.52 1140.15 665.19 1277.98 652.86
00004083 00000134 1019.11 222.42 395.37 588.55 1104.24 470.85 1264.85 457.48 1173.52 570.64 1140.49 665.90 1277.36 654.76
00004084 00000135 1017.08 225.95 397.88 584.23 1103.66 472.46 1264.38 459.23 1173.82 573.47 1139.62 666.69 1276.34 655.62
00004085 00000136 1016.99 224.54 398.81 583.60 1102.64 472.93 1264.87 460.02 1173.13 573.45 1138.36 665.41 1277.52 654.54
00004086 00000137 1017.28 221.47 398.86 583.91 1102.95 471.14 1265.54 458.69 1173.86 570.70 1138.05 663.64 1276.52 653.05
00004087 00000138 1018.03 221.44 398.72 582.08 1102.28 471.02 1264.93 457.62 1172.93 569.23 1137.74 662.01 1277.34 650.75
00004088 00000139 1017.91 221.72 398.03 579.91 1102.01 469.98 1265.00 456.58 1173.17 569.09 1137.26 661.20 1277.00 649.93
00004089 00000140 1018.23 220.62 397.94 579.25 1102.00 469.55 1265.66 456.61 1173.88 569.40 1137.02 660.79 1276.94 649.81
00004090 00000141 1019.07 220.20 397.11 577.60 1101.73 468.61 1265.45 455.63 1173.77 569.04 1136.49 659.85 1276.18 648.96
00004091 00000142 1018.99 219.85 397.18 577.61 1101.36 468.36 1265.43 454.88 1173.84 568.19 1136.33 659.48 1276.22 648.15
00004092 00000143 1019.33 218.11 397.28 578.90 1101.87 466.75 1266.40 453.69 1174.70 567.21 1136.10 658.71 1276.90 647.76
00004093 00000144 1019.29 219.52 397.89 577.59 1101.84 465.28 1267.52 451.71 1174.76 564.47 1135.97 657.24 1277.80 645.97
00004094 00000145 1020.09 221.76 397.14 576.20 1102.13 463.21 1267.67 450.30 1174.33 563.59 1135.15 655.77 1277.73 645.13
00004095 00000146 1020.35 219.68 396.77 579.14 1102.09 462.62 1266.91 449.50 1173.66 562.24 1134.71 654.89 1278.22 644.06
00004096 00000147 1020.60 222.04 396.45 576.96 1101.50 461.47 1266.05 448.27 1172.09 561.96 1134.54 655.07 1276.96 644.27
00004097 00000148 1020.77 220.45 395.99 578.80 1101.03 461.28 1265.58 447.58 1171.45 562.06 1134.16 655.00 1277.15 643.78
00004098 00000149 1020.70 218.69 396.35 581.10 1100.37 460.12 1266.04 446.24 1171.30 561.01 1133.58 654.92 1277.26 643.65
00004099 00000150 1020.55 217.70 396.36 580.20 1099.31 459.93 1264.70 445.15 1170.50 559.38 1133.25 653.80 1276.59 642.07
00004100 00000151 1019.36 215.03 396.63 584.13 1099.04 460.04 1263.02 444.70 1170.05 558.25 1132.77 653.31 1275.86 641.11
00004101 00000152 1020.32 215.02 394.80 584.99 1100.16 463.36 1265.80 446.69 1171.34 554.80 1132.02 652.61 1278.45 639.20
00004102 00000153 1018.95 212.93 394.69 587.69 1097.73 465.71 1261.35 446.47 1167.35 552.66 1131.34 653.28 1277.43 637.85
00004103 00000154 1018.65 212.33 394.97 587.21 1097.16 461.80 1262.96 442.91 1167.40 550.81 1130.15 651.92 1276.92 636.84
00004104 00000155 1017.11 213.10 394.75 583.78 1094.12 458.75 1258.18 438.94 1164.15 549.29 1129.69 649.99 1273.21 634.41
00004105 00000156 1016.30 210.85 394.87 583.03 1092.49 455.54 1253.34 435.74 1161.43 545.70 1129.47 646.12 1269.96 630.76
00004106 00000157 1014.86 211.72 395.03 580.03 1090.41 454.07 1251.33 432.81 1159.61 541.99 1128.91 644.87 1268.43 628.42
00004107 00000158 1012.56 209.81 396.79 582.39 1089.27 452.40 1250.82 430.37 1159.00 538.18 1128.34 643.36 1268.23 626.35
00004108 00000159 1012.01 209.91 396.07 581.34 1088.23 451.52 1248.99 428.98 1157.45 534.98 1127.26 641.97 1266.90 624.68
00004109 00000160 1010.61 211.57 396.45 580.05 1087.60 450.86 1247.40 428.25 1156.61 533.62 1127.18 641.08 1266.56 623.50
00004110 00000161 1009.24 209.37 395.85 582.50 1086.50 450.61 1245.81 428.38 1155.27 533.25 1126.22 640.92 1265.14 623.54
00004111 00000162 1008.15 210.05 396.01 582.94 1085.48 449.81 1244.35 428.58 1154.67 534.41 1125.30 641.50 1263.62 625.02
