Video ID: 	YT0pXXvISi8
H: 	1080
W: 	1920
FPS: 	23.976024113312672

FRAME INDEX X0 Y0 W H [Landmarks (5 Points)]

00007416 00000000 956.54 139.75 444.20 571.49 1035.15 331.75 1231.63 344.14 1096.71 449.46 1042.82 551.33 1196.66 562.22
00007417 00000001 948.18 136.97 447.11 577.25 1025.46 337.96 1221.44 345.08 1088.35 451.06 1038.84 556.89 1185.23 563.44
00007418 DELETE   940.80 143.08 450.14 572.48 1017.13 341.38 1214.98 347.85 1081.83 456.06 1032.21 557.64 1181.53 563.47
00007419 00000003 933.55 142.21 453.88 577.65 1012.20 344.58 1207.57 348.50 1078.02 457.58 1029.68 560.08 1180.03 563.62
00007420 00000004 933.10 146.19 451.58 571.11 1007.78 347.15 1202.41 348.93 1075.03 462.31 1028.23 561.99 1178.96 563.43
00007421 00000005 930.97 151.79 451.38 565.39 1007.30 348.56 1201.12 349.86 1075.98 464.08 1030.09 562.38 1179.40 563.28
00007422 00000006 933.38 156.04 450.08 563.17 1008.41 352.30 1204.47 353.14 1079.52 468.81 1034.41 567.70 1184.30 568.05
00007423 00000007 935.11 157.14 452.22 573.62 1011.06 354.08 1206.13 352.62 1080.21 467.94 1039.35 574.40 1188.10 573.05
00007424 00000008 935.97 156.10 453.12 576.43 1012.59 350.08 1207.26 348.06 1080.87 463.23 1040.99 572.11 1191.74 570.33
00007425 00000009 935.78 154.13 454.24 574.56 1010.76 346.18 1207.98 343.10 1079.90 457.69 1036.30 566.36 1193.76 563.68
00007426 00000010 934.02 145.72 455.87 575.24 1010.01 343.42 1205.83 340.74 1076.25 453.73 1031.97 560.44 1188.50 558.26
00007427 00000011 932.46 145.54 454.44 573.95 1007.98 342.54 1202.13 341.17 1073.34 455.45 1029.27 558.73 1185.66 557.46
00007428 00000012 932.96 146.59 452.76 573.40 1007.92 346.47 1200.47 346.66 1073.07 459.83 1029.40 560.74 1183.86 560.80
00007429 00000013 930.99 149.49 452.65 569.19 1007.53 349.13 1202.19 349.38 1075.47 463.55 1029.43 559.71 1184.82 559.64
00007430 00000014 930.00 151.40 451.61 566.23 1009.13 349.76 1204.20 350.34 1078.42 462.08 1029.74 559.08 1183.86 559.22
00007431 00000015 930.78 150.15 451.26 564.44 1009.09 346.29 1205.35 347.94 1078.26 459.11 1028.35 557.41 1182.36 558.58
00007432 00000016 930.04 150.89 451.21 559.35 1007.78 344.74 1204.60 345.97 1078.54 458.08 1028.14 556.05 1182.81 556.75
00007433 00000017 928.87 149.38 451.93 560.30 1007.37 344.18 1204.89 344.76 1078.82 456.71 1029.23 555.93 1184.32 555.99
00007434 00000018 930.07 151.22 453.69 567.91 1007.22 345.47 1205.24 343.00 1079.62 458.29 1031.67 561.47 1191.18 559.07
00007435 00000019 935.49 153.16 452.34 569.27 1011.41 347.62 1209.42 346.25 1083.72 464.31 1036.32 564.83 1195.25 563.55
00007436 00000020 940.54 156.58 449.26 568.03 1016.16 348.29 1218.20 347.63 1091.41 466.11 1041.48 566.44 1203.39 565.86
00007437 00000021 944.45 155.77 447.96 563.29 1021.47 344.18 1224.22 345.61 1097.70 464.97 1044.03 561.55 1208.14 562.75
00007438 00000022 947.91 159.94 446.22 558.36 1029.06 339.41 1228.73 337.57 1109.20 458.36 1054.43 561.71 1214.58 559.34
00007439 00000023 944.00 151.95 449.57 556.34 1027.37 333.90 1229.02 329.27 1109.34 451.15 1054.35 556.74 1212.53 551.71
00007440 00000024 937.47 150.90 453.16 556.80 1022.83 328.81 1225.35 326.21 1102.81 446.12 1044.88 545.12 1207.49 541.92
00007441 00000025 927.80 143.50 457.49 556.49 1015.66 330.26 1219.38 331.92 1089.44 443.09 1038.82 544.43 1196.67 542.70
00007442 00000026 922.72 149.76 456.06 562.01 1008.59 333.61 1210.48 328.43 1083.68 443.79 1036.34 551.19 1193.39 544.19
00007443 00000027 919.56 146.07 455.70 566.73 1002.79 337.26 1205.96 328.28 1080.01 447.01 1035.63 558.15 1193.43 548.06
00007444 00000028 917.28 149.36 455.97 564.31 1001.97 337.17 1204.05 328.04 1080.35 448.22 1036.29 559.40 1190.05 549.37
00007445 00000029 917.38 149.53 456.63 562.71 1002.37 335.65 1203.16 327.62 1079.60 448.20 1036.80 559.46 1184.82 550.57
00007446 00000030 919.52 151.75 453.91 557.45 1005.14 341.73 1201.47 333.61 1079.02 448.10 1037.24 558.02 1183.22 549.13
00007447 00000031 923.11 148.85 450.63 557.05 1011.30 346.77 1205.89 339.58 1083.93 446.80 1039.16 557.83 1187.61 549.68
00007448 00000032 923.60 152.48 451.91 550.90 1012.54 345.57 1207.03 340.11 1085.30 449.63 1040.08 553.77 1190.88 547.00
00007449 00000033 924.71 152.53 450.72 552.30 1013.39 342.51 1207.84 338.57 1085.84 448.53 1040.05 551.31 1190.65 545.51
00007450 00000034 926.27 150.24 452.40 556.94 1014.68 338.12 1210.72 336.01 1087.94 448.34 1041.63 550.14 1192.70 545.68
00007451 00000035 927.22 149.24 452.55 560.10 1014.53 336.16 1212.41 333.41 1088.51 445.27 1043.77 553.74 1194.27 548.73
00007452 00000036 927.79 148.63 452.45 560.36 1015.52 334.87 1213.27 330.11 1091.66 443.69 1047.76 555.08 1194.38 548.37
00007453 00000037 928.97 148.57 452.18 559.88 1016.50 332.55 1216.24 327.82 1093.74 441.98 1048.94 554.89 1196.91 548.14
00007454 00000038 928.65 147.02 454.10 562.97 1015.87 331.91 1219.20 327.63 1093.96 441.48 1047.38 556.00 1199.90 549.42
00007455 00000039 929.98 144.85 453.81 563.52 1017.02 330.98 1221.64 328.07 1094.05 441.28 1046.77 555.54 1201.30 549.97
00007456 00000040 930.60 146.74 454.57 559.18 1018.06 328.49 1223.18 326.97 1094.18 441.05 1045.22 552.15 1200.82 547.78
00007457 00000041 932.02 143.72 453.96 556.69 1019.00 326.78 1223.94 327.25 1094.07 441.18 1044.54 549.47 1199.90 546.82
00007458 00000042 933.18 143.34 453.58 553.65 1019.26 325.85 1224.38 327.40 1093.25 441.25 1043.67 547.96 1197.96 546.19
00007459 00000043 933.37 148.71 452.21 554.69 1018.23 326.76 1221.69 324.01 1099.15 445.08 1042.80 550.50 1199.60 547.26
00007460 00000044 935.56 148.03 450.40 556.06 1020.49 332.31 1221.36 328.96 1100.39 447.68 1043.81 551.88 1199.72 548.24
00007461 00000045 942.22 152.16 450.21 553.98 1023.60 331.49 1223.02 336.66 1092.19 447.46 1038.33 549.35 1193.24 553.74
00007462 00000046 945.87 152.54 451.20 557.78 1027.00 330.32 1227.28 337.27 1094.79 447.11 1039.53 548.23 1197.51 554.24
00007463 00000047 949.77 153.77 448.13 555.48 1030.16 329.37 1231.04 338.26 1098.31 446.11 1041.69 547.36 1200.21 554.95
00007464 00000048 951.53 151.53 449.31 558.91 1033.26 327.48 1233.70 337.68 1100.29 444.22 1044.58 547.10 1201.85 555.68
00007465 00000049 947.19 149.81 457.49 561.12 1034.66 324.10 1241.91 333.71 1108.40 446.38 1050.48 552.36 1209.67 560.12
00007466 00000050 947.69 149.47 459.89 562.87 1035.92 323.66 1243.86 332.20 1109.91 444.83 1051.83 553.74 1208.97 560.63
00007467 00000051 956.63 153.43 450.02 560.97 1040.17 326.41 1240.92 339.20 1105.01 442.69 1048.95 548.03 1203.90 558.91
00007468 00000052 956.86 153.96 450.59 563.34 1041.54 326.87 1240.90 339.49 1105.96 443.22 1051.12 549.01 1204.98 559.93
00007469 00000053 957.32 154.70 447.49 564.08 1042.80 328.20 1241.17 341.72 1107.39 445.99 1051.49 550.30 1205.01 561.95
00007470 00000054 957.77 154.07 446.28 566.39 1044.26 329.63 1242.13 345.46 1109.17 449.99 1050.32 550.45 1205.75 564.18
00007471 00000055 958.91 156.70 444.08 562.22 1043.92 330.39 1242.03 346.87 1109.80 453.31 1051.29 551.66 1206.90 565.88
00007472 00000056 958.46 156.12 444.40 563.62 1043.04 332.82 1242.47 349.30 1110.49 456.08 1050.39 554.00 1209.18 568.05
00007473 00000057 955.18 157.25 448.72 559.79 1046.23 341.46 1245.20 355.23 1115.90 460.37 1058.99 557.29 1217.89 568.60
00007474 00000058 953.89 157.04 450.46 559.11 1046.82 341.31 1245.57 354.71 1116.57 461.37 1060.40 556.55 1216.60 567.60
00007475 00000059 954.03 158.77 450.50 557.49 1047.18 341.45 1245.48 355.23 1117.17 462.88 1060.60 557.28 1215.94 568.62
00007476 00000060 959.14 165.95 444.93 553.57 1049.34 338.32 1248.27 346.81 1126.01 458.03 1062.68 557.44 1215.09 563.66
00007477 00000061 958.94 167.05 446.61 553.51 1049.42 337.27 1249.37 346.24 1126.18 459.35 1063.79 558.04 1215.75 564.68
00007478 00000062 959.59 165.01 446.32 554.89 1050.48 337.13 1250.47 346.60 1127.09 459.77 1064.57 557.75 1214.78 564.88
00007479 00000063 959.53 165.42 447.44 552.87 1050.98 336.88 1251.46 347.40 1126.89 460.96 1064.81 558.72 1214.20 566.78
00007480 00000064 959.76 166.52 447.60 553.03 1050.55 340.00 1251.22 349.56 1127.21 460.43 1064.94 558.27 1213.79 565.52
00007481 00000065 950.91 162.09 457.09 554.96 1049.70 345.44 1247.60 359.26 1119.31 463.44 1064.94 557.03 1209.44 568.42
00007482 00000066 957.00 165.94 450.13 555.81 1050.45 340.29 1248.46 349.90 1126.78 460.25 1064.93 557.68 1211.56 565.01
00007483 00000067 957.87 165.71 448.61 555.61 1051.56 340.22 1248.77 348.42 1126.99 461.01 1066.48 563.18 1206.58 569.45
00007484 00000068 960.25 168.33 448.15 557.55 1053.66 340.82 1251.94 350.54 1126.34 461.50 1066.98 568.31 1204.48 575.87
00007485 00000069 958.08 166.29 451.82 560.19 1056.09 347.93 1251.11 365.32 1122.01 472.36 1067.82 570.58 1203.11 585.71
00007486 00000070 963.22 175.12 449.52 554.38 1057.15 350.94 1258.11 364.38 1128.19 474.83 1065.24 574.33 1211.25 585.14
00007487 00000071 968.66 177.48 447.45 558.04 1060.45 354.23 1262.36 369.23 1129.00 482.89 1068.00 579.81 1213.66 592.14
00007488 00000072 973.14 178.86 448.23 560.63 1065.41 357.58 1266.66 374.05 1132.41 485.18 1072.22 584.96 1217.35 598.59
00007489 00000073 974.75 176.23 448.31 561.84 1068.68 355.74 1271.01 372.34 1138.39 484.75 1074.81 582.60 1221.49 596.51
00007490 00000074 975.47 176.24 451.59 560.32 1074.80 350.28 1275.36 368.43 1144.72 481.07 1080.09 577.06 1224.98 592.04
00007491 00000075 977.70 177.53 448.87 556.96 1075.32 346.56 1274.95 362.07 1146.28 474.38 1084.55 573.56 1228.17 586.21
00007492 00000076 979.30 174.45 445.57 561.66 1075.32 350.13 1269.41 363.45 1143.94 469.50 1082.61 570.97 1231.27 581.99
00007493 00000077 978.37 173.85 444.79 561.91 1072.96 346.09 1269.99 360.02 1141.71 466.56 1076.19 566.58 1232.05 577.68
00007494 00000078 975.60 173.54 443.72 562.48 1070.35 346.07 1266.40 362.92 1137.66 468.21 1070.98 565.52 1228.84 579.02
00007495 00000079 972.68 173.96 444.12 561.15 1069.36 352.53 1262.33 369.03 1137.33 472.83 1071.36 569.41 1223.46 583.27
00007496 00000080 969.89 176.28 449.19 562.02 1067.78 355.43 1262.84 373.29 1136.15 479.07 1071.29 573.27 1223.28 588.31
00007497 00000081 971.57 177.72 448.41 558.98 1067.80 356.17 1263.99 374.56 1135.93 479.97 1071.15 573.18 1224.19 588.66
00007498 00000082 972.97 176.89 447.90 558.57 1069.31 352.73 1265.74 370.24 1138.27 477.14 1074.11 572.33 1225.66 586.88
00007499 00000083 974.80 176.60 447.74 557.79 1071.12 350.63 1268.77 366.23 1141.34 474.27 1076.70 572.03 1228.39 584.83
00007500 00000084 975.99 177.79 448.40 553.27 1073.70 347.54 1273.44 363.67 1145.17 472.86 1079.55 569.55 1231.64 582.64
00007501 00000085 977.07 176.57 449.47 553.22 1075.29 345.39 1276.84 361.55 1147.33 470.63 1079.65 568.33 1235.13 581.39
00007502 00000086 978.26 175.00 448.89 553.00 1078.01 344.51 1279.09 362.05 1150.33 469.29 1080.84 566.92 1237.01 581.14
00007503 00000087 979.03 174.78 448.83 554.19 1079.73 344.24 1281.36 362.04 1152.13 469.87 1081.75 568.16 1238.91 582.59
00007504 00000088 978.35 174.76 450.86 555.25 1080.27 344.43 1282.04 362.47 1153.13 470.66 1082.21 568.98 1239.06 583.58
00007505 00000089 978.13 176.27 451.72 553.72 1080.04 344.69 1281.73 362.52 1152.35 471.18 1082.55 568.98 1237.47 583.41
00007506 00000090 978.34 175.78 451.13 555.53 1079.22 346.11 1281.15 364.34 1151.54 471.34 1080.83 569.06 1237.55 583.85
00007507 00000091 977.58 178.81 452.55 553.99 1078.43 346.70 1280.37 365.51 1149.82 472.36 1081.02 570.22 1235.42 585.38
00007508 00000092 977.16 179.41 453.29 561.33 1075.62 349.91 1278.20 366.79 1146.94 476.14 1078.98 575.81 1235.50 589.56
00007509 00000093 976.88 179.24 455.66 568.65 1076.72 351.57 1277.63 368.62 1146.96 481.40 1081.29 578.98 1233.98 592.94
00007510 00000094 978.53 183.41 458.48 567.63 1082.29 352.53 1280.91 375.25 1147.33 487.42 1079.87 578.23 1229.69 597.23
00007511 00000095 982.60 185.84 457.05 569.25 1088.71 355.10 1285.88 379.48 1152.39 490.87 1082.30 580.65 1233.46 601.10
00007512 00000096 989.33 185.55 456.82 567.05 1097.91 350.63 1296.93 377.94 1161.13 488.71 1090.36 581.14 1237.50 603.59
00007513 00000097 999.32 187.45 456.35 553.62 1115.52 352.82 1311.47 392.53 1175.71 488.55 1098.56 567.82 1245.29 601.58
00007514 00000098 1006.91 182.25 455.46 547.04 1119.65 344.38 1317.15 384.43 1181.47 483.61 1102.21 561.90 1251.64 596.28
00007515 00000099 1007.04 174.84 458.89 551.79 1120.21 336.00 1319.54 377.46 1184.31 476.67 1102.66 556.98 1257.87 592.44
00007516 00000100 1003.44 173.70 457.26 549.24 1113.87 329.22 1314.19 373.27 1181.14 476.14 1094.46 551.28 1253.98 588.57
00007517 00000101 1003.04 178.89 457.58 544.77 1115.33 335.52 1316.18 383.22 1181.07 485.90 1095.98 559.01 1247.47 598.90
00007518 00000102 1005.68 192.25 454.91 537.47 1124.35 349.89 1319.87 395.29 1184.86 489.90 1102.27 565.32 1246.40 603.76
00007519 00000103 1004.73 194.89 456.84 546.92 1127.07 356.07 1318.33 399.60 1185.17 493.83 1106.05 569.56 1248.99 606.57
00007520 00000104 1008.45 195.75 460.29 551.36 1131.07 354.77 1322.39 397.49 1188.50 492.58 1112.54 573.62 1249.81 610.09
00007521 00000105 1013.08 192.97 464.74 557.04 1137.12 349.05 1327.57 391.82 1195.27 489.13 1119.01 572.51 1255.44 608.89
00007522 00000106 1017.54 184.08 465.34 558.94 1144.11 342.76 1337.41 385.01 1206.60 479.65 1124.19 566.85 1266.16 603.14
CROP_BBOX: 721 0 1758 957
