Video ID: 	Tr479M9JQ1U
H: 	1080
W: 	1920
FPS: 	59.94006309148265

FRAME INDEX X0 Y0 W H [Landmarks (5 Points)]

00003378 00000000 675.86 374.01 418.99 535.70 781.45 568.98 972.25 577.29 867.80 669.92 789.08 755.32 955.57 762.16
00003379 00000001 675.72 378.12 419.46 528.33 780.97 568.00 972.76 576.04 866.52 671.93 790.62 757.06 955.35 763.50
00003380 00000002 678.64 385.09 412.24 520.80 781.26 567.85 977.09 577.57 878.45 671.91 786.33 753.70 956.62 760.50
00003381 00000003 681.77 385.28 409.16 520.27 782.72 568.21 977.11 577.37 879.23 673.03 786.98 753.62 958.02 759.99
00003382 00000004 686.18 382.63 402.44 521.69 787.81 575.29 967.19 580.40 876.71 672.59 793.93 757.23 955.85 760.66
00003383 00000005 686.49 382.08 403.75 523.43 789.20 577.13 968.73 581.92 879.11 674.74 795.32 758.85 958.07 762.17
00003384 00000006 686.30 383.49 405.84 523.71 790.98 579.13 971.99 583.15 882.29 675.68 797.07 760.92 960.07 763.58
00003385 00000007 686.64 385.67 406.47 521.91 791.93 579.05 973.38 583.81 882.32 676.46 799.69 762.30 960.69 765.49
00003386 DELETE   686.93 388.84 408.27 520.51 792.51 581.04 976.34 585.04 884.01 677.61 802.18 763.73 964.79 766.29
00003387 00000009 687.04 388.46 408.44 522.14 794.39 583.94 977.79 587.03 886.85 678.95 804.72 764.95 966.28 766.81
00003388 00000010 688.92 389.84 408.58 522.14 794.87 582.51 978.88 584.76 887.59 681.20 806.20 766.49 967.97 767.59
00003389 00000011 689.17 390.16 408.97 522.67 795.77 582.68 979.51 584.79 889.25 682.20 808.40 767.80 969.40 768.80
00003390 00000012 689.68 392.05 408.81 522.13 796.25 584.64 979.86 587.01 890.17 684.15 809.70 769.09 970.30 770.39
00003391 00000013 690.49 394.01 407.95 523.51 796.33 586.01 980.69 588.68 890.26 685.41 808.61 770.37 971.18 772.01
00003392 00000014 691.27 395.96 407.61 523.87 796.05 586.15 981.74 589.61 889.70 686.73 808.83 773.51 971.56 775.85
00003393 00000015 690.51 398.37 408.26 526.04 795.48 586.32 982.21 589.83 889.58 686.86 808.07 775.39 973.01 777.98
00003394 00000016 691.23 398.63 406.38 527.88 795.19 586.27 981.47 590.15 888.96 687.30 808.07 776.15 972.90 779.06
00003395 00000017 690.67 399.01 407.28 530.08 793.22 586.07 980.71 590.22 886.89 686.76 805.94 775.93 972.41 779.13
00003396 00000018 690.56 400.07 406.14 531.43 791.90 586.92 978.20 591.18 885.78 686.59 804.78 776.32 972.42 779.83
00003397 00000019 689.30 398.07 404.54 534.58 790.61 587.18 975.90 591.32 884.60 686.22 804.66 777.35 971.39 780.94
00003398 00000020 688.04 397.28 404.96 536.60 789.66 584.30 975.85 590.64 883.61 685.73 803.14 777.73 970.18 783.08
00003399 00000021 686.72 395.93 405.04 539.30 788.62 585.11 974.23 590.28 883.31 685.09 802.69 779.23 969.33 783.70
00003400 00000022 688.25 393.39 402.80 542.26 789.42 586.44 971.77 591.56 882.52 685.10 802.72 778.88 967.97 783.37
00003401 00000023 688.54 392.78 402.12 542.86 788.62 588.22 969.95 592.85 880.77 684.43 802.47 778.50 967.78 782.39
00003402 00000024 686.28 393.05 404.42 543.08 786.82 590.28 969.16 593.76 878.26 684.32 801.61 779.38 966.80 782.22
00003403 00000025 685.00 394.76 405.07 543.28 783.80 591.52 966.96 593.30 875.84 684.80 799.77 781.81 966.78 783.11
00003404 00000026 684.36 394.90 405.11 545.83 782.29 593.99 968.89 595.22 875.99 686.03 799.35 784.98 968.49 785.66
00003405 00000027 684.94 396.05 405.33 545.87 780.66 596.54 969.44 596.64 874.23 687.97 798.83 787.49 970.33 787.05
00003406 00000028 684.19 396.00 406.79 547.00 780.68 597.86 970.09 598.38 874.19 689.84 798.33 789.84 968.71 789.87
00003407 00000029 684.19 395.05 407.78 547.02 780.65 597.13 971.53 598.28 874.35 690.33 798.30 790.60 966.27 791.28
00003408 00000030 683.50 395.01 408.99 546.84 780.36 598.00 970.80 598.80 873.71 690.56 799.36 791.99 964.25 792.54
00003409 00000031 683.90 396.20 410.22 545.98 780.67 599.19 971.88 599.48 874.52 690.42 799.37 790.76 965.15 790.86
00003410 00000032 683.19 396.28 410.41 545.31 781.26 599.94 973.30 600.83 875.34 691.96 799.18 793.10 963.95 793.83
00003411 00000033 682.37 397.25 412.36 545.76 781.91 598.31 974.68 600.91 876.77 692.81 799.51 793.11 965.26 795.14
00003412 00000034 681.93 399.12 415.47 546.99 781.35 598.65 976.03 600.64 877.11 694.10 798.71 794.76 966.31 796.16
00003413 00000035 681.42 399.83 418.58 547.01 779.88 601.24 976.77 600.92 876.94 695.65 799.60 797.32 967.85 796.84
00003414 00000036 681.23 400.28 419.81 546.46 779.51 601.75 977.36 601.90 876.10 697.17 798.76 797.24 967.57 797.18
00003415 00000037 679.48 401.31 421.94 545.91 778.96 602.87 976.98 602.58 875.72 698.03 799.44 797.97 967.63 797.57
00003416 00000038 678.95 404.16 421.36 542.88 778.14 606.50 977.01 603.91 875.63 698.91 799.65 800.08 969.94 797.63
00003417 DELETE   678.05 404.45 422.57 543.81 777.02 608.35 975.79 605.23 874.18 699.25 799.67 801.31 970.80 798.25
00003418 00000040 678.61 405.70 423.68 543.72 778.42 609.65 976.27 607.39 873.99 700.59 800.53 801.60 970.99 799.27
00003419 00000041 679.00 405.47 422.52 543.15 778.51 610.02 975.13 607.82 873.03 702.36 800.24 801.26 970.52 798.87
00003420 00000042 681.59 405.05 421.03 546.09 779.99 610.61 975.72 610.64 873.12 705.42 799.80 801.35 973.79 800.46
00003421 DELETE   679.67 407.47 422.01 544.99 779.09 611.21 975.21 610.08 872.98 707.30 800.42 802.54 973.65 800.64
00003422 00000044 677.85 415.12 427.72 543.74 777.84 614.30 972.61 613.57 873.63 720.46 794.90 806.20 964.11 805.03
00003423 DELETE   678.16 418.53 427.05 541.28 778.41 617.24 972.35 617.78 873.93 724.44 793.52 807.04 963.76 807.02
00003424 00000046 678.10 422.16 425.88 539.89 778.52 620.27 972.66 618.93 876.08 726.45 794.61 809.48 966.10 807.89
00003425 00000047 678.20 424.77 423.70 536.19 776.83 623.59 973.74 620.98 876.12 729.42 791.52 810.93 967.78 808.55
00003426 00000048 677.55 428.92 425.16 534.01 775.75 626.09 974.30 622.29 876.82 731.35 792.09 811.42 969.60 807.86
00003427 00000049 678.02 432.15 423.92 530.75 775.34 628.71 974.18 625.12 876.65 733.14 791.43 812.23 969.74 808.77
00003428 DELETE   678.86 435.50 422.77 527.95 776.76 630.13 974.31 627.52 877.18 734.05 791.05 810.43 970.11 807.77
00003429 00000051 677.52 436.11 422.22 527.80 775.77 631.68 973.70 628.80 876.89 734.34 789.76 810.26 971.03 807.38
00003430 00000052 678.17 436.83 421.57 526.44 776.03 632.13 973.39 629.83 876.09 735.72 789.36 809.78 970.45 807.43
00003431 00000053 678.84 437.74 420.44 524.91 776.10 633.15 972.47 631.05 875.48 736.23 789.99 808.91 969.32 806.66
00003432 00000054 677.80 436.21 420.12 526.40 774.48 631.70 971.17 630.62 873.77 736.71 789.00 809.02 967.57 807.66
00003433 00000055 677.99 436.14 418.23 525.69 773.80 632.09 970.07 631.55 871.81 737.25 787.69 807.83 966.92 807.04
00003434 00000056 677.15 434.21 418.21 528.44 773.23 629.57 969.21 631.34 870.05 736.01 785.03 807.50 964.55 808.58
00003435 00000057 675.96 433.06 418.89 528.24 771.83 627.26 968.33 629.79 868.20 733.82 782.21 805.92 963.59 807.64
00003436 00000058 674.42 432.29 419.78 526.85 771.03 625.68 968.22 630.60 865.74 733.06 778.12 803.55 961.97 807.27
00003437 00000059 675.67 430.46 418.68 530.35 770.88 624.46 967.30 629.83 864.63 732.38 776.25 802.67 960.99 806.79
00003438 00000060 677.07 434.81 417.28 526.49 771.52 621.88 966.48 629.69 863.55 730.67 774.99 800.40 958.64 806.46
00003439 00000061 674.36 432.93 418.11 525.56 768.98 618.42 961.56 627.10 858.47 730.54 773.95 799.10 953.41 805.73
00003440 DELETE   674.08 429.82 420.77 528.82 768.90 615.52 961.68 626.83 855.35 727.93 769.34 796.04 952.19 804.76
00003441 00000063 671.19 426.51 419.75 533.80 765.32 608.31 955.92 621.63 848.71 722.27 763.96 793.18 947.53 803.25
00003442 00000064 668.47 419.07 422.82 542.15 762.76 598.77 952.29 616.79 841.96 716.15 756.99 786.52 942.42 800.43
00003443 00000065 668.57 413.28 417.36 549.77 761.57 593.78 947.16 612.07 836.68 708.31 755.61 784.47 936.00 799.06
00003444 00000066 667.54 411.79 417.23 556.17 759.10 588.06 944.29 606.87 832.06 705.45 753.98 783.01 934.68 797.91
00003445 DELETE   667.64 405.73 417.97 561.12 757.85 582.81 937.94 603.57 823.19 700.68 752.30 779.40 924.96 795.67
00003446 DELETE   666.84 405.25 412.86 557.19 757.96 572.63 940.26 602.23 821.45 693.22 752.88 770.38 931.14 793.49
00003447 00000069 666.12 402.08 407.10 560.51 755.27 569.05 932.00 598.47 814.90 689.78 748.07 767.42 925.50 790.47
00003448 00000070 660.62 402.26 412.28 558.63 748.74 579.14 924.86 591.37 810.39 689.97 749.70 773.19 922.32 784.04
00003449 00000071 656.68 401.03 414.61 565.41 742.29 578.52 916.26 588.48 802.59 686.87 743.96 773.44 916.45 782.20
00003450 DELETE   657.24 400.00 412.71 566.99 739.30 573.94 912.31 586.18 791.77 682.89 738.67 769.73 910.97 779.94
00003451 DELETE   653.41 399.61 413.31 563.63 733.04 572.66 904.75 587.17 781.67 681.79 732.08 767.67 904.24 779.69
00003452 00000074 652.40 397.63 410.02 561.70 732.37 571.90 901.87 587.27 780.07 679.76 730.12 765.19 902.02 777.96
00003453 DELETE   653.14 398.36 407.94 561.49 729.57 570.80 897.87 584.50 777.01 678.40 726.96 765.44 899.03 776.59
00003454 00000076 653.38 396.22 407.05 563.07 727.65 567.92 896.72 581.99 774.01 676.05 725.12 763.84 898.65 775.21
00003455 00000077 653.88 392.52 403.92 566.04 727.16 566.60 892.10 580.64 769.82 672.36 724.19 762.30 895.26 773.66
00003456 00000078 654.47 394.15 401.06 564.34 724.42 566.69 888.37 578.87 766.55 671.71 723.81 763.81 893.85 773.57
00003457 00000079 652.70 392.67 401.32 566.53 722.62 563.77 885.93 577.57 762.71 669.24 720.44 763.62 890.28 774.86
00003458 DELETE   651.33 391.41 403.42 567.89 722.80 562.81 883.70 579.51 758.85 667.91 718.17 761.57 886.91 775.28
00003459 00000081 651.14 393.53 402.17 569.10 721.81 563.70 879.74 580.23 755.28 666.89 716.56 761.62 885.56 774.80
00003460 00000082 649.71 391.86 403.75 570.07 719.89 560.64 878.31 579.72 750.88 665.26 714.96 761.18 880.92 776.58
00003461 00000083 649.22 391.94 402.20 566.09 717.68 559.98 875.40 579.72 746.01 663.26 710.60 760.36 874.88 776.29
00003462 00000084 649.29 390.47 403.38 567.01 716.87 557.48 875.48 577.54 744.00 661.57 709.37 758.64 872.82 775.06
00003463 00000085 650.17 393.54 404.98 565.22 716.01 558.41 871.02 579.49 739.43 662.46 707.30 758.39 871.68 775.25
00003464 00000086 649.02 394.18 404.67 561.00 716.09 557.30 869.84 582.13 738.80 660.46 704.23 756.86 866.24 777.06
00003465 00000087 649.34 392.95 403.24 564.49 715.90 554.01 866.06 581.28 733.91 658.12 703.31 757.48 863.17 779.75
00003466 00000088 653.45 393.07 396.95 567.92 713.77 552.96 860.26 582.06 727.42 657.93 701.32 758.09 861.89 781.32
00003467 00000089 654.47 392.08 393.57 570.35 711.19 555.84 854.08 582.06 721.51 658.02 702.41 760.74 859.37 781.44
00003468 00000090 655.67 389.29 389.25 574.94 710.35 551.22 850.55 580.31 717.22 655.64 701.64 758.83 856.21 781.60
00003469 00000091 653.19 387.48 392.46 576.28 709.26 553.29 851.71 581.53 716.64 656.89 701.12 760.41 855.76 782.36
00003470 00000092 650.15 387.89 397.25 577.07 708.67 551.75 851.24 580.22 716.58 656.07 697.48 758.97 854.35 781.07
00003471 00000093 648.69 388.05 397.44 578.36 706.27 550.67 850.85 578.41 715.49 656.36 695.59 760.24 853.67 781.63
00003472 00000094 643.76 391.97 403.34 572.37 701.91 550.89 849.43 576.47 713.62 654.67 692.92 760.61 851.82 779.94
00003473 00000095 642.41 388.50 404.20 577.71 698.83 551.45 847.49 575.64 709.85 654.85 690.83 762.74 848.99 780.79
00003474 00000096 640.69 388.11 404.33 581.14 698.11 550.13 846.12 575.11 708.20 655.04 688.89 763.05 849.73 781.48
00003475 00000097 638.81 393.37 406.10 571.89 696.57 548.75 844.80 574.61 707.32 654.57 688.70 761.47 847.76 780.59
00003476 00000098 641.48 389.58 400.35 581.09 697.51 546.40 847.75 573.97 711.01 656.73 687.72 763.87 849.48 784.23
00003477 00000099 641.06 388.58 400.35 584.42 698.27 551.50 843.22 580.22 707.18 662.15 688.99 765.21 847.04 786.04
00003478 00000100 636.37 384.38 405.17 589.45 696.79 552.95 842.88 581.79 706.11 664.29 688.24 766.86 844.69 787.83
00003479 00000101 636.60 389.47 404.57 588.55 696.19 555.34 838.92 584.16 703.26 670.12 688.63 768.47 844.66 789.16
00003480 00000102 634.00 391.22 406.47 583.17 696.91 555.32 840.03 586.52 705.39 671.23 689.97 765.98 843.04 788.55
00003481 00000103 632.92 395.14 404.49 578.45 695.63 557.20 837.69 587.69 704.47 672.60 690.21 765.81 843.06 787.61
00003482 00000104 630.73 393.28 407.77 579.27 694.24 557.77 839.17 588.51 705.90 673.21 687.65 764.62 844.39 786.54
00003483 00000105 630.06 395.87 406.70 575.58 694.65 557.67 838.17 589.21 707.43 675.49 688.24 764.75 843.01 787.36
00003484 00000106 625.31 391.15 415.66 593.16 698.11 560.80 841.28 595.09 703.75 683.38 691.54 769.76 837.24 795.00
00003485 00000107 622.39 395.02 418.35 589.49 695.85 561.59 841.91 594.60 706.03 683.11 690.51 770.23 837.33 794.41
00003486 00000108 627.37 397.66 409.49 572.43 695.09 558.84 841.91 591.33 711.63 676.51 688.22 764.07 845.14 787.55
00003487 00000109 626.41 398.28 409.91 570.79 691.74 560.57 838.10 592.45 707.51 677.33 687.99 763.52 844.13 786.34
00003488 00000110 626.23 399.87 409.01 568.54 692.91 559.51 839.85 591.36 709.15 675.29 688.38 762.84 844.39 786.02
00003489 00000111 625.26 400.51 410.26 568.38 691.77 558.94 839.27 590.36 708.57 674.86 688.27 763.46 844.30 786.28
00003490 00000112 625.26 401.01 410.09 571.07 692.84 559.42 839.16 591.24 708.49 673.60 687.88 763.02 845.04 786.11
00003491 00000113 625.04 401.76 411.58 568.76 692.56 561.26 838.85 592.44 708.50 674.30 688.19 763.25 844.15 785.84
00003492 00000114 625.32 397.99 411.34 568.29 693.23 559.73 839.49 590.98 708.26 672.45 688.56 761.97 842.54 784.67
00003493 00000115 624.91 401.51 411.96 563.63 693.62 559.83 840.02 591.17 709.31 672.41 688.00 761.13 841.04 784.14
00003494 00000116 619.27 389.45 422.66 590.63 690.93 561.17 840.51 592.21 702.67 678.66 685.03 768.10 833.49 791.27
00003495 00000117 621.63 390.44 420.40 588.05 692.26 561.33 840.54 593.14 702.95 679.31 684.40 767.32 833.06 791.17
00003496 00000118 623.03 392.74 417.09 587.15 691.57 563.27 839.56 593.82 703.11 680.74 683.47 767.04 833.01 789.84
00003497 00000119 624.45 390.16 417.32 592.48 690.78 562.92 839.71 593.83 702.41 680.87 681.36 766.53 832.29 789.58
00003498 00000120 625.17 391.47 415.25 588.43 691.02 562.91 840.54 593.16 704.13 681.06 681.53 766.45 832.09 788.94
00003499 00000121 623.66 392.52 416.56 588.27 690.67 561.02 841.45 593.96 702.63 680.05 678.56 764.60 827.70 789.34
00003500 00000122 622.11 390.48 418.37 589.48 687.56 560.60 839.25 591.97 699.94 678.90 677.48 765.95 825.99 789.58
00003501 00000123 623.68 390.34 417.63 590.11 689.88 562.41 840.79 593.17 701.55 679.05 678.19 766.63 824.74 789.90
00003502 00000124 625.15 392.68 415.27 579.76 689.06 563.11 841.61 593.27 702.93 677.96 677.00 765.98 822.16 789.32
00003503 00000125 621.80 390.19 418.59 577.66 687.97 562.84 842.57 592.46 703.71 676.66 678.60 765.29 819.45 788.59
00003504 00000126 622.43 387.93 416.58 573.61 689.94 562.67 844.42 591.21 707.21 676.29 681.42 765.63 817.44 788.62
00003505 00000127 619.46 384.98 416.98 568.26 688.09 561.25 845.65 590.49 707.29 676.22 681.68 763.47 813.87 787.24
00003506 00000128 621.90 392.68 408.68 538.97 684.16 559.52 847.10 596.55 709.19 676.27 674.68 762.30 807.49 790.20
CROP_BBOX: 432 163 1292 1080
