Video ID: 	CPYmTgWN1mU
H: 	1080
W: 	1920
FPS: 	25.0

FRAME INDEX X0 Y0 W H [Landmarks (5 Points)]

00000515 00000000 357.35 65.38 253.31 346.99
00000516 00000001 358.45 65.74 253.32 347.19
00000517 DELETE   359.54 66.11 253.34 347.39
00000518 DELETE   360.64 66.47 253.35 347.58
00000519 DELETE   361.74 66.84 253.37 347.78
00000520 00000005 364.37 66.66 253.53 347.91
00000521 00000006 367.01 66.49 253.69 348.04
00000522 DELETE   369.64 66.31 253.85 348.17
00000523 00000008 372.27 66.14 254.01 348.31
00000524 00000009 374.91 65.96 254.17 348.44
00000525 00000010 375.80 65.90 254.34 348.62
00000526 00000011 376.69 65.83 254.52 348.81
00000527 00000012 377.59 65.77 254.69 348.99
00000528 00000013 378.48 65.70 254.86 349.17
00000529 00000014 379.37 65.64 255.04 349.35
00000530 00000015 379.63 65.44 255.21 349.48
00000531 00000016 379.89 65.25 255.38 349.61
00000532 00000017 380.15 65.05 255.55 349.74
00000533 00000018 380.41 64.86 255.72 349.87
00000534 00000019 380.66 64.66 255.90 350.00
00000535 00000020 380.70 64.59 256.11 349.98
00000536 00000021 380.74 64.52 256.32 349.96
00000537 00000022 380.77 64.44 256.53 349.94
00000538 00000023 725.97 152.71 363.12 539.92 804.20 355.51 968.48 370.15 858.57 457.89 806.10 547.53 936.80 561.08
00000539 00000024 380.85 64.30 256.96 349.90
00000540 00000025 729.89 145.68 365.37 545.07 807.99 358.98 975.82 370.82 866.69 458.48 812.60 551.26 945.99 562.51
00000541 00000026 732.27 150.08 364.95 537.98 812.04 360.63 980.62 371.16 871.82 458.54 818.23 551.39 952.31 561.57
00000542 00000027 733.93 146.84 365.47 544.66 815.77 358.06 984.20 371.03 876.49 457.94 821.54 550.88 953.97 563.17
00000543 00000028 734.74 146.60 367.29 545.72 818.71 357.94 988.73 369.84 883.45 458.17 826.33 552.75 959.67 563.89
00000544 00000029 737.15 141.62 368.98 551.96 823.15 359.39 993.60 371.64 891.32 460.00 830.86 554.17 964.53 565.33
00000545 00000030 739.48 142.99 369.31 554.30 828.38 361.88 997.19 374.43 897.19 461.54 837.09 558.42 966.01 569.93
00000546 00000031 741.35 147.79 368.63 553.74 832.10 365.45 1000.37 377.28 900.46 467.57 840.81 567.90 963.52 578.98
00000547 00000032 744.22 150.81 367.07 551.63 835.81 368.32 1001.67 380.39 903.02 471.67 844.23 569.65 964.99 581.02
00000548 00000033 743.94 153.78 370.72 549.11 837.35 370.26 1004.55 383.03 906.72 472.66 844.48 565.22 974.39 576.94
00000549 00000034 744.91 148.92 370.59 546.16 835.89 366.76 1006.78 381.70 905.25 471.33 842.88 563.53 975.12 576.80
00000550 00000035 389.16 72.85 258.83 347.30
00000551 00000036 389.64 72.68 258.74 347.32
00000552 00000037 390.12 72.52 258.65 347.35
00000553 00000038 390.61 72.35 258.55 347.37
00000554 00000039 391.09 72.19 258.46 347.39
00000555 00000040 391.20 72.05 258.07 347.21
00000556 00000041 391.31 71.91 257.69 347.02
00000557 00000042 391.41 71.77 257.30 346.84
00000558 00000043 391.52 71.64 256.91 346.65
00000559 00000044 391.63 71.50 256.52 346.47
00000560 00000045 391.44 69.70 256.42 346.65
00000561 00000046 391.24 67.91 256.32 346.83
00000562 00000047 391.04 66.12 256.22 347.02
00000563 00000048 390.84 64.32 256.12 347.20
00000564 00000049 390.65 62.53 256.02 347.39
00000565 00000050 390.17 61.92 256.05 347.55
00000566 00000051 389.69 61.30 256.09 347.71
00000567 00000052 389.22 60.69 256.12 347.88
00000568 00000053 388.74 60.07 256.16 348.04
00000569 00000054 388.27 59.46 256.19 348.20
00000570 00000055 387.64 59.62 256.27 348.19
00000571 00000056 387.02 59.79 256.35 348.17
00000572 00000057 386.40 59.95 256.44 348.16
00000573 00000058 385.77 60.12 256.52 348.14
00000574 00000059 385.15 60.28 256.60 348.12
00000575 00000060 385.10 59.57 256.76 347.84
00000576 00000061 385.06 58.87 256.91 347.55
00000577 00000062 385.01 58.16 257.07 347.27
00000578 00000063 384.96 57.45 257.22 346.98
00000579 00000064 384.92 56.75 257.38 346.70
00000580 00000065 384.55 57.14 257.54 346.59
00000581 DELETE   384.18 57.52 257.70 346.48
00000582 00000067 383.81 57.91 257.86 346.37
00000583 00000068 383.45 58.30 258.02 346.26
00000584 00000069 383.08 58.69 258.18 346.16
00000585 00000070 381.60 61.69 258.28 345.92
00000586 00000071 380.13 64.69 258.39 345.68
00000587 00000072 378.66 67.69 258.49 345.45
00000588 00000073 377.18 70.69 258.59 345.21
00000589 00000074 375.71 73.69 258.69 344.98
00000590 00000075 375.54 75.40 258.71 344.07
00000591 00000076 375.37 77.11 258.72 343.17
00000592 00000077 375.19 78.83 258.73 342.26
00000593 00000078 375.02 80.54 258.75 341.35
00000594 00000079 374.85 82.26 258.76 340.45
00000595 00000080 375.20 79.85 258.67 340.63
00000596 00000081 375.56 77.43 258.58 340.81
00000597 00000082 375.91 75.02 258.50 341.00
00000598 00000083 376.27 72.61 258.41 341.18
00000599 00000084 376.62 70.20 258.32 341.37
00000600 00000085 377.17 68.69 258.38 341.53
00000601 00000086 377.71 67.19 258.45 341.70
00000602 00000087 378.26 65.69 258.51 341.86
00000603 00000088 378.80 64.18 258.57 342.03
00000604 00000089 379.35 62.68 258.64 342.19
00000605 00000090 379.86 60.78 258.59 342.27
00000606 00000091 380.38 58.87 258.54 342.35
00000607 00000092 380.89 56.97 258.48 342.43
00000608 00000093 381.40 55.06 258.43 342.51
00000609 00000094 381.92 53.16 258.38 342.58
00000610 00000095 381.41 52.44 258.21 342.80
00000611 00000096 380.91 51.73 258.05 343.02
00000612 00000097 380.41 51.01 257.88 343.23
00000613 00000098 379.90 50.29 257.71 343.45
00000614 00000099 379.40 49.57 257.54 343.67
00000615 00000100 379.09 49.83 257.49 343.62
00000616 00000101 378.79 50.09 257.45 343.58
00000617 00000102 378.48 50.34 257.40 343.54
00000618 00000103 378.17 50.60 257.35 343.50
00000619 00000104 377.86 50.86 257.31 343.46
00000620 00000105 377.79 50.86 257.32 343.49
00000621 00000106 377.72 50.86 257.34 343.52
00000622 00000107 377.65 50.86 257.35 343.55
00000623 00000108 377.59 50.86 257.37 343.58
00000624 00000109 377.52 50.86 257.38 343.61
00000625 00000110 377.36 50.89 257.25 343.77
00000626 00000111 377.21 50.93 257.11 343.93
00000627 00000112 377.06 50.96 256.98 344.09
00000628 00000113 376.91 50.99 256.84 344.25
00000629 00000114 376.76 51.02 256.71 344.41
CROP_BBOX: 482 0 1307 824
