Video ID: 	DW369XrphEg
H: 	1080
W: 	1920
FPS: 	25.0

FRAME INDEX X0 Y0 W H [Landmarks (5 Points)]

00007616 00000000 481.15 147.08 592.59 743.49 786.31 366.09 1002.90 435.83 929.48 565.32 728.76 661.49 910.56 718.40
00007617 00000001 475.53 143.50 592.12 748.36 786.29 363.01 996.00 436.29 928.42 561.68 722.48 655.22 904.23 715.29
00007618 00000002 460.93 148.96 602.18 739.35 770.06 361.18 993.81 423.47 913.68 556.15 711.50 646.88 897.90 700.01
00007619 00000003 457.90 148.38 604.34 738.03 764.13 358.60 991.33 418.07 909.00 552.41 707.54 646.41 894.67 696.89
00007620 00000004 456.92 148.39 602.53 737.32 761.46 357.42 988.09 416.82 905.98 547.47 705.81 644.58 893.09 694.95
00007621 00000005 456.43 147.34 604.96 737.66 762.81 357.02 990.00 416.58 908.46 546.59 705.85 643.53 894.80 694.12
00007622 00000006 459.40 146.93 603.01 738.87 765.72 357.45 990.31 420.33 909.93 545.78 706.44 641.59 895.43 695.24
00007623 00000007 474.05 143.29 590.35 746.12 782.90 356.81 990.88 428.80 927.73 551.18 713.65 645.56 901.73 705.24
00007624 DELETE   476.11 138.81 593.21 751.28 784.99 357.59 995.60 426.79 930.80 551.02 717.84 647.55 906.32 705.02
00007625 00000009 478.39 145.98 596.34 743.38 788.09 358.45 999.99 426.73 933.70 552.91 720.42 647.70 909.04 704.41
00007626 00000010 480.24 144.40 601.09 739.21 790.40 363.18 1006.27 432.21 934.02 557.97 728.42 651.70 910.99 708.43
00007627 00000011 479.57 143.94 605.96 728.82 790.07 365.49 1013.71 431.37 938.09 561.13 737.17 654.37 917.94 707.89
00007628 00000012 483.07 139.54 602.20 728.62 788.61 367.53 1013.44 431.47 938.58 560.79 743.36 656.80 922.62 708.40
00007629 00000013 486.42 139.79 597.93 729.39 792.05 369.98 1014.11 429.49 941.56 564.73 748.35 661.61 923.92 709.51
00007630 00000014 485.83 143.66 598.98 727.20 792.15 368.39 1014.59 427.93 942.76 561.88 750.00 661.61 925.89 709.46
00007631 00000015 487.75 144.45 598.79 729.56 792.78 365.87 1016.16 428.43 942.99 559.19 751.64 662.43 927.40 712.58
00007632 00000016 486.74 138.16 599.66 730.33 791.02 363.42 1017.84 428.91 941.95 556.48 745.58 655.71 925.97 708.41
00007633 00000017 486.06 136.16 599.13 732.80 790.94 363.18 1017.47 428.22 944.51 554.79 743.46 653.93 927.02 706.87
00007634 00000018 486.16 135.71 600.50 737.86 791.29 360.02 1016.35 425.19 944.77 550.42 744.14 652.09 927.80 705.14
00007635 00000019 487.54 135.87 595.10 746.64 793.90 358.87 1010.13 426.33 944.56 550.04 742.08 653.71 922.50 708.89
00007636 00000020 485.88 139.91 595.88 745.87 791.46 358.97 1008.82 423.90 944.65 550.70 736.38 652.34 923.67 705.96
00007637 00000021 485.91 144.33 595.44 739.30 792.64 360.73 1007.95 424.83 944.51 553.06 734.43 651.26 921.64 704.47
00007638 00000022 485.18 143.71 594.18 734.87 793.17 363.43 1009.37 427.03 945.02 557.18 736.63 651.40 923.34 704.11
00007639 00000023 484.43 141.99 598.48 734.79 793.22 365.28 1011.90 424.95 947.09 559.28 738.27 652.63 925.23 702.45
00007640 00000024 487.83 126.99 597.82 750.24 794.48 361.36 1012.73 424.74 948.12 555.13 742.40 653.57 925.56 705.95
00007641 00000025 489.35 139.89 597.88 743.28 795.10 357.24 1014.49 423.12 950.07 550.67 747.62 655.98 928.63 710.13
00007642 00000026 489.66 140.81 601.56 742.06 796.47 359.48 1022.34 421.86 954.61 553.02 758.82 664.31 935.85 714.86
00007643 00000027 489.56 142.02 601.48 729.59 799.83 362.86 1027.69 416.21 962.78 557.13 768.29 666.11 941.10 709.34
00007644 00000028 494.58 150.49 596.80 710.54 803.75 362.88 1033.69 414.01 968.56 554.11 787.68 665.15 952.85 705.82
00007645 00000029 500.17 143.58 592.05 714.29 807.53 363.14 1035.87 414.34 971.90 553.74 792.68 666.09 955.20 706.76
00007646 00000030 510.25 130.82 593.19 729.73 817.66 371.50 1040.43 425.78 976.01 565.40 797.57 674.29 954.26 717.92
00007647 00000031 516.27 149.82 590.55 730.70 825.98 380.77 1041.91 432.75 975.17 577.17 791.46 683.48 946.41 726.16
00007648 DELETE   510.90 154.28 597.98 740.25 825.36 377.87 1046.42 441.04 970.37 577.75 781.03 679.79 942.88 732.69
00007649 DELETE   512.62 152.63 603.98 755.92 831.97 373.00 1049.93 436.91 977.54 575.41 771.39 676.18 939.88 730.93
00007650 DELETE   515.43 145.67 597.51 757.85 834.82 368.34 1049.69 431.67 984.07 569.09 769.74 670.58 939.79 725.18
00007651 00000035 521.82 147.31 600.28 744.80 840.26 361.23 1059.68 424.56 987.39 566.96 779.72 665.95 943.98 719.97
00007652 00000036 539.63 150.24 588.51 726.22 854.62 359.45 1057.17 432.33 989.39 572.24 788.20 658.34 945.95 717.93
00007653 00000037 538.44 157.51 589.84 709.67 854.20 358.96 1061.21 433.79 988.62 573.43 787.76 653.07 949.04 714.04
00007654 00000038 541.84 150.74 589.84 711.75 856.81 357.53 1060.77 433.55 986.64 569.16 788.42 647.44 947.28 709.50
00007655 00000039 527.08 159.81 596.39 710.40 842.59 354.41 1060.36 424.39 979.31 556.01 786.70 645.60 942.62 704.61
00007656 00000040 524.69 150.93 602.56 724.09 840.14 351.44 1056.74 424.65 977.04 553.28 772.18 641.16 935.37 703.70
00007657 00000041 518.65 149.28 607.12 723.58 835.62 347.23 1056.23 422.33 973.33 547.33 767.34 637.01 935.20 700.90
00007658 00000042 519.37 138.66 604.20 730.32 835.02 342.30 1056.17 417.26 971.26 544.04 765.29 634.17 931.73 697.81
00007659 00000043 519.08 136.47 600.50 728.66 832.69 340.24 1053.24 414.00 969.45 540.62 763.78 632.58 930.98 695.42
00007660 00000044 517.89 130.88 598.69 735.03 831.70 339.94 1050.36 414.61 970.86 537.43 764.98 632.73 932.02 696.40
00007661 00000045 516.56 133.95 602.74 733.73 834.98 339.81 1052.79 414.01 971.81 540.59 766.03 634.52 929.19 697.55
00007662 00000046 512.55 147.23 604.82 722.30 832.47 344.76 1051.47 415.62 969.21 548.46 763.66 637.38 929.60 697.48
00007663 00000047 512.42 147.16 602.11 726.36 831.37 347.14 1048.98 417.81 968.11 548.86 761.75 639.18 928.47 699.12
00007664 00000048 511.43 141.70 608.23 736.30 832.05 345.42 1048.36 413.28 968.85 550.04 758.98 641.64 924.27 699.85
00007665 00000049 500.48 149.51 615.50 725.89 826.16 346.00 1045.21 412.17 965.00 551.06 755.64 641.39 922.17 697.69
00007666 00000050 505.19 147.68 612.62 725.21 827.11 347.07 1047.49 415.05 964.95 553.60 758.42 642.20 922.77 700.00
00007667 00000051 508.02 147.09 607.51 717.73 824.54 350.13 1045.86 422.57 958.56 551.04 765.13 641.56 924.20 702.08
00007668 00000052 517.73 147.19 598.29 707.32 827.06 351.64 1048.20 423.71 965.36 555.79 771.14 646.29 939.92 706.40
00007669 00000053 510.31 146.29 600.48 707.45 823.16 353.82 1044.40 424.64 963.00 556.60 769.78 646.62 938.02 705.42
00007670 00000054 505.24 141.76 602.28 712.30 819.20 354.77 1039.12 423.01 960.39 557.49 766.82 645.21 935.31 701.79
00007671 00000055 501.96 139.54 606.01 718.14 818.21 355.87 1035.54 422.38 959.15 557.46 762.97 645.10 930.46 700.28
00007672 00000056 501.42 140.15 605.35 729.27 818.08 353.31 1030.87 420.64 959.73 555.13 758.71 648.81 926.16 705.16
00007673 00000057 493.17 144.25 612.73 731.67 814.79 356.75 1033.32 425.45 955.37 553.52 756.06 646.54 918.02 703.94
00007674 00000058 494.55 146.48 615.02 731.19 813.97 357.56 1031.40 428.11 951.73 555.68 749.22 644.35 912.64 703.14
00007675 00000059 500.91 141.58 604.83 729.38 814.20 351.10 1023.28 427.08 952.02 555.04 739.61 639.25 914.46 703.42
00007676 00000060 499.76 137.70 599.11 726.41 807.98 354.00 1020.12 429.90 946.24 552.45 733.27 635.34 914.27 699.67
00007677 00000061 497.36 138.79 600.98 714.03 806.76 354.43 1021.12 431.10 943.81 551.15 738.84 633.73 912.76 697.59
00007678 00000062 498.18 135.04 598.05 718.97 807.78 355.70 1021.19 429.95 947.44 550.40 739.98 635.47 913.74 697.34
00007679 00000063 498.40 138.06 600.47 713.85 808.97 355.32 1023.47 427.94 948.73 548.36 742.82 635.53 915.88 696.08
00007680 00000064 497.88 134.75 600.90 714.50 808.34 349.33 1025.34 423.81 947.57 541.53 747.06 634.37 916.75 695.60
00007681 00000065 497.21 128.17 601.30 723.58 809.54 347.46 1024.86 423.75 950.08 541.10 747.60 635.37 915.20 698.15
00007682 00000066 498.48 125.01 601.13 727.58 810.31 346.18 1026.20 422.23 951.23 539.60 750.27 635.99 916.60 698.36
00007683 00000067 499.47 123.00 599.80 732.72 811.63 344.19 1026.54 422.18 952.02 539.67 752.11 637.17 916.66 700.96
00007684 00000068 501.46 119.43 599.06 737.68 812.74 344.06 1028.01 422.10 951.72 540.16 753.83 639.71 917.07 703.50
00007685 00000069 501.53 117.60 596.06 744.31 812.62 342.98 1025.06 422.61 952.15 540.68 750.58 640.69 914.29 706.16
00007686 00000070 503.64 121.32 592.65 745.55 812.36 342.33 1023.91 424.18 951.04 540.94 750.64 643.47 913.14 710.78
00007687 00000071 498.61 123.25 596.57 744.81 812.03 341.06 1020.96 424.27 949.31 538.70 749.76 640.36 911.21 708.97
00007688 00000072 480.97 128.67 612.03 744.33 806.21 341.25 1025.95 426.04 947.30 533.63 747.78 638.41 904.60 708.32
00007689 00000073 475.68 129.41 615.22 749.11 802.57 338.47 1021.38 421.09 946.88 528.84 740.40 637.04 903.00 705.48
00007690 00000074 473.65 126.37 611.97 750.02 800.55 338.46 1015.45 416.74 945.22 527.21 738.77 633.26 901.73 698.36
00007691 00000075 479.92 127.59 604.77 749.97 799.65 340.39 1013.31 418.22 940.01 525.60 738.88 633.47 900.97 698.14
00007692 00000076 478.42 127.91 605.39 748.34 797.96 339.73 1012.75 417.63 937.50 526.33 736.77 633.53 898.46 698.23
00007693 00000077 478.45 128.33 602.00 747.07 795.44 340.19 1011.19 418.26 936.18 525.88 734.25 632.67 898.60 697.56
00007694 00000078 479.88 129.46 600.95 743.35 794.44 340.48 1011.89 417.99 934.21 526.81 735.62 632.50 898.52 696.75
00007695 00000079 479.84 129.49 602.22 742.80 794.54 340.49 1013.47 416.98 934.81 527.57 737.12 632.89 899.95 696.24
00007696 00000080 478.05 129.74 604.71 740.97 796.29 340.43 1014.69 417.69 937.98 529.07 738.02 632.69 900.66 696.67
00007697 00000081 479.49 128.33 604.73 740.32 798.53 338.95 1016.76 418.66 939.07 529.39 740.28 632.03 900.20 698.06
00007698 00000082 480.27 127.52 602.17 738.11 799.47 339.41 1016.86 418.20 941.68 530.70 741.18 632.16 901.49 697.50
00007699 00000083 481.42 128.19 601.37 734.96 799.83 338.91 1017.99 416.42 941.91 531.78 743.95 631.90 902.90 696.12
00007700 00000084 483.74 129.82 598.86 730.73 800.38 339.60 1019.90 416.59 942.27 531.24 748.14 632.29 905.31 695.92
00007701 00000085 483.99 129.42 597.85 728.97 799.43 339.12 1019.32 416.30 941.94 529.56 749.47 631.79 905.54 695.48
00007702 00000086 491.14 123.31 590.68 733.48 800.31 332.44 1014.14 416.83 939.51 527.97 747.91 629.86 913.72 698.20
00007703 00000087 493.41 127.05 592.26 729.22 799.19 330.78 1015.93 412.64 937.86 528.18 750.86 630.65 915.31 696.83
00007704 00000088 494.14 125.46 591.84 728.05 799.30 332.46 1017.83 411.55 937.18 530.13 753.43 631.40 916.83 695.29
00007705 00000089 494.47 122.30 593.99 728.89 801.93 334.80 1020.23 414.38 937.96 533.18 757.30 631.48 918.22 695.72
00007706 00000090 495.15 124.13 598.77 727.15 804.57 337.99 1023.77 416.94 940.28 537.34 759.57 635.06 917.95 698.77
00007707 00000091 498.61 121.25 595.65 740.80 809.98 341.47 1021.26 419.09 943.16 538.42 765.98 642.42 917.28 705.05
00007708 00000092 504.16 129.68 592.20 740.06 809.00 349.06 1023.44 429.66 941.97 543.49 760.80 649.85 918.16 714.89
00007709 00000093 499.98 133.83 592.51 734.13 803.71 352.53 1022.81 432.14 943.21 547.87 747.65 647.97 917.90 712.81
00007710 00000094 496.94 129.75 597.60 745.43 806.00 347.83 1021.64 429.28 944.10 541.96 749.94 644.29 918.73 710.70
00007711 00000095 498.01 129.31 598.01 745.12 805.14 344.61 1020.69 426.81 944.30 539.43 749.63 644.26 917.27 711.24
00007712 00000096 492.08 124.63 597.95 740.44 799.68 348.33 1019.67 426.96 943.64 542.21 740.36 641.43 917.89 706.19
00007713 00000097 488.76 129.25 598.80 736.22 799.12 349.18 1017.09 427.71 942.05 542.26 736.89 640.50 915.23 705.28
00007714 00000098 487.76 132.41 598.95 734.32 798.71 349.84 1016.82 425.73 942.35 546.63 737.24 640.90 916.04 703.43
00007715 00000099 489.56 133.36 599.53 741.62 803.04 347.44 1014.17 425.31 939.20 544.52 741.52 642.15 912.50 706.27
00007716 00000100 491.97 132.08 596.09 740.76 803.93 346.66 1013.44 423.88 939.48 543.12 741.00 640.27 911.99 704.27
00007717 00000101 492.82 125.77 597.22 745.81 802.97 345.54 1014.73 422.29 937.91 542.13 739.50 640.32 911.63 703.93
00007718 00000102 489.82 125.10 600.77 745.46 804.93 341.75 1013.21 419.79 939.67 539.69 740.66 636.36 910.70 700.99
00007719 00000103 488.79 123.16 601.09 748.05 803.31 340.49 1012.56 419.84 938.62 537.59 738.93 635.06 910.25 700.69
00007720 00000104 487.61 124.31 602.89 746.38 802.96 340.03 1012.02 419.23 939.50 537.14 738.51 634.22 910.12 699.73
00007721 00000105 485.94 123.91 603.75 746.97 802.22 340.32 1011.50 418.47 939.81 537.27 738.21 634.50 910.74 699.08
00007722 00000106 486.09 123.19 603.44 747.55 801.59 340.91 1011.56 419.67 939.35 537.67 737.85 634.54 911.35 699.64
00007723 00000107 488.33 124.24 601.39 745.73 801.70 341.69 1012.47 419.16 938.07 539.27 736.34 635.28 910.91 699.45
00007724 00000108 487.99 120.75 600.70 746.85 800.47 342.28 1011.71 418.64 937.37 539.49 736.41 634.82 910.62 698.05
00007725 00000109 486.75 122.40 602.51 744.76 799.83 342.61 1011.81 418.85 937.48 539.14 736.63 635.01 911.18 697.98
00007726 00000110 487.08 121.25 603.00 748.17 800.62 342.38 1011.91 420.07 938.47 537.39 737.90 635.28 911.88 699.44
00007727 00000111 487.57 120.43 602.37 748.30 800.10 342.91 1012.14 421.87 937.82 537.06 738.14 635.26 911.95 700.42
00007728 00000112 486.88 120.31 603.50 746.35 800.07 344.18 1013.18 421.68 937.79 539.67 737.54 636.27 911.25 700.16
00007729 00000113 486.17 124.56 600.24 737.27 798.25 346.68 1014.06 423.11 936.24 541.60 738.10 636.38 912.90 699.15
00007730 00000114 482.93 125.25 597.74 740.15 795.29 348.91 1012.34 423.14 938.09 545.08 738.60 640.47 914.49 701.08
00007731 00000115 482.31 129.41 599.75 736.73 793.71 351.04 1012.85 424.90 936.30 545.91 738.13 642.54 914.77 702.68
00007732 00000116 481.56 127.50 598.84 739.58 792.75 350.45 1009.74 425.01 932.66 545.32 736.11 642.21 910.92 702.83
00007733 00000117 483.24 126.92 599.94 741.31 790.97 349.46 1008.22 423.53 928.39 542.31 735.36 641.65 909.55 701.84
00007734 00000118 486.08 127.57 597.01 742.27 791.01 347.30 1006.15 423.03 925.64 540.03 734.47 641.73 906.78 703.47
00007735 00000119 489.07 124.39 593.35 747.67 790.35 346.36 1003.92 423.06 922.48 539.16 730.49 641.75 902.94 704.70
00007736 00000120 484.42 127.78 592.10 748.03 789.73 347.29 998.75 424.41 923.08 539.35 728.88 642.77 898.96 706.09
00007737 00000121 479.36 128.89 591.72 753.73 788.90 343.97 994.98 418.89 927.07 538.33 726.53 645.10 895.30 706.81
00007738 00000122 475.09 125.50 596.83 758.22 790.49 341.83 993.21 417.77 928.38 538.36 725.20 644.40 891.69 707.08
00007739 00000123 479.09 117.89 592.38 763.16 789.41 344.91 993.25 420.15 924.71 541.34 725.59 644.40 892.11 706.50
00007740 00000124 460.32 118.53 608.92 755.00 774.97 346.70 991.59 413.17 915.51 532.69 723.90 641.96 884.54 698.54
00007741 00000125 459.05 112.50 605.13 761.43 773.59 345.23 990.05 410.66 915.63 530.68 726.15 641.10 886.15 696.71
00007742 00000126 458.02 118.49 605.40 751.91 770.79 344.61 990.76 409.36 912.86 531.36 725.50 639.94 885.42 694.85
00007743 00000127 458.28 118.83 604.82 747.98 770.89 342.40 991.75 407.40 913.16 529.45 726.54 638.67 886.30 693.83
00007744 00000128 456.51 112.36 606.79 753.36 771.44 341.69 991.92 406.82 915.05 527.23 728.35 637.40 888.33 692.47
00007745 00000129 456.74 108.48 606.82 754.76 772.35 339.78 992.55 404.60 916.33 525.71 730.14 636.14 889.95 691.00
00007746 00000130 460.45 112.47 602.26 747.83 773.35 338.51 992.37 404.52 916.89 523.45 732.14 634.86 890.87 690.93
00007747 00000131 462.01 108.44 599.87 751.81 773.70 337.57 991.72 403.59 917.71 522.33 733.23 634.25 892.30 690.55
00007748 00000132 461.59 103.51 600.59 755.69 774.54 337.36 991.65 403.87 918.91 521.38 734.73 634.21 893.30 690.96
00007749 00000133 461.65 103.88 598.93 752.62 774.64 337.92 991.93 404.51 919.08 522.12 735.53 633.70 893.63 690.48
00007750 00000134 462.07 104.08 598.83 751.45 775.58 339.30 992.72 404.90 919.43 524.06 735.13 633.99 893.27 690.09
00007751 00000135 462.20 100.72 599.02 758.32 775.85 340.15 992.46 404.04 920.67 524.40 735.74 634.00 894.30 688.65
00007752 00000136 460.88 96.90 600.98 770.07 776.91 338.20 992.45 405.42 921.54 522.91 731.71 632.98 892.86 690.35
00007753 00000137 461.03 100.21 601.50 769.28 776.72 340.05 991.50 407.73 921.05 523.64 731.16 633.87 891.04 691.59
00007754 00000138 461.53 105.63 604.45 754.45 772.59 342.95 993.21 409.03 913.60 525.65 733.18 634.58 891.35 690.54
00007755 00000139 472.56 112.52 591.58 742.41 782.81 344.64 997.38 416.98 922.08 539.76 738.13 637.26 901.02 695.29
00007756 00000140 472.10 113.75 592.48 738.63 783.15 345.43 997.71 415.93 922.03 541.24 740.41 637.67 901.28 694.08
00007757 00000141 471.79 113.11 592.85 737.72 783.64 345.60 997.92 415.17 922.32 542.11 741.32 636.95 900.71 692.63
00007758 00000142 471.38 111.42 593.25 737.22 782.48 345.65 997.53 413.53 921.87 542.50 741.18 637.42 900.03 691.75
00007759 00000143 472.76 113.82 591.25 733.60 782.57 345.46 996.43 413.06 920.44 542.92 741.29 636.60 898.45 690.71
00007760 00000144 475.60 116.02 588.80 732.69 783.76 344.55 994.81 412.99 920.67 542.92 740.68 635.97 896.71 690.98
00007761 00000145 478.17 115.32 584.97 743.75 787.04 345.46 992.33 414.26 921.92 543.64 738.55 640.41 893.72 696.32
00007762 00000146 480.90 113.30 585.38 761.85 789.31 344.38 991.47 416.76 923.32 542.95 732.93 645.21 892.15 704.67
00007763 00000147 461.07 123.21 609.22 748.53 775.18 348.00 994.80 412.17 913.73 536.29 728.47 645.35 886.17 700.08
00007764 00000148 478.58 115.41 590.08 750.08 787.27 348.75 995.74 419.99 921.20 545.79 736.33 646.37 894.64 704.06
00007765 00000149 476.60 113.01 591.05 743.13 786.66 348.75 997.57 417.56 923.33 546.22 738.71 642.91 898.31 698.29
00007766 00000150 476.52 114.00 592.09 741.33 786.89 348.22 998.16 418.63 923.41 544.04 738.07 640.20 900.06 696.90
00007767 00000151 473.23 110.67 590.46 752.50 794.05 342.21 993.03 412.35 930.62 540.30 737.65 639.70 894.21 696.76
00007768 00000152 475.53 114.60 586.29 754.86 791.26 345.23 989.39 414.61 928.84 542.07 736.44 642.92 893.10 699.65
00007769 00000153 476.57 111.33 589.38 757.71 791.09 345.89 992.74 416.36 926.42 542.26 735.70 642.21 895.35 699.91
00007770 00000154 460.45 117.70 606.10 749.08 773.34 350.09 991.62 408.98 914.22 535.32 731.18 641.85 889.85 691.79
00007771 00000155 460.82 119.48 603.86 747.61 772.98 349.48 991.00 408.98 914.18 534.65 730.71 641.39 889.69 691.80
00007772 00000156 460.22 117.06 603.56 749.36 772.63 350.19 990.64 409.01 914.16 533.65 731.56 641.14 890.84 690.89
00007773 00000157 460.43 117.24 604.53 749.18 773.33 349.65 991.01 409.93 914.63 533.59 731.84 640.75 890.25 691.89
00007774 00000158 460.79 119.47 603.82 748.34 773.92 348.75 991.50 409.59 915.09 533.25 730.88 640.71 889.69 692.41
00007775 00000159 460.17 119.45 604.95 747.75 774.00 348.81 991.97 409.00 915.45 533.81 731.51 640.57 890.33 691.66
00007776 00000160 460.79 119.87 604.94 746.89 774.21 349.06 993.09 409.66 915.68 534.64 732.62 638.31 893.66 689.76
00007777 00000161 460.78 120.59 604.66 745.20 773.75 349.12 993.14 408.60 915.53 535.30 732.93 638.50 894.06 689.04
00007778 00000162 477.67 117.31 587.56 747.22 788.45 346.58 993.73 418.41 924.29 542.38 735.29 638.71 899.96 697.07
00007779 00000163 475.23 120.68 588.96 742.01 785.78 346.65 993.16 417.67 924.13 542.10 733.49 637.60 901.49 695.35
00007780 00000164 460.10 122.21 604.26 738.25 770.83 348.80 993.52 406.17 915.36 536.51 729.47 637.03 894.30 685.89
00007781 00000165 458.96 122.05 604.72 743.12 771.24 348.87 992.64 406.58 916.50 536.62 727.31 636.87 893.47 686.21
00007782 00000166 457.91 121.65 606.26 749.98 773.78 348.77 990.40 409.41 915.27 535.57 727.06 636.91 889.27 688.51
00007783 00000167 457.79 125.02 606.14 746.36 772.24 347.65 989.77 408.78 913.81 535.03 725.29 637.20 887.73 689.12
00007784 00000168 458.12 120.84 603.98 750.51 771.76 348.65 988.68 410.10 914.27 534.60 725.99 637.13 888.78 689.21
00007785 00000169 457.43 123.42 604.04 747.31 771.34 347.96 988.98 409.73 913.46 534.65 726.11 637.49 887.83 689.74
