Video ID: 	z1fXr4ORF54
H: 	1080
W: 	1920
FPS: 	29.97002997002997

FRAME INDEX X0 Y0 W H [Landmarks (5 Points)]

00067697 00000000 593.63 278.61 475.65 623.77 724.21 480.26 940.56 470.25 842.64 595.57 764.15 734.63 926.31 724.03
00067698 DELETE   597.82 276.44 476.18 622.65 734.01 475.25 951.00 466.01 856.56 591.45 774.94 731.99 934.23 721.69
00067699 00000002 600.99 267.39 477.87 628.04 743.24 473.90 959.51 465.15 867.79 589.31 783.56 730.74 940.45 720.88
00067700 00000003 603.83 263.26 480.00 631.39 748.59 474.91 964.38 464.63 873.65 589.36 790.03 730.77 947.92 719.59
00067701 00000004 608.06 259.32 479.78 641.80 753.68 474.52 969.90 465.56 878.23 588.74 790.72 731.78 953.49 721.73
00067702 00000005 614.45 263.29 477.04 646.51 758.61 474.56 977.40 466.57 884.30 592.40 792.23 735.52 961.16 726.16
00067703 00000006 615.71 271.30 479.43 644.30 772.25 475.96 986.66 472.78 894.75 596.83 796.72 731.44 962.93 727.96
00067704 00000007 620.85 286.46 476.22 633.86 775.71 480.82 988.92 475.92 897.65 606.48 801.23 737.86 965.52 733.05
00067705 00000008 623.89 283.15 473.36 629.10 777.65 488.36 993.12 481.14 903.02 616.43 805.75 743.36 969.57 736.33
00067706 00000009 625.89 260.62 475.16 643.77 773.37 489.22 992.31 481.89 905.12 617.87 807.33 744.72 975.45 739.52
00067707 00000010 626.12 257.38 480.04 644.08 773.20 494.38 993.63 484.54 903.08 624.45 811.25 746.36 978.15 738.95
00067708 00000011 627.52 272.35 479.81 632.25 773.30 498.49 994.29 488.32 903.10 628.83 812.60 749.36 978.38 741.86
00067709 00000012 627.06 278.70 481.90 627.06 772.70 501.12 994.95 491.12 902.88 631.32 813.89 752.31 978.45 744.78
00067710 00000013 627.02 283.12 484.00 629.02 772.22 502.71 996.21 493.07 903.44 634.58 811.16 755.91 979.99 748.63
00067711 00000014 625.68 290.77 485.62 619.16 776.11 500.13 1000.56 499.14 901.13 632.39 809.89 751.82 978.21 748.52
00067712 00000015 628.87 288.85 484.99 625.74 778.14 499.43 1002.13 498.74 902.69 633.65 811.37 754.11 979.05 751.24
00067713 00000016 630.91 285.65 486.38 636.01 782.84 498.30 1001.38 499.05 905.32 634.41 815.76 754.23 978.30 752.92
00067714 00000017 634.16 289.78 486.67 636.89 784.38 497.15 1002.93 498.26 907.05 634.83 815.97 755.27 980.15 754.59
00067715 00000018 635.32 280.14 489.13 653.30 789.82 494.56 1004.94 497.56 911.38 632.04 817.87 753.51 982.74 754.47
00067716 00000019 637.82 279.60 489.73 653.53 794.40 490.82 1007.99 496.39 914.15 631.07 818.96 750.92 983.17 753.95
00067717 00000020 640.33 276.19 487.19 656.20 795.74 488.90 1008.44 495.66 914.04 630.74 817.83 749.25 982.61 753.31
00067718 00000021 641.49 279.76 485.50 648.32 792.83 490.29 1006.82 496.61 909.83 631.31 815.11 747.91 980.52 751.70
00067719 00000022 640.89 277.58 485.39 645.32 784.95 493.76 1002.90 497.70 901.53 630.57 809.40 748.13 976.95 749.74
00067720 DELETE   637.44 261.84 488.80 662.60 773.02 499.24 994.64 497.30 887.16 633.60 797.52 753.16 969.30 752.71
00067721 00000024 628.89 257.14 490.04 663.14 756.98 500.92 978.97 500.84 864.16 638.72 778.32 752.90 946.13 753.96
00067722 DELETE   621.84 259.43 482.46 657.55 736.47 505.45 959.73 504.41 838.55 643.54 758.03 753.79 927.29 753.97
00067723 DELETE   611.63 269.94 488.87 642.91 716.66 511.25 935.79 510.97 809.74 648.76 743.87 750.14 903.49 750.34
00067724 00000027 614.48 285.98 476.64 625.13 703.58 510.22 924.96 507.56 792.33 646.65 728.90 754.10 896.59 750.22
00067725 00000028 610.53 288.60 477.42 622.21 693.45 509.49 913.53 508.84 778.39 649.87 716.90 755.00 881.21 753.10
00067726 00000029 602.57 292.38 485.58 615.32 682.02 514.28 897.97 514.28 766.11 658.68 716.68 753.84 870.49 754.18
00067727 DELETE   601.05 299.66 484.77 609.05 676.24 512.53 888.38 512.85 754.03 653.93 710.22 753.54 862.68 754.20
00067728 00000031 600.22 308.75 485.39 599.79 671.39 508.30 880.47 510.91 743.47 652.32 703.22 751.00 851.19 753.60
00067729 00000032 600.61 307.13 483.14 601.17 667.75 508.66 874.01 509.25 737.07 648.32 700.28 752.17 844.48 753.15
00067730 DELETE   596.85 315.39 481.74 596.16 663.77 507.25 865.66 508.74 729.03 646.65 696.29 752.96 837.63 754.46
00067731 DELETE   589.29 306.40 481.69 604.46 659.85 508.85 860.73 508.63 722.83 644.97 690.64 752.10 831.87 752.55
00067732 00000035 584.59 294.49 482.26 612.84 657.13 508.45 856.36 506.77 716.42 640.46 687.00 751.54 823.75 751.15
00067733 DELETE   579.19 290.59 483.60 615.66 652.46 506.36 850.72 505.66 712.30 640.48 682.51 749.23 819.41 749.75
00067734 00000037 573.97 288.60 483.36 615.99 649.93 504.24 848.60 504.88 711.60 639.71 678.85 747.01 815.78 748.79
00067735 00000038 569.31 287.09 484.99 615.69 645.83 503.28 846.28 503.97 708.75 638.96 674.53 745.80 812.86 747.75
00067736 00000039 567.34 287.62 485.08 615.14 642.84 501.69 844.21 502.10 706.04 638.01 672.09 745.75 811.35 747.39
00067737 00000040 565.43 290.91 484.17 610.83 641.06 500.96 843.17 501.83 704.97 639.01 671.48 744.78 810.88 746.76
00067738 00000041 563.29 291.36 484.02 609.35 639.30 500.62 842.02 501.25 704.01 638.97 670.64 744.63 810.35 746.30
00067739 00000042 561.96 293.79 484.81 606.93 638.26 500.45 841.52 500.68 703.24 639.31 670.72 744.44 810.52 745.73
00067740 00000043 559.83 290.50 485.72 610.82 637.24 500.19 842.02 500.52 703.58 640.00 669.89 745.18 810.98 746.57
00067741 00000044 559.55 289.70 486.11 612.21 636.58 499.75 843.15 500.07 704.27 640.47 669.08 745.66 811.84 747.04
00067742 00000045 558.44 292.64 486.28 609.63 636.39 498.37 843.04 499.04 704.38 639.79 669.38 744.61 811.47 746.19
00067743 00000046 555.43 287.03 488.11 616.67 635.43 494.89 842.39 495.95 704.26 636.70 668.50 743.92 810.72 745.82
00067744 00000047 554.31 288.13 488.75 614.63 635.27 492.85 843.62 493.61 705.78 633.69 669.01 743.67 810.74 745.30
00067745 DELETE   556.57 279.99 487.10 622.52 627.44 489.20 846.20 488.95 705.50 633.18 658.99 745.22 813.82 745.67
00067746 00000049 554.60 269.45 491.67 629.11 627.24 485.58 849.27 484.93 707.30 630.15 658.27 741.67 814.26 742.04
00067747 00000050 555.17 259.67 492.05 634.20 630.69 484.73 850.64 481.58 710.67 625.59 661.58 737.60 815.33 736.18
00067748 00000051 557.18 262.11 489.50 624.65 635.14 482.96 851.52 479.17 713.52 620.89 664.80 729.80 816.52 728.03
00067749 00000052 557.02 272.64 485.23 614.38 641.65 482.52 846.12 476.08 718.16 612.92 667.69 718.87 811.33 714.84
00067750 00000053 548.82 231.74 494.18 643.24 633.29 470.03 851.07 466.45 711.60 603.45 661.59 716.23 810.71 714.88
00067751 00000054 544.73 216.85 489.77 643.41 634.60 461.36 846.75 461.97 709.84 586.81 663.38 696.32 806.18 697.05
00067752 00000055 538.14 208.92 492.28 648.49 632.97 459.15 841.56 456.57 709.05 580.28 664.32 693.14 804.70 691.23
00067753 00000056 532.81 207.96 496.46 651.85 630.24 461.91 839.33 455.86 708.87 582.07 666.80 697.44 806.96 692.54
00067754 00000057 528.66 198.50 502.69 664.97 627.93 469.02 843.50 458.59 712.33 589.22 674.22 708.09 816.05 699.26
00067755 00000058 528.76 194.43 501.90 676.18 629.93 471.13 849.68 459.09 720.99 594.77 679.44 715.82 826.77 705.18
00067756 00000059 527.14 220.26 499.50 652.53 634.96 475.37 858.06 453.57 740.32 594.11 689.62 721.89 851.40 702.37
00067757 00000060 522.77 231.35 499.99 638.75 636.08 478.52 861.52 453.20 751.40 595.05 696.29 722.94 862.02 700.59
00067758 00000061 519.52 237.11 498.50 635.85 633.51 480.52 861.00 453.94 754.05 597.50 697.39 728.19 864.04 704.87
00067759 00000062 515.71 241.14 491.12 645.84 634.77 487.89 856.62 458.27 755.73 598.93 700.20 741.94 859.44 714.70
00067760 00000063 509.35 264.85 491.53 633.90 630.96 496.19 850.15 464.87 754.92 603.88 699.74 748.37 858.61 719.35
00067761 00000064 502.78 250.41 495.55 650.74 624.67 504.30 845.15 472.31 750.36 614.67 697.17 754.73 858.02 725.01
00067762 00000065 493.79 230.50 504.76 671.58 619.66 506.13 837.66 469.68 748.90 619.89 690.33 753.15 859.45 722.82
00067763 00000066 490.18 233.88 502.32 673.28 615.64 509.32 835.04 472.85 745.08 622.64 685.43 756.92 855.83 726.79
00067764 00000067 488.10 234.77 501.09 676.56 613.25 511.60 833.43 474.51 743.35 624.88 683.94 759.86 853.29 729.39
00067765 00000068 487.68 249.97 500.59 666.27 612.60 515.38 834.36 477.16 743.22 629.74 684.61 763.22 854.55 731.87
00067766 00000069 488.51 248.33 498.66 668.46 613.56 516.95 835.54 479.59 744.56 631.99 685.14 765.21 853.57 734.77
00067767 00000070 490.12 245.49 497.00 670.62 616.44 517.62 837.36 481.34 747.05 631.84 686.40 764.63 853.85 735.22
00067768 00000071 490.51 248.84 494.76 663.09 619.12 514.59 838.90 479.75 749.44 629.19 689.42 761.73 853.50 733.60
00067769 00000072 491.82 252.82 495.66 655.14 621.34 509.77 840.03 477.19 750.95 624.41 689.56 758.98 852.16 732.63
00067770 00000073 492.46 243.66 493.61 660.26 625.17 505.19 841.14 474.93 754.70 619.28 691.14 753.55 851.15 729.35
00067771 00000074 495.56 244.74 492.31 655.29 628.58 499.30 845.29 471.39 757.98 609.50 692.45 747.15 854.47 724.40
00067772 00000075 500.01 265.11 485.74 636.78 634.09 496.18 851.90 471.98 761.48 602.64 694.51 744.64 856.12 721.70
00067773 00000076 504.17 269.42 486.19 629.93 639.48 492.67 856.20 466.85 766.94 595.79 699.89 741.73 861.87 717.44
00067774 00000077 508.29 258.65 485.91 630.25 644.41 487.31 861.87 461.71 772.27 591.92 706.79 736.40 866.73 712.09
00067775 00000078 514.24 252.02 482.29 626.38 647.91 484.18 868.06 457.38 777.65 589.46 710.50 734.76 874.46 709.00
00067776 00000079 517.40 240.67 482.90 635.24 653.91 478.44 874.39 453.98 784.58 587.57 713.24 729.56 877.18 705.67
00067777 00000080 521.10 236.51 481.25 639.78 659.34 476.21 879.16 454.00 790.80 587.92 715.48 727.84 880.64 705.98
00067778 00000081 526.47 228.69 483.79 641.61 658.30 472.09 885.02 455.30 796.03 590.84 712.26 722.61 882.35 707.71
00067779 00000082 526.70 234.92 481.38 645.63 666.69 471.91 885.15 450.96 797.22 588.84 725.64 730.34 878.80 709.36
00067780 00000083 533.61 226.56 484.32 649.49 667.56 469.24 890.08 453.55 803.26 589.35 726.00 725.10 883.48 710.93
00067781 00000084 537.83 226.68 484.39 643.03 669.14 468.17 893.60 452.67 805.13 586.36 725.43 721.17 887.30 707.06
00067782 00000085 540.10 217.29 483.30 644.52 670.23 463.54 898.37 448.36 805.37 581.70 724.02 716.03 891.43 701.81
00067783 00000086 540.25 216.69 482.09 639.01 671.08 458.53 899.78 445.84 804.14 573.99 722.59 709.36 893.09 696.61
00067784 00000087 541.20 226.52 481.02 625.81 673.63 456.36 901.66 445.17 806.51 570.76 721.93 703.80 895.04 692.28
00067785 00000088 542.80 224.91 479.72 623.92 675.58 455.56 903.43 445.48 807.34 569.78 722.06 701.89 896.35 691.16
00067786 00000089 543.58 221.76 480.26 627.35 676.70 455.72 905.02 446.21 808.20 570.95 722.55 701.72 897.53 691.49
00067787 00000090 543.91 210.29 481.48 640.76 678.72 455.88 907.61 447.26 809.94 572.97 725.53 704.03 898.40 694.41
00067788 00000091 544.64 207.43 482.13 647.95 679.61 457.62 909.40 449.28 810.98 576.03 725.88 707.23 898.48 697.92
00067789 00000092 545.21 205.45 482.18 654.35 681.36 459.59 909.19 451.78 811.08 579.52 726.69 710.45 896.30 701.81
00067790 00000093 540.16 208.60 488.86 659.42 686.64 457.82 906.70 457.54 808.76 582.03 725.52 706.45 886.50 705.28
00067791 00000094 540.00 207.44 488.31 662.86 686.68 458.13 906.23 457.18 809.69 582.27 726.90 708.12 886.07 706.58
00067792 00000095 539.47 214.36 486.96 658.65 688.86 458.54 902.69 457.36 811.00 578.27 730.79 710.31 880.58 709.12
00067793 00000096 540.21 213.32 485.69 658.39 690.40 457.65 902.44 456.56 811.83 575.52 732.19 709.73 878.65 708.91
00067794 00000097 541.94 210.83 484.87 654.99 690.32 455.70 904.39 453.57 812.41 573.67 733.52 706.27 883.76 703.88
00067795 00000098 544.25 220.47 484.77 639.57 689.44 453.25 908.03 449.91 812.51 571.92 734.19 703.28 892.11 699.25
00067796 00000099 547.67 220.10 481.52 635.12 685.56 453.79 909.93 443.35 815.80 569.18 734.68 705.43 900.20 694.03
00067797 00000100 547.13 230.22 483.31 623.66 684.26 453.81 909.09 442.66 814.04 566.65 732.75 702.97 900.88 690.72
00067798 00000101 548.41 238.05 483.83 618.85 685.87 450.17 909.66 445.60 807.74 565.41 728.00 698.29 893.45 693.08
00067799 00000102 546.83 240.68 482.93 621.06 685.48 450.02 906.08 446.84 805.92 564.92 726.05 698.14 887.62 694.52
00067800 00000103 546.47 241.12 482.72 621.41 683.90 450.35 904.68 446.61 804.42 565.40 724.48 698.97 886.35 694.85
00067801 00000104 546.76 244.23 482.44 614.92 681.70 450.74 903.47 446.99 801.24 565.17 722.72 698.12 885.32 693.84
00067802 00000105 544.30 237.27 484.32 618.07 672.57 452.86 897.73 441.97 797.84 562.87 720.12 701.93 887.48 690.23
00067803 00000106 541.97 232.62 484.42 615.42 663.94 453.40 891.28 441.80 787.37 559.53 711.31 698.05 883.23 685.70
00067804 00000107 540.07 238.18 482.57 604.94 654.26 450.61 881.97 439.87 773.24 557.60 698.92 693.22 871.75 682.00
00067805 00000108 537.77 237.43 481.52 606.62 645.95 449.70 874.80 440.07 759.09 560.13 687.21 693.46 859.63 683.68
00067806 00000109 536.69 232.97 480.65 615.79 641.71 453.65 863.04 443.57 746.56 564.53 679.82 694.90 845.63 685.00
00067807 00000110 535.09 223.22 482.87 626.77 634.45 455.09 858.67 446.43 733.68 572.28 670.86 697.50 837.31 688.93
00067808 00000111 535.56 220.17 483.14 633.08 632.01 455.53 856.06 448.77 728.93 574.58 665.90 698.50 831.82 691.79
00067809 00000112 533.64 209.02 486.26 643.67 629.16 457.31 852.10 451.09 722.65 575.97 661.77 697.67 827.51 691.37
00067810 00000113 531.04 210.41 488.12 643.64 624.86 457.16 847.73 451.52 716.09 576.21 655.31 697.40 821.76 691.74
00067811 00000114 529.21 206.88 488.11 645.37 622.25 453.87 843.93 448.94 712.73 574.39 651.28 695.27 816.73 690.04
00067812 00000115 527.85 208.95 485.35 640.43 619.75 450.94 839.66 444.78 709.27 570.37 648.58 693.58 811.20 687.47
00067813 00000116 528.52 212.56 481.07 633.78 617.08 448.65 836.83 441.85 706.67 565.34 645.23 692.86 809.55 686.47
00067814 00000117 526.84 205.31 482.79 639.18 615.37 448.07 835.17 440.98 705.14 564.50 644.27 692.15 807.42 685.64
00067815 00000118 526.48 207.48 482.68 636.07 615.00 448.24 835.03 440.98 705.03 564.44 643.89 692.26 807.20 685.65
00067816 00000119 526.76 212.43 482.73 631.85 616.24 449.95 836.03 442.76 706.26 564.48 644.78 692.42 808.55 685.76
00067817 00000120 528.36 218.51 482.75 627.89 619.31 450.97 838.72 443.88 709.31 567.05 648.57 693.06 811.75 686.31
00067818 00000121 529.72 221.70 483.89 628.53 624.77 450.96 843.90 445.13 715.10 567.11 653.76 692.03 815.98 686.21
00067819 00000122 532.75 223.75 484.04 629.65 631.59 451.38 849.91 446.83 723.00 568.05 659.04 692.34 820.51 687.89
00067820 00000123 535.66 219.96 485.07 634.90 636.45 452.18 855.57 446.99 729.11 570.69 665.98 694.25 827.73 689.08
00067821 00000124 538.59 215.89 487.51 640.66 643.98 454.01 861.53 447.49 739.43 572.19 677.74 697.87 835.04 691.32
CROP_BBOX: 275 0 1345 1080
