Video ID: 	9N21mdf5kdw
H: 	1080
W: 	1920
FPS: 	25.0

FRAME INDEX X0 Y0 W H [Landmarks (5 Points)]

00001116 00000000 777.43 115.88 352.55 497.92 903.96 331.59 1070.10 318.64 1028.50 379.74 959.28 500.76 1087.64 491.01
00001117 DELETE   778.62 120.54 354.46 493.54 906.50 332.11 1071.78 322.03 1032.75 379.05 962.98 500.48 1091.43 492.31
00001118 00000002 781.55 126.71 350.53 491.16 909.97 338.88 1066.76 324.85 1036.71 382.71 968.95 503.25 1093.19 492.35
00001119 00000003 785.54 127.92 356.71 490.35 919.25 342.97 1076.98 329.63 1047.08 386.09 977.11 506.71 1100.84 496.05
00001120 00000004 789.00 133.89 353.95 487.13 937.04 345.55 1087.78 332.81 1067.21 390.07 986.84 507.03 1107.97 497.02
00001121 00000005 790.34 126.41 355.11 496.27 949.51 341.74 1089.77 336.69 1074.17 390.20 996.14 504.64 1107.47 500.47
00001122 00000006 794.88 120.93 350.86 508.36 957.78 338.30 1101.63 324.60 1095.18 393.61 1007.24 510.48 1123.33 499.79
00001123 00000007 798.59 130.85 351.86 499.63 964.27 344.32 1107.64 329.42 1103.55 394.69 1010.09 511.16 1128.64 499.71
00001124 00000008 800.56 127.73 350.02 504.74 967.20 344.15 1111.95 327.92 1109.69 395.87 1012.42 512.05 1133.16 499.46
00001125 00000009 800.79 129.65 348.80 506.30 960.36 345.34 1105.38 321.36 1107.36 395.64 1013.63 516.04 1133.84 497.20
00001126 00000010 795.50 132.54 355.15 505.49 960.06 349.28 1101.79 330.61 1103.02 401.27 1010.28 517.65 1127.82 502.41
00001127 00000011 792.96 127.15 354.93 509.19 941.79 361.37 1090.14 335.40 1082.93 406.10 1000.20 525.31 1122.69 503.01
00001128 00000012 782.67 136.28 362.75 501.01 933.06 363.07 1090.85 346.03 1067.67 410.72 985.76 527.13 1111.08 512.10
00001129 00000013 777.59 130.46 363.25 509.04 920.42 363.64 1083.71 354.16 1048.79 406.82 969.55 528.65 1100.05 521.07
00001130 DELETE   769.95 119.84 370.48 521.95 906.13 353.65 1085.67 347.32 1031.62 406.75 951.55 529.61 1089.59 524.83
00001131 00000015 762.56 116.59 376.73 521.00 887.83 351.73 1072.88 336.93 1013.65 406.35 939.62 531.29 1082.54 519.80
00001132 00000016 751.43 116.62 380.31 520.31 881.20 348.35 1061.27 329.77 1008.87 408.54 921.71 527.91 1070.59 512.65
00001133 00000017 749.38 121.43 383.93 511.16 876.18 348.08 1058.21 329.78 1001.62 409.61 915.32 526.07 1065.42 510.87
00001134 00000018 748.78 118.01 387.13 517.23 876.91 347.10 1060.20 328.23 1003.36 408.44 916.13 526.98 1066.79 511.25
00001135 00000019 748.79 115.60 387.18 520.43 880.32 345.48 1062.40 325.74 1010.02 407.40 921.63 527.31 1070.53 510.89
00001136 DELETE   759.41 122.22 377.26 519.38 887.92 348.56 1077.10 336.82 1015.58 406.95 936.79 529.33 1082.19 520.48
00001137 00000021 764.84 125.91 369.41 518.05 902.63 350.03 1082.61 344.69 1029.43 409.64 944.61 527.61 1082.99 523.92
00001138 00000022 768.03 130.06 365.76 515.42 905.39 355.11 1084.00 346.09 1034.42 410.61 949.28 528.91 1089.19 522.32
00001139 00000023 767.47 132.82 362.58 510.55 904.88 355.96 1080.78 343.65 1037.76 410.05 953.91 528.47 1093.49 519.18
00001140 00000024 767.06 136.05 360.72 505.76 901.69 352.31 1076.61 336.02 1033.47 408.99 955.54 528.10 1091.92 515.34
00001141 00000025 759.67 131.89 365.83 508.18 895.24 350.94 1071.46 328.90 1028.39 407.86 952.33 529.38 1088.11 511.83
00001142 00000026 755.19 127.27 368.75 514.04 888.14 349.50 1067.12 328.20 1019.33 404.39 946.43 529.99 1085.90 513.14
00001143 00000027 751.84 125.34 383.90 518.19 878.79 353.91 1066.19 330.21 1004.48 408.94 936.51 536.51 1079.45 517.45
00001144 00000028 736.94 140.80 393.40 515.77 875.71 360.36 1053.26 338.66 1007.40 409.58 924.48 539.43 1068.23 520.88
00001145 00000029 736.74 137.47 385.97 525.63 868.36 361.24 1041.60 338.43 992.18 407.31 914.98 541.69 1057.98 522.70
00001146 00000030 733.80 140.97 385.27 525.36 863.03 363.25 1034.26 340.79 986.51 408.32 910.41 543.66 1053.20 525.24
00001147 DELETE   732.60 131.04 392.85 530.99 865.42 360.76 1038.99 337.04 989.56 406.08 912.41 541.65 1056.85 522.12
00001148 00000032 735.34 134.36 398.20 525.04 870.77 355.39 1051.36 337.31 998.30 402.35 916.66 538.29 1063.69 522.63
00001149 00000033 743.15 125.44 392.83 528.71 875.86 351.25 1056.73 328.25 1008.04 404.45 925.68 538.59 1072.63 518.98
00001150 00000034 750.39 128.22 391.33 523.39 877.32 341.72 1067.98 323.44 1007.35 402.97 937.52 534.91 1082.69 520.66
00001151 DELETE   755.74 129.46 384.36 526.40 880.93 348.55 1074.65 333.21 1013.37 408.51 939.07 541.61 1085.82 529.96
00001152 00000036 756.49 127.31 382.28 533.94 890.30 353.19 1078.90 345.20 1017.04 416.74 937.10 543.73 1078.41 537.81
00001153 00000037 756.51 128.81 387.26 536.36 893.26 360.33 1080.17 353.91 1017.15 429.26 935.05 550.92 1073.01 546.78
00001154 DELETE   754.27 131.17 390.41 541.08 893.41 366.86 1075.61 357.32 1016.38 437.26 932.71 556.43 1068.64 550.21
00001155 00000039 748.39 137.46 391.63 537.81 893.26 366.95 1076.65 357.41 1018.28 440.95 928.50 555.43 1066.53 549.05
00001156 00000040 745.96 132.89 391.96 542.29 891.31 359.09 1074.49 352.94 1015.75 437.26 923.70 552.88 1061.45 549.57
00001157 00000041 739.23 129.83 387.76 545.61 888.87 357.15 1070.27 355.56 1020.40 429.57 917.95 550.43 1059.72 549.50
00001158 00000042 731.72 123.73 387.53 547.73 884.16 356.87 1063.94 355.93 1014.06 423.51 912.64 546.78 1054.11 546.26
00001159 00000043 728.53 118.38 388.69 545.34 881.24 352.84 1059.46 352.07 1009.30 420.92 910.68 542.99 1048.14 542.75
00001160 00000044 724.81 121.77 388.95 541.09 881.38 350.90 1056.70 353.43 1009.51 419.31 910.12 540.72 1045.01 543.35
00001161 00000045 723.19 117.37 387.02 548.39 880.79 351.40 1056.42 354.77 1009.31 420.23 908.96 542.16 1044.09 545.48
00001162 00000046 722.82 114.69 386.92 553.58 881.69 354.88 1054.64 356.37 1008.81 424.84 910.33 546.37 1044.02 548.17
00001163 00000047 717.87 118.52 383.16 553.69 883.54 358.29 1059.49 364.00 1015.98 431.26 913.92 549.78 1048.47 554.08
00001164 DELETE   719.17 124.63 381.51 550.21 888.28 361.80 1065.31 369.97 1022.35 440.91 917.41 556.40 1050.71 562.87
00001165 00000049 714.43 125.50 384.03 554.97 891.01 369.00 1058.18 369.34 1024.32 448.63 926.72 563.97 1050.54 563.77
00001166 00000050 714.36 123.85 393.56 556.15 896.04 371.54 1059.98 361.32 1030.79 449.56 940.37 572.69 1055.64 565.99
00001167 00000051 713.47 117.57 385.59 560.85 899.79 381.18 1054.51 367.75 1032.99 452.93 940.93 573.22 1051.92 564.46
00001168 00000052 712.38 115.28 378.68 560.02 903.15 386.48 1051.70 377.83 1036.06 454.40 941.83 573.88 1054.42 568.92
00001169 00000053 715.36 124.66 371.50 559.71 908.31 394.33 1047.99 388.34 1037.97 461.84 941.63 573.79 1049.01 571.53
00001170 00000054 721.41 128.37 370.51 569.77 908.75 393.08 1051.63 392.84 1032.56 464.08 936.80 574.35 1046.75 576.82
00001171 00000055 716.22 144.57 369.82 566.96 917.02 388.12 1052.32 397.03 1048.83 461.53 940.44 571.50 1047.25 579.71
00001172 00000056 715.72 143.88 366.49 572.73 917.84 382.01 1050.85 388.44 1054.46 458.52 944.28 570.86 1050.34 576.77
00001173 00000057 712.51 149.14 366.67 564.98 915.03 378.50 1050.72 384.27 1051.25 457.90 944.03 571.59 1047.49 576.40
00001174 00000058 709.80 138.17 366.12 578.16 915.74 375.55 1044.05 380.94 1052.32 454.06 944.76 568.71 1044.56 573.57
00001175 00000059 704.46 150.11 366.37 566.06 913.09 379.75 1038.46 389.08 1044.96 453.86 938.47 564.55 1038.58 572.46
00001176 00000060 700.87 151.72 365.31 563.37 912.46 378.22 1035.30 389.37 1044.16 451.74 938.27 563.18 1035.99 572.54
00001177 00000061 696.14 152.54 369.21 565.14 913.02 381.85 1033.51 394.16 1043.03 452.61 937.33 564.20 1034.95 574.66
00001178 00000062 696.71 148.83 368.53 574.52 914.04 382.53 1034.54 393.94 1048.39 454.22 939.40 568.71 1038.33 578.61
00001179 00000063 700.07 146.91 369.72 581.27 916.97 381.52 1039.12 394.87 1053.67 456.86 941.57 572.48 1043.15 584.01
00001180 00000064 704.31 143.20 366.77 600.29 916.14 381.19 1036.58 393.87 1054.93 460.02 937.87 578.13 1044.28 589.00
00001181 00000065 708.76 143.99 363.39 608.87 915.95 383.63 1036.73 392.34 1056.54 463.68 934.52 583.34 1041.50 591.35
00001182 00000066 710.94 149.62 366.43 602.04 917.62 386.87 1039.50 392.45 1059.47 463.54 931.87 581.89 1043.00 587.72
00001183 00000067 716.79 143.31 371.66 592.50 922.17 391.59 1055.42 396.41 1065.76 464.71 938.24 577.85 1059.28 583.04
00001184 00000068 722.34 147.98 367.67 573.56 921.62 388.13 1058.40 388.38 1069.87 463.37 944.00 574.85 1063.17 576.47
00001185 00000069 729.12 130.30 370.59 584.23 920.27 379.79 1064.94 380.24 1070.73 453.20 943.17 570.16 1071.10 572.04
00001186 00000070 731.19 143.48 378.27 565.78 914.92 381.65 1061.13 367.33 1062.27 448.68 945.26 569.49 1073.73 558.81
00001187 00000071 728.68 147.86 377.01 554.23 907.53 374.23 1045.05 342.07 1062.13 439.57 948.67 568.75 1072.07 544.39
00001188 00000072 727.13 147.08 379.92 551.59 896.67 380.49 1035.28 332.00 1053.91 434.66 946.67 568.57 1072.19 530.38
00001189 00000073 720.75 157.02 380.06 539.42 890.96 371.56 1016.82 320.39 1039.48 431.04 947.16 561.09 1060.32 520.20
00001190 00000074 707.97 165.90 395.01 529.48 867.26 373.56 1002.41 319.91 1021.58 425.88 941.84 563.71 1062.31 518.95
00001191 00000075 692.73 175.83 412.41 517.64 843.36 381.92 989.51 321.86 989.44 426.15 932.59 570.14 1059.20 518.91
00001192 00000076 666.76 188.88 440.62 507.11 819.38 388.20 980.75 329.42 979.21 418.08 919.99 570.00 1059.93 519.18
00001193 DELETE   649.89 185.36 448.61 508.73 803.21 390.04 971.30 325.27 963.48 413.95 907.79 572.60 1049.54 517.18
00001194 00000078 639.28 198.71 454.95 502.18 785.23 394.25 962.14 324.20 944.43 418.21 895.33 577.45 1041.26 516.30
00001195 00000079 640.19 201.76 444.83 504.53 774.48 400.30 951.47 326.36 933.89 418.03 886.03 582.56 1036.26 518.10
00001196 00000080 634.58 212.44 451.96 499.14 768.34 409.81 942.10 332.90 921.47 425.76 880.02 586.11 1028.50 519.56
00001197 00000081 631.86 201.66 454.61 517.60 764.86 413.84 937.73 334.64 915.05 430.01 875.66 591.35 1025.01 522.75
00001198 00000082 636.21 201.28 450.99 518.40 762.81 410.18 939.14 333.33 909.53 434.71 872.71 592.59 1025.55 525.81
00001199 00000083 633.70 194.00 449.03 527.67 760.53 412.03 936.45 332.87 907.38 435.13 869.51 593.17 1022.92 524.23
00001200 00000084 633.38 193.38 449.75 527.76 759.60 412.82 937.07 332.98 906.85 435.60 868.52 594.22 1023.02 524.82
00001201 00000085 637.48 185.94 445.86 535.51 763.26 413.98 940.20 332.59 908.60 436.93 869.04 595.90 1023.71 525.35
00001202 00000086 643.00 193.15 440.87 526.75 767.79 416.94 941.04 334.61 913.70 437.21 876.66 596.53 1026.01 525.06
00001203 00000087 651.42 194.90 439.05 531.30 772.34 422.10 950.95 342.05 915.35 446.28 877.83 604.73 1031.81 535.40
00001204 00000088 655.17 188.68 436.14 540.22 781.45 422.39 959.58 341.70 927.27 449.38 884.77 606.18 1037.85 536.86
00001205 00000089 658.06 194.64 434.25 530.35 790.52 422.71 967.60 347.85 938.34 449.53 888.97 602.95 1039.89 538.83
00001206 00000090 665.65 192.12 427.10 529.36 796.05 413.04 975.15 345.74 943.12 445.03 892.31 597.34 1043.27 539.49
00001207 00000091 676.07 173.40 419.21 540.94 810.34 400.66 985.25 344.06 952.02 439.59 893.23 584.02 1041.40 535.71
00001208 00000092 682.87 188.85 418.56 519.03 821.46 395.80 993.88 344.31 965.27 435.26 900.72 577.29 1050.74 533.50
00001209 00000093 689.74 187.91 419.52 517.26 829.22 387.48 999.68 341.26 972.65 435.48 903.24 571.17 1052.27 532.25
00001210 00000094 699.43 180.70 412.71 528.15 834.36 387.34 1003.73 336.30 983.31 432.46 905.08 574.38 1055.37 531.76
00001211 00000095 696.12 190.67 418.05 519.47 829.99 390.72 1002.62 342.40 976.80 438.56 902.54 576.94 1055.67 536.26
00001212 00000096 685.00 194.61 424.63 523.71 824.41 400.44 1000.98 357.41 966.14 449.92 898.72 585.94 1051.66 548.51
00001213 00000097 674.17 193.91 428.07 536.37 811.37 402.12 988.83 356.34 949.04 453.74 885.82 592.73 1039.61 553.54
00001214 00000098 668.23 178.44 420.84 547.40 801.47 399.77 982.23 355.97 937.87 447.22 875.15 588.01 1030.71 550.54
00001215 00000099 668.22 162.26 416.03 554.86 797.43 399.24 979.96 353.60 934.40 443.74 867.99 585.37 1024.66 546.99
00001216 00000100 667.17 171.10 420.16 536.92 801.53 398.16 985.48 354.44 940.34 441.47 870.94 583.54 1025.44 546.69
00001217 00000101 665.81 183.15 417.34 521.14 806.86 392.99 987.26 354.16 947.09 441.07 880.25 578.70 1030.30 545.73
00001218 00000102 669.53 189.56 415.13 514.81 813.94 399.72 992.24 360.82 956.80 448.91 891.37 585.41 1036.81 552.28
00001219 00000103 678.90 183.90 414.27 542.90 820.18 408.79 1000.24 368.49 962.96 466.59 898.07 601.53 1044.16 566.94
00001220 00000104 687.41 205.27 419.40 542.00 830.14 426.38 1019.13 388.27 978.56 487.33 899.73 621.65 1055.26 589.32
00001221 00000105 696.72 210.06 413.97 550.49 844.23 436.10 1021.24 394.73 995.38 503.82 912.41 639.49 1055.14 603.03
00001222 00000106 704.51 210.94 414.04 559.42 853.55 447.35 1032.26 406.36 1002.34 512.32 916.89 649.55 1062.64 613.90
00001223 00000107 711.42 194.15 412.54 581.11 859.40 452.04 1034.58 406.32 1009.20 514.93 927.23 654.56 1072.12 614.77
00001224 00000108 713.39 196.12 413.87 579.59 858.49 452.31 1032.44 400.76 1011.36 512.33 928.22 654.90 1074.51 610.94
00001225 00000109 706.44 207.16 415.45 568.70 854.37 449.13 1025.19 396.03 1009.26 503.31 928.60 650.83 1070.91 605.40
00001226 00000110 697.19 210.50 422.10 564.80 843.55 446.82 1018.34 391.98 999.38 497.99 921.69 649.89 1066.55 602.51
00001227 00000111 683.63 204.48 428.65 569.15 831.70 436.31 1011.81 386.27 986.95 490.73 914.31 643.53 1061.07 599.45
00001228 00000112 680.58 210.24 421.41 556.58 825.22 433.56 1004.48 383.47 978.96 479.56 912.63 638.20 1059.56 593.85
00001229 00000113 668.94 195.34 423.02 567.22 810.25 435.70 993.66 382.83 962.23 477.24 894.83 631.47 1051.74 587.47
00001230 00000114 668.94 192.06 423.86 566.08 806.54 431.68 993.80 379.27 954.63 471.73 889.07 627.63 1048.33 584.43
00001231 00000115 668.54 186.70 427.24 567.71 806.68 424.05 997.48 377.29 954.42 467.88 888.82 624.64 1047.81 586.06
00001232 DELETE   672.81 184.68 426.52 565.44 810.60 421.60 1005.12 381.18 958.11 464.66 888.97 622.45 1050.15 588.59
00001233 00000117 677.48 187.52 431.91 558.61 821.08 416.89 1016.21 386.55 966.46 463.23 891.37 618.35 1051.84 592.26
00001234 00000118 682.88 180.53 431.87 565.17 828.70 414.51 1023.31 386.19 975.20 463.36 897.44 619.29 1056.44 594.94
00001235 DELETE   687.59 174.94 435.09 571.22 835.66 412.14 1037.48 392.85 982.90 462.22 898.34 618.99 1061.76 601.67
00001236 00000120 693.62 160.93 439.58 592.14 845.86 414.28 1056.86 398.02 992.97 472.46 899.34 626.74 1066.89 612.71
00001237 00000121 700.28 167.38 435.70 594.45 857.75 417.91 1058.42 404.02 1000.95 482.49 907.57 630.55 1065.13 619.21
00001238 00000122 700.64 170.85 432.15 598.21 865.15 422.25 1055.65 412.20 1015.02 491.88 915.53 634.94 1066.44 624.14
00001239 00000123 713.93 162.14 426.55 614.49 876.51 412.83 1071.28 409.68 1013.86 485.08 924.20 632.11 1071.35 630.89
00001240 00000124 716.13 157.41 424.04 620.02 883.95 406.22 1068.35 400.65 1024.03 478.46 938.15 630.00 1078.36 627.03
00001241 00000125 715.42 159.05 428.73 612.96 881.66 399.88 1061.61 387.78 1025.60 472.00 944.49 627.95 1079.26 619.44
00001242 00000126 707.57 149.54 433.48 608.37 882.41 393.52 1066.12 379.31 1036.84 467.98 941.45 620.35 1082.73 608.43
00001243 00000127 705.02 146.81 428.60 609.16 883.34 394.58 1064.91 385.19 1036.75 471.55 938.95 619.39 1078.53 611.56
00001244 00000128 701.82 150.59 412.88 614.07 893.06 403.14 1072.97 408.11 1049.01 483.74 935.78 621.37 1077.91 624.95
00001245 00000129 701.59 151.27 414.19 620.79 895.71 416.42 1078.24 422.03 1048.36 496.99 936.41 633.36 1078.15 637.22
00001246 00000130 703.19 162.86 413.86 618.29 886.94 435.32 1066.14 425.29 1035.55 512.09 942.52 652.76 1073.29 645.47
00001247 00000131 708.06 170.25 406.22 621.55 882.53 450.92 1052.88 417.96 1037.16 523.65 948.38 666.56 1080.36 640.76
00001248 DELETE   706.58 172.36 413.95 623.77 877.13 462.26 1049.08 415.95 1035.08 524.80 949.77 671.53 1085.37 635.64
00001249 00000133 683.80 184.80 429.13 601.85 881.04 460.20 1044.34 414.83 1040.59 525.88 953.31 670.10 1080.47 630.59
CROP_BBOX: 315 0 1379 1026
