Video ID: 	usBo8-jWj5M
H: 	1080
W: 	1920
FPS: 	23.976023976023978

FRAME INDEX X0 Y0 W H [Landmarks (5 Points)]

00003102 00000000 821.45 278.20 441.63 567.02 945.31 491.25 1140.07 457.86 1063.41 588.90 1009.77 711.41 1157.66 680.82
00003103 00000001 823.86 275.46 440.45 575.39 948.11 490.00 1140.72 456.66 1066.67 587.41 1014.32 713.14 1159.52 682.27
00003104 00000002 823.19 278.68 439.66 583.32 946.08 488.52 1138.64 457.31 1062.88 587.01 1011.15 717.31 1152.61 688.40
00003105 00000003 822.87 283.30 434.42 578.24 937.02 488.60 1130.90 459.33 1049.62 589.86 997.60 719.12 1140.28 692.71
00003106 00000004 820.45 272.57 434.00 573.49 928.18 489.88 1126.92 464.35 1038.74 597.57 988.00 718.27 1134.53 694.94
00003107 DELETE   814.39 271.45 443.49 568.66 922.27 485.27 1128.73 458.61 1034.57 598.87 983.02 709.16 1139.95 686.63
00003108 00000006 818.14 263.85 440.06 575.83 928.49 483.33 1132.99 455.87 1042.99 593.27 990.42 708.56 1146.36 685.18
00003109 DELETE   823.65 270.61 433.36 584.23 938.12 486.09 1133.22 457.64 1050.85 584.19 995.39 714.40 1144.74 688.63
00003110 00000008 822.90 271.86 431.26 575.36 932.11 486.41 1128.78 459.46 1040.68 587.54 988.99 713.33 1138.64 689.01
00003111 DELETE   811.76 270.72 438.61 570.18 913.83 476.77 1119.08 458.07 1016.57 591.40 966.41 699.98 1125.08 684.16
00003112 00000010 805.52 261.13 441.67 577.05 906.38 476.04 1108.49 460.25 1007.66 592.99 956.52 697.44 1111.48 684.60
00003113 00000011 804.33 264.20 438.31 576.22 904.62 478.53 1107.97 461.43 1008.74 595.28 954.32 698.67 1112.64 684.76
00003114 00000012 802.50 263.42 438.36 584.26 905.23 480.62 1105.88 463.39 1010.05 596.83 958.70 704.48 1109.21 690.91
00003115 00000013 803.91 284.88 437.08 569.74 904.73 495.54 1099.91 470.57 1010.25 601.07 955.84 715.69 1107.04 691.51
00003116 00000014 797.13 282.23 435.38 572.01 893.87 497.22 1090.33 472.42 996.40 605.29 945.12 717.91 1099.69 693.90
00003117 00000015 791.97 271.51 437.64 587.44 888.57 495.95 1084.34 473.74 989.02 606.73 938.40 718.38 1092.39 696.53
00003118 00000016 789.17 271.91 438.11 590.59 887.40 496.65 1082.86 472.68 989.48 608.17 940.34 722.03 1092.46 698.81
00003119 00000017 785.48 269.62 438.47 596.70 885.33 496.76 1080.55 472.80 988.40 608.37 940.19 724.05 1090.15 700.91
00003120 00000018 781.85 269.82 440.89 594.78 881.45 498.03 1077.01 475.11 984.60 608.33 935.97 724.38 1085.35 702.17
00003121 00000019 778.22 273.28 440.63 593.53 877.68 498.21 1072.42 475.71 980.64 607.97 932.44 725.95 1079.45 704.28
00003122 00000020 776.18 271.65 438.44 592.51 874.92 498.32 1068.57 475.33 977.61 608.80 930.46 727.12 1075.52 705.75
00003123 00000021 774.20 277.51 438.86 593.95 874.52 497.41 1067.44 473.65 977.64 607.47 930.44 727.90 1076.66 705.68
00003124 00000022 772.49 276.27 439.24 596.14 872.73 496.48 1065.02 472.72 976.35 606.94 929.30 726.80 1075.87 704.52
00003125 00000023 770.31 278.84 439.33 591.83 870.71 496.52 1062.99 473.10 974.32 607.41 927.72 726.48 1073.37 704.38
00003126 00000024 769.89 280.24 437.36 588.90 869.48 496.70 1061.70 472.49 973.64 607.08 926.39 725.51 1073.35 702.88
00003127 00000025 769.92 279.62 437.01 585.99 868.53 497.25 1059.83 472.79 971.87 606.98 925.25 724.53 1071.28 701.84
00003128 00000026 768.33 277.23 437.26 585.48 866.23 497.06 1058.17 472.68 969.78 607.79 922.03 724.48 1067.73 702.24
00003129 00000027 767.71 277.55 436.63 586.28 865.00 497.31 1056.97 473.05 967.89 607.73 919.71 723.97 1066.98 701.98
00003130 00000028 765.75 278.86 436.35 583.09 863.43 497.19 1056.11 473.46 966.90 608.44 918.56 723.34 1065.51 701.64
00003131 00000029 764.56 279.17 435.14 582.08 862.30 496.46 1055.59 473.74 965.69 609.02 916.69 723.06 1064.79 702.34
00003132 00000030 763.91 275.45 435.05 582.29 860.44 496.11 1054.42 473.40 963.89 608.74 914.57 722.07 1062.69 701.57
00003133 00000031 762.97 278.69 433.48 578.57 859.75 494.81 1054.72 473.55 963.04 608.45 912.67 721.91 1060.84 702.49
00003134 00000032 760.31 276.06 434.11 576.96 856.98 494.42 1052.09 472.43 960.23 609.96 911.49 721.91 1058.68 701.98
00003135 00000033 757.05 271.80 436.37 580.13 852.79 492.53 1050.44 470.96 955.76 608.44 907.64 721.22 1055.37 701.85
00003136 00000034 754.10 268.33 436.82 581.18 849.05 492.09 1048.09 471.86 951.04 608.62 903.75 721.19 1052.73 702.94
00003137 00000035 742.67 263.90 446.89 584.36 841.03 485.63 1044.08 465.69 942.68 611.22 898.30 713.60 1052.98 697.15
00003138 00000036 740.34 262.80 445.18 582.72 837.27 483.98 1042.43 465.58 938.62 609.73 892.80 713.67 1048.35 698.43
00003139 00000037 737.01 267.52 444.81 577.05 832.82 484.37 1038.87 463.62 935.49 607.86 888.82 713.30 1045.66 696.05
00003140 00000038 734.69 265.78 443.42 577.12 828.77 484.60 1036.90 464.63 931.96 607.13 884.24 713.95 1042.02 697.47
00003141 00000039 732.70 271.38 441.63 573.24 823.54 485.54 1032.47 465.11 926.92 607.24 878.52 714.29 1039.56 697.12
00003142 00000040 730.67 264.54 441.08 579.88 819.38 485.54 1028.60 464.91 922.01 607.21 874.41 714.49 1035.55 697.19
00003143 00000041 728.16 269.25 442.27 575.13 816.98 484.68 1026.93 465.23 918.78 608.01 871.15 714.49 1032.06 698.07
00003144 00000042 730.36 269.63 436.46 576.70 819.17 496.02 1023.92 472.31 919.83 609.12 870.60 723.06 1030.01 700.13
00003145 00000043 727.57 269.42 443.42 574.47 815.63 481.16 1026.33 464.07 915.69 606.19 868.94 712.59 1029.03 698.06
00003146 00000044 729.35 285.15 440.96 557.12 818.88 484.02 1025.64 468.07 915.45 604.93 870.99 710.55 1026.97 696.92
00003147 DELETE   735.41 285.16 437.22 553.35 823.20 483.21 1026.17 469.03 914.47 600.54 869.29 705.20 1024.24 693.07
00003148 DELETE   735.58 271.35 436.81 572.62 824.19 477.21 1025.19 462.06 915.47 591.10 872.60 703.78 1025.24 691.12
00003149 00000047 737.35 265.74 437.30 583.77 827.66 471.56 1025.50 457.71 916.31 585.54 874.08 700.69 1025.25 689.19
00003150 00000048 741.13 261.80 436.33 584.63 829.93 466.48 1028.01 453.75 916.22 581.33 873.40 695.70 1025.42 684.89
00003151 00000049 743.45 262.79 436.88 582.16 830.64 464.82 1029.32 450.74 916.29 579.46 873.50 694.28 1026.72 682.38
00003152 00000050 746.06 262.31 435.77 580.69 831.79 464.52 1031.47 450.40 916.35 579.16 873.25 692.23 1030.03 680.13
00003153 00000051 747.90 260.59 434.15 580.38 833.63 464.37 1032.39 450.99 916.77 577.69 873.16 691.17 1029.21 679.71
00003154 00000052 748.79 255.67 433.06 585.31 835.36 463.89 1033.62 451.56 918.52 577.95 872.91 689.67 1029.81 679.08
00003155 00000053 749.61 260.56 432.99 577.52 834.70 463.56 1036.01 451.30 917.46 575.80 871.09 688.78 1031.40 678.10
00003156 00000054 749.39 260.18 432.50 574.01 834.47 463.63 1035.52 451.29 917.04 576.24 871.33 688.11 1030.13 677.43
00003157 00000055 748.45 253.82 430.64 577.49 832.16 463.24 1034.92 450.94 915.81 577.68 868.80 688.64 1028.14 678.10
00003158 00000056 743.95 257.64 434.79 572.26 828.25 461.53 1031.95 451.17 913.05 576.56 865.53 687.61 1023.32 678.70
00003159 00000057 738.74 254.79 436.85 573.04 822.58 461.33 1028.76 449.61 910.40 576.14 862.48 687.92 1019.78 677.91
00003160 00000058 732.04 254.07 438.37 570.80 818.32 460.76 1024.25 448.51 908.51 573.15 860.17 686.44 1014.61 676.29
00003161 00000059 729.88 243.12 429.72 579.17 822.41 462.64 1019.95 447.77 907.79 572.31 860.50 684.84 1014.59 670.41
00003162 00000060 727.90 242.04 430.47 580.58 820.46 462.47 1018.46 447.47 906.19 571.80 858.92 684.63 1014.22 670.17
00003163 00000061 726.61 243.18 429.74 579.04 818.91 462.28 1014.95 445.86 905.11 570.70 859.38 684.56 1012.25 669.10
00003164 00000062 726.67 251.66 433.27 583.29 819.47 467.95 1014.31 449.89 908.09 575.13 863.95 692.85 1007.33 674.38
00003165 00000063 724.93 245.54 438.67 596.91 814.42 461.82 1014.03 447.33 905.37 574.91 859.88 694.18 1007.33 682.57
00003166 00000064 724.94 246.51 439.57 597.33 814.09 462.83 1015.65 447.15 905.74 575.54 861.00 694.79 1011.71 681.96
00003167 00000065 726.29 246.04 438.12 595.76 815.73 462.69 1018.79 446.46 910.10 575.34 862.73 694.25 1015.45 680.90
00003168 00000066 729.75 251.42 435.50 583.31 818.51 462.54 1024.28 447.11 914.24 573.88 865.55 692.89 1020.37 679.85
00003169 00000067 732.80 255.00 438.00 573.43 822.37 462.55 1029.60 448.56 917.67 573.10 868.31 688.98 1025.20 676.93
00003170 00000068 735.24 253.11 439.12 571.28 826.96 461.14 1031.79 449.46 920.92 572.09 867.82 682.79 1024.07 673.05
00003171 00000069 736.79 253.07 439.83 566.33 831.34 460.54 1036.10 450.28 924.65 571.07 870.56 679.43 1026.06 670.99
00003172 00000070 739.02 256.72 439.97 568.95 838.62 458.33 1040.78 450.30 931.53 570.96 878.62 681.53 1028.35 675.04
00003173 00000071 742.70 249.44 436.79 578.82 843.85 455.15 1044.21 446.86 938.51 570.34 883.54 681.35 1031.77 674.50
00003174 00000072 743.97 252.57 436.44 580.32 847.51 452.04 1048.56 444.84 943.06 568.31 887.33 682.81 1032.13 677.00
00003175 00000073 746.09 250.34 435.15 582.39 850.63 449.48 1049.61 441.92 946.17 567.71 891.05 682.98 1034.08 676.74
00003176 00000074 746.62 249.50 432.97 582.73 852.17 448.28 1052.00 439.71 948.85 565.65 894.11 684.51 1034.20 677.44
00003177 00000075 748.30 248.63 429.88 585.08 854.00 445.96 1051.75 437.71 949.74 565.77 894.73 685.66 1033.34 678.74
00003178 00000076 749.04 249.38 432.50 580.75 853.36 448.36 1052.05 437.09 951.05 564.53 897.71 682.72 1040.20 673.15
00003179 00000077 750.54 250.13 436.84 575.19 850.68 451.52 1051.96 436.96 949.02 563.73 896.67 679.37 1049.22 666.65
00003180 00000078 750.30 260.25 438.71 562.27 851.92 459.07 1049.79 442.00 948.34 565.23 897.52 675.62 1055.19 660.63
00003181 00000079 755.24 257.25 434.85 564.59 853.31 461.97 1050.73 443.97 948.79 564.64 897.38 675.48 1057.94 659.74
00003182 00000080 760.41 255.14 431.99 565.18 855.21 462.03 1050.96 443.20 949.05 563.81 898.47 675.38 1057.92 658.92
00003183 00000081 765.30 251.06 429.20 568.30 857.46 461.06 1052.70 440.40 951.50 560.43 902.08 674.75 1062.37 656.63
00003184 00000082 766.26 254.08 433.86 559.65 861.36 451.32 1056.97 436.77 955.98 555.62 904.64 668.99 1060.98 656.22
00003185 00000083 770.73 254.45 431.25 561.58 866.23 447.14 1061.45 434.88 960.33 553.43 905.97 667.08 1063.61 656.08
00003186 00000084 771.72 254.50 429.60 562.32 867.11 445.42 1062.36 433.16 961.13 552.91 907.75 667.85 1063.21 656.63
00003187 00000085 772.71 251.70 428.61 570.94 868.45 444.36 1062.11 432.18 961.47 555.21 908.84 670.52 1061.06 659.01
00003188 00000086 776.16 262.06 425.06 562.51 872.74 452.05 1068.22 437.15 962.93 565.84 906.25 673.27 1056.35 659.62
00003189 00000087 771.38 247.38 433.21 581.38 867.08 445.94 1063.23 432.32 958.34 560.22 906.77 675.20 1058.81 662.34
00003190 DELETE   773.83 248.56 428.10 575.82 858.44 453.99 1056.23 436.08 947.02 561.37 899.04 679.01 1057.59 663.20
00003191 DELETE   773.22 249.78 428.77 569.99 854.76 452.02 1051.19 435.52 938.08 558.20 891.09 673.89 1048.47 659.80
00003192 00000090 772.69 249.78 430.91 564.31 855.68 448.26 1048.12 433.99 935.12 550.83 891.44 666.55 1040.91 654.74
00003193 00000091 776.94 248.60 428.25 560.75 857.22 443.71 1046.87 429.44 933.48 545.52 889.62 659.00 1041.01 647.25
00003194 00000092 779.47 246.97 426.09 557.02 857.44 442.14 1047.71 427.84 932.80 541.24 889.05 655.57 1042.95 643.86
00003195 00000093 783.47 242.34 427.76 561.50 860.05 439.96 1048.38 427.19 931.85 540.38 891.06 655.17 1040.71 644.49
00003196 00000094 787.68 241.94 424.82 564.58 862.22 441.48 1047.45 426.79 929.63 542.13 895.34 659.38 1039.37 647.05
00003197 00000095 792.41 246.38 424.62 570.45 863.58 443.42 1050.90 424.58 928.47 542.27 896.72 666.03 1044.94 649.93
00003198 00000096 794.59 250.13 424.21 568.19 866.79 446.59 1056.80 425.70 935.02 546.01 900.85 667.42 1053.63 649.22
00003199 00000097 800.13 253.30 423.96 564.54 873.23 447.79 1063.87 428.83 941.72 545.21 905.31 666.13 1059.04 649.73
00003200 00000098 801.92 248.92 426.06 563.23 880.72 448.20 1074.13 433.51 951.76 544.41 908.87 662.78 1066.36 649.84
00003201 00000099 810.04 247.96 428.77 562.35 885.91 438.97 1084.38 428.11 965.90 549.03 917.57 660.08 1073.58 650.32
00003202 00000100 811.05 252.09 427.79 552.36 889.96 438.15 1087.04 428.37 969.56 547.74 921.70 658.44 1076.39 649.07
00003203 00000101 812.90 255.28 426.46 549.31 892.53 439.07 1088.26 427.74 973.64 548.61 928.16 658.45 1079.01 647.83
00003204 00000102 814.43 257.80 425.95 550.85 894.16 440.72 1090.16 428.96 976.30 550.79 931.53 662.03 1081.54 651.35
00003205 00000103 814.88 258.00 426.63 556.73 896.31 443.99 1091.46 433.15 979.53 556.10 934.25 665.79 1084.76 655.93
00003206 00000104 815.19 260.88 430.75 556.42 899.20 447.23 1094.78 436.95 983.46 560.57 936.47 670.06 1085.39 660.62
00003207 00000105 818.87 257.54 430.29 560.15 906.44 446.75 1107.18 438.86 992.98 557.14 943.35 672.16 1092.87 665.88
00003208 00000106 821.67 254.91 428.94 564.02 911.19 447.29 1110.48 440.73 997.30 558.53 945.85 672.69 1094.97 667.51
00003209 00000107 823.62 254.01 428.97 566.70 914.01 447.44 1114.61 440.89 1002.16 559.76 948.09 674.02 1099.45 668.78
00003210 00000108 824.14 252.03 429.72 572.14 916.89 448.36 1118.73 442.37 1006.49 562.40 950.35 675.37 1103.02 670.47
00003211 00000109 824.59 254.33 429.95 569.58 918.53 450.21 1121.48 444.83 1008.48 564.76 951.95 676.76 1104.73 672.38
00003212 00000110 824.02 255.86 431.97 571.75 920.10 452.53 1123.45 446.75 1011.20 569.05 954.14 679.78 1108.32 674.93
00003213 00000111 824.32 257.08 432.47 569.51 922.22 452.85 1125.13 448.00 1012.56 570.50 956.49 680.08 1108.74 675.90
00003214 00000112 824.71 257.71 430.94 570.57 922.24 455.06 1125.78 448.76 1013.90 571.08 958.66 682.73 1111.09 677.47
00003215 00000113 823.80 258.05 431.64 572.17 922.89 453.91 1124.73 449.56 1013.58 572.75 957.93 682.23 1108.17 678.62
00003216 00000114 823.39 258.19 430.37 570.39 922.06 454.76 1124.79 450.40 1013.45 574.24 957.31 683.18 1107.69 679.59
00003217 00000115 820.93 261.51 430.44 569.19 920.36 455.76 1123.56 450.74 1012.49 576.61 955.97 685.09 1106.10 680.99
00003218 00000116 818.63 258.06 431.50 576.01 919.70 457.22 1121.40 451.34 1013.54 578.11 956.70 686.75 1104.65 682.07
00003219 00000117 817.21 259.96 430.95 573.26 916.99 459.50 1119.87 453.62 1009.80 578.90 952.32 687.44 1102.78 682.83
00003220 00000118 814.32 263.46 432.47 568.53 914.33 458.18 1119.03 455.70 1006.97 580.49 947.77 687.82 1097.44 686.19
00003221 00000119 812.13 262.01 433.27 575.39 912.44 461.01 1116.70 457.83 1006.13 581.59 944.65 690.47 1096.16 688.58
00003222 00000120 809.50 271.91 433.16 564.85 908.90 468.58 1110.65 463.30 1002.38 584.10 944.75 693.17 1094.93 689.22
00003223 DELETE   808.83 280.43 433.95 557.16 907.68 470.94 1108.83 466.01 1000.09 584.53 945.41 695.26 1092.12 691.78
00003224 DELETE   807.32 285.24 430.62 558.67 904.67 470.56 1103.72 468.15 995.57 585.03 941.42 697.84 1085.53 696.49
00003225 00000123 805.34 290.01 427.45 560.02 903.97 479.31 1101.92 469.48 997.50 585.82 937.34 702.09 1092.09 690.77
00003226 00000124 801.44 292.56 421.32 554.81 898.66 481.34 1094.47 470.15 991.93 586.92 934.59 702.93 1087.47 690.71
00003227 00000125 796.00 296.93 423.17 557.88 891.40 485.11 1088.20 472.88 985.12 593.15 928.73 706.40 1081.90 693.77
00003228 DELETE   786.90 300.59 421.50 556.42 884.97 486.24 1079.10 475.72 979.07 595.69 920.84 707.20 1072.54 696.57
00003229 00000127 783.71 294.40 418.16 557.59 878.75 490.23 1072.79 480.47 971.19 597.83 912.58 708.24 1066.43 698.36
00003230 00000128 772.57 296.08 423.77 549.54 866.43 494.96 1061.71 484.42 959.38 603.69 903.43 709.42 1059.34 698.75
00003231 00000129 767.05 289.29 426.59 553.78 861.46 494.94 1056.54 482.56 954.26 605.09 898.46 706.80 1054.42 694.59
00003232 00000130 766.01 295.92 423.22 548.81 859.93 493.28 1053.20 481.16 951.40 604.00 895.94 706.76 1048.17 695.06
00003233 00000131 765.52 290.92 422.20 555.98 858.08 490.49 1050.94 479.20 949.92 603.01 895.78 710.20 1040.33 699.38
00003234 00000132 766.64 293.16 420.76 553.23 859.21 488.46 1050.59 477.81 949.20 600.38 896.17 710.53 1038.45 700.25
00003235 00000133 768.09 295.54 417.94 542.10 858.68 485.61 1051.65 477.58 944.00 598.47 894.29 709.19 1039.04 700.91
00003236 00000134 770.58 290.27 416.99 542.47 860.87 482.72 1055.06 475.42 946.20 594.44 897.42 707.05 1042.07 699.16
00003237 00000135 771.21 289.99 415.93 539.21 862.01 478.21 1057.53 471.51 947.46 589.84 897.95 703.26 1047.16 695.58
00003238 00000136 774.84 284.76 416.22 546.41 863.68 478.47 1061.12 468.60 949.96 587.67 898.75 703.29 1050.74 692.97
00003239 00000137 779.43 281.76 414.58 561.03 869.79 477.25 1065.26 465.71 958.57 586.57 901.44 695.98 1058.66 684.37
00003240 DELETE   783.46 298.01 412.64 545.26 877.16 470.51 1074.18 465.09 966.29 582.74 901.82 689.67 1061.72 683.69
00003241 DELETE   791.14 283.00 414.46 549.85 888.41 464.58 1088.64 460.64 980.10 577.54 910.83 683.35 1073.98 677.94
00003242 DELETE   797.44 274.73 417.84 546.30 903.16 457.83 1099.16 452.62 1001.15 566.38 927.19 673.78 1084.32 667.23
00003243 00000141 797.12 268.29 422.07 546.80 907.04 452.78 1099.68 446.72 1004.33 560.68 932.64 667.41 1083.84 660.40
00003244 00000142 797.47 271.64 423.47 544.22 907.09 450.47 1098.70 444.21 1002.61 557.92 931.99 665.78 1080.91 658.53
00003245 00000143 796.46 268.81 424.99 547.15 906.20 450.49 1098.98 444.28 1002.12 559.25 930.94 664.95 1082.21 657.83
00003246 00000144 796.87 264.23 424.78 553.78 905.88 452.49 1100.58 445.88 1002.76 563.22 931.60 669.85 1082.83 662.25
00003247 DELETE   797.48 270.42 423.96 547.76 903.14 456.11 1097.61 448.57 1000.31 566.55 933.05 674.80 1079.95 666.04
00003248 DELETE   796.52 263.71 425.00 562.83 898.26 459.14 1093.02 455.03 986.93 574.19 924.21 677.67 1071.40 672.05
00003249 00000147 793.72 268.31 424.57 561.68 889.72 463.18 1085.95 460.12 974.39 580.09 916.45 681.01 1068.15 676.04
00003250 00000148 794.27 272.27 424.30 561.94 888.26 466.19 1087.71 464.55 972.85 581.91 911.87 684.98 1069.08 681.43
00003251 00000149 793.60 270.13 426.11 566.00 888.34 465.99 1090.31 463.64 976.00 580.66 914.37 687.93 1068.98 683.38
00003252 DELETE   793.64 273.32 426.55 557.53 889.35 464.83 1090.13 462.18 978.88 583.64 919.03 690.78 1066.34 685.88
00003253 00000151 791.31 272.47 427.57 557.36 887.21 464.95 1088.30 463.47 976.47 583.97 915.44 690.45 1063.36 686.67
00003254 00000152 789.46 276.38 424.25 556.22 885.89 464.57 1089.43 466.13 974.90 585.58 908.74 690.07 1065.02 689.13
00003255 00000153 790.07 275.89 423.31 550.89 887.56 463.81 1093.01 464.84 981.47 586.13 913.45 689.64 1073.49 687.94
00003256 DELETE   793.62 277.49 423.07 547.85 895.97 467.77 1099.57 467.27 994.14 591.55 922.85 689.08 1084.22 685.71
CROP_BBOX: 429 0 1406 1039
