Video ID: 	HGOknGNlx0Y
H: 	1080
W: 	1920
FPS: 	25.0

FRAME INDEX X0 Y0 W H [Landmarks (5 Points)]

00004360 00000000 542.13 262.51 355.08 548.44 660.14 502.88 820.73 512.36 756.32 608.89 672.22 685.43 804.78 694.25
00004361 DELETE   540.30 263.32 355.10 548.24 658.93 501.13 819.63 508.97 755.83 606.42 671.00 684.79 804.20 692.48
00004362 00000002 536.92 264.97 356.99 545.63 655.97 494.28 819.27 502.91 754.34 602.78 669.71 683.13 802.49 691.61
00004363 00000003 535.71 264.84 356.97 543.78 652.60 491.11 816.13 499.32 750.43 599.61 668.34 681.58 800.31 689.63
00004364 00000004 534.46 262.84 359.17 543.05 650.55 486.41 816.01 493.56 749.05 595.77 668.88 680.91 799.24 688.02
00004365 00000005 533.53 259.08 356.43 545.56 649.19 487.00 811.11 495.29 746.62 592.51 666.81 677.90 795.85 685.91
00004366 00000006 532.79 257.78 356.05 543.95 648.71 481.02 809.56 489.58 744.34 584.76 666.32 673.24 792.67 681.68
00004367 00000007 531.38 251.00 358.58 545.20 645.11 468.98 811.60 481.78 738.76 577.93 660.54 664.91 790.35 676.52
00004368 00000008 530.28 243.85 357.25 547.98 640.80 464.14 805.96 478.11 731.63 572.91 655.17 661.54 783.82 674.05
00004369 00000009 530.25 239.54 356.32 548.38 638.65 457.90 802.78 473.58 727.83 568.52 650.11 656.72 779.87 670.49
00004370 00000010 529.97 235.09 355.64 549.40 636.40 453.35 801.43 469.95 724.89 564.93 646.40 653.47 777.56 667.81
00004371 00000011 531.31 233.73 354.10 548.37 636.51 450.78 800.77 469.29 722.68 562.87 642.95 649.29 775.99 665.24
00004372 00000012 532.19 233.58 353.75 546.89 637.34 449.67 800.15 469.83 721.98 561.80 640.97 645.99 774.56 663.41
00004373 00000013 533.24 233.67 354.56 546.25 639.64 452.19 801.54 473.07 723.15 560.94 642.00 643.55 776.86 661.64
00004374 00000014 533.67 236.05 354.31 543.78 639.64 455.55 801.20 475.49 724.05 559.60 642.45 642.93 779.75 660.28
00004375 00000015 533.71 234.18 353.73 546.18 638.70 451.35 801.26 470.11 722.67 561.02 641.50 643.27 778.37 659.73
00004376 00000016 534.42 233.04 353.71 548.29 639.04 449.64 801.15 468.13 723.12 560.74 642.32 643.01 779.11 659.23
00004377 00000017 534.59 232.72 354.87 551.43 640.70 448.68 802.88 465.97 725.17 560.18 643.58 643.37 780.55 658.67
00004378 00000018 534.65 234.11 355.53 552.06 642.23 449.15 804.58 466.61 726.97 561.43 644.64 644.00 781.83 659.61
00004379 00000019 536.21 235.93 355.74 552.53 644.84 449.97 807.13 467.97 729.74 562.29 646.27 644.77 783.18 660.99
00004380 00000020 537.12 234.08 356.25 554.39 645.27 449.54 809.16 468.17 730.28 562.56 646.67 645.43 784.23 662.18
00004381 00000021 537.12 235.05 356.37 554.01 646.26 449.39 809.84 468.82 731.20 562.52 645.97 644.52 784.80 662.06
00004382 00000022 537.02 235.57 356.50 554.64 647.13 448.67 810.58 469.94 731.04 561.94 643.39 642.06 785.47 661.15
00004383 00000023 536.61 236.77 357.69 553.31 648.14 447.58 811.08 470.52 731.46 561.20 642.01 640.07 784.55 660.52
00004384 00000024 537.36 238.23 357.26 550.84 649.79 446.18 811.66 470.54 732.53 560.77 641.94 637.92 783.89 659.53
00004385 00000025 538.13 238.69 357.13 551.00 651.60 445.80 812.89 470.85 734.66 561.19 642.36 637.19 784.73 659.48
00004386 00000026 538.18 238.01 358.20 548.00 650.98 445.47 814.19 471.34 734.48 560.84 642.61 637.38 785.08 660.16
00004387 00000027 539.08 238.04 357.35 543.97 650.42 445.40 816.70 471.67 735.40 560.50 643.72 638.41 787.11 661.27
00004388 00000028 539.34 240.45 358.72 541.51 653.24 447.20 819.13 472.70 740.16 561.24 649.20 639.81 790.24 662.02
00004389 00000029 541.78 244.17 361.93 541.95 660.36 449.29 825.66 473.48 749.22 563.21 655.77 641.75 795.65 663.31
00004390 00000030 546.14 245.90 362.93 547.69 669.70 447.21 831.67 473.06 757.12 563.90 660.16 641.39 799.82 664.73
00004391 00000031 549.08 245.69 365.02 549.59 673.00 444.06 835.39 473.53 756.61 561.24 659.43 638.94 799.68 665.31
00004392 00000032 551.86 243.94 362.32 538.85 666.70 441.46 835.48 475.13 749.25 557.49 653.84 635.39 794.91 665.28
00004393 00000033 551.73 246.62 365.55 537.28 666.03 439.30 833.76 477.38 742.81 558.18 648.80 635.03 787.59 668.56
00004394 00000034 548.13 239.98 366.18 548.69 670.49 444.30 828.30 480.90 747.87 565.73 647.41 640.67 776.36 671.81
00004395 00000035 550.69 242.46 366.64 544.16 672.58 442.62 831.74 476.03 751.87 566.51 654.79 640.48 782.84 668.85
00004396 00000036 553.61 241.66 366.26 545.62 675.35 441.57 835.59 475.58 755.74 563.31 656.18 636.57 791.35 665.51
00004397 00000037 555.10 241.45 363.67 542.53 675.83 442.18 836.51 475.40 756.52 562.94 656.67 633.58 795.77 661.85
00004398 00000038 555.73 241.70 363.86 542.62 675.64 443.28 836.98 476.66 756.31 563.99 657.00 633.81 796.59 662.15
00004399 00000039 556.58 241.90 364.13 546.81 675.93 445.86 836.24 480.12 756.24 566.71 658.29 637.26 795.44 666.54
00004400 00000040 558.14 242.65 365.56 550.95 679.04 450.61 838.32 486.54 757.95 572.92 660.89 643.04 796.30 673.78
00004401 00000041 559.40 243.62 365.19 554.50 681.29 453.60 838.95 490.98 758.02 574.40 660.93 646.21 793.62 678.24
00004402 00000042 559.69 244.50 366.57 558.24 681.05 452.70 837.32 489.98 756.32 573.60 659.60 645.51 792.43 677.59
00004403 00000043 561.13 244.78 363.86 546.03 679.55 450.80 837.43 488.30 755.32 569.57 657.91 639.62 794.68 671.77
00004404 00000044 560.51 243.16 362.81 541.46 677.23 447.91 835.16 484.08 752.90 565.32 656.88 635.47 792.97 666.40
00004405 00000045 560.02 240.14 361.21 545.03 674.93 445.64 832.19 480.10 749.93 564.26 657.33 637.05 787.81 666.54
00004406 00000046 556.94 242.00 361.41 545.72 669.57 448.16 827.32 478.22 745.10 565.70 656.40 643.22 781.81 669.16
00004407 00000047 552.98 242.44 358.54 545.67 661.81 452.00 821.01 483.50 735.21 571.12 643.63 648.41 773.15 675.52
00004408 00000048 559.39 246.47 355.05 539.68 650.91 451.56 822.48 480.67 719.17 568.14 640.81 650.40 777.27 676.50
00004409 00000049 557.14 246.63 354.15 540.12 646.64 453.47 817.79 481.09 713.37 567.50 636.42 650.75 773.46 675.46
00004410 00000050 556.24 246.41 353.96 541.08 645.74 452.63 817.61 480.03 712.79 567.27 635.39 649.04 776.22 673.51
00004411 00000051 555.23 246.44 354.34 540.07 647.64 451.55 818.00 478.25 716.09 566.24 637.88 647.69 777.63 671.55
00004412 00000052 553.57 246.69 355.07 540.37 648.75 453.69 817.05 481.87 717.20 566.53 638.63 647.15 776.93 672.22
00004413 00000053 556.75 245.60 353.77 546.50 652.25 453.36 817.57 479.61 720.81 567.72 642.90 650.31 776.45 673.91
00004414 00000054 556.03 244.71 354.63 545.28 649.69 453.48 817.78 479.99 719.06 568.16 642.31 651.59 777.28 675.21
00004415 00000055 555.22 244.00 354.04 537.95 645.93 453.01 819.64 481.03 716.44 567.70 639.68 651.29 779.25 676.19
00004416 00000056 556.06 246.05 352.39 536.12 644.14 455.29 818.68 482.43 714.38 569.80 638.79 653.07 779.06 677.36
00004417 00000057 557.00 251.22 351.76 535.66 645.31 457.38 816.55 483.71 713.88 571.49 640.42 655.25 776.51 678.92
00004418 00000058 558.03 253.27 352.88 534.72 645.58 459.38 820.13 487.11 714.72 574.93 639.51 656.15 780.17 680.82
00004419 00000059 559.17 255.60 354.28 533.84 648.22 459.46 821.91 488.34 716.74 574.93 640.47 654.35 781.35 680.04
00004420 00000060 554.45 260.09 353.07 535.63 655.45 461.40 814.05 491.44 721.90 579.27 636.80 655.94 769.33 682.83
00004421 00000061 556.10 259.52 354.42 542.57 657.48 460.48 814.31 491.37 722.69 578.54 638.12 653.51 770.54 680.95
00004422 00000062 556.50 259.54 355.02 539.31 658.02 461.52 815.91 491.77 725.61 579.60 637.86 652.79 774.53 679.75
00004423 00000063 557.39 259.09 354.62 535.62 659.08 463.28 817.13 493.26 727.58 580.30 638.54 650.27 777.56 677.12
00004424 00000064 558.79 260.91 353.34 532.99 659.72 464.80 817.27 493.98 728.47 581.46 639.74 648.79 781.45 674.86
00004425 00000065 559.31 262.84 354.00 535.29 661.06 464.00 816.91 493.86 729.56 580.92 638.64 645.66 783.24 672.11
00004426 00000066 558.76 263.74 354.41 535.08 661.04 465.23 816.44 496.46 728.52 583.41 636.88 644.87 781.71 672.38
00004427 00000067 558.28 265.62 354.08 528.90 660.25 467.00 816.92 497.42 728.05 585.90 636.93 644.84 782.56 671.84
00004428 00000068 557.78 264.98 354.31 528.93 660.30 466.66 817.69 496.02 729.04 585.83 639.40 647.14 782.34 673.41
00004429 00000069 557.43 263.17 354.77 533.32 660.99 465.44 816.48 494.79 727.24 583.14 641.63 650.66 777.07 676.83
00004430 00000070 556.78 261.11 354.56 532.27 659.31 463.71 817.85 492.19 727.15 582.10 640.51 653.79 776.94 679.44
00004431 00000071 556.86 259.98 354.46 532.24 659.69 462.04 817.91 491.51 726.96 579.65 639.59 652.53 775.00 679.14
00004432 00000072 557.77 257.47 354.28 533.27 659.96 460.38 819.54 489.74 728.29 577.53 640.25 653.50 775.32 680.06
00004433 00000073 558.44 256.74 355.38 537.39 661.48 459.94 818.89 489.52 728.44 576.54 642.80 651.74 774.46 678.38
00004434 00000074 559.29 257.52 355.75 537.17 662.11 459.97 819.07 489.97 728.87 576.10 643.19 650.48 775.74 677.29
00004435 00000075 558.68 257.66 356.89 536.51 662.99 460.10 819.74 490.49 729.90 576.89 643.53 648.70 777.32 675.80
00004436 00000076 559.31 258.03 356.56 535.58 663.85 460.18 819.73 490.98 730.31 576.54 644.50 647.84 777.61 675.21
00004437 00000077 559.18 257.52 357.58 538.26 664.70 459.01 820.06 490.94 730.09 575.92 644.45 647.65 776.57 675.94
00004438 00000078 557.36 247.30 359.66 550.05 664.81 455.80 823.12 490.49 733.60 572.70 645.13 646.49 780.09 676.37
00004439 00000079 557.32 247.68 358.90 547.12 663.63 454.51 822.62 489.48 732.82 573.43 644.27 644.34 781.40 674.33
00004440 00000080 556.57 247.95 358.18 541.72 663.37 454.70 821.83 489.65 732.78 573.07 644.06 642.18 780.49 672.14
00004441 00000081 558.14 255.89 356.18 530.48 662.05 456.03 818.65 487.93 727.43 574.78 641.37 642.01 775.64 670.46
00004442 00000082 557.62 254.28 354.86 531.14 660.30 454.54 817.72 486.26 726.19 572.74 638.37 640.66 775.06 669.07
00004443 00000083 563.38 252.97 356.15 536.03 657.49 450.49 823.85 483.61 721.47 565.76 639.95 634.96 786.87 664.28
00004444 00000084 562.23 251.83 355.05 538.00 655.30 451.37 822.20 483.25 720.84 567.40 638.92 636.08 787.18 664.28
00004445 00000085 560.75 253.75 354.34 536.86 653.57 453.24 819.10 485.61 718.25 569.83 636.08 634.19 787.52 662.79
00004446 00000086 559.85 256.77 353.53 533.84 651.87 456.18 817.76 488.10 717.19 574.01 634.41 633.94 788.93 662.46
00004447 00000087 558.86 258.07 352.82 537.58 651.92 456.83 815.81 489.25 716.27 575.09 634.43 636.14 786.85 665.11
00004448 00000088 557.32 256.60 353.96 540.37 651.84 456.60 816.85 488.09 717.60 576.58 635.61 638.45 787.37 666.55
00004449 00000089 557.34 254.58 353.77 535.65 649.82 456.15 816.72 487.80 717.27 578.14 635.94 638.41 786.39 666.42
00004450 00000090 556.56 251.63 355.10 539.12 649.82 453.95 817.47 486.31 717.55 577.58 636.60 641.75 783.32 670.12
00004451 00000091 556.71 250.34 355.39 548.60 652.87 454.35 818.27 484.66 720.25 575.90 641.57 648.94 780.79 675.57
00004452 00000092 557.14 249.15 355.39 553.33 653.52 453.17 817.67 483.27 719.68 575.94 640.67 651.19 777.33 677.82
00004453 00000093 557.64 249.72 354.31 550.69 653.17 453.11 818.35 482.63 720.01 575.88 640.82 650.16 779.07 676.31
00004454 00000094 556.11 248.15 355.91 543.38 650.67 452.18 817.77 483.09 718.59 575.16 639.66 645.06 780.93 672.14
00004455 00000095 557.18 247.22 354.77 538.77 650.26 450.88 818.93 482.26 719.42 573.04 639.50 641.87 782.69 669.25
00004456 00000096 558.87 246.53 353.73 537.36 651.88 449.93 821.12 480.54 721.86 570.55 641.81 641.04 784.52 667.92
00004457 00000097 560.10 245.78 354.17 539.50 653.26 449.46 823.92 479.37 724.42 568.92 642.59 639.44 789.27 665.53
00004458 00000098 561.08 246.81 354.40 541.71 655.86 450.15 825.32 479.21 726.96 568.73 643.35 638.76 791.94 664.24
00004459 00000099 562.33 251.28 354.53 539.19 658.62 451.73 826.52 482.54 729.53 571.18 641.55 635.03 795.40 662.37
00004460 00000100 563.24 255.54 354.84 534.24 659.78 452.74 825.77 484.16 731.02 574.93 641.48 631.04 798.73 659.20
00004461 00000101 564.53 256.28 353.78 532.61 661.11 452.19 827.28 484.45 731.64 575.48 641.49 629.35 799.63 658.30
00004462 00000102 563.79 254.25 353.98 535.28 660.92 451.66 826.48 483.73 731.40 575.96 642.43 630.25 799.01 658.77
00004463 00000103 562.52 252.63 354.68 540.44 661.14 451.50 825.82 482.22 731.60 577.37 645.05 635.02 796.77 662.02
00004464 00000104 562.31 253.21 353.91 544.60 661.62 452.38 824.74 481.56 732.16 578.30 647.59 639.04 795.88 664.64
00004465 00000105 561.50 252.21 353.78 546.88 660.88 452.71 823.60 481.35 731.58 579.46 647.51 639.82 795.49 664.96
00004466 00000106 561.68 252.23 353.56 546.92 660.23 453.04 823.39 481.24 731.12 579.08 647.13 639.97 795.85 664.74
00004467 00000107 562.44 251.42 352.98 547.65 661.08 452.41 824.40 480.33 731.71 577.90 647.28 639.65 796.34 664.13
00004468 00000108 563.75 252.82 353.10 545.26 662.61 451.88 825.49 481.47 732.19 576.49 646.19 636.37 796.98 662.45
00004469 00000109 556.89 257.85 351.10 536.38 661.41 458.50 815.75 483.78 733.25 579.39 644.29 641.33 786.99 664.01
00004470 00000110 557.96 260.39 351.27 535.05 664.07 460.74 817.82 486.13 736.86 582.48 646.40 641.80 789.78 664.59
CROP_BBOX: 299 18 1181 988
