Video ID: 	ISNsvkCpPCE
H: 	1080
W: 	1920
FPS: 	59.94005994005994

FRAME INDEX X0 Y0 W H [Landmarks (5 Points)]

00008991 00000000 699.38 111.67 397.82 589.39 768.94 346.81 940.68 328.77 838.32 442.57 805.98 562.70 941.65 547.73
00008992 00000001 701.82 109.38 398.93 585.82 771.89 346.14 944.80 330.95 839.95 444.71 806.15 558.59 945.12 545.86
00008993 00000002 703.30 107.82 398.27 582.03 772.59 345.17 947.50 332.51 839.98 445.02 803.94 554.63 946.71 543.87
00008994 00000003 702.11 109.83 398.65 577.47 772.04 344.25 947.08 334.36 838.31 445.61 801.13 551.85 943.78 543.47
00008995 00000004 701.05 110.51 399.86 577.82 770.26 343.36 944.69 336.04 833.74 447.55 796.49 550.82 939.30 544.60
00008996 00000005 700.54 112.93 400.49 577.70 767.92 345.83 941.23 339.97 829.27 450.87 793.69 552.18 935.69 547.14
00008997 DELETE   705.37 114.09 393.96 581.16 770.32 351.19 937.67 347.97 824.22 451.28 790.33 555.24 930.35 552.68
00008998 DELETE   702.89 116.75 396.70 582.23 767.44 354.47 935.38 352.27 820.49 454.01 788.38 558.12 928.17 556.65
00008999 DELETE   703.54 116.23 396.31 588.07 766.46 356.75 932.51 356.84 817.42 457.03 786.27 561.35 925.68 561.76
00009000 00000009 704.06 118.05 396.01 591.62 765.92 358.21 930.47 357.28 815.09 458.62 785.21 563.72 924.69 563.68
00009001 00000010 704.94 118.64 395.46 590.37 765.17 359.62 930.64 359.47 814.07 461.44 784.60 564.56 924.93 564.93
00009002 00000011 707.08 119.63 393.12 587.68 766.63 361.73 932.14 360.56 815.29 462.19 786.95 564.14 927.20 563.62
00009003 00000012 708.36 119.66 393.86 586.17 768.08 363.98 934.24 361.02 818.52 464.23 791.45 565.99 930.34 564.10
00009004 DELETE   711.03 120.12 393.84 584.13 770.69 365.88 937.67 361.02 822.25 465.59 795.34 566.16 935.32 562.58
00009005 00000014 712.89 120.11 396.82 585.53 775.64 368.08 942.56 361.43 829.85 467.13 800.84 566.49 941.86 561.40
00009006 00000015 712.74 120.87 398.99 583.94 779.55 369.82 946.74 361.89 838.23 470.02 808.91 567.99 948.61 561.73
00009007 00000016 712.87 122.06 402.55 586.34 781.48 373.15 950.07 361.70 844.00 472.11 814.15 571.15 954.94 561.87
00009008 00000017 714.32 122.56 404.16 586.61 784.25 374.18 951.83 361.36 848.69 474.80 820.40 573.27 958.80 562.81
00009009 00000018 715.45 122.23 405.11 588.62 785.34 375.54 952.27 361.34 849.51 475.79 822.29 574.48 960.04 563.01
00009010 00000019 715.54 120.63 406.38 590.90 785.19 375.83 952.93 362.11 848.71 476.80 821.98 575.33 959.97 564.24
00009011 00000020 718.81 121.80 403.28 590.43 783.55 376.20 951.33 363.05 844.34 477.61 818.21 575.87 956.57 565.37
00009012 00000021 720.68 122.13 400.86 591.20 782.48 376.64 949.12 365.55 839.11 478.56 814.70 575.64 952.87 566.88
00009013 00000022 724.46 116.53 393.88 598.59 780.57 376.39 949.97 365.68 842.06 484.56 813.10 575.34 947.46 567.28
00009014 00000023 725.39 116.31 391.84 599.36 778.41 376.77 946.29 366.73 836.82 486.53 809.55 576.21 943.08 568.93
00009015 00000024 726.12 116.65 390.99 601.39 776.74 375.14 943.84 366.20 831.25 486.01 805.36 577.37 939.60 571.10
00009016 00000025 727.36 115.21 390.08 605.41 776.28 374.21 941.28 365.45 827.29 484.25 803.72 579.63 936.45 573.53
00009017 00000026 728.38 114.39 390.31 609.06 776.89 372.89 940.61 363.90 825.98 482.67 804.89 579.42 936.25 573.01
00009018 00000027 729.19 115.64 391.96 610.78 778.57 371.44 942.21 361.00 825.34 480.23 809.54 579.09 940.81 570.99
00009019 00000028 731.00 114.63 393.53 614.24 780.98 370.36 944.73 358.66 827.35 477.84 812.65 578.25 945.44 568.79
00009020 00000029 731.34 114.73 397.96 614.18 782.47 369.72 948.10 355.36 832.51 476.75 816.01 575.73 953.93 563.59
00009021 00000030 736.44 112.14 393.95 606.90 786.64 368.72 953.76 353.18 840.35 474.16 821.41 571.06 961.81 557.65
00009022 00000031 737.91 108.57 394.48 605.13 789.64 366.00 957.03 349.61 845.61 470.63 825.04 567.36 966.87 552.69
00009023 00000032 735.93 111.60 407.52 601.22 794.29 368.72 961.87 346.10 846.29 463.32 832.16 566.24 973.56 547.51
00009024 00000033 738.32 107.69 409.83 602.95 795.94 365.81 963.64 341.06 848.51 457.76 834.90 564.45 977.40 544.15
00009025 00000034 742.35 104.54 409.22 603.39 800.03 363.81 967.52 338.37 852.29 452.74 836.55 563.47 978.56 542.67
00009026 00000035 745.40 101.97 408.33 603.18 801.77 362.00 970.80 336.17 854.26 450.52 837.27 563.18 979.31 542.05
00009027 00000036 749.03 98.44 407.97 604.24 804.73 360.98 971.44 333.94 854.13 447.06 841.82 562.95 978.94 540.93
00009028 00000037 749.53 98.14 408.44 603.81 804.87 359.15 972.21 334.12 853.49 445.49 840.90 560.63 977.11 540.22
00009029 00000038 749.37 99.30 406.71 602.66 805.85 357.99 971.07 334.23 853.16 444.37 840.93 559.04 973.42 539.67
00009030 00000039 749.62 99.35 405.47 604.18 806.04 357.16 969.78 336.09 848.97 444.01 834.89 558.90 967.73 541.86
00009031 00000040 748.07 100.68 404.89 605.65 803.93 357.03 965.68 337.77 845.80 445.63 831.20 559.28 964.63 543.68
00009032 00000041 744.66 104.84 404.45 602.38 800.52 357.28 961.82 339.65 843.20 448.37 828.93 560.08 960.58 545.83
00009033 00000042 743.02 108.47 401.43 601.89 798.42 357.42 959.23 342.15 839.67 450.39 825.91 560.73 956.39 548.39
00009034 00000043 742.17 109.38 398.46 601.54 795.54 358.65 955.08 344.42 835.31 452.72 822.37 561.26 952.94 549.71
00009035 00000044 739.84 102.24 389.87 605.99 787.14 358.12 950.21 345.90 833.22 457.85 814.09 561.30 947.00 550.39
00009036 00000045 737.05 101.04 391.32 605.43 784.20 358.43 949.22 346.92 832.13 461.28 811.21 562.03 945.36 552.05
00009037 00000046 735.26 101.33 391.67 605.03 782.90 358.62 948.49 346.08 831.46 462.00 810.72 562.44 945.71 551.71
00009038 00000047 734.21 100.50 391.93 605.14 782.04 357.82 948.21 343.86 831.70 461.38 811.65 561.90 947.66 549.98
00009039 00000048 733.52 101.85 393.30 602.89 781.73 357.76 949.25 339.79 832.65 457.59 813.73 561.83 952.23 546.35
00009040 00000049 732.78 100.21 394.31 602.40 781.60 356.13 950.31 336.47 834.89 454.75 816.59 560.54 956.60 543.49
00009041 00000050 731.65 97.49 393.21 600.47 781.06 353.28 952.44 330.89 837.96 450.68 817.68 559.99 959.05 540.70
00009042 00000051 733.51 101.47 394.60 595.08 777.52 349.84 942.86 326.13 823.77 447.51 815.91 557.14 960.54 536.41
00009043 00000052 733.16 98.78 395.41 591.74 776.40 346.98 940.98 321.94 822.01 444.84 816.44 553.80 961.52 531.45
00009044 00000053 730.69 96.09 397.27 588.03 774.54 346.29 937.97 320.62 819.58 440.01 814.24 550.56 958.20 527.78
00009045 00000054 726.89 94.46 400.38 586.42 772.86 343.78 935.81 318.29 817.11 435.89 811.57 547.56 955.38 524.67
00009046 00000055 728.13 91.38 398.70 586.74 771.01 341.54 932.65 317.84 811.43 434.28 806.32 545.45 949.56 524.12
00009047 00000056 727.58 90.30 397.06 588.35 770.21 340.24 929.25 318.20 808.05 434.22 803.18 544.60 944.74 524.65
00009048 00000057 727.32 80.35 392.93 600.47 771.51 340.66 933.67 320.56 815.93 438.79 801.49 543.27 937.39 527.11
00009049 00000058 727.02 83.43 391.89 600.22 770.33 339.23 932.59 321.22 813.06 441.71 799.88 545.83 936.44 531.47
00009050 00000059 727.19 86.00 392.34 601.17 769.61 339.05 932.33 322.24 810.69 443.36 798.44 548.96 935.83 535.55
00009051 00000060 728.33 89.82 394.52 603.57 771.59 338.72 935.08 322.55 812.02 444.39 801.78 552.22 939.98 538.78
00009052 00000061 728.97 91.83 398.26 610.11 773.83 341.54 937.48 322.41 812.82 446.21 808.46 555.54 947.74 538.83
00009053 DELETE   737.31 103.63 397.48 599.17 771.10 358.07 938.64 334.55 810.06 459.26 810.07 559.53 954.84 539.18
00009054 DELETE   739.90 103.30 394.51 606.25 775.07 361.79 939.87 334.91 814.42 461.07 817.37 563.93 961.08 540.55
00009055 00000064 743.39 105.25 393.23 608.21 778.07 365.51 942.95 335.36 820.13 462.27 821.91 566.36 966.65 540.56
00009056 00000065 739.48 107.39 404.75 610.45 789.17 353.76 952.11 327.12 836.62 452.45 837.16 563.56 974.13 541.23
00009057 00000066 738.69 107.93 407.84 606.25 788.76 354.38 954.33 326.94 839.31 453.86 837.51 564.07 975.45 541.06
00009058 00000067 738.31 107.78 408.66 599.41 788.91 356.11 955.77 327.87 842.29 455.28 836.32 563.46 975.70 539.71
00009059 00000068 738.09 108.26 407.67 595.34 788.10 358.07 955.65 329.70 842.21 457.01 834.53 563.02 974.85 539.10
00009060 00000069 736.14 108.76 407.53 593.82 787.38 359.18 954.12 333.03 841.64 459.50 831.21 562.17 971.85 539.99
00009061 00000070 735.00 101.27 398.23 601.11 780.76 358.50 948.87 334.75 835.68 463.61 821.34 562.23 964.98 541.13
00009062 00000071 730.31 102.61 399.30 602.64 776.64 359.11 945.11 336.35 829.04 465.10 815.36 562.86 960.21 542.86
00009063 00000072 730.40 105.66 397.48 601.30 775.06 358.36 941.59 337.53 823.42 467.35 812.21 564.41 954.07 546.25
00009064 00000073 729.76 107.76 393.83 599.73 773.66 357.93 939.05 339.26 819.98 467.79 808.19 566.07 947.24 550.12
00009065 00000074 727.28 109.81 391.58 597.16 771.34 357.71 935.23 340.03 816.58 468.60 806.20 567.55 942.08 552.94
00009066 00000075 725.39 112.05 391.17 595.42 769.80 356.94 932.66 341.04 814.61 468.69 803.59 567.14 937.96 554.30
00009067 00000076 723.94 111.13 392.45 598.59 769.35 357.21 932.42 340.41 814.41 468.30 803.73 566.80 938.72 553.24
00009068 00000077 723.25 109.75 393.13 603.21 769.07 361.26 932.14 341.06 814.94 467.48 805.57 568.21 940.99 551.78
00009069 00000078 724.75 109.47 393.63 605.46 771.44 365.58 933.73 343.61 819.57 469.19 810.23 569.72 944.98 551.81
00009070 00000079 718.05 110.88 404.77 609.15 769.21 371.57 930.14 349.58 816.18 468.88 808.92 573.70 951.74 555.33
00009071 00000080 715.77 112.57 408.37 609.66 769.81 375.54 931.43 352.16 818.27 470.49 811.40 576.02 954.75 556.51
00009072 00000081 713.98 113.80 410.92 610.55 769.33 377.59 932.14 352.32 819.98 472.13 813.21 578.63 957.34 557.61
00009073 00000082 712.09 115.26 410.60 609.09 768.63 377.26 931.20 352.55 819.84 472.94 812.41 579.50 955.84 558.88
00009074 00000083 708.56 114.91 411.64 610.87 765.87 374.75 928.40 351.30 817.00 473.57 808.81 579.80 953.01 560.08
00009075 00000084 706.89 113.91 410.69 613.00 762.50 372.92 923.06 352.78 809.72 474.88 802.90 580.27 945.82 563.11
00009076 00000085 705.68 111.15 408.87 615.58 758.67 373.23 918.63 351.35 804.26 483.26 803.48 581.00 938.62 562.96
00009077 DELETE   701.13 112.66 407.51 614.39 752.05 372.74 913.14 352.90 797.11 485.51 795.97 582.03 932.69 565.77
00009078 00000087 700.29 113.95 402.57 612.72 745.93 377.46 907.12 357.20 789.43 486.87 789.35 584.60 923.71 567.99
00009079 00000088 695.53 114.64 403.80 610.86 742.67 377.14 901.62 360.10 785.07 486.25 783.40 583.55 913.00 569.73
00009080 00000089 689.89 115.67 408.18 609.96 739.58 376.65 896.67 359.09 781.38 484.86 780.84 585.07 904.70 570.88
00009081 00000090 686.50 118.63 408.01 608.41 736.99 377.88 893.81 358.89 780.10 485.10 779.42 587.55 900.76 572.19
00009082 00000091 684.95 118.79 408.02 607.13 735.91 377.87 893.42 358.60 780.79 485.30 779.18 587.81 901.10 572.16
00009083 00000092 683.86 121.22 406.62 604.35 735.38 378.93 894.45 358.44 782.10 485.44 778.83 588.12 902.87 571.40
00009084 00000093 682.46 120.64 407.87 604.72 735.26 380.95 893.94 358.54 783.71 486.80 781.01 588.64 905.60 570.20
00009085 00000094 681.01 123.36 406.84 606.33 734.61 382.80 895.13 358.07 784.61 487.07 781.50 589.75 910.31 569.44
00009086 00000095 677.60 124.78 408.13 609.26 732.71 383.89 894.19 358.46 782.75 487.02 780.42 592.22 910.62 571.41
00009087 00000096 676.13 126.24 408.13 613.80 732.20 384.84 892.37 358.89 779.21 486.71 781.46 594.56 911.60 573.25
00009088 00000097 674.56 127.37 406.95 615.40 729.91 385.14 887.79 359.50 775.11 487.16 780.94 596.52 907.29 575.46
00009089 00000098 672.09 129.97 406.76 613.79 727.47 384.51 885.64 361.00 772.60 487.62 777.00 596.04 902.45 576.78
00009090 00000099 669.94 132.47 402.44 611.45 724.61 385.94 881.96 362.03 768.17 487.38 772.16 595.22 899.56 575.33
00009091 00000100 668.63 134.13 400.59 609.63 722.88 386.48 880.07 362.48 766.06 487.20 770.38 595.18 896.65 575.10
00009092 00000101 668.36 137.27 391.12 604.31 722.66 386.58 879.94 369.21 769.73 484.02 759.99 589.20 890.74 574.25
00009093 00000102 668.09 138.63 390.74 597.51 723.03 386.64 880.25 368.96 772.15 483.35 760.09 585.84 891.46 570.54
00009094 00000103 669.84 136.44 390.03 593.97 723.53 386.50 883.77 368.95 775.43 483.82 758.93 583.32 894.82 568.03
00009095 00000104 672.59 132.31 393.86 596.15 726.59 386.14 888.58 367.83 781.08 482.71 760.96 581.85 899.66 566.04
00009096 00000105 670.36 129.32 405.55 591.89 727.29 385.27 889.69 360.79 782.19 485.58 769.59 579.40 905.41 559.42
00009097 00000106 670.98 128.42 407.94 594.16 729.06 384.83 892.79 357.86 785.42 482.49 773.11 578.16 911.24 556.08
00009098 00000107 670.95 127.04 410.73 597.85 730.03 383.39 894.30 353.96 788.30 480.99 777.26 579.23 915.13 555.03
00009099 00000108 672.28 126.04 410.37 598.12 731.44 382.67 894.49 352.70 788.91 478.93 781.24 579.55 916.30 554.87
00009100 00000109 672.83 125.24 409.93 603.53 732.00 381.35 895.44 350.45 788.28 475.69 782.62 580.36 918.61 554.96
00009101 00000110 672.97 125.85 410.42 605.63 731.50 380.27 895.19 349.83 786.54 475.63 783.00 581.43 918.68 556.48
00009102 00000111 673.38 123.53 410.21 608.15 731.04 379.19 894.81 349.61 784.22 476.39 781.49 581.24 918.35 556.98
00009103 00000112 674.42 123.27 408.82 605.87 731.14 377.77 895.79 349.54 784.43 476.94 779.25 580.35 916.98 557.29
00009104 00000113 677.03 123.22 408.40 604.70 732.77 375.81 897.10 349.08 784.84 475.51 777.79 578.05 916.28 556.30
00009105 00000114 679.47 121.26 408.03 603.22 734.14 373.23 899.70 347.95 786.46 473.95 776.54 575.89 916.07 555.52
00009106 00000115 681.26 119.55 408.28 601.72 736.54 372.03 902.76 347.50 789.61 472.24 777.47 574.19 917.37 554.43
00009107 00000116 684.31 117.16 406.24 599.54 739.63 370.06 906.83 347.15 793.65 472.43 780.04 573.26 920.12 554.72
00009108 00000117 688.14 116.13 406.28 595.33 742.31 368.68 910.10 346.86 797.41 474.08 783.76 573.44 921.04 555.77
00009109 00000118 691.73 114.92 405.73 591.59 745.69 368.55 914.32 345.99 804.08 474.52 787.44 572.67 924.98 554.47
00009110 00000119 693.99 114.76 404.90 589.52 749.26 366.51 916.90 344.59 808.89 474.80 792.27 572.19 926.19 554.68
00009111 00000120 696.09 115.30 403.49 586.05 751.65 364.76 918.89 343.27 810.84 472.83 794.19 570.62 926.57 553.63
00009112 00000121 697.34 115.24 402.37 584.96 751.49 365.15 919.39 343.72 810.81 472.31 794.08 571.01 925.80 554.13
00009113 00000122 701.20 113.77 397.93 586.55 750.69 371.63 917.34 349.13 810.49 474.61 793.25 573.05 923.12 555.34
00009114 00000123 700.97 115.48 397.78 584.72 751.01 379.21 913.44 356.56 808.36 474.85 794.89 576.08 919.15 557.97
00009115 00000124 701.78 115.60 396.74 584.85 751.03 383.42 909.18 359.20 805.26 473.10 795.71 578.79 914.28 559.35
00009116 00000125 703.44 113.80 395.99 590.40 750.81 382.99 908.35 360.53 803.68 474.24 794.41 582.15 910.91 564.16
00009117 00000126 702.74 115.62 397.68 593.06 751.57 379.48 910.55 358.62 804.23 476.12 796.02 584.30 911.45 567.70
00009118 00000127 704.20 116.66 398.04 597.01 752.34 376.27 911.94 356.74 803.71 478.46 796.76 585.54 912.02 570.15
00009119 00000128 704.77 118.50 398.55 597.08 756.03 373.24 916.74 354.76 808.58 477.50 801.46 584.67 916.12 570.16
00009120 00000129 707.45 119.38 396.85 596.38 760.97 371.26 922.85 354.28 814.44 477.91 804.20 583.25 919.77 570.14
00009121 00000130 707.15 117.40 397.54 597.58 762.76 370.25 927.96 353.68 819.45 477.83 804.93 582.05 923.85 569.38
00009122 00000131 705.65 120.55 400.78 592.55 768.36 366.45 926.35 353.62 820.94 468.80 805.49 577.15 931.69 567.17
00009123 00000132 706.78 119.77 401.70 592.12 769.93 367.81 928.79 353.19 824.18 469.82 808.79 576.76 936.78 564.97
00009124 00000133 707.44 119.62 403.72 593.19 770.78 367.14 929.97 351.30 825.86 469.69 811.60 575.95 941.90 562.90
00009125 00000134 707.47 120.07 403.91 597.07 770.05 367.20 929.58 350.11 825.49 470.57 811.00 577.72 943.47 563.60
00009126 00000135 707.10 120.26 403.43 600.74 768.64 366.32 927.97 349.58 822.09 470.32 807.52 577.57 943.07 563.70
00009127 00000136 709.20 117.15 402.25 604.84 767.06 367.51 931.53 349.33 819.40 476.90 808.01 576.63 938.71 562.26
00009128 00000137 707.08 118.10 403.08 607.61 762.70 366.52 928.72 347.88 813.81 476.34 801.18 577.32 936.68 562.74
00009129 00000138 704.93 118.35 403.37 609.15 758.08 365.37 924.27 347.89 807.62 478.63 796.64 579.31 932.94 565.69
00009130 00000139 703.28 119.76 402.65 608.78 754.74 365.05 919.63 347.19 802.77 479.15 793.05 579.75 931.01 565.77
00009131 00000140 702.08 120.76 402.58 607.39 752.56 366.47 915.87 348.39 798.73 479.84 790.81 580.49 928.57 566.31
00009132 00000141 701.37 120.59 402.83 605.56 751.81 367.02 915.31 348.68 798.79 480.38 790.47 579.47 928.29 565.04
00009133 00000142 700.09 120.28 404.24 604.64 751.76 367.04 916.16 348.49 800.84 482.04 791.12 578.08 929.49 563.51
00009134 00000143 699.69 120.01 405.90 603.22 753.19 366.85 919.41 348.25 805.44 484.44 793.82 577.10 933.80 562.45
00009135 00000144 700.85 122.77 407.10 600.76 755.88 368.95 923.29 348.46 810.94 484.12 796.11 576.69 939.18 560.42
00009136 00000145 708.19 131.09 396.27 597.99 757.33 378.50 918.32 356.05 814.22 479.46 799.70 581.56 947.52 561.06
00009137 00000146 702.20 124.60 408.38 602.29 761.64 373.85 928.86 349.38 818.72 482.59 802.80 576.06 949.18 556.10
00009138 00000147 709.41 134.88 397.46 595.35 761.81 383.27 923.55 357.76 820.96 481.39 805.18 582.76 956.65 559.72
00009139 00000148 709.60 135.89 397.53 596.45 762.71 384.00 924.70 358.69 822.08 482.80 805.75 582.88 960.27 559.59
00009140 00000149 709.61 137.75 397.47 597.90 762.86 384.31 923.91 359.54 820.05 482.88 805.70 583.93 961.19 560.70
00009141 00000150 708.67 139.67 397.24 599.59 762.34 382.37 922.19 361.74 817.82 486.16 802.42 583.91 958.27 563.78
00009142 00000151 707.59 141.27 397.00 602.07 759.97 381.23 917.93 361.58 813.58 487.74 800.22 584.60 955.72 565.19
00009143 00000152 705.95 145.83 397.46 600.08 757.19 382.28 914.52 362.15 808.91 489.45 798.43 584.92 955.34 564.85
00009144 00000153 703.96 146.37 397.69 601.70 755.35 386.14 911.06 364.53 806.52 491.96 796.56 585.66 953.66 564.28
00009145 00000154 701.15 146.31 398.86 603.62 753.40 392.46 907.83 368.62 805.00 496.56 795.98 589.27 952.81 565.85
00009146 00000155 695.30 144.07 406.61 604.37 756.28 393.92 914.29 369.13 806.48 505.21 797.38 585.56 949.74 564.30
00009147 00000156 699.44 147.38 401.34 602.12 754.36 398.06 912.27 375.59 810.13 504.84 795.43 592.22 953.13 569.86
00009148 00000157 694.93 148.22 408.57 598.29 756.72 397.04 921.65 374.44 814.10 513.90 794.79 586.47 953.54 567.29
00009149 00000158 700.61 153.54 403.86 595.45 759.37 400.91 918.44 380.09 817.95 510.45 798.07 592.88 958.83 571.63
00009150 00000159 701.85 154.87 406.69 594.28 763.71 402.95 926.34 382.87 825.65 512.32 800.71 593.48 965.74 572.88
00009151 00000160 701.60 156.10 411.43 593.65 765.96 404.27 929.76 384.12 829.77 513.56 805.84 596.72 969.14 576.10
00009152 00000161 700.74 157.54 414.10 593.29 767.04 405.84 932.86 385.74 832.74 514.65 808.11 599.97 970.75 579.68
CROP_BBOX: 437 0 1424 926
