Video ID: 	fRofXR5NrFo
H: 	1080
W: 	1920
FPS: 	25.0

FRAME INDEX X0 Y0 W H [Landmarks (5 Points)]

00005236 00000000 910.77 169.50 355.51 519.06 982.78 382.45 1142.73 385.66 1055.20 497.41 1005.06 573.94 1128.05 577.59
00005237 00000001 908.11 173.23 349.25 518.97 975.08 385.26 1130.38 390.21 1028.46 492.07 989.80 570.25 1107.38 573.99
00005238 00000002 905.46 173.53 350.92 517.80 966.20 382.48 1122.64 392.06 1011.38 489.08 978.84 569.19 1094.55 576.05
00005239 00000003 904.02 174.51 348.23 517.48 961.80 379.82 1118.31 393.75 1000.73 489.20 968.14 566.57 1088.90 576.52
00005240 00000004 905.10 180.89 348.88 511.61 966.90 375.47 1117.10 399.08 999.33 490.62 964.36 563.84 1080.80 584.94
00005241 00000005 905.64 178.39 349.76 514.32 967.18 373.32 1115.71 401.44 994.88 490.00 960.68 560.71 1075.64 585.48
00005242 00000006 907.55 178.58 350.60 515.97 970.11 372.78 1120.02 402.38 998.50 490.93 961.68 560.14 1078.96 586.05
00005243 00000007 910.59 176.59 351.70 521.41 975.58 378.49 1126.72 401.49 1010.43 490.78 972.33 565.85 1090.91 585.97
00005244 00000008 917.68 176.35 350.54 520.96 983.82 385.85 1136.03 398.80 1030.45 495.16 989.86 571.77 1112.32 583.69
00005245 00000009 926.42 171.57 349.07 523.88 996.27 388.66 1148.95 396.39 1049.45 495.27 1007.75 573.16 1130.06 580.45
00005246 00000010 935.32 175.04 348.51 518.36 1007.02 392.70 1161.20 392.81 1070.90 499.16 1029.04 572.84 1154.73 573.61
00005247 00000011 935.72 176.99 354.74 516.56 1013.88 398.74 1172.67 395.42 1090.11 500.57 1046.25 564.41 1178.55 561.66
00005248 00000012 944.35 172.78 350.25 523.84 1027.97 399.30 1184.61 387.04 1115.57 501.40 1062.29 577.80 1192.95 568.31
00005249 00000013 941.58 168.73 353.30 523.66 1030.87 400.28 1188.02 381.62 1129.12 496.77 1082.69 575.21 1208.63 559.42
00005250 00000014 940.90 161.87 351.50 531.74 1034.85 401.23 1189.33 376.84 1139.71 494.63 1087.43 573.89 1214.14 553.52
00005251 00000015 937.11 160.61 352.69 532.26 1033.43 398.84 1189.96 372.20 1141.95 490.79 1086.60 572.32 1215.22 550.23
00005252 00000016 933.93 162.43 349.82 529.17 1027.98 396.11 1184.95 368.39 1136.13 484.29 1082.12 569.88 1210.78 547.22
00005253 00000017 927.87 161.55 348.51 532.34 1023.40 393.00 1176.03 369.56 1127.09 480.16 1069.31 567.94 1196.02 548.48
00005254 00000018 919.73 160.19 352.23 532.76 1004.14 398.04 1163.81 371.99 1102.79 491.91 1057.16 578.23 1182.26 556.74
00005255 00000019 909.79 162.92 357.26 523.50 989.23 393.90 1150.85 368.29 1085.36 487.55 1038.12 578.06 1169.02 557.63
00005256 00000020 899.58 165.67 360.40 521.34 974.69 396.26 1130.87 374.13 1063.53 493.02 1021.58 577.57 1149.83 559.97
00005257 DELETE   893.84 174.62 355.49 516.67 964.23 397.11 1119.02 386.54 1040.87 501.52 1001.66 578.71 1129.63 570.66
00005258 00000022 885.31 181.64 356.60 512.10 951.65 399.22 1106.91 393.10 1018.52 510.01 986.52 583.66 1111.08 579.05
00005259 00000023 879.89 187.73 352.10 508.04 943.27 401.43 1093.07 398.64 1001.69 515.53 975.58 588.37 1093.68 586.81
00005260 00000024 876.78 190.68 350.67 508.90 939.19 402.78 1084.86 402.16 993.86 520.74 972.04 590.37 1087.82 590.29
00005261 00000025 873.36 196.45 350.13 508.00 936.48 405.90 1081.15 405.32 990.93 524.26 971.93 594.06 1086.39 593.94
00005262 00000026 873.64 201.91 350.83 505.91 938.01 410.53 1081.41 409.60 992.22 528.40 974.16 597.29 1087.34 596.85
00005263 00000027 875.05 202.40 353.10 505.70 940.68 412.38 1088.30 410.21 999.20 530.48 978.05 597.38 1095.97 595.82
00005264 00000028 876.61 202.73 358.40 506.59 944.49 415.18 1093.77 407.41 1008.83 530.75 988.57 597.66 1108.74 591.01
00005265 00000029 879.01 202.37 361.46 507.36 949.15 419.32 1098.86 404.47 1020.56 530.67 999.80 599.24 1122.10 586.16
00005266 00000030 883.15 200.40 360.46 506.69 954.03 419.35 1106.27 403.61 1028.68 527.93 1001.88 595.16 1128.93 581.57
00005267 00000031 885.91 201.45 360.76 504.12 957.15 419.38 1112.43 401.94 1036.07 526.93 1002.64 592.96 1134.81 578.15
00005268 00000032 885.78 201.24 362.16 504.02 958.12 419.63 1114.10 402.01 1038.56 527.65 1002.19 591.63 1136.78 576.65
00005269 00000033 886.33 201.99 360.23 504.16 957.34 420.63 1112.80 404.21 1036.15 529.43 1001.02 591.99 1135.59 577.95
00005270 00000034 885.88 205.50 359.39 500.99 955.90 421.61 1110.32 405.94 1033.62 530.83 999.25 591.75 1133.59 578.32
00005271 00000035 885.88 210.79 354.97 497.55 952.95 434.04 1105.27 419.78 1024.31 529.84 993.00 592.62 1129.23 579.92
00005272 DELETE   883.79 213.65 353.23 494.94 949.19 438.07 1101.20 424.30 1016.85 530.10 987.45 593.24 1124.17 581.10
00005273 00000037 882.10 213.40 352.27 496.04 945.58 431.48 1101.56 423.03 1011.95 535.19 979.13 591.45 1120.55 584.23
00005274 00000038 881.11 212.75 349.75 498.28 942.94 429.43 1096.61 421.49 1006.09 536.51 975.99 591.66 1115.80 584.80
00005275 00000039 879.98 211.71 350.61 503.24 940.62 428.06 1091.58 420.06 1001.20 537.17 976.87 593.81 1114.19 586.36
00005276 00000040 880.95 212.49 351.55 504.66 942.07 427.51 1094.28 419.78 1004.21 538.77 979.48 596.80 1115.56 589.71
00005277 00000041 881.04 211.82 356.59 506.10 944.87 427.67 1099.22 417.31 1011.90 539.74 986.42 600.88 1119.81 591.53
00005278 00000042 882.49 212.02 358.40 504.30 949.38 426.92 1103.91 416.59 1018.63 539.22 993.79 603.58 1120.08 594.80
00005279 00000043 884.05 211.82 360.12 504.52 952.51 426.06 1107.17 415.77 1023.63 539.56 998.05 604.05 1123.08 595.34
00005280 00000044 886.36 210.59 359.82 502.51 957.69 424.53 1111.99 415.42 1031.33 539.82 1002.84 602.59 1126.15 594.99
00005281 00000045 887.74 206.02 361.78 505.17 962.09 423.83 1116.72 412.57 1040.12 539.31 1007.49 602.83 1130.72 593.62
00005282 00000046 890.57 201.19 361.45 508.87 968.53 425.59 1121.67 410.44 1050.09 537.62 1014.54 602.30 1137.80 589.92
00005283 00000047 892.46 196.39 364.47 514.16 974.66 426.85 1128.11 405.32 1061.50 535.66 1023.55 602.20 1148.82 584.64
00005284 00000048 893.77 192.63 367.24 518.66 982.07 426.68 1138.15 400.03 1074.40 533.46 1032.16 605.00 1157.61 583.57
00005285 00000049 898.75 184.19 367.73 526.67 988.53 423.71 1147.47 396.90 1083.14 532.38 1038.40 602.65 1167.16 581.22
00005286 00000050 910.31 176.79 358.79 530.10 997.71 420.68 1161.64 393.43 1095.93 527.73 1045.10 600.63 1177.58 579.13
00005287 00000051 922.32 173.55 349.97 530.25 1007.42 414.37 1170.90 390.74 1106.27 521.86 1052.33 598.44 1181.85 580.16
00005288 00000052 930.49 171.98 345.28 530.51 1013.44 410.38 1177.29 389.50 1111.36 518.88 1053.04 592.64 1185.58 577.14
00005289 00000053 928.16 175.76 345.46 532.37 1022.61 410.09 1177.13 397.70 1116.65 516.44 1053.71 590.64 1182.98 581.31
00005290 00000054 932.73 167.32 340.48 538.71 1016.30 403.04 1174.92 390.48 1107.07 507.73 1053.79 587.99 1176.27 578.45
00005291 00000055 930.19 167.42 344.30 534.49 1012.36 398.99 1168.72 389.58 1097.26 504.47 1046.03 582.31 1169.35 575.46
00005292 00000056 924.57 167.52 350.66 532.40 1006.65 393.12 1163.42 392.32 1082.84 500.13 1033.32 574.94 1159.14 574.80
00005293 00000057 920.75 163.74 354.67 538.75 1001.27 388.32 1156.90 390.94 1071.11 494.50 1024.00 572.37 1149.47 575.03
00005294 00000058 914.57 164.57 355.72 538.45 992.97 385.04 1149.53 390.48 1055.95 491.22 1010.39 569.11 1140.17 573.96
00005295 00000059 915.51 167.94 351.67 530.10 987.63 381.22 1141.96 390.91 1043.54 490.09 1000.56 565.17 1131.62 573.76
00005296 00000060 915.86 174.79 351.23 520.00 984.55 378.74 1137.43 392.50 1033.58 490.23 993.86 563.63 1121.06 575.87
00005297 00000061 918.24 173.55 349.09 517.79 981.60 377.62 1134.60 392.16 1025.50 491.11 989.63 564.80 1114.00 577.81
00005298 00000062 920.93 173.23 348.47 516.26 984.05 376.86 1135.25 392.41 1024.85 490.63 990.46 565.23 1109.57 579.04
00005299 00000063 924.40 169.21 348.39 521.42 988.01 377.79 1137.62 391.00 1028.83 488.59 995.47 567.09 1110.67 578.97
00005300 00000064 928.72 169.51 345.02 521.80 988.39 381.54 1143.07 395.93 1040.68 500.26 999.71 567.64 1120.71 578.78
00005301 DELETE   934.10 172.50 347.59 512.44 997.30 394.96 1146.74 397.13 1048.58 493.08 1012.92 572.74 1130.56 575.42
00005302 DELETE   932.16 177.12 352.46 514.15 1006.29 403.08 1158.47 406.38 1068.42 491.96 1024.26 562.78 1151.54 566.37
00005303 00000067 933.23 172.56 355.18 522.28 1011.05 399.33 1164.63 394.74 1082.79 488.07 1038.79 562.16 1170.36 558.88
00005304 00000068 932.82 166.37 354.88 515.47 1015.15 398.60 1172.10 386.75 1100.48 488.96 1057.10 561.74 1186.42 551.91
00005305 DELETE   932.80 158.90 354.06 517.16 1018.71 394.64 1176.98 372.31 1114.48 479.73 1071.81 563.54 1197.85 545.09
00005306 00000070 931.39 153.21 354.87 523.41 1020.19 393.12 1178.34 362.12 1123.56 476.25 1079.90 564.94 1207.43 539.06
00005307 00000071 924.10 147.20 358.85 522.70 1017.91 389.33 1177.06 355.01 1124.90 468.45 1080.57 561.81 1207.36 532.99
00005308 00000072 918.66 144.93 357.70 525.35 1012.68 385.13 1165.94 355.39 1116.27 463.97 1068.25 559.85 1192.66 534.92
00005309 00000073 908.39 147.42 362.88 529.73 999.09 384.31 1155.59 355.95 1101.03 470.89 1054.00 564.20 1185.04 540.26
00005310 00000074 905.23 155.04 356.77 523.02 981.42 391.93 1140.60 352.53 1079.55 476.99 1036.35 570.87 1171.41 538.32
00005311 00000075 901.81 162.17 353.71 517.24 974.10 392.15 1128.34 359.61 1066.26 480.09 1022.30 568.53 1156.09 542.36
00005312 00000076 899.65 165.65 351.40 514.15 966.92 391.39 1121.66 368.10 1053.54 484.24 1007.97 566.74 1143.20 548.96
00005313 00000077 896.26 173.65 352.19 508.83 961.67 394.82 1117.07 377.08 1039.11 488.92 995.53 566.96 1134.00 553.67
00005314 00000078 895.31 176.11 350.67 509.17 956.42 397.85 1115.33 384.08 1027.61 493.65 986.05 567.64 1130.97 557.28
00005315 00000079 894.37 180.99 351.87 507.31 955.68 397.88 1114.00 389.42 1020.68 496.35 981.04 568.12 1125.40 561.84
00005316 00000080 895.79 183.89 352.52 507.64 956.08 398.51 1113.80 394.77 1015.14 501.67 978.65 569.80 1122.34 567.39
00005317 00000081 897.13 185.83 354.97 511.03 957.83 400.11 1115.45 400.25 1013.88 509.41 979.31 576.58 1118.75 577.28
00005318 00000082 898.41 187.70 356.73 508.23 960.36 402.72 1115.66 404.39 1017.60 517.61 985.24 580.99 1117.13 582.82
00005319 00000083 899.04 192.69 359.57 502.91 962.31 404.79 1118.24 407.17 1022.83 523.67 989.03 583.98 1118.56 586.46
00005320 00000084 899.74 191.78 366.34 506.99 965.30 408.82 1124.38 409.36 1029.77 529.90 995.30 589.12 1125.71 589.85
00005321 00000085 901.12 197.66 368.27 501.04 969.55 412.69 1127.47 410.85 1036.15 531.98 1002.89 590.80 1130.22 589.78
00005322 00000086 904.63 203.15 366.00 499.22 972.04 415.05 1130.61 411.28 1042.11 535.40 1008.37 594.57 1134.43 592.01
00005323 00000087 911.80 200.55 352.71 504.52 977.80 413.97 1141.19 415.75 1044.39 531.08 1007.95 597.51 1138.53 599.05
00005324 00000088 914.54 199.62 353.02 507.45 979.82 416.01 1142.56 414.31 1048.63 529.26 1010.35 595.42 1144.12 593.68
00005325 00000089 918.29 197.04 351.70 508.77 983.99 415.24 1143.99 412.83 1052.39 525.64 1013.57 591.28 1148.79 588.99
00005326 00000090 921.60 197.19 351.90 508.88 987.55 413.91 1145.57 409.69 1057.70 525.60 1020.06 587.60 1155.35 583.19
00005327 00000091 923.83 191.91 353.91 518.34 991.63 411.69 1147.86 404.39 1064.53 525.35 1026.28 585.20 1166.09 577.55
00005328 00000092 927.63 187.95 351.62 524.97 997.98 410.13 1151.32 401.60 1070.47 521.86 1032.79 583.42 1173.14 574.62
00005329 00000093 930.04 192.47 352.82 522.20 1007.06 410.47 1160.04 403.84 1080.51 522.98 1037.02 580.44 1180.61 574.39
00005330 00000094 934.96 189.78 350.97 525.95 1013.63 417.36 1163.47 408.65 1088.84 520.66 1044.91 581.97 1184.71 574.40
00005331 00000095 936.74 184.49 353.26 531.50 1019.52 424.44 1168.46 416.16 1098.03 519.20 1052.49 583.97 1189.12 576.62
00005332 00000096 937.91 182.34 353.59 533.28 1023.24 419.47 1173.96 408.31 1105.14 516.98 1056.24 584.12 1193.62 574.65
00005333 00000097 939.27 179.55 351.88 534.25 1024.99 415.48 1175.32 402.91 1109.64 516.33 1058.99 583.46 1195.02 573.00
00005334 00000098 938.61 178.32 352.38 528.93 1024.53 411.42 1176.66 397.58 1111.38 511.70 1058.49 580.82 1194.65 569.61
00005335 00000099 939.39 177.74 349.76 522.51 1024.90 407.68 1177.42 393.82 1112.32 508.68 1057.14 579.48 1190.93 568.74
00005336 00000100 935.58 174.56 350.93 522.18 1019.08 405.29 1175.70 392.87 1108.59 500.89 1057.66 569.28 1190.49 558.82
00005337 00000101 932.98 173.97 352.17 520.26 1016.06 403.33 1173.21 391.32 1104.83 498.28 1056.06 567.44 1187.80 557.21
00005338 00000102 930.71 173.75 354.38 519.01 1012.45 401.31 1171.71 390.23 1100.05 499.61 1052.98 567.91 1183.96 558.50
00005339 00000103 929.09 172.43 354.90 519.67 1009.16 400.55 1167.67 390.20 1093.56 497.40 1048.86 567.29 1178.37 558.78
00005340 00000104 926.62 172.07 356.19 519.40 1005.03 397.64 1163.55 391.31 1085.95 497.88 1042.05 566.16 1170.64 561.02
00005341 00000105 924.89 172.59 357.06 519.89 1001.86 396.47 1159.94 392.10 1080.23 499.39 1036.61 567.79 1162.56 564.40
00005342 00000106 925.91 173.48 354.15 517.91 999.79 400.53 1156.41 397.82 1074.50 498.49 1031.83 568.32 1157.09 566.41
00005343 00000107 923.16 175.01 355.71 518.52 998.62 409.22 1152.16 402.42 1071.57 497.73 1029.19 570.84 1153.40 565.70
00005344 00000108 920.06 177.12 356.82 516.74 995.50 405.24 1151.74 398.71 1068.45 497.39 1026.13 571.72 1149.95 566.93
00005345 00000109 916.92 176.89 358.32 517.75 991.86 400.87 1148.44 398.20 1065.05 500.41 1023.39 571.93 1144.00 570.19
00005346 00000110 917.83 168.73 359.04 521.76 989.25 395.92 1145.62 388.48 1059.26 499.98 1024.38 581.84 1144.58 575.86
00005347 00000111 916.81 168.70 358.84 522.19 988.70 394.88 1145.11 387.01 1058.41 499.58 1024.44 581.92 1143.88 575.62
00005348 00000112 915.67 168.60 359.08 522.37 987.73 395.57 1144.30 386.77 1058.84 499.26 1024.40 582.18 1145.00 575.09
00005349 00000113 915.34 168.03 359.33 523.98 989.71 394.81 1145.57 387.12 1061.46 498.39 1024.84 579.81 1148.33 573.65
00005350 00000114 916.93 168.62 359.24 521.83 992.27 394.43 1147.73 387.16 1064.47 496.84 1025.14 575.74 1152.59 569.96
00005351 00000115 919.11 168.79 359.08 522.69 993.97 394.61 1150.00 386.60 1068.31 498.03 1027.41 573.60 1158.63 567.06
00005352 00000116 922.42 169.76 356.71 520.67 996.55 394.90 1153.48 386.54 1071.89 498.67 1029.81 570.40 1163.44 563.49
00005353 00000117 925.42 169.55 354.68 519.98 999.16 396.47 1156.13 386.68 1076.06 501.03 1032.05 569.19 1167.77 561.18
00005354 00000118 926.99 169.90 355.12 520.17 1003.61 398.02 1160.59 388.02 1081.12 501.37 1036.38 568.72 1171.32 560.42
00005355 00000119 924.48 174.65 355.20 515.00 1006.55 401.66 1171.48 395.80 1092.47 499.97 1032.58 557.00 1181.54 551.64
00005356 00000120 926.64 174.14 353.33 515.99 1010.43 402.90 1174.95 395.88 1098.82 499.80 1036.81 556.83 1186.81 550.38
00005357 00000121 929.10 174.35 350.88 518.21 1014.52 402.93 1177.26 396.23 1104.20 501.05 1039.97 556.31 1190.24 550.19
00005358 00000122 932.43 177.02 348.35 514.49 1018.14 403.73 1181.25 394.84 1108.58 498.59 1043.16 556.70 1195.21 548.73
00005359 00000123 934.37 175.96 347.03 516.65 1021.39 404.39 1184.87 395.16 1112.86 499.57 1046.36 558.08 1198.47 549.94
00005360 00000124 935.48 175.57 347.65 517.93 1022.77 406.17 1187.41 395.66 1115.23 502.21 1049.15 560.28 1201.98 551.04
00005361 00000125 937.18 175.61 347.84 518.33 1023.88 407.73 1188.85 397.33 1116.18 504.39 1049.61 561.59 1202.27 552.42
00005362 00000126 937.79 173.17 348.88 519.99 1024.48 408.23 1190.18 398.47 1117.00 503.85 1050.25 562.11 1202.69 553.40
00005363 00000127 938.38 173.49 348.89 520.24 1025.18 407.25 1190.17 398.33 1118.03 504.78 1052.26 563.73 1201.32 555.90
00005364 00000128 939.22 173.14 348.52 518.29 1024.76 406.36 1190.91 397.33 1118.19 506.05 1053.89 565.98 1200.75 558.16
00005365 00000129 940.07 174.64 348.30 516.92 1025.61 406.27 1190.94 397.53 1118.68 505.85 1054.73 566.31 1200.23 558.73
00005366 00000130 941.56 176.55 347.58 515.48 1027.12 408.73 1190.51 400.25 1118.77 506.10 1056.18 566.90 1199.94 559.42
00005367 00000131 942.87 177.29 346.68 515.81 1027.70 408.73 1189.86 400.40 1118.59 506.19 1056.84 567.37 1199.33 560.04
00005368 00000132 944.34 176.21 345.81 517.84 1028.54 408.53 1190.02 400.40 1118.39 506.39 1057.22 567.80 1199.19 560.70
00005369 00000133 948.34 178.18 345.19 516.38 1032.46 407.67 1189.00 400.35 1119.36 511.16 1057.32 575.66 1195.65 570.14
00005370 00000134 948.85 179.41 345.27 515.85 1032.73 407.54 1189.13 400.82 1118.80 512.01 1056.47 575.29 1195.37 570.36
00005371 00000135 948.99 179.36 345.75 516.59 1032.93 407.40 1189.87 400.59 1119.47 511.81 1056.97 575.64 1196.49 570.61
00005372 00000136 949.06 179.28 346.39 516.77 1032.78 408.14 1190.75 400.97 1119.94 512.02 1056.32 574.86 1198.88 569.54
00005373 00000137 949.87 180.78 346.26 515.46 1033.44 407.53 1190.89 400.20 1119.36 511.10 1055.62 571.68 1200.18 566.42
00005374 00000138 949.80 179.79 346.15 516.62 1033.77 407.31 1191.46 399.53 1119.96 509.89 1054.19 569.38 1201.40 563.83
00005375 00000139 947.05 178.64 344.70 517.58 1031.03 408.41 1191.32 400.28 1116.86 504.31 1052.52 562.59 1201.46 555.24
00005376 00000140 950.10 179.45 345.32 517.97 1033.49 406.82 1192.26 398.52 1119.84 508.80 1051.59 566.90 1203.55 560.98
00005377 00000141 947.06 178.33 344.57 516.59 1030.58 408.51 1192.30 399.99 1117.23 504.10 1051.73 561.83 1202.92 554.08
00005378 00000142 946.91 178.26 344.54 515.20 1030.10 408.33 1192.61 399.14 1117.11 503.65 1051.27 561.17 1203.88 552.76
00005379 00000143 946.19 177.56 344.71 514.78 1029.58 407.35 1193.03 398.19 1117.28 503.38 1050.80 560.59 1204.10 552.22
00005380 00000144 946.01 176.92 344.42 515.08 1028.85 407.25 1193.12 398.02 1116.81 503.52 1049.66 560.35 1204.50 551.95
00005381 00000145 946.48 177.54 344.04 517.03 1029.26 407.19 1192.10 398.29 1116.15 503.42 1048.77 560.07 1203.87 551.99
00005382 00000146 949.43 178.02 345.42 524.40 1032.52 405.09 1193.28 395.67 1119.77 508.13 1048.73 565.41 1207.48 558.53
00005383 00000147 950.00 178.32 346.34 529.94 1033.24 404.41 1193.01 395.96 1118.65 509.05 1048.64 564.68 1208.12 558.39
00005384 00000148 950.06 181.00 345.65 522.92 1032.22 406.47 1192.99 397.93 1118.06 511.86 1048.19 565.41 1207.81 559.26
00005385 00000149 946.92 179.94 344.83 516.51 1028.59 410.51 1192.07 401.10 1115.38 507.58 1047.50 562.64 1204.04 554.25
00005386 00000150 946.66 180.19 345.49 516.38 1029.09 410.66 1192.36 401.31 1115.64 507.62 1047.38 562.27 1204.07 553.99
00005387 00000151 948.99 182.02 346.90 519.22 1032.28 409.14 1193.48 400.34 1119.54 513.87 1048.17 566.22 1207.40 559.93
00005388 00000152 947.66 181.29 348.44 520.21 1032.96 410.01 1192.58 403.50 1119.58 514.91 1050.18 569.91 1203.04 565.36
00005389 00000153 947.95 179.97 347.83 521.77 1032.59 410.09 1190.98 405.76 1117.74 515.81 1052.09 575.35 1198.04 572.40
00005390 00000154 945.99 179.88 349.31 521.87 1034.16 414.74 1190.37 410.66 1118.77 516.25 1056.95 581.37 1193.76 578.60
00005391 00000155 944.19 178.47 350.52 521.44 1032.28 423.43 1190.92 417.66 1116.43 512.00 1053.11 577.11 1193.35 572.27
00005392 00000156 947.41 179.24 345.86 520.43 1032.97 418.57 1191.06 416.78 1116.14 517.28 1056.35 584.30 1191.60 583.50
00005393 00000157 946.48 179.43 347.25 521.03 1032.05 416.07 1191.62 413.08 1117.06 519.51 1055.53 585.24 1191.94 583.30
00005394 00000158 946.99 180.84 347.71 523.41 1032.01 415.26 1191.04 411.03 1117.54 520.26 1055.91 585.68 1194.39 582.56
00005395 00000159 947.53 182.28 347.76 521.90 1032.66 413.40 1190.69 409.29 1117.07 519.73 1055.63 583.11 1194.76 580.10
00005396 00000160 948.47 183.61 347.81 522.06 1033.33 413.00 1192.19 408.14 1117.58 520.83 1052.03 577.51 1198.85 574.23
00005397 00000161 949.15 185.16 347.71 518.65 1034.11 412.61 1192.83 407.12 1118.51 519.54 1051.32 573.39 1201.06 569.82
00005398 00000162 950.77 184.94 346.58 517.67 1034.09 412.15 1193.53 405.63 1118.52 519.23 1050.24 569.93 1204.52 565.55
00005399 00000163 951.34 184.96 346.51 517.01 1034.03 411.68 1193.62 404.18 1118.63 518.02 1049.89 567.35 1206.35 562.19
00005400 00000164 950.58 184.17 347.78 517.80 1034.01 411.05 1193.79 402.50 1119.38 516.68 1049.48 564.80 1208.49 558.79
