Video ID: 	Y82TJEy4400
H: 	1080
W: 	1920
FPS: 	25.0

FRAME INDEX X0 Y0 W H [Landmarks (5 Points)]

00001313 00000000 770.22 108.59 509.04 727.88 868.31 364.19 1104.93 373.62 959.78 530.80 884.17 630.95 1089.60 639.62
00001314 DELETE   779.98 119.31 514.74 723.08 877.59 372.22 1115.15 383.77 969.41 542.56 896.40 640.44 1095.25 650.83
00001315 00000002 795.35 125.32 504.52 712.60 884.86 384.12 1121.86 396.45 972.67 550.20 904.47 647.78 1095.74 658.60
00001316 00000003 806.19 135.70 499.29 706.56 896.22 387.23 1129.20 403.90 978.89 556.82 912.70 653.45 1091.44 668.46
00001317 00000004 814.80 145.90 497.81 696.82 903.34 388.30 1134.70 406.87 983.00 560.58 920.02 654.01 1095.58 670.52
00001318 00000005 820.72 149.52 497.61 690.92 906.92 392.32 1141.84 408.61 988.45 561.72 929.05 667.46 1101.52 681.67
00001319 00000006 829.20 149.77 498.46 693.71 909.45 395.10 1150.60 407.32 997.15 562.48 934.73 675.06 1113.82 685.89
00001320 00000007 835.31 145.71 498.35 706.31 915.01 394.24 1160.04 407.16 1003.23 563.63 933.56 676.10 1120.51 688.19
00001321 00000008 839.45 146.99 502.24 711.97 922.30 392.70 1167.89 408.28 1012.77 564.54 942.79 680.51 1123.92 694.96
00001322 00000009 844.57 146.72 502.96 707.29 926.54 396.51 1169.46 408.88 1017.42 567.74 954.13 687.01 1126.54 698.64
00001323 00000010 849.77 141.61 500.41 707.43 932.89 391.94 1172.22 405.69 1025.73 560.08 960.35 681.39 1123.06 694.60
00001324 00000011 849.51 142.05 501.87 703.70 934.42 391.90 1173.00 405.92 1028.01 559.49 962.70 679.15 1124.75 692.53
00001325 00000012 848.61 142.51 501.42 705.04 934.32 392.34 1173.05 405.92 1029.24 559.40 963.26 680.53 1124.54 693.64
00001326 00000013 847.09 139.68 502.15 710.65 933.30 392.09 1171.54 405.14 1028.15 558.92 961.38 679.23 1124.08 691.97
00001327 00000014 843.36 137.62 501.13 712.93 930.25 390.40 1168.95 404.81 1024.21 556.80 955.40 674.90 1121.11 688.78
00001328 00000015 836.46 146.97 503.28 703.47 923.50 394.32 1163.03 406.03 1013.27 558.47 947.54 672.83 1122.04 684.08
00001329 00000016 827.53 143.55 506.03 703.41 919.58 390.87 1158.98 401.04 1011.30 554.76 940.12 662.46 1128.53 672.02
00001330 00000017 820.66 143.38 509.26 702.28 914.48 390.16 1154.63 399.37 1007.06 554.98 933.82 657.53 1129.31 665.88
00001331 00000018 811.94 141.60 515.03 707.81 908.84 383.24 1148.76 393.01 1000.55 553.56 929.83 650.18 1129.21 657.75
00001332 00000019 804.65 133.92 516.37 714.47 903.14 380.67 1143.90 388.41 996.83 549.20 925.93 647.70 1126.12 653.54
00001333 00000020 798.58 126.15 514.48 719.23 897.08 378.53 1136.40 384.64 991.27 543.47 918.55 641.97 1121.46 646.27
00001334 00000021 789.33 118.22 515.25 728.59 890.75 376.47 1129.36 381.07 988.13 541.87 912.05 639.75 1120.83 642.63
00001335 00000022 779.93 117.05 516.84 725.96 883.88 374.27 1124.46 376.77 986.33 541.61 910.30 639.74 1115.82 641.20
00001336 00000023 772.02 115.95 517.10 718.00 879.58 376.19 1124.35 374.41 989.07 541.45 922.10 655.40 1101.65 654.85
00001337 00000024 764.95 117.71 517.05 716.39 874.76 376.74 1123.11 374.11 996.87 545.85 923.70 666.24 1094.16 663.71
00001338 00000025 758.24 113.83 516.85 724.29 876.04 376.50 1122.21 367.61 1004.07 540.24 928.34 668.23 1097.24 660.42
00001339 00000026 759.26 102.59 515.22 736.59 884.85 384.22 1128.98 375.90 1013.17 538.10 926.90 662.43 1107.02 655.20
00001340 00000027 761.28 104.78 513.71 728.54 892.05 394.38 1133.87 381.77 1023.69 536.14 932.29 660.94 1119.13 650.01
00001341 00000028 761.16 101.80 513.97 736.88 904.68 400.77 1137.26 385.68 1038.17 532.52 943.95 659.64 1131.40 646.66
00001342 00000029 761.50 107.42 518.11 732.76 911.56 397.16 1143.44 379.95 1049.74 530.12 953.64 654.64 1144.82 639.73
00001343 00000030 760.15 107.79 519.44 729.64 916.92 389.10 1147.73 372.29 1057.79 530.82 961.15 651.92 1149.16 637.03
00001344 00000031 763.00 113.20 513.15 717.43 921.83 385.16 1152.03 368.75 1065.64 537.52 968.99 656.29 1146.59 641.94
00001345 00000032 763.87 117.51 509.65 713.84 928.00 382.61 1157.24 365.48 1075.95 540.02 976.93 660.86 1150.85 645.71
00001346 00000033 766.08 112.27 507.42 715.01 935.26 378.36 1163.42 359.65 1088.40 533.95 993.91 665.85 1157.27 648.73
00001347 00000034 771.22 104.71 497.84 722.48 943.44 373.13 1166.98 355.51 1099.50 529.31 1006.56 667.36 1160.56 651.15
00001348 00000035 772.73 94.48 497.69 733.00 948.11 368.44 1171.35 350.46 1105.59 524.18 1009.79 662.67 1165.79 645.71
00001349 00000036 772.44 94.54 501.89 729.72 947.58 366.33 1174.73 349.24 1106.36 524.46 1005.36 658.64 1167.56 642.15
00001350 00000037 773.41 94.01 501.96 726.45 944.77 366.07 1177.85 349.67 1105.42 526.14 1000.29 655.20 1172.32 639.22
00001351 00000038 774.64 92.54 501.27 724.52 943.25 367.47 1179.39 350.21 1104.64 528.76 998.38 654.97 1172.70 638.25
00001352 00000039 774.28 94.26 503.95 726.97 946.59 370.57 1177.95 354.79 1105.08 531.94 998.14 654.05 1171.35 638.83
00001353 00000040 772.31 106.73 509.54 717.84 945.94 376.75 1174.73 361.28 1100.83 532.91 993.72 651.36 1170.92 636.54
00001354 00000041 771.67 115.41 510.97 713.08 944.55 378.95 1174.08 364.41 1098.13 536.85 988.88 651.23 1171.48 637.56
00001355 00000042 771.96 115.86 511.47 712.81 944.72 379.77 1173.51 365.78 1097.55 538.02 988.06 651.12 1170.42 637.98
00001356 00000043 773.67 111.70 510.81 709.15 945.87 377.93 1176.80 364.98 1099.47 535.76 991.02 649.02 1170.30 636.31
00001357 00000044 777.74 104.29 508.83 709.02 945.84 374.12 1182.97 359.02 1103.94 537.03 994.15 653.07 1174.30 638.44
00001358 00000045 778.75 101.96 507.00 711.22 947.27 371.61 1185.02 358.33 1105.32 533.87 996.17 653.23 1174.02 640.01
00001359 00000046 779.62 99.20 507.74 715.55 948.05 369.09 1186.26 355.40 1106.84 532.47 996.58 654.20 1173.47 640.64
00001360 00000047 781.44 104.68 510.57 714.40 952.93 367.58 1187.32 355.32 1108.46 529.95 997.01 649.27 1173.78 637.01
00001361 00000048 782.13 108.89 512.16 714.37 958.41 367.83 1188.31 356.53 1110.46 530.44 998.60 646.52 1176.43 635.05
00001362 00000049 782.63 120.98 514.35 712.81 961.91 372.40 1191.26 364.11 1110.00 531.74 997.49 643.17 1175.43 632.84
00001363 00000050 784.22 120.99 514.11 712.80 966.24 374.35 1194.07 366.18 1115.34 533.42 1005.01 646.30 1178.11 635.98
00001364 00000051 786.83 115.34 512.18 708.01 970.92 371.03 1197.45 361.37 1123.47 530.98 1014.37 648.04 1186.77 637.45
00001365 00000052 789.15 109.00 509.05 709.62 972.47 368.49 1199.67 359.66 1126.15 527.48 1017.45 645.83 1187.62 635.86
00001366 00000053 790.80 106.72 508.38 711.24 971.53 367.79 1200.24 359.00 1126.01 526.52 1015.92 645.51 1186.93 635.67
00001367 00000054 790.95 107.80 507.77 710.24 970.36 368.06 1199.53 359.16 1124.65 528.16 1014.14 646.97 1185.38 637.04
00001368 00000055 790.37 110.21 507.35 707.56 967.12 368.56 1196.90 358.65 1120.84 528.25 1011.51 647.03 1184.60 636.33
00001369 00000056 791.25 108.08 504.67 705.38 963.41 368.00 1195.21 357.79 1116.19 529.78 1005.75 647.52 1179.95 636.80
00001370 00000057 790.63 110.12 502.12 697.71 957.85 368.82 1192.50 358.53 1110.72 533.40 997.61 649.52 1173.86 639.20
00001371 DELETE   785.00 120.89 508.95 694.24 949.89 382.09 1181.76 372.15 1099.96 534.11 989.51 655.27 1165.42 645.92
00001372 DELETE   784.30 121.29 509.86 701.26 944.84 395.23 1179.44 392.23 1088.55 541.21 979.16 664.29 1158.32 661.34
00001373 00000060 782.37 120.64 510.65 719.64 937.26 394.81 1169.93 391.34 1075.73 543.65 969.42 665.30 1151.86 662.22
00001374 00000061 779.50 130.24 513.21 712.81 930.52 398.73 1163.60 397.03 1063.04 545.38 956.89 663.07 1145.45 662.03
00001375 00000062 776.95 132.18 515.33 709.41 924.71 402.13 1159.09 401.33 1055.84 548.79 948.54 661.39 1139.95 661.52
00001376 00000063 774.39 131.89 514.66 708.88 922.19 404.08 1157.14 400.26 1055.21 553.20 955.77 669.19 1133.66 666.69
00001377 00000064 775.37 132.57 512.03 707.68 917.81 404.09 1155.50 400.34 1052.03 557.00 952.41 674.32 1127.73 672.07
00001378 00000065 773.76 134.78 512.60 700.53 914.92 403.65 1153.86 401.39 1046.61 556.90 949.62 671.76 1125.79 670.86
00001379 00000066 772.62 134.45 513.73 699.18 913.25 401.98 1153.38 401.69 1042.72 555.71 943.29 665.97 1125.86 666.66
00001380 00000067 773.11 134.27 513.37 695.76 910.60 401.40 1153.18 402.61 1038.52 557.07 939.41 662.91 1125.92 664.78
00001381 00000068 772.59 133.16 515.44 697.07 910.19 401.63 1152.74 403.88 1036.18 557.77 936.40 659.88 1127.11 662.61
00001382 00000069 772.45 133.67 516.55 696.05 910.78 401.20 1152.79 405.07 1035.07 557.81 933.50 657.02 1126.05 661.05
00001383 00000070 772.19 131.85 518.52 697.94 910.11 401.47 1151.71 405.08 1034.01 557.11 933.19 655.75 1127.86 659.30
00001384 00000071 773.59 130.80 519.89 698.53 910.94 401.74 1152.75 405.89 1033.94 555.98 933.50 654.09 1130.21 657.99
00001385 00000072 775.61 132.08 520.84 702.51 913.67 402.00 1155.25 407.12 1035.45 555.75 934.50 655.92 1131.31 660.70
00001386 00000073 778.22 132.56 520.34 702.20 915.49 402.24 1156.62 407.58 1036.62 555.44 935.31 655.77 1132.23 660.75
00001387 00000074 782.33 134.58 519.04 699.56 918.07 401.07 1159.43 406.84 1039.17 552.22 938.23 655.23 1134.46 660.47
00001388 00000075 785.75 136.43 518.87 694.45 922.76 400.20 1164.00 407.08 1043.10 550.10 941.50 653.02 1137.52 659.00
00001389 00000076 790.74 137.16 516.47 690.98 926.76 399.42 1167.32 407.10 1045.94 549.64 943.68 651.59 1138.23 658.15
00001390 00000077 793.88 136.97 515.10 692.14 932.23 397.86 1171.56 406.87 1050.62 548.49 946.53 649.52 1142.05 657.06
00001391 00000078 797.22 135.87 512.26 693.65 935.64 395.98 1175.72 406.76 1054.09 547.01 948.46 647.59 1145.72 656.63
00001392 00000079 800.34 135.12 512.09 690.81 938.76 393.05 1181.68 405.40 1057.84 546.91 952.21 647.00 1151.21 657.32
00001393 00000080 801.93 131.75 512.43 691.75 941.65 391.49 1185.39 403.72 1062.12 546.20 953.71 646.03 1153.33 656.25
00001394 00000081 802.86 131.23 512.38 693.48 944.70 390.04 1187.72 403.75 1065.03 545.20 954.23 644.43 1154.68 655.87
00001395 00000082 804.62 130.97 512.92 695.48 948.25 388.73 1189.42 403.91 1067.49 544.44 954.94 642.57 1155.61 655.37
00001396 00000083 800.29 123.12 522.46 713.72 951.60 385.65 1189.09 403.66 1068.63 547.73 956.19 640.93 1153.79 655.66
00001397 00000084 800.41 122.09 524.66 721.81 953.41 382.90 1188.67 403.35 1067.68 545.86 954.86 639.88 1152.66 656.62
00001398 00000085 801.13 119.61 524.83 724.38 953.38 382.89 1188.69 402.81 1067.44 545.37 954.95 640.86 1153.23 657.16
00001399 00000086 801.12 119.63 524.09 721.88 951.14 382.68 1186.80 401.32 1065.63 545.40 954.46 640.09 1154.35 655.32
00001400 00000087 801.44 119.92 524.78 720.32 950.72 383.06 1186.93 401.50 1065.05 545.24 954.94 640.69 1154.07 655.72
00001401 00000088 802.42 119.19 523.75 717.83 949.96 382.72 1187.15 401.88 1063.87 545.17 954.47 640.10 1153.52 655.76
00001402 00000089 804.16 118.89 522.15 715.75 949.91 382.34 1188.66 402.32 1063.75 545.42 954.10 641.20 1152.20 657.70
00001403 00000090 805.43 118.08 521.57 716.99 950.95 381.79 1189.69 402.51 1064.60 545.15 955.21 642.19 1151.25 659.45
00001404 00000091 806.35 116.10 520.94 716.35 950.90 381.41 1191.73 401.87 1065.40 544.91 957.16 642.49 1151.76 659.47
00001405 00000092 812.96 110.41 511.21 721.00 955.83 383.27 1191.28 404.74 1065.47 542.85 954.89 648.24 1144.41 666.77
00001406 00000093 813.64 109.97 512.05 717.33 957.10 383.77 1193.02 404.65 1066.50 542.11 957.21 649.45 1142.92 667.61
00001407 00000094 814.19 111.18 511.45 712.71 957.58 383.10 1193.79 403.55 1067.47 541.31 958.84 649.88 1141.78 667.80
00001408 00000095 815.50 109.72 512.64 717.41 959.18 382.66 1196.01 403.30 1068.42 540.95 960.52 651.88 1142.62 669.95
00001409 00000096 815.92 110.11 513.82 716.35 959.53 382.28 1196.88 403.18 1068.65 541.15 959.69 652.57 1140.83 670.79
00001410 00000097 816.92 110.70 512.48 713.44 959.06 382.09 1197.19 403.40 1068.89 542.51 959.03 653.50 1139.71 672.07
00001411 00000098 818.22 110.40 511.39 716.06 959.12 382.20 1197.06 402.76 1069.72 541.60 960.97 655.83 1139.90 673.71
00001412 00000099 814.97 113.18 516.35 708.60 957.36 382.66 1199.21 400.18 1075.90 544.17 968.42 653.62 1142.41 669.03
00001413 00000100 815.17 115.15 516.70 706.93 958.73 383.58 1199.71 401.07 1075.79 543.98 972.17 655.96 1138.66 671.41
00001414 00000101 814.28 118.44 517.72 707.95 958.86 383.94 1197.69 399.89 1075.50 545.46 975.59 659.47 1135.53 673.76
00001415 00000102 814.87 118.08 515.10 706.50 957.35 385.25 1196.32 399.68 1074.78 546.52 977.35 661.47 1134.78 674.53
00001416 00000103 814.66 119.32 514.42 705.90 955.15 387.24 1195.54 400.92 1073.79 549.58 976.37 663.15 1135.46 675.83
00001417 00000104 813.32 125.77 514.17 705.98 955.38 390.74 1194.71 405.09 1072.66 550.92 974.00 662.83 1139.29 676.21
00001418 00000105 811.19 130.92 514.52 705.11 950.50 392.65 1191.52 408.34 1067.90 554.89 963.66 661.13 1143.37 675.33
00001419 00000106 814.28 144.44 505.36 690.63 941.81 399.19 1183.71 417.41 1053.66 554.74 951.21 659.87 1139.28 675.10
00001420 00000107 814.03 148.45 501.80 681.62 938.83 402.88 1178.72 419.70 1049.36 558.23 949.70 656.31 1141.16 670.55
00001421 00000108 809.79 150.59 502.25 682.68 933.70 404.88 1173.16 422.57 1041.13 558.93 941.51 653.69 1138.30 668.63
00001422 00000109 808.06 155.00 502.09 675.91 927.39 405.33 1168.47 420.06 1035.98 558.96 939.12 653.71 1138.95 666.25
00001423 00000110 805.12 157.50 502.66 669.19 920.89 407.21 1163.09 421.33 1027.58 561.49 933.24 652.43 1134.81 664.39
00001424 00000111 801.25 155.14 500.66 667.06 912.98 411.08 1155.32 425.61 1015.70 567.03 927.05 658.09 1124.18 670.26
00001425 00000112 791.50 143.59 504.83 674.52 907.33 403.97 1148.08 418.14 1014.38 562.51 920.17 658.98 1110.48 671.45
00001426 00000113 787.90 129.46 508.01 685.09 902.22 390.00 1145.59 400.93 1012.84 554.01 921.87 653.78 1109.49 663.76
00001427 DELETE   788.46 102.93 509.15 716.22 903.18 375.63 1146.34 376.31 1019.00 530.30 929.01 644.92 1122.46 646.14
00001428 DELETE   780.30 76.73 514.88 722.66 904.29 356.20 1147.97 346.74 1030.23 497.17 944.35 628.24 1131.58 621.24
00001429 00000116 773.22 64.00 516.22 717.53 893.44 339.74 1136.59 319.09 1027.12 475.57 950.60 614.25 1132.48 597.23
CROP_BBOX: 394 0 1615 1080
