Video ID: 	vDY23Bi5Rjs
H: 	2160
W: 	3840
FPS: 	23.976023976023978

FRAME INDEX X0 Y0 W H [Landmarks (5 Points)]

00014075 00000000 822.79 306.36 732.62 1006.27 1083.49 793.96 1395.33 737.20 1298.57 968.30 1167.94 1089.97 1413.28 1042.74
00014076 00000001 821.03 304.47 733.81 1006.40 1082.67 793.28 1396.16 734.58 1299.18 965.40 1169.40 1091.22 1413.04 1042.41
00014077 00000002 824.55 295.20 731.71 1008.65 1083.12 784.97 1396.36 728.82 1297.71 953.58 1169.59 1084.39 1413.29 1038.01
00014078 00000003 826.84 290.34 730.05 994.08 1081.91 778.49 1396.97 721.53 1297.55 945.56 1175.87 1079.30 1415.18 1032.85
00014079 00000004 826.46 291.26 732.02 984.74 1081.96 777.68 1398.96 720.39 1298.71 945.18 1178.00 1075.19 1417.70 1028.79
00014080 DELETE   824.85 297.62 734.30 978.70 1079.51 777.65 1400.86 719.17 1298.46 946.03 1175.05 1075.98 1418.41 1028.60
00014081 00000006 821.78 303.03 735.71 978.99 1078.00 789.18 1397.60 728.28 1296.00 948.48 1170.20 1078.15 1414.30 1028.82
00014082 00000007 822.16 306.77 738.72 996.58 1083.58 808.41 1396.82 745.53 1300.93 969.81 1169.56 1088.41 1417.28 1035.74
00014083 00000008 821.88 321.68 736.94 991.74 1082.16 825.28 1396.16 754.72 1304.14 987.16 1167.89 1101.31 1420.39 1041.68
00014084 00000009 823.99 327.84 735.22 988.62 1083.81 831.30 1398.17 758.71 1305.92 990.63 1166.43 1103.89 1423.72 1042.90
00014085 00000010 823.47 323.16 736.59 992.73 1083.14 825.90 1397.47 756.89 1303.18 987.74 1165.52 1100.11 1422.21 1042.01
00014086 00000011 829.17 317.41 732.75 991.09 1087.67 811.61 1400.27 747.41 1304.51 976.91 1166.95 1089.45 1419.73 1035.90
00014087 00000012 830.55 317.76 731.55 977.02 1088.86 805.29 1403.42 741.66 1306.66 969.28 1169.14 1081.42 1419.17 1029.26
00014088 00000013 830.70 314.34 732.66 979.34 1090.84 806.33 1405.58 741.67 1310.41 969.51 1172.88 1081.45 1422.11 1028.73
00014089 00000014 831.87 317.14 732.21 981.30 1095.73 815.94 1409.18 749.31 1317.10 975.67 1173.57 1084.85 1425.36 1030.21
00014090 DELETE   830.23 316.55 732.48 989.04 1098.90 826.04 1409.76 759.87 1322.60 980.02 1177.24 1092.83 1429.68 1037.89
00014091 00000016 833.95 322.80 729.16 984.77 1102.17 834.66 1413.11 762.56 1327.93 988.77 1182.91 1099.87 1435.16 1040.00
00014092 00000017 846.47 312.19 729.97 996.91 1120.70 848.55 1437.86 742.26 1360.16 993.34 1207.64 1115.75 1472.54 1033.62
00014093 00000018 846.46 310.16 731.46 1000.23 1123.00 846.85 1440.54 741.44 1361.82 993.24 1208.79 1114.23 1473.77 1032.87
00014094 00000019 844.93 313.32 734.12 996.46 1121.66 842.46 1440.62 737.39 1361.16 991.08 1207.30 1112.46 1474.54 1031.26
00014095 00000020 845.58 312.43 732.58 997.25 1122.14 840.68 1440.68 736.02 1361.01 989.13 1206.41 1111.19 1474.31 1030.19
00014096 00000021 845.02 313.85 735.44 996.81 1119.75 838.47 1437.54 733.20 1357.08 985.92 1202.85 1109.19 1472.33 1027.65
00014097 00000022 845.54 313.97 737.09 998.39 1118.45 836.10 1437.15 732.16 1355.22 986.06 1201.25 1109.33 1471.58 1028.75
00014098 00000023 844.37 314.10 738.98 998.58 1117.09 835.01 1434.31 732.13 1353.18 985.36 1199.53 1109.18 1469.44 1029.12
00014099 00000024 846.42 313.24 736.09 1000.74 1118.03 835.15 1433.86 732.77 1353.04 983.58 1198.70 1109.11 1468.09 1029.44
00014100 00000025 846.87 313.83 731.96 1001.03 1116.45 834.23 1433.36 732.23 1351.85 983.06 1196.92 1110.30 1466.35 1030.77
00014101 00000026 847.12 314.39 732.03 1001.38 1116.20 833.29 1434.85 732.32 1351.69 983.58 1196.47 1109.45 1466.26 1030.88
00014102 00000027 846.35 313.68 734.05 1002.24 1116.32 834.52 1434.97 733.17 1351.70 983.27 1196.64 1110.84 1467.36 1031.88
00014103 00000028 842.88 322.16 725.61 991.05 1102.66 820.20 1413.64 754.86 1322.91 982.53 1182.10 1092.27 1438.54 1038.03
00014104 00000029 844.92 311.26 735.67 1003.66 1115.73 833.32 1434.91 732.13 1350.67 983.28 1196.28 1110.17 1465.70 1031.32
00014105 00000030 845.90 313.12 734.44 1001.77 1116.46 832.93 1434.71 731.17 1351.81 982.03 1196.81 1109.32 1466.67 1030.00
00014106 00000031 846.74 311.19 731.75 1001.32 1116.17 832.45 1434.01 730.76 1350.79 980.73 1196.23 1109.07 1465.34 1029.82
00014107 00000032 849.46 311.14 732.01 1000.52 1115.89 829.96 1432.38 729.15 1348.66 978.79 1197.13 1107.68 1463.06 1028.99
00014108 00000033 848.71 309.72 735.14 1004.58 1114.89 827.67 1430.69 729.24 1346.02 977.31 1194.04 1106.12 1461.64 1029.18
00014109 00000034 845.71 307.48 736.40 1006.04 1112.46 825.80 1428.27 729.10 1343.58 976.00 1191.16 1104.67 1458.69 1029.05
00014110 00000035 844.63 306.97 737.43 1008.43 1110.69 827.13 1427.06 728.40 1341.69 977.91 1189.63 1106.32 1459.06 1028.91
00014111 00000036 840.23 315.07 729.97 998.17 1102.02 816.20 1408.68 751.15 1319.01 983.39 1178.97 1088.67 1432.63 1034.97
00014112 00000037 849.35 307.79 731.18 1007.99 1111.09 828.66 1425.31 730.69 1339.92 980.48 1187.34 1108.33 1457.92 1031.47
00014113 00000038 848.14 309.46 731.56 1007.88 1111.65 832.91 1426.06 732.99 1341.25 985.45 1188.58 1110.56 1461.93 1032.34
00014114 00000039 846.05 312.48 731.56 1006.07 1109.44 835.42 1426.41 735.67 1340.87 990.74 1192.08 1114.55 1463.07 1036.59
00014115 00000040 840.92 316.61 732.69 1001.76 1109.72 841.26 1425.58 739.65 1342.78 997.44 1197.90 1117.50 1466.33 1038.34
00014116 00000041 832.23 324.13 730.60 992.32 1096.91 829.53 1412.10 762.62 1320.19 997.21 1176.59 1103.66 1433.83 1048.04
00014117 00000042 832.14 325.19 730.01 992.32 1097.52 830.68 1411.70 763.23 1320.62 998.24 1176.85 1105.03 1433.18 1048.91
00014118 00000043 831.95 326.81 729.34 990.22 1096.48 831.06 1411.54 762.98 1320.09 998.34 1175.31 1104.23 1433.69 1047.72
00014119 00000044 832.49 329.81 731.21 984.48 1098.54 840.81 1409.88 767.01 1321.79 996.45 1175.89 1104.77 1432.78 1043.56
00014120 00000045 837.61 332.83 724.99 985.38 1101.21 841.87 1409.81 765.20 1324.83 1000.74 1177.14 1106.30 1434.60 1043.32
00014121 00000046 842.73 339.69 720.75 982.87 1101.98 840.01 1413.51 765.22 1324.91 1007.14 1176.13 1109.47 1437.24 1048.39
00014122 00000047 840.61 337.52 723.20 987.21 1101.03 839.31 1414.41 768.06 1324.92 1006.69 1176.07 1109.46 1438.51 1051.02
00014123 00000048 842.14 336.62 720.78 988.55 1102.85 836.51 1416.35 769.42 1325.35 1006.77 1177.05 1108.97 1438.64 1053.77
00014124 00000049 845.50 337.74 716.37 987.61 1102.56 835.41 1415.83 769.11 1324.69 1007.79 1177.06 1108.10 1440.27 1053.72
00014125 00000050 844.44 337.34 718.72 988.18 1103.27 835.66 1415.51 768.06 1324.84 1007.32 1176.79 1107.57 1439.34 1052.06
00014126 00000051 841.34 330.61 721.18 990.13 1099.34 834.78 1414.27 768.14 1320.13 1004.47 1175.61 1106.49 1436.91 1051.36
00014127 00000052 840.93 329.56 723.74 992.78 1097.11 833.06 1412.45 767.00 1316.63 1003.32 1173.98 1106.35 1435.66 1051.43
00014128 00000053 841.98 332.18 722.69 991.19 1096.81 831.30 1411.26 766.94 1314.62 1003.13 1173.35 1104.80 1435.59 1051.23
00014129 00000054 840.46 326.95 723.96 996.18 1095.62 828.77 1409.79 764.92 1313.76 1000.73 1170.69 1102.20 1433.22 1049.13
00014130 00000055 852.72 315.10 721.00 1008.93 1105.62 840.20 1422.60 747.36 1332.13 1003.91 1186.25 1116.39 1459.90 1043.44
00014131 00000056 852.01 315.84 723.12 1008.41 1101.86 836.61 1418.63 743.97 1327.06 1001.59 1180.38 1113.97 1457.94 1040.67
00014132 00000057 846.20 312.69 728.02 1009.53 1096.75 831.92 1412.24 741.42 1320.11 996.70 1176.49 1111.62 1451.25 1039.79
00014133 00000058 848.54 309.39 723.33 1011.41 1093.00 829.28 1410.02 737.64 1315.92 992.30 1171.31 1110.46 1447.45 1037.30
00014134 00000059 832.24 323.66 730.88 994.43 1084.94 808.58 1399.99 749.02 1298.35 991.33 1156.39 1087.55 1419.97 1038.48
00014135 00000060 838.22 309.82 729.53 1009.20 1077.62 818.10 1400.49 734.87 1300.99 991.06 1153.40 1105.72 1432.81 1038.62
00014136 00000061 833.00 310.81 730.52 1004.58 1070.65 812.82 1387.91 735.36 1290.35 986.88 1145.66 1099.54 1424.54 1036.48
00014137 00000062 833.03 312.69 723.89 1001.08 1063.77 810.67 1379.89 737.95 1278.97 983.03 1137.19 1096.32 1415.41 1036.86
00014138 00000063 831.59 314.89 723.11 999.35 1058.41 806.93 1372.14 739.95 1269.66 977.66 1128.02 1091.06 1407.95 1036.10
00014139 00000064 829.12 313.45 722.00 1001.12 1055.55 807.43 1368.79 741.54 1264.34 977.71 1125.08 1091.02 1404.54 1036.68
00014140 00000065 825.48 315.31 725.06 1000.52 1055.41 808.50 1368.31 742.60 1264.27 979.24 1124.60 1091.28 1403.42 1036.97
00014141 00000066 822.88 314.29 727.59 1003.00 1053.15 808.03 1366.09 742.66 1261.89 979.65 1121.85 1090.81 1401.87 1036.71
00014142 00000067 822.31 315.92 725.62 1002.30 1053.66 809.51 1366.03 746.03 1261.69 983.00 1121.39 1092.28 1399.59 1039.98
00014143 00000068 821.33 317.87 724.84 1001.85 1051.84 810.91 1364.85 748.41 1258.88 984.88 1118.68 1093.05 1396.66 1041.63
00014144 00000069 819.78 315.73 724.86 1004.29 1051.86 813.41 1364.94 749.29 1258.75 985.80 1118.29 1093.83 1396.76 1041.08
00014145 00000070 819.04 317.21 727.28 1002.57 1049.10 814.11 1363.17 750.94 1255.17 987.18 1116.89 1093.48 1395.93 1041.28
00014146 00000071 818.22 317.47 726.95 1003.56 1045.49 814.16 1359.36 752.59 1250.81 987.46 1114.26 1093.81 1392.55 1042.81
00014147 00000072 815.41 316.60 725.24 1004.44 1042.16 815.25 1357.41 753.27 1248.34 988.77 1112.27 1095.71 1390.75 1044.47
00014148 00000073 814.21 320.69 725.02 1000.74 1039.65 813.72 1357.00 753.00 1246.71 989.88 1110.78 1097.43 1389.02 1047.26
00014149 00000074 810.26 323.06 726.91 997.05 1037.30 818.40 1356.73 754.57 1246.78 992.25 1113.34 1102.03 1389.05 1049.45
00014150 00000075 806.87 323.95 729.05 996.98 1034.44 819.44 1356.98 754.55 1246.77 994.06 1113.99 1105.94 1387.87 1052.70
00014151 00000076 807.14 327.08 728.14 991.79 1035.03 822.76 1357.72 755.96 1247.40 996.40 1116.11 1108.71 1388.29 1053.96
00014152 00000077 806.67 326.42 726.72 994.57 1035.13 823.23 1357.45 756.41 1248.62 999.30 1119.47 1112.85 1388.34 1058.13
00014153 00000078 807.82 327.54 725.97 994.79 1035.83 823.42 1358.13 755.30 1250.12 998.32 1123.99 1116.54 1390.32 1060.82
00014154 00000079 809.48 330.52 723.25 998.45 1036.14 821.59 1357.53 753.96 1248.64 1000.03 1119.99 1117.22 1390.11 1061.72
00014155 00000080 809.83 322.00 722.55 1013.03 1039.73 814.72 1357.00 748.63 1252.18 994.91 1122.16 1113.78 1391.54 1059.51
00014156 00000081 809.98 318.90 722.09 1012.68 1037.94 805.54 1352.85 740.89 1249.98 982.81 1123.37 1110.88 1388.31 1057.66
00014157 00000082 806.07 317.36 725.71 1006.90 1035.41 800.33 1351.95 736.82 1249.13 975.88 1126.66 1109.48 1384.84 1057.34
00014158 00000083 805.17 317.44 725.09 1001.13 1032.28 796.56 1349.28 734.65 1246.67 967.46 1130.22 1110.50 1379.35 1059.75
00014159 00000084 807.41 315.85 717.35 1001.15 1027.39 794.90 1348.46 730.84 1243.78 962.91 1133.57 1119.28 1374.30 1067.44
00014160 00000085 800.58 308.70 715.20 1008.14 1020.68 793.55 1342.23 728.40 1236.31 958.10 1128.50 1121.17 1370.59 1067.83
00014161 00000086 799.41 304.50 713.47 1012.36 1018.53 793.07 1339.21 728.57 1231.89 955.09 1125.46 1119.94 1368.80 1066.82
00014162 00000087 794.76 302.92 719.21 1013.56 1015.47 792.22 1334.06 728.35 1225.98 952.07 1120.17 1113.07 1366.44 1059.88
00014163 00000088 790.25 303.79 721.83 1012.22 1013.43 791.91 1332.31 727.16 1222.49 952.38 1116.34 1107.61 1364.90 1053.63
00014164 00000089 789.54 306.80 720.98 1011.29 1011.88 794.99 1332.46 729.39 1220.87 958.67 1109.60 1106.86 1365.97 1052.14
00014165 00000090 787.76 308.59 722.45 1011.76 1013.04 799.08 1332.92 733.28 1222.10 969.00 1109.00 1107.32 1367.85 1052.63
00014166 00000091 786.23 310.30 721.49 1015.35 1013.23 803.11 1330.35 738.63 1220.44 977.89 1105.15 1109.14 1369.32 1055.37
00014167 00000092 787.22 318.33 721.77 1014.17 1014.17 805.68 1331.28 741.28 1221.34 986.21 1101.52 1111.54 1373.38 1057.75
00014168 00000093 784.79 322.35 719.99 1016.71 1014.29 798.11 1328.60 738.67 1218.43 984.64 1100.22 1112.35 1367.52 1062.60
00014169 00000094 783.14 325.68 725.96 1008.42 1009.51 804.66 1329.06 744.30 1213.37 989.49 1088.60 1108.07 1366.13 1057.67
00014170 00000095 784.40 327.04 724.20 1007.36 1009.01 805.55 1326.81 747.04 1210.14 991.77 1086.37 1106.98 1363.18 1058.11
00014171 00000096 784.11 328.83 723.39 1008.81 1008.92 805.78 1327.59 747.74 1210.81 992.71 1086.50 1109.09 1363.21 1060.68
00014172 00000097 774.32 321.96 739.82 1024.21 988.23 804.58 1318.80 731.77 1217.77 998.33 1081.37 1107.83 1373.57 1050.87
00014173 00000098 774.14 320.16 738.82 1025.57 987.36 806.11 1318.08 732.43 1216.97 999.75 1081.10 1108.33 1374.21 1050.70
00014174 00000099 771.09 319.29 740.00 1027.18 985.83 807.37 1315.72 733.18 1216.70 999.74 1079.26 1106.69 1374.06 1048.74
00014175 00000100 778.64 325.26 721.11 1029.32 997.48 825.42 1308.86 744.21 1211.63 997.47 1086.45 1116.68 1364.27 1048.39
00014176 00000101 764.70 324.95 744.03 1019.68 982.01 811.83 1311.46 734.92 1214.80 1002.71 1077.31 1109.31 1371.08 1049.50
00014177 00000102 763.49 329.31 742.01 1015.34 979.88 812.20 1306.99 735.39 1211.35 1003.35 1074.25 1107.70 1368.46 1048.17
00014178 00000103 759.22 328.46 743.61 1017.60 978.78 810.65 1304.43 734.71 1210.30 1002.13 1072.61 1108.06 1363.97 1049.31
00014179 00000104 758.51 331.62 743.91 1014.99 975.38 807.87 1300.88 733.04 1205.51 1001.15 1072.45 1112.81 1359.30 1054.60
00014180 00000105 754.85 332.84 746.48 1017.43 972.03 809.16 1296.78 732.97 1202.93 999.20 1071.75 1117.24 1356.32 1057.55
00014181 00000106 756.84 335.56 744.33 1016.68 970.59 811.06 1293.85 733.87 1200.40 998.93 1074.81 1120.59 1355.72 1059.71
00014182 00000107 751.51 336.71 747.85 1020.31 969.36 813.45 1291.14 737.34 1198.58 999.03 1077.44 1126.29 1352.56 1065.69
00014183 00000108 750.42 336.97 748.07 1025.32 969.39 816.43 1290.83 739.23 1199.56 1000.46 1078.79 1129.98 1354.24 1068.33
00014184 00000109 747.88 332.17 750.41 1033.33 968.60 820.94 1288.87 740.67 1199.36 1001.12 1082.48 1133.25 1355.37 1068.89
00014185 00000110 748.75 339.88 748.60 1025.26 968.10 822.19 1288.38 741.83 1199.53 1001.96 1082.57 1135.01 1354.46 1070.49
00014186 00000111 746.99 337.80 748.42 1024.39 967.25 823.45 1287.29 743.25 1198.36 1001.05 1084.13 1137.58 1351.43 1073.18
00014187 00000112 743.97 335.94 750.77 1025.87 966.36 822.67 1285.95 742.79 1197.97 1000.51 1084.80 1136.82 1350.51 1072.55
00014188 00000113 744.00 330.48 750.32 1029.54 966.38 822.19 1284.15 742.92 1197.47 998.99 1086.37 1136.94 1348.68 1073.17
00014189 00000114 743.82 331.37 750.43 1029.33 965.74 823.02 1283.51 744.01 1196.21 999.21 1084.87 1137.08 1347.76 1073.42
00014190 00000115 745.68 335.68 748.51 1024.08 965.75 822.08 1285.61 743.52 1196.27 1001.11 1084.45 1137.73 1348.80 1074.51
00014191 00000116 745.84 337.53 748.68 1022.18 966.36 822.10 1287.14 743.58 1197.20 1002.43 1084.43 1137.65 1349.99 1074.47
00014192 00000117 750.94 343.85 745.03 1014.51 969.88 818.88 1291.27 743.89 1198.60 1003.17 1084.50 1138.08 1349.93 1077.93
00014193 00000118 748.89 343.94 748.01 1014.10 971.71 818.30 1291.58 745.51 1199.41 1002.71 1085.53 1136.60 1348.34 1078.30
00014194 00000119 755.64 343.36 742.63 1013.23 974.13 817.28 1295.05 745.31 1200.28 1002.89 1084.88 1136.80 1350.04 1079.32
00014195 00000120 755.52 336.84 744.30 1019.73 975.61 816.64 1295.32 746.36 1200.65 1003.08 1085.16 1135.37 1350.08 1079.39
00014196 00000121 755.82 334.99 745.18 1020.22 976.31 817.09 1295.71 746.53 1200.97 1002.99 1085.02 1133.92 1350.69 1077.83
00014197 00000122 758.72 332.67 743.59 1021.66 978.14 816.56 1298.93 748.31 1200.88 1004.53 1084.30 1133.07 1351.53 1079.19
00014198 00000123 763.39 333.74 740.31 1018.24 979.49 816.32 1298.79 747.01 1201.98 1002.36 1085.69 1132.09 1352.57 1077.45
00014199 00000124 763.70 330.51 739.27 1018.93 979.45 814.85 1299.85 744.50 1202.47 1000.40 1086.60 1130.66 1354.28 1075.23
00014200 00000125 762.48 320.82 741.65 1028.63 978.23 807.77 1302.38 735.51 1204.44 994.50 1086.41 1128.90 1357.49 1071.37
00014201 00000126 782.63 330.58 717.37 1025.54 999.20 821.15 1303.81 744.35 1209.03 987.83 1092.73 1125.24 1353.73 1059.91
00014202 00000127 774.55 331.84 737.78 1012.41 984.64 807.23 1309.74 738.46 1204.73 989.46 1082.07 1117.84 1361.94 1063.90
00014203 00000128 777.41 329.09 735.18 1018.04 985.58 799.51 1311.28 736.77 1204.82 989.06 1076.78 1111.71 1360.51 1063.16
00014204 00000129 784.94 323.13 718.15 1031.99 1000.87 806.58 1308.83 740.42 1203.16 985.48 1079.07 1112.62 1348.55 1057.02
00014205 00000130 776.98 322.76 735.31 1025.95 986.30 792.96 1307.87 740.49 1200.28 992.94 1068.11 1106.95 1349.87 1066.85
00014206 00000131 777.75 322.11 733.96 1028.79 985.49 795.13 1307.45 744.04 1198.90 997.18 1067.46 1110.57 1348.16 1071.50
00014207 00000132 776.64 326.73 735.88 1028.21 988.76 797.11 1309.19 748.42 1200.45 1000.55 1068.92 1112.94 1348.10 1076.21
00014208 00000133 777.99 317.26 734.06 1038.92 987.33 796.77 1307.88 748.15 1200.59 996.85 1076.84 1123.65 1346.34 1086.29
00014209 00000134 782.71 319.73 717.96 1045.73 996.23 816.44 1301.68 753.40 1194.61 993.29 1093.46 1146.33 1337.24 1092.60
00014210 00000135 782.24 322.21 719.18 1034.80 995.95 812.14 1301.15 748.96 1193.72 988.00 1094.52 1142.28 1335.91 1088.88
00014211 00000136 387.17 128.13 495.83 683.62
00014212 00000137 777.06 316.28 725.88 1041.27 995.41 803.38 1303.41 738.56 1195.01 980.86 1083.15 1129.65 1333.72 1075.17
00014213 00000138 778.80 317.71 721.03 1049.50 996.48 801.41 1306.75 736.83 1199.90 976.74 1074.49 1125.23 1337.48 1071.09
00014214 00000139 780.07 313.93 720.00 1065.21 998.86 800.74 1310.54 738.29 1203.59 977.40 1070.80 1126.78 1341.36 1074.19
00014215 00000140 782.69 312.35 719.98 1069.92 1000.03 801.13 1312.48 738.17 1205.69 977.36 1070.71 1128.59 1343.75 1075.74
00014216 00000141 784.71 306.09 718.73 1070.15 1000.54 801.39 1313.20 735.12 1207.33 975.28 1076.08 1131.07 1345.41 1075.30
00014217 00000142 785.12 303.76 722.62 1054.67 1001.14 801.75 1313.34 731.24 1206.48 975.20 1084.83 1128.30 1346.58 1069.60
00014218 00000143 787.87 301.57 720.29 1047.95 1001.37 801.82 1313.81 731.21 1204.05 975.23 1088.99 1129.53 1344.41 1071.08
00014219 00000144 784.60 302.15 721.52 1047.36 1000.32 800.07 1313.61 730.56 1203.78 973.24 1085.01 1125.65 1343.11 1068.03
00014220 00000145 785.68 304.19 719.33 1048.78 1001.61 800.11 1313.55 729.22 1206.12 971.50 1083.16 1123.46 1345.39 1064.74
00014221 00000146 784.97 309.00 719.02 1041.94 1001.34 801.60 1311.46 731.15 1204.42 972.84 1084.79 1126.28 1340.98 1068.00
00014222 00000147 785.42 311.32 715.79 1035.13 1000.19 803.70 1309.01 735.22 1200.75 979.08 1091.32 1133.85 1335.93 1077.56
00014223 00000148 785.29 312.97 715.58 1031.78 998.51 804.42 1305.93 739.49 1195.73 983.66 1091.60 1136.70 1330.93 1083.15
00014224 00000149 780.76 316.09 720.03 1033.44 996.62 804.02 1304.50 745.35 1192.27 986.79 1083.61 1130.26 1328.47 1081.06
00014225 00000150 776.58 316.69 724.73 1048.00 993.08 803.82 1302.78 747.33 1190.29 987.19 1074.05 1130.17 1330.16 1082.25
00014226 00000151 388.05 119.50 497.68 695.30
00014227 00000152 387.72 119.26 497.75 695.23
00014228 00000153 782.91 324.84 723.65 1032.27 994.12 799.88 1301.09 746.94 1187.61 981.65 1074.89 1125.49 1327.45 1080.57
00014229 00000154 388.37 118.97 497.91 694.96
00014230 00000155 388.88 118.85 497.98 694.81
00014231 00000156 389.40 118.73 498.06 694.66
00014232 00000157 389.91 118.61 498.14 694.51
00014233 00000158 804.95 326.46 729.35 1040.78 1011.89 780.82 1337.96 748.09 1210.71 983.50 1082.01 1119.04 1352.74 1091.50
00014234 00000159 811.94 327.96 729.10 1047.38 1020.06 782.98 1344.23 752.19 1218.38 982.61 1085.98 1121.67 1356.23 1095.82
00014235 00000160 395.00 125.34 498.55 693.60
00014236 00000161 396.80 127.79 498.70 693.28
00014237 00000162 398.60 130.24 498.84 692.97
00014238 00000163 828.68 305.40 741.82 1040.59 1062.76 765.57 1387.16 752.51 1256.16 973.59 1149.87 1118.38 1383.62 1108.27
00014239 00000164 840.49 309.44 735.51 1015.30 1068.16 763.36 1390.60 748.12 1255.95 971.55 1151.38 1108.20 1381.27 1096.69
00014240 00000165 843.61 309.53 732.57 1012.89 1069.06 762.75 1390.25 747.74 1256.26 971.89 1149.78 1103.33 1381.58 1092.05
00014241 00000166 840.95 310.20 735.74 1010.27 1067.43 766.09 1386.98 751.31 1252.86 973.88 1149.08 1102.65 1380.38 1091.34
