Video ID: 	ftY1NlPk5YY
H: 	1080
W: 	1920
FPS: 	25.0

FRAME INDEX X0 Y0 W H [Landmarks (5 Points)]

00006400 00000000 895.89 130.60 480.52 721.39 998.41 435.46 1212.60 390.63 1130.90 586.85 1092.71 694.93 1260.38 657.32
00006401 00000001 894.50 105.34 479.52 733.62 998.97 418.01 1214.17 380.17 1131.18 572.65 1085.13 677.46 1252.95 645.42
00006402 00000002 894.05 102.31 479.13 725.34 995.25 407.44 1210.38 369.43 1122.45 562.05 1070.45 662.66 1246.80 629.74
00006403 00000003 884.29 107.25 487.11 720.29 987.70 410.62 1200.03 365.45 1115.85 555.67 1072.04 670.27 1237.24 631.01
00006404 00000004 886.56 106.61 489.25 723.42 983.18 411.93 1201.62 372.62 1106.16 570.96 1060.24 666.02 1244.61 631.67
00006405 00000005 879.78 130.19 493.92 716.72 970.79 423.84 1192.89 382.33 1092.52 583.29 1058.42 679.45 1240.75 641.22
00006406 00000006 879.72 157.29 491.48 696.49 970.30 440.64 1184.76 400.89 1084.72 597.01 1055.62 683.03 1231.99 646.33
00006407 DELETE   877.88 164.92 484.72 685.92 964.01 468.39 1170.41 420.50 1080.12 608.28 1044.42 694.47 1224.40 654.56
00006408 DELETE   869.67 177.81 480.32 681.88 956.45 471.32 1167.71 426.62 1075.17 619.92 1041.65 705.89 1220.61 669.08
00006409 00000009 867.53 175.56 483.76 687.52 951.39 467.68 1154.82 422.77 1062.89 623.14 1044.71 706.43 1217.30 669.11
00006410 00000010 863.25 165.30 488.59 685.46 946.04 454.23 1152.45 413.23 1056.84 616.94 1039.73 696.12 1212.55 662.16
00006411 DELETE   860.66 146.16 484.02 693.76 943.98 440.05 1147.53 400.60 1051.70 600.45 1031.89 680.25 1205.66 647.09
00006412 00000012 852.88 127.83 497.63 707.31 941.05 420.12 1142.95 382.28 1048.64 579.83 1036.34 669.88 1197.84 637.67
00006413 00000013 854.45 119.44 503.02 708.57 944.80 410.80 1142.76 365.95 1051.72 561.51 1040.76 654.91 1206.87 615.80
00006414 00000014 851.18 117.95 511.77 702.88 948.78 411.39 1154.71 361.07 1065.50 555.36 1044.39 648.65 1221.05 604.62
00006415 00000015 859.68 118.23 507.15 697.70 953.40 420.90 1159.96 361.60 1068.29 550.62 1053.05 649.95 1229.84 596.01
00006416 00000016 863.56 122.07 507.85 693.84 959.04 422.49 1164.50 367.36 1073.33 555.29 1055.23 649.29 1229.80 599.03
00006417 00000017 866.42 130.39 506.62 684.97 960.41 425.21 1169.36 372.48 1077.56 562.82 1053.96 652.42 1231.62 603.97
00006418 00000018 868.15 139.60 500.07 680.81 960.30 429.34 1170.43 378.48 1078.57 575.52 1053.89 656.14 1235.16 609.33
00006419 00000019 872.84 146.19 499.23 679.41 963.46 432.68 1174.26 385.83 1079.69 584.92 1055.01 659.38 1237.39 616.16
00006420 00000020 876.66 148.36 499.92 682.77 966.52 437.42 1177.89 389.11 1083.87 592.37 1059.11 665.06 1242.86 620.58
00006421 00000021 884.08 149.24 496.93 682.63 971.68 439.64 1180.74 387.27 1087.05 588.76 1063.62 669.69 1245.71 621.78
00006422 00000022 878.16 123.17 494.34 708.79 975.62 423.29 1186.61 378.05 1095.08 585.42 1064.98 663.39 1252.48 622.63
00006423 00000023 878.76 115.35 495.04 705.26 976.09 421.26 1185.27 368.60 1100.88 566.70 1073.39 671.03 1242.25 625.36
00006424 00000024 886.76 105.22 486.86 710.38 982.83 416.44 1198.06 361.91 1108.56 564.52 1074.85 664.64 1255.38 617.62
00006425 00000025 891.24 103.57 485.42 710.65 986.62 414.28 1204.35 359.62 1114.13 562.16 1080.59 666.31 1258.07 619.50
00006426 00000026 891.03 104.80 486.66 719.06 989.84 412.93 1204.02 358.99 1117.07 559.91 1085.24 667.81 1257.83 621.68
00006427 00000027 893.60 108.83 481.78 708.79 988.54 414.42 1203.79 362.72 1113.02 565.40 1079.34 664.11 1256.30 620.05
00006428 00000028 892.96 108.45 478.91 708.22 984.81 417.03 1202.79 366.75 1109.09 569.07 1071.87 664.17 1254.55 621.10
00006429 00000029 890.77 109.63 478.59 706.21 982.75 417.86 1199.96 367.51 1106.88 569.47 1068.10 662.75 1254.93 619.38
00006430 00000030 880.88 115.31 487.93 700.55 981.33 416.38 1189.65 367.47 1107.32 560.26 1073.15 661.76 1242.11 618.71
00006431 00000031 883.14 118.25 493.97 704.33 979.19 420.20 1188.86 371.39 1102.78 567.27 1067.43 662.54 1245.40 619.94
00006432 00000032 882.95 123.11 492.76 705.59 980.09 417.85 1194.74 375.38 1100.90 578.54 1064.37 661.91 1251.73 624.06
00006433 00000033 882.58 129.43 493.48 697.35 974.01 427.54 1184.41 380.71 1095.61 580.25 1064.45 674.05 1240.89 633.73
00006434 00000034 882.86 136.46 495.37 687.49 969.13 431.61 1190.36 384.26 1091.43 580.78 1059.86 675.73 1240.56 632.44
00006435 00000035 880.78 143.35 494.71 684.95 965.75 432.26 1183.51 388.54 1085.72 583.19 1055.88 677.29 1235.25 636.60
00006436 00000036 882.70 145.21 478.19 691.36 964.92 432.91 1174.46 392.26 1079.30 588.80 1055.32 681.97 1224.56 643.78
00006437 00000037 882.21 144.93 476.28 695.01 964.79 434.12 1171.37 396.24 1078.03 590.51 1054.00 684.67 1216.42 649.18
00006438 00000038 880.74 144.22 473.51 696.61 962.54 434.71 1170.03 397.03 1077.65 591.24 1050.59 684.74 1214.87 649.61
00006439 00000039 875.06 141.81 476.96 697.12 957.81 431.44 1169.54 394.36 1076.62 595.33 1043.27 679.02 1220.51 647.50
00006440 00000040 873.68 139.14 477.41 698.43 957.46 427.11 1168.96 392.19 1074.91 592.01 1040.53 673.26 1219.51 643.53
00006441 00000041 870.55 135.87 477.67 699.31 954.67 424.51 1166.58 389.11 1072.91 584.56 1034.23 668.34 1216.80 638.22
00006442 00000042 865.08 131.69 478.95 703.13 949.26 419.34 1162.29 386.09 1068.03 579.83 1026.64 663.14 1210.16 634.62
00006443 00000043 865.32 120.41 476.45 709.80 948.81 413.18 1158.86 379.97 1064.32 571.94 1022.64 655.55 1204.44 626.70
00006444 DELETE   861.95 97.29 475.04 720.19 945.53 416.49 1157.97 376.54 1059.27 550.20 1012.72 644.11 1207.80 609.77
00006445 DELETE   845.28 70.28 486.52 729.85 937.73 391.77 1148.66 354.45 1051.12 528.13 1003.61 621.92 1199.53 589.52
00006446 00000046 846.60 76.43 492.03 703.58 933.05 377.91 1135.84 340.07 1029.95 520.78 999.14 601.28 1187.13 567.82
00006447 00000047 844.79 75.53 492.11 702.71 930.88 369.91 1134.64 333.19 1028.27 520.32 996.99 595.03 1187.14 562.46
00006448 00000048 848.76 77.90 488.85 702.29 934.58 370.30 1138.76 334.61 1031.90 524.66 1001.82 596.22 1190.73 564.73
00006449 00000049 852.29 75.62 484.87 711.07 937.71 373.33 1147.14 339.42 1046.03 527.19 1008.57 607.65 1201.17 578.83
00006450 00000050 855.91 82.41 482.11 715.33 940.71 381.90 1147.85 347.43 1048.22 539.33 1012.66 615.17 1207.76 585.49
00006451 00000051 851.80 110.40 484.65 701.10 942.05 388.22 1144.74 357.85 1045.02 551.11 1019.24 629.19 1197.94 601.04
00006452 00000052 853.04 117.16 484.67 702.31 942.52 400.84 1144.55 371.72 1045.50 562.47 1018.82 640.48 1195.45 614.12
00006453 00000053 848.60 120.35 490.29 699.94 941.22 405.87 1149.77 379.82 1049.21 573.26 1013.74 642.76 1194.57 619.20
00006454 00000054 851.83 119.27 485.27 703.81 937.22 407.73 1154.48 379.01 1042.83 581.40 1007.06 640.88 1198.32 614.44
00006455 00000055 858.21 119.93 475.37 696.50 945.35 407.19 1156.71 379.20 1058.97 569.69 1012.31 638.60 1200.38 613.54
00006456 00000056 860.87 111.34 477.32 698.78 954.96 403.63 1165.23 366.51 1076.06 548.87 1024.67 633.80 1213.09 600.78
00006457 00000057 861.59 105.69 490.94 697.77 961.47 397.05 1174.54 355.27 1088.32 536.98 1035.29 625.28 1225.72 587.89
00006458 00000058 875.01 96.20 480.51 697.86 971.28 394.75 1181.89 347.73 1098.83 529.43 1049.32 626.88 1234.17 584.72
00006459 00000059 880.17 78.22 484.15 714.56 977.62 391.54 1194.13 339.17 1112.87 531.65 1059.17 626.30 1251.40 581.63
00006460 00000060 880.89 85.32 486.80 716.88 990.45 402.46 1206.67 347.49 1123.14 544.22 1066.85 630.47 1269.87 582.42
00006461 00000061 883.47 95.74 487.70 718.36 998.18 412.19 1211.14 353.01 1132.91 546.85 1076.98 638.75 1277.18 587.35
00006462 DELETE   882.62 119.31 495.21 709.91 997.98 427.71 1211.91 364.24 1135.49 553.57 1079.19 656.24 1273.38 599.14
00006463 00000063 889.42 138.18 488.93 711.62 1008.23 438.05 1218.39 384.22 1145.85 573.35 1078.17 663.33 1273.32 614.73
00006464 00000064 882.59 148.28 491.08 712.11 1001.46 451.50 1214.41 396.03 1140.22 592.24 1075.25 671.92 1288.78 623.74
00006465 00000065 895.50 183.06 488.03 678.39 1007.30 476.67 1217.70 420.15 1140.38 612.13 1077.89 686.42 1273.01 635.75
00006466 00000066 889.28 197.73 484.40 669.75 1003.38 491.76 1210.06 433.81 1138.68 633.91 1061.02 689.27 1273.94 639.94
00006467 00000067 889.49 209.74 482.50 661.64 997.48 498.48 1204.32 443.72 1128.43 650.46 1058.40 696.19 1271.77 650.10
00006468 00000068 888.24 219.73 482.43 657.56 997.49 503.46 1207.61 452.05 1128.08 664.58 1055.45 702.56 1271.92 660.03
00006469 00000069 887.10 225.71 479.83 653.32 995.23 509.46 1204.90 460.16 1124.00 671.32 1056.60 710.76 1267.47 669.98
00006470 00000070 885.49 234.01 480.35 645.76 993.57 516.46 1202.05 466.82 1122.46 676.93 1058.58 717.33 1264.18 676.30
00006471 00000071 885.93 233.35 479.24 652.07 993.79 518.18 1202.78 469.96 1122.05 680.46 1059.10 720.42 1265.33 680.49
00006472 00000072 884.72 231.83 478.10 652.28 991.13 518.42 1200.39 469.82 1120.13 680.28 1058.79 722.33 1263.72 682.00
00006473 00000073 884.34 229.75 478.26 653.96 991.74 515.40 1201.24 466.82 1121.06 676.34 1057.51 720.57 1262.90 680.40
00006474 00000074 884.17 224.68 480.35 657.10 991.19 510.68 1200.58 462.12 1119.52 672.17 1058.18 717.88 1262.82 677.48
00006475 00000075 884.85 220.60 481.87 661.68 990.54 505.47 1198.68 455.93 1117.81 667.46 1060.95 717.84 1263.12 676.41
00006476 00000076 884.57 214.99 483.85 670.78 990.54 501.61 1199.42 452.66 1117.21 665.25 1060.63 716.84 1264.70 675.70
00006477 00000077 888.49 215.13 484.09 669.42 990.37 504.27 1205.14 456.55 1116.53 662.60 1063.46 717.70 1260.54 673.80
00006478 00000078 886.34 213.01 487.05 674.22 990.22 501.62 1205.11 452.74 1117.00 656.58 1064.65 717.38 1260.74 672.21
00006479 00000079 886.54 207.38 483.96 678.27 988.87 500.42 1203.12 449.86 1115.68 650.91 1065.15 717.96 1259.36 671.15
00006480 00000080 883.12 201.77 484.49 684.57 987.92 494.25 1193.80 443.81 1116.50 645.69 1058.71 711.82 1259.79 668.56
00006481 00000081 881.03 197.55 485.43 686.46 986.58 491.19 1191.99 441.41 1116.15 643.59 1062.82 712.46 1258.09 669.44
00006482 00000082 882.07 195.42 484.35 686.30 986.07 488.06 1193.63 439.18 1117.18 641.93 1063.08 711.73 1257.04 669.49
00006483 00000083 884.39 193.02 480.20 687.15 986.61 485.77 1192.24 436.19 1116.19 634.69 1066.75 713.24 1253.16 670.07
00006484 00000084 884.92 189.48 477.16 690.29 984.95 480.51 1192.49 431.69 1115.25 632.39 1069.53 714.93 1250.49 671.88
00006485 00000085 884.77 185.65 475.17 693.27 982.54 476.29 1189.93 430.79 1109.86 627.74 1068.80 716.96 1241.96 676.45
00006486 00000086 883.72 182.83 471.50 694.32 972.38 462.95 1181.77 426.96 1091.84 624.40 1058.41 711.98 1227.84 678.80
00006487 00000087 874.37 174.77 467.49 697.86 961.99 457.37 1172.97 427.53 1079.26 621.50 1043.84 709.76 1210.26 682.55
00006488 00000088 869.16 157.99 463.72 708.90 950.47 450.29 1168.96 418.89 1067.08 618.73 1024.84 699.38 1212.12 673.32
00006489 00000089 868.22 151.53 458.12 707.71 951.51 444.43 1167.57 415.11 1066.42 609.51 1021.51 689.64 1209.12 665.25
00006490 00000090 873.66 148.96 469.22 709.48 962.44 443.76 1178.51 411.91 1081.28 608.19 1034.79 687.73 1222.69 660.56
00006491 00000091 883.40 156.05 475.54 704.92 986.04 454.30 1196.89 415.30 1108.66 601.25 1061.23 689.80 1238.55 653.84
00006492 00000092 892.54 157.58 477.71 697.16 1001.94 462.08 1212.00 410.31 1132.37 598.96 1076.36 688.65 1259.63 641.96
00006493 00000093 891.07 164.04 490.90 690.01 1010.60 465.22 1224.15 406.89 1150.29 604.59 1088.84 688.46 1276.46 636.09
00006494 00000094 896.23 158.60 485.55 703.76 1013.26 459.00 1231.70 408.25 1152.60 610.08 1094.43 691.11 1292.96 647.73
00006495 00000095 888.53 171.45 491.49 694.82 1006.63 468.67 1223.94 413.45 1149.33 614.17 1089.40 703.42 1273.56 654.00
00006496 DELETE   886.58 171.40 479.05 706.38 999.44 467.87 1211.29 419.10 1135.68 616.16 1085.09 713.90 1257.46 670.38
00006497 00000097 880.21 168.22 480.13 711.07 987.13 462.23 1197.49 422.08 1114.58 617.94 1076.38 714.86 1240.63 677.98
00006498 00000098 879.81 166.45 473.61 704.77 980.09 459.88 1193.77 420.33 1107.84 613.34 1068.93 709.24 1235.29 673.40
00006499 00000099 889.14 161.84 467.74 698.06 988.21 460.13 1197.80 418.05 1114.18 610.54 1072.93 706.72 1235.56 668.92
00006500 00000100 893.88 160.95 468.08 689.34 997.69 459.43 1205.77 413.67 1125.58 606.98 1082.05 700.34 1244.97 659.39
00006501 00000101 893.17 164.60 473.65 686.58 999.19 459.90 1211.20 411.32 1130.71 606.13 1081.83 701.12 1251.57 657.68
00006502 00000102 890.19 162.39 475.20 691.73 996.02 459.15 1212.11 412.75 1130.53 609.98 1078.81 700.65 1252.54 659.43
00006503 00000103 884.69 159.17 482.94 707.16 992.64 458.76 1215.12 416.40 1125.30 621.57 1072.72 700.09 1267.04 662.83
00006504 00000104 881.78 162.06 483.00 703.19 993.60 462.19 1208.28 418.16 1128.63 613.87 1077.87 701.82 1250.01 662.57
00006505 00000105 883.78 162.45 482.95 699.36 999.78 472.68 1216.25 429.66 1133.93 616.10 1068.33 696.90 1256.62 660.52
00006506 00000106 901.00 160.15 473.71 697.32 1011.68 476.15 1226.39 429.46 1140.10 615.26 1079.45 691.55 1275.40 651.43
00006507 DELETE   902.78 161.09 474.21 692.79 1012.31 463.66 1225.84 420.06 1141.23 611.90 1082.10 686.58 1277.93 649.23
00006508 00000108 899.88 155.12 476.46 691.76 1006.58 450.76 1224.06 412.51 1133.16 608.30 1077.76 684.78 1267.71 651.99
00006509 00000109 894.44 165.50 477.53 677.57 999.01 455.93 1213.10 414.21 1128.14 608.15 1071.71 683.42 1250.70 645.29
00006510 00000110 895.64 166.12 474.44 678.56 996.74 455.53 1209.84 416.72 1123.25 608.09 1062.68 679.40 1248.15 643.93
00006511 00000111 892.03 169.84 477.09 675.09 996.32 457.38 1210.43 416.59 1125.00 608.78 1061.65 677.21 1252.46 640.15
00006512 00000112 892.76 171.07 477.75 671.61 997.49 458.03 1212.43 414.71 1127.71 609.50 1063.43 676.48 1255.76 637.32
00006513 00000113 893.95 167.30 476.35 674.39 999.41 457.29 1212.09 414.99 1127.18 607.99 1063.46 674.54 1254.59 636.20
00006514 00000114 886.46 157.16 481.05 684.41 995.02 451.08 1208.32 411.87 1122.78 609.13 1060.32 674.66 1253.17 641.30
00006515 00000115 887.51 157.85 480.01 684.84 995.59 451.93 1208.64 412.05 1123.38 608.44 1061.19 676.24 1253.18 642.22
00006516 00000116 894.23 167.30 472.68 671.38 998.35 456.99 1211.79 416.16 1127.61 608.36 1063.99 675.43 1253.13 638.44
00006517 00000117 896.70 165.59 471.20 675.96 1001.27 455.66 1212.92 413.71 1129.84 606.59 1063.19 673.51 1254.60 635.68
00006518 00000118 893.43 163.36 474.03 678.38 999.47 453.76 1212.86 410.27 1130.62 604.01 1063.26 672.31 1256.20 632.95
00006519 00000119 895.91 162.90 472.01 679.00 1002.48 452.69 1214.59 409.65 1132.06 602.40 1063.07 670.66 1257.37 631.66
00006520 00000120 894.20 155.91 472.99 684.74 999.54 448.47 1215.06 404.59 1130.83 599.70 1063.09 670.90 1257.89 631.00
00006521 00000121 896.59 150.86 472.74 688.46 1001.10 444.99 1214.73 403.86 1128.53 596.84 1064.58 671.97 1252.67 634.40
00006522 00000122 891.96 145.09 476.11 693.81 997.18 441.82 1213.95 399.73 1126.94 592.69 1066.57 674.82 1251.87 636.11
00006523 00000123 890.21 142.96 476.26 696.57 996.24 441.41 1213.33 397.43 1127.05 592.01 1069.32 676.65 1253.60 636.22
00006524 00000124 887.65 143.37 480.52 699.51 995.06 440.90 1212.61 396.63 1126.07 591.21 1069.04 677.16 1254.25 636.50
00006525 00000125 888.94 140.95 478.51 701.49 994.58 440.76 1212.34 396.15 1125.26 591.80 1069.11 678.26 1254.95 637.15
00006526 00000126 888.03 142.09 479.65 698.91 994.07 440.77 1211.75 396.01 1125.21 591.83 1068.72 676.78 1254.11 635.66
00006527 00000127 887.36 139.69 482.00 697.97 993.39 439.26 1212.13 396.07 1125.00 591.86 1067.11 672.67 1253.18 632.99
00006528 00000128 886.02 137.46 485.23 699.32 990.26 437.34 1212.97 395.50 1123.25 593.13 1062.81 670.24 1253.74 631.57
00006529 00000129 881.36 130.17 487.66 704.60 982.98 433.13 1209.40 389.76 1118.33 588.89 1061.70 671.63 1252.85 631.26
00006530 00000130 875.65 127.31 494.05 710.17 980.25 429.36 1203.88 382.85 1113.84 578.66 1065.99 672.64 1249.60 629.70
00006531 00000131 875.10 126.72 491.73 709.52 978.10 430.49 1199.95 380.89 1112.59 576.68 1070.41 680.56 1245.11 634.84
00006532 00000132 877.42 135.55 482.40 702.28 979.80 440.08 1196.96 389.79 1114.08 585.73 1072.36 686.34 1242.22 640.54
00006533 00000133 878.51 147.58 477.80 698.85 980.61 452.48 1193.78 400.19 1113.68 594.00 1072.43 692.73 1246.44 645.66
00006534 00000134 877.72 172.07 472.19 678.34 980.01 460.51 1191.38 411.57 1114.45 606.47 1073.14 702.02 1242.20 658.22
00006535 00000135 875.62 178.59 471.33 681.17 979.12 464.64 1187.82 417.86 1112.47 613.93 1071.67 712.05 1235.16 670.45
00006536 00000136 870.69 181.58 476.14 687.27 977.30 469.66 1185.30 421.49 1112.07 620.99 1072.77 719.80 1234.32 677.61
00006537 00000137 867.41 186.76 479.15 684.65 973.90 473.22 1180.36 422.15 1107.66 622.38 1072.22 722.34 1234.86 677.61
00006538 00000138 870.31 185.51 478.22 683.52 971.78 468.34 1180.93 418.43 1104.09 619.65 1063.34 708.41 1241.37 663.83
00006539 00000139 869.76 172.16 476.52 684.11 970.59 458.43 1181.91 411.56 1102.85 606.89 1057.92 691.42 1240.02 648.95
00006540 00000140 868.85 149.38 480.79 697.42 970.13 448.65 1179.55 398.44 1100.07 592.26 1057.28 679.59 1240.18 633.85
00006541 00000141 866.71 136.87 487.82 698.26 967.26 433.55 1184.43 384.56 1099.96 578.61 1054.68 675.37 1235.30 630.52
00006542 00000142 871.28 136.79 482.58 692.42 966.70 430.96 1188.83 383.73 1101.33 578.57 1051.12 677.42 1235.75 634.14
00006543 00000143 870.59 141.44 487.93 697.52 972.01 438.45 1188.27 388.29 1105.41 581.63 1058.30 680.95 1237.93 635.01
00006544 00000144 876.88 155.55 472.99 689.05 975.00 448.22 1182.87 400.32 1102.23 592.26 1062.09 685.73 1233.98 642.24
00006545 00000145 875.80 164.24 475.23 684.97 972.20 453.86 1186.49 409.46 1103.66 601.39 1056.02 690.65 1237.14 650.22
00006546 00000146 875.26 176.76 474.85 676.76 973.94 459.83 1187.52 415.92 1105.78 610.23 1053.38 688.24 1241.99 648.65
00006547 00000147 877.72 180.71 473.54 678.44 977.97 464.22 1189.46 419.45 1109.30 613.58 1051.71 685.33 1247.91 645.20
00006548 00000148 876.94 176.50 473.10 682.39 977.00 462.98 1187.39 417.05 1107.63 610.62 1054.03 683.96 1248.47 642.67
00006549 00000149 877.31 159.90 478.94 688.14 975.41 457.12 1190.35 410.06 1107.12 603.48 1055.18 677.37 1251.24 634.66
00006550 00000150 873.89 143.24 486.67 697.35 976.51 445.18 1192.96 396.90 1108.29 590.68 1055.27 668.20 1251.77 623.99
00006551 00000151 876.50 138.24 490.75 694.49 978.52 435.56 1201.85 386.53 1112.73 586.18 1054.92 662.20 1254.87 617.07
00006552 00000152 879.93 141.67 489.87 691.75 982.20 437.16 1202.87 388.68 1114.01 587.73 1056.98 661.61 1256.06 617.08
00006553 00000153 882.25 146.34 487.66 690.95 983.44 443.91 1202.70 394.33 1114.14 592.73 1058.36 664.40 1258.89 619.04
00006554 00000154 880.25 156.90 483.14 682.19 982.69 453.98 1197.31 402.56 1113.43 598.16 1060.72 667.79 1259.71 621.21
00006555 00000155 880.78 169.33 482.01 673.41 981.31 460.22 1195.17 411.94 1111.72 605.94 1056.98 671.58 1257.12 627.94
00006556 00000156 879.56 172.85 480.03 673.96 980.23 461.33 1196.20 416.09 1112.49 610.12 1056.83 675.84 1254.87 635.09
00006557 00000157 879.38 171.40 479.60 675.52 979.53 459.79 1196.09 415.52 1111.32 608.11 1056.72 678.63 1252.09 638.48
00006558 00000158 875.62 160.90 481.74 684.74 976.93 455.10 1194.83 409.99 1110.26 603.61 1056.09 676.47 1251.99 635.44
00006559 00000159 875.63 153.01 483.16 691.51 977.45 450.92 1192.85 405.67 1107.55 597.46 1055.04 672.24 1250.76 630.71
CROP_BBOX: 542 0 1686 1050
