Video ID: 	XZTInSL9FfQ
H: 	1080
W: 	1920
FPS: 	25.0

FRAME INDEX X0 Y0 W H [Landmarks (5 Points)]

00007733 00000000 735.13 179.90 382.61 602.94 771.60 422.37 934.26 416.13 800.58 517.83 785.50 636.38 918.68 633.36
00007734 00000001 728.84 180.54 397.91 611.31 774.82 430.12 932.89 420.64 790.75 507.98 789.05 640.39 906.90 633.07
00007735 DELETE   725.72 195.15 407.48 600.32 769.31 433.40 925.57 419.46 781.92 510.55 785.14 644.10 903.03 633.10
00007736 00000003 721.07 190.90 406.42 613.56 766.91 438.76 922.60 418.47 780.82 508.93 787.49 654.17 902.21 638.35
00007737 00000004 724.91 194.72 395.40 613.84 767.94 442.35 925.27 415.16 787.62 509.46 795.55 661.70 912.43 639.87
00007738 00000005 727.80 197.10 398.00 610.76 767.86 446.88 923.35 414.12 786.82 510.30 797.66 664.20 914.54 637.79
00007739 00000006 722.53 195.71 407.64 610.44 762.54 447.10 915.23 418.22 777.98 513.29 789.03 660.62 904.43 637.31
00007740 00000007 722.28 197.60 392.26 611.46 752.03 450.70 903.71 425.82 775.31 525.72 777.20 664.33 887.85 644.64
00007741 00000008 722.92 199.36 378.38 600.19 753.53 449.88 907.46 422.22 771.10 516.10 780.34 662.51 894.88 640.27
00007742 00000009 728.02 200.82 380.69 594.99 762.22 450.22 916.44 425.19 777.97 515.11 785.35 658.15 900.48 638.35
00007743 00000010 730.40 202.53 386.53 592.32 763.50 448.56 918.11 424.69 778.15 516.86 782.89 657.29 898.51 638.74
00007744 00000011 730.77 202.57 388.00 588.39 765.06 443.65 917.99 423.53 778.75 512.53 781.39 652.83 892.81 637.49
00007745 00000012 735.64 198.77 384.22 588.07 771.86 438.54 921.07 419.35 784.65 507.67 787.68 649.81 892.63 634.72
00007746 00000013 736.87 199.78 379.98 581.37 777.47 436.61 925.14 417.08 793.25 504.72 793.87 644.10 897.76 628.57
00007747 00000014 736.36 190.59 382.05 588.94 776.14 439.07 925.35 418.15 791.44 502.40 792.10 644.16 897.87 627.46
00007748 00000015 737.81 188.34 383.70 590.39 776.68 438.28 924.91 420.03 789.38 503.47 790.87 643.24 895.74 628.64
00007749 00000016 737.77 188.42 388.79 589.93 777.33 435.45 925.07 418.94 789.16 502.92 791.17 641.00 895.67 627.56
00007750 00000017 738.05 188.00 381.87 587.65 777.20 435.63 925.25 418.46 790.73 501.94 792.26 640.70 894.82 626.89
00007751 00000018 739.31 188.48 382.32 585.24 778.74 433.58 925.71 418.33 790.01 500.41 791.97 637.93 894.57 625.47
00007752 00000019 738.61 186.94 382.66 586.76 778.89 432.44 926.07 417.96 789.08 499.20 790.84 637.01 893.50 625.29
00007753 00000020 739.20 185.42 385.91 590.99 779.94 432.58 926.80 418.06 789.90 500.19 791.74 638.42 894.55 626.65
00007754 00000021 739.85 186.57 385.14 591.62 780.09 432.64 926.89 418.45 790.40 501.54 791.03 639.69 894.21 628.27
00007755 00000022 739.19 186.88 384.88 592.05 778.87 432.64 926.34 418.60 789.46 501.36 790.67 640.43 893.11 629.17
00007756 00000023 737.96 191.12 381.42 587.54 778.97 433.24 924.49 418.84 787.36 500.44 789.35 640.59 889.22 629.07
00007757 00000024 737.95 189.18 378.83 589.65 778.64 433.44 921.88 421.41 783.48 500.12 787.55 639.08 887.49 629.43
00007758 00000025 736.89 187.80 382.21 592.63 778.64 433.94 922.50 421.20 783.39 500.26 787.63 640.04 888.02 629.84
00007759 00000026 736.38 187.19 382.41 594.17 778.10 434.54 922.82 422.40 783.06 501.15 786.16 640.75 887.57 631.20
00007760 00000027 733.57 185.60 387.28 596.35 775.99 435.44 923.39 426.60 780.77 503.90 781.58 640.25 885.49 633.51
00007761 00000028 732.32 186.15 386.47 595.13 773.35 436.86 921.43 429.03 778.60 505.82 779.23 641.00 883.48 635.33
00007762 00000029 730.76 186.45 388.22 593.73 771.98 435.23 919.96 427.95 777.02 504.86 778.20 639.01 882.56 633.66
00007763 00000030 728.16 186.32 384.61 590.18 769.85 433.24 918.97 425.95 775.91 502.65 774.82 635.86 879.96 630.82
00007764 00000031 729.10 185.64 379.89 588.92 771.00 430.06 919.94 425.99 775.52 502.17 773.53 633.22 878.70 630.96
00007765 00000032 731.15 182.54 379.65 594.58 773.66 430.75 922.26 427.77 779.94 505.74 777.67 635.92 882.80 634.54
00007766 00000033 734.40 187.17 374.32 590.82 777.37 432.43 922.49 429.36 783.63 509.43 780.69 640.15 881.10 638.60
00007767 00000034 735.95 188.07 370.72 587.92 777.48 432.12 922.06 429.05 784.16 510.06 779.61 641.55 877.06 640.19
00007768 00000035 734.94 185.98 374.12 588.78 778.26 431.69 924.99 429.62 785.21 507.77 780.06 639.48 880.21 638.69
00007769 00000036 736.51 184.29 381.18 589.16 782.19 430.02 929.61 428.25 790.48 505.84 784.05 635.31 886.37 634.25
00007770 00000037 737.83 181.14 381.50 596.99 783.49 430.69 933.11 426.15 795.65 505.60 791.02 638.23 895.12 634.51
00007771 00000038 738.57 182.60 378.56 595.70 782.14 432.02 932.32 427.49 795.49 507.10 790.68 639.47 894.41 635.73
00007772 00000039 739.46 184.26 378.03 595.97 782.96 431.77 931.50 427.35 795.71 507.59 792.65 640.22 894.99 636.33
00007773 00000040 739.69 183.96 378.22 603.87 784.30 433.82 934.64 425.98 798.51 506.14 794.59 645.73 897.17 639.32
00007774 DELETE   741.19 184.85 382.30 607.29 788.54 436.29 936.12 427.93 800.03 504.89 796.09 646.85 897.20 640.44
00007775 DELETE   740.35 187.55 382.67 607.75 789.03 437.51 930.35 425.39 793.46 500.65 793.52 649.93 890.43 640.61
00007776 00000043 734.54 179.08 384.24 615.27 781.19 433.17 931.56 423.84 787.71 500.33 785.94 649.94 886.78 642.84
00007777 00000044 734.90 182.11 384.79 610.97 784.68 430.86 934.06 416.58 794.04 494.25 792.04 646.83 892.29 635.60
00007778 00000045 740.08 185.72 378.85 605.83 780.63 417.28 928.36 408.41 798.50 500.53 792.84 645.30 896.04 642.07
00007779 00000046 739.50 178.92 379.60 613.39 787.36 423.71 943.14 406.35 805.05 489.49 805.44 647.03 906.81 632.95
00007780 00000047 737.56 174.28 380.89 610.40 785.89 423.59 939.21 407.76 800.83 489.17 802.60 642.24 904.20 629.31
00007781 DELETE   733.00 177.74 392.39 600.58 779.39 423.28 930.57 412.74 789.30 491.66 790.10 636.08 893.70 627.69
00007782 00000049 726.57 183.67 394.67 591.33 770.59 419.42 923.83 414.66 778.11 492.59 775.31 630.68 883.16 627.56
00007783 00000050 732.31 171.26 377.31 602.45 759.21 420.49 915.34 412.15 781.37 498.05 764.11 634.84 872.64 630.10
00007784 00000051 732.36 169.97 378.69 602.09 757.34 419.24 912.59 411.20 777.61 498.01 763.63 632.30 872.31 627.52
00007785 00000052 729.04 168.55 369.78 598.28 755.54 418.67 914.56 410.71 777.65 494.56 761.99 629.95 872.95 625.12
00007786 00000053 731.45 165.56 364.98 599.36 758.66 418.76 918.29 410.24 781.02 494.02 766.74 629.66 881.18 624.21
00007787 00000054 730.61 165.35 365.07 604.65 760.14 416.97 916.90 407.26 779.35 491.91 769.30 628.03 885.53 621.36
00007788 00000055 725.67 172.24 362.46 602.03 756.69 418.27 910.51 409.17 772.79 493.57 765.27 629.80 879.14 623.59
00007789 00000056 723.26 175.71 368.72 593.00 764.16 413.26 905.95 409.65 761.01 490.23 769.56 623.80 879.58 621.18
00007790 00000057 730.83 162.07 360.10 597.56 763.37 407.98 921.53 399.76 782.92 483.78 772.43 619.97 884.28 614.31
00007791 00000058 731.39 169.88 374.73 583.98 780.03 403.82 926.58 401.16 779.77 476.94 779.27 607.47 890.56 606.49
00007792 00000059 730.76 170.21 377.82 580.64 781.73 402.17 930.53 400.92 782.11 472.95 778.19 606.11 889.41 606.48
00007793 00000060 733.98 160.62 374.08 587.95 768.65 403.48 927.02 393.12 788.83 476.27 771.49 612.99 881.80 606.30
00007794 00000061 731.07 162.43 375.43 585.35 768.19 402.16 926.81 392.93 787.29 474.58 770.26 610.15 883.48 604.19
00007795 00000062 731.62 166.93 375.90 581.69 785.63 398.53 936.15 401.65 783.69 470.24 777.90 602.08 890.55 606.18
00007796 00000063 732.36 165.63 375.85 582.96 786.90 397.40 939.62 399.77 785.54 468.66 779.36 602.22 893.62 605.92
00007797 00000064 732.46 166.64 374.98 577.17 779.22 391.67 933.69 394.30 796.04 476.28 774.31 601.55 896.24 606.49
00007798 00000065 733.23 164.99 374.68 585.66 778.39 392.66 936.03 393.31 796.96 478.05 774.70 604.95 904.37 607.92
00007799 00000066 736.47 164.84 374.84 589.29 782.52 392.40 942.36 391.71 803.24 477.82 781.15 603.64 917.22 604.98
00007800 00000067 734.79 167.66 376.97 600.92 789.75 401.80 947.41 400.94 798.58 474.26 789.96 612.28 909.67 612.33
00007801 00000068 735.03 172.41 369.21 594.96 787.30 402.43 942.14 402.95 789.91 473.94 783.70 615.05 897.14 616.63
00007802 00000069 737.59 171.41 375.90 587.95 787.15 399.17 943.41 400.12 791.62 475.72 784.58 612.38 896.66 614.65
00007803 00000070 740.27 165.30 357.34 578.49 798.68 396.95 948.62 399.47 799.20 467.02 793.16 603.82 894.95 607.29
00007804 00000071 747.91 162.93 364.35 570.52 798.37 386.28 945.17 391.26 813.84 466.24 792.00 591.26 899.02 599.77
00007805 00000072 748.44 160.04 369.86 576.46 797.68 385.62 942.88 389.70 807.81 466.56 788.95 592.48 895.84 600.25
00007806 00000073 739.93 159.27 378.07 586.84 797.28 393.45 945.93 396.75 789.11 463.58 784.85 600.85 885.91 605.08
00007807 00000074 750.60 161.81 369.49 575.47 794.96 387.17 941.64 389.98 804.27 467.05 787.59 594.72 898.05 601.44
00007808 00000075 751.64 161.29 360.60 572.59 796.16 387.46 944.50 392.04 810.73 468.09 791.55 592.94 903.46 600.73
00007809 00000076 754.47 160.73 362.54 571.12 798.25 386.67 944.00 395.24 807.50 469.61 787.74 589.30 897.31 600.45
00007810 00000077 745.77 166.20 367.39 571.07 803.56 390.85 946.72 403.52 793.87 466.73 784.37 589.40 882.78 601.44
00007811 00000078 748.23 166.39 373.07 570.22 807.83 391.29 953.05 401.84 803.09 464.98 788.98 589.18 886.88 599.57
00007812 00000079 761.22 156.26 377.67 573.78 811.79 379.09 950.70 387.00 809.82 462.07 791.96 582.15 899.06 591.98
00007813 00000080 760.73 152.74 374.10 568.31 809.39 371.96 946.46 380.70 805.55 453.26 789.05 573.42 894.65 584.58
00007814 00000081 746.50 156.87 370.10 555.11 801.27 374.34 951.97 382.64 806.26 438.74 785.19 569.55 894.14 576.06
00007815 00000082 743.78 151.18 365.61 547.82 803.62 367.79 953.23 375.60 805.89 425.17 783.60 558.38 890.59 564.82
00007816 00000083 741.64 146.38 371.05 542.65 805.14 363.47 954.97 370.03 805.01 412.11 779.63 547.66 889.01 553.00
00007817 00000084 738.02 149.26 378.79 543.89 803.57 364.56 950.17 367.59 799.93 407.81 775.14 548.81 883.79 551.36
00007818 DELETE   756.10 155.26 363.72 547.58 816.28 360.12 936.65 365.27 802.16 429.89 786.86 553.29 879.81 562.52
00007819 DELETE   764.58 165.02 349.26 536.87 824.76 368.47 960.43 367.08 832.79 429.37 800.57 556.16 908.45 562.31
00007820 00000087 767.71 172.06 350.49 534.55 832.78 372.25 970.57 375.15 841.50 434.63 805.11 559.42 913.83 568.68
00007821 DELETE   762.51 177.99 354.86 537.37 826.39 377.64 952.58 382.88 822.06 441.94 794.67 564.68 890.67 574.60
00007822 00000089 756.71 178.22 372.79 540.77 825.11 382.20 952.16 390.51 818.87 446.16 789.92 567.11 888.46 578.76
00007823 00000090 761.19 181.37 364.06 533.47 823.42 391.65 959.75 392.68 831.33 448.39 801.26 572.02 909.34 577.99
00007824 00000091 760.58 184.58 363.19 529.45 820.17 392.21 961.35 393.14 829.67 446.92 798.40 571.03 913.96 576.86
00007825 00000092 760.89 179.76 370.78 533.66 820.53 386.37 959.33 393.73 821.53 446.95 791.85 567.79 906.99 578.17
00007826 00000093 760.97 182.96 367.26 530.54 822.07 389.61 961.46 396.66 825.43 446.23 793.14 567.65 909.80 577.79
00007827 00000094 761.70 184.70 362.43 529.90 822.33 392.39 962.57 397.74 826.78 444.09 793.90 568.92 912.24 577.71
00007828 00000095 762.91 187.41 360.61 530.97 825.15 394.26 956.34 398.63 821.94 445.22 793.96 570.25 902.44 578.50
00007829 00000096 763.98 187.69 358.56 531.80 823.39 397.83 957.64 400.91 823.83 447.37 795.34 573.45 905.40 580.50
00007830 00000097 762.79 194.79 368.99 527.69 833.39 405.14 975.93 411.93 832.31 457.12 797.66 580.79 913.15 589.87
00007831 00000098 765.76 194.42 367.53 530.93 834.63 405.14 980.23 414.96 834.73 463.38 800.77 582.55 918.09 593.97
00007832 00000099 761.68 193.27 369.98 541.52 830.04 407.41 978.43 418.08 827.96 469.54 796.03 590.23 913.87 602.09
00007833 00000100 753.65 181.73 374.63 567.59 821.03 411.92 983.29 424.83 828.25 474.69 794.05 601.37 913.08 612.90
00007834 00000101 756.40 178.34 373.18 575.13 821.89 414.71 988.51 434.20 835.10 484.27 795.12 607.40 916.20 624.36
00007835 00000102 760.29 182.62 369.70 577.46 827.25 415.34 994.29 443.62 844.96 495.14 798.03 612.71 921.41 637.53
00007836 DELETE   762.42 200.08 365.77 556.80 835.14 410.55 997.94 441.09 860.60 497.47 805.48 600.39 935.14 629.46
00007837 00000104 761.27 204.36 372.96 565.70 846.01 405.17 1007.72 443.37 866.23 493.75 804.13 600.17 933.45 635.92
00007838 00000105 757.94 195.29 381.09 574.79 851.22 402.76 1008.31 441.59 861.95 483.41 799.73 599.29 923.08 635.06
00007839 00000106 754.34 196.76 383.65 571.72 853.19 393.38 1011.45 439.69 857.80 477.27 793.14 588.45 921.42 629.74
00007840 00000107 755.46 190.38 379.98 558.83 847.52 388.20 1005.08 433.14 854.32 466.34 793.45 577.81 922.29 617.63
00007841 00000108 755.67 187.60 379.32 548.64 843.92 384.66 1008.26 429.64 863.90 461.68 801.05 569.62 939.14 608.97
00007842 00000109 758.22 182.46 377.12 549.75 846.58 386.84 1012.07 428.20 872.90 462.71 807.93 573.70 944.62 610.07
00007843 00000110 760.05 186.06 378.39 552.69 848.65 389.97 1015.48 424.22 876.56 464.18 810.16 576.86 949.67 608.01
00007844 DELETE   756.91 180.91 384.08 559.82 840.35 386.13 1001.64 411.55 858.22 461.65 803.48 579.95 937.02 604.20
00007845 DELETE   751.54 181.79 376.20 554.11 833.89 376.86 991.43 394.35 848.91 450.05 799.10 577.21 927.67 595.86
00007846 DELETE   744.22 182.32 375.23 557.51 827.60 385.77 988.44 400.32 826.08 444.82 790.30 578.83 913.73 592.76
00007847 00000114 744.22 189.11 367.78 541.02 821.28 386.93 972.15 393.56 811.76 439.47 784.36 575.98 901.98 583.38
00007848 00000115 741.74 191.06 360.40 535.87 808.25 391.76 959.77 391.43 800.51 444.30 779.91 581.63 895.98 583.32
00007849 00000116 744.61 191.57 349.08 538.08 806.90 386.95 951.27 382.56 790.83 442.57 777.38 583.65 885.36 581.99
00007850 00000117 750.09 193.71 346.76 529.94 814.07 385.23 952.71 379.41 794.90 440.59 779.62 584.26 879.67 581.59
00007851 DELETE   758.87 178.66 339.69 534.10 818.36 370.61 946.92 372.28 812.04 433.80 790.41 567.14 890.29 573.90
00007852 DELETE   758.43 178.43 357.60 533.80 827.34 366.44 964.99 373.39 827.14 429.65 794.53 558.89 908.11 569.90
00007853 DELETE   757.97 179.86 369.85 533.78 832.28 368.79 981.72 380.15 840.73 431.30 797.73 559.84 925.77 574.08
00007854 00000121 762.09 179.96 372.95 537.47 837.55 369.86 993.34 383.19 849.10 434.33 800.59 562.38 934.16 577.63
00007855 DELETE   765.48 180.48 379.34 545.53 838.63 372.50 995.48 387.37 848.72 442.52 802.14 566.49 935.82 582.29
00007856 00000123 765.51 180.83 377.88 553.06 835.67 378.37 991.34 392.74 844.21 445.24 799.97 572.84 930.76 588.04
00007857 00000124 756.39 186.89 378.01 551.21 835.70 393.04 995.00 412.25 836.45 455.96 797.50 583.22 917.40 600.50
00007858 00000125 758.27 189.67 371.26 545.29 840.63 389.71 999.23 419.21 839.33 457.27 794.23 582.09 912.71 608.17
00007859 DELETE   760.85 193.70 372.73 538.05 856.19 379.60 1012.58 416.32 874.99 455.14 806.50 570.06 928.74 603.87
00007860 00000127 771.32 202.56 382.59 541.09 875.33 383.38 1027.41 432.05 867.96 471.18 808.52 576.32 923.66 619.10
00007861 00000128 768.73 191.79 397.09 557.81 872.01 395.63 1023.19 439.28 868.45 473.89 809.76 582.66 923.69 621.15
00007862 DELETE   763.01 194.58 394.59 557.36 857.85 402.52 1012.89 450.54 854.57 477.01 795.61 581.39 918.59 623.44
00007863 00000130 760.10 196.21 386.76 558.40 850.17 402.39 1003.69 448.13 849.82 478.76 792.19 585.54 916.36 625.71
00007864 00000131 765.33 190.14 368.19 559.07 845.27 401.76 998.39 438.56 857.86 479.62 804.39 587.67 925.85 621.17
00007865 00000132 763.32 189.54 370.17 571.62 840.48 407.03 998.82 438.24 860.66 483.80 804.67 596.07 930.73 625.43
00007866 00000133 753.40 192.08 376.73 572.17 832.36 411.85 998.45 448.06 847.49 490.47 794.10 607.23 919.23 638.35
00007867 DELETE   745.51 186.06 376.17 577.94 826.07 414.63 993.15 446.22 841.35 488.47 790.63 610.02 911.71 637.15
00007868 DELETE   740.21 180.76 381.00 588.56 815.37 414.67 983.17 440.09 826.75 485.44 784.16 613.54 904.01 634.87
00007869 DELETE   739.18 180.01 367.83 589.25 805.56 414.89 971.48 437.19 809.66 480.80 773.33 613.86 895.22 632.91
00007870 00000137 738.23 180.68 364.09 587.36 801.90 411.49 963.22 433.46 798.44 479.00 769.62 611.01 891.38 630.12
00007871 00000138 737.31 179.23 365.30 580.08 803.63 407.89 963.48 425.80 800.00 470.67 774.21 603.37 895.95 619.31
00007872 00000139 739.42 176.31 360.82 573.80 809.51 398.84 967.59 414.35 808.43 460.54 787.49 592.34 910.45 605.79
00007873 DELETE   745.37 172.64 358.17 563.36 801.68 386.20 960.42 394.36 822.07 453.53 793.63 581.28 926.99 591.87
CROP_BBOX: 479 0 1407 941
