Video ID: 	j2JUigaFegA
H: 	2160
W: 	3840
FPS: 	29.97002997002997

FRAME INDEX X0 Y0 W H [Landmarks (5 Points)]

00005947 00000000 1503.96 221.68 865.45 1382.07 1776.02 681.29 2225.08 670.26 2104.11 939.94 1853.81 1251.61 2212.02 1238.28
00005948 DELETE   1498.01 199.44 861.07 1382.98 1773.25 656.80 2228.49 660.09 2101.48 914.50 1836.70 1223.70 2201.25 1221.72
00005949 00000002 1467.43 155.74 875.26 1397.90 1749.21 643.13 2186.80 650.16 2057.82 909.87 1808.52 1191.98 2168.57 1196.73
00005950 00000003 1451.87 153.36 869.84 1392.26 1737.76 639.78 2168.18 649.99 2043.35 902.87 1792.27 1182.22 2150.73 1189.97
00005951 00000004 1468.08 181.52 860.48 1380.54 1754.28 634.10 2207.46 652.54 2075.05 895.64 1817.44 1197.09 2173.21 1206.39
00005952 DELETE   1493.91 209.91 863.26 1355.17 1791.00 649.57 2243.20 673.16 2118.60 907.41 1848.04 1205.38 2208.29 1219.36
00005953 00000006 1517.99 234.31 862.55 1345.29 1827.43 670.52 2268.56 681.18 2157.95 945.04 1885.74 1224.31 2234.09 1229.98
00005954 00000007 1529.23 235.95 860.33 1333.85 1863.23 674.54 2287.81 682.93 2196.75 949.28 1922.59 1224.46 2251.48 1229.78
00005955 00000008 1526.26 215.99 863.78 1314.49 1869.99 657.57 2296.68 669.32 2206.13 923.73 1931.28 1202.45 2259.63 1210.44
00005956 DELETE   1510.59 177.47 874.48 1324.10 1864.73 632.07 2288.48 640.55 2196.22 894.56 1928.91 1175.93 2253.09 1180.26
00005957 00000010 1505.49 135.98 873.65 1342.59 1845.93 616.51 2260.93 625.78 2188.07 874.03 1923.99 1149.50 2249.47 1154.49
00005958 00000011 1495.08 124.38 874.46 1340.77 1825.57 604.58 2247.90 619.11 2163.03 860.15 1903.72 1139.51 2233.82 1148.01
00005959 00000012 1482.01 123.99 874.14 1345.84 1804.74 597.76 2227.10 616.07 2135.88 855.45 1885.82 1139.77 2206.57 1151.54
00005960 00000013 1471.47 127.31 875.59 1365.22 1787.92 604.74 2201.48 618.72 2107.59 865.69 1869.11 1150.37 2186.51 1159.29
00005961 00000014 1466.42 131.30 875.40 1382.76 1777.36 613.41 2190.11 622.36 2093.68 873.36 1852.75 1166.28 2173.17 1172.13
00005962 00000015 1468.29 139.78 876.43 1384.16 1777.68 617.94 2192.03 627.02 2095.76 877.78 1851.74 1174.55 2173.57 1180.75
00005963 00000016 1474.93 163.47 876.45 1376.12 1796.47 610.23 2232.03 615.78 2127.22 862.84 1880.32 1186.94 2198.88 1186.45
00005964 00000017 1489.48 165.50 877.43 1366.99 1813.36 610.33 2249.17 610.69 2152.91 855.31 1900.54 1184.06 2223.06 1179.49
00005965 00000018 1499.98 153.65 877.88 1352.98 1832.23 611.69 2263.81 606.04 2171.01 860.77 1921.99 1173.74 2237.40 1164.44
00005966 00000019 1514.83 128.80 873.85 1350.49 1837.15 612.65 2262.21 616.75 2182.60 859.21 1928.57 1155.32 2256.72 1155.29
00005967 00000020 1514.76 128.43 872.42 1344.83 1826.37 601.45 2259.76 608.18 2167.19 850.14 1915.08 1149.06 2247.58 1150.66
00005968 00000021 1517.44 128.42 868.16 1363.41 1817.85 594.64 2253.24 609.75 2150.44 834.47 1899.60 1153.31 2237.31 1162.32
00005969 00000022 1515.49 134.87 870.50 1376.30 1814.08 600.38 2247.42 619.69 2146.95 839.95 1874.47 1151.91 2226.55 1165.46
00005970 00000023 1513.89 143.11 870.83 1371.08 1817.53 612.90 2244.93 629.24 2151.60 859.53 1872.86 1155.74 2225.88 1167.16
00005971 00000024 1520.09 148.97 867.14 1363.81 1827.25 621.35 2255.90 631.89 2163.53 873.83 1886.30 1160.80 2239.40 1167.00
00005972 00000025 1518.73 178.19 863.42 1327.58 1840.28 624.21 2275.02 631.62 2176.43 872.41 1898.17 1167.04 2237.86 1170.44
00005973 00000026 1512.88 184.05 865.08 1329.17 1830.14 624.73 2266.15 632.97 2164.37 876.87 1894.38 1170.67 2230.72 1174.03
00005974 00000027 1505.75 187.80 868.48 1330.76 1819.39 626.33 2256.92 633.88 2147.62 883.27 1889.85 1177.04 2221.07 1178.77
00005975 00000028 1501.40 191.74 873.49 1330.63 1816.27 629.38 2253.65 637.24 2143.70 891.50 1886.51 1179.48 2217.63 1181.15
00005976 00000029 1508.25 202.33 867.07 1316.85 1822.36 633.65 2259.53 648.41 2145.67 899.37 1889.19 1182.41 2218.18 1189.81
00005977 00000030 1518.41 209.68 865.72 1309.95 1838.84 639.55 2274.69 658.50 2169.51 902.92 1899.00 1187.08 2232.94 1199.39
00005978 00000031 1524.69 212.25 863.15 1307.50 1855.10 641.29 2285.68 661.74 2185.96 902.16 1913.36 1190.60 2243.14 1204.85
00005979 00000032 1526.44 213.83 863.75 1312.94 1855.46 641.03 2284.90 662.37 2185.61 901.53 1911.17 1190.04 2242.25 1205.20
00005980 00000033 1520.60 215.90 862.51 1318.60 1838.13 643.55 2269.04 665.72 2163.23 902.73 1892.85 1187.86 2225.27 1203.32
00005981 00000034 1509.86 216.28 856.61 1323.69 1819.19 647.54 2252.15 673.11 2142.15 898.61 1874.17 1193.91 2208.68 1210.83
00005982 00000035 1503.24 217.16 853.48 1340.76 1806.62 659.37 2240.95 683.50 2132.21 908.32 1852.24 1204.97 2204.00 1220.78
00005983 00000036 1504.48 219.55 852.95 1360.05 1807.48 684.10 2231.93 704.04 2129.24 925.63 1849.32 1214.56 2204.55 1227.75
00005984 00000037 1506.52 228.91 858.01 1359.50 1806.73 687.73 2236.85 703.25 2130.38 941.95 1848.93 1226.57 2204.72 1236.84
00005985 00000038 1510.19 232.65 856.19 1355.20 1805.69 683.42 2239.20 701.21 2127.65 940.11 1857.03 1227.86 2206.37 1239.69
00005986 00000039 1509.61 229.66 856.90 1345.08 1802.14 675.89 2240.12 697.32 2120.61 929.20 1858.79 1221.40 2200.84 1235.54
00005987 00000040 1507.61 222.67 850.62 1335.52 1798.28 658.92 2239.59 684.98 2118.78 904.42 1851.53 1205.56 2198.30 1222.55
00005988 00000041 1510.13 208.04 847.22 1333.07 1798.93 643.46 2244.17 662.27 2121.48 892.74 1855.94 1197.35 2200.72 1207.99
00005989 00000042 1511.55 202.88 850.00 1326.43 1808.60 638.66 2249.63 659.43 2131.95 888.10 1867.80 1187.05 2206.42 1199.10
00005990 00000043 1518.35 209.19 858.25 1320.43 1821.73 646.58 2256.87 669.57 2140.09 889.90 1882.06 1179.77 2219.70 1193.90
00005991 00000044 1522.88 220.34 857.58 1313.19 1835.69 677.61 2251.96 697.65 2150.33 893.73 1886.16 1178.40 2228.41 1191.40
00005992 00000045 1519.28 228.17 857.48 1304.88 1833.41 683.94 2250.57 699.71 2149.48 901.11 1879.07 1175.28 2230.34 1184.65
00005993 00000046 1513.19 225.02 858.01 1304.61 1818.46 675.40 2247.27 684.69 2136.74 907.12 1862.74 1170.64 2226.85 1175.02
00005994 00000047 1510.08 226.05 849.10 1302.46 1806.46 667.32 2237.38 671.31 2126.20 905.03 1852.54 1170.45 2215.61 1170.11
00005995 00000048 1511.97 234.35 844.92 1301.61 1803.19 671.56 2233.44 674.73 2123.93 909.58 1844.40 1171.58 2217.08 1170.64
00005996 00000049 1514.46 247.26 843.97 1290.63 1805.44 675.78 2234.42 680.82 2124.97 913.94 1846.84 1171.08 2220.85 1171.56
00005997 00000050 1516.24 257.24 846.72 1286.17 1811.14 680.20 2239.39 689.61 2129.94 921.66 1847.98 1173.01 2224.11 1177.45
00005998 00000051 1517.93 265.21 849.11 1280.44 1816.88 680.86 2242.82 690.29 2139.45 920.84 1854.03 1176.26 2228.58 1181.29
00005999 00000052 1521.88 263.60 847.24 1284.48 1821.43 680.32 2245.44 688.65 2149.74 916.01 1857.40 1178.51 2231.20 1183.08
00006000 00000053 1523.64 266.82 845.71 1290.07 1824.34 680.21 2246.59 688.71 2156.70 916.68 1858.12 1182.36 2234.66 1187.34
00006001 00000054 1523.49 268.73 844.96 1291.17 1826.27 684.44 2245.87 693.77 2157.56 915.61 1859.83 1185.48 2235.16 1191.00
00006002 00000055 1522.88 265.97 845.80 1298.69 1826.57 682.71 2245.56 695.47 2155.05 913.59 1859.16 1185.05 2231.67 1193.32
00006003 00000056 1523.60 266.49 845.03 1299.02 1824.42 681.75 2244.59 694.98 2151.70 914.04 1857.77 1185.72 2229.92 1194.43
00006004 00000057 1523.90 264.38 844.27 1302.92 1822.58 682.57 2244.86 695.41 2148.32 918.53 1854.40 1186.67 2230.09 1195.02
00006005 00000058 1521.57 266.62 841.58 1312.09 1818.26 690.12 2238.33 701.08 2140.97 930.58 1843.70 1191.91 2227.68 1198.94
00006006 00000059 1514.20 267.52 839.12 1318.85 1807.18 701.05 2218.74 708.19 2123.18 943.00 1834.24 1201.81 2214.14 1205.14
00006007 00000060 1506.44 269.91 835.43 1324.55 1785.94 710.79 2195.89 715.20 2096.33 950.65 1814.72 1208.95 2199.91 1209.90
00006008 00000061 1488.45 265.88 838.26 1330.75 1767.74 712.65 2175.17 717.00 2073.65 954.24 1792.90 1210.93 2177.93 1212.30
00006009 00000062 1470.24 267.30 835.92 1332.59 1742.27 713.65 2148.70 711.12 2038.15 961.26 1771.49 1215.25 2154.49 1211.32
00006010 00000063 1462.00 269.41 829.75 1330.17 1728.66 712.19 2137.83 704.75 2020.68 966.06 1757.62 1216.66 2145.73 1209.43
00006011 00000064 1460.85 269.45 835.48 1333.22 1730.17 711.22 2140.46 706.14 2022.43 967.05 1756.06 1217.66 2145.79 1212.36
00006012 00000065 1465.28 268.45 842.54 1336.51 1739.12 711.26 2154.40 713.87 2035.90 965.90 1758.06 1217.53 2153.85 1218.11
00006013 00000066 1476.46 258.56 850.25 1352.87 1753.06 707.56 2167.29 715.08 2050.27 961.13 1765.88 1213.37 2162.99 1217.71
00006014 00000067 1492.52 257.98 848.98 1348.46 1765.46 703.19 2183.11 714.33 2062.19 956.40 1775.32 1206.81 2175.82 1213.94
00006015 00000068 1506.64 254.02 841.43 1340.63 1772.56 696.47 2193.62 711.75 2064.03 950.19 1779.40 1198.41 2181.37 1208.71
00006016 00000069 1517.55 244.46 839.45 1339.09 1778.07 690.59 2202.87 708.20 2056.25 937.94 1782.67 1184.67 2188.14 1196.13
00006017 00000070 1522.35 238.78 844.49 1340.39 1782.85 679.78 2213.87 701.16 2063.38 928.84 1783.30 1176.61 2189.90 1191.64
00006018 00000071 1521.33 230.34 844.34 1349.99 1783.19 672.03 2213.05 698.60 2061.35 921.43 1775.34 1168.16 2181.55 1187.61
00006019 00000072 1510.97 222.69 842.69 1354.53 1770.91 667.06 2203.51 694.49 2051.33 915.47 1764.20 1164.64 2173.28 1184.59
00006020 00000073 1510.59 213.56 840.89 1356.75 1766.80 661.04 2197.05 682.18 2046.51 907.69 1760.31 1160.44 2170.47 1174.99
00006021 00000074 1507.68 181.53 847.61 1343.01 1761.24 658.49 2189.99 679.79 2033.29 905.24 1764.28 1145.61 2166.71 1162.95
00006022 00000075 1508.59 184.48 841.57 1325.77 1763.42 682.56 2184.97 708.78 2024.31 908.27 1768.02 1140.01 2162.17 1160.31
00006023 00000076 1502.66 184.95 841.88 1322.01 1755.94 687.86 2181.15 716.24 2015.64 920.01 1764.40 1150.85 2150.08 1173.40
00006024 00000077 1498.49 198.00 843.56 1330.08 1750.07 694.61 2179.90 723.11 2008.50 935.39 1764.77 1168.71 2147.65 1191.74
00006025 00000078 1504.28 232.70 831.91 1332.83 1753.28 698.75 2182.36 730.06 2019.65 936.67 1761.18 1191.53 2149.05 1214.53
00006026 00000079 1495.91 236.87 833.55 1338.33 1748.53 702.25 2170.57 728.07 2013.07 942.87 1754.07 1198.15 2141.76 1216.77
00006027 00000080 1483.60 241.19 835.11 1341.15 1739.38 699.25 2156.78 719.95 2001.37 952.32 1737.83 1200.18 2127.60 1215.46
00006028 00000081 1472.06 238.56 839.03 1344.09 1732.71 697.30 2147.66 714.33 1997.93 953.45 1734.58 1200.33 2121.59 1212.49
00006029 00000082 1473.47 233.56 838.48 1348.71 1733.06 699.78 2149.55 713.09 2000.20 958.15 1741.42 1203.57 2126.78 1212.20
00006030 00000083 1476.35 233.84 842.48 1345.63 1735.14 706.24 2154.16 718.16 2003.97 963.14 1750.03 1208.88 2133.02 1216.09
00006031 00000084 1474.48 248.71 852.13 1337.25 1730.46 723.15 2149.97 732.55 1997.44 978.91 1755.80 1225.59 2131.94 1230.65
00006032 00000085 1479.18 256.82 850.89 1335.36 1736.10 750.21 2148.54 762.12 1995.83 1000.11 1756.86 1236.61 2132.20 1244.26
00006033 00000086 1479.11 271.66 850.99 1328.33 1732.59 758.00 2145.57 765.22 1993.81 1014.32 1758.87 1249.78 2129.12 1254.11
00006034 00000087 1465.89 281.33 843.61 1320.76 1715.25 763.50 2127.56 770.75 1969.97 1020.91 1738.46 1256.49 2103.76 1261.61
00006035 00000088 1445.18 274.70 839.32 1333.28 1692.75 765.09 2114.64 768.95 1944.09 1010.18 1720.22 1259.12 2084.13 1260.28
00006036 DELETE   1414.24 260.12 847.48 1354.39 1655.48 753.27 2074.55 764.91 1891.31 1000.10 1677.54 1250.91 2044.52 1257.60
00006037 00000090 1396.13 242.10 852.18 1375.59 1618.32 747.27 2049.24 757.89 1851.11 994.17 1637.32 1246.78 2025.86 1252.29
00006038 00000091 1383.97 248.13 853.57 1361.84 1596.40 738.61 2025.61 742.01 1827.43 985.65 1626.14 1243.96 2012.82 1242.65
00006039 00000092 1377.94 246.69 854.48 1365.38 1591.57 734.46 2022.81 736.33 1827.03 984.08 1624.48 1244.06 2011.80 1241.14
00006040 00000093 1379.57 245.25 852.73 1387.29 1600.19 739.86 2029.76 742.15 1841.18 987.74 1629.63 1252.30 2022.22 1249.69
00006041 00000094 1384.64 242.90 852.40 1398.82 1611.73 734.81 2040.85 735.91 1862.43 986.88 1646.67 1259.80 2031.27 1256.13
00006042 00000095 1389.47 234.84 854.22 1408.79 1625.33 729.27 2053.44 734.68 1882.70 972.57 1658.08 1254.12 2042.16 1253.92
00006043 00000096 1401.73 224.99 848.19 1388.80 1636.50 730.29 2065.08 739.47 1890.98 963.49 1665.12 1238.92 2044.77 1243.31
00006044 00000097 1411.42 192.07 856.18 1381.58 1648.04 741.61 2072.70 752.57 1881.06 972.47 1668.44 1221.33 2041.48 1229.88
00006045 00000098 1411.41 190.15 862.02 1378.49 1650.85 738.37 2072.81 751.56 1884.26 977.40 1675.14 1224.93 2035.01 1235.54
00006046 00000099 1405.93 214.26 860.82 1372.21 1638.05 738.66 2073.56 752.86 1889.16 965.72 1670.54 1243.12 2032.03 1253.28
00006047 00000100 1395.64 224.36 869.02 1381.14 1623.96 741.36 2059.74 761.61 1862.31 973.70 1645.74 1249.16 2009.82 1263.96
00006048 00000101 1391.24 240.87 869.76 1370.55 1610.40 741.36 2043.21 765.98 1832.01 975.92 1627.04 1256.67 1982.60 1274.79
00006049 00000102 1387.19 244.25 871.89 1379.10 1602.24 737.09 2036.38 761.58 1818.80 973.88 1615.69 1256.93 1977.55 1275.12
00006050 00000103 1387.10 238.22 873.21 1388.53 1608.14 732.79 2040.97 756.56 1830.81 975.45 1625.10 1260.01 1977.07 1277.80
00006051 00000104 1391.43 231.34 871.91 1389.22 1620.51 732.32 2057.88 756.04 1856.78 975.63 1643.78 1260.10 1998.84 1276.95
00006052 00000105 1398.03 232.37 869.49 1378.70 1629.53 734.67 2071.44 751.75 1875.88 977.14 1658.14 1259.46 2021.23 1271.02
00006053 00000106 1402.78 233.23 867.16 1371.50 1633.15 733.27 2073.42 750.82 1878.35 975.20 1662.73 1255.22 2025.83 1267.34
00006054 00000107 1402.96 233.54 867.07 1369.66 1628.49 731.05 2068.50 749.46 1867.56 974.59 1652.70 1249.56 2021.66 1262.42
00006055 00000108 1396.28 228.01 868.65 1376.71 1619.22 724.39 2061.35 749.78 1854.62 972.35 1631.75 1241.86 2015.86 1259.72
00006056 00000109 1392.86 232.64 865.86 1382.00 1615.41 720.26 2057.55 747.03 1848.74 971.23 1621.77 1240.27 2013.92 1258.86
00006057 00000110 1392.59 226.83 867.13 1401.00 1621.75 722.21 2064.32 751.76 1861.80 974.41 1623.34 1241.03 2023.36 1261.81
00006058 00000111 1402.46 232.95 863.06 1394.48 1639.49 723.48 2076.31 750.06 1879.61 973.49 1646.81 1242.44 2035.83 1260.15
00006059 00000112 1422.59 233.61 856.05 1384.61 1661.56 725.05 2096.74 739.52 1904.21 974.17 1684.17 1255.52 2044.39 1264.29
00006060 00000113 1432.89 231.85 850.72 1347.50 1664.96 725.66 2106.46 734.83 1909.65 979.80 1697.88 1250.16 2049.33 1255.61
00006061 00000114 1426.77 230.65 851.73 1344.10 1656.33 721.47 2098.78 735.72 1899.25 973.04 1687.98 1245.37 2040.09 1254.52
00006062 00000115 1415.70 228.91 855.73 1359.86 1650.17 715.18 2088.85 733.56 1893.44 963.22 1680.45 1244.67 2026.32 1257.04
00006063 00000116 1417.47 239.55 843.12 1358.05 1649.41 707.56 2085.59 732.89 1890.38 945.95 1667.63 1234.11 2029.22 1253.38
00006064 00000117 1424.27 243.72 834.49 1340.68 1659.20 704.08 2092.46 724.78 1905.93 934.72 1678.82 1220.34 2045.67 1236.94
00006065 00000118 1438.48 247.37 825.94 1317.80 1673.44 706.34 2104.37 715.45 1921.59 923.84 1697.71 1208.71 2064.84 1216.63
00006066 00000119 1449.42 234.81 824.37 1302.06 1674.78 706.85 2098.81 707.77 1914.70 925.58 1700.49 1192.57 2065.93 1195.15
00006067 00000120 1434.88 241.47 827.86 1282.53 1664.84 714.48 2087.55 717.22 1912.13 899.75 1698.13 1185.56 2068.56 1188.18
00006068 00000121 1431.53 236.03 825.17 1286.36 1648.14 705.64 2077.91 706.72 1891.61 891.76 1684.54 1182.87 2054.70 1183.69
00006069 00000122 1419.95 236.36 829.45 1294.40 1626.67 700.15 2060.12 699.02 1865.26 891.28 1667.12 1183.57 2035.34 1180.16
00006070 00000123 1411.92 241.88 833.40 1306.33 1613.15 694.02 2046.17 698.35 1846.51 889.09 1648.00 1188.16 2020.42 1188.77
00006071 00000124 1411.84 253.57 830.81 1318.94 1610.63 696.50 2042.49 704.63 1833.39 901.91 1636.13 1204.61 2009.92 1208.64
00006072 00000125 1418.94 267.22 825.80 1328.39 1616.66 701.21 2046.00 715.04 1830.37 919.41 1633.69 1217.09 2008.91 1225.92
00006073 00000126 1423.94 265.29 834.57 1342.48 1622.26 710.49 2053.78 728.97 1828.64 935.12 1630.21 1224.05 2010.14 1237.10
00006074 00000127 1426.67 256.67 840.74 1342.66 1625.99 712.53 2057.76 732.63 1825.48 938.84 1627.81 1219.89 2008.26 1234.76
00006075 00000128 1425.96 251.44 849.59 1343.85 1627.82 711.02 2060.71 735.30 1821.52 941.23 1626.46 1216.83 2004.95 1234.90
00006076 00000129 1429.35 249.66 853.08 1345.29 1628.66 710.21 2060.98 737.59 1813.33 945.88 1623.90 1218.65 1995.32 1239.73
00006077 00000130 1430.76 247.81 862.37 1347.29 1628.08 712.41 2061.14 744.32 1805.61 954.86 1620.52 1220.18 1989.38 1245.22
00006078 00000131 1434.40 248.16 862.38 1348.89 1626.80 715.55 2059.09 748.75 1797.60 962.16 1615.68 1222.51 1984.62 1248.93
00006079 00000132 1431.39 252.09 868.23 1347.01 1619.61 713.50 2055.29 746.67 1786.08 965.14 1605.59 1224.53 1976.18 1250.86
00006080 00000133 1419.71 257.12 874.74 1335.79 1603.34 711.35 2038.83 746.45 1765.29 956.89 1585.30 1220.04 1957.86 1246.91
00006081 00000134 1414.33 259.78 874.21 1327.32 1586.44 705.29 2017.73 741.88 1732.44 948.53 1565.78 1214.55 1935.47 1242.88
00006082 00000135 1410.09 259.69 869.98 1327.76 1569.89 701.50 1997.28 738.97 1702.74 944.62 1544.11 1206.81 1913.78 1236.76
00006083 00000136 1407.42 255.04 870.46 1332.10 1556.13 696.38 1979.06 733.39 1676.67 940.16 1532.52 1202.24 1893.96 1232.15
00006084 00000137 1404.48 251.48 875.01 1332.63 1547.97 695.16 1968.37 729.84 1657.59 939.36 1526.99 1203.35 1882.15 1232.03
00006085 00000138 1403.90 250.15 878.56 1326.47 1546.25 691.62 1966.35 726.56 1654.16 939.21 1527.68 1199.27 1879.17 1228.40
00006086 00000139 1403.48 240.04 881.09 1328.81 1540.97 689.16 1961.39 718.56 1649.37 933.56 1527.23 1196.36 1875.94 1221.13
00006087 00000140 1395.91 234.13 889.78 1335.93 1525.22 684.42 1952.83 712.26 1633.39 928.20 1513.17 1193.89 1868.34 1218.26
00006088 00000141 1389.70 231.81 886.58 1345.27 1506.32 677.45 1931.20 708.15 1606.18 925.65 1493.93 1192.41 1847.83 1220.11
00006089 00000142 1385.47 222.66 877.36 1352.69 1486.40 673.98 1907.14 706.34 1578.53 939.19 1477.36 1195.19 1817.72 1224.96
00006090 DELETE   1374.25 226.73 859.61 1342.21 1463.66 684.52 1877.19 724.39 1560.74 948.45 1456.31 1205.86 1779.97 1243.43
00006091 00000144 1348.74 244.73 872.56 1329.04 1443.41 697.69 1848.82 737.62 1518.87 962.08 1428.20 1213.19 1753.93 1249.42
00006092 00000145 1322.58 250.48 890.33 1342.67 1432.33 716.09 1832.64 754.10 1497.22 976.84 1416.73 1228.18 1736.91 1262.38
00006093 00000146 1315.87 258.10 893.25 1348.63 1425.41 726.87 1819.00 765.64 1483.82 986.50 1411.95 1238.50 1725.00 1272.97
00006094 00000147 1320.48 272.98 892.81 1345.83 1424.56 736.01 1813.66 774.55 1475.56 995.73 1410.32 1247.39 1717.17 1282.03
00006095 00000148 1319.86 280.84 895.11 1360.63 1421.85 743.62 1811.65 781.94 1475.34 1009.56 1410.42 1260.06 1717.02 1294.79
00006096 00000149 1307.41 281.75 899.86 1364.61 1414.05 752.26 1807.37 792.98 1466.32 1019.72 1398.41 1267.64 1708.20 1304.03
00006097 00000150 1285.97 280.44 909.60 1366.40 1402.07 758.00 1798.19 795.89 1452.23 1021.96 1385.62 1272.78 1702.72 1305.50
00006098 00000151 1282.68 282.58 911.78 1364.25 1398.47 761.65 1797.17 797.03 1454.31 1027.25 1387.09 1276.92 1707.47 1307.35
CROP_BBOX: 790 0 2947 1962
