Video ID: 	wEkomdwH888
H: 	2160
W: 	3840
FPS: 	23.976023976023978

FRAME INDEX X0 Y0 W H [Landmarks (5 Points)]

00008680 00000000 1941.68 222.67 761.42 935.18 2130.30 574.64 2443.19 623.46 2207.25 654.80 2079.30 852.86 2345.83 894.50
00008681 00000001 1949.01 218.65 759.61 937.09 2134.22 572.55 2443.93 622.57 2207.46 653.34 2082.20 850.96 2345.28 893.80
00008682 00000002 1943.63 221.38 767.89 937.51 2131.95 574.14 2445.30 622.85 2208.48 657.05 2079.20 854.51 2346.69 896.52
00008683 DELETE   1939.57 239.23 763.80 928.18 2126.97 575.39 2445.28 632.99 2202.35 671.61 2063.97 855.74 2342.09 905.20
00008684 DELETE   1940.78 218.01 775.20 955.98 2100.38 579.82 2428.90 640.19 2161.36 702.31 2043.58 884.48 2332.69 935.51
00008685 DELETE   1945.31 234.45 765.45 940.78 2094.60 587.83 2416.06 644.05 2145.64 712.30 2034.29 889.98 2322.40 938.57
00008686 00000006 1942.05 238.68 756.66 943.15 2088.38 589.71 2409.33 644.89 2142.61 711.92 2028.10 897.59 2316.45 946.66
00008687 00000007 1935.44 242.26 757.66 945.81 2082.73 595.31 2407.11 651.57 2138.23 718.42 2022.47 901.97 2314.74 951.60
00008688 00000008 1929.24 246.24 760.17 942.02 2079.91 595.87 2405.41 654.33 2138.07 717.86 2018.01 904.72 2308.69 956.77
00008689 00000009 1930.48 251.08 758.47 931.54 2081.95 592.31 2405.13 651.67 2137.96 714.16 2017.02 901.02 2305.60 954.24
00008690 00000010 1934.98 243.76 754.98 933.47 2082.87 586.86 2408.76 645.72 2140.81 705.18 2020.17 896.63 2311.55 949.30
00008691 00000011 1931.84 267.55 734.88 899.97 2087.72 585.78 2405.08 646.86 2145.72 699.49 2021.40 867.90 2296.87 922.26
00008692 00000012 1942.87 235.45 752.18 936.46 2091.69 583.17 2413.48 640.99 2147.37 705.89 2029.45 886.38 2317.00 937.27
00008693 00000013 1941.05 224.03 760.70 947.96 2092.47 584.43 2415.05 635.56 2148.14 704.16 2034.18 886.47 2321.89 930.87
00008694 00000014 1941.26 227.15 761.69 942.97 2092.68 585.38 2414.81 635.63 2149.47 703.86 2036.11 885.78 2324.84 929.29
00008695 00000015 1941.57 223.53 759.83 952.88 2091.61 584.84 2413.21 635.56 2146.46 704.97 2033.57 887.68 2320.82 931.60
00008696 00000016 1946.25 231.71 746.65 939.85 2090.38 584.14 2409.11 639.61 2143.18 710.69 2029.61 888.00 2312.77 936.84
00008697 00000017 1939.51 238.22 751.78 935.48 2085.59 588.03 2407.34 642.10 2140.78 707.04 2024.44 895.66 2309.52 944.00
00008698 00000018 1930.57 245.76 758.19 939.05 2079.13 593.50 2405.26 649.06 2139.93 714.49 2021.95 903.74 2310.44 953.44
00008699 00000019 1928.26 248.01 757.13 942.76 2077.73 599.56 2400.62 658.90 2137.88 723.07 2017.82 908.56 2303.19 960.97
00008700 00000020 1926.71 254.58 756.58 937.69 2075.10 606.38 2394.54 662.20 2133.53 728.17 2016.97 911.86 2300.27 961.31
00008701 00000021 1925.25 252.33 757.92 941.68 2075.20 604.49 2397.07 661.54 2135.29 727.00 2016.48 912.50 2301.27 962.82
00008702 00000022 1925.07 248.78 759.43 941.20 2072.16 604.60 2395.20 657.25 2136.19 724.85 2018.48 910.62 2305.84 957.53
00008703 00000023 1927.08 247.94 758.82 936.06 2075.04 599.24 2398.63 652.59 2136.06 717.43 2018.88 906.17 2305.92 953.94
00008704 00000024 1931.91 251.29 760.14 926.78 2079.49 595.00 2402.60 647.22 2136.13 712.41 2021.21 902.00 2310.07 949.09
00008705 00000025 1935.03 241.31 753.70 932.45 2079.98 593.09 2402.30 643.88 2137.36 709.81 2023.24 898.62 2308.86 944.26
00008706 00000026 1935.25 243.13 752.48 931.84 2080.86 592.83 2402.33 642.76 2138.06 709.38 2023.58 898.85 2309.41 944.12
00008707 00000027 1935.21 248.55 753.66 926.15 2081.64 592.48 2402.44 643.47 2137.92 710.74 2023.28 897.87 2309.56 944.11
00008708 00000028 1929.97 245.60 759.73 941.38 2077.71 595.68 2403.08 648.00 2136.78 716.37 2021.63 905.39 2311.15 952.46
00008709 00000029 1930.37 248.66 754.45 935.88 2075.56 600.27 2397.62 655.75 2134.59 722.13 2017.43 908.47 2301.01 957.82
00008710 00000030 1926.48 256.29 757.09 937.87 2076.66 604.97 2394.89 662.80 2130.64 729.06 2015.04 911.70 2297.13 962.83
00008711 00000031 1923.50 262.88 757.14 947.27 2078.95 608.15 2392.72 667.01 2133.29 730.85 2016.26 914.55 2297.15 966.96
00008712 00000032 1927.16 262.13 752.64 948.94 2077.26 609.11 2391.38 669.08 2130.59 734.60 2014.69 918.71 2295.40 972.19
00008713 00000033 1926.49 259.98 753.55 951.40 2077.03 609.54 2392.26 666.93 2131.32 732.96 2015.09 918.62 2296.92 969.89
00008714 00000034 1924.78 262.74 755.10 943.84 2077.08 610.04 2391.63 664.21 2133.21 729.84 2015.51 919.91 2297.78 969.08
00008715 00000035 1926.92 260.40 752.02 936.06 2077.44 604.72 2393.64 661.29 2132.89 727.31 2016.01 912.65 2297.06 963.51
00008716 00000036 1927.18 259.05 753.03 933.34 2076.54 602.66 2396.72 658.65 2135.46 723.39 2015.56 912.88 2300.09 963.57
00008717 00000037 1929.55 256.35 751.04 932.35 2076.72 600.47 2397.71 658.24 2135.44 723.92 2016.49 909.91 2299.60 961.90
00008718 00000038 1927.80 251.60 755.05 943.35 2078.07 601.02 2399.15 658.32 2135.77 723.93 2016.63 911.58 2300.73 962.85
00008719 00000039 1928.83 250.15 751.98 943.32 2077.33 602.23 2396.57 660.22 2133.38 726.61 2016.74 910.95 2300.00 962.45
00008720 00000040 1926.14 258.03 753.09 950.96 2078.94 608.22 2395.42 664.08 2133.88 727.44 2014.69 918.89 2297.37 969.33
00008721 00000041 1927.98 258.41 750.26 948.95 2078.55 606.90 2394.12 667.49 2131.73 732.12 2014.55 915.43 2295.20 969.14
00008722 00000042 1927.68 258.96 750.17 950.75 2077.10 607.55 2392.67 665.97 2131.34 731.23 2013.18 918.91 2292.73 971.36
00008723 00000043 1927.81 261.64 749.21 949.46 2077.43 608.75 2392.22 665.33 2131.25 731.74 2014.10 918.86 2293.79 970.05
00008724 00000044 1926.33 259.44 750.02 950.09 2076.16 608.67 2392.07 665.48 2132.40 729.97 2013.51 918.89 2294.36 969.97
00008725 00000045 1926.11 259.29 752.31 945.00 2076.28 606.96 2390.86 662.21 2130.16 725.81 2012.22 917.74 2292.80 967.86
00008726 00000046 1926.90 261.94 750.13 939.35 2076.55 605.93 2393.18 659.77 2131.45 724.41 2014.71 914.74 2297.29 963.88
00008727 00000047 1924.95 258.73 751.54 941.95 2076.57 604.90 2395.18 659.94 2135.13 722.34 2014.47 914.93 2298.33 964.93
00008728 00000048 1926.33 259.48 749.54 938.13 2074.92 605.10 2393.88 658.67 2134.05 721.67 2013.87 915.27 2297.30 964.18
00008729 00000049 1926.87 260.16 749.72 937.05 2075.88 604.77 2394.84 659.32 2134.53 721.80 2013.98 914.60 2297.70 964.27
00008730 00000050 1927.31 257.51 750.45 939.02 2076.67 604.76 2394.25 660.46 2131.90 724.13 2015.29 913.72 2297.45 964.16
00008731 00000051 1924.20 260.00 754.10 942.26 2075.70 606.67 2392.42 660.71 2131.66 723.41 2013.48 917.21 2296.34 966.43
00008732 00000052 1926.21 259.19 750.93 946.26 2075.31 608.36 2389.93 661.37 2130.95 726.47 2014.52 919.55 2294.21 968.02
00008733 00000053 1926.31 252.28 750.46 954.17 2072.77 608.74 2390.55 660.35 2130.68 727.82 2015.32 919.79 2297.05 966.51
00008734 00000054 1921.27 239.60 753.83 966.80 2069.84 617.79 2385.47 669.24 2131.47 729.85 2020.54 921.83 2302.50 966.86
00008735 00000055 1926.37 247.48 751.10 959.03 2071.86 619.61 2385.10 669.41 2129.84 732.41 2020.82 924.15 2301.04 968.58
00008736 00000056 1927.50 252.56 748.82 954.43 2073.00 617.36 2384.27 669.56 2128.00 733.69 2018.48 923.18 2296.80 969.81
00008737 00000057 1928.46 257.66 747.49 950.31 2073.70 614.30 2385.87 668.26 2128.24 734.85 2016.49 923.02 2293.93 971.65
00008738 00000058 1927.95 263.24 747.87 942.79 2075.71 611.21 2388.22 668.14 2130.28 733.17 2014.47 922.14 2291.81 973.63
00008739 00000059 1927.79 263.35 748.53 943.89 2075.82 610.89 2388.35 668.09 2130.67 732.66 2014.20 922.50 2291.69 974.16
00008740 00000060 1928.85 261.34 747.30 945.57 2076.43 609.11 2389.47 668.03 2130.55 733.09 2014.24 921.25 2291.95 974.30
00008741 00000061 1927.91 264.28 748.05 943.70 2076.93 610.11 2390.64 668.03 2131.45 731.70 2013.66 922.33 2292.38 974.74
00008742 00000062 1929.05 266.51 744.93 938.12 2077.08 610.46 2391.43 667.49 2130.55 731.82 2013.63 922.07 2291.73 973.81
00008743 00000063 1929.81 268.05 743.16 936.14 2077.37 610.86 2390.73 667.78 2130.26 732.16 2012.74 921.83 2289.43 973.66
00008744 00000064 1928.36 264.00 743.12 940.99 2076.86 608.84 2392.97 666.77 2132.25 730.28 2012.36 922.30 2290.49 974.91
00008745 00000065 1928.35 261.79 744.41 941.38 2076.52 608.15 2393.32 666.37 2131.91 729.98 2012.07 921.89 2290.61 974.62
00008746 00000066 1928.73 260.98 745.16 942.54 2076.98 608.25 2393.36 666.28 2131.36 729.51 2011.98 921.46 2290.53 974.01
00008747 00000067 1928.05 262.50 746.57 942.23 2076.39 608.67 2393.38 664.69 2131.79 729.73 2012.79 922.60 2291.97 973.64
00008748 00000068 1928.91 261.81 745.45 942.68 2076.53 609.33 2392.84 664.23 2131.23 731.67 2014.49 922.43 2293.88 972.61
00008749 00000069 1929.02 260.48 746.58 941.92 2075.63 609.26 2392.81 664.46 2131.03 732.32 2015.21 922.23 2295.89 972.47
00008750 00000070 1927.77 262.12 747.46 940.76 2076.96 608.89 2394.39 665.75 2131.98 730.60 2013.80 921.73 2295.25 973.26
00008751 00000071 1926.65 265.62 748.44 935.04 2077.79 608.69 2394.33 665.39 2133.61 727.80 2013.27 919.85 2294.78 971.36
00008752 00000072 1926.59 261.12 752.37 945.50 2079.21 608.74 2396.52 662.80 2133.87 728.88 2016.55 919.36 2299.73 968.63
00008753 00000073 1927.08 261.48 750.02 940.19 2079.68 607.80 2396.16 664.02 2134.23 728.51 2015.83 917.38 2295.64 968.18
00008754 00000074 1927.09 265.47 748.38 937.46 2080.35 608.87 2396.10 662.28 2134.54 724.91 2015.02 918.51 2296.82 967.33
00008755 00000075 1927.61 263.58 747.65 937.29 2079.67 608.63 2396.19 661.57 2134.36 723.53 2015.51 917.48 2299.06 965.84
00008756 00000076 1928.33 263.81 745.56 935.84 2079.81 607.96 2396.62 662.01 2133.96 724.50 2015.92 916.25 2298.83 965.47
00008757 00000077 1929.45 266.39 743.27 933.12 2080.14 608.91 2396.33 663.48 2134.43 726.83 2016.34 916.77 2297.73 966.51
00008758 00000078 1930.01 263.88 743.02 935.00 2077.77 609.35 2394.45 662.29 2132.39 728.78 2016.63 918.18 2296.22 966.69
00008759 00000079 1930.76 261.23 742.67 937.24 2076.32 609.70 2392.67 661.94 2131.02 730.61 2016.84 918.74 2295.45 966.56
00008760 00000080 1930.31 262.33 743.01 940.38 2076.33 610.60 2391.65 661.42 2131.31 731.63 2017.45 918.61 2296.53 965.44
00008761 00000081 1926.20 245.08 746.06 954.54 2072.32 619.14 2386.24 670.15 2130.94 733.30 2021.96 920.30 2304.33 965.05
00008762 00000082 1924.25 249.16 749.35 955.10 2072.95 620.59 2387.45 671.64 2131.93 731.75 2022.01 923.11 2304.89 967.95
00008763 00000083 1927.04 254.35 745.82 953.48 2076.66 615.61 2389.70 671.48 2132.62 734.29 2020.13 919.27 2300.62 968.33
00008764 00000084 1929.75 261.44 743.19 945.78 2076.73 614.85 2388.35 670.30 2129.96 737.77 2017.52 920.42 2295.47 969.82
00008765 00000085 1929.18 262.32 744.06 944.25 2074.85 610.75 2389.09 666.96 2128.88 733.74 2013.81 920.93 2292.41 971.65
00008766 00000086 1929.31 263.70 744.77 939.30 2075.80 609.27 2390.23 666.48 2128.81 732.67 2012.76 919.42 2291.80 971.11
00008767 00000087 1919.49 283.25 731.98 905.11 2071.60 610.20 2387.70 666.90 2127.51 726.67 2010.11 899.80 2278.04 950.69
00008768 00000088 1932.31 264.17 742.43 944.27 2079.22 608.66 2391.93 667.41 2129.79 736.16 2015.32 919.15 2292.79 972.08
00008769 00000089 1933.54 263.92 741.91 942.40 2078.98 608.09 2391.12 667.17 2129.16 737.14 2015.68 918.07 2294.61 971.24
00008770 00000090 1933.94 263.34 742.11 942.80 2079.34 607.80 2392.50 667.45 2129.88 737.51 2015.73 917.70 2295.38 971.38
00008771 00000091 1932.50 263.77 742.80 944.55 2080.07 607.61 2393.46 667.06 2131.64 736.54 2016.28 917.17 2295.74 970.66
00008772 00000092 1920.35 284.95 733.53 905.20 2073.95 610.93 2389.94 666.67 2128.98 729.92 2011.35 901.34 2282.36 951.38
00008773 00000093 1920.51 286.85 733.71 904.72 2073.69 612.10 2390.62 666.75 2129.58 729.39 2011.47 900.67 2284.29 949.93
00008774 00000094 1919.99 283.97 735.78 904.80 2073.69 611.44 2392.12 666.21 2130.33 727.28 2011.47 900.43 2283.92 949.80
00008775 00000095 1920.55 286.44 735.16 901.66 2074.17 610.71 2392.50 666.50 2130.24 727.54 2010.92 900.18 2282.63 950.37
00008776 00000096 1920.54 285.71 735.80 904.03 2073.87 610.00 2391.72 665.82 2129.74 726.95 2010.63 899.37 2283.25 949.55
00008777 00000097 1919.04 283.36 736.70 906.72 2073.20 609.63 2391.67 665.39 2129.48 727.22 2010.32 897.46 2285.70 947.67
00008778 00000098 1920.89 283.58 733.99 906.23 2073.66 610.03 2391.57 664.99 2129.73 728.41 2010.44 896.56 2288.25 946.05
00008779 00000099 1923.04 285.65 731.84 906.57 2075.26 609.99 2390.94 663.99 2130.66 729.31 2012.08 897.26 2288.87 945.93
00008780 00000100 1922.20 284.74 734.16 903.89 2076.95 610.26 2392.24 664.54 2132.62 728.94 2013.00 893.97 2289.95 943.20
00008781 00000101 1933.88 266.77 740.00 940.92 2084.88 608.93 2396.39 662.12 2137.50 736.05 2023.25 909.54 2303.86 958.02
00008782 00000102 1935.45 259.20 740.26 951.01 2084.77 608.89 2397.01 659.76 2138.58 737.15 2027.72 910.54 2310.14 956.75
00008783 00000103 1936.86 261.69 738.66 954.20 2088.32 609.22 2396.47 656.31 2139.23 736.25 2031.23 910.21 2311.99 953.86
00008784 00000104 1935.83 261.51 741.55 955.57 2086.79 606.94 2397.24 655.31 2138.65 735.47 2031.20 909.73 2313.08 954.44
00008785 00000105 1935.28 266.66 742.28 952.69 2086.88 608.83 2396.79 652.69 2138.82 733.68 2031.59 910.79 2313.84 952.32
00008786 00000106 1933.32 271.37 740.16 951.69 2091.25 608.33 2396.71 652.23 2142.25 730.83 2032.90 909.96 2314.63 952.04
00008787 00000107 1933.91 267.24 740.93 952.26 2090.49 607.22 2396.25 646.86 2143.77 729.40 2035.66 908.94 2319.18 947.41
00008788 00000108 1932.77 265.73 745.27 956.22 2091.55 602.78 2399.59 644.90 2144.91 724.92 2034.15 905.79 2320.53 946.36
00008789 00000109 1929.70 252.79 752.77 968.86 2090.90 600.12 2403.90 640.13 2143.58 718.85 2032.84 907.60 2320.67 945.94
00008790 00000110 1928.08 257.85 756.85 962.03 2091.26 599.80 2405.67 640.12 2143.62 716.40 2031.67 909.71 2321.00 948.42
00008791 00000111 1930.45 255.02 755.47 959.23 2089.62 600.10 2405.57 640.19 2142.36 716.94 2032.60 908.97 2322.77 947.22
00008792 00000112 1929.16 253.61 757.15 962.23 2087.01 600.48 2405.59 639.73 2142.01 716.94 2031.40 911.25 2323.56 948.87
00008793 00000113 1929.43 258.58 752.61 958.63 2088.21 605.86 2403.06 643.12 2142.48 720.39 2031.86 913.93 2319.59 950.02
00008794 00000114 1932.82 261.78 739.83 948.57 2085.92 611.00 2396.66 645.82 2142.38 728.09 2034.79 913.34 2321.81 947.36
00008795 00000115 1931.73 255.44 740.95 959.12 2084.16 620.70 2391.57 656.35 2141.30 735.34 2038.79 915.79 2322.45 948.61
00008796 00000116 1930.71 254.74 740.21 960.19 2078.28 624.78 2387.29 662.13 2135.65 738.12 2034.83 919.48 2319.16 953.37
00008797 00000117 1928.67 258.42 742.01 964.67 2076.54 622.65 2383.68 659.09 2130.65 740.61 2030.55 921.70 2314.06 955.15
00008798 00000118 1922.26 271.32 747.45 955.90 2071.41 623.55 2380.75 662.87 2128.36 743.02 2023.95 925.38 2307.79 961.61
00008799 00000119 1923.38 271.49 746.12 950.60 2070.24 621.53 2380.97 661.62 2127.01 741.06 2022.42 925.32 2305.45 962.45
00008800 00000120 1929.66 260.98 743.43 949.55 2071.47 616.59 2385.11 658.00 2126.56 738.47 2021.50 922.83 2305.03 961.17
00008801 00000121 1928.22 259.09 747.40 947.32 2074.80 614.11 2387.85 655.06 2129.34 731.98 2022.23 916.77 2308.40 954.96
00008802 00000122 1932.88 267.80 741.20 932.27 2081.62 609.82 2390.10 648.68 2134.74 727.13 2026.50 910.70 2311.36 948.67
00008803 00000123 1931.78 255.78 748.52 930.05 2077.24 602.85 2391.65 646.30 2129.91 718.94 2022.72 905.87 2310.27 946.60
00008804 00000124 1920.84 278.31 741.00 890.67 2070.76 598.55 2390.40 641.86 2132.70 700.79 2013.76 876.75 2292.06 916.19
00008805 00000125 1922.59 279.51 738.53 885.96 2072.34 598.73 2389.91 639.45 2132.23 700.34 2015.67 874.28 2293.75 911.59
00008806 00000126 1922.83 274.54 740.64 890.41 2070.85 597.46 2390.02 639.24 2130.90 700.58 2014.51 874.14 2292.91 912.37
00008807 00000127 1917.61 271.91 742.74 899.82 2071.45 598.60 2391.55 643.35 2130.34 704.61 2014.82 880.14 2288.76 922.28
00008808 00000128 1927.38 252.69 752.73 936.17 2074.89 600.63 2387.65 641.91 2128.39 717.37 2020.20 904.33 2303.49 943.32
00008809 00000129 1926.81 262.79 752.70 933.01 2072.26 605.95 2386.63 645.60 2126.63 719.40 2017.74 908.61 2306.02 946.52
00008810 00000130 1927.16 260.37 747.83 936.90 2071.13 609.17 2384.77 648.93 2124.76 724.22 2018.61 913.53 2304.07 951.47
00008811 00000131 1928.20 258.81 749.08 941.34 2069.88 609.59 2383.70 648.89 2122.38 724.84 2016.78 916.62 2300.87 954.08
00008812 00000132 1927.94 255.11 750.50 945.20 2070.88 608.11 2385.36 648.87 2122.94 725.20 2017.53 913.80 2302.67 952.33
00008813 00000133 1927.04 260.37 751.17 936.52 2071.85 605.84 2387.30 646.81 2124.69 721.17 2015.65 911.57 2303.27 950.57
00008814 00000134 1926.16 254.51 752.83 939.73 2071.55 602.83 2386.96 643.48 2126.78 716.74 2018.12 908.61 2305.25 947.15
00008815 00000135 1927.06 253.13 751.24 929.74 2070.97 599.82 2387.52 642.67 2127.74 714.92 2016.65 906.85 2302.02 947.24
00008816 00000136 1925.53 257.61 750.58 931.04 2073.73 600.55 2388.34 643.27 2130.01 714.30 2018.22 907.11 2302.30 947.65
00008817 00000137 1928.15 256.95 747.76 928.70 2073.00 601.13 2387.52 643.26 2128.56 716.09 2018.37 906.96 2302.73 947.07
00008818 00000138 1927.80 251.84 751.09 941.27 2072.61 601.98 2388.72 642.93 2128.44 715.63 2018.11 908.27 2304.41 947.16
00008819 00000139 1927.87 259.68 752.96 938.62 2072.57 605.81 2388.07 645.70 2126.43 720.85 2018.07 911.10 2305.41 949.20
00008820 00000140 1929.53 256.05 750.43 946.37 2073.70 610.03 2387.23 646.86 2127.75 725.73 2021.03 913.80 2308.71 949.31
00008821 00000141 1928.39 257.55 750.46 946.57 2073.85 609.83 2388.56 649.08 2129.00 724.21 2020.60 914.63 2308.34 952.08
00008822 00000142 1929.17 258.28 749.52 944.73 2073.46 609.12 2388.85 650.01 2128.36 724.55 2020.22 914.29 2307.86 953.06
00008823 00000143 1929.30 264.53 747.89 937.76 2074.80 610.23 2387.58 650.66 2126.74 725.44 2018.71 914.56 2303.61 953.32
00008824 00000144 1926.66 264.18 749.56 936.01 2073.67 609.07 2386.50 649.07 2125.68 723.21 2016.20 913.30 2301.17 951.79
00008825 00000145 1925.84 267.89 750.58 932.22 2072.06 606.90 2386.37 648.47 2124.49 720.09 2014.89 913.44 2301.24 953.34
00008826 00000146 1927.17 268.38 747.93 927.65 2070.97 606.88 2385.38 648.12 2123.83 719.86 2015.31 913.43 2300.76 952.93
00008827 00000147 1925.16 259.54 752.80 940.17 2070.10 614.97 2385.63 651.79 2126.51 722.22 2018.15 915.20 2307.47 950.21
00008828 00000148 1926.19 255.58 752.26 944.20 2071.81 616.37 2385.63 651.64 2127.96 724.54 2020.38 915.80 2308.88 949.27
00008829 00000149 1923.85 254.60 753.07 947.68 2070.72 618.05 2382.76 654.17 2126.35 724.02 2019.39 917.67 2306.50 951.85
00008830 00000150 1925.05 257.71 750.81 942.52 2068.03 615.27 2382.55 654.85 2122.66 725.18 2015.62 920.27 2300.62 957.55
00008831 00000151 1922.21 262.98 751.42 938.96 2065.86 614.87 2380.01 654.06 2119.06 724.27 2012.96 922.31 2295.93 959.54
00008832 00000152 1922.93 263.51 751.25 940.31 2065.12 614.46 2379.86 652.21 2116.52 724.80 2012.58 922.57 2297.01 958.90
00008833 00000153 1925.62 262.77 747.85 936.58 2065.97 612.75 2380.33 651.80 2118.47 723.78 2013.29 921.63 2295.04 959.07
00008834 00000154 1924.24 256.79 749.40 947.26 2067.88 611.10 2381.86 649.03 2121.36 721.40 2015.16 919.13 2299.23 955.61
00008835 00000155 1928.18 263.79 745.14 933.83 2071.62 607.38 2382.04 648.56 2121.16 722.58 2013.81 912.75 2296.76 952.39
00008836 00000156 1927.84 260.74 749.06 935.00 2069.15 606.16 2384.50 647.37 2120.11 719.67 2012.63 913.37 2299.05 952.36
00008837 00000157 1927.13 258.88 748.80 932.03 2070.07 602.84 2384.16 647.49 2121.12 717.64 2012.16 909.08 2296.96 950.90
00008838 00000158 1927.52 256.63 750.90 936.85 2071.50 602.79 2384.73 645.68 2121.37 717.09 2013.62 907.56 2300.08 947.87
00008839 00000159 1927.54 260.12 749.74 934.79 2072.04 602.44 2384.89 644.08 2122.72 716.65 2014.30 907.76 2299.88 947.30
00008840 00000160 1928.27 258.37 748.83 940.62 2074.35 601.49 2386.00 643.50 2124.60 717.15 2017.00 906.12 2303.59 946.07
00008841 00000161 1927.64 257.56 748.61 941.02 2074.92 600.80 2386.32 644.14 2125.35 717.78 2017.73 904.21 2304.38 945.14
00008842 00000162 1928.41 256.00 747.73 940.03 2074.29 599.90 2387.11 645.31 2125.34 716.68 2016.17 905.07 2302.94 947.39
