Video ID: 	djcre6yIQO4
H: 	2160
W: 	3840
FPS: 	24.0

FRAME INDEX X0 Y0 W H [Landmarks (5 Points)]

00104324 00000000 1921.21 301.49 526.59 715.80 2007.89 536.05 2234.45 524.63 2090.03 610.51 2029.38 765.55 2203.48 758.31
00104325 DELETE   1933.57 281.98 520.56 688.23 2021.99 542.91 2248.16 490.62 2118.62 573.95 2079.70 768.49 2243.13 726.79
00104326 DELETE   1939.70 264.74 543.49 717.00 2030.20 539.22 2263.26 489.95 2121.44 565.59 2079.33 766.96 2259.85 727.67
00104327 00000003 1951.78 252.43 542.00 708.43 2043.10 539.74 2272.04 479.57 2117.34 555.91 2090.16 765.23 2260.86 718.17
00104328 00000004 1964.50 234.21 545.12 738.73 2053.05 537.91 2282.03 474.61 2121.98 561.37 2092.93 774.19 2276.64 724.93
00104329 00000005 1974.77 221.86 544.84 737.51 2064.43 539.51 2294.54 478.26 2132.23 568.50 2095.94 774.97 2293.73 728.20
00104330 00000006 1983.35 214.48 546.57 761.01 2074.38 537.33 2304.56 481.23 2148.82 581.67 2108.42 776.21 2307.14 733.94
00104331 00000007 1994.74 206.84 544.02 783.52 2079.79 544.49 2313.68 484.61 2157.46 591.79 2120.37 791.22 2319.86 745.61
00104332 00000008 1999.16 200.57 553.63 822.08 2088.19 548.26 2327.01 492.52 2165.40 600.13 2118.72 812.52 2330.69 770.25
00104333 00000009 1993.01 191.81 568.87 797.36 2089.01 537.40 2333.01 499.72 2174.55 612.30 2118.07 793.75 2323.57 768.86
00104334 00000010 1997.82 204.63 577.07 849.21 2087.07 537.13 2339.58 493.20 2183.82 624.29 2134.00 821.30 2327.58 786.10
00104335 00000011 1998.76 212.78 578.55 874.11 2091.76 541.93 2339.85 501.77 2190.48 643.15 2144.93 830.74 2331.50 799.09
00104336 00000012 1988.24 219.22 583.99 859.32 2097.02 558.21 2328.81 521.91 2178.50 661.50 2143.15 842.44 2328.08 817.28
00104337 00000013 1973.86 216.13 600.58 914.70 2078.38 568.98 2330.02 533.76 2173.53 692.18 2135.41 872.01 2328.22 842.73
00104338 00000014 1957.86 219.23 611.27 935.44 2065.70 591.72 2315.23 557.39 2162.74 729.58 2120.48 896.47 2313.90 869.64
00104339 00000015 1939.91 219.40 608.00 924.42 2066.10 609.78 2300.75 575.98 2159.10 765.97 2117.18 914.90 2308.36 888.87
00104340 00000016 1927.87 219.37 613.96 922.10 2056.93 620.06 2282.63 589.19 2144.34 780.05 2111.59 918.59 2289.79 894.79
00104341 00000017 1912.25 211.49 614.59 926.88 2044.75 624.39 2270.19 596.89 2133.85 786.31 2100.85 921.27 2278.58 899.91
00104342 00000018 1900.70 221.88 615.56 914.39 2033.44 631.07 2264.32 601.01 2128.17 783.83 2095.71 921.69 2277.33 897.80
00104343 00000019 1888.29 206.65 608.81 941.90 2017.67 633.03 2246.02 595.79 2113.92 787.95 2080.46 930.63 2268.52 902.71
00104344 00000020 1873.33 204.01 616.40 951.02 2002.35 628.44 2240.51 592.73 2102.42 784.53 2061.91 926.89 2263.80 899.54
00104345 00000021 1862.48 208.80 615.58 940.82 1994.29 627.47 2232.45 589.93 2095.47 782.31 2057.20 925.17 2254.93 895.83
00104346 00000022 1857.81 206.42 613.97 935.88 1989.81 622.41 2225.13 587.66 2088.14 778.81 2049.42 920.28 2244.63 892.99
00104347 00000023 1854.21 207.52 612.96 940.51 1985.99 618.17 2219.23 584.02 2081.60 775.26 2045.29 920.32 2237.41 893.01
00104348 00000024 1850.56 209.32 610.44 924.58 1980.43 615.91 2213.05 583.25 2074.64 772.88 2042.38 914.72 2231.23 888.36
00104349 00000025 1850.08 218.27 596.73 906.14 1977.43 614.68 2208.58 582.89 2072.19 770.97 2037.85 911.01 2225.03 884.67
00104350 00000026 1846.57 220.71 602.27 915.38 1974.85 616.08 2206.88 583.49 2067.96 769.64 2035.16 912.38 2226.04 885.54
00104351 00000027 1846.61 230.96 599.01 904.14 1971.67 618.81 2204.27 584.85 2065.53 768.53 2032.67 911.06 2223.66 883.04
00104352 00000028 1844.49 230.60 597.03 912.38 1969.59 619.37 2200.47 585.19 2059.98 768.14 2028.92 911.39 2221.45 883.28
00104353 00000029 1842.21 229.14 599.15 910.22 1967.81 620.33 2199.95 586.01 2060.21 765.36 2025.45 910.21 2218.42 882.54
00104354 00000030 1844.27 229.40 595.36 904.65 1967.88 617.33 2199.02 584.01 2058.37 763.72 2024.59 907.17 2215.38 880.18
00104355 00000031 1844.88 230.03 595.52 892.69 1968.53 615.11 2200.91 582.07 2062.34 761.08 2027.48 903.75 2213.15 877.00
00104356 00000032 1846.45 225.07 596.74 900.18 1970.74 610.04 2203.44 577.98 2065.58 757.49 2026.56 901.94 2213.94 876.04
00104357 00000033 1847.07 223.95 598.73 890.79 1974.03 611.66 2209.33 581.29 2068.62 755.95 2028.43 897.45 2220.52 874.76
00104358 00000034 1848.71 218.93 603.02 902.42 1979.16 610.17 2215.82 580.44 2072.30 752.42 2031.46 895.76 2228.78 873.51
00104359 00000035 1851.51 217.40 601.41 889.38 1984.54 605.79 2220.08 577.67 2079.20 749.97 2037.52 889.39 2231.54 868.13
00104360 00000036 1854.27 219.15 607.26 897.80 1988.16 602.65 2223.97 576.30 2079.88 747.79 2035.51 887.90 2235.60 867.67
00104361 00000037 1860.98 214.32 602.22 897.31 1993.28 591.32 2228.64 563.23 2088.53 731.48 2039.56 885.54 2228.38 863.70
00104362 00000038 1869.43 213.57 594.60 898.53 1998.25 583.07 2231.06 556.41 2089.66 719.47 2039.75 876.56 2231.12 856.07
00104363 00000039 1870.81 211.31 599.12 885.29 1995.33 571.02 2230.14 541.65 2082.99 693.61 2043.21 861.06 2235.89 841.51
00104364 00000040 1875.70 196.79 595.05 872.02 1998.03 552.22 2238.03 520.39 2094.65 654.91 2051.50 838.91 2240.48 818.10
00104365 00000041 1881.83 188.61 585.85 868.34 1999.78 532.98 2247.76 504.75 2097.14 624.41 2047.20 815.34 2242.78 797.22
00104366 00000042 1883.51 182.70 588.97 866.14 2000.85 528.57 2250.87 500.20 2093.88 609.05 2037.06 805.87 2236.11 787.42
00104367 00000043 1884.00 186.53 588.85 867.90 2000.83 529.56 2250.42 500.17 2092.26 606.73 2036.22 808.79 2233.77 789.09
00104368 00000044 1882.65 201.66 588.19 855.43 2000.49 533.18 2250.46 503.92 2095.10 611.75 2042.07 812.74 2238.01 792.83
00104369 00000045 1883.90 213.28 587.44 862.47 2001.12 541.90 2248.66 513.45 2090.51 618.94 2034.94 821.50 2238.20 801.09
00104370 00000046 1881.81 216.46 588.38 862.08 1999.22 549.47 2246.83 518.38 2089.25 623.47 2033.68 825.42 2242.10 802.44
00104371 00000047 1880.70 216.29 592.82 868.27 1997.77 556.37 2246.55 523.62 2088.05 628.53 2029.66 832.09 2243.28 807.53
00104372 00000048 1882.16 214.61 591.50 858.40 2000.32 552.12 2250.67 523.49 2090.77 629.73 2032.13 824.68 2247.28 804.09
00104373 00000049 1880.82 212.98 591.94 847.50 2003.32 545.12 2253.50 520.87 2094.90 624.63 2035.00 815.35 2245.35 799.02
00104374 00000050 1882.02 215.19 599.75 864.70 1996.70 536.69 2258.64 507.08 2094.97 621.36 2027.71 813.95 2245.51 790.04
00104375 00000051 1881.10 220.39 598.99 860.71 1995.67 537.25 2255.60 510.46 2094.02 624.73 2027.68 816.45 2237.91 795.49
00104376 00000052 1879.61 219.39 590.24 848.28 2001.35 554.31 2247.66 524.50 2092.70 625.93 2033.46 823.44 2243.77 801.94
00104377 00000053 1878.20 223.65 586.07 846.06 1997.03 554.41 2243.96 524.54 2088.38 628.54 2029.74 824.94 2238.15 803.13
00104378 00000054 1870.44 224.24 585.20 853.93 1993.50 551.29 2236.38 521.77 2083.29 626.26 2020.59 826.08 2226.68 805.24
00104379 00000055 1865.81 226.61 585.87 852.50 1989.99 552.17 2234.36 524.17 2078.89 626.78 2015.24 824.47 2224.17 804.61
00104380 00000056 1863.82 230.92 581.20 847.16 1986.45 553.05 2228.12 525.21 2075.33 628.76 2012.74 823.48 2217.75 803.69
00104381 00000057 1861.76 233.50 576.07 849.08 1979.26 550.49 2221.58 524.94 2066.36 627.92 2002.66 825.48 2207.61 807.70
00104382 00000058 1861.61 234.92 574.03 854.01 1970.37 548.98 2224.34 522.48 2070.78 638.01 2005.55 834.29 2195.18 814.83
00104383 00000059 1860.15 236.62 574.36 853.43 1965.84 553.04 2220.89 522.59 2067.14 641.71 2006.04 835.74 2198.95 812.57
00104384 00000060 1860.49 238.91 571.86 852.54 1962.28 552.30 2216.24 518.87 2061.42 637.01 1999.71 837.42 2193.79 811.59
00104385 00000061 1859.27 238.47 570.37 844.67 1962.31 549.86 2215.54 518.22 2061.58 632.67 1999.29 833.36 2191.49 809.16
00104386 00000062 1857.73 237.92 570.39 848.31 1962.04 544.22 2213.58 513.99 2062.59 627.36 1998.41 828.26 2189.51 805.14
00104387 00000063 1857.69 237.75 569.11 834.99 1959.81 542.32 2213.39 509.59 2060.45 621.66 1996.94 823.91 2188.72 798.25
00104388 00000064 1855.92 235.49 567.57 840.05 1955.83 545.95 2208.85 508.89 2055.36 622.33 1992.60 823.97 2189.91 794.30
00104389 00000065 1850.96 239.72 571.58 846.98 1953.27 549.09 2207.69 517.14 2053.77 628.69 1991.49 829.20 2185.12 804.73
00104390 00000066 1846.66 238.77 575.07 853.56 1950.35 556.65 2207.81 524.34 2051.40 638.72 1986.98 839.96 2186.81 814.92
00104391 00000067 1846.17 240.17 567.88 851.86 1954.52 564.28 2199.55 534.76 2045.15 648.62 1986.86 847.86 2179.39 828.23
00104392 00000068 1844.87 238.41 569.06 836.87 1950.89 565.46 2201.00 537.31 2043.54 651.11 1982.82 844.05 2178.05 826.15
00104393 00000069 1844.71 239.74 571.23 847.78 1952.28 565.07 2202.56 535.05 2044.48 646.72 1981.73 842.38 2183.61 821.72
00104394 00000070 1843.88 239.03 570.35 845.60 1953.89 563.20 2201.16 534.25 2046.04 644.20 1984.49 840.41 2177.72 820.93
00104395 00000071 1846.23 238.87 565.29 858.42 1954.27 565.39 2206.20 535.45 2047.44 648.82 1983.76 849.18 2189.50 828.40
00104396 00000072 1847.20 241.95 570.69 853.86 1956.81 569.55 2207.79 540.16 2052.51 653.68 1987.76 851.52 2190.67 831.89
00104397 00000073 1848.36 238.91 575.35 866.85 1963.21 571.64 2212.97 542.20 2060.06 652.89 1997.11 857.93 2196.10 838.33
00104398 00000074 1850.32 246.07 583.89 876.97 1967.46 568.44 2220.09 539.90 2065.66 657.83 2005.08 865.84 2192.25 842.58
00104399 00000075 1853.17 257.94 584.40 857.28 1972.12 574.23 2224.67 552.77 2073.68 677.72 2007.20 866.81 2196.71 850.36
00104400 00000076 1860.68 260.95 581.73 837.32 1979.00 574.28 2228.82 560.71 2076.43 684.94 2008.02 859.90 2189.28 853.92
00104401 00000077 1861.51 268.25 578.65 854.62 1978.89 578.96 2225.48 561.04 2076.24 688.57 2016.86 869.79 2192.49 858.21
00104402 00000078 1868.46 267.31 570.32 828.42 1989.68 580.78 2228.62 564.89 2078.96 685.24 2016.94 857.90 2203.10 848.16
00104403 00000079 1870.02 262.59 572.04 830.33 1992.39 576.71 2234.18 561.57 2085.12 680.08 2021.94 856.58 2205.29 847.65
00104404 00000080 1871.83 256.01 577.18 836.61 1993.03 572.54 2236.77 556.92 2089.45 673.04 2025.39 854.97 2208.37 845.88
00104405 00000081 1873.24 256.29 576.69 841.87 1991.62 571.60 2237.87 556.32 2088.16 673.04 2023.49 858.17 2209.32 849.38
00104406 00000082 1875.34 253.66 574.81 861.32 1994.76 576.19 2239.75 561.36 2088.15 683.72 2020.73 869.35 2211.77 860.71
00104407 00000083 1875.78 250.07 573.95 864.37 1995.92 579.81 2240.65 564.67 2085.07 692.56 2019.05 871.83 2215.92 862.80
00104408 00000084 1873.27 255.31 576.86 864.36 1992.69 590.34 2236.86 573.28 2085.04 698.95 2016.14 877.94 2215.37 867.80
00104409 00000085 1871.52 256.51 579.80 877.45 1991.02 591.63 2236.54 575.14 2083.68 702.48 2015.56 883.15 2211.77 873.28
00104410 00000086 1871.25 255.22 576.28 865.83 1993.49 588.17 2235.41 574.01 2084.65 700.76 2018.55 876.42 2207.00 868.52
00104411 00000087 1873.77 249.11 577.14 871.59 1995.28 582.83 2236.40 568.02 2084.49 698.49 2019.75 876.54 2206.77 868.14
00104412 00000088 1879.22 245.51 571.33 872.49 1997.40 576.30 2239.73 561.38 2087.65 691.86 2020.23 872.36 2213.36 863.31
00104413 00000089 1882.66 245.94 572.88 856.18 2004.45 570.97 2242.85 556.70 2093.35 683.68 2030.63 858.99 2215.70 850.39
00104414 00000090 1887.81 248.01 569.22 837.97 2010.75 571.45 2244.79 557.95 2100.34 684.03 2037.77 848.95 2221.37 840.80
00104415 00000091 1886.90 253.17 565.76 831.13 2012.18 573.08 2243.44 560.49 2101.14 684.25 2040.41 851.87 2216.17 844.51
00104416 00000092 1888.67 255.11 562.16 846.59 2009.72 576.04 2243.89 565.50 2096.46 691.04 2030.10 862.35 2214.77 856.88
00104417 00000093 1890.83 260.44 559.41 842.67 2011.69 583.28 2243.58 571.92 2098.11 698.88 2029.31 867.32 2218.26 861.31
00104418 00000094 1892.00 269.75 560.73 833.56 2015.92 593.76 2243.72 580.51 2104.04 703.23 2039.32 870.29 2215.46 863.02
00104419 00000095 1896.66 272.94 559.78 830.69 2021.01 601.04 2245.36 586.02 2110.51 716.89 2048.55 876.03 2218.77 867.20
00104420 00000096 1900.14 270.99 558.19 836.20 2022.71 608.64 2243.76 597.71 2105.54 729.52 2050.91 879.88 2231.14 873.48
00104421 00000097 1905.74 269.00 554.32 833.63 2024.98 604.19 2250.48 588.45 2113.55 718.10 2051.91 878.67 2227.11 869.61
00104422 00000098 1908.24 271.32 554.92 833.82 2029.42 607.14 2250.37 595.25 2107.97 724.69 2057.15 876.21 2242.96 869.32
00104423 00000099 1913.59 279.55 552.66 837.29 2034.49 600.89 2261.40 586.38 2123.09 713.34 2058.19 877.15 2244.41 868.01
00104424 00000100 1920.62 282.42 549.58 825.03 2040.84 603.21 2267.34 589.49 2131.97 711.21 2062.00 872.09 2248.52 863.86
00104425 00000101 1927.18 283.12 548.53 818.57 2048.27 604.37 2271.35 592.80 2134.86 716.67 2067.98 872.56 2250.98 866.02
00104426 00000102 1932.79 285.59 546.58 823.71 2053.48 606.74 2275.79 596.23 2140.35 716.86 2071.53 875.47 2254.64 870.28
00104427 00000103 1936.23 289.81 546.44 824.68 2056.73 610.03 2277.44 600.40 2141.91 721.02 2073.69 878.78 2255.97 874.56
00104428 00000104 1938.59 288.60 548.36 830.30 2056.94 611.69 2280.32 602.42 2141.00 723.52 2073.08 879.64 2256.48 876.10
00104429 00000105 1941.72 284.21 543.30 826.18 2059.97 613.24 2282.26 604.05 2144.03 722.13 2077.62 879.08 2259.78 875.88
00104430 00000106 1946.06 288.25 542.06 824.63 2061.97 613.07 2286.27 604.64 2146.15 723.60 2078.05 880.05 2261.06 877.48
00104431 00000107 1946.91 290.81 542.74 830.06 2063.23 613.08 2287.25 606.10 2144.38 724.92 2076.33 882.31 2260.79 880.96
00104432 00000108 1942.39 295.64 548.36 820.36 2062.17 610.74 2285.83 606.96 2144.19 728.19 2079.08 885.32 2257.90 886.08
00104433 00000109 1941.47 294.16 550.90 837.13 2061.57 612.30 2288.44 607.95 2144.97 729.07 2075.38 889.94 2260.00 890.58
00104434 00000110 1941.76 295.47 549.72 829.68 2060.05 613.64 2285.56 607.40 2143.43 730.79 2076.38 889.91 2261.28 888.83
00104435 00000111 1940.95 295.28 551.17 818.50 2058.02 613.19 2281.21 606.73 2139.00 732.62 2073.16 885.56 2254.50 884.18
00104436 00000112 1940.14 292.36 553.32 821.78 2055.75 612.49 2279.80 604.34 2136.99 729.44 2072.92 885.97 2252.39 883.64
00104437 00000113 1939.89 293.04 550.49 826.65 2055.61 612.49 2280.35 604.12 2137.57 727.59 2071.25 886.46 2254.03 883.99
00104438 00000114 1940.06 291.32 544.87 817.25 2054.84 612.98 2279.94 603.57 2138.99 727.08 2070.69 881.41 2254.98 877.80
00104439 00000115 1940.08 290.06 547.77 827.90 2053.82 613.34 2279.49 602.96 2137.81 726.54 2070.60 886.53 2253.32 882.43
00104440 00000116 1938.81 290.96 545.65 816.01 2054.46 613.87 2276.52 603.45 2137.50 724.73 2072.76 879.19 2252.26 874.72
00104441 00000117 1937.24 288.54 544.94 817.55 2053.05 613.10 2275.85 602.95 2135.10 726.54 2071.32 880.12 2253.45 875.68
00104442 00000118 1936.70 290.10 543.07 832.13 2051.81 612.49 2274.68 602.00 2135.51 724.77 2069.87 885.04 2253.16 880.43
00104443 00000119 1934.33 289.29 545.31 814.73 2049.49 611.28 2272.67 600.35 2134.15 722.88 2068.59 878.01 2248.44 872.96
00104444 00000120 1932.71 288.19 547.14 821.08 2049.21 610.30 2271.51 600.49 2132.46 722.59 2067.31 880.43 2245.17 876.38
00104445 00000121 1933.09 288.48 545.39 815.14 2048.82 610.61 2270.86 600.43 2133.43 724.18 2067.73 882.09 2245.08 877.60
00104446 00000122 1932.97 288.80 544.51 817.44 2048.58 610.80 2270.96 600.70 2133.24 725.07 2067.75 883.34 2245.42 878.94
00104447 00000123 1931.39 288.38 543.20 823.60 2046.14 609.83 2271.63 599.62 2131.67 724.14 2064.08 884.37 2244.78 880.10
00104448 00000124 1929.12 288.83 550.34 815.19 2044.83 610.05 2270.42 599.25 2128.77 721.53 2066.39 881.49 2242.78 876.68
00104449 00000125 1924.31 288.77 551.79 813.08 2041.34 609.45 2269.48 597.54 2129.32 717.06 2064.65 880.41 2239.72 874.84
00104450 00000126 1922.93 287.88 550.04 832.51 2037.88 615.92 2266.54 602.23 2125.62 724.57 2060.89 889.78 2239.48 883.31
00104451 00000127 1922.36 290.70 554.28 840.05 2036.92 623.86 2265.45 608.48 2124.15 734.42 2062.47 897.46 2243.18 889.50
00104452 00000128 1917.17 289.41 563.38 852.35 2032.36 632.02 2267.95 618.64 2120.96 743.14 2056.85 906.43 2240.56 900.88
00104453 00000129 1919.11 292.01 563.30 879.04 2031.41 639.93 2266.98 630.41 2112.72 759.72 2052.50 920.57 2245.11 918.18
00104454 00000130 1914.22 321.39 560.57 846.00 2034.26 652.59 2267.27 645.20 2121.14 767.54 2055.98 933.94 2243.41 931.64
00104455 00000131 1916.81 320.60 566.42 861.17 2033.38 674.82 2263.40 668.85 2114.33 806.14 2062.27 955.52 2241.08 955.36
00104456 00000132 1915.70 336.73 576.61 864.15 2033.45 688.09 2264.90 681.58 2112.96 821.01 2064.83 973.44 2243.90 972.99
00104457 00000133 1917.17 338.99 576.58 865.12 2037.81 692.34 2265.27 688.83 2113.86 829.34 2068.75 976.98 2244.09 978.83
00104458 00000134 1916.41 338.56 582.25 869.60 2044.25 685.26 2276.51 679.54 2127.06 820.62 2065.70 976.69 2245.33 975.47
00104459 00000135 1921.99 312.52 583.85 865.43 2049.72 672.14 2284.74 667.32 2134.68 803.61 2064.86 953.80 2253.82 953.02
00104460 00000136 1925.49 300.93 578.62 863.82 2056.97 658.99 2284.47 657.72 2139.67 790.66 2072.87 939.55 2249.01 941.56
00104461 00000137 1935.64 315.32 567.01 857.16 2056.34 645.16 2282.28 644.18 2134.77 768.74 2078.18 934.38 2249.51 936.76
00104462 00000138 1941.11 294.17 579.41 860.23 2063.38 633.61 2297.05 630.58 2146.52 753.65 2084.26 915.43 2254.79 917.22
00104463 00000139 1942.28 290.76 578.25 855.65 2067.11 617.71 2305.35 613.26 2154.37 738.55 2088.12 899.79 2270.15 900.28
00104464 00000140 1946.74 281.88 579.69 853.62 2072.28 611.56 2308.88 613.59 2158.45 723.25 2088.23 886.18 2281.70 890.52
00104465 00000141 1953.46 281.90 576.59 855.70 2082.80 609.96 2314.64 612.50 2165.49 721.17 2094.88 882.14 2289.73 886.60
00104466 00000142 1960.55 283.23 572.58 855.00 2090.90 609.97 2324.43 612.88 2174.51 719.67 2101.51 882.77 2295.75 888.09
00104467 00000143 1969.11 280.04 573.54 858.45 2095.66 607.69 2329.40 612.55 2175.38 722.43 2104.28 881.94 2299.42 888.90
00104468 00000144 1973.25 278.97 570.22 862.57 2100.46 606.83 2331.76 611.28 2177.10 723.86 2108.02 882.95 2302.39 889.83
00104469 00000145 1974.41 276.22 571.43 862.07 2099.48 608.27 2334.28 613.10 2177.37 724.99 2107.56 883.69 2303.44 890.94
00104470 00000146 1977.20 277.54 570.88 859.02 2099.44 610.69 2334.30 613.55 2176.01 728.53 2107.92 886.06 2304.16 891.91
00104471 00000147 1978.79 282.98 568.54 851.29 2100.84 614.15 2335.75 615.30 2177.20 731.42 2110.01 890.25 2304.40 894.86
00104472 00000148 1981.04 282.07 573.19 864.23 2102.59 615.97 2338.11 616.20 2176.78 728.06 2111.61 893.48 2308.86 897.39
00104473 00000149 1980.50 283.34 569.16 860.17 2103.27 617.83 2338.12 618.45 2178.10 731.87 2112.65 894.01 2306.64 898.28
00104474 00000150 1979.01 287.08 573.53 855.91 2103.01 619.07 2339.48 619.95 2178.55 731.51 2111.39 895.07 2306.97 899.48
00104475 00000151 1979.74 287.55 573.46 854.64 2103.06 620.28 2338.54 621.04 2178.28 731.19 2110.45 894.60 2306.00 898.93
00104476 00000152 1979.85 288.94 570.59 857.79 2102.52 620.42 2336.82 620.80 2178.07 731.62 2110.64 896.19 2305.24 900.15
00104477 00000153 1976.98 284.30 574.72 873.27 2096.99 620.26 2339.68 615.47 2179.13 736.62 2108.02 903.18 2303.28 905.15
00104478 00000154 1975.57 289.58 573.60 859.99 2100.43 621.02 2333.44 621.68 2174.52 734.87 2109.74 898.19 2301.16 902.45
00104479 00000155 1973.07 290.22 572.88 858.63 2099.37 621.53 2332.35 622.84 2174.38 735.78 2108.15 897.71 2299.31 902.38
00104480 00000156 1974.09 290.93 570.56 851.71 2098.28 622.40 2330.23 623.48 2174.80 737.39 2108.08 896.21 2297.99 900.64
00104481 00000157 1970.98 289.77 576.82 854.60 2096.47 623.18 2329.01 624.31 2172.59 739.25 2106.74 897.40 2297.95 901.90
00104482 00000158 1968.88 291.27 575.70 855.35 2094.62 622.67 2328.79 623.83 2172.21 737.00 2104.02 896.62 2298.21 901.03
00104483 00000159 1964.88 295.00 577.14 843.82 2092.24 623.15 2327.35 624.02 2171.59 738.55 2104.41 896.40 2295.60 900.42
00104484 00000160 1961.58 294.67 580.13 853.26 2088.70 624.62 2326.06 624.78 2169.41 739.46 2100.07 899.90 2295.39 903.45
00104485 00000161 1959.39 293.92 582.14 860.78 2086.34 624.75 2323.09 623.43 2167.56 739.74 2099.91 902.28 2296.69 904.57
00104486 00000162 1956.66 295.28 577.81 850.04 2084.89 624.69 2322.68 625.29 2169.18 739.76 2099.28 900.15 2291.08 903.87
