Video ID: 	dUo-dqMriY8
H: 	1080
W: 	1920
FPS: 	25.0

FRAME INDEX X0 Y0 W H [Landmarks (5 Points)]

00032059 00000000 473.04 130.81 381.24 526.53 597.91 349.45 773.80 343.71 707.37 435.16 637.41 533.32 773.94 529.03
00032060 00000001 470.25 133.13 382.36 524.85 592.95 348.99 768.30 342.79 701.19 434.53 633.40 532.18 770.72 527.51
00032061 00000002 467.15 130.07 384.14 532.04 588.77 348.74 762.27 341.62 695.34 434.35 631.50 535.50 765.08 530.01
00032062 00000003 466.55 138.25 381.14 531.89 584.42 353.51 755.22 339.39 693.24 434.65 623.99 544.20 760.41 532.67
00032063 00000004 463.38 134.39 382.18 540.22 578.11 356.36 750.84 339.73 686.70 437.00 617.26 547.49 757.64 534.31
00032064 DELETE   460.94 135.18 382.56 542.04 573.04 360.07 745.80 342.98 680.14 439.66 612.46 549.63 753.90 536.07
00032065 DELETE   458.34 136.92 382.97 539.25 567.90 362.17 742.02 346.54 672.61 440.47 606.07 546.82 752.40 534.11
00032066 00000007 455.68 138.62 384.71 538.10 562.48 361.19 738.98 346.93 664.52 441.18 601.55 547.52 748.32 535.89
00032067 00000008 452.23 141.25 385.94 532.96 559.06 362.26 731.65 346.92 657.93 442.36 599.53 548.71 739.15 536.41
00032068 00000009 449.19 142.20 387.35 531.21 555.86 362.80 728.87 347.06 654.54 442.33 596.44 548.86 735.45 536.37
00032069 00000010 448.32 143.98 387.21 529.81 553.86 363.49 727.35 348.39 651.06 443.82 593.02 549.13 732.00 537.28
00032070 00000011 447.66 142.95 386.91 529.64 551.61 364.04 725.54 348.88 648.11 443.43 590.73 548.49 730.30 536.64
00032071 00000012 447.09 144.00 387.38 525.97 549.96 365.04 724.61 349.84 646.32 443.98 589.84 548.08 729.99 536.10
00032072 00000013 446.07 145.71 387.34 521.45 549.16 366.67 722.38 351.83 644.34 445.37 589.02 547.40 727.59 535.66
00032073 00000014 444.68 146.88 388.47 520.12 547.78 367.37 721.33 352.81 642.50 445.77 586.46 546.23 726.54 534.63
00032074 00000015 444.32 147.39 389.25 519.64 546.82 367.49 720.17 352.96 641.08 446.96 584.83 545.65 725.30 534.06
00032075 00000016 444.80 147.66 388.51 521.93 546.26 368.46 719.03 354.24 639.25 448.27 582.44 545.70 723.37 534.35
00032076 00000017 443.89 146.88 388.75 523.71 545.55 369.63 717.04 354.70 638.22 449.86 583.31 548.42 720.41 536.65
00032077 00000018 450.07 150.44 382.74 525.78 543.47 371.02 714.80 350.05 639.14 446.54 579.93 554.10 720.65 536.48
00032078 00000019 451.59 150.89 380.58 529.52 543.83 375.11 713.89 355.50 636.26 446.38 574.57 552.03 721.10 536.00
00032079 00000020 451.41 151.80 380.07 529.33 543.78 376.24 711.75 359.02 633.50 444.90 570.71 549.40 717.69 535.98
00032080 00000021 451.23 150.46 378.93 527.66 540.59 374.38 707.95 356.78 627.07 442.96 567.37 547.78 714.45 534.04
00032081 00000022 447.26 142.31 380.01 528.40 538.46 369.22 709.38 361.28 618.45 442.60 560.84 539.03 707.70 533.50
00032082 00000023 445.51 140.74 381.55 526.11 535.07 365.22 707.46 359.85 613.14 439.98 556.54 536.42 702.79 533.08
00032083 00000024 446.47 137.28 381.43 531.61 534.13 361.65 707.56 359.93 609.43 439.13 553.43 535.42 700.62 535.06
00032084 00000025 446.12 136.31 383.56 533.46 534.01 360.56 708.76 360.79 607.65 439.35 550.95 535.36 699.70 536.63
00032085 00000026 447.32 134.13 382.36 536.74 533.86 360.69 708.22 362.28 605.34 440.66 548.96 535.17 698.43 537.56
00032086 00000027 448.91 135.83 380.92 536.98 535.25 361.00 709.00 363.67 604.73 442.12 548.53 536.24 696.80 539.68
00032087 00000028 449.93 135.78 381.93 541.16 535.32 362.66 710.47 365.37 604.22 444.59 547.93 539.27 697.87 542.84
00032088 00000029 452.08 137.13 380.30 540.58 537.31 363.71 711.06 366.92 604.70 446.52 548.88 540.21 697.64 544.43
00032089 00000030 453.50 137.51 379.48 538.84 537.88 364.91 711.94 367.92 604.71 446.52 549.53 540.74 698.04 544.96
00032090 00000031 454.37 137.19 379.47 538.62 538.91 365.74 713.14 369.28 605.01 447.57 550.36 541.25 698.73 545.87
00032091 00000032 455.80 138.48 379.23 539.05 541.02 366.79 714.55 370.70 606.67 449.16 552.30 542.73 699.34 547.69
00032092 00000033 456.64 139.55 379.43 534.89 541.21 368.10 714.90 371.14 606.98 450.35 554.06 543.74 699.33 547.99
00032093 00000034 457.41 140.53 379.70 532.01 542.24 367.74 715.31 371.37 607.43 451.00 555.13 543.53 698.74 548.31
00032094 00000035 457.42 142.40 380.88 532.89 542.65 368.11 716.31 371.94 607.31 452.30 554.90 544.40 700.11 549.43
00032095 00000036 462.88 148.19 374.26 528.51 544.33 374.06 717.02 374.24 620.65 453.99 556.14 549.22 704.82 550.49
00032096 00000037 462.92 149.27 374.62 529.75 545.00 374.06 718.37 375.94 621.47 455.54 555.43 549.12 705.09 551.67
00032097 00000038 462.85 148.91 376.34 532.17 545.71 373.96 718.78 375.84 622.17 456.06 557.03 549.30 705.77 551.66
00032098 00000039 463.04 149.57 376.99 529.84 546.41 374.23 719.54 376.86 623.20 456.91 557.00 547.82 706.60 550.76
00032099 00000040 463.64 151.74 377.16 528.94 547.80 374.23 721.12 377.14 625.40 458.14 557.78 548.45 708.02 551.54
00032100 00000041 465.87 152.80 376.70 526.20 549.96 376.01 723.59 378.35 628.95 460.79 560.87 548.89 711.55 551.31
00032101 00000042 468.78 152.13 379.31 524.62 561.14 381.11 734.69 381.91 644.84 463.30 573.14 550.81 722.51 552.15
00032102 DELETE   474.94 149.76 382.69 535.96 579.93 385.00 748.15 381.84 672.31 470.23 601.16 556.81 744.61 554.12
00032103 DELETE   479.47 160.45 386.97 542.58 606.39 382.58 775.08 377.60 711.27 479.19 633.77 569.71 767.65 566.15
00032104 DELETE   487.51 161.19 378.98 548.12 623.68 387.45 789.96 373.88 741.76 480.74 662.02 576.81 791.33 565.25
00032105 00000046 500.65 158.08 370.51 548.89 637.08 398.06 796.76 373.12 760.38 483.90 681.21 579.74 810.80 558.57
00032106 00000047 504.74 160.22 372.04 548.23 649.28 402.55 804.12 369.45 778.35 484.58 694.21 582.60 822.78 555.01
00032107 00000048 505.29 160.37 368.36 548.07 651.27 405.68 803.18 366.13 784.51 481.18 698.66 585.54 825.16 553.09
00032108 00000049 500.92 162.66 369.35 544.58 650.83 406.41 798.05 363.91 783.81 479.99 701.63 586.22 822.11 551.28
00032109 00000050 495.48 164.78 369.86 542.16 647.12 405.75 795.13 364.35 780.11 482.08 700.01 588.26 816.83 554.10
00032110 00000051 489.75 167.51 373.41 538.90 642.80 406.43 793.74 365.75 776.97 483.76 695.04 587.01 814.41 553.47
00032111 00000052 487.76 166.94 374.28 540.28 640.43 407.81 791.72 365.52 775.13 484.72 693.37 586.49 815.33 551.72
00032112 00000053 485.86 167.84 374.18 538.76 638.28 407.16 789.38 364.95 773.48 484.01 693.24 586.05 815.89 551.27
00032113 00000054 484.71 169.27 374.26 537.24 637.13 408.09 788.81 365.93 772.67 485.32 691.19 586.45 814.26 551.93
00032114 00000055 484.41 169.03 374.20 538.74 636.10 408.57 788.52 366.41 771.46 485.96 691.11 587.48 814.05 552.86
00032115 00000056 485.25 170.15 372.82 537.60 636.41 408.25 788.61 366.84 770.61 486.82 689.95 588.12 812.46 554.21
00032116 00000057 485.15 171.32 372.60 536.94 636.21 407.22 788.40 367.19 769.68 486.64 690.06 588.66 810.70 555.82
00032117 00000058 485.35 170.40 372.31 540.19 637.26 407.24 788.03 368.00 769.51 487.24 690.27 589.34 809.97 557.13
00032118 00000059 486.42 171.14 370.85 540.21 638.83 407.47 788.18 368.87 769.59 488.68 692.61 591.78 808.58 560.08
00032119 00000060 486.22 170.55 371.00 541.71 638.87 407.74 788.35 368.93 769.47 488.84 691.22 591.35 808.12 559.56
00032120 00000061 485.91 170.27 372.39 541.63 638.22 408.29 788.44 368.74 769.23 487.66 689.73 590.02 808.64 557.55
00032121 00000062 485.36 169.98 373.49 542.71 638.54 408.40 787.92 368.32 769.42 487.17 688.31 588.74 808.85 555.93
00032122 00000063 484.73 169.82 374.62 542.62 637.75 407.98 787.64 368.03 769.01 486.93 686.92 587.61 809.06 554.97
00032123 00000064 484.79 169.24 374.24 541.51 636.55 407.39 788.04 367.08 768.75 486.75 685.33 586.67 809.42 553.83
00032124 00000065 484.83 168.52 373.80 541.38 635.57 407.16 787.98 366.70 768.00 486.99 684.09 586.13 809.47 553.27
00032125 00000066 484.66 166.42 372.92 542.61 636.65 405.50 788.62 365.83 768.69 486.57 685.03 585.92 808.09 553.72
00032126 00000067 483.64 164.61 373.01 541.50 635.49 402.28 788.50 364.23 767.83 482.99 683.68 583.32 807.02 552.51
00032127 00000068 484.35 160.11 373.34 541.02 632.62 394.87 785.62 355.99 766.12 467.80 685.33 577.72 807.78 546.08
00032128 00000069 483.38 151.32 374.98 543.50 634.21 387.08 784.05 349.26 766.89 455.59 686.74 571.79 805.02 541.15
00032129 00000070 478.54 147.00 377.90 545.00 629.73 378.76 782.57 343.05 763.85 448.97 683.27 567.70 802.77 538.72
00032130 00000071 474.89 147.12 378.90 545.59 624.35 386.26 777.93 352.09 757.94 449.62 677.32 567.46 800.17 540.47
00032131 00000072 469.97 146.33 380.91 543.86 621.37 383.25 778.12 350.44 756.09 446.33 672.48 563.04 799.72 537.09
00032132 00000073 470.16 136.51 377.83 548.74 616.27 383.33 780.10 352.30 745.71 444.14 661.89 554.34 804.58 529.15
00032133 00000074 470.63 135.14 379.83 547.22 616.40 377.74 782.60 349.99 745.82 440.06 661.91 552.05 805.04 529.22
00032134 00000075 473.48 130.37 379.93 547.80 621.83 375.43 785.56 349.22 751.23 438.64 668.28 549.85 808.48 527.67
00032135 DELETE   478.87 126.34 376.28 550.34 629.55 377.22 789.89 350.56 760.69 438.20 674.10 548.99 812.68 526.07
00032136 00000077 484.77 124.27 373.83 551.50 636.70 382.05 793.58 349.76 770.45 439.95 686.07 553.81 818.79 526.36
00032137 00000078 494.20 125.90 372.37 557.50 647.84 376.78 799.11 344.84 787.34 434.96 699.02 560.05 822.61 534.02
00032138 DELETE   496.18 131.68 374.95 556.11 656.75 389.23 805.73 352.12 799.81 437.37 713.65 567.44 834.66 536.29
00032139 00000080 504.17 139.89 371.83 551.83 664.51 402.91 808.21 357.53 806.31 447.12 719.22 574.06 841.70 536.42
00032140 00000081 508.88 145.87 367.97 550.54 665.85 411.57 812.67 360.44 809.83 455.57 720.99 581.85 846.16 539.62
00032141 00000082 510.21 149.97 367.54 553.22 669.29 417.91 815.73 365.61 812.14 461.67 721.97 587.44 846.84 544.44
00032142 00000083 511.59 155.40 366.69 550.84 676.66 426.64 821.07 373.28 819.52 472.47 723.60 593.67 847.10 550.60
00032143 00000084 515.71 162.91 363.05 546.69 683.19 437.94 825.96 379.77 827.11 482.58 725.77 601.29 849.44 554.86
00032144 00000085 517.23 169.52 363.11 544.34 686.01 444.85 830.47 383.83 834.98 488.73 729.45 606.75 855.90 558.10
00032145 00000086 519.22 171.50 362.34 547.49 691.23 449.24 835.30 389.76 840.67 496.06 732.02 610.16 859.48 562.95
00032146 00000087 521.03 168.66 362.76 555.15 697.29 453.91 838.55 393.37 846.39 505.29 733.03 613.42 860.53 565.85
00032147 00000088 526.96 170.65 362.23 556.14 689.26 450.55 840.78 396.85 836.68 510.90 743.66 615.49 870.24 573.94
00032148 00000089 527.28 171.22 364.00 556.51 692.63 452.65 843.91 398.42 841.38 515.59 745.77 617.95 871.32 575.83
00032149 00000090 529.58 170.20 361.33 558.59 694.31 457.34 845.35 400.57 843.85 518.01 747.66 620.47 871.89 576.90
00032150 00000091 530.65 172.29 359.37 558.10 695.74 458.44 846.94 404.98 844.56 516.28 747.20 619.54 871.30 578.93
00032151 00000092 530.00 173.62 360.89 556.14 696.81 456.76 847.40 404.42 845.69 515.05 748.10 618.56 871.22 578.69
00032152 00000093 533.28 167.86 357.17 560.64 699.19 455.14 849.61 401.87 848.18 514.63 748.36 616.73 872.30 576.54
00032153 00000094 533.73 167.39 357.03 556.44 700.51 449.92 848.02 399.87 847.70 510.18 750.61 611.31 872.07 573.21
00032154 00000095 537.02 169.72 352.40 552.28 706.47 445.49 850.49 399.85 851.10 507.06 754.20 606.95 871.86 571.98
00032155 00000096 538.25 167.90 351.20 554.39 710.79 443.43 852.14 397.33 857.00 502.12 756.23 604.71 872.21 569.71
00032156 00000097 539.62 165.84 351.93 558.76 727.65 435.57 861.47 392.91 866.59 505.88 748.21 604.17 869.80 571.13
00032157 00000098 542.31 165.17 348.61 556.22 717.99 441.82 852.60 396.70 861.53 495.48 761.83 600.78 872.59 566.46
00032158 00000099 544.17 169.41 347.59 551.05 720.98 440.09 853.31 396.84 862.65 493.80 764.08 598.64 871.81 565.82
00032159 00000100 545.00 169.62 347.06 549.72 723.57 440.26 853.37 397.45 863.56 494.61 764.27 598.55 870.12 565.99
00032160 00000101 543.53 168.87 348.90 548.91 724.82 439.64 854.81 398.49 866.57 494.10 766.08 598.20 871.82 566.64
00032161 00000102 545.00 165.02 347.73 551.13 725.40 438.73 855.05 397.74 866.30 492.51 766.25 597.11 872.41 565.54
00032162 00000103 545.22 162.12 347.78 553.68 725.97 437.61 855.73 397.54 867.21 491.49 767.11 596.33 873.00 565.68
00032163 00000104 545.16 161.96 348.12 553.03 726.40 436.48 855.90 396.91 868.47 490.76 767.54 596.00 873.17 565.69
00032164 00000105 544.07 161.88 350.55 553.05 727.09 436.57 856.74 396.25 871.38 489.89 768.36 595.61 874.50 564.77
00032165 00000106 545.48 160.27 350.27 554.09 726.15 436.78 857.53 394.48 871.41 489.69 766.58 595.48 875.28 563.19
00032166 00000107 545.45 160.76 351.02 553.02 727.43 437.07 858.21 394.99 872.94 489.48 767.81 595.47 875.64 563.38
00032167 00000108 546.67 162.74 350.41 550.36 727.46 437.52 857.83 395.42 872.98 489.14 769.24 595.68 876.36 563.36
00032168 00000109 547.92 159.79 349.73 553.08 728.41 437.26 857.34 395.36 872.34 487.86 773.34 596.63 876.53 564.43
00032169 00000110 546.94 158.04 351.96 555.80 729.20 438.20 857.05 395.48 872.98 487.71 774.87 596.26 876.98 563.32
00032170 00000111 546.29 158.86 352.00 557.11 729.08 438.67 856.09 396.36 871.46 487.77 774.24 595.89 876.59 563.29
00032171 00000112 540.84 159.30 351.27 557.52 720.24 441.00 852.49 398.67 863.19 490.34 766.87 595.73 872.03 563.53
00032172 00000113 538.77 156.97 354.32 561.12 729.10 432.26 862.45 395.71 864.95 499.40 746.75 600.81 864.19 572.53
00032173 00000114 528.00 165.55 358.90 550.33 710.87 434.19 852.59 395.56 848.81 498.21 735.51 606.98 852.68 576.61
CROP_BBOX: 227 0 1164 917
