Video ID: 	qvIOSF7RSok
H: 	2160
W: 	3840
FPS: 	24.0

FRAME INDEX X0 Y0 W H [Landmarks (5 Points)]

00005494 00000000 1739.18 276.69 837.68 1404.74 2175.79 888.84 2516.04 1016.80 2441.61 1167.08 2135.29 1344.23 2392.74 1448.09
00005495 00000001 1740.52 283.42 834.50 1398.03 2183.96 891.88 2516.74 1031.05 2442.04 1182.98 2130.44 1344.13 2381.29 1457.60
00005496 00000002 1766.29 298.42 808.36 1389.45 2191.15 887.33 2523.58 1035.69 2435.66 1182.53 2126.48 1341.38 2380.17 1462.82
00005497 00000003 1758.74 303.77 817.16 1392.19 2194.47 888.16 2528.28 1037.97 2436.70 1183.11 2132.72 1347.82 2388.29 1470.74
00005498 00000004 1746.36 299.72 841.42 1403.07 2191.46 880.15 2528.12 1036.27 2446.11 1186.02 2136.80 1359.21 2388.40 1484.32
00005499 00000005 1773.33 312.23 826.25 1384.31 2206.75 875.45 2557.33 1014.38 2446.04 1189.98 2130.32 1351.15 2403.38 1466.42
00005500 00000006 1775.86 312.74 826.37 1381.58 2209.85 876.45 2555.36 1006.83 2451.61 1191.32 2136.44 1352.20 2404.10 1461.20
00005501 00000007 1772.04 311.53 831.24 1384.10 2216.28 880.05 2561.38 1012.23 2465.44 1192.01 2147.62 1354.98 2415.01 1465.10
00005502 00000008 1788.48 314.66 823.38 1376.38 2225.48 889.85 2572.80 1024.74 2472.07 1188.12 2159.92 1351.03 2431.34 1463.71
00005503 DELETE   1803.63 291.46 816.17 1403.69 2225.03 889.73 2568.45 1010.76 2466.77 1190.37 2166.10 1359.16 2434.48 1459.58
00005504 00000010 1811.99 298.20 815.49 1390.03 2231.71 887.50 2574.11 998.87 2480.45 1185.11 2177.60 1364.23 2438.56 1457.69
00005505 00000011 1808.83 284.68 809.76 1411.52 2242.14 858.19 2567.72 998.42 2502.84 1176.57 2191.00 1357.62 2419.84 1473.31
00005506 00000012 1813.01 308.45 819.49 1359.84 2229.25 888.80 2585.87 997.41 2485.93 1181.48 2186.18 1364.63 2456.98 1456.16
00005507 00000013 1795.60 292.65 826.23 1390.33 2241.55 854.10 2563.74 992.80 2499.38 1180.64 2191.61 1350.36 2420.09 1464.88
00005508 00000014 1791.02 294.22 829.94 1375.17 2243.28 856.14 2566.37 988.31 2494.81 1187.27 2190.65 1353.20 2417.83 1462.39
00005509 00000015 1793.31 294.35 824.31 1379.35 2242.24 854.33 2559.70 992.26 2488.27 1184.96 2184.57 1353.83 2406.94 1467.12
00005510 00000016 1795.62 306.29 819.08 1364.95 2238.13 850.45 2559.50 983.21 2485.78 1177.16 2183.12 1349.62 2411.20 1459.10
00005511 00000017 1794.65 310.98 820.07 1364.08 2234.80 851.33 2558.86 981.99 2481.16 1175.54 2176.74 1350.90 2406.86 1459.08
00005512 00000018 1791.57 304.86 812.73 1367.64 2230.44 849.80 2547.03 979.99 2472.61 1174.78 2173.95 1346.88 2398.20 1454.46
00005513 00000019 1778.21 300.25 814.86 1373.17 2225.96 845.72 2529.90 984.59 2469.27 1173.23 2166.55 1340.99 2385.52 1454.88
00005514 00000020 1789.90 303.29 807.60 1362.68 2229.18 848.42 2534.78 981.66 2467.13 1167.78 2173.72 1343.12 2385.84 1452.63
00005515 00000021 1782.90 303.64 811.64 1363.93 2229.85 850.77 2532.79 983.87 2468.73 1170.67 2176.77 1346.38 2388.38 1455.32
00005516 00000022 1792.35 303.55 806.79 1366.61 2232.14 852.17 2540.98 987.33 2477.46 1166.36 2180.90 1347.86 2396.67 1458.73
00005517 00000023 1802.56 293.42 805.72 1379.10 2239.63 850.14 2555.21 986.24 2493.32 1164.79 2189.76 1346.34 2412.50 1458.44
00005518 00000024 1809.90 301.57 811.72 1373.19 2246.92 849.74 2566.19 990.67 2502.58 1166.65 2194.19 1343.39 2420.63 1459.38
00005519 00000025 1808.83 298.01 812.89 1386.11 2248.04 850.64 2562.35 988.07 2508.26 1172.24 2197.25 1345.72 2422.13 1458.79
00005520 00000026 1803.08 289.49 817.65 1400.91 2252.18 845.91 2562.19 988.78 2507.70 1174.39 2196.49 1342.73 2419.21 1460.14
00005521 00000027 1801.33 291.34 817.32 1402.93 2254.79 845.52 2564.12 992.71 2510.08 1177.89 2197.94 1347.53 2417.82 1468.38
00005522 00000028 1803.04 286.50 814.40 1400.62 2251.85 848.34 2559.37 990.42 2509.08 1174.90 2199.95 1347.40 2417.75 1463.90
00005523 00000029 1808.26 291.64 800.52 1397.48 2252.41 847.52 2549.83 992.30 2510.42 1172.95 2199.36 1346.75 2408.41 1466.37
00005524 00000030 1806.01 295.95 796.42 1396.30 2248.49 850.13 2546.08 995.50 2505.05 1171.75 2198.29 1349.06 2406.02 1469.63
00005525 00000031 1804.72 302.83 799.06 1381.40 2244.91 847.81 2543.05 988.40 2498.61 1168.07 2195.91 1347.53 2402.09 1464.07
00005526 00000032 1808.55 310.28 788.67 1365.74 2240.91 847.80 2536.71 984.36 2496.73 1169.10 2193.91 1346.90 2397.80 1460.39
00005527 00000033 1805.74 304.02 795.83 1374.88 2241.94 846.36 2540.92 982.84 2497.62 1171.27 2192.47 1346.59 2399.24 1460.20
00005528 00000034 1807.98 305.60 791.05 1378.57 2248.34 869.07 2533.21 1012.18 2495.28 1177.69 2197.46 1348.59 2395.94 1467.14
00005529 00000035 1790.50 284.24 810.42 1405.57 2239.28 898.76 2536.97 1019.47 2494.83 1185.41 2206.83 1372.91 2407.88 1472.37
00005530 00000036 1810.15 318.49 784.13 1375.40 2243.16 921.27 2550.76 1034.93 2482.19 1203.29 2196.11 1375.54 2435.40 1470.18
00005531 00000037 1799.36 309.88 805.23 1396.08 2251.43 882.55 2546.49 1021.59 2514.45 1193.52 2214.29 1369.58 2423.08 1484.50
00005532 00000038 1805.00 310.71 808.33 1418.61 2258.16 872.48 2546.52 1015.01 2527.22 1196.66 2214.99 1368.10 2423.59 1487.11
00005533 00000039 1819.26 330.52 793.76 1384.07 2257.30 914.98 2562.92 1029.46 2514.35 1199.95 2216.59 1384.05 2456.21 1480.46
00005534 00000040 1819.71 310.17 807.51 1416.19 2256.92 875.08 2554.17 1004.86 2532.07 1191.49 2219.45 1374.53 2432.52 1482.92
00005535 00000041 1819.38 297.03 814.89 1430.46 2264.10 876.74 2554.60 1002.90 2538.06 1192.04 2225.17 1375.43 2430.87 1480.93
00005536 00000042 1818.74 307.96 817.47 1418.84 2262.85 872.63 2555.11 999.33 2536.80 1189.95 2224.47 1370.93 2433.61 1477.10
00005537 00000043 1815.40 301.12 816.02 1430.20 2263.68 867.51 2548.89 1001.70 2539.35 1186.93 2222.19 1370.16 2425.96 1482.11
00005538 00000044 1817.54 304.89 819.80 1431.67 2263.02 869.27 2550.51 993.54 2541.35 1185.72 2225.64 1373.52 2430.83 1478.30
00005539 00000045 1806.72 306.78 827.08 1429.98 2265.04 872.21 2550.32 991.10 2543.44 1188.56 2231.02 1377.45 2433.33 1477.39
00005540 00000046 1801.72 309.11 835.60 1433.52 2268.09 874.51 2546.94 993.08 2544.51 1189.58 2232.80 1376.23 2431.69 1476.04
00005541 00000047 1811.50 292.57 830.29 1451.46 2272.32 875.80 2552.18 995.14 2543.38 1190.09 2233.64 1377.28 2430.79 1477.03
00005542 00000048 1815.25 322.54 820.32 1426.46 2266.54 915.52 2556.17 1023.47 2532.30 1204.43 2248.24 1412.47 2454.88 1498.75
00005543 00000049 1809.66 328.39 822.35 1422.15 2262.81 918.64 2550.99 1026.17 2528.91 1201.39 2245.46 1410.36 2453.33 1496.70
00005544 00000050 1812.39 325.65 814.51 1422.04 2266.83 919.06 2545.32 1024.81 2532.67 1200.56 2248.03 1408.27 2449.64 1493.10
00005545 00000051 1823.13 325.32 807.99 1414.83 2264.08 918.91 2546.15 1024.28 2529.84 1198.76 2236.85 1401.55 2447.89 1485.93
00005546 00000052 1825.03 330.13 805.99 1415.85 2273.27 911.11 2556.54 1018.48 2540.10 1195.23 2238.15 1398.74 2453.42 1485.23
00005547 00000053 1819.17 319.62 810.73 1430.12 2274.47 902.96 2560.90 1008.14 2547.37 1186.89 2239.86 1393.40 2458.26 1478.14
00005548 00000054 1826.43 314.00 800.43 1432.34 2275.36 895.79 2565.20 1003.33 2550.73 1173.84 2247.77 1386.75 2467.89 1473.10
00005549 00000055 1833.32 287.72 803.49 1462.63 2285.68 842.23 2559.14 972.56 2561.48 1151.44 2244.57 1352.03 2450.77 1461.41
00005550 00000056 1826.90 285.61 809.16 1462.34 2282.50 838.44 2551.27 963.87 2562.05 1137.33 2253.58 1350.65 2452.24 1455.22
00005551 00000057 1831.65 283.36 802.67 1453.75 2275.93 835.83 2542.44 948.61 2560.41 1125.23 2260.69 1345.93 2456.70 1440.05
00005552 00000058 1820.72 282.91 803.50 1445.54 2269.92 828.43 2535.35 940.77 2557.90 1117.88 2262.92 1345.03 2455.55 1438.17
00005553 00000059 1816.54 290.36 800.11 1434.31 2263.65 823.40 2531.74 945.15 2550.14 1111.80 2260.52 1341.16 2450.34 1441.94
00005554 00000060 1796.35 293.80 814.93 1429.54 2256.40 815.93 2534.55 947.08 2544.95 1111.26 2247.38 1335.90 2447.94 1443.96
00005555 00000061 1783.85 293.21 822.14 1417.97 2253.04 814.49 2530.43 946.28 2546.26 1115.38 2239.49 1333.57 2440.54 1442.23
00005556 00000062 1783.20 300.00 821.29 1408.53 2244.86 813.41 2522.48 940.87 2543.52 1109.96 2233.64 1333.82 2433.69 1439.39
00005557 00000063 1780.46 301.35 829.08 1402.37 2238.68 817.64 2521.04 936.05 2540.97 1111.18 2225.42 1334.77 2431.08 1432.92
00005558 00000064 1780.65 299.93 830.70 1397.44 2237.40 819.01 2525.40 936.98 2538.40 1109.81 2223.49 1334.25 2433.42 1431.78
00005559 00000065 1777.41 298.07 833.65 1402.24 2237.43 819.50 2518.64 932.94 2536.72 1108.36 2222.56 1332.64 2428.28 1426.80
00005560 00000066 1776.20 300.73 830.54 1399.24 2235.64 819.46 2520.12 931.80 2537.62 1105.71 2222.74 1334.20 2429.08 1427.30
00005561 00000067 1768.65 297.66 830.99 1400.23 2230.61 822.53 2511.89 919.25 2541.36 1101.90 2227.39 1339.46 2429.88 1419.93
00005562 00000068 1780.01 305.18 820.45 1395.16 2232.78 823.38 2514.26 918.66 2542.81 1102.68 2227.12 1337.31 2433.62 1417.60
00005563 00000069 1777.61 302.29 826.69 1392.09 2235.52 823.79 2515.86 922.88 2540.23 1103.45 2228.02 1334.88 2435.05 1417.45
00005564 00000070 1781.46 299.78 821.49 1397.16 2237.17 821.88 2516.92 926.10 2543.26 1105.10 2225.14 1329.99 2432.57 1417.18
00005565 00000071 1758.62 296.88 844.95 1403.39 2237.56 819.89 2521.01 928.56 2545.80 1113.83 2208.05 1328.40 2425.90 1420.21
00005566 00000072 1756.96 301.92 851.13 1408.88 2231.58 820.36 2524.54 930.22 2542.79 1117.62 2191.47 1326.39 2426.08 1419.80
00005567 00000073 1750.70 297.10 852.84 1411.98 2232.96 820.44 2522.46 929.79 2543.44 1120.22 2186.45 1325.06 2419.92 1418.37
00005568 00000074 1744.29 301.32 858.19 1399.87 2235.26 819.80 2515.94 941.59 2538.21 1124.23 2189.61 1318.72 2413.84 1421.27
00005569 00000075 1731.13 296.00 872.75 1410.59 2234.61 814.15 2526.52 942.28 2536.03 1124.31 2184.36 1315.86 2424.40 1422.96
00005570 00000076 1737.66 291.34 865.81 1415.20 2238.05 810.53 2526.98 939.76 2538.51 1121.11 2189.36 1309.40 2426.40 1417.25
00005571 00000077 1754.54 293.68 848.50 1402.71 2236.11 804.82 2529.02 935.40 2536.81 1116.62 2189.63 1303.67 2428.76 1411.61
00005572 00000078 1746.54 282.44 845.37 1405.82 2236.95 799.07 2523.77 935.45 2535.80 1117.47 2191.43 1297.79 2420.72 1409.88
00005573 00000079 1749.77 279.04 837.93 1404.69 2234.13 799.08 2521.55 929.92 2532.95 1117.15 2193.22 1298.97 2421.40 1406.56
00005574 00000080 1746.46 291.24 826.80 1371.58 2225.44 834.41 2516.26 947.02 2514.19 1108.88 2195.07 1307.73 2433.45 1401.66
00005575 00000081 1732.16 285.16 838.63 1391.83 2225.18 831.89 2509.90 946.73 2511.70 1111.38 2192.94 1309.80 2428.53 1405.75
00005576 00000082 1749.05 284.40 817.78 1387.07 2219.83 836.60 2506.10 949.73 2501.76 1112.69 2191.92 1308.47 2427.52 1401.96
00005577 00000083 1753.62 275.41 802.80 1379.84 2221.15 838.38 2504.28 956.28 2493.65 1113.68 2196.06 1306.00 2421.35 1402.73
00005578 00000084 1778.19 284.45 782.61 1372.88 2223.72 819.06 2493.53 945.16 2509.05 1103.72 2214.79 1304.35 2405.76 1405.06
00005579 00000085 1753.00 271.85 801.76 1376.80 2219.32 835.92 2505.89 953.41 2490.01 1107.00 2203.14 1303.17 2429.78 1398.74
00005580 00000086 1766.24 282.25 796.75 1361.03 2220.48 839.00 2510.90 954.01 2490.76 1104.81 2206.44 1302.43 2436.16 1396.05
00005581 00000087 1747.42 271.25 812.20 1392.70 2230.37 838.97 2504.48 955.10 2498.68 1109.73 2209.48 1306.13 2428.00 1401.03
00005582 00000088 1745.31 286.40 823.75 1357.67 2230.16 859.34 2514.33 982.75 2495.53 1119.81 2210.15 1301.60 2431.69 1402.90
00005583 00000089 1739.24 278.30 830.43 1366.79 2229.31 868.68 2516.60 982.99 2490.04 1126.85 2207.86 1305.29 2431.73 1398.80
00005584 00000090 1770.59 271.32 800.52 1383.78 2235.06 840.68 2511.84 974.36 2507.64 1113.65 2222.47 1307.89 2408.87 1414.75
00005585 00000091 1748.49 272.55 807.77 1379.43 2224.53 861.15 2501.74 975.32 2474.48 1120.65 2211.64 1314.40 2419.08 1407.70
00005586 00000092 1782.60 283.90 775.22 1391.21 2221.54 851.98 2505.04 970.90 2471.24 1110.63 2205.87 1318.75 2415.62 1415.81
00005587 00000093 1772.82 289.42 790.36 1400.75 2221.81 845.78 2516.67 973.25 2482.49 1109.79 2196.86 1315.97 2423.94 1420.08
00005588 00000094 1741.20 272.45 819.04 1425.98 2212.08 825.53 2520.07 953.68 2485.64 1113.27 2171.13 1313.43 2417.99 1418.81
00005589 00000095 1750.25 277.53 812.10 1409.68 2208.40 824.54 2522.17 950.27 2483.36 1108.69 2168.21 1308.01 2421.73 1411.04
00005590 00000096 1753.83 293.30 796.62 1389.18 2197.82 841.41 2517.83 941.23 2471.73 1104.58 2160.57 1332.18 2413.91 1416.99
00005591 00000097 1769.07 278.91 791.99 1423.50 2209.24 820.13 2515.86 949.70 2482.04 1104.38 2169.14 1310.88 2415.69 1416.30
00005592 00000098 1756.35 275.65 808.56 1416.49 2202.56 816.13 2522.06 945.65 2481.66 1104.81 2161.85 1307.25 2418.75 1412.70
00005593 00000099 1737.08 274.00 825.39 1419.30 2201.84 827.50 2516.65 954.18 2476.31 1114.63 2159.85 1308.87 2410.61 1412.97
00005594 00000100 1725.60 263.28 832.29 1427.04 2194.35 836.08 2514.67 971.64 2468.71 1122.96 2148.90 1303.84 2400.52 1414.70
00005595 00000101 1741.20 275.95 810.07 1411.25 2199.71 837.09 2518.05 973.36 2470.26 1120.59 2151.81 1304.17 2402.01 1416.01
00005596 00000102 1729.41 289.75 811.62 1400.08 2191.27 865.83 2512.83 978.11 2469.82 1106.93 2153.28 1338.10 2407.49 1432.33
00005597 00000103 1725.00 253.30 837.63 1443.70 2195.39 825.92 2515.92 947.23 2479.45 1115.68 2153.67 1311.08 2411.71 1410.18
00005598 00000104 1725.03 244.50 832.84 1461.29 2202.64 816.22 2512.28 937.73 2484.58 1110.87 2160.56 1308.04 2413.92 1407.05
00005599 00000105 1738.13 252.24 828.78 1437.78 2199.70 816.45 2517.76 938.88 2482.10 1105.55 2161.77 1306.96 2417.86 1406.65
00005600 00000106 1751.08 263.41 818.98 1426.20 2194.46 822.78 2516.14 946.27 2475.81 1103.93 2159.40 1309.10 2415.34 1409.62
00005601 00000107 1743.78 264.82 819.07 1430.00 2198.51 836.38 2524.65 961.52 2480.05 1119.19 2160.17 1312.62 2419.54 1414.68
00005602 00000108 1747.39 251.70 817.50 1438.72 2193.37 853.33 2514.56 970.64 2471.30 1127.82 2154.78 1314.19 2406.81 1409.88
00005603 00000109 1746.12 260.55 820.34 1423.81 2193.70 859.68 2520.23 974.87 2466.31 1131.01 2153.95 1317.24 2407.50 1411.22
00005604 00000110 1727.07 253.24 838.91 1423.49 2187.16 852.75 2510.07 962.83 2461.17 1123.45 2165.30 1316.97 2413.09 1404.79
00005605 00000111 1719.76 257.47 842.00 1410.80 2185.77 845.87 2507.99 955.07 2459.70 1123.24 2174.94 1317.76 2419.25 1404.73
00005606 00000112 1726.03 261.77 837.20 1400.19 2189.31 845.89 2511.50 961.74 2459.39 1119.77 2177.33 1312.53 2420.61 1404.60
00005607 00000113 1729.89 258.47 832.38 1403.38 2192.34 844.65 2510.20 959.40 2458.61 1120.86 2177.12 1309.80 2419.15 1401.04
00005608 00000114 1737.47 264.04 826.64 1397.80 2193.49 847.30 2516.86 963.16 2459.23 1121.50 2171.82 1308.29 2421.15 1400.75
00005609 00000115 1731.39 261.63 836.56 1404.46 2195.12 839.86 2515.57 959.63 2464.16 1122.65 2172.75 1310.21 2417.74 1405.73
00005610 00000116 1745.14 271.45 822.70 1387.99 2191.66 840.74 2519.00 962.09 2463.79 1117.66 2171.44 1307.63 2422.51 1404.54
00005611 00000117 1731.34 267.66 831.56 1397.16 2194.76 840.83 2515.66 961.18 2461.92 1121.19 2174.17 1309.85 2419.02 1406.24
00005612 00000118 1736.45 267.38 826.33 1400.82 2196.72 841.03 2516.47 962.10 2465.71 1122.09 2170.16 1310.79 2417.51 1408.03
00005613 00000119 1735.02 268.96 827.55 1397.35 2194.99 844.65 2512.73 966.25 2462.71 1124.48 2169.78 1310.16 2413.50 1407.89
00005614 00000120 1734.83 261.22 821.68 1404.45 2194.10 848.31 2508.80 966.39 2462.10 1127.39 2170.71 1312.66 2413.13 1407.24
00005615 00000121 1741.53 258.64 815.52 1409.81 2194.00 847.74 2505.27 959.81 2461.15 1124.70 2174.49 1313.43 2413.29 1402.95
00005616 00000122 1746.29 264.16 814.24 1407.35 2195.17 848.21 2506.25 961.77 2461.61 1122.93 2175.67 1314.38 2414.42 1405.25
00005617 00000123 1744.04 263.13 813.34 1409.35 2198.47 849.11 2506.05 966.23 2464.38 1125.01 2176.75 1312.65 2413.12 1406.65
00005618 00000124 1744.83 262.88 816.37 1413.03 2200.01 845.33 2506.17 962.76 2464.67 1124.37 2176.94 1314.01 2412.75 1408.13
00005619 00000125 1748.25 266.67 812.61 1402.66 2200.58 847.76 2511.23 964.77 2466.80 1124.61 2180.00 1312.84 2417.67 1406.64
00005620 00000126 1752.24 271.83 803.58 1401.22 2207.48 849.31 2512.13 968.04 2473.32 1125.94 2184.90 1314.50 2420.21 1410.05
00005621 00000127 1746.30 265.50 813.40 1406.82 2198.83 849.10 2505.01 959.92 2467.28 1123.24 2184.03 1317.25 2418.33 1406.17
00005622 00000128 1737.52 267.44 820.95 1412.14 2205.99 848.83 2516.86 968.86 2471.82 1131.59 2178.34 1316.34 2421.02 1412.96
00005623 00000129 1750.53 279.71 813.56 1390.78 2203.66 848.65 2517.47 973.41 2470.70 1126.74 2180.21 1313.45 2419.46 1413.89
00005624 00000130 1745.72 266.23 817.09 1407.89 2206.38 845.82 2512.66 961.93 2473.26 1127.43 2180.92 1317.34 2416.19 1411.21
00005625 00000131 1742.80 266.36 816.33 1404.26 2204.04 841.84 2510.29 958.62 2471.88 1124.19 2182.45 1316.53 2416.16 1410.49
00005626 00000132 1752.51 275.91 809.05 1394.40 2203.03 844.87 2504.86 958.80 2468.30 1123.30 2182.39 1315.12 2411.96 1407.30
00005627 00000133 1740.14 266.46 819.70 1402.15 2199.30 840.66 2511.53 954.12 2470.33 1124.18 2179.21 1316.00 2417.92 1407.44
00005628 00000134 1739.63 271.34 824.53 1399.32 2196.22 835.43 2517.71 951.34 2465.36 1120.69 2175.19 1315.07 2418.49 1408.29
00005629 00000135 1743.77 264.22 821.83 1404.34 2189.38 832.20 2519.42 955.93 2466.13 1114.59 2171.37 1313.13 2419.82 1412.00
00005630 00000136 1729.86 263.12 828.75 1403.13 2185.54 827.46 2518.38 946.88 2460.35 1119.36 2167.60 1313.09 2417.66 1408.74
00005631 00000137 1726.17 256.75 832.06 1408.51 2188.90 824.74 2522.11 942.15 2465.16 1118.51 2171.15 1314.88 2423.19 1408.88
00005632 00000138 1729.86 262.65 830.30 1404.20 2185.84 826.38 2517.43 942.55 2461.98 1119.55 2167.74 1313.80 2419.07 1407.10
00005633 00000139 1728.98 253.34 828.18 1413.05 2186.00 828.60 2515.30 943.28 2461.92 1121.08 2170.56 1315.57 2417.73 1407.33
00005634 00000140 1724.43 256.30 835.53 1411.28 2181.40 825.77 2518.49 943.45 2461.10 1116.02 2167.46 1314.09 2421.42 1407.97
00005635 00000141 1725.09 259.31 834.92 1411.72 2182.56 828.69 2512.93 945.13 2463.68 1117.97 2169.18 1315.35 2419.72 1408.47
00005636 00000142 1730.46 259.48 824.90 1409.11 2183.29 834.31 2506.83 939.82 2458.30 1122.22 2172.01 1318.81 2416.34 1403.04
00005637 00000143 1740.43 261.25 818.03 1405.95 2186.74 834.68 2511.83 944.54 2461.89 1122.80 2172.16 1318.17 2416.72 1406.07
00005638 00000144 1734.75 262.29 819.74 1411.67 2185.98 833.80 2508.81 944.86 2462.12 1121.75 2170.85 1317.87 2416.69 1406.53
00005639 00000145 1729.26 256.87 826.48 1411.19 2182.58 830.92 2511.29 942.51 2461.41 1123.00 2166.58 1316.89 2417.80 1405.66
00005640 00000146 1727.56 260.76 827.28 1408.57 2180.12 828.92 2507.52 940.37 2459.22 1121.18 2166.67 1316.62 2416.81 1405.41
00005641 00000147 1733.78 261.74 820.38 1407.09 2178.99 831.23 2507.99 940.31 2457.24 1121.89 2164.52 1317.10 2415.92 1404.01
00005642 00000148 1733.11 261.52 818.22 1410.37 2177.76 830.85 2504.84 938.47 2456.12 1121.03 2163.15 1316.87 2413.96 1402.75
00005643 00000149 1733.22 254.25 817.22 1421.54 2181.03 833.04 2501.77 939.26 2456.74 1119.75 2165.86 1319.53 2411.89 1404.10
00005644 00000150 1729.67 260.12 820.08 1406.74 2178.30 833.72 2501.41 941.33 2455.01 1120.92 2167.41 1319.90 2412.40 1405.72
00005645 00000151 1731.19 259.39 821.32 1410.76 2178.47 834.02 2496.30 934.63 2454.40 1120.17 2169.22 1321.37 2410.10 1401.79
00005646 00000152 1723.28 254.45 830.11 1422.52 2180.91 830.64 2500.64 932.20 2458.80 1124.22 2167.53 1323.17 2411.64 1404.78
00005647 00000153 1722.23 255.78 830.85 1425.55 2180.30 831.87 2498.65 936.06 2458.83 1123.34 2164.12 1323.24 2408.53 1406.86
00005648 00000154 1726.25 261.75 826.64 1420.53 2179.03 833.05 2497.83 933.96 2459.54 1119.76 2168.39 1324.00 2412.29 1405.01
00005649 00000155 1718.75 265.01 832.91 1410.35 2181.23 831.48 2496.86 934.98 2463.02 1122.17 2170.18 1322.47 2411.77 1405.68
00005650 00000156 1728.87 269.54 824.03 1409.98 2183.43 830.93 2494.47 935.26 2463.91 1118.64 2172.17 1321.49 2411.46 1405.14
