Video ID: 	C6EOBCzb3Dk
H: 	1080
W: 	1920
FPS: 	25.0

FRAME INDEX X0 Y0 W H [Landmarks (5 Points)]

00001991 00000000 596.89 161.41 405.39 566.58 765.91 417.73 932.29 377.97 911.47 495.32 821.88 605.88 954.06 573.49
00001992 00000001 597.38 160.37 404.37 566.68 766.18 417.64 931.23 378.13 910.68 494.66 821.69 604.93 953.11 572.81
00001993 00000002 598.03 159.14 403.44 567.73 766.30 417.91 930.55 377.57 910.42 495.85 821.31 605.73 952.73 573.00
00001994 00000003 596.82 160.59 404.44 566.27 766.15 418.91 930.09 378.37 909.63 496.37 821.37 606.38 951.82 573.53
00001995 00000004 595.44 164.19 408.52 563.71 763.13 421.45 931.20 381.46 906.32 495.83 818.39 607.58 950.39 575.43
00001996 00000005 590.03 163.20 415.74 567.39 761.02 422.28 930.51 381.67 903.01 495.84 813.77 608.09 947.72 575.63
00001997 00000006 584.32 167.52 418.99 569.84 756.51 430.22 924.37 389.76 896.86 501.79 809.23 613.43 941.92 581.16
00001998 DELETE   575.55 182.26 423.71 571.63 753.62 444.03 920.26 406.90 886.40 529.54 806.63 632.01 929.31 603.16
00001999 DELETE   568.45 199.10 422.52 578.15 740.91 469.86 906.67 430.54 873.61 550.50 786.58 662.30 915.37 627.84
00002000 DELETE   570.00 230.18 415.63 564.45 732.94 486.65 902.47 455.20 857.43 574.04 775.40 677.85 905.98 650.61
00002001 00000010 563.87 233.31 422.98 571.86 719.12 490.99 896.11 466.33 837.99 591.11 760.58 687.72 896.92 665.93
00002002 00000011 559.96 234.76 426.27 575.24 710.17 490.00 893.76 470.83 828.92 593.54 746.44 687.09 894.88 670.35
00002003 00000012 557.48 231.97 428.37 577.15 701.73 484.90 889.15 468.07 821.04 590.80 739.39 684.28 890.74 669.13
00002004 00000013 558.77 222.66 428.16 579.76 701.50 476.21 886.85 463.29 816.97 583.75 737.49 676.23 886.67 663.48
00002005 00000014 561.02 215.36 424.94 575.36 703.86 466.54 888.47 454.27 819.70 573.35 738.39 666.30 886.51 653.78
00002006 00000015 564.18 216.74 425.23 565.88 704.04 458.68 887.71 441.97 820.25 562.66 741.88 657.42 891.09 641.17
00002007 00000016 566.04 208.28 421.44 566.28 705.44 452.70 887.05 432.43 825.35 557.06 746.36 653.07 892.56 634.20
00002008 00000017 567.89 200.37 421.66 565.87 706.28 448.26 891.31 427.09 828.80 551.64 745.64 646.62 897.54 627.06
00002009 00000018 568.32 197.50 420.28 561.81 706.92 444.55 891.20 420.86 830.64 546.63 746.82 640.87 899.00 619.52
00002010 00000019 569.56 194.08 419.36 563.97 707.38 439.87 889.86 415.86 831.41 540.56 747.63 635.06 899.75 613.56
00002011 00000020 570.92 185.45 417.22 568.62 707.97 437.55 891.12 412.54 833.73 535.56 749.82 633.59 901.29 611.16
00002012 00000021 569.43 181.90 423.96 568.29 712.25 438.14 895.41 415.85 833.09 528.95 750.84 628.00 900.21 608.99
00002013 00000022 572.67 175.95 421.32 567.21 716.38 428.55 899.44 408.46 838.73 517.71 760.21 622.17 906.94 604.64
00002014 00000023 574.05 164.67 419.99 572.52 720.60 421.79 899.42 400.32 842.42 508.66 761.67 614.20 905.94 595.59
00002015 00000024 569.42 158.97 420.29 575.31 718.80 410.88 891.28 391.77 835.74 496.87 758.22 605.19 896.10 588.32
00002016 00000025 559.32 147.24 420.91 581.59 706.43 395.96 880.44 383.11 822.45 486.52 747.04 596.21 882.44 583.78
00002017 00000026 554.08 147.03 421.90 571.45 699.59 386.50 874.53 369.32 818.19 477.99 743.41 588.71 879.85 572.55
00002018 00000027 552.10 130.90 417.96 573.03 699.54 381.76 871.41 356.10 824.52 466.81 748.11 581.52 881.65 558.32
00002019 00000028 550.67 119.20 414.88 572.09 694.25 383.89 866.21 350.88 820.52 461.64 746.26 575.36 882.68 545.97
00002020 00000029 533.55 131.47 412.32 547.70 677.54 379.80 859.53 357.50 798.79 457.97 721.49 560.64 863.22 542.60
00002021 DELETE   517.93 122.38 419.61 550.84 658.10 370.38 841.92 350.67 773.95 449.51 702.20 550.52 847.97 534.84
00002022 DELETE   495.41 112.56 417.28 556.90 633.29 366.10 818.02 349.05 753.70 439.52 677.78 548.43 827.66 533.26
00002023 DELETE   482.18 109.42 417.76 560.37 615.35 360.89 803.65 341.07 736.86 438.30 663.20 546.48 816.28 528.88
00002024 00000033 471.04 111.56 415.80 559.06 602.91 361.01 788.00 337.87 724.18 441.05 654.70 547.98 805.40 528.69
00002025 DELETE   457.14 109.43 415.76 559.57 590.72 361.19 767.46 336.18 705.74 433.93 642.23 544.16 784.48 524.06
00002026 00000035 438.01 103.80 413.89 566.39 574.99 355.70 751.29 334.12 695.08 426.17 622.34 544.89 763.98 526.86
00002027 DELETE   427.00 91.28 414.53 569.46 559.37 349.36 736.15 328.74 674.84 417.39 608.41 536.47 749.55 518.67
00002028 00000037 418.49 84.34 416.56 573.64 546.62 337.58 722.75 315.78 663.05 406.07 599.78 529.34 741.21 509.63
00002029 00000038 413.87 86.44 418.69 567.10 537.72 333.13 709.97 309.27 650.30 395.55 592.21 521.86 732.63 500.07
00002030 00000039 410.85 84.13 418.90 566.72 532.70 329.06 701.39 304.14 643.32 389.87 588.33 516.10 726.66 493.49
00002031 00000040 406.59 87.63 419.59 563.07 526.85 329.16 695.47 302.32 636.46 391.40 584.87 516.89 722.30 493.07
00002032 00000041 405.11 91.35 417.78 563.29 524.47 334.44 690.99 305.96 633.76 395.89 584.19 520.01 721.30 495.10
00002033 00000042 405.04 92.10 418.24 565.73 522.78 338.34 689.94 311.37 631.22 401.91 581.59 524.45 719.06 501.28
00002034 00000043 406.46 94.20 418.53 566.28 522.55 339.00 692.92 313.83 630.53 406.77 580.20 527.83 719.12 506.30
00002035 00000044 410.06 91.68 421.02 569.81 526.49 343.20 699.79 317.34 634.39 411.83 583.36 532.96 721.82 510.55
00002036 00000045 416.91 90.76 424.67 571.78 535.13 347.51 717.20 323.68 645.71 414.95 590.01 537.72 734.72 516.23
00002037 00000046 426.50 94.38 426.74 567.17 546.77 354.67 727.98 331.09 657.10 421.95 598.92 537.82 744.77 517.18
00002038 00000047 442.90 102.35 427.73 563.98 564.63 359.77 744.80 330.43 670.70 428.87 616.85 541.10 766.68 517.26
00002039 00000048 461.52 107.72 421.63 569.50 585.50 363.07 758.72 342.49 688.54 444.88 637.64 548.20 773.58 530.50
00002040 DELETE   477.15 123.12 425.86 567.26 602.37 368.64 778.42 341.85 713.59 446.00 658.70 565.36 786.93 540.63
00002041 DELETE   494.98 124.73 417.93 574.62 621.58 379.90 794.71 352.55 735.27 454.32 674.75 573.65 810.66 547.68
00002042 DELETE   507.11 130.19 418.06 569.60 640.15 391.62 815.07 366.31 758.77 463.90 688.79 580.14 828.64 556.76
00002043 00000052 528.33 148.31 412.75 571.35 660.03 390.43 832.15 371.08 776.67 476.36 709.30 587.47 845.70 571.68
00002044 00000053 536.00 152.08 412.84 572.64 666.54 398.61 840.61 377.76 782.54 481.92 712.11 591.50 854.00 574.58
00002045 00000054 539.12 155.82 414.52 575.11 668.03 404.04 844.68 382.98 785.77 487.78 714.09 597.23 860.73 579.81
00002046 00000055 540.44 161.00 416.08 577.61 671.31 410.64 848.12 390.18 786.88 498.66 715.47 604.11 861.91 586.94
00002047 00000056 538.82 167.79 420.12 577.78 669.48 420.32 852.61 399.35 786.60 508.69 715.60 612.83 867.39 595.56
00002048 00000057 535.28 178.58 423.49 573.37 669.59 430.46 852.75 406.02 789.24 522.40 717.13 622.92 869.05 602.92
00002049 00000058 534.03 190.30 424.21 566.80 669.77 438.51 853.37 412.28 790.10 530.68 720.06 630.81 867.02 609.49
00002050 00000059 534.53 194.81 423.24 564.64 670.97 445.44 853.67 417.06 792.13 535.54 721.46 635.68 866.86 612.82
00002051 00000060 537.33 191.28 421.46 570.86 672.78 449.74 854.33 418.89 793.59 538.80 723.90 639.89 870.36 614.75
00002052 00000061 538.92 194.52 425.94 569.04 678.09 451.54 862.51 425.10 798.79 544.27 727.19 642.40 872.49 620.41
00002053 00000062 554.50 189.69 430.50 585.32 688.57 452.07 874.51 423.05 811.31 541.32 738.38 649.77 890.13 622.68
00002054 00000063 568.26 196.91 429.36 577.17 703.11 455.57 886.72 432.84 821.63 547.97 745.19 650.80 897.58 629.14
00002055 00000064 585.42 204.27 425.63 579.12 722.62 456.55 910.58 441.28 837.87 557.43 759.74 648.82 910.62 638.33
00002056 DELETE   601.53 200.99 421.69 579.50 737.78 462.04 926.10 448.85 850.04 564.71 769.03 649.93 921.22 640.48
00002057 DELETE   610.68 200.43 424.33 588.34 750.90 467.33 939.75 455.04 866.14 572.44 780.69 659.13 932.74 649.82
00002058 DELETE   619.42 199.59 427.48 595.42 766.85 467.39 949.75 458.27 879.19 573.61 794.79 662.47 939.86 654.55
00002059 00000068 632.20 213.55 426.64 577.65 773.76 463.46 957.74 456.04 887.54 566.07 807.03 660.56 957.80 651.95
00002060 00000069 638.86 223.82 425.39 570.09 776.47 467.53 961.89 460.17 888.91 569.78 808.02 663.25 961.71 655.25
00002061 00000070 640.78 222.79 426.63 568.05 776.47 469.35 962.67 457.09 891.05 571.73 809.29 662.81 966.28 650.79
00002062 00000071 641.16 223.50 426.13 567.42 778.50 468.62 963.48 453.64 894.73 570.60 813.53 662.31 968.07 647.91
00002063 00000072 642.23 221.94 426.29 570.67 779.44 470.62 965.49 454.05 896.75 575.75 816.33 666.09 970.67 650.38
00002064 00000073 642.26 227.51 426.85 572.14 780.58 480.32 964.71 465.14 895.12 585.85 815.57 673.51 968.23 659.13
00002065 00000074 640.20 235.83 427.95 564.43 774.64 486.49 967.49 471.17 892.77 592.19 811.76 680.23 969.31 666.19
00002066 00000075 633.05 242.21 432.46 565.06 769.58 489.37 961.70 470.54 889.02 597.90 808.61 683.87 965.66 667.43
00002067 00000076 627.52 237.39 432.64 574.87 765.81 487.26 955.05 469.73 883.36 597.72 805.44 685.19 958.12 669.56
00002068 00000077 626.86 236.01 430.40 575.43 765.45 483.06 951.21 469.98 879.37 591.53 801.75 680.81 952.26 668.60
00002069 00000078 628.52 231.67 426.95 567.88 765.70 477.09 951.59 465.02 878.01 586.16 800.34 673.89 946.90 662.51
00002070 00000079 628.37 222.33 428.22 571.23 762.91 468.82 951.36 458.96 876.53 577.68 794.82 664.62 948.28 655.04
00002071 00000080 621.96 213.37 428.95 585.23 765.33 466.40 951.48 457.33 876.55 580.99 791.01 663.43 938.80 655.22
00002072 00000081 621.93 214.52 428.28 581.25 758.85 458.29 945.97 451.73 872.35 568.22 790.70 658.46 940.29 651.53
00002073 00000082 615.17 200.66 428.93 590.43 755.27 460.23 944.97 451.47 866.39 572.66 782.74 657.65 931.77 650.83
00002074 00000083 613.74 197.72 423.53 585.02 749.06 460.03 940.68 450.37 860.84 568.03 777.49 654.15 929.64 646.77
00002075 00000084 610.58 208.08 420.74 574.93 744.91 462.15 935.51 453.09 855.78 573.09 770.49 653.91 922.09 647.87
00002076 00000085 606.81 228.48 419.73 569.89 740.42 464.77 924.13 454.86 851.44 570.78 771.71 658.98 920.17 651.06
00002077 00000086 604.24 229.66 418.96 571.68 733.54 471.96 916.19 459.67 844.47 579.11 766.94 665.87 918.55 655.79
00002078 00000087 596.10 228.19 423.34 571.62 726.09 476.20 908.48 460.60 838.19 580.72 762.23 666.48 914.89 653.84
00002079 00000088 591.72 225.02 423.24 575.42 720.23 475.29 904.86 460.65 831.76 581.01 754.79 665.51 911.39 653.64
00002080 00000089 590.86 223.64 423.71 578.65 718.72 473.46 903.68 461.11 828.51 580.30 752.19 666.03 906.19 656.06
00002081 00000090 592.21 227.29 423.95 573.60 721.86 469.71 905.72 458.19 831.44 577.39 754.85 663.55 904.60 654.31
00002082 00000091 596.83 222.27 420.54 574.50 726.73 466.58 909.42 454.86 838.94 573.01 759.07 661.73 908.74 652.25
00002083 00000092 600.68 219.77 418.82 576.60 732.63 461.76 915.26 454.55 844.55 568.16 764.36 658.12 912.20 652.11
00002084 00000093 600.09 222.14 419.08 572.35 732.91 463.51 916.11 456.65 844.48 569.78 762.75 658.22 911.35 652.83
00002085 00000094 595.92 231.83 419.98 561.43 729.61 472.80 911.95 460.87 842.03 573.58 759.20 660.79 911.41 651.82
00002086 00000095 590.93 229.72 422.99 564.24 724.92 479.44 908.58 464.92 836.41 574.37 752.52 663.13 907.02 652.61
00002087 00000096 590.81 212.00 426.06 585.19 719.57 476.19 911.51 462.44 828.66 578.82 750.37 659.45 905.95 650.02
00002088 00000097 590.49 207.49 426.64 588.99 717.27 472.04 909.36 458.94 826.76 575.35 748.25 657.76 906.22 648.71
00002089 00000098 591.13 206.54 425.16 586.21 715.92 467.63 909.00 455.75 825.67 571.84 745.40 654.30 905.06 646.20
00002090 00000099 592.62 206.36 425.49 580.83 716.89 461.42 910.76 450.04 826.02 569.33 746.48 650.66 906.49 642.82
00002091 00000100 594.60 205.64 423.36 580.46 718.77 458.54 910.48 447.42 828.01 567.27 747.80 648.51 908.12 640.74
00002092 00000101 596.79 200.28 422.89 584.72 721.12 453.65 911.39 444.19 829.31 564.10 750.06 645.54 909.45 639.05
00002093 00000102 598.75 200.05 421.38 583.98 723.45 450.64 912.30 441.40 831.18 560.76 752.11 644.13 909.69 638.03
00002094 00000103 600.94 195.93 418.79 586.52 725.56 448.40 912.01 440.22 832.29 558.06 754.54 643.54 908.70 638.45
00002095 00000104 601.50 194.92 418.45 587.30 726.29 446.59 912.03 438.41 833.04 556.13 755.64 643.58 908.03 638.67
00002096 00000105 600.68 196.66 418.69 586.81 725.81 446.74 911.75 438.86 832.69 556.75 755.22 644.12 907.40 639.45
00002097 00000106 599.36 195.27 419.29 589.05 723.88 448.78 910.47 440.33 830.98 557.87 754.44 645.33 906.90 640.09
00002098 00000107 596.36 196.08 422.38 590.64 720.61 450.46 909.04 441.86 827.94 558.77 750.99 646.81 904.86 641.50
00002099 00000108 592.81 197.61 424.16 590.44 717.92 452.89 905.18 442.15 826.13 559.09 751.27 649.24 902.04 642.38
00002100 00000109 590.31 198.86 424.86 589.92 715.62 453.95 903.37 442.75 823.98 558.17 748.95 650.07 899.59 642.90
00002101 00000110 588.67 194.10 426.19 594.29 714.99 451.91 902.29 441.45 822.37 556.50 747.78 649.17 897.76 642.55
00002102 00000111 588.21 193.98 425.05 594.13 714.01 450.46 900.19 440.07 820.38 554.27 746.44 648.21 896.06 641.67
00002103 00000112 587.80 190.68 425.75 596.93 713.88 449.46 899.82 439.49 820.01 552.88 746.17 647.59 895.31 641.34
00002104 00000113 587.96 189.00 426.24 597.70 713.92 448.98 900.49 438.91 820.29 552.79 746.16 647.19 895.95 640.82
00002105 00000114 588.91 192.69 424.50 593.82 714.84 449.36 901.13 438.91 822.00 553.19 747.27 647.31 897.35 640.68
00002106 00000115 590.68 193.10 423.79 590.99 716.90 449.93 904.01 439.89 824.37 554.67 748.76 646.42 899.18 640.05
00002107 00000116 591.54 190.50 424.05 592.39 717.77 448.90 904.96 438.95 825.18 554.77 748.97 645.77 899.90 639.48
00002108 00000117 591.91 186.85 424.26 593.90 717.22 449.31 904.48 439.15 824.45 553.68 747.16 644.12 899.90 637.49
00002109 00000118 590.37 187.51 425.60 592.80 716.64 448.09 903.47 438.56 823.29 551.95 747.15 643.38 899.20 637.14
00002110 00000119 589.55 187.31 425.25 590.97 716.59 447.38 903.35 437.68 823.69 550.79 747.52 642.36 899.03 636.05
00002111 00000120 588.07 185.36 426.11 593.00 715.05 446.42 903.14 436.85 822.66 549.39 745.73 641.90 898.68 635.67
00002112 00000121 587.61 186.19 426.03 590.66 714.30 446.50 902.54 436.70 821.38 548.75 745.09 641.36 897.64 634.99
00002113 00000122 586.39 187.42 426.34 590.70 713.66 446.30 902.00 436.26 821.01 548.82 744.69 641.11 898.29 634.50
00002114 00000123 585.55 188.41 425.86 589.09 712.88 447.11 902.14 436.36 821.20 549.48 743.70 641.06 898.82 633.86
00002115 00000124 585.11 187.52 426.32 590.31 713.12 447.53 902.11 437.23 821.22 549.46 742.82 641.01 898.04 634.19
00002116 00000125 584.86 188.04 427.10 588.61 712.74 445.96 902.94 435.29 821.16 548.75 743.27 640.10 899.60 632.89
00002117 00000126 584.66 189.49 427.20 584.63 712.83 445.07 902.94 434.62 820.73 547.37 743.08 638.83 899.15 631.73
00002118 00000127 584.20 190.23 428.56 581.42 712.75 443.06 901.60 432.13 820.07 543.75 744.03 637.01 897.26 629.52
00002119 00000128 583.60 185.54 428.57 586.87 711.44 442.83 900.89 431.87 819.05 543.93 743.03 637.01 897.91 629.35
00002120 00000129 583.14 186.50 429.34 587.48 710.64 444.13 900.97 431.75 818.83 545.51 742.94 637.44 900.72 628.51
00002121 00000130 584.09 189.93 428.68 583.27 711.71 444.73 901.31 432.65 819.53 545.96 743.53 637.22 901.24 628.54
00002122 00000131 583.55 187.36 429.33 585.24 711.58 445.34 901.29 433.12 819.48 545.93 743.14 637.05 901.04 628.20
00002123 00000132 583.93 189.40 428.98 584.63 711.95 444.68 900.79 432.91 819.59 545.02 743.00 636.57 899.99 628.17
00002124 00000133 583.71 188.76 429.05 585.34 711.92 445.12 900.54 433.29 819.40 545.20 742.98 636.48 899.76 628.03
00002125 00000134 583.62 191.85 428.94 580.49 711.66 445.20 900.64 432.46 819.46 545.75 743.42 636.49 901.02 627.18
00002126 00000135 583.24 190.73 430.48 579.09 711.61 444.07 902.57 431.35 819.97 545.62 743.31 635.69 902.46 626.22
00002127 00000136 583.46 188.94 430.42 580.40 711.70 443.37 902.45 430.90 819.81 543.52 743.64 634.92 901.99 625.68
00002128 00000137 583.52 188.96 430.48 584.22 712.21 441.88 901.57 430.98 819.70 541.39 742.90 634.67 899.65 626.87
00002129 00000138 583.60 188.02 430.62 582.80 712.25 442.02 902.56 430.24 820.72 541.56 743.86 634.27 901.99 625.59
00002130 00000139 583.53 188.64 429.52 580.10 711.73 442.43 903.13 430.36 820.69 542.11 742.89 633.85 902.82 624.84
00002131 00000140 583.59 189.52 429.54 576.07 712.15 442.69 903.60 429.62 821.55 541.92 743.53 632.58 904.24 622.64
00002132 00000141 584.08 188.31 429.77 578.27 712.44 441.99 903.99 429.67 821.49 541.80 743.32 632.59 903.92 623.27
00002133 00000142 584.73 187.68 429.56 583.55 713.34 441.85 903.25 431.31 821.09 541.79 742.80 633.76 901.13 626.16
00002134 00000143 586.00 188.71 427.93 582.06 713.78 442.53 903.17 431.96 821.24 542.78 744.17 634.70 901.72 627.09
00002135 00000144 586.08 186.06 428.36 584.91 713.75 441.96 903.87 431.03 822.08 542.59 743.79 634.77 902.28 626.90
00002136 00000145 585.70 183.57 428.88 583.98 713.90 440.22 904.37 429.05 822.57 539.72 744.20 633.08 902.52 624.90
00002137 00000146 585.27 181.07 428.96 583.13 713.73 437.43 904.29 426.20 822.66 537.84 744.89 631.68 902.58 623.34
00002138 00000147 584.27 182.63 428.50 577.79 713.26 437.05 903.83 425.29 822.88 537.05 745.20 631.05 902.22 622.27
00002139 00000148 582.80 177.39 430.25 584.04 712.94 437.01 902.48 425.89 822.13 536.98 744.44 631.41 899.99 623.16
00002140 00000149 582.76 184.07 428.87 579.03 712.97 436.54 902.11 425.64 821.49 537.00 744.32 631.65 899.19 623.66
00002141 00000150 582.11 186.81 428.33 575.38 712.01 436.64 901.47 425.00 820.91 536.63 744.35 631.89 898.99 623.29
00002142 00000151 582.38 185.12 427.50 576.47 711.83 437.48 901.58 425.99 820.83 537.63 744.36 632.63 899.12 624.14
00002143 00000152 581.72 184.30 428.47 578.31 711.11 438.15 901.50 427.24 819.53 538.62 742.64 633.11 898.02 625.16
00002144 00000153 581.67 182.94 428.93 581.40 710.96 439.37 901.38 428.11 819.74 539.77 743.03 634.22 898.51 625.94
00002145 00000154 580.56 182.96 429.81 585.81 709.56 439.89 900.37 429.32 817.71 541.31 741.79 636.07 897.47 628.41
00002146 00000155 580.02 182.15 429.51 589.85 707.80 440.22 898.62 429.53 815.56 541.57 739.83 637.15 895.61 629.52
00002147 00000156 580.69 183.99 429.13 590.11 707.86 440.05 898.12 430.16 814.87 542.64 738.99 637.41 894.50 630.59
00002148 00000157 580.87 183.93 428.86 591.07 707.63 440.03 898.08 430.32 814.62 542.59 738.56 637.61 894.49 630.92
00002149 00000158 580.38 183.29 428.95 592.89 707.13 440.73 897.45 430.56 814.22 543.25 738.01 637.85 894.29 630.83
00002150 00000159 580.11 183.30 428.79 593.30 706.54 441.03 897.61 430.38 814.11 544.29 737.45 638.58 894.53 631.20
00002151 00000160 573.75 189.89 428.84 588.06 700.93 448.85 886.32 432.17 807.33 548.34 735.36 648.02 885.63 633.24
00002152 00000161 572.99 190.57 427.49 588.82 701.36 449.68 885.43 432.81 807.54 549.77 734.50 647.76 885.00 632.98
00002153 00000162 572.10 191.28 427.92 593.77 700.82 450.27 884.97 433.63 806.66 550.61 732.03 649.33 884.04 634.68
00002154 00000163 572.42 193.09 427.52 592.49 700.57 451.08 884.29 435.33 805.84 551.85 734.34 651.82 883.37 637.74
00002155 00000164 571.49 193.17 426.77 596.68 699.71 453.50 881.11 437.61 804.23 552.03 732.60 652.65 880.95 638.36
00002156 00000165 570.42 194.21 427.97 596.80 699.19 455.74 880.54 440.37 803.55 554.59 732.07 654.38 879.88 640.47
00002157 00000166 570.96 190.19 431.62 595.71 696.54 455.18 878.86 441.83 805.39 553.47 734.13 654.12 882.05 640.29
00002158 00000167 569.51 193.47 428.12 596.73 698.57 458.53 879.39 445.30 801.78 558.54 731.10 656.24 876.20 643.92
00002159 00000168 568.67 193.35 428.51 595.66 698.15 459.59 879.16 447.48 800.44 559.77 729.06 655.30 875.04 643.86
00002160 00000169 568.90 195.96 427.85 593.02 698.09 460.33 879.18 448.24 799.93 561.71 728.97 656.13 874.78 644.76
00002161 00000170 566.82 194.02 429.76 596.16 696.74 461.76 878.05 450.75 798.20 563.69 727.65 657.41 872.85 646.84
