Video ID: 	746yPBlslVk
H: 	1080
W: 	1920
FPS: 	23.976023976023978

FRAME INDEX X0 Y0 W H [Landmarks (5 Points)]

00001372 00000000 834.53 128.99 347.31 584.52 980.78 386.94 1132.76 375.68 1105.49 484.39 1003.64 588.61 1124.92 581.39
00001373 00000001 832.29 127.29 349.60 588.26 981.84 383.53 1134.72 373.96 1108.42 481.86 1003.13 587.43 1125.65 581.49
00001374 DELETE   831.83 127.68 350.98 600.26 983.42 380.86 1134.96 373.19 1107.87 481.88 1002.46 590.05 1125.40 585.27
00001375 00000003 829.96 132.57 353.44 606.65 982.16 382.10 1135.15 377.91 1106.29 487.85 997.51 596.13 1120.91 593.99
00001376 00000004 829.05 138.57 357.01 604.89 977.28 383.51 1135.15 383.00 1099.50 497.34 990.35 598.52 1118.69 599.13
00001377 00000005 826.31 137.37 360.67 599.85 974.58 387.19 1133.43 385.34 1097.08 507.73 990.25 598.56 1118.35 597.46
00001378 00000006 825.73 133.91 360.96 582.92 967.34 382.99 1133.45 380.27 1094.46 502.62 986.20 589.71 1119.65 588.46
00001379 00000007 821.69 123.83 361.19 581.78 956.67 368.95 1127.83 368.38 1082.33 490.03 978.68 579.42 1111.21 579.64
00001380 00000008 819.60 117.59 358.69 582.33 950.44 358.29 1118.56 361.51 1070.91 475.50 969.45 566.79 1101.83 569.63
00001381 00000009 816.98 111.28 355.19 582.85 945.68 351.91 1112.52 352.34 1057.12 470.98 975.45 567.75 1104.60 567.22
00001382 00000010 816.09 108.94 353.84 582.30 941.50 348.18 1110.68 349.06 1053.14 467.77 972.56 563.61 1104.11 563.59
00001383 00000011 816.48 108.89 352.13 586.78 940.76 348.01 1108.96 349.51 1050.43 466.63 969.28 564.95 1100.53 565.51
00001384 00000012 817.88 112.93 348.80 590.71 941.32 348.11 1107.31 350.54 1049.30 465.23 964.84 567.71 1095.25 569.17
00001385 00000013 813.13 115.78 356.43 592.04 938.56 348.73 1108.97 351.27 1053.99 462.82 954.71 565.55 1091.03 567.79
00001386 00000014 811.04 114.46 356.55 589.45 936.81 346.87 1106.69 348.76 1051.06 460.72 953.33 563.22 1087.77 564.95
00001387 00000015 810.55 104.13 353.32 592.59 934.37 342.79 1100.03 342.67 1043.49 462.12 962.87 562.35 1092.63 561.51
00001388 00000016 810.23 100.91 353.39 585.25 932.72 342.91 1099.11 340.37 1043.77 461.72 967.17 559.96 1095.15 557.20
00001389 00000017 810.88 101.55 352.68 582.36 931.87 342.25 1098.85 339.19 1042.76 461.53 967.38 559.06 1095.10 555.91
00001390 00000018 811.59 99.80 351.76 588.25 933.14 341.78 1098.87 339.06 1043.27 460.96 967.58 561.14 1093.72 558.08
00001391 00000019 812.68 99.72 351.14 593.05 934.09 341.19 1098.32 339.20 1042.39 461.40 967.42 564.31 1090.84 561.72
00001392 00000020 812.54 100.09 351.40 596.50 934.89 341.54 1098.70 339.90 1044.52 460.30 967.52 565.79 1091.25 563.49
00001393 00000021 816.30 99.35 348.63 599.97 936.34 341.19 1100.97 340.61 1045.34 460.46 967.67 567.19 1092.67 565.69
00001394 00000022 817.56 104.63 350.27 599.35 939.40 343.43 1104.87 344.42 1047.52 460.64 966.71 568.57 1094.70 568.50
00001395 00000023 819.86 106.50 350.73 599.30 944.19 350.30 1108.47 353.10 1051.50 464.39 967.56 571.10 1096.20 572.86
00001396 00000024 823.88 110.11 349.28 598.27 949.61 356.84 1113.77 358.41 1058.34 464.04 971.30 572.67 1101.59 573.57
00001397 00000025 826.04 108.29 349.82 608.18 959.39 355.37 1118.67 357.73 1068.88 463.47 975.75 572.50 1105.58 574.02
00001398 00000026 827.48 114.05 355.33 609.58 966.44 356.84 1123.26 359.92 1083.27 460.30 976.67 569.20 1107.03 572.62
00001399 00000027 829.51 113.47 355.10 613.32 971.58 355.61 1127.70 358.80 1089.59 459.32 980.61 571.11 1111.33 574.85
00001400 00000028 833.52 114.32 352.70 616.81 975.79 353.78 1129.44 356.56 1092.87 456.20 984.08 571.98 1113.84 575.11
00001401 00000029 835.12 116.85 351.43 619.26 978.93 352.32 1131.47 353.47 1097.33 452.84 986.74 573.19 1116.29 575.19
00001402 00000030 837.07 117.10 349.61 621.26 980.48 350.44 1133.04 351.67 1097.94 449.65 987.50 573.85 1116.57 576.11
00001403 00000031 837.73 121.06 349.05 617.52 980.85 348.79 1133.54 350.27 1098.50 447.49 988.00 573.01 1116.87 575.46
00001404 00000032 836.84 118.71 349.34 617.79 981.35 346.62 1133.33 350.27 1098.34 444.88 986.21 568.78 1116.73 573.05
00001405 00000033 840.90 113.11 345.74 625.31 980.03 341.77 1133.70 344.65 1094.83 444.81 986.00 568.90 1123.96 571.75
00001406 00000034 840.34 114.67 345.00 615.50 982.01 339.66 1132.70 342.56 1095.95 441.58 985.71 561.52 1122.74 564.37
00001407 00000035 833.94 116.78 351.02 606.81 983.11 342.91 1131.75 346.70 1100.57 439.73 983.91 555.30 1117.90 559.96
00001408 00000036 837.60 114.75 345.94 610.46 982.00 341.44 1131.05 344.00 1095.81 442.05 984.53 557.34 1122.69 560.03
00001409 00000037 836.00 114.53 347.50 602.45 982.50 342.24 1131.84 343.48 1097.11 444.79 988.94 557.33 1122.88 558.77
00001410 00000038 830.97 110.82 353.86 586.87 982.26 343.32 1133.59 347.25 1097.08 449.34 997.20 554.14 1123.16 557.46
00001411 00000039 831.01 110.28 353.78 580.41 981.82 346.37 1135.84 349.09 1098.79 450.39 997.53 551.90 1127.32 554.48
00001412 00000040 830.01 110.34 355.48 574.63 980.75 347.58 1136.35 348.75 1098.94 450.91 999.73 551.46 1129.29 552.72
00001413 00000041 829.47 109.70 356.36 573.59 980.70 346.65 1136.55 348.42 1098.74 452.32 999.94 551.34 1128.93 553.13
00001414 00000042 831.28 113.58 355.27 570.31 981.28 347.80 1136.99 349.02 1097.65 454.40 999.68 552.02 1128.24 553.23
00001415 00000043 830.32 113.20 355.88 570.72 981.92 348.69 1135.91 349.01 1097.90 457.65 1003.39 555.30 1128.39 555.53
00001416 00000044 829.92 114.01 357.89 575.63 979.21 348.50 1134.87 347.76 1096.73 458.14 1010.27 564.29 1128.97 563.09
00001417 00000045 830.22 119.83 353.27 584.63 976.28 350.34 1127.50 351.03 1089.47 465.65 1007.63 577.41 1117.40 577.10
00001418 00000046 827.29 123.26 357.45 590.49 968.11 359.85 1127.43 357.30 1082.15 485.57 999.63 589.99 1112.96 586.82
00001419 00000047 827.51 125.90 359.85 586.37 957.37 372.30 1128.94 372.03 1073.99 497.57 983.89 591.19 1106.38 592.09
00001420 00000048 826.72 132.45 364.11 590.20 956.12 379.86 1128.48 381.02 1068.75 510.12 981.55 598.66 1108.45 599.97
00001421 00000049 826.54 134.78 365.37 588.32 956.06 380.53 1127.76 383.53 1066.81 512.18 980.44 596.90 1108.59 599.20
00001422 00000050 826.82 136.04 365.94 583.33 954.96 376.10 1128.47 380.15 1066.94 509.11 975.58 591.80 1107.97 595.20
00001423 00000051 826.65 135.48 366.12 584.37 955.35 372.46 1129.05 377.26 1067.19 508.01 973.43 589.86 1106.68 593.85
00001424 00000052 826.38 134.82 366.08 583.39 954.08 372.12 1128.05 377.20 1066.00 506.96 973.26 587.73 1107.01 592.13
00001425 00000053 826.99 137.16 365.84 580.51 953.60 375.59 1128.00 379.22 1065.20 508.77 975.51 590.74 1108.73 593.81
00001426 00000054 827.40 136.85 365.92 583.86 955.07 378.06 1127.20 380.98 1065.28 510.36 977.58 593.51 1108.20 595.85
00001427 00000055 827.69 135.75 365.55 585.03 955.48 377.88 1127.95 381.72 1065.75 510.10 976.52 592.78 1108.19 595.95
00001428 00000056 826.92 134.64 365.85 584.36 952.69 376.14 1127.51 381.14 1064.02 509.63 972.14 589.74 1107.20 594.08
00001429 00000057 826.60 133.39 364.77 583.51 951.51 374.46 1127.65 378.89 1064.89 509.28 970.03 587.28 1107.84 591.50
00001430 00000058 825.58 133.00 365.39 585.21 951.62 372.54 1127.50 377.18 1065.13 508.08 970.01 586.96 1106.93 591.25
00001431 00000059 826.43 133.42 364.71 587.84 952.47 371.75 1127.29 376.97 1065.26 506.28 968.77 586.31 1106.60 591.28
00001432 00000060 826.20 132.29 363.59 589.11 952.10 371.32 1127.53 376.44 1065.03 506.54 969.82 589.32 1104.19 593.83
00001433 00000061 825.43 134.24 363.88 593.56 953.73 371.47 1126.10 375.08 1065.17 506.82 972.95 594.39 1102.27 597.51
00001434 00000062 824.78 133.24 362.75 593.93 954.56 372.71 1124.84 376.96 1065.89 505.57 975.71 594.67 1101.90 598.38
00001435 00000063 826.01 135.86 363.42 587.07 955.95 378.59 1125.50 381.66 1068.98 506.61 978.92 595.34 1104.97 598.30
00001436 00000064 829.54 136.01 363.46 583.66 962.97 384.36 1129.88 387.04 1076.65 506.14 983.19 594.83 1110.19 597.82
00001437 00000065 832.55 133.57 362.34 582.01 970.80 385.49 1138.05 387.07 1088.36 505.37 989.54 593.98 1118.97 596.44
00001438 00000066 837.15 137.25 359.64 575.49 977.90 386.14 1142.49 385.90 1096.18 500.37 993.83 589.65 1124.61 591.15
00001439 00000067 837.79 137.28 359.33 575.91 982.22 386.85 1145.62 384.31 1101.17 497.99 998.97 589.97 1129.43 589.42
00001440 00000068 840.38 138.08 355.94 575.48 985.32 384.99 1148.45 382.66 1104.64 494.71 1001.42 588.92 1132.10 588.50
00001441 00000069 842.07 139.05 354.86 576.25 988.01 382.96 1148.05 381.85 1105.70 490.30 1003.89 587.87 1131.51 588.46
00001442 00000070 842.62 139.41 353.60 577.50 989.95 379.90 1146.75 380.00 1105.62 488.20 1003.53 586.74 1128.35 588.50
00001443 00000071 844.36 140.73 353.21 576.93 989.87 376.60 1146.81 377.40 1106.33 487.19 1001.85 585.67 1127.00 588.18
00001444 00000072 846.09 136.44 351.65 578.50 990.94 371.74 1148.07 372.86 1105.24 482.80 1001.04 582.57 1127.82 585.31
00001445 00000073 845.92 128.61 352.61 586.36 987.52 363.46 1146.64 364.70 1101.92 476.66 997.76 578.99 1126.67 581.60
00001446 00000074 839.95 119.04 358.54 610.02 984.58 349.11 1143.08 351.91 1099.33 464.63 998.68 578.59 1129.18 580.63
00001447 00000075 838.34 111.82 356.10 619.86 977.44 342.10 1136.89 345.61 1090.22 455.91 986.73 572.05 1122.20 574.97
00001448 00000076 838.21 107.16 349.63 619.08 968.51 333.67 1131.05 341.87 1076.09 443.77 973.46 560.54 1114.18 567.62
00001449 00000077 834.77 102.61 349.52 605.05 962.77 328.75 1125.09 338.90 1066.38 436.26 968.55 546.71 1107.47 555.68
00001450 00000078 831.87 101.09 352.07 589.07 955.94 330.15 1124.02 339.66 1063.00 442.53 968.70 543.63 1107.41 552.23
00001451 00000079 829.15 104.33 352.59 586.39 952.13 338.75 1120.47 345.35 1058.25 456.13 969.71 551.78 1106.45 557.46
00001452 00000080 829.79 112.68 354.50 601.10 955.70 349.66 1120.67 353.95 1060.03 471.18 966.11 567.99 1104.55 571.38
00001453 00000081 822.24 120.56 367.12 596.23 951.74 360.22 1124.83 367.84 1062.74 490.46 957.90 573.49 1100.86 580.50
00001454 00000082 823.52 131.60 365.92 599.83 953.19 368.34 1121.01 375.81 1058.00 506.96 966.61 589.44 1100.45 595.42
00001455 00000083 820.47 136.34 367.46 585.28 949.62 374.22 1121.19 381.43 1057.00 508.87 967.00 590.26 1096.62 596.64
00001456 00000084 820.53 138.74 366.16 586.96 949.83 373.82 1119.78 379.65 1056.21 508.61 971.81 596.20 1094.46 601.17
00001457 00000085 822.39 128.93 361.62 591.28 949.41 367.20 1117.08 370.46 1057.65 493.96 972.60 588.01 1092.91 591.16
00001458 00000086 824.75 113.68 356.45 599.19 946.86 356.71 1113.31 359.42 1054.54 482.48 976.59 583.32 1099.56 584.82
00001459 00000087 823.70 103.89 355.98 591.34 943.69 350.54 1113.80 351.94 1051.13 470.23 976.37 572.23 1103.28 572.66
00001460 00000088 823.72 107.56 356.85 584.98 943.91 350.23 1115.78 352.22 1051.28 470.24 974.43 569.26 1104.78 570.44
00001461 00000089 825.20 113.65 355.47 591.82 946.95 354.49 1117.47 356.96 1055.63 479.01 974.53 577.26 1103.83 578.52
00001462 00000090 823.16 121.77 361.26 585.06 947.16 364.49 1122.00 366.07 1063.48 489.71 968.25 581.63 1100.88 583.76
00001463 00000091 823.13 127.35 363.17 584.33 947.06 366.77 1125.61 371.08 1062.75 496.39 966.32 585.20 1101.37 589.33
00001464 00000092 823.21 127.39 363.43 585.09 948.19 365.84 1126.33 369.49 1064.59 494.33 967.07 583.81 1103.41 587.07
00001465 00000093 827.46 123.73 355.87 593.22 952.08 362.07 1120.33 363.11 1059.69 488.07 972.91 582.60 1104.31 582.71
00001466 00000094 828.41 118.94 353.19 589.89 953.17 354.29 1120.39 357.34 1059.41 475.85 971.16 572.65 1105.27 574.83
00001467 00000095 827.73 113.34 355.44 588.48 954.20 348.86 1120.56 352.72 1060.58 468.89 977.07 567.65 1108.07 570.32
00001468 00000096 826.99 111.39 356.54 587.64 954.50 348.00 1122.38 352.60 1061.78 469.23 979.56 566.30 1110.67 569.32
00001469 00000097 828.78 114.20 355.71 586.14 958.90 349.68 1123.16 353.33 1065.26 472.36 982.09 567.09 1111.60 569.29
00001470 00000098 830.91 115.84 355.33 587.90 961.00 352.74 1123.72 356.13 1067.49 476.63 983.67 569.56 1112.64 571.27
00001471 00000099 831.38 116.81 355.89 589.31 962.42 352.99 1124.71 355.98 1069.10 476.21 983.60 569.86 1113.31 571.27
00001472 00000100 831.75 118.34 355.72 587.62 963.52 350.51 1124.86 354.23 1069.74 473.24 983.78 568.11 1113.52 570.27
00001473 00000101 830.84 115.10 357.16 594.09 964.75 349.47 1125.28 353.42 1071.20 471.27 984.28 567.48 1114.48 569.71
00001474 00000102 831.96 116.82 355.02 599.35 964.65 347.96 1125.13 354.03 1069.59 471.48 976.95 569.68 1109.05 574.15
00001475 00000103 829.99 120.36 359.52 601.13 968.25 349.80 1127.28 356.95 1075.99 469.44 971.54 567.67 1104.87 574.05
00001476 00000104 830.86 120.86 359.46 600.09 968.57 349.92 1128.09 357.30 1077.06 469.98 970.62 566.99 1105.58 573.63
00001477 00000105 834.01 122.21 354.54 601.27 965.86 348.96 1126.70 353.89 1072.91 470.91 971.93 570.07 1109.88 574.08
00001478 00000106 832.61 120.75 354.55 591.50 964.80 349.54 1126.73 354.49 1072.55 470.19 974.72 568.08 1108.65 572.18
00001479 00000107 830.66 116.15 355.50 589.52 963.55 347.69 1126.38 352.93 1072.57 469.56 981.00 567.63 1110.64 571.53
00001480 00000108 829.66 113.15 356.65 583.50 963.22 345.07 1127.52 350.22 1073.11 468.50 986.44 566.16 1112.25 569.72
00001481 00000109 829.70 110.84 357.07 585.24 963.84 344.77 1127.87 349.33 1074.16 468.23 989.13 566.55 1114.20 569.46
00001482 00000110 830.13 111.19 357.13 585.39 965.06 344.22 1128.98 349.21 1075.60 467.12 990.10 566.67 1114.77 569.98
00001483 00000111 830.47 112.14 357.35 586.77 966.45 344.36 1130.01 348.81 1076.88 467.43 990.29 567.97 1114.39 570.80
00001484 00000112 831.53 111.84 356.87 587.32 967.75 344.20 1130.25 348.63 1077.11 467.28 991.98 569.07 1113.99 571.82
00001485 00000113 831.40 113.18 357.50 587.28 968.63 344.71 1130.69 349.16 1077.95 467.56 992.01 570.54 1113.01 573.41
00001486 00000114 831.31 115.40 358.57 584.48 968.53 345.14 1131.45 349.14 1078.69 467.62 992.29 571.63 1113.04 574.25
00001487 00000115 830.86 116.33 358.69 583.84 968.74 345.50 1131.70 349.32 1079.65 468.15 992.79 572.39 1113.18 574.79
00001488 00000116 831.38 115.59 358.69 585.43 968.72 346.07 1131.84 349.74 1079.89 468.01 992.31 572.41 1113.33 574.69
00001489 00000117 831.60 115.82 358.81 585.07 968.66 346.03 1131.41 349.88 1079.22 468.16 991.67 572.09 1112.80 574.59
00001490 00000118 831.67 115.45 358.56 585.37 968.67 345.68 1131.65 349.71 1079.48 467.80 991.79 572.12 1112.97 574.76
00001491 00000119 831.92 115.66 358.20 585.51 968.55 345.66 1131.76 349.61 1079.70 467.87 991.66 572.24 1113.12 574.82
00001492 00000120 831.82 116.38 358.10 584.92 968.61 345.51 1132.09 349.33 1079.79 467.96 991.47 572.53 1113.08 575.00
00001493 00000121 832.38 116.76 357.43 584.78 968.86 345.19 1132.19 349.53 1079.63 467.86 991.08 572.15 1113.22 575.08
00001494 00000122 831.94 116.78 358.09 584.99 968.64 345.43 1132.37 349.63 1080.09 467.81 991.16 572.49 1113.44 575.34
00001495 00000123 832.58 116.99 357.50 585.58 969.37 345.35 1132.54 349.60 1080.31 467.93 990.75 572.50 1112.84 575.45
00001496 00000124 832.48 116.71 357.30 586.64 969.78 345.02 1132.47 349.81 1080.13 467.88 990.21 572.12 1112.49 575.50
00001497 00000125 832.59 117.32 356.56 589.32 970.85 344.68 1132.24 350.20 1080.73 468.31 989.38 573.07 1111.39 577.12
00001498 00000126 834.28 117.60 354.63 596.04 971.55 344.74 1132.58 350.22 1081.00 468.93 986.36 576.83 1108.62 581.09
00001499 00000127 834.91 118.67 353.55 607.02 971.61 347.84 1132.43 351.78 1080.96 470.66 983.39 583.46 1106.74 586.56
00001500 00000128 836.11 119.21 354.35 615.97 972.43 355.38 1133.07 359.36 1080.44 476.80 982.03 590.46 1107.80 593.89
00001501 00000129 834.01 117.68 357.70 615.26 971.72 360.87 1130.75 370.54 1077.32 480.24 973.87 584.35 1100.40 593.14
00001502 00000130 835.48 125.74 356.76 617.90 973.69 367.23 1130.89 377.30 1076.88 486.80 974.22 591.01 1099.79 600.06
00001503 00000131 834.84 129.41 362.00 621.32 976.83 371.76 1135.49 383.70 1083.90 502.45 974.10 595.37 1103.58 605.81
00001504 00000132 835.30 136.63 363.74 608.40 977.15 378.84 1136.42 389.94 1082.32 514.64 976.92 596.92 1106.89 606.52
00001505 00000133 836.03 143.39 364.05 596.48 975.51 381.87 1138.03 389.16 1083.19 516.50 985.80 602.27 1111.01 608.33
00001506 00000134 838.07 140.22 361.58 593.06 977.97 376.40 1138.82 382.38 1086.61 506.83 991.91 599.39 1111.98 605.06
00001507 00000135 838.70 136.63 359.36 582.55 977.58 369.53 1138.51 375.46 1085.94 494.63 996.37 592.22 1110.76 598.08
00001508 00000136 838.04 131.50 356.13 577.16 973.80 363.71 1136.65 365.58 1086.20 486.40 996.17 586.56 1111.68 589.33
00001509 00000137 836.79 129.52 357.01 579.26 972.87 363.28 1136.59 364.81 1086.44 485.80 995.49 586.65 1112.24 588.97
00001510 00000138 836.11 139.02 360.11 576.02 971.21 368.99 1137.98 372.06 1083.72 492.30 993.39 591.26 1113.01 594.73
00001511 00000139 836.30 136.05 361.46 578.72 969.92 370.48 1139.33 374.67 1082.95 496.05 991.51 592.22 1114.27 596.50
00001512 00000140 835.94 137.41 361.38 568.35 971.21 368.21 1141.69 372.13 1085.29 492.17 991.67 586.12 1117.45 590.19
00001513 00000141 834.67 128.15 360.77 585.71 976.84 360.88 1136.15 362.15 1087.11 489.10 1004.03 587.48 1120.28 586.86
00001514 00000142 834.97 122.52 360.72 594.19 977.90 356.33 1135.47 358.05 1087.95 484.54 1002.33 584.46 1119.86 584.40
00001515 00000143 834.74 121.19 360.47 600.15 977.80 355.06 1134.87 359.01 1087.41 484.83 997.29 584.95 1115.74 587.12
00001516 00000144 835.05 124.60 361.72 590.83 973.50 358.12 1137.05 365.04 1084.11 482.90 981.34 576.41 1112.59 582.66
00001517 00000145 833.64 128.48 363.40 587.95 971.04 360.18 1137.70 366.82 1083.52 485.14 980.44 577.87 1114.09 583.78
00001518 00000146 834.25 123.35 362.66 588.77 968.91 362.29 1137.38 366.60 1083.86 485.84 981.00 576.88 1117.57 580.78
00001519 00000147 833.77 119.70 362.35 582.93 964.76 363.24 1137.36 365.71 1082.84 483.57 978.72 574.18 1118.13 577.00
00001520 00000148 833.47 124.07 359.27 591.39 967.89 368.64 1132.66 368.57 1080.04 489.48 986.18 584.73 1116.05 583.77
00001521 00000149 835.70 126.55 356.66 590.52 971.43 372.15 1129.58 371.24 1081.88 490.49 991.54 587.29 1114.97 585.72
00001522 00000150 834.53 125.25 357.99 593.08 972.57 367.25 1130.37 367.32 1083.28 488.60 995.40 589.53 1114.51 588.76
00001523 00000151 834.06 125.73 358.06 591.92 970.94 365.11 1130.55 365.49 1082.18 487.97 996.26 590.80 1114.25 590.25
00001524 00000152 833.93 126.56 358.15 578.85 967.49 366.05 1132.48 366.72 1081.57 485.03 988.22 583.30 1109.33 585.03
00001525 00000153 834.28 128.23 357.87 577.51 965.96 366.64 1133.19 367.01 1081.22 485.95 987.32 584.49 1109.91 585.94
00001526 00000154 834.44 128.82 358.25 577.33 966.60 365.69 1133.52 365.68 1082.08 486.21 987.61 584.70 1110.04 585.79
00001527 00000155 834.84 128.24 357.76 577.70 966.69 364.66 1134.08 365.29 1082.17 486.39 987.27 584.22 1110.40 585.82
00001528 00000156 834.41 128.20 357.96 578.86 966.80 363.81 1134.40 364.96 1082.75 485.50 985.95 583.15 1110.71 585.21
00001529 00000157 834.15 126.97 358.34 579.62 967.38 362.88 1134.85 363.70 1083.76 484.73 985.76 581.54 1111.73 583.24
00001530 00000158 834.17 125.97 358.15 580.59 967.72 362.86 1134.38 363.35 1083.63 484.33 986.52 581.39 1111.72 582.83
00001531 00000159 834.30 125.17 358.03 580.63 967.23 362.54 1134.37 362.76 1083.58 483.42 986.41 581.07 1112.22 582.32
00001532 00000160 835.42 126.05 357.58 578.48 968.82 362.00 1135.30 362.92 1084.31 483.15 987.51 580.96 1112.06 582.84
00001533 00000161 835.04 126.93 360.08 590.68 974.71 358.78 1135.21 359.57 1086.27 485.84 998.68 587.72 1117.77 587.22
00001534 00000162 836.53 128.88 361.04 588.46 980.81 356.99 1140.11 359.26 1091.87 485.11 1003.61 586.06 1122.22 586.65
00001535 00000163 839.98 115.24 361.05 600.34 992.04 352.73 1143.01 366.25 1100.12 477.73 1007.31 573.56 1115.89 585.70
00001536 00000164 848.88 113.32 359.49 598.76 1002.18 350.62 1152.67 362.32 1109.82 475.17 1017.68 575.78 1122.75 585.86
00001537 00000165 863.56 123.13 357.72 590.67 1014.06 352.33 1168.07 362.10 1127.27 477.99 1031.24 585.73 1132.52 593.92
