Video ID: 	1vNRsgWECnA
H: 	1080
W: 	1920
FPS: 	25.0

FRAME INDEX X0 Y0 W H [Landmarks (5 Points)]

00000840 00000000 890.52 223.15 396.74 603.17 924.15 451.47 1064.29 491.27 912.71 592.39 919.23 677.88 1021.69 710.64
00000841 00000001 892.98 227.98 396.34 602.43 925.17 452.60 1066.86 493.14 915.41 597.61 922.97 681.97 1025.88 714.88
00000842 00000002 893.06 232.28 398.16 599.15 926.14 454.07 1069.96 499.27 916.50 604.80 924.44 684.16 1029.46 720.33
00000843 00000003 888.84 243.24 399.19 596.40 923.60 456.50 1074.73 505.00 909.32 612.17 924.69 694.07 1035.35 734.21
00000844 00000004 888.85 241.08 398.78 597.90 923.38 457.79 1075.14 505.57 910.02 611.69 924.38 694.06 1035.34 733.74
00000845 00000005 888.52 242.97 399.82 596.48 923.78 457.33 1075.49 504.51 910.04 612.18 925.36 694.38 1036.62 733.52
00000846 00000006 894.23 240.31 398.81 592.71 926.01 457.59 1072.10 502.74 917.63 609.28 926.93 687.03 1034.84 722.74
00000847 00000007 894.29 241.62 398.20 592.99 926.21 457.22 1072.43 502.99 917.30 609.71 926.71 687.36 1034.98 723.65
00000848 00000008 893.79 240.31 398.49 594.99 926.28 457.01 1072.01 503.17 916.93 609.17 926.19 687.19 1034.09 723.83
00000849 DELETE   893.45 236.33 397.81 601.89 926.00 458.24 1070.12 503.18 916.40 608.99 926.02 688.27 1032.72 724.21
00000850 00000010 892.52 238.07 398.23 602.00 925.98 458.76 1069.70 504.15 915.58 609.59 925.79 688.93 1032.17 725.26
00000851 00000011 893.14 236.37 396.72 603.08 925.87 458.71 1069.91 503.97 916.17 609.80 926.36 690.02 1032.03 726.17
00000852 00000012 893.84 238.34 394.13 598.99 926.34 458.82 1069.07 503.96 916.93 608.85 925.12 690.11 1028.05 726.14
00000853 00000013 893.49 237.30 393.84 596.28 926.05 458.56 1067.61 503.53 917.58 606.91 923.37 688.64 1024.05 724.56
00000854 00000014 893.53 234.05 394.95 599.16 926.14 457.91 1067.92 502.06 917.34 605.96 923.21 688.00 1023.82 723.34
00000855 00000015 893.22 231.39 395.26 601.47 926.76 457.10 1068.99 501.77 918.10 605.80 923.71 687.16 1026.12 722.91
00000856 00000016 893.54 232.66 395.29 599.77 926.71 457.09 1069.39 501.87 917.93 606.27 924.61 686.56 1027.80 722.31
00000857 00000017 893.10 230.22 396.11 601.07 927.12 456.74 1068.97 503.10 918.41 605.98 922.45 684.06 1025.96 721.24
00000858 00000018 891.75 229.62 397.69 600.62 926.15 455.00 1068.96 502.26 916.96 605.48 920.98 682.84 1025.21 720.73
00000859 00000019 891.92 231.56 397.68 598.59 925.97 454.91 1068.98 501.77 917.28 604.96 920.48 683.17 1024.02 720.78
00000860 00000020 891.00 235.50 396.08 594.92 924.36 455.88 1066.21 502.29 915.91 605.98 919.67 684.49 1022.82 721.84
00000861 00000021 889.71 239.15 396.98 595.75 922.80 460.04 1063.99 503.83 913.85 608.40 920.32 689.63 1022.11 724.92
00000862 00000022 889.45 247.75 395.51 592.19 922.06 462.01 1061.89 506.63 910.64 611.49 919.67 691.89 1018.68 727.98
00000863 DELETE   887.02 240.98 394.93 601.54 921.42 463.57 1060.45 507.63 910.49 611.26 917.05 691.38 1018.13 727.58
00000864 00000024 885.34 239.72 394.73 601.91 919.49 463.93 1058.42 507.82 910.36 612.08 915.57 691.46 1017.87 727.70
00000865 00000025 885.09 241.46 394.86 600.63 919.45 463.13 1058.63 507.13 909.49 611.54 914.83 691.19 1017.60 727.50
00000866 00000026 884.26 236.25 394.18 605.01 918.44 461.91 1057.85 504.63 908.65 610.26 913.51 690.90 1015.94 726.29
00000867 00000027 884.42 237.16 394.99 601.66 918.37 458.35 1059.66 503.04 908.47 609.16 912.49 688.39 1017.08 725.19
00000868 00000028 885.11 233.13 395.64 603.43 918.96 456.84 1060.41 501.61 909.53 607.48 912.60 686.87 1017.52 723.76
00000869 00000029 884.65 232.77 396.99 601.27 919.40 453.93 1061.20 500.42 908.60 605.39 911.21 684.15 1016.34 722.49
00000870 00000030 885.38 236.14 396.25 596.71 919.94 453.61 1062.18 499.96 909.74 605.96 912.61 684.19 1017.95 722.29
00000871 00000031 886.64 235.29 395.67 599.93 920.48 454.30 1062.79 499.29 910.92 606.40 914.87 686.31 1020.16 723.24
00000872 00000032 887.16 229.87 396.55 608.24 921.03 454.75 1063.27 498.54 912.03 605.20 916.55 687.36 1021.14 723.44
00000873 00000033 890.19 232.85 396.93 603.07 922.62 455.79 1063.52 499.90 913.01 605.51 919.59 687.00 1022.69 722.93
00000874 00000034 892.70 237.73 396.45 598.79 925.32 456.56 1067.48 501.58 914.96 606.01 922.50 687.89 1026.33 723.98
00000875 00000035 888.95 240.68 398.56 602.73 924.30 457.18 1074.52 503.33 906.57 609.07 921.73 696.16 1033.47 734.17
00000876 DELETE   888.55 249.54 399.85 596.33 925.35 458.22 1078.59 510.44 910.50 611.74 921.87 692.28 1037.29 735.08
00000877 DELETE   890.35 251.32 401.61 594.67 926.23 460.60 1078.70 508.22 910.67 610.38 923.88 694.04 1038.31 733.18
00000878 00000038 890.90 240.68 400.91 602.46 925.87 459.03 1080.91 510.34 912.21 607.96 924.17 690.88 1038.58 733.24
00000879 00000039 893.43 235.91 399.93 604.92 927.34 458.19 1081.15 505.40 912.69 604.51 925.75 692.03 1038.78 731.23
00000880 DELETE   893.48 233.82 401.46 605.97 929.05 456.01 1081.64 500.51 913.29 601.11 926.25 692.47 1038.96 729.59
00000881 00000041 896.31 231.43 400.24 608.18 931.53 453.22 1081.19 496.54 911.85 597.63 927.60 691.47 1039.30 727.60
00000882 00000042 897.39 230.10 400.49 610.64 933.22 451.11 1081.80 492.25 911.15 594.26 928.01 691.09 1040.07 725.23
00000883 00000043 898.33 226.04 399.86 614.83 934.31 450.14 1081.75 490.64 910.06 592.18 928.25 691.19 1038.80 724.71
00000884 00000044 896.91 225.88 400.99 614.96 933.25 449.48 1081.27 490.44 909.85 592.71 928.11 690.41 1039.30 724.26
00000885 00000045 895.36 223.89 400.78 613.46 930.28 450.36 1080.03 492.02 909.11 593.49 926.19 687.37 1039.98 721.87
00000886 DELETE   895.16 221.49 399.32 608.41 929.67 451.95 1073.80 493.30 917.85 593.32 927.34 675.75 1038.31 708.98
00000887 00000047 893.35 219.24 398.80 615.54 930.35 452.79 1070.82 492.63 914.65 591.56 929.44 675.35 1038.88 707.82
00000888 DELETE   890.57 217.54 399.62 621.36 931.10 452.62 1068.77 491.89 912.52 588.53 927.92 673.39 1036.36 705.54
00000889 DELETE   888.32 213.83 397.97 621.08 929.37 451.99 1065.94 491.78 910.52 585.78 923.08 672.39 1029.21 705.01
00000890 00000050 885.97 212.66 395.23 615.85 926.54 447.90 1062.39 490.87 907.09 584.40 916.37 668.77 1022.00 704.49
00000891 00000051 872.38 215.45 402.22 612.69 926.00 454.64 1063.56 492.59 899.08 587.17 910.44 679.76 1015.00 709.29
00000892 00000052 880.04 216.03 396.95 611.15 920.60 450.40 1057.43 497.48 902.70 589.24 906.82 670.00 1012.03 709.47
00000893 DELETE   875.89 225.06 402.74 611.61 916.33 461.48 1050.71 510.78 897.79 601.50 903.56 681.83 1004.24 722.55
00000894 DELETE   861.34 249.71 410.71 607.68 913.44 483.91 1051.20 525.42 885.71 616.89 902.18 708.89 1005.14 740.38
00000895 DELETE   855.55 262.38 413.88 609.97 909.16 495.50 1041.22 540.35 874.05 637.48 900.63 721.44 1002.64 755.05
00000896 00000056 861.99 286.30 396.93 590.94 903.72 498.45 1042.95 555.25 879.47 645.71 892.88 718.48 1003.68 765.70
00000897 00000057 860.87 286.54 398.76 589.03 903.37 497.80 1044.42 554.51 880.98 643.85 890.92 717.48 1002.25 764.75
00000898 00000058 853.60 281.95 411.88 591.44 908.79 497.55 1041.47 542.99 875.67 640.38 896.56 722.60 999.23 757.30
00000899 00000059 858.18 276.80 406.58 599.54 903.65 489.85 1050.12 544.24 878.05 631.72 892.35 714.26 1002.43 756.69
00000900 00000060 858.50 273.71 407.02 602.19 904.75 489.66 1050.69 543.01 879.39 631.38 894.68 713.38 1004.40 754.98
00000901 00000061 859.31 275.58 406.24 600.30 904.12 490.46 1051.80 544.20 880.99 633.65 894.90 715.26 1004.98 757.23
00000902 00000062 863.77 277.00 396.71 596.67 907.90 496.46 1050.52 548.10 890.08 641.01 895.91 713.61 1010.70 756.93
00000903 00000063 864.19 273.80 395.91 605.69 907.86 499.14 1051.75 549.05 893.53 645.19 896.77 718.31 1011.86 760.35
00000904 00000064 863.88 271.26 398.51 608.79 909.33 500.70 1052.44 547.82 895.10 642.60 898.88 716.09 1015.81 755.97
00000905 00000065 865.78 269.72 399.30 608.32 909.93 499.39 1053.75 544.71 897.08 643.26 901.64 717.45 1019.63 755.87
00000906 00000066 867.21 270.59 401.55 603.72 910.32 498.52 1056.02 543.61 899.90 643.34 902.22 716.65 1021.44 754.94
00000907 00000067 868.01 273.59 402.15 596.07 910.01 496.94 1057.01 542.86 901.61 645.03 902.62 716.05 1021.24 755.08
00000908 00000068 868.37 272.76 402.96 595.39 910.69 496.24 1057.50 542.13 902.83 644.00 902.66 715.40 1020.37 754.49
00000909 00000069 869.28 272.47 403.15 596.13 911.83 496.40 1057.69 541.81 902.86 642.53 903.21 715.70 1019.64 754.41
00000910 00000070 869.13 271.78 401.33 595.96 911.30 495.36 1058.03 540.71 903.27 642.99 902.18 716.17 1019.54 754.90
00000911 00000071 869.89 267.94 402.47 600.72 911.26 495.85 1057.98 539.49 904.03 641.97 902.60 717.33 1020.17 754.66
00000912 00000072 871.21 265.78 404.44 604.43 912.22 495.50 1058.90 537.65 904.43 641.76 905.10 719.69 1021.56 755.81
00000913 00000073 871.64 268.32 404.16 603.94 913.46 494.47 1059.95 538.03 904.52 640.94 905.55 719.75 1021.39 756.99
00000914 00000074 873.79 267.27 403.67 606.19 915.04 492.98 1060.64 536.93 904.85 640.98 908.02 720.94 1022.10 758.46
00000915 00000075 875.65 271.40 404.80 601.31 915.53 489.81 1061.91 535.09 907.05 640.01 909.69 719.65 1022.50 758.27
00000916 00000076 877.12 267.57 406.80 604.50 916.77 488.97 1064.33 532.51 910.35 637.22 910.67 718.31 1023.70 755.63
00000917 00000077 878.04 267.87 408.93 601.66 919.09 486.19 1068.49 530.76 914.33 633.70 912.01 714.38 1026.65 752.43
00000918 00000078 887.05 262.05 400.37 599.61 922.90 475.59 1067.71 527.18 912.53 625.64 913.98 705.80 1020.63 747.33
00000919 00000079 889.81 256.72 399.60 603.37 926.65 472.46 1067.75 524.72 913.28 621.18 917.27 702.03 1019.65 744.21
00000920 00000080 892.48 258.50 399.36 597.59 930.14 470.01 1071.43 522.48 914.41 617.62 920.49 698.92 1022.68 740.92
00000921 00000081 894.40 252.71 398.76 598.58 931.67 466.59 1072.98 518.74 915.48 613.89 922.03 695.66 1023.55 737.29
00000922 00000082 890.62 249.51 399.87 604.53 930.49 463.97 1078.82 519.67 908.32 610.84 918.60 695.29 1029.18 740.70
00000923 00000083 891.73 247.26 399.76 604.29 929.60 462.43 1079.22 518.99 909.76 611.34 920.25 692.59 1032.11 738.78
00000924 00000084 891.70 242.42 400.53 606.48 929.83 460.06 1079.76 515.64 910.08 608.33 920.40 690.14 1033.08 735.60
00000925 00000085 891.05 239.46 401.93 609.17 929.79 458.75 1080.08 513.29 909.84 606.79 920.64 688.24 1035.69 732.67
00000926 00000086 889.04 241.73 402.49 608.34 928.23 458.62 1079.09 513.37 908.88 607.20 918.95 688.67 1035.21 733.22
00000927 00000087 887.77 240.99 402.68 603.11 928.29 459.05 1077.71 515.81 908.15 606.91 916.58 687.68 1030.18 734.23
00000928 00000088 886.91 239.32 402.58 600.70 928.30 458.11 1077.85 517.90 908.99 606.60 914.56 685.45 1027.28 734.76
00000929 00000089 888.29 238.77 403.49 602.09 929.83 457.90 1080.01 516.87 909.87 605.48 913.98 686.97 1025.46 735.78
00000930 00000090 888.37 239.53 403.52 601.78 931.14 457.66 1080.88 516.68 910.23 604.26 913.26 687.42 1024.10 736.18
00000931 00000091 888.59 237.42 403.94 603.56 931.26 458.18 1081.38 517.07 911.07 604.50 914.26 687.07 1024.87 735.92
00000932 00000092 889.24 238.99 403.40 603.11 930.53 459.70 1081.29 517.62 910.56 605.31 914.35 688.17 1026.05 736.24
00000933 00000093 890.23 239.62 403.27 609.98 931.32 460.15 1081.58 514.68 910.36 605.92 917.29 692.63 1029.20 737.45
00000934 00000094 890.72 241.90 402.72 610.89 930.75 461.00 1081.58 514.35 909.87 606.61 918.77 693.20 1032.50 736.94
00000935 00000095 890.81 238.71 400.49 609.05 930.59 459.42 1081.89 516.70 911.22 606.89 917.86 689.74 1031.19 736.97
00000936 00000096 889.35 239.34 402.45 606.26 931.10 459.01 1081.78 516.78 911.39 606.03 916.07 689.29 1027.07 737.09
00000937 00000097 889.97 239.58 401.88 605.53 931.66 458.86 1082.50 516.16 911.93 605.14 915.92 689.96 1026.52 737.42
00000938 00000098 890.79 239.64 400.57 604.19 930.36 458.32 1082.54 515.73 912.01 604.90 917.01 687.96 1029.84 735.54
00000939 00000099 892.12 238.53 401.03 606.27 930.42 458.22 1082.47 513.80 911.86 604.81 918.28 688.83 1031.64 734.87
00000940 00000100 891.86 238.50 401.18 604.92 930.23 457.67 1083.31 513.41 912.75 604.44 918.09 688.01 1032.53 734.27
00000941 00000101 891.65 240.17 401.97 602.69 929.80 458.71 1083.19 514.73 912.81 605.12 917.84 687.79 1032.45 734.36
00000942 00000102 890.66 238.92 402.89 602.68 929.97 458.18 1083.20 515.46 912.84 604.52 916.78 686.39 1031.13 734.05
00000943 00000103 890.00 238.41 403.68 602.48 929.28 458.35 1082.39 514.81 911.99 603.50 916.66 685.42 1031.67 732.36
00000944 00000104 890.63 241.02 403.20 604.99 929.02 460.51 1080.00 514.40 910.12 606.57 919.27 688.51 1034.35 732.92
00000945 00000105 894.14 244.70 403.61 604.95 932.83 466.22 1073.84 516.36 914.57 612.18 927.11 691.86 1031.85 731.67
00000946 DELETE   889.11 239.24 401.83 616.12 926.76 473.65 1067.83 527.26 911.74 624.81 923.21 698.49 1029.73 741.33
00000947 00000107 885.34 257.83 397.28 603.83 921.96 480.45 1062.14 530.61 907.65 630.44 915.28 707.38 1022.66 747.81
00000948 00000108 875.37 264.95 408.53 603.33 917.13 492.74 1061.82 532.02 909.93 636.67 912.48 717.37 1022.53 751.53
00000949 00000109 875.50 263.19 408.28 606.88 917.74 493.17 1062.09 531.18 910.99 636.79 914.20 718.30 1023.23 751.38
00000950 00000110 882.38 259.23 397.49 609.30 921.48 479.41 1061.38 528.05 907.03 631.55 917.55 709.46 1025.43 748.74
00000951 00000111 885.25 259.20 396.53 608.32 923.26 478.07 1063.38 526.94 910.37 629.84 921.71 707.42 1028.52 746.66
00000952 00000112 886.52 253.82 397.28 609.29 924.03 476.29 1064.62 525.04 913.60 626.23 920.47 705.26 1024.27 744.74
00000953 00000113 887.27 250.77 398.78 607.68 924.46 477.14 1065.31 525.13 914.82 625.82 921.43 705.29 1023.63 744.22
00000954 00000114 887.28 250.58 397.59 605.01 924.55 475.46 1065.98 526.35 914.33 625.37 919.39 701.00 1024.47 742.25
00000955 00000115 887.74 250.92 396.85 602.02 924.40 474.78 1065.48 526.41 915.11 625.05 917.87 700.77 1020.94 742.64
00000956 00000116 887.39 250.23 397.59 599.67 924.35 473.58 1066.16 526.04 915.01 623.81 915.97 698.99 1019.52 741.58
00000957 00000117 887.82 244.46 399.42 603.58 924.68 472.90 1065.60 523.71 914.22 620.49 916.40 698.41 1017.10 739.73
00000958 00000118 888.80 246.56 399.38 601.56 925.74 471.82 1067.01 523.66 914.87 620.26 917.49 697.99 1018.27 740.05
00000959 00000119 887.72 246.55 400.81 603.71 924.45 473.10 1066.50 523.26 915.24 621.28 917.52 700.89 1017.51 741.77
00000960 00000120 887.97 246.58 399.27 606.31 923.76 475.87 1065.61 525.96 914.80 623.20 916.69 702.87 1017.93 743.77
00000961 00000121 885.01 254.53 398.28 599.38 921.57 476.92 1063.08 528.91 912.10 625.60 911.65 701.99 1015.13 744.50
00000962 00000122 882.88 257.41 398.44 595.58 919.51 477.39 1059.81 530.62 907.38 624.58 906.89 702.01 1009.64 745.37
00000963 00000123 881.57 256.96 398.50 601.12 919.13 478.77 1059.38 531.62 906.57 626.55 906.69 704.94 1010.25 747.98
00000964 00000124 880.93 256.31 397.43 608.09 920.74 480.51 1059.15 531.11 906.44 627.19 909.97 710.12 1012.36 751.25
00000965 00000125 881.19 257.77 398.04 607.69 920.77 481.04 1059.07 529.90 906.85 627.29 911.56 711.41 1013.45 751.09
00000966 00000126 881.70 259.71 398.04 601.75 920.26 479.99 1059.39 529.76 905.90 627.56 911.41 707.83 1017.63 748.02
00000967 00000127 871.91 259.10 415.35 605.36 916.51 483.10 1070.84 533.32 904.86 629.33 910.02 711.73 1022.08 751.67
00000968 00000128 870.73 257.92 416.28 606.80 915.80 482.53 1070.65 533.59 904.37 628.36 907.52 712.50 1018.02 753.39
00000969 00000129 880.17 260.03 396.98 596.26 917.22 478.66 1057.91 530.93 904.79 627.61 905.63 705.08 1011.01 747.49
00000970 00000130 879.55 256.42 397.89 598.05 917.01 478.31 1056.81 530.29 904.12 625.66 904.33 703.99 1007.85 746.30
00000971 00000131 879.43 258.10 398.04 594.48 917.21 477.40 1056.20 530.02 903.77 623.52 903.69 701.54 1005.41 744.34
00000972 00000132 878.92 260.52 399.35 591.76 916.98 476.55 1056.93 528.72 904.84 623.44 903.96 700.87 1005.80 743.27
00000973 00000133 879.76 259.95 398.98 592.25 917.70 477.35 1056.93 528.07 905.11 622.56 905.03 700.61 1005.79 741.87
00000974 00000134 880.33 259.75 399.50 591.97 918.06 477.63 1056.79 526.54 906.75 622.16 906.69 701.76 1006.34 741.61
00000975 00000135 880.46 262.84 399.63 588.81 917.34 477.83 1057.17 526.19 907.37 621.92 905.85 702.43 1006.22 741.73
00000976 00000136 881.17 260.12 398.50 593.33 918.98 476.95 1058.59 525.78 908.31 621.59 907.18 702.54 1008.15 742.31
00000977 00000137 880.27 255.57 399.19 603.38 918.16 476.78 1059.19 523.99 908.56 622.62 908.92 706.27 1011.28 744.98
00000978 00000138 874.04 255.25 415.48 606.99 916.08 486.77 1062.33 523.35 911.49 627.55 912.26 714.03 1020.57 746.16
00000979 00000139 872.56 254.93 415.07 602.48 915.53 485.55 1062.43 522.63 911.74 627.24 910.86 711.73 1019.34 744.24
00000980 00000140 880.25 254.65 400.83 595.06 919.71 474.68 1059.17 523.33 909.06 618.65 906.71 700.66 1006.91 740.72
00000981 00000141 881.04 255.20 400.50 593.29 920.21 474.31 1058.56 522.57 909.68 617.17 906.68 700.39 1003.51 740.08
00000982 00000142 880.88 259.56 400.08 586.62 920.77 471.34 1059.30 521.64 909.65 615.83 906.02 697.73 1002.28 738.92
00000983 00000143 882.02 253.80 398.71 591.70 921.07 470.46 1058.67 519.76 909.58 614.81 907.51 696.63 1003.75 737.25
00000984 00000144 883.20 242.32 396.70 605.84 924.30 469.44 1057.93 515.75 909.54 608.79 910.06 695.87 1002.92 734.34
00000985 00000145 882.45 239.44 400.45 604.02 922.86 465.26 1057.54 511.44 909.34 606.17 909.33 692.31 1003.25 730.52
00000986 00000146 880.81 232.81 402.54 605.65 921.42 460.98 1057.57 509.25 907.75 604.46 907.14 686.36 1006.02 726.37
00000987 00000147 882.47 227.37 401.77 607.13 920.06 458.44 1057.70 505.95 907.55 602.84 906.74 683.88 1007.27 723.39
00000988 00000148 881.96 221.58 403.68 615.57 921.55 457.43 1058.03 503.07 907.31 598.87 906.77 685.22 1002.81 723.59
00000989 00000149 883.16 214.36 404.13 622.55 920.76 455.53 1059.68 501.34 907.73 595.94 905.85 681.32 1006.04 720.04
00000990 00000150 885.47 212.85 403.35 621.09 922.03 454.00 1063.31 498.49 909.07 592.82 908.36 677.70 1012.48 715.16
00000991 00000151 886.58 210.45 404.70 623.68 923.87 452.82 1065.18 496.68 908.47 588.52 910.36 673.80 1017.07 710.59
00000992 00000152 883.14 215.47 405.89 621.80 922.56 449.37 1069.46 492.07 898.17 581.30 913.59 675.60 1030.26 709.89
00000993 00000153 887.89 203.36 404.82 629.53 931.88 446.96 1069.04 489.33 908.44 573.27 918.65 663.86 1028.30 698.77
00000994 00000154 887.86 198.23 408.45 629.21 932.84 441.47 1069.42 483.30 906.67 566.47 920.25 655.96 1031.66 690.27
00000995 00000155 887.84 194.23 407.06 631.87 934.13 434.60 1071.53 476.50 906.90 559.26 921.12 650.13 1035.67 684.56
00000996 00000156 881.19 191.65 412.68 633.28 935.06 432.24 1075.00 472.06 905.27 560.39 918.51 654.94 1034.34 685.94
00000997 00000157 877.74 186.87 411.80 652.11 933.35 435.70 1071.91 472.72 900.94 564.57 918.40 664.19 1034.89 692.10
00000998 DELETE   884.47 196.53 405.49 656.38 930.76 449.72 1062.31 492.44 901.42 579.83 919.89 671.91 1026.09 707.02
00000999 DELETE   873.20 211.63 407.80 651.08 917.14 466.38 1053.40 511.27 897.88 602.99 905.26 693.58 1009.89 731.23
00001000 DELETE   865.80 233.86 407.10 637.95 906.21 482.73 1042.98 529.58 881.70 621.06 894.70 711.29 998.50 749.91
00001001 00000161 854.89 256.61 413.69 624.31 903.58 490.57 1049.74 542.11 876.55 632.59 893.79 717.65 1003.58 757.94
00001002 00000162 853.15 261.56 414.26 619.58 900.05 491.59 1050.63 545.12 877.76 636.90 892.85 718.43 1006.89 760.33
00001003 00000163 852.55 263.43 415.58 614.65 897.34 492.08 1051.21 545.35 878.24 637.69 889.92 719.79 1003.27 761.90
00001004 00000164 851.83 260.22 414.46 618.15 896.75 492.94 1048.69 545.84 876.64 639.15 889.35 720.68 1001.29 762.44
00001005 00000165 850.69 259.67 415.57 619.64 895.63 492.36 1047.79 545.56 875.45 639.87 888.65 721.16 1000.73 763.10
00001006 00000166 850.86 260.49 414.15 619.16 896.44 493.06 1048.20 545.68 876.74 639.79 889.01 720.93 1001.91 762.42
00001007 00000167 851.85 264.65 412.96 614.54 896.89 492.90 1049.68 547.31 877.84 640.34 888.67 719.83 1002.41 762.83
