Video ID: 	VyaZ1RzthCY
H: 	1080
W: 	1920
FPS: 	25.0

FRAME INDEX X0 Y0 W H [Landmarks (5 Points)]

00001240 00000000 785.88 104.64 445.09 643.11 811.95 368.15 965.73 329.42 820.03 450.41 841.62 601.25 959.04 570.53
00001241 00000001 786.76 100.76 444.83 648.96 813.46 366.53 967.47 328.15 820.56 449.66 842.47 600.62 961.73 570.15
00001242 00000002 787.13 100.89 444.99 650.13 813.93 365.85 967.31 328.08 820.36 449.44 842.40 600.19 961.64 570.21
00001243 00000003 784.99 101.20 447.16 649.64 811.62 367.01 965.08 327.44 817.29 449.89 840.57 601.12 959.69 569.65
00001244 00000004 774.70 112.82 445.29 639.79 803.81 374.44 963.34 334.10 815.54 454.08 833.95 608.08 960.41 577.64
00001245 DELETE   769.61 116.22 446.68 636.08 800.13 373.79 955.45 335.46 806.76 456.97 831.24 607.90 955.16 578.61
00001246 00000006 771.33 108.34 450.31 640.53 800.97 370.59 946.82 331.29 799.55 458.04 835.77 603.71 950.00 572.48
00001247 00000007 771.90 109.40 447.00 642.15 804.67 367.50 945.63 330.34 797.36 456.59 838.92 600.34 952.88 570.51
00001248 DELETE   775.61 107.65 444.66 642.16 805.42 366.24 945.29 328.75 795.77 453.96 837.41 597.45 952.33 567.36
00001249 DELETE   779.09 105.86 442.84 644.71 806.71 363.70 946.63 328.74 796.44 452.85 837.21 595.46 952.96 567.36
00001250 00000010 782.58 108.97 444.85 640.77 807.55 363.11 949.66 329.74 797.41 451.67 835.60 594.00 954.90 567.18
00001251 00000011 785.18 104.42 446.64 643.11 809.82 362.43 954.55 326.85 802.16 447.98 834.52 592.75 952.63 564.39
00001252 00000012 786.86 98.36 445.35 645.82 812.10 357.75 959.77 324.49 806.37 444.31 833.39 589.74 951.84 563.52
00001253 00000013 791.51 97.44 442.29 648.64 817.06 354.59 964.99 323.65 810.38 442.03 833.93 588.46 951.02 564.10
00001254 00000014 793.18 94.67 440.01 648.24 816.02 354.50 967.04 324.46 813.39 441.52 832.03 588.59 948.59 565.16
00001255 00000015 794.30 93.05 442.28 649.35 815.98 354.76 969.39 323.50 816.09 440.43 832.29 589.41 948.29 564.93
00001256 00000016 794.58 93.09 440.79 648.51 816.40 354.56 971.25 322.85 817.26 439.50 831.27 590.25 947.41 565.54
00001257 00000017 795.74 91.90 442.77 650.98 818.37 352.50 974.02 321.43 819.61 437.22 829.35 592.38 943.08 568.35
00001258 00000018 796.60 91.46 442.34 650.48 818.36 350.11 977.14 320.77 822.37 437.33 829.31 591.92 944.92 569.35
00001259 00000019 795.63 90.32 442.65 650.76 817.57 348.13 979.71 321.55 824.72 437.22 827.51 591.98 942.64 572.03
00001260 00000020 795.15 90.57 444.78 650.77 817.57 345.57 981.59 321.46 825.42 437.23 826.83 591.13 943.72 573.11
00001261 00000021 782.57 108.65 452.67 626.01 825.47 348.11 992.71 328.14 823.55 439.61 828.76 589.79 955.60 575.21
00001262 DELETE   779.73 107.44 459.09 629.93 825.12 354.04 995.68 329.07 829.67 438.34 834.12 588.44 964.40 570.06
00001263 DELETE   780.68 105.76 463.61 629.21 827.75 358.97 998.73 330.73 836.90 436.40 836.65 587.80 968.54 567.21
00001264 00000024 783.53 100.92 464.28 631.17 829.81 353.86 1003.65 328.15 841.72 433.28 840.02 583.15 976.73 564.82
00001265 00000025 786.80 97.95 463.42 630.20 833.02 346.80 1010.57 321.59 847.17 427.22 843.02 580.06 981.34 562.23
00001266 00000026 794.40 85.25 458.21 640.42 840.30 336.98 1007.92 313.86 842.97 421.72 850.52 573.93 977.09 555.97
00001267 00000027 795.51 83.81 457.96 637.06 841.64 333.68 1009.97 313.08 844.52 421.33 849.26 570.86 976.98 555.06
00001268 00000028 795.96 83.35 459.09 638.63 842.62 334.21 1011.60 314.08 846.05 420.81 849.48 571.09 977.61 555.75
00001269 00000029 796.28 82.28 460.34 642.29 842.50 335.69 1014.02 316.13 849.86 423.88 851.12 572.87 981.29 558.02
00001270 00000030 795.73 83.98 462.62 643.63 842.45 337.38 1015.76 317.92 852.52 425.84 852.13 573.91 983.52 559.32
00001271 00000031 795.07 87.04 465.15 644.70 842.43 340.42 1018.42 319.55 855.23 426.72 853.88 576.59 986.05 560.98
00001272 00000032 794.91 87.58 466.93 643.80 842.74 340.80 1019.60 320.49 857.63 427.99 855.00 576.88 988.22 561.78
00001273 00000033 796.32 87.44 467.77 644.66 843.66 341.85 1020.34 321.04 859.53 429.66 857.20 577.97 989.68 562.57
00001274 00000034 796.76 89.52 468.80 643.08 844.51 344.07 1021.75 321.79 862.46 431.41 859.46 580.24 991.89 563.71
00001275 00000035 800.28 88.84 467.68 644.65 847.73 344.41 1022.56 321.78 863.20 431.71 861.70 580.49 992.99 563.67
00001276 00000036 802.97 86.85 466.95 646.55 848.79 346.13 1024.03 322.51 864.07 431.91 861.72 581.75 992.92 564.26
00001277 00000037 804.97 86.69 466.36 644.05 849.27 344.18 1025.45 322.78 864.91 431.69 861.13 579.94 992.88 564.31
00001278 00000038 806.91 87.21 466.46 642.85 850.34 344.18 1027.34 322.08 864.73 430.34 860.79 580.28 992.88 564.09
00001279 00000039 809.42 88.69 464.33 639.71 853.05 343.89 1028.99 322.01 866.82 429.98 862.72 578.98 993.69 562.97
00001280 00000040 810.75 89.85 464.97 638.24 854.01 343.51 1030.36 321.38 866.86 428.95 862.49 578.81 992.81 562.68
00001281 00000041 812.56 88.45 464.51 639.76 855.61 344.29 1032.27 321.15 868.28 428.23 864.18 579.61 994.32 562.74
00001282 00000042 814.64 87.79 464.02 639.39 856.39 343.86 1033.30 321.07 869.96 428.50 865.15 579.32 995.42 562.73
00001283 00000043 816.30 87.64 462.56 639.02 858.30 342.40 1034.06 320.43 870.64 427.40 865.87 578.52 995.73 562.55
00001284 00000044 818.11 87.84 460.95 637.16 859.40 340.93 1035.25 320.40 871.43 426.97 865.58 577.50 994.89 562.71
00001285 00000045 820.14 84.96 460.66 637.45 862.16 337.93 1038.04 320.87 872.17 425.22 864.12 573.52 994.33 561.72
00001286 00000046 822.37 85.09 459.21 635.56 864.62 335.60 1039.10 321.36 871.37 423.74 862.61 570.38 992.20 560.97
00001287 00000047 824.52 80.27 457.71 638.18 868.31 332.40 1040.96 321.81 872.71 422.27 863.73 567.48 991.24 561.28
00001288 00000048 826.76 78.39 456.76 640.66 870.29 331.99 1045.45 321.23 875.72 419.85 865.18 566.64 994.58 560.46
00001289 00000049 827.70 78.21 457.18 641.55 871.94 332.32 1047.52 320.76 877.86 418.15 867.32 565.90 997.53 559.14
00001290 00000050 827.20 78.58 456.99 643.01 871.69 333.65 1047.61 320.25 878.62 417.83 867.75 567.69 997.82 559.42
00001291 00000051 827.41 79.84 457.48 641.17 871.24 334.57 1047.95 319.19 879.00 417.96 867.49 570.10 997.02 560.21
00001292 00000052 828.09 81.58 455.61 643.17 870.45 333.19 1047.56 317.14 878.62 418.39 867.74 572.20 997.62 561.68
00001293 00000053 829.75 81.25 452.47 643.80 872.06 332.48 1048.08 316.25 880.27 417.71 870.14 572.68 997.65 561.96
00001294 00000054 829.54 81.95 451.77 641.47 872.91 332.38 1047.70 315.60 880.28 416.46 869.63 572.45 995.55 561.17
00001295 00000055 827.32 80.44 454.39 645.05 871.40 332.94 1047.41 315.77 880.50 417.79 869.04 574.68 993.74 563.17
00001296 00000056 823.84 81.91 454.55 641.02 871.46 335.18 1048.09 315.59 882.05 419.38 869.76 576.60 988.44 563.51
00001297 00000057 819.91 82.20 460.18 639.68 868.87 339.22 1045.99 316.82 881.44 419.76 868.64 576.63 989.47 561.13
00001298 00000058 817.44 83.46 461.04 637.84 867.53 340.57 1045.51 317.56 882.95 419.77 868.95 576.17 990.94 560.15
00001299 00000059 818.20 85.92 460.86 637.69 866.92 344.95 1045.84 319.05 885.11 421.24 871.40 579.36 993.93 560.98
00001300 00000060 817.83 88.97 461.18 636.30 863.49 349.00 1040.15 322.62 882.46 424.15 870.79 583.38 995.21 564.14
00001301 00000061 815.75 87.84 461.46 637.66 862.73 347.65 1041.76 321.45 885.20 425.77 872.12 583.39 997.34 564.42
00001302 00000062 815.29 85.16 461.83 640.17 862.12 345.76 1043.47 319.51 886.33 426.38 872.05 583.93 997.90 564.99
00001303 00000063 814.32 85.33 462.12 643.51 864.77 344.15 1043.60 319.42 886.55 427.71 877.19 581.35 1001.64 563.66
00001304 00000064 813.51 84.22 463.75 644.86 864.77 343.58 1043.84 319.09 887.38 427.76 877.93 581.33 1002.39 563.82
00001305 00000065 813.26 83.37 463.33 643.28 863.56 344.34 1043.16 318.74 887.28 426.28 876.94 581.11 1001.35 562.62
00001306 00000066 813.50 84.54 462.87 643.64 863.37 345.50 1042.85 319.53 887.69 426.39 877.46 580.90 1003.40 562.01
00001307 00000067 812.50 84.09 465.46 649.33 864.40 345.50 1041.68 320.14 886.92 427.29 879.27 580.66 1005.99 562.14
00001308 00000068 813.01 86.63 464.58 651.84 862.76 346.30 1039.72 320.46 884.74 428.86 879.88 583.32 1008.68 564.23
00001309 00000069 812.75 87.19 464.66 650.67 862.08 345.59 1039.61 320.36 884.03 428.67 878.83 582.10 1009.89 563.46
00001310 00000070 813.47 87.69 464.18 650.95 862.31 345.52 1039.33 320.05 882.80 427.88 879.46 580.74 1012.93 561.78
00001311 00000071 814.22 87.40 463.35 650.29 862.55 345.90 1039.14 320.16 882.39 428.44 879.94 580.39 1013.37 561.23
00001312 00000072 814.67 86.12 463.32 650.98 861.68 346.45 1039.01 320.12 881.95 429.24 879.00 581.86 1012.26 562.26
00001313 00000073 814.27 86.11 463.68 651.84 861.45 346.01 1039.42 320.08 881.63 429.23 878.55 581.97 1012.25 562.70
00001314 00000074 812.98 87.67 463.54 647.42 861.90 345.51 1039.39 319.46 884.68 428.20 879.50 580.67 1011.55 561.34
00001315 00000075 812.93 87.67 462.76 648.73 861.84 345.38 1039.19 318.49 884.79 428.37 880.04 582.32 1010.95 562.33
00001316 00000076 813.76 88.25 462.06 650.08 862.26 345.72 1039.30 318.64 884.20 427.35 880.44 582.40 1012.38 562.11
00001317 00000077 815.69 88.83 462.47 647.74 863.74 345.29 1040.54 318.88 884.70 427.79 880.87 581.05 1013.26 561.38
00001318 00000078 816.88 88.90 462.65 650.43 864.45 346.64 1041.19 318.96 884.46 426.77 882.20 581.46 1016.70 560.66
00001319 00000079 817.16 95.59 465.60 644.83 865.02 351.88 1040.43 321.94 886.09 428.91 883.76 582.72 1019.17 559.78
00001320 00000080 818.67 94.18 465.72 643.43 864.82 360.57 1039.09 325.23 883.86 430.67 886.73 585.55 1022.02 558.25
00001321 00000081 820.39 91.69 463.58 638.68 864.70 357.22 1041.08 325.18 885.87 430.67 883.65 581.72 1022.47 557.25
00001322 00000082 821.53 87.44 462.24 639.08 867.04 349.39 1044.40 323.26 887.89 429.72 881.97 576.74 1023.67 557.09
00001323 00000083 821.55 83.37 462.31 641.27 867.85 346.89 1047.27 320.76 892.03 429.02 882.78 575.28 1027.15 555.64
00001324 00000084 823.58 81.83 459.69 639.50 870.01 344.17 1048.63 320.80 892.96 428.48 883.56 572.66 1028.66 555.28
00001325 00000085 824.49 80.23 458.63 639.37 871.31 343.64 1051.25 320.95 895.29 428.14 884.55 572.52 1030.03 555.75
00001326 00000086 824.51 79.45 458.48 638.31 872.09 343.18 1052.98 320.66 897.83 427.55 885.43 572.03 1031.63 555.36
00001327 00000087 824.41 78.78 459.63 637.78 872.51 342.94 1055.39 320.92 899.09 426.85 884.99 571.87 1033.00 555.65
00001328 00000088 824.52 79.38 460.12 637.46 872.84 340.80 1059.06 320.31 902.32 426.63 884.96 570.88 1036.63 555.85
00001329 00000089 824.14 78.44 461.59 638.22 873.37 340.00 1060.34 319.69 904.11 426.92 885.69 570.65 1038.28 555.76
00001330 00000090 983.07 61.41 393.20 556.22 1030.81 272.22 1195.20 273.03 1053.83 361.41 1023.15 491.18 1131.53 493.05
00001331 00000091 983.12 62.04 393.80 555.71 1030.75 271.89 1195.00 273.08 1053.98 362.27 1023.57 491.17 1131.86 493.31
00001332 00000092 982.98 63.03 394.37 555.45 1031.39 272.38 1194.85 275.43 1054.30 364.14 1024.05 490.46 1132.39 493.89
00001333 00000093 982.08 69.01 395.68 549.26 1029.39 280.18 1190.88 278.52 1052.02 364.07 1025.55 492.50 1132.44 491.77
00001334 00000094 981.84 68.25 395.50 552.21 1028.96 281.92 1190.52 279.53 1052.19 365.05 1025.84 494.31 1133.06 492.98
00001335 00000095 981.87 68.36 394.92 552.23 1030.12 277.05 1190.05 278.65 1051.14 366.65 1025.26 493.45 1131.21 495.35
00001336 00000096 982.23 67.73 395.37 552.99 1029.55 273.90 1191.63 275.56 1052.53 366.71 1024.92 493.16 1133.03 495.24
00001337 00000097 982.05 67.39 395.96 553.98 1029.49 273.03 1192.47 275.61 1052.28 367.24 1024.69 493.14 1133.73 495.99
00001338 00000098 982.29 66.16 394.53 554.69 1028.84 272.39 1192.09 275.06 1052.32 367.54 1024.84 493.36 1134.43 496.25
00001339 00000099 982.14 65.55 394.20 555.74 1028.24 272.00 1192.22 274.20 1052.27 367.45 1024.74 493.90 1133.89 496.43
00001340 00000100 982.30 65.17 394.28 553.68 1028.06 271.53 1192.18 273.73 1052.91 367.54 1025.53 493.92 1134.06 496.41
00001341 00000101 982.29 64.78 394.40 553.14 1027.93 270.73 1192.04 273.26 1052.81 366.71 1024.99 492.91 1133.48 495.63
00001342 00000102 982.12 63.65 394.20 554.88 1028.15 270.80 1192.33 272.54 1053.16 365.46 1024.98 492.87 1133.92 495.06
00001343 00000103 982.87 65.59 394.05 552.19 1028.90 270.54 1192.85 271.63 1053.37 364.17 1025.23 492.16 1134.32 493.88
00001344 00000104 983.69 64.90 393.24 550.72 1029.24 270.41 1193.22 273.00 1053.58 364.71 1024.71 490.91 1133.93 493.90
00001345 00000105 984.09 69.60 394.95 546.38 1027.61 278.85 1191.60 276.31 1050.88 363.24 1025.75 492.61 1136.03 491.16
00001346 00000106 984.52 70.10 395.46 545.27 1027.56 278.61 1192.10 275.45 1051.49 362.08 1025.75 492.18 1136.89 490.23
00001347 00000107 984.76 68.97 392.29 545.27 1029.78 276.29 1190.09 274.99 1051.10 361.41 1026.41 490.27 1135.93 489.77
00001348 00000108 984.65 64.76 392.35 548.30 1029.62 272.08 1191.70 271.35 1052.37 359.77 1025.91 488.37 1136.16 488.59
00001349 00000109 982.20 63.02 395.05 551.01 1028.64 270.54 1192.99 269.84 1052.14 358.34 1024.32 487.53 1136.93 488.01
00001350 00000110 981.62 60.56 395.13 553.20 1028.51 269.51 1193.51 270.03 1052.44 359.09 1023.97 487.08 1137.37 488.61
00001351 00000111 981.19 63.69 395.75 549.15 1027.49 268.30 1191.96 269.21 1051.44 360.26 1024.71 486.71 1137.71 488.37
00001352 00000112 980.38 65.01 395.83 548.42 1027.10 267.49 1191.59 269.24 1051.07 361.20 1024.95 486.45 1137.96 488.70
00001353 00000113 980.44 67.09 395.92 547.08 1026.67 266.97 1190.74 269.02 1050.56 361.73 1024.94 486.58 1138.66 488.96
00001354 00000114 980.03 66.88 396.47 547.66 1026.28 266.76 1191.25 268.69 1050.92 361.85 1024.50 486.60 1139.37 488.91
00001355 00000115 980.37 69.36 395.87 545.02 1025.85 266.66 1190.76 268.22 1050.57 361.71 1024.65 486.85 1139.15 488.75
00001356 00000116 980.60 67.67 395.91 547.09 1026.03 266.60 1190.79 268.62 1050.41 362.31 1024.27 486.85 1139.33 489.19
00001357 00000117 981.21 68.85 395.14 546.31 1026.47 265.97 1191.14 268.68 1050.76 362.91 1024.62 486.90 1139.59 489.73
00001358 00000118 980.76 67.37 395.78 547.57 1026.39 265.33 1191.62 268.34 1051.39 363.44 1024.81 486.94 1139.97 490.02
00001359 00000119 981.56 66.40 395.34 548.95 1026.49 265.19 1192.00 268.27 1051.49 363.52 1024.26 487.13 1140.15 490.34
00001360 00000120 981.15 67.21 396.34 547.50 1026.08 265.27 1191.82 268.19 1051.38 363.56 1024.30 487.24 1140.41 490.26
00001361 00000121 981.60 67.50 396.00 546.99 1026.48 264.89 1191.97 268.39 1051.80 364.05 1024.28 487.10 1140.33 490.61
00001362 00000122 981.88 67.27 395.59 547.16 1026.10 265.15 1191.76 268.45 1051.64 364.10 1024.16 487.43 1141.18 490.71
00001363 00000123 981.88 67.68 396.00 546.76 1026.16 265.32 1191.34 268.71 1051.74 364.66 1024.41 487.29 1141.34 490.63
00001364 00000124 983.45 69.51 395.22 544.74 1026.14 269.69 1191.74 273.13 1051.27 366.21 1024.17 488.24 1141.47 491.49
00001365 00000125 982.86 71.41 398.34 544.93 1025.12 276.92 1191.31 274.60 1049.68 363.85 1025.21 491.09 1142.21 489.61
00001366 00000126 984.15 69.36 396.10 546.25 1025.58 274.30 1190.86 273.72 1049.10 362.95 1024.18 489.92 1141.98 489.96
00001367 00000127 983.35 68.53 395.83 546.43 1027.05 271.45 1190.15 272.75 1050.16 363.55 1024.78 488.68 1140.76 490.32
00001368 00000128 983.72 68.94 395.44 545.24 1028.03 269.39 1192.21 271.73 1051.69 363.15 1024.93 488.39 1141.31 491.04
00001369 00000129 984.44 66.27 395.45 547.05 1028.43 268.18 1193.63 270.76 1052.36 362.35 1024.65 488.04 1141.87 491.06
00001370 00000130 985.65 65.56 395.42 548.63 1028.49 267.29 1194.33 269.98 1052.25 362.04 1024.56 487.97 1142.33 491.08
00001371 00000131 986.75 64.62 393.74 549.53 1029.50 266.22 1195.36 269.51 1053.29 361.78 1025.51 487.51 1143.81 491.09
00001372 00000132 987.33 66.54 393.39 547.16 1030.09 266.45 1196.00 269.76 1054.16 361.79 1026.11 487.03 1144.30 490.62
00001373 00000133 989.29 64.71 392.28 549.62 1030.98 266.16 1196.74 269.77 1055.52 361.35 1027.11 487.17 1144.67 491.06
00001374 00000134 989.08 63.57 392.15 550.90 1031.27 266.45 1197.23 270.30 1056.06 361.23 1026.97 486.77 1145.56 490.94
00001375 00000135 990.13 63.17 390.54 550.72 1032.15 264.83 1199.21 269.09 1057.70 359.88 1026.78 485.85 1145.01 490.35
00001376 00000136 990.12 63.81 391.35 550.85 1032.55 264.80 1199.59 269.33 1058.29 360.25 1027.19 485.18 1146.36 489.89
00001377 00000137 990.48 63.56 391.26 550.77 1032.67 264.76 1199.94 269.56 1058.71 360.35 1027.33 485.38 1146.82 490.33
00001378 00000138 990.97 63.54 392.00 551.33 1032.47 264.79 1200.30 270.13 1058.45 360.87 1027.07 485.60 1148.44 490.96
00001379 00000139 990.87 62.75 392.73 553.06 1032.41 265.24 1201.48 270.61 1059.27 361.67 1027.44 485.98 1149.01 491.38
00001380 00000140 990.33 62.98 394.11 555.24 1032.33 265.83 1202.48 271.15 1059.52 362.15 1027.98 486.58 1151.04 491.87
00001381 00000141 990.09 63.87 393.99 557.18 1033.10 266.64 1203.10 271.62 1059.92 361.86 1028.65 487.08 1152.07 492.09
00001382 00000142 989.90 62.37 394.89 561.74 1033.91 267.49 1203.62 272.47 1060.07 362.01 1029.40 486.94 1153.65 492.07
00001383 00000143 990.37 62.51 394.88 562.36 1034.20 267.58 1204.23 271.74 1060.81 361.11 1030.22 487.64 1154.22 492.10
00001384 00000144 990.54 62.99 394.85 562.14 1034.84 268.33 1205.33 273.18 1061.58 360.57 1030.63 486.40 1156.07 491.38
00001385 00000145 991.12 65.87 394.97 557.38 1033.60 272.88 1200.28 274.51 1058.09 359.31 1032.53 486.79 1155.89 488.82
00001386 00000146 991.66 64.17 393.80 558.38 1035.33 272.71 1201.46 274.67 1059.12 358.11 1033.34 485.17 1156.85 487.58
00001387 00000147 991.71 59.51 393.71 560.29 1037.28 268.91 1203.55 272.62 1061.18 357.94 1033.69 482.47 1156.78 486.59
00001388 00000148 992.06 59.34 394.20 559.95 1037.51 267.25 1204.58 270.84 1061.91 357.94 1034.41 482.00 1157.25 486.13
00001389 00000149 992.45 61.79 393.26 559.25 1037.43 267.64 1205.51 271.04 1061.94 357.27 1033.78 483.10 1157.70 487.02
00001390 00000150 991.86 61.79 393.68 561.34 1037.02 268.08 1206.13 271.81 1062.56 358.03 1033.32 484.59 1157.18 488.74
00001391 00000151 991.85 63.22 393.26 562.81 1035.51 269.09 1204.52 272.46 1060.83 360.33 1031.69 487.12 1156.64 490.90
00001392 00000152 991.53 63.65 393.19 564.89 1034.42 269.88 1203.70 273.00 1059.94 362.36 1031.42 489.22 1155.73 492.82
00001393 00000153 991.14 64.06 393.32 565.42 1034.36 269.63 1203.81 272.78 1059.96 362.28 1030.93 489.17 1155.89 492.79
00001394 00000154 990.76 62.48 393.97 566.94 1034.42 269.56 1203.94 272.66 1059.49 361.50 1030.61 488.60 1155.95 492.26
00001395 00000155 990.50 62.36 394.00 565.29 1034.43 269.24 1204.56 271.23 1060.01 358.82 1030.46 487.34 1156.25 490.08
00001396 00000156 990.18 59.52 394.65 567.61 1034.43 268.74 1204.46 271.15 1059.73 358.65 1030.14 486.18 1156.37 489.38
00001397 00000157 990.89 61.56 394.59 564.39 1034.73 268.32 1204.46 270.80 1060.10 358.79 1030.93 485.95 1156.03 489.15
00001398 00000158 991.11 60.40 394.66 564.42 1035.23 268.00 1204.39 270.41 1060.64 358.46 1031.77 485.67 1156.16 488.84
00001399 00000159 991.59 59.02 394.19 565.93 1035.71 268.14 1204.97 270.96 1060.69 358.37 1032.17 486.03 1156.64 489.53
00001400 00000160 991.97 59.75 394.94 565.43 1035.95 267.84 1205.05 271.02 1061.09 358.85 1032.54 485.84 1157.07 489.57
00001401 00000161 991.83 62.48 394.37 562.00 1035.81 273.20 1201.20 275.80 1058.91 360.13 1033.68 485.77 1157.47 488.62
00001402 00000162 993.12 61.58 394.94 561.85 1035.47 273.42 1203.32 276.07 1059.14 359.71 1034.80 486.14 1158.87 489.00
00001403 00000163 993.16 57.15 393.77 563.33 1037.25 271.76 1201.64 273.92 1059.12 358.47 1036.01 483.64 1157.84 486.32
00001404 00000164 993.99 54.91 393.76 563.68 1039.62 267.76 1206.50 269.61 1063.19 356.67 1038.38 481.61 1159.80 484.42
00001405 00000165 995.47 49.52 394.04 568.41 1040.53 264.57 1207.61 266.54 1063.32 353.34 1039.08 479.00 1161.43 482.00
00001406 00000166 996.78 48.44 394.27 568.74 1041.80 263.88 1208.60 263.68 1064.77 349.69 1040.59 477.51 1163.12 478.88
00001407 00000167 997.01 47.33 394.14 567.47 1041.93 263.20 1208.48 262.47 1065.01 347.95 1040.91 476.14 1163.57 477.14
