Video ID: 	ITKZqNa2Ics
H: 	1080
W: 	1920
FPS: 	25.0

FRAME INDEX X0 Y0 W H [Landmarks (5 Points)]

00011300 00000000 584.23 174.00 373.16 604.63 718.53 437.07 896.40 424.93 855.93 519.20 755.81 640.81 903.50 631.19
00011301 00000001 581.87 173.62 374.80 602.73 718.61 437.41 894.84 423.34 857.22 517.72 755.95 638.11 903.77 626.84
00011302 00000002 581.56 166.32 374.95 612.78 722.60 436.06 888.91 422.35 861.21 511.42 759.88 633.41 898.22 620.34
00011303 00000003 578.07 166.49 378.90 612.88 722.03 434.95 890.29 421.88 861.61 511.17 759.60 634.05 898.94 621.42
00011304 00000004 572.01 167.70 385.79 615.51 721.62 431.31 888.40 418.21 861.63 510.34 759.23 632.90 897.75 620.49
00011305 00000005 571.17 167.21 387.03 616.08 722.99 430.34 888.28 419.31 862.70 511.40 758.17 631.91 896.71 621.53
00011306 00000006 577.89 168.79 381.04 613.29 723.43 429.94 890.20 418.60 864.44 513.00 758.86 632.15 900.17 621.60
00011307 00000007 584.76 170.72 375.14 611.60 723.73 430.14 892.43 417.08 865.41 512.60 757.42 633.00 901.46 621.07
00011308 00000008 587.67 172.36 371.82 611.34 725.44 429.58 893.76 416.00 867.12 513.71 755.00 632.38 901.05 620.83
00011309 00000009 598.37 178.51 361.11 607.09 723.30 432.48 896.91 417.09 862.36 518.92 749.25 636.20 903.00 624.32
00011310 00000010 602.33 177.71 358.39 605.35 723.32 430.43 899.00 414.57 863.68 517.15 753.18 636.74 906.50 624.80
00011311 00000011 620.73 177.22 343.93 611.45 726.57 424.62 897.13 409.62 858.99 515.43 761.72 643.43 900.00 632.41
00011312 00000012 618.77 176.56 345.93 624.53 728.44 432.27 897.92 405.65 864.25 515.30 752.77 642.60 901.27 623.16
00011313 00000013 612.34 168.22 349.52 634.16 726.57 440.14 897.69 415.24 865.85 517.41 755.33 644.38 905.95 626.11
00011314 DELETE   610.85 168.21 352.33 628.85 726.06 444.09 896.20 417.77 863.38 515.85 758.66 644.09 908.36 623.91
00011315 00000015 588.17 167.43 370.02 625.15 711.37 443.29 892.42 417.40 852.50 513.57 754.47 649.12 908.50 629.81
00011316 00000016 571.31 163.35 385.38 620.46 709.22 434.15 883.58 412.88 854.93 506.36 755.67 640.45 908.09 624.33
00011317 00000017 527.97 168.96 423.42 603.64 709.55 421.82 880.04 405.04 860.94 499.10 762.66 630.60 903.05 617.52
00011318 00000018 537.78 158.73 410.95 617.56 712.81 412.95 869.65 401.50 856.14 491.12 775.65 627.55 888.57 616.12
00011319 00000019 583.81 162.17 367.65 597.82 710.73 415.66 875.85 395.79 851.53 491.23 783.68 633.68 903.54 616.87
00011320 00000020 566.27 158.70 381.62 626.05 715.21 416.96 870.77 393.48 852.19 483.24 771.78 634.09 888.59 613.51
00011321 00000021 563.24 152.45 380.36 617.29 704.70 417.54 868.41 388.55 848.83 489.42 762.38 629.83 891.27 606.22
00011322 00000022 563.30 154.35 380.83 612.02 704.13 419.67 868.56 389.66 848.63 490.50 762.89 628.95 894.02 604.40
00011323 00000023 563.69 155.57 381.42 612.16 703.02 421.80 869.06 389.20 848.91 490.55 763.09 630.97 895.97 604.58
00011324 00000024 561.51 160.25 391.61 621.57 710.44 425.64 870.75 396.30 852.08 489.24 767.63 635.29 895.37 609.44
00011325 00000025 571.23 159.82 381.93 619.73 706.40 433.92 874.56 400.60 851.69 497.81 759.69 639.49 900.53 612.49
00011326 00000026 570.10 165.76 389.90 619.54 714.30 436.99 876.85 402.70 857.62 502.69 763.62 640.18 901.67 611.01
00011327 00000027 571.70 169.00 389.47 613.71 715.13 440.42 880.83 402.34 860.91 509.94 763.47 642.51 905.04 610.61
00011328 00000028 569.79 167.76 393.17 625.41 715.35 441.60 880.83 403.04 864.09 510.26 767.67 649.69 904.45 617.79
00011329 00000029 568.33 166.33 394.92 635.37 714.59 441.67 882.62 403.36 865.66 511.54 769.30 654.25 905.61 622.98
00011330 00000030 569.10 169.36 395.27 641.19 713.39 443.60 882.80 402.04 866.55 513.12 760.46 656.62 905.61 623.30
00011331 00000031 565.50 167.67 400.79 640.18 713.79 444.41 883.00 399.43 869.65 512.93 761.10 653.96 909.35 617.12
00011332 00000032 567.55 165.40 399.45 633.39 717.66 444.19 882.75 397.03 872.65 511.32 765.12 648.81 910.94 609.88
00011333 00000033 568.38 165.00 398.82 622.11 719.19 443.21 882.83 397.97 874.65 509.83 769.66 644.04 913.33 606.34
00011334 00000034 572.27 164.29 393.66 611.60 723.62 443.41 886.23 395.03 880.34 509.17 779.98 643.78 918.88 603.29
00011335 00000035 580.79 171.31 384.40 591.34 722.66 440.79 889.12 386.70 881.23 509.24 787.44 642.43 922.63 598.60
00011336 00000036 593.71 164.50 374.46 598.44 731.83 433.03 894.25 389.18 885.42 508.66 800.79 636.22 941.00 599.19
00011337 00000037 587.83 163.50 381.13 609.32 734.22 444.88 890.69 388.37 891.11 512.30 791.89 646.28 925.06 600.00
00011338 00000038 584.17 165.53 384.22 611.40 732.37 445.10 890.96 387.90 890.24 514.49 792.82 651.45 924.04 604.60
00011339 00000039 587.96 166.97 381.92 612.35 733.29 445.45 893.05 392.54 888.63 514.94 792.46 653.30 923.77 610.28
00011340 00000040 587.10 167.56 383.47 610.40 732.30 444.99 895.12 391.01 890.26 516.28 791.61 652.82 926.97 608.54
00011341 00000041 582.58 167.23 387.39 608.96 729.52 443.94 893.19 389.51 887.22 513.79 789.21 650.27 926.60 605.13
00011342 00000042 582.76 167.08 387.79 608.48 729.39 431.63 899.97 392.30 883.67 513.51 795.95 643.37 942.92 609.74
00011343 00000043 577.56 165.63 394.35 607.59 731.75 439.64 900.22 399.51 881.09 515.79 794.77 642.54 940.94 608.53
00011344 00000044 568.96 165.99 399.81 609.97 726.58 446.11 893.02 398.68 883.61 511.41 788.00 648.14 925.36 608.06
00011345 00000045 565.09 166.50 401.69 609.60 721.62 442.97 886.78 395.15 877.33 509.60 785.14 647.26 920.51 606.51
00011346 00000046 569.31 165.52 395.85 609.86 720.44 441.12 883.70 394.88 873.51 506.33 782.79 644.50 916.94 605.10
00011347 00000047 565.71 164.88 397.66 609.39 717.77 437.96 880.33 396.00 871.25 501.26 778.79 640.39 913.36 604.50
00011348 00000048 567.74 169.44 387.20 595.06 710.95 434.54 877.52 389.68 868.04 499.77 772.28 636.80 909.51 600.54
00011349 00000049 564.28 166.57 387.99 596.95 706.69 430.66 874.23 383.28 866.07 497.86 770.27 635.45 908.09 597.07
00011350 00000050 562.55 161.19 388.00 605.68 703.50 427.30 872.26 379.04 864.95 496.91 766.12 635.05 906.63 596.03
00011351 00000051 555.13 158.28 398.54 615.82 706.07 425.87 869.99 377.80 863.02 494.31 768.02 639.09 903.82 598.00
00011352 00000052 561.10 158.84 391.85 623.62 705.19 425.79 868.33 376.15 861.18 492.48 765.64 642.14 902.34 600.44
00011353 00000053 558.11 157.70 396.00 625.45 704.08 424.68 867.41 376.14 860.64 491.33 764.66 640.44 902.12 599.55
00011354 00000054 556.76 156.65 397.80 619.32 704.84 424.57 869.04 376.93 862.94 492.92 761.43 636.05 901.79 595.41
00011355 00000055 558.67 159.28 391.32 613.83 698.42 421.31 869.04 374.03 861.50 491.80 755.60 629.48 903.89 591.83
00011356 00000056 564.51 158.13 387.22 606.35 700.80 419.70 871.74 372.47 861.21 487.66 762.78 625.82 910.38 587.73
00011357 00000057 566.86 156.64 386.21 601.85 703.76 419.37 874.47 370.22 862.79 485.49 769.06 625.82 911.80 586.12
00011358 00000058 568.52 155.93 384.60 599.75 706.96 419.41 875.01 371.08 862.76 485.55 771.29 623.96 911.53 585.14
00011359 00000059 569.52 156.56 384.04 599.06 707.70 419.80 875.17 372.48 863.81 486.06 771.97 624.76 911.51 586.62
00011360 00000060 566.59 157.21 386.55 599.13 706.93 419.91 875.14 373.96 863.48 486.21 772.81 626.36 910.77 589.44
00011361 00000061 567.91 156.94 384.88 599.41 706.81 419.57 875.68 374.80 862.64 486.41 771.83 626.02 910.53 589.95
00011362 00000062 566.62 157.16 386.73 598.50 706.64 419.44 875.78 373.96 862.26 486.43 772.20 625.99 910.40 589.29
00011363 00000063 568.13 155.55 384.96 599.09 706.96 419.31 875.98 373.15 862.15 486.10 772.18 624.90 910.86 587.73
00011364 00000064 564.62 154.85 388.79 600.62 706.06 419.25 875.55 372.14 862.61 484.80 772.24 624.98 911.23 586.88
00011365 00000065 566.59 154.87 386.84 599.66 706.05 419.63 875.34 372.37 862.18 485.41 772.46 625.32 911.56 587.21
00011366 00000066 567.94 153.44 385.73 600.70 706.59 419.92 875.69 373.68 861.15 485.38 774.34 625.58 912.12 588.22
00011367 00000067 567.99 154.84 386.71 599.31 707.26 419.58 876.33 372.85 862.86 483.51 776.23 624.47 915.32 586.30
00011368 00000068 567.36 154.80 389.42 600.19 708.05 418.55 878.11 374.75 864.88 481.86 776.09 623.50 917.13 587.52
00011369 00000069 568.31 154.68 387.71 603.91 708.64 419.22 877.51 376.47 865.79 483.19 774.23 624.97 914.89 590.24
00011370 00000070 569.83 153.93 385.86 607.00 709.53 420.50 879.14 380.56 865.38 484.29 771.98 625.53 914.21 593.19
00011371 00000071 571.36 156.79 384.46 605.34 710.70 423.46 879.20 389.27 861.83 486.55 768.28 625.82 909.79 598.40
00011372 00000072 563.87 156.64 389.36 608.02 709.33 421.77 878.33 392.94 859.85 487.53 765.45 625.95 904.86 602.56
00011373 00000073 558.09 155.56 391.71 613.87 706.78 418.26 876.53 394.59 855.59 487.59 757.21 623.57 898.92 604.80
00011374 00000074 558.18 155.30 387.94 612.83 707.85 418.17 876.74 395.95 855.15 486.88 754.00 621.19 895.21 603.98
00011375 00000075 557.83 152.97 389.93 612.64 709.42 418.44 878.00 398.64 855.04 487.36 754.26 619.84 894.20 604.34
00011376 00000076 557.31 155.42 390.95 609.04 710.83 419.44 878.92 402.78 855.04 491.71 754.13 620.17 892.85 607.31
00011377 00000077 550.79 156.92 397.00 610.54 710.51 421.84 881.13 409.34 854.89 497.55 751.79 622.80 891.73 612.77
00011378 00000078 553.71 159.66 392.82 615.17 712.02 424.69 883.19 415.29 852.94 506.22 746.51 627.92 887.94 620.66
00011379 00000079 550.70 160.94 396.76 618.22 715.16 425.33 886.51 418.33 853.93 511.64 745.08 630.65 886.15 625.49
00011380 00000080 557.38 164.90 400.16 616.22 724.23 422.88 887.39 422.99 860.48 507.39 756.25 627.14 888.59 625.81
00011381 00000081 556.67 162.91 403.00 618.92 730.87 422.17 889.16 422.97 867.21 504.18 766.38 628.07 892.49 627.15
00011382 00000082 565.28 161.33 397.26 621.34 736.00 423.37 893.73 419.02 874.00 505.60 772.62 629.71 899.15 624.71
00011383 00000083 573.49 162.41 393.53 617.36 739.61 425.03 902.64 419.89 880.79 509.79 772.44 632.94 903.87 627.97
00011384 00000084 581.21 166.95 388.74 616.77 742.51 426.17 906.10 423.54 881.28 514.12 776.50 639.32 903.96 637.03
00011385 00000085 573.12 169.53 401.83 624.67 741.23 430.18 910.96 426.39 883.25 524.01 773.57 647.73 905.91 644.04
00011386 00000086 572.56 171.27 404.35 630.59 742.14 436.71 916.64 435.22 887.78 534.49 767.14 652.66 907.67 651.29
00011387 00000087 583.33 177.62 396.72 624.06 745.93 445.39 919.39 442.25 891.50 540.53 765.33 653.11 911.55 651.47
00011388 00000088 590.54 182.33 392.73 618.06 749.34 451.52 923.53 445.89 894.45 547.16 765.49 654.70 915.95 651.92
00011389 00000089 585.40 185.67 400.14 614.81 751.50 456.66 925.43 451.49 894.96 550.16 767.15 656.58 917.21 653.85
00011390 00000090 589.17 187.72 399.37 610.44 757.91 460.04 931.12 456.25 899.67 552.57 768.61 656.44 916.90 655.14
00011391 00000091 588.77 186.38 399.90 611.55 753.77 459.20 930.96 454.84 897.28 553.50 766.26 656.88 919.09 655.34
00011392 00000092 583.77 185.26 400.65 619.94 751.95 450.55 930.37 451.13 889.46 546.89 768.63 650.11 919.94 651.22
00011393 00000093 583.94 183.30 400.13 619.01 751.93 445.08 930.04 448.02 889.18 544.44 769.10 647.70 919.37 650.74
00011394 00000094 585.24 182.94 398.83 617.17 753.64 443.48 930.02 446.09 890.35 543.19 768.59 645.48 917.99 648.49
00011395 00000095 587.17 181.28 397.43 618.20 753.59 441.27 930.96 443.78 891.85 539.64 766.81 643.95 918.73 646.94
00011396 00000096 586.13 179.23 398.88 621.01 754.15 439.33 931.22 442.85 892.54 538.84 765.18 642.02 917.34 645.90
00011397 00000097 588.05 178.06 397.03 620.26 754.34 436.86 931.82 441.50 892.42 537.04 764.14 639.52 917.65 644.26
00011398 00000098 587.34 177.38 397.14 620.23 754.32 435.92 931.12 439.33 892.60 536.27 764.24 638.35 917.76 642.17
00011399 00000099 586.11 176.23 397.48 620.70 753.36 435.61 930.18 438.95 891.87 535.80 764.05 637.95 917.34 641.60
00011400 00000100 582.17 176.02 399.18 622.34 754.07 434.99 929.08 438.90 891.75 534.77 767.79 639.49 915.68 643.61
00011401 00000101 582.21 176.92 399.94 618.72 758.97 441.04 920.91 440.00 897.27 536.67 774.72 646.75 909.77 646.91
00011402 00000102 586.46 177.70 395.86 624.98 759.19 441.77 919.37 440.34 897.00 532.82 778.38 649.32 911.18 649.09
00011403 00000103 588.42 177.61 393.03 630.37 758.61 441.56 919.20 440.76 894.86 532.78 777.36 651.34 909.75 651.51
00011404 00000104 590.66 178.16 389.90 630.60 758.07 440.81 919.19 439.77 894.94 531.37 779.07 652.30 911.28 652.37
00011405 00000105 590.35 177.45 390.62 631.58 757.74 439.44 919.05 438.11 894.73 528.72 779.87 651.29 912.11 651.13
00011406 00000106 590.76 176.55 390.99 632.72 757.95 438.24 919.37 436.94 894.61 527.37 780.82 651.77 912.07 651.61
00011407 00000107 598.46 178.31 383.49 633.32 758.29 433.80 920.89 435.07 891.69 521.98 779.43 652.29 910.18 655.59
00011408 00000108 595.97 172.65 389.38 633.89 755.37 430.12 920.99 431.19 893.11 518.65 775.92 648.29 911.84 651.09
00011409 00000109 592.60 163.57 398.41 639.83 756.77 421.02 927.07 424.05 891.21 521.69 777.36 642.30 913.81 645.82
00011410 00000110 596.20 161.01 400.80 634.24 762.65 416.02 935.69 423.93 897.51 516.31 779.82 631.66 921.39 638.38
00011411 00000111 598.19 159.28 402.72 629.72 773.51 410.49 942.94 426.78 905.06 508.81 784.85 622.14 921.70 635.74
00011412 00000112 598.73 160.48 408.98 622.91 777.47 409.05 951.39 428.37 911.44 506.70 789.06 619.34 928.66 635.19
00011413 00000113 604.39 160.54 406.79 621.62 783.07 412.02 956.27 431.23 917.16 507.97 791.53 619.08 931.98 635.16
00011414 00000114 609.05 160.92 405.13 621.84 786.70 415.90 959.91 432.65 921.91 511.16 794.74 621.45 935.68 635.86
00011415 00000115 619.99 166.96 405.04 619.02 792.01 412.31 962.37 437.62 923.89 513.13 802.90 617.39 941.03 637.48
00011416 00000116 622.86 172.02 403.29 614.43 795.02 416.37 965.13 439.90 926.11 518.69 801.92 619.64 941.63 638.70
00011417 00000117 622.30 175.73 404.49 615.10 796.29 418.79 966.29 440.86 927.68 522.33 801.06 623.87 940.95 642.12
00011418 00000118 621.89 176.49 406.75 616.37 797.93 420.46 967.60 442.61 928.69 524.95 800.90 625.81 941.88 643.64
00011419 00000119 624.63 175.38 406.27 618.14 798.22 422.58 970.61 444.40 930.28 526.58 799.33 625.69 945.03 643.84
00011420 00000120 625.98 175.84 405.51 618.72 800.09 422.75 972.17 445.01 931.68 528.09 798.97 625.17 946.51 643.69
00011421 00000121 626.44 176.73 405.90 617.46 800.46 422.61 971.98 445.71 931.73 527.60 797.37 622.72 947.05 642.10
00011422 00000122 627.25 175.43 405.49 619.36 801.09 422.38 971.57 444.88 931.57 526.81 798.84 622.38 947.76 641.09
00011423 00000123 628.08 175.24 403.46 625.18 801.28 422.63 970.92 444.81 933.73 524.68 799.81 625.21 947.71 643.51
00011424 00000124 630.58 176.13 400.55 630.77 803.00 423.08 970.38 444.39 935.10 523.36 801.89 627.72 947.03 645.27
00011425 00000125 632.11 174.20 398.78 636.04 802.49 424.14 970.71 444.37 936.20 521.21 805.43 630.68 948.96 647.03
00011426 00000126 633.46 173.14 398.69 632.56 801.83 423.56 973.54 443.51 938.71 517.75 807.09 629.46 954.39 645.80
00011427 00000127 641.42 173.07 390.96 624.66 803.20 422.49 976.02 441.29 940.07 514.47 808.42 623.47 959.11 639.36
00011428 00000128 641.78 172.51 392.72 618.17 803.46 421.04 977.27 440.13 940.89 512.25 809.71 619.04 962.21 634.73
00011429 00000129 650.64 174.15 380.32 610.91 808.34 425.34 984.05 440.63 942.29 515.22 806.03 622.19 960.99 636.08
00011430 00000130 648.83 174.06 383.08 609.48 810.58 422.85 986.40 439.88 945.32 512.52 806.36 618.42 961.97 633.72
00011431 00000131 646.04 177.29 389.38 603.07 814.25 408.08 993.44 433.07 952.28 516.79 804.90 615.53 968.29 636.85
00011432 00000132 645.10 177.98 391.20 602.69 815.35 408.03 994.78 435.46 954.13 516.57 806.27 616.46 967.91 639.95
00011433 00000133 647.58 175.07 387.25 605.70 812.27 422.40 990.64 442.91 947.98 511.32 807.98 617.90 963.65 635.82
00011434 00000134 646.08 178.46 393.26 607.16 815.27 408.75 993.50 436.26 951.15 517.10 806.22 617.47 965.87 640.86
00011435 00000135 646.99 173.34 396.53 615.26 813.11 418.36 984.82 441.08 949.89 513.30 811.30 613.99 966.98 633.09
00011436 00000136 651.13 172.27 393.85 615.92 814.34 418.63 986.82 441.02 951.22 514.36 810.65 613.53 968.69 632.66
00011437 00000137 651.47 171.13 394.52 616.88 814.45 419.78 987.31 441.20 952.46 515.31 810.86 614.56 969.51 633.07
00011438 00000138 653.81 172.77 392.47 614.85 815.73 420.24 987.83 439.93 954.39 515.28 811.73 615.02 969.67 632.42
00011439 00000139 653.45 173.40 393.52 613.64 817.93 421.01 988.64 439.97 956.59 516.36 814.43 615.33 971.37 632.03
00011440 00000140 654.99 175.17 392.07 612.84 818.81 421.81 988.95 441.20 955.97 516.90 814.60 616.05 970.43 633.08
00011441 00000141 653.85 173.52 393.59 614.47 818.29 422.63 988.80 442.07 955.74 517.80 814.64 617.21 970.16 634.20
00011442 00000142 655.11 174.01 392.40 614.35 818.80 423.35 988.63 441.85 956.13 517.89 814.70 617.46 969.89 633.73
00011443 00000143 653.09 175.02 393.73 613.56 818.35 422.54 988.89 441.94 956.56 517.14 814.66 617.22 970.10 634.23
00011444 00000144 651.02 173.84 395.56 614.04 816.97 421.80 988.27 441.71 955.38 517.07 814.39 616.71 969.64 634.09
00011445 00000145 652.46 174.18 392.87 613.62 816.97 421.54 987.99 441.38 955.29 517.38 813.11 615.73 969.33 633.12
00011446 00000146 653.63 173.46 391.77 614.15 815.38 421.31 987.36 441.95 953.42 517.56 812.43 615.93 968.82 633.81
00011447 00000147 652.52 177.75 390.00 613.85 819.32 410.99 996.00 435.86 956.50 522.66 808.13 620.73 966.94 642.41
00011448 00000148 652.42 174.07 391.95 613.87 815.75 420.61 985.68 441.84 951.48 518.00 811.96 615.29 966.54 633.58
00011449 00000149 652.45 173.13 391.55 615.10 816.05 420.71 984.38 441.50 950.33 518.00 813.77 615.51 965.77 633.23
00011450 00000150 647.08 172.54 396.24 615.99 816.13 420.63 982.43 440.97 947.87 519.55 817.27 619.89 961.75 636.78
00011451 00000151 643.46 175.18 396.58 614.76 812.36 422.19 980.21 440.41 945.03 520.64 819.60 627.34 958.92 642.02
00011452 00000152 644.15 174.07 395.73 618.16 811.92 423.07 978.84 440.13 941.28 526.37 819.29 630.22 956.49 643.84
00011453 00000153 642.92 175.29 395.66 619.15 808.64 424.91 976.31 441.56 937.05 527.78 817.28 634.06 953.28 647.09
00011454 00000154 644.36 178.69 394.02 616.27 808.89 427.53 977.45 444.36 937.78 529.47 816.66 635.23 953.95 648.58
00011455 00000155 642.36 179.10 396.22 617.36 810.38 428.58 978.89 446.10 939.32 531.99 817.45 637.01 953.85 650.94
00011456 00000156 643.26 179.75 396.43 616.83 811.66 429.57 981.26 447.78 941.53 536.30 816.16 637.31 954.64 651.97
00011457 00000157 643.02 181.41 396.66 614.43 812.06 430.54 982.22 449.10 942.56 537.07 815.66 636.96 955.61 652.02
00011458 00000158 643.86 182.49 396.53 612.71 812.20 430.49 983.05 449.13 942.97 537.67 814.70 635.94 956.83 651.24
00011459 00000159 642.63 181.35 398.51 614.14 810.62 429.84 982.40 448.70 941.97 537.34 811.36 633.58 957.10 649.18
00011460 00000160 642.67 181.25 398.75 613.98 811.50 429.22 982.63 448.22 942.45 536.75 810.63 631.96 957.63 647.87
00011461 00000161 642.35 180.88 399.72 614.39 811.92 428.31 982.49 447.94 942.49 536.44 809.76 631.13 957.00 647.55
00011462 00000162 640.53 181.85 402.43 614.82 812.81 428.38 983.15 448.05 943.07 536.87 807.49 629.49 957.05 646.13
00011463 00000163 639.64 182.03 403.08 615.87 810.57 428.22 982.93 448.22 941.97 536.19 803.65 628.48 957.20 645.77
00011464 00000164 641.41 183.19 401.18 615.12 809.68 429.18 981.82 448.10 940.92 536.83 801.09 627.98 956.64 644.76
00011465 00000165 641.96 183.78 400.12 615.26 809.19 429.73 982.11 448.60 941.00 536.90 800.79 629.11 956.39 646.00
00011466 00000166 643.67 185.21 398.13 614.59 808.96 431.08 983.35 450.32 942.24 538.27 798.41 629.57 956.86 647.01
00011467 00000167 642.15 185.21 399.51 615.97 809.19 431.62 983.70 450.13 942.70 539.84 797.93 630.78 956.24 647.81
00011468 00000168 641.08 186.11 398.97 615.41 809.77 432.63 983.33 451.37 943.75 541.10 799.12 632.44 955.32 649.71
00011469 00000169 640.10 184.77 394.38 617.36 813.23 445.25 986.11 462.17 940.90 545.53 798.79 639.61 948.79 654.91
00011470 00000170 635.60 187.40 399.26 614.77 815.76 448.82 988.81 464.03 943.47 549.22 799.08 641.29 948.88 655.32
