Video ID: 	qYoFlP2Z50E
H: 	2160
W: 	3840
FPS: 	24.0

FRAME INDEX X0 Y0 W H [Landmarks (5 Points)]

00001315 00000000 2228.21 211.28 825.56 1232.64 2403.18 682.48 2768.75 721.49 2505.24 910.02 2381.42 1066.75 2747.42 1094.29
00001316 00000001 2233.47 205.98 823.31 1230.83 2409.10 666.22 2776.78 710.48 2507.84 894.10 2385.46 1054.08 2755.13 1086.20
00001317 00000002 2238.20 201.85 823.11 1234.51 2415.79 664.11 2781.62 707.68 2515.71 891.33 2393.81 1052.51 2761.93 1084.01
00001318 00000003 2240.10 206.01 824.22 1235.26 2419.69 671.63 2785.86 713.86 2524.42 899.70 2400.19 1056.82 2770.80 1087.08
00001319 00000004 2242.96 211.78 824.31 1235.64 2423.37 684.51 2787.05 723.12 2534.32 913.87 2406.76 1064.15 2776.98 1091.52
00001320 00000005 2244.87 215.53 823.71 1241.00 2426.52 695.58 2788.56 730.59 2540.76 924.76 2411.27 1071.27 2783.04 1095.74
00001321 00000006 2245.01 220.33 822.28 1239.09 2426.79 702.57 2788.53 735.81 2542.11 930.97 2412.96 1075.44 2785.99 1098.58
00001322 00000007 2242.46 222.55 825.34 1244.59 2425.63 706.86 2788.86 738.32 2542.59 934.59 2414.08 1081.62 2789.30 1103.25
00001323 00000008 2264.47 260.01 808.12 1233.01 2437.01 711.86 2801.44 738.59 2573.75 941.39 2431.33 1086.42 2812.06 1103.38
00001324 00000009 2268.27 255.48 817.69 1240.92 2446.92 721.16 2813.96 740.93 2600.46 954.49 2443.74 1097.73 2828.13 1108.99
00001325 DELETE   2270.25 252.40 828.62 1244.14 2470.40 735.67 2836.04 745.14 2644.70 963.11 2480.70 1110.77 2859.01 1114.02
00001326 DELETE   2281.61 253.07 833.43 1252.56 2499.83 755.62 2866.93 759.94 2687.36 980.07 2511.98 1119.52 2898.54 1118.89
00001327 00000012 2289.69 251.84 833.03 1260.05 2533.55 761.04 2889.48 756.70 2735.90 995.55 2544.65 1128.61 2923.06 1121.19
00001328 00000013 2297.17 253.78 831.29 1259.48 2552.79 762.95 2904.76 754.63 2760.38 997.96 2561.04 1128.68 2939.99 1118.45
00001329 00000014 2295.39 255.72 832.07 1263.61 2550.25 766.87 2902.63 759.83 2756.84 1003.73 2557.76 1132.56 2937.72 1123.20
00001330 00000015 2287.58 260.02 834.79 1261.52 2531.67 772.46 2886.77 770.57 2730.20 1011.30 2540.26 1137.56 2918.70 1132.20
00001331 00000016 2283.09 270.47 834.30 1248.87 2503.53 771.62 2867.58 774.88 2692.35 1004.24 2514.86 1134.74 2900.97 1133.63
00001332 00000017 2276.07 273.04 831.25 1246.50 2475.83 764.91 2840.95 767.14 2654.29 1003.70 2489.62 1136.58 2876.42 1133.53
00001333 00000018 2268.84 277.96 827.61 1236.92 2456.53 765.25 2823.74 770.93 2623.21 1000.58 2470.83 1137.00 2857.85 1136.56
00001334 00000019 2270.12 275.71 822.20 1243.71 2448.92 766.28 2813.30 775.99 2602.58 1002.20 2459.38 1137.46 2844.09 1139.93
00001335 00000020 2268.91 277.33 822.32 1239.09 2445.24 767.26 2809.82 777.50 2595.88 1001.73 2457.34 1139.35 2837.29 1142.11
00001336 00000021 2269.18 275.83 822.10 1236.36 2447.41 767.55 2811.92 777.66 2600.13 1002.06 2460.60 1141.24 2835.50 1144.34
00001337 00000022 2268.90 273.78 824.07 1238.87 2454.04 769.97 2816.51 776.97 2611.94 1000.89 2471.14 1150.29 2835.78 1151.44
00001338 00000023 2268.87 272.82 826.15 1242.83 2460.65 771.48 2819.92 776.56 2621.43 998.79 2481.54 1156.04 2837.91 1155.71
00001339 00000024 2268.62 266.88 829.00 1247.13 2464.67 770.51 2827.00 774.31 2631.66 995.76 2489.86 1161.81 2840.95 1160.66
00001340 00000025 2271.07 265.65 829.46 1249.18 2467.36 769.43 2831.70 774.12 2634.69 994.73 2492.30 1164.08 2842.15 1163.70
00001341 00000026 2271.69 266.91 830.15 1245.47 2466.31 768.01 2830.74 773.57 2631.25 994.87 2489.96 1161.36 2840.28 1161.79
00001342 00000027 2273.28 269.73 829.13 1239.35 2463.90 768.42 2826.58 774.00 2624.61 996.48 2486.17 1158.45 2838.73 1158.85
00001343 00000028 2273.90 272.44 828.01 1234.91 2463.27 768.18 2824.61 774.62 2621.92 995.61 2484.72 1157.58 2835.93 1158.79
00001344 00000029 2274.90 274.47 827.17 1232.76 2462.78 766.29 2823.33 772.36 2619.63 993.80 2483.64 1153.85 2836.27 1154.68
00001345 00000030 2276.12 274.68 825.14 1237.74 2463.87 764.33 2821.93 767.60 2621.05 990.58 2486.20 1149.71 2841.16 1147.78
00001346 00000031 2276.56 274.73 824.33 1245.34 2462.99 763.83 2821.74 765.22 2621.38 987.88 2483.36 1146.77 2849.83 1142.78
00001347 00000032 2277.69 272.91 824.91 1255.92 2464.64 761.79 2823.37 763.69 2621.68 987.47 2482.63 1144.88 2854.37 1141.02
00001348 00000033 2278.22 273.64 825.15 1252.15 2465.90 760.63 2825.37 763.24 2622.60 985.26 2483.43 1144.17 2854.27 1141.11
00001349 00000034 2281.56 269.83 824.72 1250.82 2471.07 759.80 2828.92 764.14 2625.18 981.78 2489.42 1147.18 2849.03 1146.22
00001350 00000035 2286.76 263.66 824.31 1245.53 2474.80 760.67 2833.66 768.03 2626.03 981.19 2496.02 1155.15 2837.20 1157.79
00001351 00000036 2291.58 256.69 826.40 1243.60 2479.03 752.12 2840.32 762.27 2630.63 975.67 2503.39 1156.79 2829.42 1162.25
00001352 00000037 2293.68 248.76 825.50 1255.40 2481.31 747.48 2845.88 755.09 2636.34 969.84 2509.78 1162.48 2830.78 1166.26
00001353 00000038 2295.04 244.47 827.35 1275.02 2485.60 745.98 2850.24 754.95 2639.93 975.42 2516.01 1176.28 2830.44 1180.90
00001354 00000039 2294.91 245.90 826.87 1285.22 2489.76 748.87 2851.57 757.20 2642.74 984.55 2520.14 1186.55 2826.66 1190.83
00001355 00000040 2294.14 253.33 828.31 1289.85 2489.43 758.19 2850.70 763.20 2643.43 997.13 2523.03 1200.32 2827.22 1202.23
00001356 00000041 2296.42 257.99 827.05 1300.28 2494.48 769.49 2852.92 776.82 2643.99 1008.55 2525.89 1213.50 2827.28 1217.13
00001357 00000042 2299.20 259.30 826.06 1296.74 2497.56 770.98 2855.14 779.94 2646.76 1008.93 2526.42 1211.92 2828.03 1217.19
00001358 00000043 2301.63 256.78 826.77 1287.71 2498.54 766.21 2857.88 774.72 2648.94 1002.80 2526.34 1204.70 2826.98 1209.87
00001359 00000044 2303.97 251.93 824.45 1284.09 2503.29 757.47 2859.20 771.28 2652.79 994.76 2525.10 1190.48 2829.26 1200.14
00001360 00000045 2305.16 249.12 823.78 1277.92 2502.89 747.68 2864.39 767.24 2651.69 975.30 2514.27 1170.29 2837.58 1184.89
00001361 00000046 2305.62 250.92 827.84 1261.79 2500.87 742.23 2866.75 758.51 2653.50 959.33 2510.47 1146.42 2857.15 1157.35
00001362 00000047 2306.20 247.85 826.13 1266.50 2502.86 741.02 2866.96 754.96 2657.28 956.31 2509.92 1139.64 2867.28 1148.88
00001363 00000048 2306.10 248.00 826.35 1272.69 2503.37 745.55 2867.89 757.96 2659.55 959.85 2511.27 1144.17 2872.06 1152.38
00001364 00000049 2307.40 250.00 825.74 1281.66 2507.00 753.44 2869.97 767.40 2661.19 973.11 2514.06 1155.61 2868.18 1164.91
00001365 00000050 2306.49 254.28 826.16 1294.61 2512.35 768.81 2872.57 779.76 2666.65 1000.03 2526.45 1183.46 2867.40 1190.04
00001366 DELETE   2308.08 265.74 825.36 1295.85 2510.10 791.99 2868.00 795.10 2666.09 1030.63 2540.54 1216.00 2867.51 1216.21
00001367 DELETE   2306.10 289.73 835.79 1305.33 2507.07 827.63 2864.37 822.08 2668.18 1080.35 2557.52 1254.13 2879.40 1246.41
00001368 00000053 2301.49 322.23 834.66 1286.90 2493.27 854.38 2856.13 847.32 2655.26 1113.36 2549.42 1275.19 2877.65 1266.05
00001369 00000054 2297.15 339.67 839.69 1284.21 2487.23 872.84 2852.64 861.17 2652.68 1129.58 2542.70 1285.16 2877.19 1272.36
00001370 00000055 2289.85 350.46 844.47 1272.42 2478.75 879.08 2841.39 866.03 2641.18 1136.02 2531.72 1279.29 2872.03 1265.60
00001371 00000056 2286.51 342.33 840.41 1268.80 2470.60 874.48 2828.51 859.34 2628.25 1128.52 2527.30 1269.63 2868.56 1253.78
00001372 00000057 2284.64 341.54 840.79 1263.71 2465.37 871.54 2823.36 854.83 2622.24 1125.42 2524.00 1261.17 2871.74 1243.79
00001373 00000058 2286.75 339.37 844.03 1256.64 2466.32 863.03 2825.09 848.25 2622.69 1120.45 2524.04 1248.27 2877.35 1232.31
00001374 00000059 2290.42 333.69 847.08 1254.25 2473.64 857.49 2831.96 843.59 2628.47 1114.43 2527.07 1238.36 2882.50 1223.48
00001375 00000060 2294.14 335.97 847.80 1253.91 2479.27 857.95 2837.18 842.67 2634.81 1113.53 2530.55 1237.31 2888.24 1221.34
00001376 00000061 2297.62 334.70 846.13 1260.38 2484.08 854.98 2841.73 839.34 2640.56 1109.29 2532.19 1235.04 2894.28 1218.70
00001377 00000062 2304.23 323.20 841.84 1269.63 2489.87 849.19 2844.59 833.85 2644.76 1101.68 2535.44 1229.28 2897.57 1213.19
00001378 00000063 2309.98 324.00 836.61 1254.97 2493.68 841.90 2849.08 825.11 2647.99 1089.48 2538.91 1224.03 2897.01 1206.82
00001379 00000064 2309.77 327.07 836.15 1241.54 2491.38 830.82 2851.14 813.43 2648.24 1078.01 2536.41 1216.57 2895.96 1199.14
00001380 00000065 2312.41 314.90 837.36 1245.73 2490.17 820.61 2855.32 802.35 2648.91 1061.13 2534.81 1207.67 2899.72 1189.26
00001381 00000066 2316.03 302.39 835.67 1247.12 2495.04 811.67 2858.92 797.47 2652.67 1044.60 2534.75 1197.96 2896.08 1183.13
00001382 00000067 2319.89 299.64 835.03 1240.73 2499.94 804.47 2860.92 794.55 2658.02 1034.14 2534.95 1185.23 2896.62 1174.09
00001383 00000068 2324.99 292.04 835.92 1240.16 2505.40 796.16 2864.72 788.63 2661.59 1027.97 2534.80 1172.33 2897.71 1163.05
00001384 00000069 2330.14 289.23 834.31 1235.32 2508.87 791.61 2870.54 784.32 2665.56 1024.49 2538.57 1169.37 2901.22 1160.50
00001385 00000070 2332.73 290.20 833.81 1227.43 2512.09 787.90 2875.39 780.85 2669.23 1020.24 2542.28 1168.83 2901.32 1160.63
00001386 00000071 2339.58 286.46 829.78 1232.16 2519.41 784.08 2882.20 777.86 2675.56 1015.94 2550.42 1170.93 2902.39 1163.09
00001387 00000072 2348.16 263.65 845.08 1276.26 2514.12 774.53 2888.68 764.68 2671.77 1016.82 2571.03 1185.38 2897.37 1173.18
00001388 00000073 2355.42 263.01 839.59 1276.60 2520.85 776.87 2892.55 767.48 2674.48 1018.76 2577.01 1193.72 2893.00 1182.59
00001389 00000074 2353.93 262.68 832.05 1268.05 2522.13 775.10 2896.79 765.04 2680.67 1018.96 2569.43 1210.52 2896.86 1200.15
00001390 00000075 2349.61 270.69 842.97 1263.73 2528.56 786.07 2897.08 776.72 2673.98 1014.98 2574.56 1211.57 2884.10 1204.80
00001391 00000076 2354.83 266.80 840.57 1262.82 2531.89 784.00 2899.88 776.25 2675.61 1013.79 2576.98 1212.98 2881.99 1207.88
00001392 00000077 2361.58 262.33 836.97 1264.18 2536.61 780.12 2903.73 772.72 2678.78 1009.47 2580.54 1210.90 2884.13 1206.06
00001393 00000078 2365.04 253.22 834.86 1272.90 2538.30 777.07 2907.47 767.06 2683.68 1003.98 2583.61 1207.53 2893.09 1200.37
00001394 00000079 2374.08 248.73 823.80 1279.13 2540.36 770.13 2913.45 759.03 2703.31 1003.90 2592.22 1213.15 2907.24 1202.91
00001395 00000080 2370.28 247.46 829.57 1286.75 2539.48 774.17 2915.69 760.54 2707.29 1008.70 2592.91 1218.08 2910.07 1206.29
00001396 00000081 2368.09 249.98 829.94 1294.19 2543.01 780.08 2909.56 763.85 2708.01 1014.06 2598.88 1223.63 2902.85 1209.98
00001397 00000082 2362.71 266.60 837.02 1294.26 2542.41 793.30 2908.87 773.97 2709.04 1030.83 2601.09 1237.27 2903.28 1221.06
00001398 00000083 2357.03 286.14 842.86 1293.19 2535.20 813.19 2898.86 783.55 2706.95 1058.87 2608.75 1257.93 2909.24 1233.14
00001399 00000084 2342.85 311.47 867.00 1294.31 2520.43 852.20 2882.58 812.32 2685.46 1095.47 2612.40 1278.83 2909.48 1245.07
00001400 00000085 2329.37 344.01 854.74 1289.31 2517.76 873.34 2872.89 834.92 2696.61 1119.37 2602.12 1298.92 2918.57 1268.40
00001401 00000086 2315.63 368.87 859.86 1266.98 2501.97 884.83 2861.70 842.93 2685.51 1136.53 2596.10 1304.25 2918.76 1270.53
00001402 00000087 2314.83 392.09 855.54 1217.58 2498.30 904.63 2854.45 856.54 2685.31 1145.93 2587.22 1301.48 2909.83 1258.51
00001403 00000088 2313.25 389.86 857.79 1212.13 2494.77 902.31 2851.93 851.60 2680.25 1135.26 2583.67 1291.94 2913.36 1246.54
00001404 00000089 2313.58 383.06 856.48 1208.96 2492.52 894.27 2847.26 842.26 2673.09 1124.08 2581.27 1281.07 2911.33 1234.74
00001405 00000090 2314.48 376.87 852.88 1210.90 2492.97 888.13 2847.02 838.13 2671.19 1117.65 2579.14 1272.59 2910.33 1227.65
00001406 00000091 2311.37 373.97 853.80 1215.95 2490.71 887.75 2845.24 838.90 2668.59 1115.36 2576.13 1273.56 2906.14 1229.66
00001407 00000092 2309.19 371.77 852.24 1214.75 2488.06 888.60 2842.33 838.91 2665.99 1116.37 2573.50 1273.23 2903.33 1228.37
00001408 00000093 2310.38 368.67 845.57 1218.07 2488.56 896.11 2839.33 842.91 2663.79 1115.72 2570.45 1272.81 2903.44 1224.62
00001409 00000094 2309.07 359.52 841.07 1226.24 2486.65 897.17 2835.30 841.52 2658.59 1105.91 2569.22 1270.00 2902.58 1219.36
00001410 00000095 2301.86 356.10 846.69 1226.35 2479.90 883.34 2832.06 830.92 2651.51 1100.79 2564.85 1262.52 2894.83 1214.63
00001411 00000096 2291.18 342.16 851.45 1238.69 2476.81 856.69 2823.37 825.59 2636.11 1092.25 2554.18 1251.64 2875.40 1222.13
00001412 00000097 2287.87 327.60 852.03 1241.86 2473.91 848.40 2820.26 814.98 2634.70 1082.44 2553.08 1243.14 2874.62 1211.75
00001413 00000098 2283.74 319.07 852.15 1244.20 2471.33 844.21 2817.64 810.04 2633.01 1078.25 2551.22 1239.88 2871.82 1207.83
00001414 00000099 2284.37 323.64 846.90 1247.02 2473.13 846.22 2817.97 814.68 2633.89 1083.14 2550.24 1243.54 2871.39 1213.70
00001415 00000100 2284.79 331.21 842.06 1243.06 2473.19 848.91 2818.40 819.71 2632.49 1088.66 2547.01 1248.61 2867.22 1220.94
00001416 00000101 2283.36 339.59 840.76 1239.05 2471.07 852.35 2818.05 825.00 2631.71 1097.71 2544.21 1253.05 2865.68 1227.20
00001417 00000102 2287.20 355.18 838.08 1217.10 2464.41 867.96 2818.50 831.56 2641.65 1105.26 2547.12 1257.31 2863.67 1222.09
00001418 00000103 2269.11 344.03 844.22 1226.09 2453.36 853.52 2807.11 826.38 2619.00 1102.54 2535.31 1256.92 2854.92 1231.63
00001419 00000104 2259.53 332.26 848.18 1236.63 2445.14 847.01 2799.75 816.34 2612.05 1093.71 2529.62 1253.08 2851.84 1224.72
00001420 00000105 2256.05 327.60 846.99 1237.96 2440.68 843.74 2792.83 811.21 2606.14 1082.72 2522.92 1247.85 2845.82 1217.94
00001421 00000106 2252.73 320.64 843.56 1241.00 2436.69 838.90 2785.78 807.28 2602.34 1082.45 2512.64 1239.72 2839.43 1210.57
00001422 00000107 2246.15 326.80 842.88 1234.82 2431.17 839.83 2781.13 806.95 2601.97 1085.62 2503.99 1236.82 2838.78 1207.06
00001423 00000108 2239.84 333.45 841.96 1228.42 2424.09 845.38 2774.23 811.84 2597.26 1091.23 2495.45 1236.18 2835.16 1206.31
00001424 00000109 2227.65 334.37 844.86 1228.09 2417.97 847.49 2771.87 815.87 2595.45 1095.31 2484.57 1234.32 2829.42 1206.36
00001425 00000110 2223.04 333.55 843.83 1228.13 2413.34 846.67 2769.39 818.67 2590.94 1094.57 2475.88 1232.28 2823.31 1207.19
00001426 00000111 2214.71 337.17 845.55 1227.09 2404.81 845.35 2766.24 820.88 2581.78 1098.48 2462.91 1231.49 2815.76 1209.39
00001427 00000112 2206.90 338.09 848.38 1223.70 2395.31 843.91 2760.83 822.17 2570.93 1095.31 2454.06 1233.38 2803.67 1213.21
00001428 00000113 2194.18 338.86 849.87 1224.72 2381.32 841.33 2746.80 819.31 2554.82 1094.41 2439.62 1231.59 2793.03 1211.09
00001429 00000114 2183.04 335.62 845.84 1226.21 2369.81 841.11 2731.56 821.29 2543.11 1099.32 2428.32 1229.69 2780.68 1210.92
00001430 00000115 2172.41 360.05 841.25 1204.24 2355.48 852.00 2709.96 833.00 2519.40 1107.83 2415.14 1230.55 2758.91 1212.45
00001431 00000116 2157.42 354.49 845.06 1205.02 2341.92 853.39 2697.24 834.33 2504.41 1111.99 2403.47 1230.51 2748.57 1212.22
00001432 00000117 2143.83 350.55 844.52 1205.42 2329.08 855.85 2685.62 836.39 2493.33 1113.71 2393.45 1231.90 2737.61 1213.54
00001433 00000118 2136.79 353.16 841.04 1201.53 2315.21 856.64 2675.26 839.56 2477.93 1116.07 2380.44 1231.99 2727.54 1215.77
00001434 00000119 2128.79 354.37 843.82 1203.06 2307.17 858.09 2668.14 840.65 2470.30 1116.02 2374.38 1233.44 2722.55 1216.84
00001435 00000120 2123.87 351.63 847.97 1205.94 2302.03 854.57 2661.15 836.75 2463.46 1112.76 2368.95 1230.63 2717.58 1213.48
00001436 00000121 2119.95 350.36 848.95 1205.82 2297.61 855.48 2657.14 834.82 2459.57 1112.69 2365.22 1230.41 2716.41 1211.06
00001437 00000122 2117.63 353.19 845.77 1203.25 2294.85 859.37 2651.04 837.22 2456.08 1112.60 2360.42 1228.79 2713.52 1208.12
00001438 00000123 2121.53 347.86 837.38 1205.28 2298.32 873.34 2655.71 849.72 2460.13 1108.18 2359.30 1226.93 2715.34 1204.96
CROP_BBOX: 1637 0 3729 1994
