Video ID: 	YINZhpfbdSs
H: 	1080
W: 	1920
FPS: 	25.0

FRAME INDEX X0 Y0 W H [Landmarks (5 Points)]

00034044 00000000 554.69 148.44 397.18 557.35 709.95 336.48 886.64 361.45 818.44 429.42 720.81 540.84 856.24 559.79
00034045 DELETE   559.39 145.37 397.47 559.74 719.05 335.54 893.61 362.95 827.95 429.26 725.89 541.15 858.95 562.55
00034046 DELETE   560.31 146.58 399.05 556.59 720.76 336.38 895.88 362.59 831.03 434.79 728.87 543.18 861.89 563.31
00034047 00000003 562.94 146.91 399.36 564.11 722.53 343.81 898.59 369.23 836.69 443.81 730.10 551.18 865.49 571.08
00034048 00000004 563.37 152.32 398.76 566.64 725.54 349.16 901.37 374.74 839.56 456.23 729.79 560.11 859.60 580.71
00034049 00000005 563.58 155.21 399.38 571.35 725.43 355.24 900.79 381.86 838.19 460.44 727.95 564.30 859.64 585.91
00034050 00000006 561.26 154.47 402.37 582.51 727.17 357.63 896.44 382.87 836.93 468.45 726.29 569.54 854.29 590.03
00034051 00000007 558.64 152.96 404.17 585.69 724.17 355.93 894.72 380.95 833.21 473.19 723.96 572.77 848.68 592.88
00034052 00000008 557.44 152.26 403.43 588.40 721.41 354.55 895.65 379.65 832.21 478.49 721.84 576.10 849.09 595.96
00034053 00000009 558.19 152.05 399.72 576.84 717.08 356.71 896.94 378.64 833.53 478.42 723.35 576.40 856.98 593.77
00034054 00000010 556.61 152.04 395.09 570.08 715.42 353.32 894.62 376.66 828.31 478.20 721.07 573.07 850.49 591.52
00034055 00000011 550.52 147.58 398.38 584.90 710.57 352.88 886.99 375.78 821.60 480.57 711.08 571.47 844.17 589.00
00034056 00000012 547.66 151.87 400.11 588.30 705.51 353.64 881.37 377.01 814.11 481.94 705.19 573.37 838.95 591.23
00034057 00000013 544.86 151.14 402.35 595.46 700.17 355.13 876.53 377.53 808.28 484.42 698.59 576.24 835.05 593.37
00034058 00000014 543.99 151.09 400.29 592.60 695.55 353.71 871.76 373.39 803.09 481.44 698.31 575.90 831.30 590.76
00034059 00000015 544.86 153.54 399.14 585.10 694.62 349.50 869.00 368.34 800.50 475.65 698.82 572.07 829.83 586.49
00034060 00000016 543.68 154.17 399.86 579.54 690.71 344.60 868.00 365.60 795.24 468.38 693.83 566.09 827.24 582.50
00034061 00000017 543.55 150.92 396.16 574.91 684.09 341.44 864.42 359.79 790.83 458.29 690.74 559.89 826.74 574.47
00034062 00000018 540.60 149.12 394.40 572.65 678.99 340.58 858.92 358.51 786.66 454.87 685.04 555.64 824.90 570.16
00034063 00000019 537.62 151.16 394.12 571.94 675.14 342.70 854.44 359.68 783.30 456.38 682.84 557.83 821.05 571.80
00034064 00000020 534.83 160.05 391.89 559.82 674.75 343.00 851.51 353.54 788.16 455.58 684.36 559.30 829.21 567.89
00034065 00000021 528.22 155.12 392.25 558.49 666.57 343.85 843.64 352.25 782.91 453.62 678.21 555.74 824.07 562.13
00034066 00000022 522.41 151.59 392.30 564.10 661.49 342.78 838.39 352.56 778.73 450.15 675.50 556.32 818.14 563.57
00034067 00000023 523.06 154.18 392.52 561.71 661.46 344.33 838.08 352.73 780.17 453.81 676.66 558.22 818.82 564.58
00034068 00000024 522.99 153.19 393.21 563.78 661.28 343.69 837.37 351.66 779.11 453.85 676.82 558.12 818.80 564.01
00034069 00000025 522.93 152.39 392.55 563.12 660.99 343.11 837.75 352.49 779.19 453.31 675.23 555.17 820.47 562.11
00034070 00000026 524.77 146.57 390.69 558.30 659.65 340.94 839.43 349.48 778.56 446.37 675.44 548.43 823.53 554.30
00034071 00000027 523.89 147.05 392.46 561.63 658.70 338.88 837.99 346.13 777.73 443.35 672.56 546.27 824.06 551.16
00034072 00000028 524.89 148.70 394.26 567.15 661.87 336.52 837.89 344.08 778.51 442.04 675.16 548.00 824.32 553.27
00034073 00000029 527.59 149.41 393.00 567.55 664.05 335.74 840.79 342.46 780.87 443.10 676.37 548.94 826.43 553.70
00034074 00000030 525.07 149.11 394.18 565.68 662.64 338.19 839.83 347.10 780.77 446.98 676.23 548.94 825.44 555.28
00034075 00000031 523.46 149.14 395.96 567.69 662.27 341.03 841.41 348.20 782.11 454.96 676.84 553.46 827.71 558.33
00034076 00000032 524.78 150.37 394.13 564.43 662.25 342.10 843.18 348.74 783.47 455.29 677.12 553.93 829.80 558.56
00034077 00000033 521.52 153.11 395.04 568.72 663.77 343.85 841.54 352.54 784.86 463.33 676.64 560.36 823.61 566.82
00034078 00000034 521.37 159.04 396.45 566.70 664.40 346.68 843.98 357.32 785.24 466.99 677.85 565.88 822.24 573.48
00034079 00000035 525.67 160.08 396.16 570.95 669.82 349.17 847.29 360.16 787.90 466.22 683.88 568.15 827.49 576.01
00034080 00000036 533.66 153.26 396.46 576.27 677.03 346.14 856.20 363.35 788.82 464.15 685.47 563.69 824.25 577.67
00034081 00000037 538.24 147.40 398.32 577.07 690.62 345.10 865.72 364.47 800.81 464.33 693.77 559.44 830.54 574.75
00034082 00000038 540.00 144.74 402.93 573.72 695.64 347.98 872.06 370.94 804.69 464.03 694.95 551.79 837.77 570.09
00034083 00000039 541.19 147.89 405.61 570.93 698.34 347.78 873.10 371.72 804.54 465.09 695.37 551.90 836.08 570.85
00034084 00000040 543.45 154.72 405.10 566.50 702.07 348.81 876.18 374.42 806.79 470.08 695.54 553.20 838.08 573.62
00034085 00000041 544.75 154.85 404.26 570.53 702.55 346.91 876.20 373.79 806.71 470.70 693.28 555.17 834.55 576.67
00034086 00000042 545.16 149.90 403.13 575.59 700.53 342.49 874.73 368.82 803.88 471.07 690.51 552.81 834.16 573.95
00034087 00000043 547.60 145.94 400.71 577.57 699.27 337.40 875.76 363.15 803.14 465.99 691.63 551.38 833.90 571.72
00034088 00000044 551.16 140.35 399.28 580.64 699.83 332.68 876.39 359.31 802.37 462.77 693.48 550.41 831.44 571.46
00034089 00000045 550.39 142.21 397.13 581.60 696.36 332.29 874.06 358.65 797.13 463.10 689.84 551.86 829.29 572.42
00034090 00000046 547.08 144.32 396.20 581.98 690.13 334.38 866.85 359.60 788.10 464.67 685.02 554.43 821.98 574.16
00034091 00000047 542.15 144.73 394.21 584.91 680.43 341.09 854.44 363.74 777.60 469.97 677.32 559.45 814.12 577.65
00034092 00000048 535.83 146.96 396.06 587.08 672.62 351.09 845.73 374.97 769.43 471.19 669.24 563.56 806.14 583.40
00034093 00000049 532.52 146.82 395.98 590.80 665.40 355.73 836.81 379.34 758.15 474.17 661.62 564.85 797.61 585.03
00034094 00000050 526.72 146.95 396.61 591.69 659.82 349.90 830.73 370.10 750.35 476.96 656.42 567.09 795.93 583.28
00034095 00000051 523.88 152.24 394.43 586.93 654.19 354.29 823.10 374.71 741.38 480.57 649.12 568.70 787.77 585.31
00034096 00000052 523.95 154.82 395.68 588.13 651.30 357.91 821.85 377.58 736.25 484.43 648.34 573.88 787.59 589.59
00034097 00000053 518.50 156.79 397.56 587.92 641.87 359.97 814.47 378.62 725.22 485.44 641.32 576.13 780.48 591.02
00034098 00000054 514.99 159.20 394.96 585.44 631.17 360.50 806.53 377.81 712.09 485.71 631.87 578.05 772.22 592.04
00034099 00000055 510.73 162.24 393.54 583.57 620.93 363.26 798.88 378.66 702.03 484.60 622.17 579.81 765.77 592.18
00034100 00000056 508.95 163.92 394.16 581.49 616.23 362.38 796.55 378.38 697.08 484.96 618.54 577.99 764.15 590.60
00034101 00000057 507.00 164.21 393.80 573.73 611.48 361.01 788.04 377.76 688.95 485.52 611.82 573.05 753.46 586.51
00034102 00000058 500.30 166.28 397.13 566.37 603.71 358.73 781.66 374.18 682.57 483.59 606.50 571.18 746.70 583.54
00034103 00000059 498.12 167.49 398.14 565.96 600.95 358.98 779.59 372.75 680.44 484.12 605.61 572.41 746.10 583.37
00034104 00000060 495.75 167.11 396.78 570.11 599.61 361.06 778.47 374.61 679.86 485.86 606.54 576.94 744.55 587.65
00034105 00000061 490.22 169.52 396.54 573.25 594.04 363.26 774.93 375.06 676.38 488.25 605.38 583.02 742.93 592.20
00034106 00000062 487.16 172.14 398.27 574.77 592.17 365.42 774.42 377.72 674.85 490.72 602.53 585.81 743.24 595.28
00034107 00000063 489.82 171.65 397.67 575.83 596.24 366.48 778.45 377.98 680.30 489.74 605.68 586.63 746.81 595.49
00034108 00000064 491.49 171.28 398.53 575.44 599.34 367.38 780.76 378.32 684.08 488.39 608.64 585.56 750.96 593.90
00034109 00000065 493.18 169.92 398.93 576.15 602.27 367.86 782.36 378.28 687.16 486.85 611.98 583.63 754.81 591.39
00034110 00000066 491.88 169.35 399.99 578.32 602.23 367.92 781.89 378.10 687.72 486.45 611.92 583.66 756.26 591.12
00034111 00000067 491.98 167.75 399.70 579.69 602.16 368.63 782.63 378.25 688.52 487.55 612.27 584.69 756.69 591.66
00034112 00000068 497.33 168.37 396.77 580.43 607.32 368.95 786.64 378.99 692.96 485.89 615.12 583.75 761.14 591.18
00034113 00000069 500.31 165.59 395.37 578.80 609.92 364.24 786.84 375.56 694.40 481.30 617.49 579.49 759.38 588.00
00034114 00000070 500.04 164.02 396.72 577.67 610.65 357.79 787.62 371.31 694.20 476.89 617.65 574.75 757.50 584.69
00034115 00000071 500.18 162.44 395.89 579.89 610.46 357.96 787.74 371.23 694.40 477.07 617.42 575.41 757.69 585.17
00034116 00000072 500.51 164.21 395.14 579.54 611.05 360.70 787.59 373.78 694.12 480.75 617.23 577.45 757.85 587.21
00034117 00000073 498.61 162.84 395.63 580.53 609.64 360.43 787.11 373.91 694.03 480.29 616.45 577.42 757.00 587.43
00034118 00000074 496.73 162.19 396.40 579.94 608.57 357.76 785.11 371.71 692.42 479.31 615.50 576.07 754.41 586.32
00034119 00000075 494.90 162.41 396.85 578.45 607.37 356.59 784.07 371.24 691.71 479.84 614.45 574.84 752.24 585.61
00034120 00000076 494.21 162.71 398.12 574.66 605.38 359.23 783.13 373.63 691.92 480.35 613.18 573.53 753.16 584.34
00034121 00000077 498.35 162.33 397.97 571.52 607.49 355.58 785.82 369.76 692.95 474.00 614.27 569.30 755.59 580.05
00034122 00000078 501.82 158.11 395.00 570.37 608.01 352.65 785.85 366.87 691.58 469.50 612.84 564.37 753.55 575.60
00034123 00000079 497.90 158.20 396.65 570.30 604.97 351.82 783.78 366.34 690.02 472.08 610.77 564.34 751.14 575.75
00034124 00000080 495.91 161.50 397.90 572.20 605.29 356.08 783.38 370.16 690.41 477.51 612.70 569.77 751.63 580.33
00034125 00000081 493.21 160.53 398.21 576.69 603.72 361.10 781.08 374.32 690.73 481.45 612.76 573.84 752.15 583.78
00034126 00000082 487.99 161.80 399.39 573.89 599.45 359.40 776.72 373.64 686.10 483.08 608.95 572.05 746.86 582.88
00034127 00000083 488.09 162.24 399.38 572.26 598.94 358.26 777.50 372.37 686.77 481.84 609.83 571.57 747.43 582.23
00034128 00000084 491.73 160.17 397.09 572.55 600.43 354.20 778.50 369.49 687.45 476.53 609.89 568.31 747.11 580.01
00034129 00000085 491.91 157.44 397.22 573.55 599.79 346.92 778.27 362.17 686.33 469.76 609.83 564.80 746.67 576.47
00034130 00000086 498.94 152.00 393.59 579.76 605.29 346.46 782.08 360.56 688.28 464.67 613.89 565.24 748.88 576.20
00034131 00000087 498.81 150.08 395.25 584.03 605.27 347.87 782.95 361.52 689.32 464.86 613.52 566.44 751.21 576.90
00034132 00000088 494.93 145.29 395.72 585.25 600.67 348.68 782.19 362.73 689.46 466.37 610.86 565.52 750.21 576.43
00034133 00000089 492.52 146.52 396.90 579.36 598.87 348.74 779.97 362.88 689.04 466.19 611.18 561.67 752.48 572.58
00034134 00000090 491.32 146.96 398.01 580.45 598.63 348.90 779.94 363.55 690.00 469.23 611.48 563.12 751.91 574.45
00034135 00000091 489.70 147.96 399.17 583.71 597.37 351.43 777.50 365.49 689.20 474.82 610.51 566.77 750.04 577.38
00034136 00000092 490.35 148.57 398.09 590.18 598.64 351.35 777.89 364.52 688.76 477.53 611.58 570.80 749.76 580.29
00034137 00000093 488.48 150.32 396.88 587.07 598.24 351.72 776.86 365.00 689.71 477.58 612.17 572.23 748.38 582.17
00034138 00000094 486.14 150.36 398.52 583.16 597.94 351.12 776.91 365.25 690.66 473.94 611.97 568.39 748.57 579.15
00034139 00000095 491.63 148.39 396.17 583.43 603.98 351.22 781.13 364.55 696.81 468.59 616.49 565.13 753.75 575.22
00034140 00000096 497.63 145.71 391.34 580.31 608.65 351.48 784.73 363.52 700.87 464.30 621.02 562.16 756.19 571.53
00034141 00000097 499.04 139.07 392.09 583.59 617.44 352.50 788.63 363.09 709.81 461.98 630.92 558.72 765.04 566.79
00034142 00000098 497.54 131.76 392.42 591.15 619.26 350.18 790.04 361.01 713.23 461.76 632.69 558.46 766.39 566.46
00034143 00000099 497.28 133.47 393.69 592.90 620.73 350.40 790.80 359.97 716.21 462.64 635.55 560.89 768.74 567.80
00034144 00000100 500.85 134.00 394.11 589.31 627.23 350.08 797.15 361.93 723.11 460.16 640.18 559.79 773.54 568.59
00034145 00000101 501.49 129.36 393.40 583.70 627.69 344.57 800.85 356.69 725.12 453.62 639.94 551.87 776.51 560.50
00034146 00000102 499.05 122.12 397.57 584.84 628.31 336.65 804.93 348.92 728.99 442.43 639.80 543.51 780.74 551.72
00034147 00000103 504.01 120.35 395.11 586.88 634.49 335.35 811.43 348.82 736.47 440.27 645.03 543.15 786.60 552.36
00034148 00000104 503.60 120.31 395.11 586.98 633.67 337.96 811.98 351.43 736.41 443.17 645.08 546.35 786.53 555.70
00034149 00000105 503.41 123.32 395.21 590.70 634.80 342.53 811.89 356.56 737.37 450.21 646.27 552.84 785.53 562.94
00034150 00000106 503.52 128.27 393.86 592.05 636.34 347.16 810.19 363.51 738.07 459.34 646.17 559.72 783.10 571.78
00034151 00000107 504.14 129.87 393.25 599.13 638.30 348.98 812.02 364.17 741.69 466.88 648.64 567.18 784.23 578.28
00034152 00000108 502.77 132.37 394.83 597.88 638.66 348.57 811.32 364.61 741.59 464.98 647.78 565.33 783.13 577.07
00034153 00000109 501.71 133.80 393.59 594.31 636.99 346.15 809.57 363.66 737.88 458.43 644.20 560.13 780.55 573.30
00034154 00000110 502.05 131.11 394.56 593.27 638.82 344.33 812.51 361.46 741.38 452.08 646.93 556.03 784.26 568.87
00034155 00000111 502.86 132.49 394.95 584.75 639.02 344.89 813.81 360.48 743.72 449.72 650.09 552.09 789.58 563.48
00034156 00000112 503.08 127.39 396.78 584.25 637.09 345.39 812.95 357.76 743.40 446.61 650.18 548.55 794.25 556.95
00034157 00000113 506.03 128.58 397.22 581.17 641.03 346.26 817.02 358.48 748.63 446.62 652.26 544.95 801.98 553.18
00034158 00000114 505.66 124.93 397.53 578.92 641.62 341.82 817.22 355.17 748.82 443.91 651.37 540.41 800.41 549.65
00034159 00000115 506.18 121.69 395.60 579.82 639.36 336.36 815.13 347.05 745.38 439.72 648.68 535.87 798.87 542.90
00034160 00000116 508.15 126.14 395.05 576.66 641.86 334.30 817.09 342.45 750.04 437.59 655.13 537.30 803.31 542.17
00034161 00000117 506.94 123.23 392.61 576.54 637.37 333.10 812.42 342.26 741.65 433.22 650.71 536.97 794.64 542.91
00034162 00000118 493.47 127.23 397.82 574.36 623.86 326.13 803.52 335.12 728.81 429.47 638.62 533.05 782.74 538.64
00034163 00000119 487.78 130.72 398.37 569.37 613.69 323.53 796.65 326.82 720.06 429.64 634.51 532.17 778.73 532.54
00034164 00000120 486.53 134.93 396.97 565.12 608.00 325.97 792.37 327.05 715.46 433.52 631.82 535.00 775.65 533.17
00034165 00000121 479.69 136.07 396.53 560.70 600.20 322.27 783.05 323.01 705.63 428.99 628.33 530.38 769.32 528.39
00034166 00000122 475.61 134.56 397.13 563.69 595.51 317.60 774.46 319.36 699.21 425.34 622.19 527.43 762.27 526.91
00034167 00000123 476.60 129.94 397.73 567.50 596.78 318.28 774.00 317.84 700.12 422.97 626.10 527.74 763.32 525.31
00034168 00000124 476.40 131.38 398.43 565.58 595.63 317.53 773.57 316.15 698.80 424.50 624.12 525.54 763.82 522.32
00034169 00000125 474.76 127.68 398.80 565.05 594.47 315.52 771.42 312.66 697.81 422.96 624.84 524.13 761.64 519.96
00034170 00000126 475.29 132.15 399.33 563.57 595.24 314.86 771.64 312.63 697.31 423.79 625.36 525.57 760.02 521.80
00034171 00000127 476.17 131.78 398.41 562.99 595.94 315.44 770.64 313.58 696.96 423.74 627.02 526.61 758.49 523.26
00034172 00000128 475.73 131.93 395.77 566.56 591.46 315.37 766.85 314.11 691.90 425.42 623.41 530.15 754.76 527.50
00034173 00000129 470.83 144.38 393.04 560.61 582.30 319.65 757.12 321.22 681.36 432.67 613.05 535.22 746.92 535.37
00034174 00000130 465.72 143.77 392.50 567.11 578.48 326.56 751.11 327.07 678.29 439.01 609.06 540.96 742.47 540.48
00034175 00000131 459.22 141.10 398.44 569.47 575.60 331.04 751.62 321.82 682.82 430.63 603.06 544.98 747.55 536.27
00034176 00000132 457.30 137.62 396.84 572.70 574.10 327.36 750.63 318.93 681.47 424.88 601.70 542.95 745.99 534.93
00034177 00000133 457.68 135.76 396.53 573.07 573.20 325.26 749.88 316.64 680.45 424.88 601.54 541.24 745.88 533.01
00034178 00000134 464.92 135.08 394.11 570.10 575.83 318.61 749.74 317.38 674.54 427.85 608.79 533.96 741.13 532.38
00034179 00000135 466.22 135.81 393.84 566.82 575.95 317.20 750.24 315.65 673.87 425.88 608.89 531.14 742.12 529.16
00034180 00000136 465.88 134.07 393.89 565.69 574.47 315.97 749.92 314.69 672.80 425.04 605.92 528.49 741.83 526.79
00034181 00000137 458.07 116.03 397.76 579.37 573.47 318.93 752.12 322.06 670.31 423.25 601.62 532.94 744.71 536.32
00034182 00000138 459.93 133.58 392.90 567.01 571.61 324.47 750.33 317.39 676.78 422.56 601.60 536.47 746.68 528.97
00034183 00000139 459.13 134.37 396.10 570.86 573.82 326.74 751.87 319.43 681.13 427.55 602.26 541.27 747.32 533.68
00034184 00000140 459.96 139.51 396.67 567.17 575.68 327.66 752.90 321.21 682.48 430.85 602.45 542.25 747.76 535.49
00034185 00000141 460.93 142.42 396.25 561.24 575.29 324.99 754.40 319.13 682.77 428.28 602.30 539.69 748.25 533.37
00034186 00000142 465.57 143.17 392.94 558.29 575.98 316.81 751.83 317.47 675.64 429.46 604.26 531.43 741.49 531.06
00034187 00000143 462.06 139.21 395.23 561.25 575.70 323.57 756.10 318.47 682.78 423.32 600.64 536.07 749.09 530.49
00034188 00000144 462.47 142.41 393.82 554.07 575.11 322.34 755.14 315.72 681.68 420.95 602.51 536.12 747.66 529.02
00034189 00000145 465.54 142.23 392.77 557.42 576.21 315.16 751.35 314.55 674.12 424.81 605.73 529.91 740.81 528.46
00034190 00000146 465.79 143.11 391.51 559.10 575.80 314.38 750.67 314.37 673.98 425.09 604.76 530.97 740.46 530.01
00034191 00000147 460.47 143.10 392.64 558.33 573.02 321.64 751.59 315.26 677.94 419.53 599.48 536.51 744.99 529.86
00034192 00000148 456.97 140.94 393.05 560.61 571.12 322.36 748.00 318.02 674.98 422.77 595.93 533.87 741.82 529.12
00034193 00000149 455.88 138.92 391.85 560.71 567.43 327.83 745.54 322.99 673.07 427.61 591.74 534.42 742.76 529.41
00034194 00000150 453.58 135.85 392.01 559.56 563.82 328.51 743.33 322.76 668.96 428.02 588.77 531.95 741.39 526.13
00034195 00000151 453.35 133.71 389.73 554.29 562.52 324.89 743.23 320.06 666.47 421.12 585.89 524.80 740.69 519.90
00034196 00000152 455.68 131.81 389.71 555.97 565.65 323.04 744.93 318.62 669.72 420.63 590.23 523.14 743.20 518.38
00034197 00000153 459.95 131.06 386.97 556.81 568.42 324.76 748.48 320.10 673.23 422.40 596.05 529.13 744.94 523.94
00034198 00000154 460.09 131.48 388.34 557.05 568.56 324.64 750.99 318.66 677.94 422.79 599.80 529.76 750.58 523.13
00034199 00000155 460.10 136.96 391.84 553.49 570.66 325.76 755.31 319.48 683.18 427.75 601.05 534.40 753.07 527.75
00034200 00000156 470.77 139.05 391.05 559.99 581.61 317.82 758.45 318.28 683.09 433.20 611.69 534.65 746.53 533.95
00034201 00000157 471.65 136.57 392.93 560.25 586.79 315.93 760.80 317.21 686.96 433.01 614.50 530.92 747.52 530.98
00034202 00000158 471.34 134.22 395.33 557.07 589.33 315.38 765.03 316.95 689.57 432.62 615.39 525.79 750.09 525.91
00034203 00000159 467.98 118.79 398.47 566.10 591.98 313.26 767.87 319.67 693.12 429.61 611.64 520.95 758.48 526.63
00034204 00000160 471.52 133.83 397.54 554.43 593.37 313.55 769.34 317.88 694.23 435.36 614.33 522.06 751.19 524.57
00034205 00000161 471.83 133.33 395.66 565.17 590.33 313.97 766.27 319.75 690.91 435.57 614.11 528.66 748.15 532.32
00034206 00000162 472.54 141.69 395.14 559.87 588.72 318.99 767.93 322.56 692.07 443.82 616.07 535.83 751.97 537.19
00034207 00000163 472.82 147.57 393.47 559.02 589.58 321.06 767.17 327.11 692.08 446.35 613.99 539.84 749.43 543.29
00034208 00000164 469.77 147.42 393.43 560.39 587.20 324.47 762.60 329.87 689.06 448.08 612.70 540.96 748.13 543.94
00034209 00000165 467.68 144.85 394.03 563.58 585.02 325.06 759.86 330.25 687.19 448.17 608.96 540.04 747.20 542.95
00034210 00000166 468.13 143.99 393.43 562.27 585.85 320.51 760.70 325.97 687.96 445.23 610.93 537.68 746.09 540.92
00034211 00000167 469.44 139.32 392.70 563.52 587.18 317.59 764.55 323.13 691.44 442.30 613.60 537.88 746.56 541.13
00034212 00000168 470.06 138.25 394.96 559.95 588.90 316.97 768.57 321.72 694.45 442.60 617.88 537.23 751.43 539.34
00034213 00000169 470.93 143.54 393.84 558.05 590.64 324.75 770.92 327.71 696.68 446.46 618.80 543.80 752.96 544.52
00034214 00000170 473.05 148.14 392.46 563.76 593.08 332.62 773.29 336.99 698.94 454.23 621.15 555.50 751.38 557.81
