Video ID: 	bvWZ3LRb4_0
H: 	1080
W: 	1920
FPS: 	25.0

FRAME INDEX X0 Y0 W H [Landmarks (5 Points)]

00002361 00000000 967.94 196.67 416.99 571.62 1079.29 447.11 1274.90 440.15 1182.39 560.88 1112.57 647.08 1265.40 642.33
00002362 00000001 969.34 196.95 416.29 572.65 1081.10 447.44 1275.70 441.44 1183.65 561.81 1113.31 647.30 1264.76 643.56
00002363 00000002 971.06 194.73 416.12 573.71 1082.11 445.83 1276.60 440.95 1183.95 561.73 1113.74 647.65 1264.11 644.56
00002364 00000003 972.47 194.59 416.49 573.90 1083.11 445.28 1277.77 441.82 1184.21 562.71 1113.98 648.00 1263.78 646.05
00002365 00000004 973.99 193.98 418.65 574.22 1085.42 443.83 1279.99 440.73 1186.26 562.31 1116.71 647.71 1265.70 646.03
00002366 DELETE   975.45 197.68 419.35 572.28 1090.28 448.60 1281.85 445.64 1189.41 563.68 1122.05 647.85 1269.04 646.20
00002367 00000006 978.98 199.61 419.34 569.28 1098.83 453.08 1285.19 446.64 1197.83 562.83 1130.79 648.05 1275.84 643.00
00002368 00000007 983.73 197.86 421.47 577.41 1107.42 454.42 1296.26 444.61 1211.63 567.79 1141.34 654.05 1288.33 645.93
00002369 DELETE   986.08 200.98 425.64 581.03 1111.50 455.74 1300.55 445.66 1217.13 570.49 1147.69 658.61 1293.61 650.06
00002370 00000009 985.92 202.34 425.53 577.54 1107.90 457.06 1301.24 448.27 1214.13 574.47 1142.34 657.89 1294.08 650.19
00002371 00000010 986.74 204.98 426.14 576.36 1107.24 459.25 1301.62 452.09 1212.05 578.62 1139.08 658.28 1292.66 652.10
00002372 00000011 988.94 207.88 428.12 583.05 1112.97 463.15 1306.47 455.79 1217.69 583.82 1142.73 662.59 1296.14 656.08
00002373 00000012 993.16 210.05 426.93 583.04 1117.11 465.69 1310.88 457.46 1223.13 586.97 1148.08 667.62 1300.76 660.24
00002374 00000013 1004.80 210.92 421.07 579.52 1114.03 463.91 1311.30 457.03 1223.34 584.67 1147.47 668.52 1308.13 660.84
00002375 00000014 1006.26 214.12 420.23 584.64 1117.77 467.08 1312.25 461.28 1224.78 589.32 1147.52 669.82 1310.28 663.53
00002376 00000015 1007.45 214.83 421.66 588.72 1121.52 470.16 1313.25 463.91 1228.25 591.80 1149.48 670.40 1314.26 663.83
00002377 DELETE   1010.78 218.77 421.79 586.40 1126.69 475.97 1313.80 469.34 1232.42 592.20 1151.91 669.21 1317.21 662.23
00002378 00000017 1015.47 218.12 419.85 585.85 1133.14 475.35 1319.99 470.81 1239.73 595.21 1155.13 666.24 1321.85 661.40
00002379 DELETE   1016.50 211.13 421.52 587.85 1135.34 467.30 1326.72 463.71 1244.89 590.21 1157.14 661.29 1326.26 656.72
00002380 00000019 1022.09 207.83 420.06 587.07 1138.00 464.06 1335.83 459.28 1243.27 578.29 1158.18 649.77 1328.54 647.35
00002381 00000020 1020.92 207.75 420.27 580.86 1136.94 462.60 1336.96 457.83 1242.37 579.48 1156.78 648.23 1327.84 646.03
00002382 00000021 1023.78 214.28 417.96 577.17 1139.08 468.22 1339.11 463.40 1243.30 587.88 1158.94 655.97 1324.39 653.91
00002383 00000022 1026.43 223.17 416.52 573.22 1141.32 478.66 1338.22 472.91 1243.75 600.55 1167.42 671.50 1320.26 668.57
00002384 00000023 1020.89 224.91 416.71 571.90 1134.34 480.15 1328.18 475.68 1242.11 607.99 1171.93 691.07 1316.92 685.66
00002385 00000024 1019.01 228.34 417.52 570.57 1132.33 483.37 1326.04 477.90 1239.76 609.78 1172.20 696.01 1314.63 689.65
00002386 00000025 1018.75 229.89 418.10 569.89 1130.22 486.29 1326.36 480.98 1237.41 614.48 1168.28 696.26 1317.26 690.19
00002387 00000026 1015.90 233.82 421.00 565.29 1127.61 487.75 1326.06 480.98 1236.08 618.15 1165.83 696.76 1317.35 689.62
00002388 00000027 1011.85 235.67 423.47 570.38 1125.26 489.44 1323.39 482.61 1232.43 621.68 1162.22 698.40 1313.91 691.31
00002389 00000028 1010.30 239.01 422.92 567.63 1123.14 491.98 1320.92 484.76 1229.51 623.07 1161.02 699.89 1312.02 692.64
00002390 00000029 1008.78 240.40 424.25 567.72 1122.09 492.99 1320.72 486.05 1227.81 625.05 1159.29 699.45 1312.58 692.50
00002391 00000030 1006.64 241.06 424.46 569.73 1120.62 494.32 1317.94 489.34 1225.04 625.28 1158.91 703.69 1305.86 698.16
00002392 00000031 1006.28 243.79 422.38 578.11 1121.52 495.78 1316.55 492.83 1223.98 626.69 1158.88 711.77 1299.13 708.45
00002393 00000032 1006.90 242.13 420.69 579.54 1121.70 501.79 1314.17 497.23 1223.67 625.90 1159.34 714.07 1297.88 709.49
00002394 00000033 1006.58 237.70 422.39 580.82 1122.37 497.50 1315.54 493.87 1225.09 622.12 1158.30 709.30 1299.12 705.15
00002395 DELETE   1005.75 237.09 423.61 575.83 1121.06 491.66 1318.63 489.07 1225.47 622.09 1155.28 703.07 1302.81 699.41
00002396 00000035 1006.44 237.60 423.95 571.09 1122.19 490.28 1319.63 488.67 1225.73 622.25 1154.00 699.08 1304.71 696.20
00002397 00000036 1007.15 239.43 424.10 570.80 1123.08 490.78 1321.25 489.56 1226.32 623.92 1152.71 698.07 1306.13 695.84
00002398 00000037 1007.10 239.80 425.90 573.23 1125.17 493.64 1322.92 492.10 1228.65 626.47 1153.45 698.55 1308.42 696.34
00002399 00000038 1009.56 242.78 423.36 574.83 1127.79 497.79 1324.39 497.32 1230.07 629.59 1152.64 700.04 1309.42 699.08
00002400 00000039 1010.82 246.53 422.90 572.17 1129.69 502.24 1325.49 502.49 1229.96 632.59 1150.95 699.65 1310.14 699.67
00002401 00000040 1011.98 249.35 421.39 570.74 1129.56 504.88 1324.78 506.59 1227.89 635.87 1150.23 702.12 1308.22 703.48
00002402 00000041 1011.35 251.04 421.98 567.66 1128.10 505.66 1323.58 507.01 1225.73 635.77 1152.16 705.84 1304.73 706.58
00002403 00000042 1011.62 252.89 422.75 563.64 1127.99 506.08 1322.53 506.93 1225.23 636.25 1155.45 707.76 1303.12 707.85
00002404 00000043 1011.88 253.85 421.45 563.18 1127.11 507.60 1321.66 508.15 1223.95 637.01 1155.30 709.97 1301.88 709.77
00002405 00000044 1010.37 253.73 422.73 562.84 1126.34 506.88 1320.00 507.11 1223.25 635.90 1154.62 708.91 1299.93 708.58
00002406 00000045 1011.14 252.91 422.96 563.08 1126.34 507.42 1320.36 507.49 1223.00 636.62 1155.26 709.55 1300.74 708.99
00002407 00000046 1008.78 255.10 424.46 559.87 1124.88 512.36 1317.18 509.43 1222.66 636.76 1156.86 711.77 1299.19 708.53
00002408 00000047 1009.74 252.93 423.43 560.04 1125.70 511.83 1318.09 509.12 1223.90 636.50 1157.41 711.47 1299.36 708.48
00002409 DELETE   1014.43 249.96 421.64 564.50 1130.89 507.93 1326.59 506.20 1231.26 637.61 1160.03 710.05 1307.81 708.01
00002410 00000049 1021.92 250.68 419.04 564.62 1139.56 507.99 1332.71 506.30 1241.05 639.00 1168.34 710.11 1314.46 708.15
00002411 00000050 1028.84 257.93 415.94 555.54 1151.49 504.07 1344.38 504.48 1252.11 631.72 1168.08 705.65 1317.91 707.58
00002412 00000051 1030.69 258.30 416.07 558.16 1152.47 504.83 1345.27 506.00 1251.98 631.77 1167.37 704.37 1319.32 706.72
00002413 00000052 1029.15 257.63 417.42 561.69 1149.50 504.60 1343.93 507.56 1248.32 633.27 1160.86 703.88 1315.96 707.87
00002414 00000053 1026.83 260.28 417.82 560.40 1146.05 502.73 1341.73 509.34 1242.22 632.96 1153.59 701.76 1309.63 708.84
00002415 DELETE   1021.62 256.59 420.65 565.84 1135.53 511.02 1328.84 515.92 1229.49 639.47 1151.70 704.32 1306.26 708.18
00002416 DELETE   1016.15 260.16 422.48 558.38 1130.40 513.30 1323.47 518.92 1221.64 641.00 1146.66 704.54 1298.84 708.85
00002417 DELETE   1013.45 263.63 420.35 555.55 1124.57 510.70 1318.42 520.58 1212.14 642.27 1139.70 703.99 1292.22 711.78
00002418 00000057 1011.55 263.87 418.00 554.76 1120.99 508.55 1310.99 518.57 1206.79 640.26 1138.84 703.31 1287.58 711.28
00002419 00000058 1008.13 262.79 416.50 551.01 1115.52 505.96 1304.81 513.23 1203.34 635.46 1140.35 703.28 1285.17 708.83
00002420 00000059 1007.06 259.56 415.41 547.46 1112.25 502.92 1301.53 507.92 1200.89 630.04 1140.17 701.54 1284.01 705.22
00002421 00000060 1003.10 258.00 416.63 545.79 1107.61 498.29 1296.19 503.86 1196.30 624.80 1135.47 695.66 1279.34 699.74
00002422 00000061 1000.70 255.82 418.23 543.24 1103.08 493.24 1292.99 498.45 1192.69 616.77 1132.25 689.46 1278.80 693.13
00002423 00000062 998.57 255.32 419.41 540.56 1100.50 489.60 1289.51 495.17 1189.87 613.29 1129.71 686.86 1275.13 690.74
00002424 00000063 998.04 253.99 418.91 540.94 1098.75 488.86 1287.36 493.94 1188.07 611.24 1128.59 685.27 1273.91 688.49
00002425 00000064 997.04 254.97 419.12 540.63 1097.79 488.54 1285.98 493.06 1187.12 611.92 1128.99 685.01 1273.50 687.86
00002426 00000065 996.96 256.19 418.24 539.88 1098.37 490.09 1287.23 493.66 1189.05 612.71 1129.72 685.21 1276.17 687.36
00002427 00000066 996.93 256.96 418.43 542.78 1100.56 491.00 1289.36 492.09 1193.74 613.92 1133.40 686.87 1278.98 687.28
00002428 00000067 999.82 257.88 415.63 543.45 1103.41 492.16 1291.83 490.80 1198.43 615.48 1139.74 690.12 1283.02 688.49
00002429 00000068 1000.31 257.82 416.17 548.33 1104.99 494.09 1294.42 491.55 1201.85 617.11 1142.68 693.76 1286.28 691.07
00002430 00000069 1000.03 255.72 416.25 549.36 1105.18 492.74 1296.28 490.45 1202.97 619.78 1143.66 696.06 1286.02 693.53
00002431 00000070 999.98 254.54 416.27 548.29 1104.94 490.23 1295.86 489.52 1202.02 619.10 1142.06 694.06 1283.75 692.90
00002432 00000071 1000.19 254.92 415.66 544.15 1104.23 489.76 1294.50 489.37 1200.18 617.07 1140.85 692.45 1282.17 691.54
00002433 00000072 1001.31 253.69 413.87 544.22 1103.70 489.09 1293.49 489.35 1198.63 614.43 1138.79 692.02 1280.73 691.65
00002434 00000073 1001.48 253.20 411.35 543.86 1103.89 487.45 1291.63 488.28 1196.93 612.66 1137.33 689.63 1276.79 689.83
00002435 00000074 1000.12 255.23 410.63 537.71 1102.63 485.88 1289.54 486.54 1195.01 611.38 1135.01 686.52 1275.12 686.52
00002436 00000075 999.18 256.04 409.56 535.41 1102.13 484.53 1288.09 485.89 1193.52 610.05 1133.13 683.73 1272.66 684.34
00002437 00000076 996.82 257.37 409.53 533.24 1101.56 484.81 1287.39 485.98 1193.08 609.94 1132.10 682.43 1271.41 683.02
00002438 00000077 994.55 259.21 410.15 530.65 1099.08 485.41 1283.55 486.08 1188.89 608.78 1128.49 678.80 1268.87 679.08
00002439 00000078 992.48 260.43 409.23 526.72 1095.91 486.13 1279.33 486.76 1183.87 607.94 1121.94 672.94 1268.63 673.39
00002440 DELETE   990.64 261.41 405.56 523.79 1092.49 487.83 1275.32 489.75 1176.86 603.58 1110.27 666.55 1264.91 668.44
00002441 DELETE   989.89 260.62 408.62 520.32 1085.75 487.76 1273.11 492.04 1165.65 602.70 1096.95 656.75 1256.15 661.02
00002442 DELETE   987.99 253.72 404.52 526.02 1073.92 474.79 1266.19 481.04 1153.22 594.60 1087.85 653.07 1252.50 659.13
00002443 00000082 979.61 240.37 408.81 541.42 1065.08 462.47 1255.46 470.89 1143.63 593.09 1082.15 657.10 1242.49 663.60
00002444 00000083 978.32 241.60 407.65 538.55 1060.28 462.07 1247.73 471.85 1133.84 591.07 1077.90 657.04 1233.77 664.53
00002445 00000084 980.58 245.58 406.32 535.33 1058.62 466.41 1244.65 475.01 1131.27 593.54 1077.73 659.70 1232.21 666.16
00002446 DELETE   983.61 251.44 403.99 533.50 1060.94 478.99 1243.55 485.46 1133.08 597.74 1081.93 664.57 1233.34 668.93
00002447 DELETE   985.66 252.27 404.41 536.80 1063.01 478.99 1246.78 483.84 1136.13 599.69 1086.82 670.14 1235.29 673.29
00002448 DELETE   980.91 256.89 406.91 533.83 1066.03 478.89 1247.88 482.88 1142.09 599.82 1095.51 674.65 1237.08 677.41
00002449 00000088 983.79 257.56 409.30 534.78 1071.54 479.07 1251.69 482.19 1148.87 602.34 1103.90 679.43 1239.60 681.56
00002450 00000089 984.62 259.06 409.56 531.89 1072.97 480.95 1253.13 482.82 1151.78 604.83 1107.17 683.55 1241.93 684.48
00002451 00000090 984.57 265.13 411.32 527.84 1074.17 485.93 1255.30 490.13 1152.23 612.42 1106.36 688.71 1241.76 691.62
00002452 00000091 987.42 278.65 409.34 518.16 1075.32 490.64 1257.58 496.99 1152.20 621.22 1109.88 696.52 1243.24 701.12
00002453 00000092 992.62 281.35 404.75 515.72 1078.13 494.05 1259.55 500.69 1153.98 624.46 1113.27 699.04 1245.85 703.96
00002454 00000093 997.15 281.29 402.00 512.95 1082.18 493.85 1262.60 500.76 1157.46 624.74 1115.19 696.73 1248.68 701.76
00002455 00000094 1000.17 278.33 403.34 512.92 1086.35 492.70 1266.12 498.94 1162.43 621.71 1119.39 692.70 1252.90 697.20
00002456 00000095 1001.95 277.09 404.65 516.20 1088.29 492.82 1267.71 498.02 1164.27 622.41 1121.24 692.33 1255.15 696.14
00002457 00000096 1004.41 277.35 402.64 514.97 1089.77 492.34 1268.71 497.52 1165.57 620.79 1121.73 690.05 1255.77 693.90
00002458 00000097 1005.75 276.61 403.54 513.63 1089.99 490.18 1269.56 495.33 1165.63 618.53 1121.91 687.23 1256.68 690.96
00002459 00000098 1007.13 274.59 403.35 513.72 1091.16 487.74 1269.56 491.87 1166.44 615.90 1125.18 686.79 1257.34 689.74
00002460 00000099 1008.52 273.51 403.00 513.19 1092.34 485.66 1268.54 487.96 1167.26 612.55 1129.94 688.15 1257.56 689.46
00002461 00000100 1009.69 269.17 402.45 516.76 1093.81 481.52 1268.86 484.23 1167.98 609.33 1129.94 685.21 1256.17 687.17
00002462 00000101 1013.74 265.03 398.39 515.35 1094.94 475.64 1269.43 478.48 1167.25 602.91 1127.06 680.24 1253.11 682.35
00002463 00000102 1015.84 254.40 397.07 522.49 1094.16 469.44 1268.06 471.45 1164.22 595.20 1121.49 674.83 1251.07 675.79
00002464 00000103 1015.97 248.37 394.43 526.65 1093.61 462.54 1267.04 465.60 1162.81 589.11 1118.39 670.29 1247.05 672.22
00002465 00000104 1016.10 239.42 394.03 533.49 1091.11 457.79 1266.53 461.88 1159.06 583.11 1113.92 665.92 1242.98 668.81
00002466 00000105 1015.72 236.20 393.38 532.04 1090.38 452.30 1267.09 459.33 1156.91 575.52 1110.12 658.74 1239.40 664.24
00002467 00000106 1015.43 229.38 393.17 536.29 1089.95 445.74 1268.38 454.04 1156.38 570.39 1109.35 653.74 1238.36 660.35
00002468 00000107 1016.26 226.95 391.59 536.13 1089.86 443.73 1268.39 451.53 1156.15 567.07 1109.12 650.58 1238.37 656.91
00002469 00000108 1015.05 225.29 391.76 534.33 1088.73 441.71 1267.56 450.19 1155.56 564.96 1107.14 648.12 1236.72 654.97
00002470 00000109 1013.38 226.07 390.68 530.15 1086.96 442.41 1265.38 451.44 1153.29 564.05 1103.80 648.03 1235.77 655.20
00002471 00000110 1010.42 227.86 391.13 528.67 1085.03 442.04 1262.57 451.80 1151.41 564.09 1100.33 646.55 1232.74 654.41
00002472 00000111 1007.89 229.38 391.46 523.22 1081.69 444.49 1258.01 454.49 1147.64 565.82 1096.54 646.12 1230.65 653.84
00002473 00000112 1003.96 233.71 393.61 519.84 1078.91 446.78 1255.09 457.07 1145.12 567.59 1093.30 646.41 1229.70 654.31
00002474 00000113 1001.41 237.77 395.00 519.83 1077.38 449.71 1253.23 459.05 1143.63 568.37 1092.94 647.68 1227.35 654.94
00002475 00000114 999.53 240.59 393.75 525.86 1078.06 450.45 1254.56 461.69 1143.94 570.72 1092.54 648.89 1227.12 658.23
00002476 00000115 998.75 242.65 392.17 524.51 1076.71 452.14 1253.63 463.90 1141.33 570.70 1089.11 648.44 1228.15 658.15
00002477 00000116 994.42 242.44 394.82 523.07 1075.41 452.93 1251.24 464.62 1141.12 570.67 1085.37 645.53 1225.73 654.98
00002478 00000117 990.88 241.04 395.68 523.09 1072.26 453.80 1247.84 465.84 1139.62 571.03 1082.59 643.56 1224.10 652.96
00002479 00000118 992.70 231.74 398.10 536.84 1068.66 449.81 1248.60 458.83 1138.09 573.47 1087.66 644.73 1230.91 651.03
00002480 00000119 991.36 232.22 398.60 536.42 1067.72 449.50 1247.74 458.84 1137.06 574.18 1086.73 644.55 1230.01 651.08
00002481 00000120 990.57 229.68 397.21 538.46 1067.32 449.42 1246.37 458.68 1136.54 574.98 1086.33 644.83 1228.25 651.44
00002482 00000121 988.83 231.87 396.58 537.29 1066.21 449.02 1245.65 458.85 1135.12 574.15 1085.39 648.19 1223.77 655.42
00002483 00000122 988.53 230.15 396.08 538.28 1065.40 448.09 1244.65 458.63 1133.10 574.60 1083.38 647.14 1221.81 654.89
00002484 00000123 988.36 229.39 394.31 537.68 1065.06 446.74 1243.72 456.87 1133.20 573.94 1083.51 646.86 1220.31 654.47
00002485 00000124 987.66 228.94 394.29 537.66 1064.16 447.06 1242.97 456.70 1132.97 573.51 1082.68 646.32 1220.55 653.47
00002486 00000125 986.34 228.12 394.53 538.73 1063.74 449.05 1242.60 458.03 1133.53 575.11 1083.19 647.64 1220.60 654.27
00002487 00000126 986.27 228.04 394.13 538.87 1064.60 449.88 1243.08 458.71 1135.95 574.93 1084.29 647.19 1222.33 653.68
00002488 00000127 986.54 227.40 393.43 539.69 1065.23 450.91 1243.81 459.13 1137.64 576.15 1085.74 648.61 1223.31 654.78
00002489 00000128 985.91 229.01 393.64 537.17 1064.70 450.96 1243.41 459.81 1136.93 576.04 1086.01 648.65 1221.80 655.33
00002490 00000129 986.33 230.92 393.77 534.91 1064.28 451.63 1244.09 460.60 1135.44 575.93 1085.41 649.09 1222.31 655.73
00002491 00000130 986.62 228.95 394.23 536.96 1064.16 452.07 1243.50 460.50 1134.99 576.54 1085.88 649.22 1223.75 655.36
00002492 00000131 987.09 227.09 394.51 539.39 1064.04 452.28 1243.09 459.78 1134.89 575.90 1086.62 649.52 1225.34 654.72
00002493 00000132 987.05 224.83 395.16 541.03 1063.86 453.60 1241.98 459.94 1135.42 577.17 1089.22 649.95 1227.36 654.06
00002494 00000133 986.95 225.95 395.31 539.71 1063.05 454.17 1241.58 459.41 1134.39 577.15 1089.78 650.55 1228.50 653.73
00002495 00000134 987.51 225.60 395.05 540.57 1063.42 455.43 1242.43 459.66 1136.28 578.49 1092.27 652.76 1229.90 655.08
00002496 00000135 987.53 226.70 394.82 538.14 1064.41 456.64 1243.06 460.43 1138.89 579.93 1094.54 652.96 1231.75 654.98
00002497 00000136 987.07 228.70 395.24 538.97 1064.07 458.02 1244.01 462.09 1138.99 582.61 1094.09 654.71 1233.03 656.83
00002498 00000137 986.24 230.55 395.80 539.47 1063.67 458.46 1244.92 462.63 1139.34 582.97 1093.45 655.13 1233.36 657.25
00002499 00000138 985.96 234.18 395.36 537.51 1063.15 460.89 1244.72 464.41 1139.49 584.98 1093.89 657.15 1233.82 658.71
00002500 00000139 984.25 246.13 392.69 520.70 1062.03 467.85 1242.92 473.48 1134.89 582.41 1092.57 653.88 1229.19 659.05
00002501 00000140 986.97 241.18 390.47 531.29 1062.05 468.41 1241.21 471.96 1137.93 589.83 1091.78 660.51 1232.31 662.14
00002502 00000141 983.92 246.27 392.43 526.84 1063.42 471.28 1242.66 473.76 1132.19 588.32 1090.05 663.49 1229.50 664.94
00002503 00000142 985.14 247.66 392.81 528.88 1063.72 474.62 1243.66 477.05 1133.14 591.34 1090.15 666.55 1231.72 667.84
00002504 00000143 985.15 250.19 394.05 530.15 1064.45 476.63 1244.01 479.89 1134.70 594.52 1091.70 668.77 1233.22 670.48
00002505 00000144 984.25 250.63 395.22 531.84 1065.49 478.26 1244.51 481.83 1136.77 597.14 1093.41 669.55 1234.27 671.45
00002506 00000145 984.95 253.28 395.53 530.09 1065.92 479.53 1244.59 483.08 1138.10 598.90 1095.53 671.06 1235.76 672.87
00002507 00000146 977.52 262.47 400.46 522.47 1066.79 482.47 1246.96 488.91 1142.93 600.48 1097.31 671.54 1236.16 675.86
00002508 00000147 977.95 263.88 401.50 522.28 1067.41 485.33 1247.83 491.47 1142.99 602.36 1098.33 672.62 1236.88 676.77
00002509 00000148 977.32 264.41 401.30 524.04 1067.40 487.17 1248.11 494.01 1143.18 604.62 1097.69 673.18 1236.78 677.83
00002510 00000149 975.67 265.68 403.01 525.09 1066.15 489.12 1247.15 495.14 1142.40 606.20 1098.11 674.43 1237.31 678.29
00002511 00000150 980.79 257.75 400.35 539.11 1063.98 489.17 1242.26 493.62 1140.28 609.37 1098.25 678.44 1239.03 680.47
00002512 00000151 980.30 258.61 399.69 537.94 1063.16 491.12 1242.33 495.00 1140.51 611.13 1097.70 679.93 1239.92 681.51
00002513 00000152 980.23 259.15 399.26 540.65 1063.12 493.35 1241.91 497.31 1140.32 613.59 1097.28 681.86 1239.09 683.52
00002514 00000153 979.96 262.17 396.59 533.02 1061.73 495.70 1239.70 499.41 1139.10 614.97 1094.67 682.98 1235.70 684.70
00002515 00000154 979.69 263.13 394.53 530.67 1062.36 498.88 1240.11 504.13 1140.03 616.87 1090.65 682.19 1233.19 685.33
00002516 DELETE   978.13 268.46 395.10 521.48 1061.43 506.85 1237.05 508.68 1140.30 615.71 1090.41 682.85 1230.26 683.07
00002517 DELETE   975.79 270.12 396.96 517.91 1058.96 505.88 1236.78 509.62 1138.32 616.65 1086.30 681.90 1227.40 683.85
00002518 DELETE   974.43 267.77 397.63 524.21 1058.62 503.24 1238.20 509.58 1139.26 618.13 1082.06 680.08 1227.01 684.36
00002519 00000158 974.28 267.40 398.09 528.84 1059.24 502.39 1236.43 508.79 1138.88 618.86 1082.23 682.23 1224.92 686.78
00002520 00000159 974.09 269.79 398.06 528.20 1058.02 502.29 1235.54 509.07 1137.65 620.18 1078.11 679.30 1227.21 684.25
00002521 00000160 973.20 269.51 397.14 531.50 1056.37 501.98 1234.25 509.45 1135.63 621.82 1073.73 675.46 1229.96 680.99
00002522 00000161 969.89 269.82 397.37 529.62 1052.90 501.56 1232.35 508.99 1133.10 621.67 1070.45 673.28 1229.98 678.68
00002523 00000162 966.36 271.95 396.85 525.93 1049.10 500.88 1229.54 508.21 1129.92 621.56 1067.70 673.58 1228.96 678.88
