Video ID: 	NAVsBfOjc4c
H: 	1080
W: 	1920
FPS: 	23.976023976023978

FRAME INDEX X0 Y0 W H [Landmarks (5 Points)]

00029693 00000000 946.96 158.47 400.59 592.37 1047.54 379.42 1209.12 446.12 1069.19 512.80 1000.12 574.12 1134.34 629.27
00029694 DELETE   945.70 162.02 389.29 584.52 1039.23 389.74 1196.24 456.10 1054.57 518.04 994.63 582.49 1117.72 637.21
00029695 DELETE   944.86 157.74 384.29 586.73 1030.68 388.77 1190.63 454.43 1044.82 515.91 987.47 584.06 1107.31 638.59
00029696 DELETE   939.41 148.43 391.16 594.47 1022.94 377.58 1185.31 441.16 1037.83 507.89 978.98 580.34 1097.65 633.39
00029697 00000004 936.87 150.01 391.32 588.80 1024.19 367.00 1180.11 433.08 1034.94 500.13 981.51 570.07 1099.46 627.07
00029698 00000005 938.58 144.16 390.39 595.70 1023.02 361.96 1180.22 429.79 1031.76 498.10 981.57 566.67 1102.56 625.15
00029699 00000006 940.12 145.19 388.80 591.07 1022.86 361.65 1180.50 430.21 1030.33 497.85 982.14 562.94 1105.89 621.79
00029700 00000007 940.03 143.40 389.26 588.97 1022.27 361.34 1182.29 430.17 1032.04 497.68 981.32 559.29 1108.80 618.17
00029701 00000008 939.47 140.23 392.61 588.18 1021.57 360.99 1183.15 427.17 1032.83 494.43 982.00 557.25 1110.97 613.65
00029702 00000009 938.06 137.48 393.79 584.46 1024.81 357.71 1183.45 422.63 1036.12 487.62 983.20 550.93 1109.11 606.34
00029703 00000010 938.96 133.35 396.12 584.68 1029.64 355.70 1186.97 417.88 1041.03 481.52 987.55 547.08 1111.87 600.23
00029704 00000011 939.21 134.41 398.00 584.25 1033.76 352.71 1194.45 415.36 1048.14 481.02 990.92 544.46 1120.56 597.98
00029705 00000012 946.92 123.99 398.53 604.72 1037.54 350.11 1201.97 415.84 1063.94 479.01 1000.41 548.49 1126.81 603.91
00029706 00000013 956.59 134.36 386.13 596.44 1039.55 357.20 1206.16 413.42 1062.39 483.46 1001.64 554.34 1138.54 601.39
00029707 00000014 953.77 138.08 387.80 590.85 1041.03 358.03 1207.03 415.97 1065.99 486.50 1004.19 550.06 1145.96 598.18
00029708 00000015 951.48 140.29 390.85 579.61 1041.60 354.55 1209.36 415.21 1069.31 481.16 1003.32 541.44 1151.53 591.82
00029709 00000016 941.87 138.66 401.50 578.33 1043.97 350.04 1212.84 414.94 1070.82 479.09 1001.48 532.02 1154.31 585.84
00029710 00000017 944.77 137.54 402.04 576.72 1046.47 346.00 1215.83 412.76 1070.02 474.80 1001.83 527.59 1155.64 582.87
00029711 00000018 944.14 136.59 402.91 576.36 1048.27 344.85 1217.43 413.61 1072.45 474.51 1002.68 525.95 1155.82 582.94
00029712 00000019 952.08 133.59 399.33 584.33 1050.08 346.12 1218.72 414.05 1077.27 476.71 1005.24 529.83 1161.95 586.05
00029713 00000020 956.77 139.44 394.90 590.57 1056.56 348.37 1220.79 414.14 1080.12 478.83 1009.76 537.57 1161.96 592.17
00029714 00000021 958.60 140.13 396.36 589.85 1058.10 348.21 1221.99 417.13 1080.02 481.29 1009.44 536.87 1162.84 593.78
00029715 00000022 958.42 143.16 396.81 585.46 1059.40 347.57 1223.42 417.94 1081.42 480.45 1009.74 536.09 1161.23 594.39
00029716 00000023 960.12 144.98 397.98 580.00 1062.15 347.52 1226.54 417.57 1085.15 478.61 1011.17 534.18 1161.01 592.37
00029717 00000024 960.99 144.11 398.76 577.25 1064.22 346.03 1229.34 418.35 1087.51 475.57 1014.68 533.55 1160.21 593.23
00029718 00000025 963.87 145.75 408.59 573.85 1071.76 343.59 1237.58 425.43 1091.88 472.93 1015.89 526.82 1163.51 594.04
00029719 DELETE   964.28 151.47 422.46 567.56 1092.27 344.89 1254.51 436.53 1108.33 480.57 1030.48 525.75 1166.39 601.33
00029720 00000027 975.76 165.25 414.69 562.51 1099.57 342.55 1261.05 434.70 1116.84 484.90 1035.81 529.02 1169.09 605.81
00029721 DELETE   977.47 171.36 425.93 562.97 1103.42 344.38 1267.54 439.20 1118.01 487.99 1036.24 532.41 1178.22 611.13
00029722 DELETE   979.97 178.61 419.06 551.84 1102.75 352.93 1266.02 456.89 1112.97 503.08 1033.12 538.54 1172.25 624.22
00029723 00000030 979.77 186.27 419.06 546.98 1099.96 361.25 1265.13 468.22 1108.70 512.70 1033.10 544.69 1170.75 632.10
00029724 DELETE   982.33 186.45 412.64 554.30 1096.26 366.33 1264.85 476.23 1102.65 528.79 1030.99 550.67 1174.91 640.45
00029725 00000032 981.11 193.36 412.50 553.06 1096.29 373.71 1263.32 483.26 1100.11 535.98 1029.43 556.72 1171.84 646.33
00029726 00000033 980.48 200.69 411.93 547.42 1096.34 376.40 1260.30 488.13 1096.96 542.17 1026.85 556.93 1169.37 648.45
00029727 00000034 981.60 200.78 410.25 547.13 1095.10 378.63 1259.05 489.33 1094.95 543.47 1027.65 559.65 1168.08 650.34
00029728 DELETE   981.50 198.13 411.07 551.86 1095.33 379.92 1261.31 487.97 1096.66 542.38 1028.81 564.02 1167.46 652.48
00029729 00000036 981.89 198.50 411.75 557.59 1096.17 381.08 1262.92 487.23 1098.54 542.92 1029.91 567.29 1168.87 654.32
00029730 DELETE   981.01 198.16 413.45 561.07 1096.54 380.64 1263.18 486.36 1098.71 543.08 1028.60 567.96 1167.99 654.76
00029731 00000038 981.31 196.89 413.56 562.84 1096.65 380.79 1264.12 485.13 1099.98 542.56 1028.93 569.55 1168.39 655.25
00029732 00000039 981.04 194.57 413.96 564.97 1096.64 379.52 1264.02 484.55 1099.77 541.54 1028.75 569.40 1166.84 655.60
00029733 00000040 981.46 193.72 411.64 562.36 1096.53 379.19 1262.17 483.60 1098.72 537.69 1029.59 568.71 1162.98 654.55
00029734 00000041 981.74 184.27 412.15 567.78 1095.57 374.91 1261.13 476.76 1099.95 530.86 1029.48 566.95 1158.26 650.77
00029735 00000042 982.48 184.46 409.02 568.12 1095.21 368.83 1260.15 471.68 1099.99 526.02 1026.58 562.23 1157.72 647.09
00029736 DELETE   986.65 178.08 407.54 567.48 1092.42 372.13 1255.99 464.84 1103.42 514.67 1033.24 561.14 1160.04 637.63
00029737 DELETE   988.56 172.38 402.24 569.64 1093.53 368.57 1255.55 455.69 1105.69 508.28 1035.91 555.27 1163.50 627.46
00029738 DELETE   988.82 164.62 400.22 573.84 1094.50 361.67 1256.81 441.50 1110.13 499.25 1037.34 550.32 1166.09 617.07
00029739 00000046 979.83 153.55 412.63 586.54 1096.27 356.96 1254.21 440.18 1109.32 491.65 1039.64 545.18 1169.86 614.79
00029740 00000047 979.74 150.78 412.51 589.51 1096.52 355.19 1253.79 439.15 1109.85 491.75 1039.65 545.16 1167.46 615.36
00029741 00000048 975.52 150.13 415.71 586.53 1095.53 354.07 1255.63 439.73 1112.59 490.65 1038.28 544.02 1167.09 615.28
00029742 00000049 975.49 145.90 413.73 586.88 1093.63 354.27 1253.51 439.49 1110.26 488.72 1036.10 542.85 1164.02 613.78
00029743 00000050 975.45 142.09 414.14 584.93 1091.58 352.08 1251.37 436.57 1107.04 487.34 1034.92 539.78 1161.60 609.97
00029744 00000051 974.81 139.77 414.51 589.35 1090.37 350.82 1251.53 434.25 1105.74 486.17 1033.49 541.61 1160.53 611.03
00029745 00000052 974.63 139.83 411.13 587.22 1087.13 350.69 1248.69 431.29 1103.21 484.69 1033.76 540.40 1161.81 607.39
00029746 00000053 971.53 141.03 410.82 581.86 1083.35 349.99 1246.98 430.53 1101.71 485.15 1032.68 537.00 1164.90 603.89
00029747 00000054 970.44 141.59 411.54 580.97 1080.78 347.94 1245.83 428.74 1098.52 483.58 1030.13 534.01 1166.52 601.10
00029748 00000055 967.74 138.51 414.95 580.97 1079.07 347.27 1245.71 428.73 1098.16 481.39 1027.85 531.09 1167.38 598.71
00029749 00000056 966.98 137.62 412.83 582.57 1078.76 345.62 1247.34 428.86 1099.18 482.01 1027.05 530.34 1169.47 599.36
00029750 00000057 968.49 147.48 403.12 591.13 1079.45 347.29 1243.12 424.30 1102.91 479.30 1021.19 534.28 1174.72 597.95
00029751 00000058 967.19 146.53 404.82 606.83 1082.93 344.38 1248.35 423.81 1104.51 478.50 1020.58 537.99 1176.86 603.48
00029752 00000059 963.35 151.13 405.77 605.48 1083.11 343.02 1248.21 421.39 1104.97 476.63 1018.72 539.40 1174.74 603.91
00029753 00000060 960.60 150.70 406.58 604.13 1081.26 344.00 1246.87 420.97 1105.80 475.13 1018.61 539.02 1176.48 602.37
00029754 00000061 960.05 145.82 406.02 593.34 1075.01 344.85 1241.98 421.82 1102.31 477.32 1017.72 531.15 1178.89 594.61
00029755 00000062 959.24 143.43 405.85 579.72 1070.93 345.94 1238.18 423.90 1100.57 480.98 1016.42 524.58 1178.41 589.14
00029756 00000063 961.84 146.47 403.62 572.31 1071.52 348.14 1238.44 429.17 1099.71 486.93 1016.79 523.58 1179.55 590.73
00029757 00000064 964.29 143.40 408.76 576.08 1075.84 345.39 1246.59 430.06 1100.47 488.40 1025.40 528.61 1176.08 598.49
00029758 00000065 962.66 146.34 405.03 574.30 1072.14 349.54 1239.24 430.77 1099.90 490.36 1017.08 525.28 1179.93 592.77
00029759 DELETE   964.94 143.79 404.82 574.28 1072.86 349.38 1242.10 432.03 1098.44 487.43 1024.47 528.39 1175.28 596.65
00029760 DELETE   963.08 145.19 395.06 574.41 1070.93 354.50 1233.34 431.31 1098.75 487.07 1017.91 526.98 1177.18 590.15
00029761 00000068 960.45 143.37 399.42 574.34 1067.50 350.25 1231.98 429.24 1093.51 485.18 1013.30 523.12 1175.00 588.06
00029762 00000069 957.90 140.76 402.44 575.45 1064.96 347.17 1231.20 427.06 1091.05 483.65 1010.65 520.67 1173.16 586.47
00029763 00000070 957.85 142.35 402.09 571.71 1063.71 344.66 1231.33 423.84 1090.15 481.61 1010.00 519.11 1171.53 584.63
00029764 00000071 958.85 135.02 407.58 572.19 1069.13 337.18 1241.36 423.32 1094.44 480.46 1018.39 518.96 1170.50 590.13
00029765 00000072 959.92 134.23 408.36 568.93 1069.96 334.79 1241.82 420.79 1094.19 478.67 1019.60 516.87 1170.83 587.84
00029766 00000073 961.76 130.54 405.16 570.51 1070.18 332.45 1242.59 417.80 1095.12 477.42 1020.68 516.09 1171.54 586.39
00029767 00000074 963.45 128.24 404.80 568.64 1071.38 330.73 1243.05 415.63 1096.15 475.07 1022.37 514.28 1171.52 584.09
00029768 00000075 964.85 130.33 403.87 565.08 1072.12 329.85 1243.84 414.24 1096.45 474.02 1024.41 513.68 1172.80 582.96
00029769 00000076 965.19 130.04 406.06 567.20 1073.13 328.84 1245.39 412.84 1097.91 473.65 1025.25 514.91 1173.36 583.90
00029770 00000077 966.94 126.71 405.78 569.77 1074.22 328.17 1246.58 412.67 1098.21 473.10 1026.27 513.87 1174.27 583.16
00029771 00000078 968.28 125.85 406.16 569.12 1074.46 328.45 1247.23 411.84 1098.70 472.38 1027.29 514.02 1174.42 582.46
00029772 00000079 969.43 124.77 405.74 573.97 1076.37 329.25 1247.98 412.30 1099.79 471.46 1028.66 515.11 1175.47 583.21
00029773 00000080 968.90 125.53 405.94 578.07 1077.53 332.39 1247.90 413.64 1101.99 472.63 1029.78 519.01 1175.22 585.91
00029774 00000081 968.72 125.34 406.93 578.73 1078.77 332.85 1248.17 413.81 1103.30 472.03 1030.32 519.19 1174.56 585.90
00029775 00000082 968.15 124.99 405.98 582.52 1079.19 328.12 1247.75 410.47 1102.26 471.95 1028.67 517.99 1171.80 586.03
00029776 00000083 967.65 124.12 406.90 583.92 1078.92 325.99 1248.50 408.26 1101.97 470.93 1027.82 518.00 1171.60 586.08
00029777 00000084 968.09 122.40 405.88 587.10 1079.26 325.08 1248.30 406.49 1101.95 471.00 1028.75 519.22 1170.60 586.64
00029778 00000085 968.18 124.50 405.94 585.85 1079.13 324.95 1247.15 405.29 1101.52 470.51 1029.01 519.88 1169.49 586.64
00029779 00000086 967.73 122.15 404.44 588.78 1079.23 324.57 1246.90 405.54 1101.78 470.86 1028.80 520.49 1167.78 587.74
00029780 00000087 967.49 120.73 405.39 589.84 1078.47 324.97 1246.32 404.49 1101.23 469.91 1028.79 521.37 1166.09 587.62
00029781 00000088 968.21 122.22 405.25 587.20 1077.19 324.11 1244.54 403.30 1098.76 469.83 1028.09 521.98 1164.00 587.94
00029782 00000089 970.50 121.92 400.12 583.82 1075.86 325.75 1241.84 402.85 1098.54 469.96 1029.81 522.91 1162.95 587.01
00029783 00000090 968.43 122.04 400.18 578.78 1072.54 324.58 1239.54 402.51 1095.98 470.52 1026.57 519.56 1161.02 584.37
00029784 00000091 969.07 121.23 399.86 577.23 1071.75 323.98 1239.54 402.92 1094.14 470.43 1025.75 518.88 1160.25 584.24
00029785 00000092 968.10 121.30 399.71 576.04 1070.48 323.22 1239.30 402.04 1093.81 470.30 1024.76 517.87 1160.93 583.06
00029786 00000093 967.19 122.31 400.56 575.35 1070.20 322.50 1239.62 402.28 1093.04 470.85 1024.39 517.54 1161.15 583.52
00029787 00000094 967.00 122.93 402.29 573.64 1069.36 322.06 1238.84 400.70 1091.18 469.36 1023.94 517.79 1160.63 582.75
00029788 00000095 967.01 123.35 402.37 572.62 1069.04 322.78 1238.72 401.25 1091.06 469.38 1022.89 518.39 1160.50 583.08
00029789 00000096 965.59 123.42 403.52 572.43 1070.65 334.58 1238.04 411.12 1095.89 468.70 1025.66 520.06 1162.55 583.08
00029790 00000097 965.95 121.59 400.07 573.60 1069.63 334.55 1237.46 410.38 1095.96 465.86 1025.16 519.43 1162.93 581.74
00029791 00000098 965.40 122.15 401.59 573.26 1067.60 328.29 1237.34 404.63 1092.13 466.94 1023.67 518.27 1161.61 581.23
00029792 00000099 964.21 120.00 402.41 575.19 1067.36 325.49 1237.53 403.72 1091.43 467.42 1022.41 516.59 1160.55 581.17
00029793 00000100 964.32 119.49 404.61 575.23 1068.77 323.57 1239.31 402.66 1092.12 466.56 1022.56 515.36 1160.95 580.67
00029794 00000101 964.50 120.26 404.79 574.83 1069.02 323.81 1238.64 401.86 1092.08 465.59 1022.93 515.27 1160.81 579.73
00029795 00000102 965.25 119.69 404.87 575.07 1069.55 323.90 1238.62 401.65 1092.70 465.07 1023.77 515.70 1160.39 579.88
00029796 00000103 967.08 120.32 403.04 574.90 1070.05 324.37 1239.37 400.14 1093.79 464.61 1024.83 517.80 1160.72 580.33
00029797 00000104 967.18 121.90 401.91 572.28 1070.42 324.20 1239.17 400.09 1093.99 463.27 1024.97 517.39 1160.61 579.89
00029798 00000105 968.64 118.59 401.40 577.13 1070.82 323.02 1239.20 397.53 1093.89 463.17 1027.59 518.70 1160.29 580.19
00029799 00000106 968.23 117.56 399.75 580.69 1071.17 322.63 1239.43 397.67 1095.17 463.02 1026.18 518.20 1160.93 580.29
00029800 00000107 968.56 118.45 398.69 581.69 1070.61 322.81 1238.20 396.46 1094.58 462.50 1025.25 518.82 1161.11 579.82
00029801 00000108 968.49 118.75 398.79 582.98 1071.44 321.48 1239.44 395.75 1094.74 462.62 1025.59 519.37 1161.31 580.98
00029802 00000109 967.55 117.49 399.44 585.09 1070.72 321.54 1238.76 395.06 1094.65 461.56 1024.87 519.76 1160.04 580.81
00029803 00000110 967.92 115.88 400.04 585.19 1071.05 320.61 1239.53 393.91 1095.12 460.60 1025.17 519.54 1159.09 580.42
00029804 00000111 969.65 115.59 398.93 583.35 1071.21 319.16 1239.88 392.36 1094.36 459.23 1025.37 518.53 1159.40 579.31
00029805 00000112 969.93 117.58 398.84 580.73 1071.51 318.63 1239.87 390.63 1095.00 458.40 1025.72 517.75 1160.04 577.56
00029806 00000113 969.58 118.21 397.98 579.92 1070.30 317.63 1238.93 388.93 1094.13 457.64 1025.19 517.39 1160.08 576.67
00029807 00000114 970.01 118.07 396.97 581.11 1070.80 317.69 1238.80 389.17 1094.24 456.85 1025.11 517.46 1159.52 576.93
00029808 00000115 970.11 117.10 396.69 580.32 1070.46 318.19 1238.21 389.60 1093.34 457.09 1025.03 517.31 1158.96 576.59
00029809 00000116 968.74 118.17 396.41 573.89 1068.49 322.31 1235.68 394.36 1092.58 455.77 1023.68 513.97 1160.56 573.44
00029810 00000117 959.91 127.32 396.51 558.86 1065.61 327.45 1232.55 394.61 1092.69 449.23 1022.40 511.71 1164.57 568.61
00029811 00000118 956.56 123.03 404.10 559.81 1061.75 323.50 1229.22 389.26 1086.26 447.38 1018.01 508.16 1161.86 563.41
00029812 00000119 956.75 114.94 406.39 566.96 1060.48 320.05 1227.39 385.65 1083.36 445.30 1018.45 505.98 1160.33 560.71
00029813 00000120 957.54 108.77 406.28 576.57 1057.79 317.38 1226.05 380.81 1082.24 445.03 1016.11 504.91 1163.87 557.48
00029814 00000121 957.36 113.45 404.85 575.69 1059.15 315.25 1226.65 380.60 1082.14 446.97 1014.71 502.63 1165.36 557.06
00029815 00000122 957.60 116.33 398.06 577.58 1060.46 316.94 1222.45 381.23 1080.35 449.60 1014.33 505.39 1158.28 558.87
00029816 00000123 952.17 119.00 397.84 574.68 1053.57 320.38 1216.13 384.09 1070.41 453.94 1005.57 508.46 1147.66 561.27
00029817 00000124 944.19 116.37 397.47 568.58 1040.36 317.33 1203.51 382.42 1052.98 450.44 992.76 504.27 1134.99 558.32
00029818 00000125 945.57 111.56 390.59 566.77 1030.48 313.66 1189.94 376.44 1035.67 440.19 986.29 503.18 1120.63 555.39
00029819 00000126 943.67 104.53 387.43 574.20 1028.73 305.62 1186.10 369.86 1032.35 434.02 982.59 500.63 1112.40 554.06
00029820 00000127 944.29 101.93 386.82 570.65 1027.79 303.53 1185.74 364.37 1033.56 429.43 982.87 499.28 1110.14 550.33
00029821 00000128 947.21 96.53 386.82 571.23 1027.01 300.90 1188.33 359.63 1035.23 422.64 984.80 495.28 1114.67 544.66
00029822 00000129 948.21 92.98 386.41 576.76 1028.06 299.98 1188.28 358.03 1035.42 422.78 985.56 496.33 1114.22 545.18
00029823 00000130 947.64 93.57 385.10 581.88 1027.58 301.49 1185.88 357.62 1033.78 424.21 987.91 498.95 1112.11 546.78
00029824 00000131 946.90 89.11 386.27 587.64 1025.87 300.53 1184.26 356.78 1030.06 425.50 986.56 501.47 1108.73 549.23
CROP_BBOX: 708 0 1647 893
