Video ID: 	mJNNeVXrhT4
H: 	1080
W: 	1920
FPS: 	25.0

FRAME INDEX X0 Y0 W H [Landmarks (5 Points)]

00012723 00000000 935.41 298.20 467.03 568.42 997.50 461.31 1177.35 455.36 1055.98 591.75 1042.92 691.93 1188.46 685.23
00012724 DELETE   919.11 300.96 472.00 559.02 985.54 458.88 1169.00 452.89 1043.01 587.60 1030.49 683.66 1176.62 677.70
00012725 00000002 917.01 283.47 459.57 556.06 974.43 450.72 1164.80 447.57 1028.36 577.64 1018.85 677.21 1161.51 672.09
00012726 00000003 913.66 262.92 462.71 565.62 970.74 437.79 1157.30 437.32 1017.21 569.69 1014.68 666.13 1158.38 662.88
00012727 00000004 909.72 260.83 466.07 565.40 966.39 428.18 1155.44 428.45 1013.87 564.89 1011.00 665.26 1152.50 663.05
00012728 00000005 910.21 267.26 465.47 557.02 968.57 428.45 1157.64 428.29 1015.56 562.14 1008.65 659.25 1156.26 656.67
00012729 00000006 911.87 265.18 463.99 557.47 969.90 427.62 1160.52 429.49 1018.17 562.90 1007.01 658.29 1157.09 657.42
00012730 00000007 913.37 260.50 465.33 565.86 974.15 431.54 1163.72 434.74 1022.61 566.82 1011.09 660.50 1159.20 660.48
00012731 00000008 917.45 259.18 462.76 566.81 976.25 434.64 1163.42 436.12 1022.40 566.00 1013.33 661.40 1161.59 659.79
00012732 00000009 920.98 266.46 462.87 561.15 983.42 434.49 1169.80 432.01 1033.54 566.37 1019.63 662.85 1162.41 660.16
00012733 00000010 930.36 271.41 465.71 553.84 992.75 434.22 1177.42 430.77 1040.34 558.18 1026.98 654.70 1173.62 651.16
00012734 00000011 941.79 267.71 464.25 556.00 1003.07 428.82 1186.88 427.43 1049.94 554.26 1031.77 648.53 1181.08 646.79
00012735 00000012 950.58 262.74 468.42 561.78 1012.23 427.88 1199.58 429.18 1060.08 558.59 1040.45 649.48 1193.00 650.04
00012736 00000013 961.84 260.60 462.96 567.43 1017.66 427.13 1206.19 430.35 1064.27 562.71 1049.24 657.74 1198.54 659.88
00012737 00000014 967.70 265.95 470.35 568.72 1024.48 425.44 1221.25 429.61 1073.56 563.84 1057.90 666.99 1208.60 668.76
00012738 00000015 976.05 268.77 473.13 570.51 1035.15 426.91 1233.38 430.14 1086.00 561.19 1067.20 666.82 1220.83 667.45
00012739 00000016 991.40 267.66 464.89 571.64 1046.81 432.35 1241.77 436.95 1092.72 562.66 1073.43 665.68 1231.90 667.05
00012740 00000017 995.00 274.36 471.81 575.49 1058.31 433.03 1250.16 440.82 1108.48 571.82 1084.12 666.33 1237.62 672.51
00012741 00000018 1002.58 273.44 476.19 583.78 1067.73 437.76 1262.80 446.88 1119.62 579.83 1092.79 671.83 1248.61 678.33
00012742 00000019 1019.40 291.05 470.54 571.52 1084.73 434.87 1278.08 455.09 1133.52 582.41 1103.19 674.23 1260.32 688.77
00012743 DELETE   1030.01 288.38 478.81 566.20 1094.79 437.91 1291.23 459.02 1141.20 593.26 1110.26 677.55 1264.06 694.65
00012744 00000021 1038.70 280.45 476.84 579.03 1106.87 432.58 1302.82 457.22 1150.29 580.92 1124.11 673.52 1281.75 692.35
00012745 00000022 1053.46 274.56 469.91 578.24 1116.57 434.20 1312.91 456.50 1156.82 575.39 1130.86 673.06 1290.08 690.04
00012746 00000023 1057.83 268.38 470.11 582.77 1121.83 430.28 1323.11 449.95 1167.74 569.07 1132.76 669.92 1295.53 684.77
00012747 00000024 1060.54 262.64 469.96 589.96 1125.68 427.18 1327.83 445.10 1171.48 565.53 1136.35 668.21 1301.62 681.88
00012748 00000025 1060.89 269.61 471.83 583.41 1127.86 423.25 1329.50 441.51 1173.08 562.88 1137.17 663.89 1305.43 677.85
00012749 00000026 1059.44 269.10 472.73 578.40 1127.19 420.49 1325.59 441.06 1170.17 561.56 1136.78 659.74 1299.24 675.63
00012750 00000027 1057.52 263.69 471.78 576.49 1124.07 416.13 1322.38 439.27 1164.70 561.12 1132.71 658.48 1290.88 676.90
00012751 00000028 1058.15 258.69 473.11 575.44 1118.44 410.14 1319.56 435.07 1155.55 557.22 1125.91 658.22 1286.34 678.13
00012752 00000029 1054.74 253.91 477.15 579.91 1117.93 407.25 1317.12 430.44 1155.53 554.59 1128.21 657.35 1282.71 675.66
00012753 00000030 1053.24 252.18 477.35 582.28 1117.78 405.77 1316.63 427.11 1158.30 552.76 1130.73 656.61 1283.02 673.14
00012754 00000031 1051.76 254.21 478.15 581.74 1116.33 407.28 1316.90 428.12 1158.31 553.58 1127.94 657.37 1284.67 673.62
00012755 00000032 1051.93 252.70 481.88 586.82 1117.30 409.52 1315.93 432.66 1153.71 556.57 1127.77 661.95 1277.41 680.23
00012756 00000033 1053.75 253.22 480.05 588.43 1117.12 415.02 1316.97 439.10 1153.16 559.86 1126.17 666.57 1276.38 685.90
00012757 00000034 1056.71 255.56 478.22 590.98 1121.90 415.29 1322.35 440.23 1158.10 561.68 1129.51 667.76 1279.49 687.80
00012758 00000035 1060.42 257.58 474.98 592.61 1127.86 417.95 1328.39 442.71 1164.81 562.18 1133.74 666.50 1288.39 686.11
00012759 00000036 1062.47 263.81 472.67 581.97 1135.65 412.79 1328.29 443.82 1166.88 566.65 1140.79 658.16 1283.41 683.90
00012760 00000037 1064.65 262.78 475.01 585.09 1139.30 415.61 1331.43 447.52 1169.30 566.65 1142.18 660.82 1284.52 687.33
00012761 00000038 1068.32 274.13 478.33 576.39 1144.88 416.13 1339.89 450.40 1174.05 567.45 1143.60 662.31 1288.62 690.75
00012762 00000039 1071.96 270.73 479.25 583.55 1151.47 418.83 1348.14 455.78 1181.26 569.54 1144.36 665.07 1291.27 696.41
00012763 00000040 1078.55 274.09 479.63 580.79 1155.24 420.77 1354.23 456.00 1189.84 575.09 1149.30 669.81 1301.06 699.65
00012764 00000041 1082.27 265.23 481.74 588.10 1161.22 417.59 1361.24 453.41 1197.53 575.31 1154.96 666.38 1310.59 696.80
00012765 00000042 1087.70 266.84 481.42 582.67 1170.18 414.31 1366.47 453.01 1203.91 570.52 1161.12 660.57 1314.29 693.14
00012766 00000043 1092.97 264.78 482.68 581.31 1173.97 410.78 1371.09 450.40 1205.85 569.50 1165.65 658.47 1318.40 691.58
00012767 00000044 1096.77 259.68 480.94 583.21 1176.06 408.37 1374.40 450.13 1210.90 571.44 1169.04 657.22 1319.12 691.89
00012768 00000045 1099.57 252.55 482.66 591.24 1176.51 409.64 1378.48 449.66 1215.66 572.04 1170.85 658.55 1323.11 691.91
00012769 00000046 1101.60 252.86 486.13 591.97 1178.44 412.35 1381.69 449.98 1220.11 574.29 1175.59 660.34 1329.03 691.62
00012770 00000047 1101.69 241.49 486.19 604.05 1179.88 412.26 1381.62 447.87 1222.77 572.57 1179.75 660.76 1332.45 690.43
00012771 00000048 1106.54 247.74 483.05 594.56 1183.23 405.91 1383.17 441.94 1223.69 565.92 1182.49 656.73 1334.48 686.58
00012772 00000049 1106.90 251.10 483.14 586.96 1184.67 401.75 1383.55 436.23 1224.73 558.51 1187.04 652.19 1336.39 680.30
00012773 00000050 1105.26 240.49 483.81 594.75 1183.04 398.04 1380.04 431.50 1224.50 552.99 1186.28 649.32 1334.24 676.91
00012774 00000051 1105.11 245.48 482.42 587.95 1181.25 396.71 1377.37 428.38 1222.62 549.65 1185.86 646.79 1333.91 672.86
00012775 00000052 1101.83 242.82 483.33 589.63 1179.88 394.35 1374.53 427.00 1220.17 547.62 1183.24 644.52 1330.77 671.46
00012776 00000053 1100.03 243.22 485.19 591.80 1179.02 396.44 1374.65 429.58 1218.28 549.68 1182.61 647.35 1329.85 674.63
00012777 00000054 1097.12 241.87 490.63 597.88 1179.02 401.30 1375.77 435.88 1215.95 554.96 1181.74 650.44 1330.90 678.71
00012778 00000055 1097.61 252.23 490.53 591.32 1176.57 403.59 1374.45 436.78 1214.42 561.56 1181.72 653.72 1331.98 680.88
00012779 00000056 1098.11 256.60 491.12 590.16 1174.95 405.84 1373.80 437.28 1214.41 564.32 1182.25 656.69 1332.50 682.46
00012780 00000057 1097.44 255.49 491.14 593.28 1173.97 406.24 1373.31 436.79 1214.40 565.07 1182.51 659.07 1333.29 684.05
00012781 00000058 1097.51 257.24 490.89 592.35 1173.48 406.06 1372.46 436.18 1213.85 564.82 1182.17 659.93 1332.56 684.55
00012782 00000059 1097.71 256.05 491.41 592.63 1174.06 406.56 1373.46 437.17 1214.95 566.31 1182.73 660.16 1333.72 685.16
00012783 00000060 1098.71 253.80 490.89 594.20 1174.76 408.13 1373.34 439.08 1213.94 568.37 1182.99 660.76 1332.51 686.16
00012784 00000061 1099.16 256.50 490.20 591.38 1173.44 408.43 1373.43 438.99 1213.95 570.73 1182.10 662.56 1332.91 687.56
00012785 00000062 1097.85 255.62 490.50 589.85 1171.92 408.28 1373.53 440.19 1213.52 572.19 1179.12 661.40 1332.89 687.52
00012786 00000063 1097.34 253.46 492.45 590.44 1173.00 409.19 1375.62 442.12 1215.11 572.96 1178.71 659.72 1333.97 686.80
00012787 00000064 1098.69 256.09 491.75 588.45 1173.94 407.42 1375.92 440.36 1216.02 569.64 1178.82 657.63 1334.23 684.57
00012788 00000065 1098.09 257.60 492.27 582.69 1174.06 408.67 1376.61 441.13 1215.39 568.15 1178.71 655.82 1334.75 682.36
00012789 00000066 1093.31 238.24 494.06 601.18 1170.60 414.47 1369.71 444.45 1213.63 571.73 1177.66 658.56 1331.74 683.24
00012790 00000067 1091.77 238.45 496.34 603.65 1168.99 414.35 1368.65 445.88 1211.53 574.56 1176.43 658.95 1331.90 684.79
00012791 00000068 1095.81 255.01 493.79 587.00 1172.54 415.12 1373.22 448.58 1213.78 573.47 1177.06 659.93 1333.93 687.11
00012792 00000069 1096.08 258.46 496.78 590.49 1172.37 414.96 1373.57 446.99 1213.11 574.57 1178.48 662.72 1336.57 688.71
00012793 00000070 1097.07 259.79 496.68 589.89 1171.68 415.86 1374.16 447.40 1213.44 576.27 1178.55 665.31 1337.02 690.77
00012794 00000071 1099.96 263.44 494.04 584.04 1173.53 415.65 1375.21 447.18 1214.76 574.35 1178.15 663.33 1334.81 688.98
00012795 00000072 1101.00 259.37 493.49 588.78 1175.44 414.61 1377.17 446.82 1215.69 573.66 1178.34 664.87 1332.90 691.30
00012796 00000073 1101.67 260.91 493.71 593.14 1175.92 414.59 1379.64 447.60 1217.83 575.56 1179.03 669.05 1336.41 696.05
00012797 00000074 1100.12 254.02 502.01 620.66 1181.00 415.10 1386.76 446.81 1223.94 578.91 1184.50 676.88 1345.76 703.18
00012798 00000075 1099.18 257.84 502.20 621.16 1177.87 419.34 1383.56 451.21 1220.69 587.49 1181.57 683.63 1344.20 710.18
00012799 00000076 1094.18 256.91 502.32 620.36 1169.92 422.84 1379.97 456.36 1215.40 594.32 1172.67 687.09 1339.17 715.05
00012800 00000077 1086.93 263.36 502.19 608.30 1163.34 423.55 1376.42 459.25 1212.09 599.36 1167.47 686.50 1332.46 716.19
00012801 00000078 1083.00 260.67 500.28 609.39 1159.13 424.08 1372.43 458.05 1209.45 599.43 1163.79 688.14 1328.21 716.58
00012802 00000079 1080.48 263.52 503.97 613.60 1156.41 422.93 1370.59 455.95 1206.74 597.99 1160.54 688.46 1329.03 716.11
00012803 00000080 1078.93 265.69 506.57 615.78 1155.26 422.42 1372.19 455.68 1208.07 600.30 1159.61 690.14 1329.67 718.07
00012804 00000081 1077.82 265.01 508.52 616.55 1152.93 424.52 1369.82 458.34 1205.14 602.67 1158.04 689.69 1330.10 717.97
00012805 00000082 1076.69 258.95 507.43 619.86 1151.52 425.07 1368.79 460.95 1203.02 603.74 1156.11 689.54 1326.81 719.56
00012806 00000083 1076.48 263.15 504.86 612.99 1150.66 425.42 1366.31 459.51 1202.03 601.14 1156.11 688.74 1325.03 717.16
00012807 00000084 1076.85 264.95 503.91 611.78 1151.12 425.01 1365.86 457.49 1201.56 598.89 1155.01 688.50 1324.44 715.78
00012808 00000085 1076.24 266.14 504.62 610.99 1150.79 424.14 1365.44 456.63 1201.21 597.29 1155.20 686.12 1324.72 713.30
00012809 00000086 1074.92 266.15 506.15 611.95 1151.10 424.46 1366.74 456.03 1202.81 596.36 1155.71 686.25 1326.86 712.68
00012810 00000087 1076.17 268.38 504.41 614.46 1151.97 427.62 1366.40 457.29 1204.21 598.18 1157.05 690.27 1327.51 715.26
00012811 00000088 1076.35 269.55 505.34 617.27 1151.73 430.21 1368.09 460.05 1205.65 602.56 1157.56 693.88 1328.05 719.06
00012812 00000089 1076.04 263.14 504.68 625.66 1149.68 432.36 1368.36 461.76 1205.75 606.13 1157.49 696.59 1328.99 721.55
00012813 00000090 1074.59 266.23 505.49 622.19 1147.47 433.75 1365.25 460.54 1204.06 604.62 1155.84 696.85 1326.36 719.74
00012814 00000091 1072.39 272.41 510.02 614.96 1147.35 431.37 1364.11 456.32 1201.42 594.95 1155.19 689.91 1326.81 711.06
00012815 00000092 1067.80 268.37 507.22 616.15 1142.93 432.37 1355.66 452.41 1195.74 589.56 1152.22 688.10 1325.75 705.11
00012816 00000093 1066.19 268.02 505.18 615.56 1140.54 431.53 1350.66 449.66 1190.85 587.83 1153.02 688.66 1321.37 704.12
00012817 00000094 1064.00 271.43 501.45 612.11 1134.96 434.81 1345.55 451.86 1186.10 593.82 1149.39 691.73 1319.03 706.22
00012818 00000095 1057.14 269.39 503.81 613.14 1128.15 434.07 1339.98 452.28 1178.17 592.51 1143.86 690.01 1312.25 705.46
00012819 00000096 1050.06 247.17 502.80 617.99 1121.45 430.90 1331.50 444.77 1172.46 582.31 1142.19 684.80 1305.63 696.51
00012820 00000097 1046.74 244.27 500.80 617.51 1120.52 425.63 1331.13 439.19 1172.87 575.58 1142.84 680.26 1303.90 691.47
00012821 00000098 1045.65 242.25 503.08 633.25 1120.19 427.01 1332.64 438.47 1174.66 578.49 1142.73 684.92 1311.61 694.30
00012822 00000099 1045.71 249.13 507.51 646.32 1117.83 434.40 1331.08 441.96 1173.88 588.22 1144.18 697.54 1320.02 703.64
00012823 00000100 1043.00 256.18 507.32 654.23 1120.88 441.12 1329.00 450.74 1170.97 590.01 1151.29 704.32 1318.02 712.48
00012824 00000101 1041.74 253.20 506.65 645.40 1119.06 431.51 1321.19 443.04 1168.78 579.21 1141.71 694.44 1307.58 703.34
00012825 00000102 1042.81 247.09 501.24 623.39 1116.44 428.98 1321.79 441.03 1169.98 574.40 1138.10 685.58 1297.93 695.04
00012826 00000103 1035.99 248.83 502.22 608.52 1108.13 431.00 1321.80 444.68 1165.13 579.82 1130.73 679.91 1297.64 691.22
00012827 00000104 1038.30 255.55 500.31 603.67 1109.48 435.40 1322.36 449.21 1165.35 583.28 1132.23 682.93 1299.35 694.33
00012828 00000105 1043.17 249.65 500.71 619.60 1110.52 438.04 1316.41 452.05 1163.74 587.81 1132.25 689.34 1298.11 700.77
00012829 00000106 1041.37 248.97 505.28 628.05 1112.00 437.39 1316.16 458.23 1162.75 593.99 1131.16 690.85 1297.76 707.72
00012830 00000107 1045.17 250.54 505.57 633.36 1117.97 440.34 1323.55 460.93 1170.98 596.86 1137.34 697.15 1300.97 713.97
00012831 00000108 1050.81 244.41 510.25 640.79 1119.83 444.33 1335.95 466.54 1176.95 606.82 1138.69 707.15 1308.37 725.30
CROP_BBOX: 761 0 1763 1080
