Video ID: 	mlhL90NKU-I
H: 	1080
W: 	1920
FPS: 	25.0

FRAME INDEX X0 Y0 W H [Landmarks (5 Points)]

00003185 00000000 506.00 246.74 391.16 519.84 703.86 428.74 859.04 450.23 822.72 533.62 706.25 633.96 818.18 651.23
00003186 00000001 497.43 228.10 392.27 522.17 686.95 415.74 849.37 435.77 809.35 527.99 695.06 625.37 809.37 640.45
00003187 00000002 493.27 222.99 389.39 522.40 683.78 406.17 842.46 427.78 806.26 518.41 690.46 614.42 804.14 630.94
00003188 00000003 493.65 218.59 385.18 525.91 683.57 401.13 840.86 424.53 807.54 510.21 694.24 610.18 806.56 627.97
00003189 00000004 498.25 213.20 379.40 531.64 693.40 397.90 840.63 420.09 814.90 501.46 707.30 606.60 811.57 623.92
00003190 00000005 504.49 201.93 374.71 539.52 708.07 397.21 848.22 420.63 830.26 489.34 721.58 597.49 822.96 616.26
00003191 00000006 512.24 197.78 371.22 539.13 716.90 393.28 855.38 415.90 842.90 486.66 733.94 596.33 832.47 614.37
00003192 00000007 518.80 199.74 368.64 532.83 725.60 392.41 866.83 418.67 854.91 488.43 736.29 592.82 838.88 614.31
00003193 00000008 523.65 205.38 367.38 529.85 731.48 390.83 875.24 419.79 861.88 492.42 738.80 594.58 843.39 618.63
00003194 00000009 524.64 210.46 369.06 532.84 733.51 393.61 876.64 422.56 862.81 501.93 735.20 600.48 838.97 624.51
00003195 DELETE   519.55 216.85 374.87 535.02 732.07 400.69 872.07 425.34 858.79 515.00 732.18 610.59 830.97 630.91
00003196 00000011 515.73 222.33 379.66 542.23 725.29 416.57 868.29 434.42 850.69 531.84 723.35 631.98 824.37 648.28
00003197 00000012 512.07 242.09 382.29 529.53 719.06 429.67 864.11 441.13 841.83 545.16 718.55 643.96 819.56 654.65
00003198 00000013 512.89 246.83 383.27 526.57 719.01 436.54 868.01 451.08 842.28 549.48 718.07 647.55 821.55 660.62
00003199 00000014 517.01 244.53 382.81 526.74 724.35 435.56 871.98 449.26 848.54 548.34 724.55 647.30 826.66 659.61
00003200 00000015 524.91 243.05 377.26 523.39 728.86 431.17 877.19 449.42 852.33 544.84 728.21 642.87 830.96 658.79
00003201 00000016 530.10 245.88 375.69 516.51 731.57 429.77 882.46 449.05 855.02 543.28 731.44 639.27 837.59 655.89
00003202 00000017 534.82 246.30 384.07 516.88 748.94 433.64 882.97 444.09 864.96 545.03 750.95 632.29 844.05 640.33
00003203 00000018 550.45 241.45 391.95 526.36 766.96 432.43 907.37 441.71 884.74 544.62 765.38 634.45 862.11 641.43
00003204 00000019 576.09 246.14 383.11 521.36 785.79 431.84 929.28 444.78 907.07 543.87 776.58 632.68 884.26 644.99
00003205 DELETE   580.29 251.61 387.37 516.29 802.76 431.80 933.81 456.32 909.65 547.47 783.24 620.29 890.50 641.16
00003206 00000021 579.64 251.95 389.69 516.68 801.35 436.71 932.40 459.69 909.66 548.67 782.18 619.57 891.42 639.47
00003207 DELETE   583.42 249.09 383.54 516.19 794.56 428.42 937.43 448.30 912.47 542.97 775.02 624.34 888.50 642.90
00003208 00000023 569.20 244.60 387.91 523.84 780.03 423.43 922.38 444.52 896.28 537.08 765.46 622.73 875.59 640.94
00003209 00000024 549.27 237.04 393.32 522.14 760.95 421.44 902.15 442.74 871.42 534.04 752.35 616.38 858.05 633.29
00003210 00000025 536.79 232.45 389.54 518.20 745.76 416.80 881.97 436.19 855.83 529.21 738.66 611.47 840.15 627.02
00003211 00000026 524.96 220.89 392.82 527.47 731.40 415.55 874.33 431.33 844.18 531.59 728.04 613.16 832.88 626.75
00003212 00000027 512.04 219.38 394.01 529.70 724.50 407.66 863.10 426.38 834.79 526.98 722.25 611.21 822.58 627.44
00003213 00000028 509.71 225.34 386.25 518.24 705.07 402.83 858.77 421.96 825.87 516.64 710.84 615.88 820.51 630.92
00003214 00000029 499.08 218.48 382.31 524.65 690.08 399.39 843.95 423.66 812.19 508.69 698.34 609.14 807.78 627.87
00003215 00000030 487.17 213.35 383.16 525.91 682.63 395.69 832.44 422.24 805.05 506.47 689.77 602.08 797.02 622.57
00003216 00000031 471.54 205.73 388.16 525.64 674.59 408.71 823.96 427.17 795.51 505.95 682.91 596.81 790.10 611.53
00003217 00000032 463.32 205.77 385.71 520.09 666.41 408.69 813.32 425.60 787.16 502.89 675.79 592.89 783.42 606.00
00003218 00000033 461.29 204.94 380.23 519.80 661.60 405.25 805.94 425.75 781.20 502.74 668.75 592.26 775.15 608.61
00003219 00000034 453.45 201.42 383.85 525.47 657.28 400.15 797.40 419.43 771.69 503.80 662.85 593.78 763.69 609.35
00003220 00000035 447.97 202.94 384.58 529.03 651.82 396.43 791.40 415.13 766.58 504.86 657.32 595.48 760.08 611.03
00003221 00000036 446.19 204.24 385.44 529.72 649.56 396.49 789.98 414.09 765.17 505.77 652.50 594.48 758.77 609.49
00003222 00000037 445.45 206.90 385.74 527.01 649.49 397.86 791.03 418.06 765.49 507.87 650.85 595.17 757.81 612.29
00003223 00000038 451.05 208.46 381.85 525.70 654.34 401.38 794.59 421.51 768.79 512.16 655.02 598.15 759.70 615.12
00003224 00000039 459.97 213.14 379.20 524.78 662.29 407.24 801.15 425.08 778.51 517.41 664.94 604.54 765.21 619.22
00003225 00000040 467.98 223.55 379.29 522.05 672.05 417.56 811.87 430.41 789.16 526.46 682.22 613.25 779.03 623.06
00003226 00000041 477.85 230.39 381.68 520.71 682.82 412.26 825.59 432.13 800.79 523.28 697.94 617.99 793.00 632.42
00003227 00000042 488.20 227.43 380.97 531.96 691.31 418.25 837.08 434.99 812.70 528.74 709.28 628.04 806.77 640.17
00003228 00000043 503.31 236.72 370.56 520.99 704.00 424.77 847.46 441.71 824.26 531.08 717.74 629.36 814.19 642.83
00003229 DELETE   516.07 237.04 369.69 523.32 715.93 428.17 858.91 444.81 833.45 538.64 724.67 635.57 820.72 649.66
00003230 00000045 519.35 245.44 371.11 519.84 718.06 432.45 864.33 450.11 837.64 543.27 724.76 641.85 824.32 656.98
00003231 00000046 518.71 248.77 374.49 518.86 720.86 436.60 868.18 452.34 840.57 548.32 724.48 645.56 824.98 659.13
00003232 00000047 520.05 249.96 375.53 516.51 721.91 437.74 871.03 454.18 842.77 550.58 723.37 646.55 824.98 660.82
00003233 00000048 502.84 251.87 392.57 520.70 729.73 440.53 862.90 455.21 837.89 565.08 720.90 642.13 815.49 653.44
00003234 00000049 508.49 254.28 389.42 523.26 734.09 444.77 865.57 459.71 837.88 570.67 717.23 643.55 812.03 655.78
00003235 00000050 513.94 253.24 386.23 528.01 736.31 450.83 864.94 458.38 841.04 572.97 726.55 649.27 815.65 655.86
00003236 00000051 514.80 253.85 386.07 526.96 738.09 454.45 866.52 459.71 844.93 574.94 731.02 651.50 820.02 656.18
00003237 00000052 517.24 252.12 384.26 528.49 739.47 451.38 866.36 456.74 846.19 573.18 731.58 650.96 818.56 655.64
00003238 00000053 517.48 254.95 383.54 524.18 736.87 443.95 865.36 450.14 845.15 566.88 730.60 646.05 817.87 650.97
00003239 00000054 517.23 247.85 383.70 521.84 737.76 435.31 866.43 441.95 847.65 558.03 736.09 639.84 822.02 644.42
00003240 00000055 518.47 234.14 381.15 523.73 736.62 424.51 864.03 430.71 847.96 544.08 741.33 633.09 825.41 636.98
00003241 00000056 528.87 235.38 374.79 514.92 734.02 428.02 877.00 434.39 858.03 541.41 737.59 634.66 836.26 641.38
00003242 00000057 528.01 238.74 374.16 516.57 734.87 426.86 874.96 434.97 857.97 539.87 733.25 632.52 832.05 641.27
00003243 00000058 514.86 243.64 385.02 527.90 735.15 434.96 865.87 444.07 847.52 555.43 730.20 635.53 823.10 642.98
00003244 00000059 514.74 251.87 385.03 527.52 736.05 448.46 865.97 453.39 846.62 567.90 732.87 647.73 822.86 651.66
00003245 00000060 514.48 248.08 383.97 532.94 736.13 455.15 865.31 457.57 849.52 569.25 736.84 651.73 827.17 653.91
00003246 00000061 509.63 252.67 386.75 528.04 733.36 451.99 864.65 456.38 845.00 569.43 734.11 651.40 825.23 654.79
00003247 00000062 506.61 253.38 388.40 525.18 728.99 444.52 863.12 454.53 841.62 563.36 727.97 645.03 823.13 653.00
00003248 00000063 515.01 248.77 377.54 523.19 720.78 441.24 865.22 449.06 846.02 550.33 718.75 646.04 820.64 654.31
00003249 00000064 502.25 249.48 380.18 525.23 710.85 443.70 850.00 449.54 833.28 550.85 708.66 646.49 805.37 652.89
00003250 00000065 488.62 255.99 381.60 515.68 700.97 443.05 836.04 447.32 822.66 554.47 696.03 643.52 788.60 648.25
00003251 00000066 482.78 252.01 382.54 513.84 695.36 440.28 832.69 447.50 816.98 550.88 691.71 639.94 786.47 646.26
00003252 00000067 483.19 253.25 381.66 515.62 694.73 438.11 831.88 448.76 814.18 550.63 690.19 639.61 786.02 648.75
00003253 00000068 479.73 253.39 383.19 521.68 693.44 440.84 827.33 454.94 808.26 551.35 688.88 640.35 782.97 651.85
00003254 00000069 481.23 258.56 382.45 519.80 689.45 448.65 829.46 461.74 805.24 557.54 688.30 645.23 787.35 656.00
00003255 00000070 481.76 265.59 378.24 519.27 690.30 460.32 829.32 472.53 806.40 567.90 687.85 651.49 786.38 661.80
00003256 00000071 477.75 271.36 382.61 520.48 689.72 469.62 829.49 480.27 805.86 577.67 685.37 657.19 784.31 666.15
00003257 00000072 476.95 270.32 380.44 522.82 686.95 472.44 827.87 481.12 805.66 578.46 685.20 659.73 785.43 667.27
00003258 00000073 477.52 271.36 377.19 514.22 684.10 468.84 825.23 477.95 802.69 570.01 687.02 654.77 788.86 662.35
00003259 00000074 470.42 259.70 376.46 516.90 678.43 458.67 818.01 467.68 798.91 559.37 687.59 648.95 785.26 655.83
00003260 DELETE   467.28 247.08 376.59 516.11 677.54 443.97 809.88 453.57 798.59 542.26 689.34 634.47 783.92 641.78
00003261 DELETE   462.30 233.28 372.62 517.12 674.84 445.51 797.23 451.99 794.20 532.28 689.13 622.50 779.97 628.10
00003262 DELETE   453.57 219.58 382.39 520.50 663.86 435.14 801.99 437.93 791.48 526.27 679.08 611.77 780.85 614.49
00003263 00000078 453.36 218.34 384.04 525.61 664.18 426.00 802.48 431.24 791.07 525.35 673.28 607.59 779.37 612.52
00003264 00000079 454.55 221.41 383.97 529.58 663.97 424.41 801.73 429.57 793.76 526.70 664.61 608.68 776.02 614.38
00003265 DELETE   456.51 229.65 386.38 527.83 665.43 430.90 805.50 434.17 797.42 532.89 661.64 612.60 777.07 617.24
00003266 00000081 458.84 242.60 384.08 522.76 670.41 435.98 805.11 446.06 796.29 537.62 664.99 618.26 775.90 628.03
00003267 00000082 460.24 247.36 387.97 527.71 676.45 446.08 810.10 453.86 805.35 544.32 669.04 625.46 780.63 634.29
00003268 00000083 464.51 247.54 386.17 529.00 679.11 450.94 814.32 455.18 810.29 548.17 674.06 633.39 783.82 639.31
00003269 00000084 467.19 245.99 384.03 524.85 680.40 450.49 816.52 453.78 811.83 544.42 680.09 633.07 789.00 637.76
00003270 00000085 468.37 241.90 386.00 525.79 680.27 446.83 820.19 454.64 811.45 539.29 685.21 631.40 793.90 639.09
00003271 00000086 466.85 241.30 388.12 529.13 678.93 444.55 818.15 452.66 808.86 537.65 684.51 630.69 792.22 638.47
00003272 00000087 467.13 238.29 390.65 532.61 679.57 440.73 820.30 450.22 809.63 536.50 683.88 629.79 792.38 638.60
00003273 00000088 473.38 239.49 390.63 527.29 687.11 438.28 826.59 449.47 814.51 535.36 685.85 624.15 795.73 634.83
00003274 00000089 477.23 238.58 386.78 525.36 689.66 445.08 829.69 457.73 819.22 532.87 686.18 618.95 802.18 631.68
00003275 00000090 481.42 222.85 383.20 531.02 687.30 421.81 829.01 437.52 817.90 522.72 682.99 607.50 803.71 622.81
00003276 00000091 478.87 225.65 382.53 517.26 680.24 408.99 832.81 425.59 812.40 521.29 672.84 602.97 807.91 618.52
00003277 00000092 472.67 219.14 385.87 521.13 673.39 402.33 828.86 417.05 807.40 511.54 667.72 598.35 808.64 612.36
00003278 00000093 470.17 216.64 385.34 519.15 667.96 399.80 822.96 410.79 803.72 504.10 666.42 593.88 808.86 604.67
00003279 00000094 467.61 208.05 387.57 531.59 663.51 408.98 818.18 424.45 803.58 492.25 669.63 586.58 802.71 600.14
00003280 00000095 468.40 204.39 386.10 532.71 662.92 406.45 818.53 422.94 803.48 489.43 668.69 584.81 802.81 599.26
00003281 00000096 468.36 205.31 386.76 529.63 662.92 406.01 819.05 423.98 802.74 487.07 668.98 582.48 803.12 598.02
00003282 00000097 469.95 199.81 387.36 534.65 663.50 403.93 821.80 423.99 803.23 483.75 669.29 580.82 804.89 597.79
00003283 00000098 471.84 200.08 385.64 536.15 667.12 403.63 820.92 423.64 805.54 483.43 675.89 582.65 805.00 599.31
00003284 00000099 475.25 201.67 382.85 543.28 671.19 388.90 815.29 416.91 806.37 479.95 690.20 588.21 804.64 611.44
00003285 00000100 477.90 198.05 374.66 550.63 673.77 398.94 815.26 419.36 807.81 481.04 692.55 593.35 806.60 609.56
00003286 00000101 478.27 195.43 374.38 542.10 672.86 404.08 814.94 419.35 808.61 478.18 704.90 592.04 815.59 603.73
00003287 00000102 480.86 194.23 375.99 532.56 677.35 404.65 819.64 417.79 813.35 475.58 713.09 587.35 823.55 597.31
00003288 00000103 484.58 196.31 372.64 530.70 678.68 405.31 822.88 417.96 817.39 475.74 714.77 588.63 826.63 598.36
00003289 00000104 490.31 202.37 366.17 532.52 681.50 398.25 820.61 411.33 821.38 480.94 722.54 597.89 824.37 608.47
00003290 00000105 495.64 208.82 363.95 527.96 686.51 405.67 825.74 417.51 824.00 487.63 725.88 604.22 827.97 613.72
00003291 00000106 501.28 210.39 361.20 529.07 692.42 410.66 830.90 421.17 827.24 495.73 729.00 611.56 829.26 620.54
00003292 00000107 503.05 213.18 361.36 531.50 695.22 418.77 830.17 425.31 829.51 504.87 733.39 619.73 830.55 625.64
00003293 00000108 502.46 214.07 360.37 530.94 693.59 424.03 827.97 424.18 829.01 508.68 736.87 625.96 831.72 626.52
00003294 00000109 496.63 216.06 366.38 527.65 689.16 420.28 828.42 421.24 828.94 506.39 735.41 624.21 831.28 624.42
00003295 00000110 495.59 214.43 366.57 528.70 684.88 417.58 822.95 416.93 823.35 501.91 732.83 620.87 828.59 619.75
00003296 00000111 491.36 213.16 366.96 529.95 678.79 412.57 813.43 413.30 813.82 494.54 728.52 615.58 821.40 615.60
00003297 00000112 486.41 209.49 367.87 530.71 672.66 413.89 808.09 414.45 807.20 492.63 725.12 613.92 818.16 613.25
00003298 00000113 478.44 207.48 373.50 530.09 664.25 425.68 805.21 423.83 798.41 493.74 715.47 612.13 816.55 609.80
00003299 00000114 474.01 206.08 376.45 534.95 657.66 426.16 799.06 423.25 791.09 496.22 708.68 616.28 809.98 613.15
00003300 00000115 471.13 206.84 376.34 531.34 655.08 431.19 794.70 426.39 788.00 501.21 710.02 617.88 807.92 613.02
00003301 00000116 469.31 210.63 377.46 529.73 651.54 433.94 791.02 426.61 783.01 505.96 706.44 620.89 804.29 614.15
00003302 00000117 466.79 212.88 377.32 525.59 647.62 437.86 788.89 426.08 778.87 514.42 703.94 625.85 800.32 615.64
00003303 00000118 462.70 217.63 377.43 523.34 645.31 438.62 788.58 425.94 776.31 520.57 697.63 626.73 796.46 616.16
00003304 00000119 458.09 219.10 376.59 526.84 641.49 438.86 782.13 424.12 769.65 522.27 692.61 629.40 790.96 617.26
00003305 00000120 455.97 220.49 376.83 525.56 639.83 435.14 779.29 421.45 767.28 520.56 690.84 628.93 788.15 617.53
00003306 00000121 453.45 221.56 376.50 527.44 636.39 432.26 775.91 418.94 764.41 517.02 687.59 627.99 787.07 616.91
00003307 00000122 467.53 224.48 361.83 521.08 645.15 434.95 779.70 428.23 772.66 513.39 681.72 629.22 781.95 624.70
CROP_BBOX: 260 0 1145 919
