Video ID: 	T09NV2TRap8
H: 	1080
W: 	1920
FPS: 	25.0

FRAME INDEX X0 Y0 W H [Landmarks (5 Points)]

00006156 00000000 719.98 268.29 463.99 606.74 815.29 499.50 1008.13 476.08 904.27 603.20 865.11 723.69 1021.63 704.53
00006157 00000001 717.33 270.07 465.44 607.85 811.32 503.68 1004.62 479.47 898.12 606.09 860.80 727.24 1018.80 707.31
00006158 00000002 716.40 262.77 470.73 615.12 803.73 510.72 995.26 483.41 887.67 614.81 852.76 730.99 1008.18 708.30
00006159 00000003 714.79 267.68 470.81 610.99 800.20 512.92 991.86 486.36 883.15 618.88 849.58 733.31 1004.75 711.16
00006160 00000004 713.60 263.11 472.96 618.86 797.20 513.24 988.72 488.13 878.57 623.94 846.66 735.90 1002.50 714.84
00006161 00000005 714.29 269.36 473.28 619.13 796.54 515.36 988.44 489.35 877.89 626.23 847.10 739.74 1003.87 717.85
00006162 DELETE   715.06 270.55 477.61 629.51 801.31 518.19 990.43 493.12 881.02 629.20 852.51 743.76 1006.22 722.40
00006163 00000007 724.60 277.08 468.08 627.49 812.22 521.57 1003.22 501.33 891.90 628.64 860.42 744.14 1012.67 727.39
00006164 00000008 731.70 283.22 466.59 623.42 817.69 524.74 1016.93 503.17 902.82 632.50 859.47 752.21 1021.67 733.54
00006165 DELETE   738.32 297.95 467.35 607.49 822.38 527.47 1027.12 506.20 908.45 638.45 863.79 756.36 1030.34 737.69
00006166 00000010 741.07 305.75 469.32 606.02 830.41 530.52 1034.53 513.16 916.30 643.66 868.20 757.77 1037.17 741.93
00006167 DELETE   744.82 303.17 475.04 615.41 838.22 531.72 1042.84 516.19 925.12 647.59 877.90 761.93 1043.89 747.44
00006168 00000012 752.14 300.05 478.27 621.87 846.93 531.33 1052.57 516.83 933.24 649.47 886.83 763.79 1052.00 750.18
00006169 DELETE   761.68 303.82 477.37 620.80 853.21 532.19 1057.47 518.05 934.95 653.60 891.89 764.55 1057.44 750.95
00006170 00000014 767.33 304.59 486.07 621.54 857.40 531.25 1060.43 518.76 942.13 663.77 898.80 764.16 1061.11 754.25
00006171 00000015 775.52 297.20 487.45 633.67 864.80 529.93 1063.81 516.07 946.29 660.55 909.06 766.48 1065.38 755.53
00006172 00000016 781.89 294.88 488.97 638.95 873.61 526.72 1072.13 513.11 954.93 657.75 921.05 767.95 1074.30 757.06
00006173 00000017 791.56 295.98 483.98 633.97 881.97 525.82 1083.80 513.52 964.22 656.54 926.19 765.75 1084.32 755.94
00006174 DELETE   796.12 291.22 484.21 630.15 887.70 520.34 1094.06 509.79 972.23 651.94 929.58 759.53 1092.84 751.19
00006175 00000019 793.11 293.69 490.32 629.10 889.08 513.73 1097.22 505.03 974.74 644.52 930.59 754.73 1091.74 747.81
00006176 DELETE   791.09 284.00 489.86 639.53 889.86 508.22 1093.42 502.64 972.42 638.67 928.13 749.65 1088.01 745.06
00006177 00000021 783.12 273.41 494.25 648.42 884.25 504.45 1090.81 499.90 968.45 635.68 920.66 744.20 1084.39 740.45
00006178 00000022 773.38 269.06 499.32 648.06 870.90 498.09 1081.11 489.44 957.69 636.05 907.09 743.19 1075.01 736.39
00006179 00000023 767.04 262.23 499.46 654.86 864.16 494.00 1073.93 484.17 949.36 629.81 898.76 740.65 1068.41 733.10
00006180 00000024 754.57 255.67 507.91 659.98 853.25 491.89 1066.99 478.23 941.20 625.15 887.29 736.98 1065.17 725.90
00006181 DELETE   746.24 235.50 507.87 678.27 845.93 488.11 1061.54 476.18 931.55 618.59 878.57 734.14 1059.06 723.80
00006182 DELETE   738.59 237.57 511.94 676.35 834.17 485.08 1056.01 473.00 921.27 618.32 868.69 735.50 1050.29 725.30
00006183 00000027 729.89 247.60 506.46 667.55 828.28 482.51 1045.69 474.70 916.58 617.88 865.97 732.56 1042.28 725.13
00006184 00000028 715.50 228.63 519.00 684.93 817.59 476.94 1039.90 467.51 909.63 612.95 852.15 729.54 1036.49 721.61
00006185 00000029 708.43 220.40 522.68 691.08 811.69 471.18 1033.95 459.53 904.54 607.15 845.81 724.30 1033.91 714.47
00006186 00000030 707.51 206.95 524.25 699.41 812.21 465.09 1033.90 452.57 904.10 598.72 845.47 717.09 1033.98 706.42
00006187 00000031 705.97 206.01 525.96 697.72 811.74 460.88 1033.79 446.21 905.32 593.12 847.74 713.57 1035.50 700.88
00006188 00000032 703.38 199.95 526.85 700.67 810.99 458.60 1034.41 441.76 906.53 589.35 849.03 712.84 1035.89 698.33
00006189 00000033 698.24 192.58 530.47 711.72 806.83 460.39 1033.28 439.76 905.98 590.75 848.51 717.90 1037.33 700.19
00006190 00000034 693.98 206.19 535.07 707.99 801.95 466.15 1030.58 442.96 904.77 602.00 850.44 729.15 1040.94 709.13
00006191 00000035 695.26 228.21 535.59 699.36 798.55 477.27 1026.53 452.32 899.85 612.99 849.96 741.98 1039.96 720.46
00006192 00000036 692.86 233.46 539.12 697.00 798.13 481.80 1026.61 457.63 901.11 618.84 849.91 743.46 1039.64 722.25
00006193 00000037 691.29 235.04 538.38 689.71 793.68 480.43 1023.89 455.09 896.58 617.88 845.51 740.32 1038.24 718.18
00006194 00000038 682.53 222.08 539.72 693.31 784.84 475.52 1013.03 447.34 886.41 611.16 837.10 734.25 1029.85 709.94
00006195 00000039 677.22 219.00 534.51 688.82 779.31 469.47 1005.09 440.74 879.27 599.70 830.02 724.71 1020.04 700.41
00006196 00000040 670.76 205.38 536.66 695.43 774.41 461.98 998.61 435.99 871.52 593.50 823.81 717.13 1013.12 695.14
00006197 00000041 665.16 197.35 536.42 694.41 770.97 457.49 992.91 434.32 865.78 589.92 818.96 712.87 1002.33 693.60
00006198 00000042 656.59 187.14 536.89 706.55 762.83 455.80 987.84 434.81 856.74 584.67 811.11 710.84 992.19 691.17
00006199 00000043 648.17 184.98 538.02 709.41 755.28 456.19 980.70 433.06 850.64 584.76 804.18 711.69 985.38 690.75
00006200 00000044 642.66 184.19 534.43 706.79 747.31 457.43 972.60 433.41 843.64 587.91 797.14 711.98 978.29 690.68
00006201 00000045 637.97 186.61 531.19 699.99 742.01 455.58 964.77 431.37 836.92 584.89 790.95 709.48 971.81 688.16
00006202 00000046 630.72 190.90 530.13 692.78 735.80 450.19 956.34 425.99 830.95 577.94 786.01 707.00 963.81 685.80
00006203 00000047 621.47 188.87 532.12 691.46 731.22 445.73 948.32 420.96 826.72 568.95 784.56 702.53 956.02 681.00
00006204 00000048 618.69 183.91 531.59 694.20 726.81 442.30 942.32 416.57 821.61 565.91 782.16 700.59 954.65 678.21
00006205 00000049 614.26 183.59 533.42 691.32 723.24 441.61 941.24 415.27 820.63 565.70 779.63 699.67 954.99 676.85
00006206 00000050 611.64 183.15 533.37 687.43 718.49 443.17 937.98 416.92 815.84 567.23 773.52 698.84 950.73 676.36
00006207 00000051 607.87 183.61 533.71 687.28 713.63 441.68 933.10 417.15 809.54 568.12 767.55 696.17 946.87 675.17
00006208 00000052 605.21 185.12 533.10 688.36 710.92 441.05 929.02 417.10 805.28 567.57 765.41 697.72 939.66 677.47
00006209 00000053 604.20 186.49 532.66 691.63 710.54 441.31 926.34 416.65 803.68 567.84 766.22 700.25 937.25 679.41
00006210 00000054 604.28 188.74 532.50 692.57 709.76 443.89 924.76 418.36 802.07 570.04 763.88 702.55 937.61 681.02
00006211 00000055 604.15 188.99 532.09 689.44 708.87 444.11 924.30 418.04 801.60 569.66 763.72 701.96 936.48 679.99
00006212 00000056 605.67 189.84 531.60 686.76 709.36 442.82 924.74 416.77 802.18 569.00 765.85 700.14 939.85 678.02
00006213 00000057 607.71 185.31 533.49 692.93 712.61 441.86 929.20 415.10 806.53 567.36 768.80 699.60 945.10 676.67
00006214 00000058 610.40 184.11 535.16 693.24 716.18 440.64 933.53 413.69 811.20 566.12 773.46 699.72 950.82 676.44
00006215 00000059 617.42 180.30 532.52 697.42 724.16 442.05 940.03 414.24 819.43 565.66 781.58 700.35 957.48 676.14
00006216 00000060 626.72 181.27 532.83 699.07 732.63 441.89 950.89 414.69 828.59 565.49 789.69 700.47 967.95 676.08
00006217 00000061 634.53 182.89 532.49 698.32 741.63 443.41 962.43 416.68 838.64 565.14 795.88 700.28 976.62 676.02
00006218 00000062 644.09 174.31 536.29 709.36 752.01 443.53 973.56 415.93 849.06 562.73 805.98 701.77 986.21 676.75
00006219 00000063 653.09 173.71 537.38 714.11 760.75 443.67 981.99 415.42 857.03 563.90 815.11 702.58 996.59 676.83
00006220 00000064 662.39 175.65 537.33 711.54 771.58 441.28 993.60 416.62 866.36 563.58 823.54 701.48 1003.59 678.54
00006221 00000065 672.00 182.67 537.89 699.00 779.85 436.06 999.72 408.78 875.88 558.80 835.84 695.92 1014.99 672.59
00006222 00000066 681.12 178.04 536.36 696.02 788.86 434.23 1012.32 407.60 888.61 557.04 845.14 693.42 1028.00 670.17
00006223 00000067 694.00 170.22 530.07 697.68 803.52 431.67 1027.31 408.87 903.57 554.52 855.00 688.59 1035.17 668.67
00006224 00000068 703.14 153.38 535.51 709.02 811.45 428.06 1039.59 401.86 911.75 545.62 859.93 682.96 1046.14 660.24
00006225 00000069 714.63 148.01 533.28 713.77 820.43 423.57 1045.96 392.91 919.55 535.55 869.92 679.00 1055.82 652.61
00006226 00000070 717.97 135.78 536.95 718.90 825.53 417.48 1050.64 385.40 925.36 526.83 875.11 671.54 1063.23 643.59
00006227 00000071 723.83 126.18 535.34 719.16 831.94 412.01 1056.20 378.46 931.14 515.80 879.59 662.93 1065.92 633.59
00006228 00000072 725.77 118.70 535.42 721.04 837.73 405.72 1060.13 375.55 935.21 509.08 882.76 654.71 1065.11 628.13
00006229 00000073 729.78 123.52 532.43 711.84 841.41 402.48 1063.59 372.18 940.00 504.82 888.26 650.67 1070.52 624.00
00006230 00000074 735.37 124.04 528.74 710.61 848.15 402.64 1068.87 372.48 947.42 503.26 895.52 650.64 1075.97 624.07
00006231 00000075 741.06 122.79 528.28 714.96 854.84 405.19 1075.97 375.44 954.77 506.66 901.23 654.15 1081.40 628.10
00006232 00000076 747.90 120.92 530.86 722.49 861.47 411.13 1080.69 372.78 961.74 509.41 910.20 660.24 1097.24 627.84
00006233 00000077 750.81 131.60 533.10 718.51 862.78 411.59 1083.59 372.99 964.03 511.84 913.95 665.12 1100.55 632.47
00006234 00000078 751.55 136.51 533.32 713.68 862.07 413.16 1084.28 376.45 963.18 516.62 913.08 666.51 1100.02 635.50
00006235 00000079 751.92 139.76 530.89 708.23 859.61 414.51 1081.09 378.99 958.71 518.40 907.98 664.30 1096.05 634.41
00006236 00000080 751.25 132.15 530.05 710.82 858.83 413.08 1078.75 379.15 954.72 515.64 904.35 661.17 1089.21 633.00
00006237 00000081 750.89 127.24 527.76 704.49 856.83 411.91 1074.28 377.26 950.94 511.54 902.69 656.65 1086.01 627.85
00006238 00000082 746.95 126.84 529.10 699.80 851.18 407.89 1069.50 374.24 944.77 510.36 897.27 652.46 1080.84 624.47
00006239 00000083 742.81 129.80 530.03 701.32 845.98 407.62 1065.19 374.23 939.42 512.75 891.90 654.70 1075.52 627.02
00006240 00000084 737.97 142.21 534.79 698.81 841.60 409.67 1062.27 379.03 933.68 518.83 888.52 663.27 1066.64 638.21
00006241 00000085 731.44 156.14 538.87 696.27 831.97 415.91 1058.45 386.19 926.01 528.07 878.81 673.59 1060.77 649.17
00006242 00000086 736.18 151.86 524.17 715.50 832.01 424.83 1055.06 398.68 921.24 545.56 879.36 683.47 1057.71 661.61
00006243 00000087 719.77 167.50 538.50 707.67 828.41 433.82 1051.73 412.88 919.79 554.20 876.82 692.80 1050.59 674.15
00006244 00000088 720.20 177.78 534.70 711.85 831.10 445.44 1048.53 425.68 920.08 567.46 876.71 704.76 1045.60 687.29
00006245 00000089 719.06 188.72 539.76 713.29 827.86 453.20 1052.96 435.86 919.62 585.28 872.32 712.79 1048.90 697.39
00006246 00000090 720.57 198.90 541.99 711.58 825.55 460.69 1055.58 444.66 919.24 598.72 872.40 724.03 1050.62 710.09
00006247 00000091 723.15 211.02 544.29 706.62 827.53 466.57 1058.82 449.64 922.62 607.29 876.20 730.59 1058.51 715.73
00006248 00000092 726.01 219.96 545.42 705.79 829.47 473.02 1059.68 452.56 927.60 618.30 879.88 742.03 1065.40 725.21
00006249 00000093 735.88 220.45 543.02 709.88 839.15 476.12 1065.03 458.12 933.88 626.52 887.40 745.88 1069.45 731.06
00006250 00000094 745.50 224.36 539.78 705.16 849.63 478.80 1075.12 460.72 945.55 626.40 897.20 745.31 1078.87 730.38
00006251 00000095 752.71 231.13 542.49 696.44 856.07 476.96 1085.08 460.26 953.54 626.69 905.07 744.11 1089.33 730.08
00006252 00000096 760.89 223.19 539.90 700.78 864.88 473.91 1095.61 460.89 962.95 624.36 911.09 740.88 1096.52 729.73
00006253 00000097 767.33 220.04 537.36 703.35 872.07 474.35 1102.06 462.60 970.47 624.18 916.98 739.93 1102.10 729.86
00006254 00000098 769.12 217.32 541.19 709.09 877.17 472.08 1109.22 462.07 976.73 622.86 921.10 738.91 1107.95 730.25
00006255 00000099 772.73 214.97 539.60 710.84 881.42 468.99 1112.78 459.01 981.08 619.04 923.77 735.22 1112.15 726.53
00006256 00000100 775.06 207.15 538.68 715.73 884.08 462.01 1114.73 450.93 983.62 610.88 926.46 729.55 1116.69 719.77
00006257 00000101 774.67 201.06 536.95 713.00 887.19 456.95 1117.60 444.96 988.16 603.39 927.22 721.72 1118.78 711.07
00006258 00000102 774.25 186.53 538.07 723.67 890.00 451.11 1120.25 439.17 990.70 595.87 928.28 716.33 1119.26 705.65
00006259 00000103 774.93 188.15 535.16 717.22 891.39 449.46 1120.69 436.68 992.16 589.81 929.23 712.60 1117.74 701.21
00006260 00000104 774.70 187.53 534.15 716.34 892.01 447.87 1120.04 434.07 992.67 585.39 929.50 711.09 1117.56 698.82
00006261 00000105 773.20 184.84 534.66 719.78 891.90 446.26 1119.15 432.52 992.83 584.36 929.19 710.26 1118.18 697.92
00006262 00000106 773.20 183.20 533.46 723.42 891.40 447.49 1117.57 433.97 991.43 585.35 928.00 711.33 1117.29 699.19
00006263 00000107 770.85 181.96 534.65 726.36 889.34 449.92 1116.47 436.56 990.34 590.12 926.12 712.93 1117.58 700.90
00006264 00000108 771.01 184.25 535.04 725.55 887.55 452.92 1115.79 438.82 988.74 594.26 924.43 715.91 1118.36 703.30
00006265 00000109 769.78 190.92 535.64 718.95 884.97 455.82 1113.64 441.04 986.67 597.41 922.95 716.47 1117.33 703.30
00006266 00000110 766.85 186.49 535.30 721.11 883.03 454.44 1110.39 438.13 984.77 594.07 923.57 715.27 1115.75 700.75
00006267 00000111 763.48 182.99 536.02 720.13 881.30 451.31 1106.07 431.78 982.49 585.46 924.00 711.30 1112.43 694.07
00006268 00000112 760.86 188.66 534.21 706.09 875.95 448.60 1096.81 422.62 976.34 572.43 923.24 704.41 1111.00 681.30
00006269 00000113 755.49 183.65 535.98 701.97 867.86 442.69 1088.07 415.10 967.52 565.33 919.61 699.29 1105.55 674.95
00006270 00000114 750.36 178.24 537.18 702.19 861.05 438.31 1083.87 410.57 961.48 561.09 913.47 694.39 1101.62 670.15
00006271 00000115 744.73 173.79 538.01 704.67 856.63 437.43 1081.22 409.52 958.71 559.40 909.03 692.37 1099.00 668.04
00006272 00000116 744.11 176.89 537.89 697.97 853.49 437.69 1076.77 408.25 955.17 560.28 908.50 691.50 1096.82 665.92
00006273 00000117 741.22 176.25 537.91 698.60 851.44 437.07 1073.47 408.43 952.34 560.55 906.59 691.15 1093.13 666.40
00006274 00000118 736.99 179.89 543.08 689.50 842.26 441.03 1068.98 403.18 945.76 560.08 900.17 692.28 1087.88 659.80
00006275 00000119 735.30 170.28 544.07 693.86 838.52 439.17 1067.03 399.17 941.70 554.30 895.39 687.95 1086.94 653.71
00006276 00000120 729.79 164.15 548.29 698.27 831.67 433.59 1061.55 390.45 935.70 547.33 889.92 683.27 1087.23 646.35
00006277 00000121 722.09 159.32 553.02 695.08 825.70 427.60 1051.52 379.02 930.34 535.98 890.69 678.44 1084.74 637.09
00006278 00000122 717.22 154.31 553.35 695.42 820.75 426.43 1044.30 374.60 925.71 531.60 889.69 675.91 1081.96 631.56
00006279 00000123 716.98 146.25 544.83 702.42 823.90 426.12 1046.25 378.18 929.72 531.06 889.69 673.24 1078.09 631.39
00006280 00000124 714.84 149.04 544.42 702.24 822.21 426.55 1043.42 379.00 927.56 530.98 888.05 675.54 1075.10 634.01
00006281 00000125 714.28 149.24 541.53 698.97 819.14 426.88 1041.39 382.74 922.57 534.72 882.88 676.05 1067.87 637.56
00006282 00000126 709.84 152.02 541.56 692.51 815.46 427.05 1039.55 383.77 919.35 535.07 878.71 675.85 1065.38 638.04
00006283 00000127 705.52 146.27 543.01 705.33 814.47 419.61 1033.06 378.53 914.63 528.17 878.00 674.21 1055.53 638.51
00006284 00000128 701.90 136.70 541.65 714.42 808.74 414.98 1028.76 370.71 909.83 520.18 870.53 667.75 1055.79 629.04
00006285 00000129 691.48 122.87 543.51 720.96 799.96 412.08 1019.88 366.30 898.76 512.55 859.09 663.95 1044.94 624.38
00006286 00000130 681.03 129.87 546.09 715.92 787.65 416.62 1005.99 369.76 884.14 515.28 846.24 664.47 1035.05 624.14
00006287 DELETE   670.43 140.74 547.73 712.87 774.79 423.16 988.88 378.24 867.17 524.50 832.97 669.71 1017.84 631.51
00006288 00000132 659.83 165.67 553.20 697.48 758.22 431.84 977.14 384.95 852.71 538.86 821.25 680.16 1011.15 640.20
00006289 00000133 653.26 158.18 547.50 705.94 757.01 451.79 974.77 403.56 850.29 548.34 820.59 692.05 1003.23 650.49
00006290 DELETE   647.44 168.73 546.73 705.22 751.20 461.78 970.83 414.68 848.09 559.91 813.79 700.18 1001.35 659.34
00006291 DELETE   641.70 179.99 548.28 700.09 746.25 457.60 968.92 414.52 843.14 564.03 810.93 704.05 997.23 664.88
00006292 DELETE   642.02 185.27 550.11 697.64 748.19 456.66 971.22 415.26 846.66 566.17 813.48 704.24 999.36 666.32
00006293 00000137 649.93 177.19 548.24 699.04 754.93 448.61 978.75 410.98 850.25 562.86 817.90 699.93 1003.62 665.07
00006294 00000138 656.94 174.43 554.06 696.40 755.29 442.21 983.00 399.86 853.36 559.16 819.16 694.19 1009.23 657.84
00006295 00000139 658.54 168.05 560.32 698.44 764.06 433.34 994.85 394.32 865.68 552.73 825.14 687.67 1017.08 654.09
00006296 00000140 668.15 163.83 556.76 703.67 772.95 429.14 1001.19 392.30 872.83 551.03 831.00 684.86 1023.99 653.16
00006297 00000141 671.84 160.60 557.92 718.64 779.42 432.29 1006.79 396.58 878.95 553.70 837.16 688.99 1029.31 658.06
00006298 00000142 675.52 172.50 546.32 707.98 784.80 433.56 1010.30 403.50 886.09 557.21 843.38 690.80 1033.70 664.24
00006299 00000143 678.31 160.07 554.55 716.11 785.18 430.03 1014.20 397.66 884.43 552.63 840.79 689.74 1031.16 661.61
00006300 00000144 685.72 153.63 548.55 712.15 791.89 421.80 1020.51 391.60 890.69 544.66 844.84 680.97 1034.86 654.71
00006301 00000145 690.86 149.82 542.43 705.95 797.75 416.29 1024.68 386.58 898.16 535.84 850.91 675.14 1037.20 649.36
00006302 00000146 695.00 144.96 539.20 703.08 800.26 413.07 1029.61 384.90 901.48 534.30 850.58 670.74 1037.55 646.49
00006303 00000147 696.08 144.49 538.94 703.17 802.09 411.25 1031.02 385.41 902.31 534.74 850.70 670.88 1036.32 648.73
00006304 00000148 696.94 147.69 539.47 708.05 803.91 411.77 1029.20 386.93 900.69 532.74 853.63 673.17 1033.44 651.97
00006305 00000149 696.87 151.91 539.60 707.00 804.29 411.74 1028.68 386.26 901.28 532.49 853.52 672.11 1035.89 650.22
00006306 00000150 695.66 149.15 540.02 707.85 803.41 410.77 1028.63 384.28 901.83 531.48 853.61 670.03 1038.16 647.20
00006307 00000151 695.72 140.41 537.24 708.25 802.31 409.08 1028.08 381.86 901.06 529.37 851.32 665.96 1039.17 642.41
00006308 00000152 695.87 136.40 536.57 708.25 799.84 408.17 1028.26 379.75 899.34 529.09 846.86 662.72 1042.72 637.86
00006309 00000153 696.74 137.03 535.52 705.68 800.31 407.80 1028.26 379.21 899.87 528.87 846.56 660.47 1043.72 635.41
00006310 00000154 695.27 141.09 535.79 702.05 799.33 407.96 1027.23 377.84 900.38 529.92 847.80 660.70 1045.22 634.28
00006311 00000155 694.53 146.86 536.48 697.18 798.05 408.98 1026.21 378.23 899.73 531.97 847.23 661.23 1045.15 634.33
00006312 00000156 692.32 152.41 539.30 695.12 795.23 411.92 1025.74 380.98 898.83 538.43 846.19 666.06 1045.84 638.92
00006313 00000157 690.27 155.59 540.81 694.54 793.97 414.20 1024.73 384.03 897.28 541.62 845.28 668.45 1044.34 641.89
00006314 00000158 690.38 155.15 539.64 694.35 793.04 413.26 1023.39 382.50 895.95 540.00 844.03 667.25 1043.27 640.27
00006315 00000159 689.45 150.53 538.49 696.42 792.09 409.69 1020.46 377.38 894.36 533.95 842.69 663.09 1041.14 634.87
00006316 00000160 689.13 140.82 536.38 701.74 791.19 407.06 1017.30 372.77 892.31 527.73 841.15 658.43 1039.22 628.65
00006317 00000161 686.18 130.12 536.83 708.36 789.37 403.21 1015.37 368.31 888.79 519.92 838.07 654.18 1035.11 624.11
00006318 00000162 682.32 120.09 538.94 714.20 788.25 399.92 1013.81 364.80 887.83 515.27 837.86 650.38 1032.79 620.15
00006319 00000163 681.14 118.97 538.13 714.19 787.59 397.40 1012.20 362.54 886.75 513.46 837.35 648.23 1032.02 618.26
00006320 00000164 681.88 117.79 536.33 712.60 789.20 396.88 1012.32 362.95 887.39 510.98 837.48 646.26 1030.61 617.22
00006321 00000165 683.68 116.97 535.10 711.90 790.91 396.74 1014.20 363.12 889.47 510.65 838.26 645.70 1031.41 617.00
00006322 00000166 685.95 114.56 533.91 714.49 792.85 397.17 1017.27 363.81 892.02 511.21 839.39 646.74 1033.51 618.19
00006323 00000167 687.07 118.95 533.42 708.29 793.49 398.41 1019.00 364.14 894.37 512.03 840.32 646.73 1035.51 617.40
00006324 00000168 691.00 122.42 532.41 704.55 795.75 399.97 1023.56 365.37 897.92 513.39 843.50 649.07 1038.72 619.42
