Video ID: 	lAhcCKqHaiU
H: 	1080
W: 	1920
FPS: 	25.0

FRAME INDEX X0 Y0 W H [Landmarks (5 Points)]

00003001 00000000 742.41 234.93 346.02 519.94 845.54 449.07 1000.75 435.80 949.38 564.72 886.60 644.77 1001.15 634.13
00003002 00000001 749.81 233.37 346.64 522.02 852.61 450.38 1008.96 440.63 958.58 563.62 890.43 643.90 1007.64 636.45
00003003 00000002 753.43 229.33 348.30 526.23 858.20 450.74 1017.21 443.71 965.52 563.75 894.47 645.86 1013.02 640.97
00003004 DELETE   757.71 238.77 349.51 522.52 861.35 458.99 1022.96 446.82 962.02 566.50 897.50 644.94 1024.43 634.82
00003005 00000004 760.88 237.64 350.94 521.60 865.68 454.47 1027.93 443.61 965.37 562.41 898.53 640.14 1028.12 631.17
00003006 00000005 765.22 237.99 344.62 514.47 872.29 443.83 1035.05 442.80 968.44 554.27 891.21 627.71 1028.65 628.19
00003007 DELETE   766.83 237.67 341.21 516.67 877.09 450.70 1034.70 449.28 970.44 551.66 895.09 629.21 1027.88 629.78
00003008 DELETE   768.54 237.36 338.92 519.29 878.22 452.54 1033.68 449.88 970.98 551.08 894.45 629.05 1029.04 628.21
00003009 DELETE   768.13 237.85 339.75 517.09 877.35 449.09 1036.30 448.01 971.79 550.93 893.92 628.27 1029.20 628.84
00003010 00000009 767.56 235.00 341.46 519.02 877.56 445.22 1038.87 446.70 972.97 552.01 894.33 627.43 1029.56 630.24
00003011 00000010 766.64 234.42 342.58 515.18 876.86 444.27 1039.10 444.82 973.52 552.21 896.00 627.67 1029.29 629.93
00003012 00000011 767.22 235.75 341.79 511.57 876.63 444.15 1038.04 442.88 973.33 552.28 897.18 626.59 1030.50 627.10
00003013 00000012 765.66 235.24 342.75 512.71 875.79 443.09 1037.05 441.15 972.30 551.22 897.43 625.95 1030.93 625.77
00003014 00000013 764.35 236.60 342.95 508.96 875.29 443.24 1033.75 439.27 971.16 547.64 899.88 624.70 1030.48 622.56
00003015 00000014 762.56 234.09 342.51 512.42 873.38 444.03 1030.54 438.69 968.23 548.05 900.10 626.02 1029.82 622.65
00003016 00000015 756.82 232.15 348.92 519.87 863.22 453.98 1024.52 436.91 966.66 559.46 903.48 638.54 1030.26 624.43
00003017 00000016 754.07 232.81 349.49 518.63 860.30 454.78 1021.69 437.68 964.31 559.75 900.96 637.46 1028.52 623.33
00003018 00000017 752.29 231.90 350.07 522.75 858.33 453.40 1019.78 437.43 962.35 559.46 899.37 639.06 1025.76 626.02
00003019 00000018 755.07 227.87 345.48 521.89 855.62 445.53 1014.22 431.15 964.90 555.25 894.55 638.71 1017.20 628.28
00003020 00000019 752.39 229.94 345.19 520.03 852.78 443.99 1012.03 429.70 962.45 555.06 891.19 637.63 1014.92 627.08
00003021 00000020 750.93 229.81 344.98 517.91 849.56 443.46 1009.14 427.92 959.05 554.24 889.75 637.22 1013.72 625.39
00003022 00000021 748.57 230.12 343.88 514.51 846.84 442.98 1005.96 426.61 955.12 553.32 888.10 635.63 1011.52 623.03
00003023 00000022 748.08 229.44 342.89 515.87 845.79 443.38 1003.87 426.80 953.61 553.44 886.95 635.78 1009.94 622.70
00003024 00000023 745.72 232.62 343.61 513.08 845.44 444.21 1001.79 426.83 952.44 553.39 887.60 635.73 1008.95 622.03
00003025 00000024 744.79 232.14 344.47 512.77 844.60 444.11 1001.17 425.31 951.85 553.39 887.45 635.69 1008.92 620.79
00003026 00000025 743.46 233.24 344.75 510.64 844.44 444.03 1000.10 423.80 951.58 552.06 886.80 634.76 1007.85 618.81
00003027 00000026 742.47 233.61 344.79 512.32 844.20 443.78 999.02 423.88 951.10 551.68 887.12 635.19 1006.93 619.40
00003028 00000027 741.26 234.98 345.14 511.54 843.93 444.18 998.85 424.97 950.57 552.34 885.62 634.96 1006.15 619.74
00003029 00000028 739.73 236.18 344.96 509.16 843.38 444.89 998.50 425.22 949.97 552.91 884.88 634.25 1005.99 618.68
00003030 00000029 738.47 238.16 346.55 509.34 841.69 446.69 997.64 426.25 948.23 553.57 883.53 636.04 1005.81 619.68
00003031 00000030 737.81 238.41 345.65 513.88 839.76 447.23 997.05 427.21 945.95 555.18 883.65 640.57 1004.06 624.33
00003032 00000031 737.64 238.85 343.56 516.98 840.10 448.05 996.60 429.69 944.79 557.58 881.65 643.26 1000.14 628.59
00003033 00000032 737.46 240.73 342.70 516.60 839.28 447.65 996.60 430.17 943.55 559.51 880.19 644.34 998.82 630.47
00003034 00000033 736.82 240.30 342.35 517.53 837.94 448.25 995.25 430.92 942.05 560.09 879.93 645.53 997.03 631.80
00003035 00000034 736.32 240.34 342.50 519.58 836.89 449.34 994.36 432.58 940.31 561.50 877.65 646.22 996.29 632.93
00003036 00000035 735.70 239.83 342.90 521.98 834.54 451.43 992.88 433.21 938.83 563.39 877.31 648.84 997.09 634.41
00003037 00000036 734.79 240.91 343.65 521.71 832.43 452.47 991.75 434.12 937.04 564.61 873.66 648.14 997.85 633.48
00003038 00000037 734.28 242.16 343.40 521.16 829.55 454.20 989.81 437.04 933.59 568.39 869.71 649.47 995.92 635.80
00003039 00000038 733.41 247.54 342.37 516.06 828.27 457.97 989.05 442.53 930.00 576.26 867.13 651.40 993.76 639.41
00003040 00000039 732.01 250.96 341.72 514.81 826.23 463.31 986.78 447.40 925.90 583.25 866.87 656.40 991.17 644.10
00003041 00000040 731.43 252.71 341.11 515.61 824.11 466.72 984.15 450.32 921.90 591.38 866.48 659.88 990.39 647.03
00003042 00000041 729.65 255.23 342.07 516.69 823.22 468.17 982.85 452.61 919.93 594.18 865.48 662.66 987.83 650.45
00003043 00000042 727.69 254.69 342.69 519.23 821.59 468.10 981.25 453.47 917.85 594.53 864.49 665.01 985.34 653.42
00003044 00000043 727.62 253.71 342.27 518.22 821.50 466.00 981.00 452.11 917.32 591.81 862.97 663.16 983.29 652.31
00003045 00000044 727.22 251.03 342.58 519.50 820.45 463.17 980.68 449.75 917.38 588.60 861.12 660.66 983.55 650.28
00003046 00000045 726.13 250.38 343.39 520.81 820.41 462.34 981.32 448.38 919.00 586.45 858.78 658.11 985.13 647.33
00003047 00000046 726.23 249.09 343.40 520.86 820.02 461.49 980.65 447.64 918.71 584.50 857.41 656.02 985.17 645.37
00003048 00000047 726.10 247.72 342.94 521.74 820.07 460.22 980.70 447.28 918.25 583.46 855.86 655.81 983.00 645.91
00003049 00000048 725.92 248.11 342.74 523.01 820.06 459.75 980.34 447.79 916.99 584.62 854.81 655.12 982.37 645.94
00003050 00000049 725.46 248.79 341.55 520.60 820.17 460.52 980.43 448.36 917.21 585.58 854.06 654.12 982.75 644.92
00003051 00000050 725.16 248.74 342.05 521.26 820.81 459.61 981.29 447.80 918.25 585.27 854.86 653.39 983.82 644.49
00003052 00000051 725.28 248.29 341.82 522.54 821.33 458.60 981.18 447.27 918.53 583.86 856.93 654.52 983.51 645.94
00003053 00000052 725.05 248.35 341.44 522.71 822.43 458.50 982.40 446.99 920.79 582.67 857.70 655.31 983.30 646.72
00003054 00000053 724.31 246.71 341.76 525.08 822.25 457.92 982.48 446.42 921.19 581.64 856.21 654.86 983.01 646.29
00003055 00000054 723.32 245.48 342.39 526.28 821.37 457.38 982.33 445.84 921.17 580.79 857.25 656.56 983.06 647.82
00003056 00000055 723.13 246.61 341.82 522.68 821.35 458.01 981.38 446.10 920.55 581.63 858.64 657.49 981.00 648.52
00003057 00000056 722.60 249.12 342.26 519.30 821.59 459.32 981.08 447.17 920.68 583.56 859.85 657.61 980.65 648.50
00003058 00000057 721.60 250.86 343.24 517.44 820.56 460.33 980.54 447.77 919.56 584.43 860.02 657.90 980.86 648.39
00003059 00000058 721.09 251.37 343.25 515.52 819.72 461.16 981.36 447.52 920.07 585.32 858.94 658.44 982.82 648.01
00003060 00000059 720.80 252.52 343.29 513.53 819.07 463.48 980.61 449.45 919.14 587.77 857.71 658.72 982.69 647.95
00003061 00000060 720.63 254.33 343.57 512.71 817.73 465.91 979.72 452.00 917.35 590.67 856.61 660.46 982.74 649.73
00003062 00000061 720.86 255.92 343.54 510.79 817.55 467.61 979.34 453.68 916.31 593.22 856.14 661.05 982.31 650.30
00003063 00000062 721.40 257.46 343.77 511.14 818.11 469.18 979.48 455.53 915.70 595.96 856.60 662.02 982.25 651.45
00003064 00000063 721.49 258.37 343.99 512.39 818.46 470.22 979.59 456.53 915.68 597.58 858.53 664.44 982.26 653.83
00003065 00000064 722.45 258.64 342.69 511.77 820.08 471.48 979.34 457.63 916.66 597.01 860.37 664.82 981.98 654.12
00003066 00000065 725.21 260.04 337.54 508.69 825.00 482.95 977.86 469.42 917.51 597.25 861.59 663.11 981.59 652.99
00003067 00000066 723.55 259.87 340.14 510.06 822.84 479.93 978.37 466.27 916.53 598.38 860.94 663.69 982.48 653.20
00003068 00000067 723.57 258.31 342.35 512.54 821.77 474.42 979.47 460.60 917.39 597.34 860.97 664.51 982.65 653.82
00003069 00000068 723.92 257.34 341.99 513.91 820.60 470.83 979.42 457.49 916.74 595.92 860.47 663.82 982.97 653.47
00003070 00000069 724.18 257.47 341.68 513.43 820.74 469.92 980.05 456.56 917.15 595.40 859.97 662.72 983.49 652.36
00003071 00000070 724.60 258.65 341.33 510.20 820.81 470.43 980.85 456.26 917.50 596.61 859.92 661.51 984.60 650.53
00003072 00000071 724.44 259.04 342.08 511.70 820.28 472.20 980.69 457.30 917.52 597.22 860.23 662.69 985.76 651.08
00003073 00000072 724.54 259.36 341.79 510.37 820.41 472.97 980.86 457.36 918.46 596.32 860.59 662.00 986.92 649.82
00003074 00000073 725.97 261.96 338.45 506.22 825.23 481.54 979.70 464.71 920.77 596.01 862.95 661.18 986.46 648.31
00003075 00000074 725.87 260.82 337.57 507.18 827.26 486.34 980.35 468.44 923.28 595.08 865.35 661.51 988.04 647.92
00003076 00000075 725.82 257.43 338.07 512.30 829.37 479.72 983.47 461.47 928.32 592.45 869.04 661.24 990.91 647.20
00003077 00000076 726.05 254.45 340.96 514.71 830.97 474.31 987.94 455.64 933.53 588.67 871.48 660.20 994.35 645.69
00003078 00000077 725.54 251.87 343.97 515.61 831.99 470.09 989.26 450.40 936.94 583.53 874.82 658.63 996.34 643.36
00003079 00000078 726.25 250.92 345.04 515.77 834.15 467.36 991.91 447.39 940.71 580.72 877.46 657.27 998.45 641.65
00003080 00000079 727.37 250.15 346.38 516.25 835.36 466.91 994.12 445.54 943.62 579.16 880.37 657.48 1002.46 640.55
00003081 00000080 728.50 249.72 346.39 514.43 836.55 466.31 996.17 444.95 945.88 578.93 881.92 657.23 1004.28 640.22
00003082 00000081 729.54 250.56 346.48 513.84 837.65 465.77 997.27 444.33 947.02 579.44 882.90 657.01 1004.94 639.98
00003083 00000082 729.79 250.23 346.34 513.29 838.03 466.08 996.76 444.21 946.94 579.58 885.79 658.42 1004.26 640.95
00003084 00000083 730.03 250.80 346.02 512.26 838.57 465.45 996.82 444.08 947.00 580.04 886.42 658.34 1003.18 641.34
00003085 00000084 729.76 251.24 345.88 512.48 838.30 465.00 995.87 444.19 945.81 579.64 886.19 658.11 1002.11 641.60
00003086 00000085 729.25 250.23 345.72 515.71 837.33 465.79 995.53 444.77 945.35 580.04 884.43 659.64 1002.06 642.94
00003087 00000086 728.06 248.95 346.13 515.76 835.33 465.00 996.23 444.04 945.03 580.48 880.12 656.98 1004.11 640.33
00003088 00000087 727.51 248.08 345.83 518.41 833.33 464.96 992.56 445.57 939.68 580.91 876.84 655.56 1000.21 640.21
00003089 00000088 728.48 248.36 343.30 518.43 831.97 461.36 990.58 442.97 936.46 580.83 876.90 656.21 996.58 641.82
00003090 00000089 728.23 248.63 342.91 520.17 830.27 462.10 988.33 444.08 933.12 582.17 874.81 657.95 994.24 643.88
00003091 00000090 728.74 248.72 341.29 520.10 828.59 462.67 986.52 445.39 930.58 582.20 872.74 658.50 992.26 645.11
00003092 00000091 728.18 247.94 342.19 523.47 826.71 463.01 984.77 446.61 927.95 583.02 871.26 659.84 991.42 646.96
00003093 00000092 728.29 248.70 342.12 521.20 825.06 462.79 985.50 447.17 926.13 582.99 867.72 659.00 990.91 646.73
00003094 00000093 727.33 248.21 344.23 522.89 824.49 463.25 985.19 448.27 925.09 583.86 865.11 656.92 991.60 645.09
00003095 00000094 727.06 248.99 345.45 521.94 824.08 463.22 984.96 448.51 924.07 583.91 863.80 655.65 991.30 644.08
00003096 00000095 727.34 248.30 345.34 522.70 823.86 463.48 985.15 448.39 924.33 583.93 864.10 656.46 992.01 644.53
00003097 00000096 728.09 248.11 344.00 525.41 823.59 463.50 984.15 448.53 922.87 585.85 864.18 658.66 990.80 646.75
00003098 00000097 728.19 248.12 343.31 529.21 823.44 465.35 983.39 449.93 923.06 588.09 867.33 662.41 991.91 649.94
00003099 00000098 729.34 247.69 342.70 527.83 823.92 465.65 984.14 450.09 923.85 588.08 867.42 662.00 992.29 649.49
00003100 00000099 729.50 249.06 342.55 525.66 824.16 466.16 983.75 450.42 923.00 588.47 867.12 661.93 991.15 649.34
00003101 00000100 729.88 249.34 342.69 525.19 824.13 466.10 984.22 450.55 922.83 588.63 866.75 661.97 991.10 649.57
00003102 00000101 730.15 249.20 342.67 524.94 823.78 466.30 984.12 450.69 922.28 589.12 866.93 662.41 991.28 649.93
00003103 00000102 730.23 249.79 342.63 524.75 823.68 467.01 983.81 451.31 921.74 589.58 867.19 663.35 990.70 650.73
00003104 00000103 730.64 252.77 341.62 521.69 826.93 477.98 981.95 461.58 921.66 593.16 868.49 664.91 989.37 651.93
00003105 00000104 729.46 253.38 340.37 521.99 826.72 486.15 979.37 468.06 921.06 593.77 868.22 666.28 989.57 652.23
00003106 00000105 728.09 256.06 343.45 522.86 824.54 484.89 979.89 467.00 919.95 597.70 867.69 669.56 989.93 655.51
00003107 00000106 727.80 255.93 344.48 524.86 822.98 485.54 980.01 468.19 919.45 600.92 866.40 671.06 990.61 657.22
00003108 00000107 727.90 255.99 345.58 525.79 823.27 484.24 980.50 467.30 919.79 602.14 867.12 671.21 990.67 657.55
00003109 00000108 728.68 255.94 345.15 526.19 824.44 483.20 981.31 466.76 920.58 602.33 868.13 670.84 990.73 657.62
00003110 00000109 729.78 256.60 344.91 526.37 825.51 484.29 982.45 467.51 922.17 603.02 868.92 671.91 991.58 658.41
00003111 00000110 731.87 258.73 341.26 523.53 828.46 488.17 983.25 471.14 924.50 604.81 870.87 672.33 992.37 659.13
00003112 00000111 732.63 261.87 340.34 520.72 828.06 496.24 982.97 479.83 923.07 605.06 868.86 672.97 993.39 660.38
00003113 00000112 731.46 261.04 341.55 522.05 828.13 491.67 983.44 474.55 924.78 605.78 870.47 673.25 993.73 659.90
00003114 00000113 730.13 259.71 343.98 523.45 825.84 488.16 982.74 471.20 923.01 606.28 869.10 673.31 993.27 659.82
00003115 00000114 729.01 257.99 344.59 525.32 825.06 485.38 981.83 469.00 921.21 604.32 866.82 672.42 990.15 659.41
00003116 00000115 727.47 256.22 346.28 529.10 824.32 482.67 981.82 466.78 920.64 603.54 866.31 672.10 990.04 659.34
00003117 00000116 728.47 256.57 344.22 522.73 823.69 481.15 982.99 466.09 919.85 603.08 865.54 671.28 988.73 659.26
00003118 00000117 728.88 259.75 343.44 515.34 824.68 481.82 983.28 466.97 920.00 604.24 867.43 670.09 988.36 658.31
00003119 00000118 728.45 259.60 343.25 513.59 825.25 480.93 983.48 466.21 920.42 603.07 869.25 669.86 988.10 658.11
00003120 00000119 727.35 258.64 343.74 515.11 825.57 478.31 983.29 464.26 920.65 601.93 870.88 670.58 985.99 659.35
00003121 00000120 726.88 257.19 342.64 520.29 825.18 477.50 982.61 463.11 920.91 601.51 871.50 672.79 985.46 661.33
00003122 00000121 725.26 254.22 345.20 523.01 823.62 476.25 982.16 460.48 921.17 597.89 870.32 670.21 988.42 657.41
00003123 00000122 726.42 252.57 344.33 520.61 822.91 473.92 982.21 457.13 921.34 592.95 866.68 663.28 992.13 649.77
00003124 00000123 725.89 248.42 345.40 524.63 823.34 470.11 983.07 453.86 923.02 587.69 864.48 659.82 992.30 646.86
00003125 00000124 725.65 244.56 345.12 527.21 821.71 467.01 982.52 450.22 923.31 583.31 863.71 659.66 992.58 646.27
00003126 00000125 725.41 243.28 345.17 532.53 821.26 465.48 982.01 449.85 922.32 583.28 864.33 661.75 991.17 649.15
00003127 00000126 725.74 243.45 344.94 534.07 821.21 465.45 981.97 450.21 922.24 583.06 863.90 661.47 991.80 649.10
00003128 00000127 725.84 244.48 344.93 530.49 822.49 464.89 983.07 449.79 923.64 581.29 863.92 658.89 992.39 646.87
00003129 00000128 726.00 243.82 345.13 531.96 823.91 463.87 983.77 448.51 925.40 579.98 865.55 658.98 992.62 646.69
00003130 00000129 727.17 244.62 344.30 529.88 825.60 465.03 985.59 448.84 927.75 581.37 867.96 659.64 994.31 646.73
00003131 00000130 728.01 247.58 343.66 526.48 826.92 466.73 987.19 449.46 929.88 582.55 868.82 658.83 996.87 645.16
00003132 00000131 729.14 247.24 343.80 526.63 828.50 467.72 987.32 449.68 931.42 582.33 870.81 658.37 997.99 644.03
00003133 00000132 732.60 250.62 340.85 522.21 833.80 474.29 987.59 455.24 933.54 583.95 871.22 657.37 996.15 642.80
00003134 00000133 734.64 252.65 337.21 519.04 834.32 477.86 986.38 459.16 932.36 582.68 868.68 655.04 994.83 641.06
00003135 00000134 734.77 252.15 338.80 517.64 833.61 471.67 988.19 455.05 931.72 581.21 867.72 653.66 993.62 641.23
00003136 00000135 735.01 249.23 340.31 520.07 833.11 467.54 989.78 453.51 931.48 578.99 865.74 652.18 993.21 641.55
00003137 00000136 735.19 248.02 340.11 521.01 833.46 466.12 989.55 451.67 931.74 577.25 866.25 651.46 992.36 640.57
00003138 00000137 736.46 251.12 338.10 517.97 834.81 473.19 987.12 456.33 932.30 577.65 865.94 651.76 991.30 639.54
00003139 00000138 736.14 250.27 338.22 518.89 834.17 472.27 988.04 455.48 932.40 578.18 865.46 653.15 990.81 640.98
00003140 00000139 735.36 248.82 339.31 521.15 833.03 468.60 988.68 454.25 930.70 578.08 864.20 653.09 990.44 642.56
00003141 00000140 734.59 247.92 340.62 520.58 831.03 467.13 989.35 453.19 929.58 579.66 863.09 654.32 990.79 643.87
00003142 00000141 734.39 248.37 339.23 518.23 829.58 467.60 989.02 453.37 929.16 580.35 862.92 655.46 990.58 644.78
00003143 00000142 733.46 249.35 339.69 516.84 828.70 467.43 988.00 453.94 927.88 581.62 862.18 655.00 989.28 644.88
00003144 00000143 732.52 249.19 339.64 516.94 828.32 466.95 987.67 453.93 927.58 581.57 860.98 654.65 988.67 644.91
00003145 00000144 732.06 247.42 340.06 517.78 827.97 465.93 987.47 452.28 928.20 580.47 861.30 654.61 988.77 644.31
00003146 00000145 731.96 246.92 338.82 517.69 827.63 464.94 986.89 451.79 927.73 579.78 860.48 654.35 987.44 644.53
00003147 00000146 731.26 244.83 339.13 520.41 826.51 464.10 985.98 450.90 926.61 579.60 860.26 654.82 987.29 644.85
00003148 00000147 730.11 245.08 340.18 521.54 826.43 463.54 985.46 451.04 925.90 579.48 859.17 653.84 986.57 644.44
00003149 00000148 728.68 245.33 341.24 523.62 825.69 463.35 984.43 451.92 923.85 580.12 857.89 653.42 985.60 644.79
00003150 00000149 728.25 245.83 340.46 524.28 825.10 463.23 983.54 452.03 922.74 581.25 856.47 654.13 983.95 645.70
00003151 00000150 727.28 245.88 341.27 524.35 823.88 463.66 982.60 452.64 921.09 582.04 855.99 654.50 983.90 646.11
00003152 00000151 726.58 246.10 341.40 524.82 823.18 463.29 982.03 452.88 920.01 581.92 854.21 653.68 983.27 645.79
00003153 00000152 725.43 245.93 342.31 524.78 822.48 462.58 981.94 452.50 919.48 581.04 852.79 652.70 982.94 645.09
00003154 00000153 725.19 245.73 342.71 524.32 822.06 462.12 981.23 451.99 919.25 580.50 853.75 652.55 982.70 644.86
00003155 00000154 725.23 245.96 341.47 519.57 822.82 461.17 981.66 450.42 920.53 579.33 854.19 651.93 981.26 643.87
00003156 00000155 718.30 245.69 345.10 509.45 820.09 463.42 980.84 453.97 920.42 577.40 860.24 641.87 985.15 634.80
00003157 00000156 718.33 246.91 344.61 506.82 819.63 463.15 980.38 452.89 919.82 577.67 859.21 641.08 983.93 633.41
00003158 00000157 722.79 240.07 340.44 513.15 821.30 471.41 978.70 450.83 915.53 577.32 852.24 648.14 979.33 631.76
00003159 00000158 718.97 249.95 344.96 506.59 820.86 462.79 978.92 453.44 919.39 578.08 857.44 638.80 982.09 632.16
00003160 00000159 719.39 249.89 344.78 504.95 820.91 462.76 978.62 453.63 918.66 577.89 857.16 637.33 981.86 630.79
00003161 00000160 720.20 250.18 344.01 506.31 821.38 462.62 978.51 453.65 918.77 577.83 857.12 637.29 982.20 630.91
00003162 00000161 720.32 249.14 344.01 507.92 820.54 463.77 980.34 452.79 920.31 577.16 858.14 639.07 987.26 630.72
00003163 00000162 727.65 247.31 342.00 523.24 822.37 461.58 982.29 448.91 920.44 579.77 857.90 652.92 987.44 643.16
00003164 00000163 728.15 247.52 341.03 524.62 823.62 460.17 982.01 449.73 919.45 579.27 857.97 654.08 983.10 646.22
00003165 00000164 728.36 246.68 340.04 518.09 823.15 460.93 983.56 447.55 922.93 577.96 860.50 655.32 985.96 645.13
00003166 00000165 727.79 245.55 341.76 516.93 824.63 459.05 983.60 445.67 924.33 573.84 858.74 650.84 985.33 640.78
00003167 00000166 718.83 241.09 347.16 517.40 821.19 462.76 983.74 450.40 924.86 571.24 863.25 641.41 993.39 631.64
00003168 00000167 730.50 241.99 340.82 526.33 826.05 460.56 982.93 447.90 923.77 572.14 861.75 651.94 986.12 642.41
00003169 00000168 732.09 243.59 337.39 526.57 830.16 466.95 980.82 451.70 926.25 571.33 863.99 648.19 988.56 636.81
00003170 DELETE   725.48 241.35 340.66 523.90 832.67 469.12 986.83 452.55 938.16 566.49 873.30 642.39 1003.77 628.82
