Video ID: 	PJA38unN2Ic
H: 	1080
W: 	1920
FPS: 	25.0

FRAME INDEX X0 Y0 W H [Landmarks (5 Points)]

00000808 00000000 621.17 179.84 354.44 554.15 789.12 423.92 940.79 411.62 925.26 517.99 836.40 629.96 939.29 619.66
00000809 DELETE   621.45 180.59 354.97 554.48 789.37 422.74 940.97 411.25 925.82 516.62 835.23 628.22 939.10 618.61
00000810 00000002 622.12 180.64 355.33 553.79 790.57 421.42 942.49 411.09 927.46 516.41 835.02 627.36 939.23 618.63
00000811 00000003 622.99 181.44 355.19 548.18 791.05 422.33 943.92 412.37 928.07 516.10 836.24 625.90 941.48 617.32
00000812 00000004 623.70 182.43 355.97 544.33 791.58 423.91 945.62 413.30 929.95 515.62 840.46 626.17 946.30 616.75
00000813 DELETE   624.72 182.29 355.98 542.18 791.50 425.18 945.94 413.55 929.75 515.30 841.53 624.79 948.58 614.45
00000814 00000006 625.40 183.11 356.15 541.70 792.91 423.77 946.16 413.19 929.40 514.76 845.05 626.32 948.97 616.57
00000815 00000007 625.17 179.21 356.05 551.01 792.73 421.96 944.29 411.55 928.44 515.28 845.47 630.64 946.47 620.98
00000816 00000008 625.17 178.82 355.84 552.27 791.88 421.75 944.60 410.99 928.73 516.61 845.22 632.13 946.90 622.20
00000817 DELETE   623.86 179.70 356.64 549.94 790.96 421.49 944.19 410.86 927.25 517.01 841.43 630.09 945.36 620.45
00000818 00000010 622.04 180.10 356.89 552.59 786.04 422.69 941.45 411.53 923.25 515.54 835.29 629.16 942.87 619.43
00000819 DELETE   621.19 181.15 354.85 553.98 783.27 422.18 938.93 409.11 920.18 515.40 830.32 627.23 939.20 616.35
00000820 00000012 621.09 180.57 358.45 559.22 787.50 416.84 944.24 409.55 919.38 517.23 818.52 623.13 937.68 617.43
00000821 DELETE   618.94 182.79 357.71 557.47 786.34 416.61 941.62 408.50 919.45 517.05 817.23 623.22 935.87 616.85
00000822 00000014 617.28 183.88 358.48 558.97 783.19 416.99 939.96 408.72 916.19 516.39 815.44 624.92 934.65 618.37
00000823 00000015 616.05 183.53 357.93 565.93 781.46 414.32 938.24 409.01 915.07 515.07 815.65 627.26 933.88 622.95
00000824 00000016 617.49 183.11 355.82 572.30 783.05 410.34 938.67 408.66 917.07 513.29 816.60 628.21 933.11 626.75
00000825 00000017 619.11 182.21 354.54 572.67 786.18 409.78 939.60 407.09 919.57 509.98 818.37 624.50 935.61 622.21
00000826 00000018 620.13 182.47 355.36 560.27 788.59 410.98 943.37 405.69 921.23 509.43 820.67 620.32 938.33 616.13
00000827 DELETE   622.38 179.43 355.68 555.86 790.05 412.04 945.03 404.54 923.16 509.88 823.01 618.00 941.05 612.07
00000828 00000020 620.03 181.88 353.83 547.61 785.21 419.96 937.61 407.99 923.58 510.26 832.07 620.07 940.20 610.16
00000829 00000021 620.47 181.00 353.27 549.49 786.29 420.69 938.79 409.49 925.09 510.46 832.46 620.03 940.81 610.71
00000830 DELETE   619.70 180.15 353.60 550.50 787.77 420.81 938.73 410.90 927.55 510.28 832.51 619.85 940.26 611.62
00000831 00000023 619.78 180.19 353.55 548.27 788.01 421.40 939.85 412.46 927.55 510.47 832.22 619.37 940.82 611.88
00000832 DELETE   619.33 181.77 353.52 544.12 789.02 421.64 939.42 412.53 928.66 510.15 831.50 616.57 939.73 609.13
00000833 00000025 620.22 179.22 352.72 547.15 789.06 420.67 939.32 412.05 926.90 508.97 829.87 614.79 938.72 607.87
00000834 00000026 623.81 176.59 355.77 562.95 797.93 409.28 948.93 405.51 929.90 510.77 822.77 614.53 939.44 612.04
00000835 DELETE   622.99 176.27 355.98 565.11 797.18 409.31 949.02 406.21 928.90 511.82 822.10 616.34 938.75 614.36
00000836 DELETE   623.26 175.79 355.52 561.89 796.30 409.26 949.08 406.26 927.36 512.10 822.10 615.97 938.25 614.04
00000837 DELETE   622.76 175.76 355.58 557.23 794.58 410.41 949.87 405.80 926.88 510.97 821.55 614.57 940.08 611.28
00000838 00000030 621.59 176.02 354.50 553.34 791.99 410.51 947.42 404.92 923.50 509.52 819.27 612.98 938.50 608.96
00000839 DELETE   620.66 178.37 353.52 549.35 789.55 410.46 946.07 405.19 922.05 508.01 816.45 611.38 937.35 607.75
00000840 00000032 618.56 179.78 353.57 548.71 787.25 409.04 943.33 404.48 918.97 506.13 812.88 610.02 933.84 607.08
00000841 DELETE   614.89 182.44 354.49 557.55 782.29 407.88 937.87 407.51 915.74 508.15 807.62 614.12 927.15 614.48
00000842 00000034 610.10 181.17 354.93 560.56 775.86 408.47 931.95 407.76 909.64 509.09 803.95 616.50 922.81 616.44
00000843 00000035 607.10 176.99 356.03 555.23 771.00 408.44 931.43 407.37 906.19 504.47 803.08 612.58 924.77 612.09
00000844 00000036 607.48 176.05 355.61 552.53 768.64 407.47 931.08 406.15 903.77 502.60 803.49 612.11 924.62 611.22
00000845 00000037 606.58 176.37 356.11 552.13 766.18 408.66 930.33 409.56 900.91 502.76 800.76 613.29 922.76 614.21
00000846 00000038 604.51 176.43 359.06 561.31 765.92 410.07 928.87 410.22 900.74 505.65 797.65 616.23 920.73 616.61
00000847 00000039 604.83 179.01 359.54 565.21 762.80 409.63 927.50 410.50 896.91 507.14 792.26 618.71 916.69 619.75
00000848 00000040 603.55 179.55 361.02 568.08 759.67 409.55 926.51 409.24 892.71 508.90 788.32 620.29 914.94 620.32
00000849 00000041 602.67 178.75 364.09 565.96 758.04 409.82 926.99 410.29 890.65 508.28 788.56 620.49 915.84 621.00
00000850 00000042 602.90 177.95 364.37 558.24 757.16 410.46 927.26 410.66 889.25 508.22 787.69 616.85 915.35 617.21
00000851 00000043 604.35 177.82 365.19 547.08 753.95 410.42 929.40 411.72 886.55 505.88 786.53 613.80 917.03 615.07
00000852 00000044 604.01 179.03 366.51 545.38 753.74 409.70 929.47 413.16 886.34 505.22 785.68 613.20 916.82 616.21
00000853 00000045 604.53 178.76 366.83 544.25 752.79 409.44 928.06 414.09 883.69 504.68 783.81 611.83 914.40 615.75
00000854 00000046 604.08 178.85 368.46 547.12 750.75 409.30 927.70 414.62 881.47 504.50 781.76 612.98 913.42 617.44
00000855 00000047 603.43 179.09 368.88 550.08 748.39 408.89 926.64 414.33 878.56 504.81 779.88 615.16 911.31 619.71
00000856 00000048 601.09 180.52 370.13 552.46 746.14 407.68 922.95 414.32 874.82 504.55 775.33 612.77 907.03 618.39
00000857 00000049 601.15 178.25 367.75 555.46 741.53 406.97 917.12 413.43 867.57 502.58 771.48 611.56 902.93 617.13
00000858 00000050 599.24 177.53 365.85 554.42 738.56 405.32 910.53 411.13 861.49 502.82 768.54 610.10 895.00 615.26
00000859 00000051 596.62 176.43 366.27 553.22 734.43 403.19 906.98 409.66 855.68 502.81 760.95 607.08 888.31 613.22
00000860 00000052 592.19 177.17 366.73 552.03 728.37 403.47 901.15 410.14 848.51 500.85 753.88 605.75 882.86 612.30
00000861 00000053 588.77 175.91 368.40 554.85 723.33 402.75 897.66 411.02 841.82 499.44 749.25 606.87 879.05 614.66
00000862 00000054 586.75 177.30 371.09 555.24 717.89 403.05 895.24 410.13 836.59 499.78 744.83 607.90 878.59 614.78
00000863 00000055 585.45 177.60 371.35 554.66 715.19 403.02 893.44 409.14 834.01 498.27 743.04 607.65 878.28 613.88
00000864 00000056 583.77 177.53 372.33 555.86 712.26 401.44 891.40 407.65 831.15 495.28 740.27 607.22 876.45 613.59
00000865 00000057 583.24 177.35 372.12 555.85 710.91 398.91 889.76 405.33 829.19 493.21 738.83 605.19 874.75 611.73
00000866 00000058 581.36 176.84 373.79 556.50 708.90 396.53 887.61 403.24 826.15 491.39 737.40 604.79 871.76 611.31
00000867 00000059 579.99 177.58 373.64 555.56 706.14 395.90 885.17 402.33 823.34 490.41 735.21 605.12 869.49 611.39
00000868 00000060 579.74 177.82 372.36 552.99 704.73 396.71 882.77 402.31 820.54 490.99 734.07 605.67 866.65 611.25
00000869 00000061 578.06 177.23 373.34 552.65 703.74 397.68 881.65 404.34 818.78 492.18 732.00 606.72 864.23 613.03
00000870 00000062 576.52 178.57 373.38 550.22 701.95 400.23 880.61 406.98 816.70 492.38 730.40 607.41 863.20 613.74
00000871 00000063 575.53 180.19 372.50 548.28 703.93 404.50 877.63 413.22 814.90 493.10 730.43 606.48 859.25 614.45
00000872 00000064 575.24 180.61 371.98 549.20 704.13 409.12 876.91 417.84 814.31 494.23 730.88 606.55 860.58 614.58
00000873 00000065 574.88 179.16 372.66 551.22 703.99 406.01 878.91 413.57 817.71 494.04 734.54 608.25 864.28 614.96
00000874 00000066 575.98 179.94 371.25 550.75 706.15 406.62 879.68 410.77 822.58 496.06 741.13 610.29 868.34 613.85
00000875 00000067 577.15 179.04 369.75 551.14 708.51 407.79 880.45 411.10 825.59 498.48 745.44 611.66 870.88 614.28
00000876 00000068 577.34 177.52 369.36 552.96 710.43 407.89 881.41 411.31 828.31 499.09 748.48 611.15 873.23 613.88
00000877 00000069 576.93 177.38 369.87 552.39 711.00 407.86 882.59 411.80 829.88 499.08 749.08 611.61 873.85 614.72
00000878 00000070 577.22 176.66 370.10 555.02 710.94 407.33 882.88 412.08 829.02 498.82 746.97 609.99 873.61 614.13
00000879 00000071 576.90 176.26 370.48 558.01 709.74 407.05 884.06 412.82 829.18 499.19 743.95 610.02 874.61 615.16
00000880 00000072 576.51 176.34 371.86 560.46 709.39 405.10 883.86 412.04 827.90 499.24 740.62 609.85 872.42 616.18
00000881 00000073 576.28 175.63 373.64 565.75 709.44 403.26 885.36 412.34 827.87 499.48 735.58 608.84 871.25 617.22
00000882 00000074 575.46 178.16 372.45 564.10 709.63 406.90 883.71 416.23 827.29 501.01 733.27 608.26 870.41 617.19
00000883 00000075 575.38 179.64 371.91 559.72 708.08 408.71 883.87 418.99 824.94 500.92 731.54 606.87 870.96 616.54
00000884 00000076 573.62 179.77 372.19 557.49 706.88 408.86 883.62 420.20 823.80 501.68 729.88 606.13 870.24 616.41
00000885 00000077 572.80 179.52 373.76 556.62 706.71 408.52 882.98 420.98 821.63 502.16 729.15 606.40 866.73 617.40
00000886 00000078 572.99 179.52 373.21 555.76 707.38 409.13 881.73 422.82 820.41 503.46 729.65 607.36 863.82 619.29
00000887 00000079 572.84 179.55 373.30 556.59 707.10 408.81 882.32 421.75 821.57 503.47 730.24 607.76 865.13 619.07
00000888 00000080 572.90 179.57 373.33 556.66 708.15 408.79 882.96 422.17 822.57 504.05 730.79 607.59 865.18 619.25
00000889 00000081 573.35 180.38 373.11 555.76 708.44 408.81 883.43 421.98 823.16 504.06 731.05 607.56 865.89 619.12
00000890 00000082 573.73 180.70 372.97 554.74 709.37 409.05 884.05 421.69 824.11 504.57 732.04 607.16 866.77 618.25
00000891 00000083 574.03 180.63 372.87 553.64 709.63 410.32 883.26 421.52 824.11 506.41 734.56 609.09 867.05 618.92
00000892 00000084 573.85 180.16 373.42 557.76 707.64 412.31 883.08 421.46 823.99 509.72 736.73 613.54 869.57 621.30
00000893 00000085 573.36 180.55 373.49 559.36 707.56 414.82 882.78 421.57 824.89 513.08 740.30 618.88 869.91 624.39
00000894 00000086 572.52 179.81 373.39 559.61 707.56 416.86 881.73 422.74 825.30 516.72 743.48 623.26 869.50 627.76
00000895 00000087 572.66 180.34 373.33 557.15 707.87 419.01 881.67 424.50 825.07 518.92 744.41 625.62 868.70 629.86
00000896 00000088 572.17 180.06 373.79 557.96 708.98 421.74 882.16 426.68 826.72 521.72 746.44 628.75 869.39 632.41
00000897 00000089 573.10 179.90 373.57 560.66 710.76 423.37 884.02 427.64 829.09 523.25 748.03 630.36 871.23 633.60
00000898 00000090 574.25 179.34 374.59 566.85 712.83 423.84 887.54 428.14 831.67 524.25 747.87 630.02 874.86 633.33
00000899 00000091 575.49 180.73 374.46 564.73 715.33 423.48 888.54 427.24 833.71 524.26 748.81 628.50 875.00 631.52
00000900 00000092 577.26 181.87 372.59 561.87 718.43 422.93 889.89 425.76 836.31 524.50 754.03 628.98 876.77 631.12
00000901 00000093 579.81 181.54 371.15 559.94 721.98 423.70 893.50 424.82 841.65 524.82 760.39 629.46 882.50 629.91
00000902 00000094 582.76 178.83 368.52 561.36 728.84 423.00 897.21 420.28 849.90 522.87 771.15 631.31 889.38 628.10
00000903 DELETE   586.77 175.50 368.68 564.98 740.77 418.57 905.60 413.34 865.00 519.09 782.57 629.08 897.41 624.20
00000904 DELETE   593.72 175.55 366.32 566.29 752.16 415.32 919.02 411.44 882.45 515.00 790.59 626.92 909.19 623.34
00000905 DELETE   600.21 175.76 362.63 569.61 761.93 412.92 925.64 410.26 893.51 513.76 799.02 627.69 915.24 625.19
00000906 00000098 603.93 177.13 360.73 569.11 767.59 411.65 928.12 411.25 900.49 512.22 801.98 625.60 918.28 625.46
00000907 00000099 606.45 175.93 359.49 565.38 771.93 410.57 931.66 407.57 907.39 511.02 805.50 620.77 924.86 618.67
00000908 00000100 610.25 175.36 356.82 565.32 778.52 407.50 934.42 403.85 912.95 510.21 812.88 619.97 928.36 617.28
00000909 00000101 611.79 176.60 356.22 564.25 783.47 406.79 938.69 404.77 917.52 511.25 815.60 620.35 930.34 618.95
00000910 00000102 612.55 176.73 354.71 565.85 784.64 407.23 940.74 406.23 919.41 509.47 813.49 617.96 931.10 617.51
00000911 00000103 614.40 178.78 354.27 565.46 786.58 409.25 941.09 407.17 920.98 509.98 812.61 617.62 930.80 616.41
00000912 00000104 615.26 179.40 353.86 563.56 788.77 410.34 942.07 407.53 923.11 510.33 813.88 616.89 931.81 615.14
00000913 00000105 616.34 179.62 354.22 556.89 789.75 409.93 945.59 405.46 924.42 509.33 815.16 614.63 935.08 611.55
00000914 DELETE   617.29 178.97 356.25 555.15 791.24 409.71 947.73 404.14 925.96 507.85 816.60 613.32 937.62 609.26
00000915 00000107 617.36 179.32 356.67 554.55 790.89 410.02 947.46 404.67 925.24 508.90 815.90 613.26 936.92 609.34
00000916 00000108 616.98 180.87 356.77 558.82 791.51 410.04 946.36 406.91 925.03 511.24 816.17 616.86 934.44 614.85
00000917 00000109 616.32 180.88 356.87 566.30 793.13 410.83 944.86 408.85 926.16 513.92 816.18 619.64 932.70 618.56
00000918 00000110 616.34 179.52 357.09 569.89 792.50 411.86 943.39 409.14 924.90 514.53 818.58 622.60 933.54 620.79
00000919 00000111 616.86 178.66 356.90 563.21 790.77 411.92 944.55 407.88 922.93 513.45 820.09 621.36 935.81 618.36
00000920 00000112 616.54 177.17 357.49 560.48 788.66 413.20 943.42 407.32 920.22 513.41 817.75 619.14 935.33 614.63
00000921 00000113 616.19 178.32 357.02 557.21 787.76 414.14 943.24 409.02 920.12 513.85 816.97 618.74 934.91 614.75
00000922 00000114 613.87 179.16 358.47 556.66 785.67 414.74 941.34 409.79 918.11 516.33 813.97 620.02 931.41 616.35
00000923 00000115 610.73 177.87 360.06 559.18 782.34 414.12 940.53 411.03 915.16 516.36 809.98 620.66 929.35 618.51
00000924 00000116 607.42 179.04 360.78 562.11 779.82 413.63 936.92 412.17 912.25 515.90 805.61 621.05 923.18 620.41
00000925 00000117 605.99 181.47 359.94 566.34 775.72 415.06 932.34 415.50 907.49 517.16 801.40 624.60 918.19 625.50
00000926 00000118 603.53 180.18 361.52 566.22 771.02 413.61 930.93 414.12 902.71 517.65 800.34 626.40 916.83 627.15
00000927 00000119 603.36 178.07 361.12 561.19 769.86 414.31 931.07 410.80 901.92 515.54 801.82 623.34 919.96 620.63
00000928 00000120 602.60 176.94 359.62 558.28 770.50 413.94 929.82 408.84 902.86 513.88 802.43 620.17 919.74 616.09
00000929 00000121 602.23 176.76 359.22 556.77 768.73 413.75 928.61 407.65 901.19 513.52 801.12 619.17 918.42 614.30
00000930 00000122 600.60 175.70 360.24 558.50 767.65 412.50 928.73 407.84 900.17 513.06 800.28 619.16 917.61 615.23
00000931 00000123 598.85 176.06 362.51 559.20 766.14 410.99 928.63 407.97 898.59 511.89 798.14 618.55 915.53 615.99
00000932 00000124 597.45 175.32 363.15 558.42 764.13 411.26 928.91 407.28 898.41 511.89 795.78 617.53 915.23 614.21
00000933 00000125 596.43 175.22 364.23 556.72 762.06 410.56 929.35 406.97 896.94 511.21 792.29 615.91 913.85 612.97
00000934 00000126 594.96 176.81 364.52 555.12 760.09 411.30 927.93 406.68 894.48 511.81 787.82 614.86 910.84 611.13
00000935 00000127 591.74 176.87 366.87 559.94 757.01 411.86 924.69 409.38 889.83 511.72 783.20 616.15 907.70 614.09
00000936 00000128 590.69 179.66 364.24 559.34 754.62 417.80 921.34 417.54 885.79 513.11 778.18 617.13 904.03 617.04
00000937 00000129 587.62 184.69 365.44 557.02 754.69 422.17 919.43 423.64 884.09 514.52 775.68 618.20 900.59 619.54
00000938 DELETE   587.00 182.30 366.20 560.42 750.20 421.10 918.15 424.96 879.60 514.66 773.51 619.52 899.85 622.68
00000939 00000131 585.89 181.75 368.66 559.88 747.89 419.16 918.22 422.60 879.90 515.46 774.93 621.71 901.14 624.57
00000940 00000132 584.33 181.87 369.24 556.24 745.91 420.17 915.52 420.25 878.54 516.49 776.09 622.68 900.70 622.56
00000941 00000133 583.93 180.56 371.29 559.43 742.74 418.83 915.62 420.21 874.33 518.67 775.48 626.64 900.71 627.23
00000942 00000134 583.22 180.08 372.81 561.82 739.97 419.93 913.33 421.28 869.14 521.95 774.60 630.60 898.45 631.01
00000943 00000135 583.68 180.44 369.97 560.36 737.85 419.34 909.40 421.12 862.91 521.54 771.32 627.97 892.58 628.75
00000944 00000136 582.64 181.24 369.98 559.82 734.86 419.41 906.98 421.56 858.91 522.26 767.61 626.55 890.19 627.64
00000945 00000137 581.67 181.39 369.44 558.95 731.29 420.36 903.50 421.98 854.28 523.02 765.64 626.77 888.02 627.38
00000946 00000138 580.07 180.10 370.51 559.14 727.87 421.03 901.05 423.29 850.14 523.31 762.64 625.93 885.55 627.06
00000947 00000139 579.14 180.61 371.12 558.60 725.40 422.23 899.13 424.43 847.85 524.69 760.40 626.80 884.37 627.97
00000948 00000140 577.65 180.85 372.44 561.91 722.87 423.12 895.97 425.82 843.83 526.34 757.64 628.42 881.46 630.13
00000949 00000141 576.41 180.91 373.65 562.24 721.66 423.63 894.67 426.55 841.81 527.84 756.39 629.10 880.01 630.99
CROP_BBOX: 382 0 1207 882
