Video ID: 	ogHNFA5l-0o
H: 	1080
W: 	1920
FPS: 	25.0

FRAME INDEX X0 Y0 W H [Landmarks (5 Points)]

00030905 00000000 751.36 140.55 415.85 571.59 873.07 379.99 1062.64 390.82 967.53 496.85 871.44 558.57 1042.84 568.89
00030906 00000001 752.52 141.03 415.88 570.86 874.95 379.95 1063.29 390.59 969.07 497.47 873.11 557.37 1044.34 567.62
00030907 00000002 753.20 139.72 415.89 571.30 876.04 378.46 1063.96 388.63 970.87 495.83 875.87 556.87 1046.23 566.70
00030908 00000003 753.95 140.79 415.84 568.95 877.65 377.72 1065.26 387.81 972.60 496.28 877.26 555.16 1047.92 565.08
00030909 00000004 755.13 140.29 415.59 569.63 878.96 377.89 1066.25 387.18 974.37 497.21 879.14 554.31 1050.73 563.60
00030910 00000005 757.33 141.34 411.55 569.08 883.27 382.76 1073.19 390.69 980.76 501.95 881.35 555.73 1056.36 564.18
00030911 DELETE   762.62 140.66 409.32 576.49 892.59 387.88 1078.80 394.27 992.21 501.41 888.97 557.31 1064.78 563.78
00030912 DELETE   766.98 138.38 409.42 583.01 898.49 387.39 1087.73 390.50 1004.00 502.63 896.30 560.39 1076.54 564.05
00030913 DELETE   773.44 138.23 408.60 577.69 907.55 384.96 1086.73 390.24 1012.61 499.15 913.79 560.78 1083.03 564.53
00030914 00000009 774.10 139.46 410.37 576.66 914.75 382.23 1091.14 384.22 1022.58 497.71 924.21 559.96 1090.61 560.63
00030915 00000010 775.36 136.03 409.07 579.23 916.43 380.96 1093.40 376.70 1029.15 497.08 929.88 559.13 1097.20 554.31
00030916 00000011 775.04 133.68 407.84 580.54 914.72 382.81 1093.20 370.08 1035.01 492.89 936.76 561.77 1103.83 549.87
00030917 00000012 773.34 134.09 406.94 579.24 912.71 383.97 1092.15 365.63 1036.37 490.01 941.06 565.11 1106.46 548.61
00030918 00000013 769.33 135.34 409.50 575.72 913.35 386.78 1091.90 362.09 1040.36 488.98 948.11 568.52 1109.84 546.78
00030919 00000014 765.66 134.48 411.59 578.09 911.75 390.68 1089.30 360.04 1041.75 488.59 951.63 571.37 1111.91 544.45
00030920 00000015 761.84 140.27 413.54 572.39 910.16 394.25 1086.86 356.47 1043.61 489.05 954.31 573.16 1113.07 540.71
00030921 00000016 758.55 143.34 416.19 569.92 907.26 395.72 1085.70 354.15 1044.60 489.78 954.17 574.13 1115.29 538.79
00030922 00000017 756.10 147.79 415.28 563.72 904.00 397.57 1084.67 353.57 1044.84 491.07 953.77 575.19 1115.58 538.29
00030923 00000018 752.29 147.12 415.36 565.02 900.34 400.52 1081.01 354.56 1042.03 489.94 950.71 576.18 1113.80 537.84
00030924 00000019 747.92 148.26 415.43 563.26 896.35 402.15 1076.24 355.76 1038.44 488.42 946.48 575.72 1110.93 537.39
00030925 00000020 744.41 146.01 414.18 564.39 892.05 402.30 1071.68 354.00 1034.48 490.03 942.35 574.55 1108.73 534.96
00030926 00000021 741.30 145.02 412.68 562.98 886.84 403.90 1062.80 353.60 1028.07 488.19 938.09 572.00 1104.93 531.18
00030927 00000022 736.81 145.37 411.32 560.47 882.69 403.46 1059.73 354.84 1022.62 489.64 931.44 572.76 1097.80 533.57
00030928 00000023 732.01 142.31 411.83 564.07 878.33 402.37 1054.74 354.14 1016.00 488.01 925.28 572.51 1091.65 533.72
00030929 00000024 723.58 143.72 409.92 558.54 868.13 407.89 1043.38 349.37 1011.89 486.50 918.77 577.70 1078.98 528.31
00030930 00000025 719.36 145.23 412.47 556.60 862.01 406.71 1039.24 348.75 1005.42 486.39 914.73 578.34 1075.82 529.12
00030931 00000026 717.25 143.27 412.81 557.37 859.13 405.55 1037.11 347.15 1003.03 487.59 913.67 579.43 1074.27 529.74
00030932 00000027 715.52 140.57 412.74 560.01 857.86 404.78 1035.20 346.73 1001.16 487.04 912.89 579.91 1072.43 530.42
00030933 00000028 715.64 141.68 411.50 558.23 857.55 403.62 1035.13 345.90 1000.60 486.49 912.34 579.71 1071.39 530.59
00030934 00000029 715.07 140.44 412.17 559.64 857.23 403.29 1034.38 346.15 999.77 486.24 913.10 579.94 1071.30 531.15
00030935 00000030 715.65 141.00 411.33 558.89 856.85 403.68 1034.49 347.19 998.79 486.21 912.36 579.77 1071.11 531.49
00030936 00000031 714.40 139.71 411.15 561.25 856.27 403.07 1033.82 348.31 997.41 486.43 911.46 580.04 1069.50 533.06
00030937 00000032 715.31 140.87 410.10 560.17 856.46 403.03 1035.07 349.47 997.30 487.46 910.88 580.59 1069.21 534.72
00030938 00000033 714.91 140.39 410.16 560.57 857.09 402.75 1036.43 351.03 997.78 487.90 911.31 580.65 1069.39 536.23
00030939 00000034 715.28 141.42 410.74 561.12 857.52 404.14 1037.91 352.99 999.02 488.96 911.70 581.20 1071.51 537.10
00030940 00000035 716.92 144.62 409.01 559.03 859.34 404.90 1039.68 355.42 1000.58 490.36 912.66 581.42 1072.14 538.71
00030941 00000036 718.24 142.37 407.14 563.99 862.79 405.86 1041.26 357.54 1003.75 490.89 914.17 582.80 1072.54 541.16
00030942 00000037 717.92 142.42 409.08 570.60 866.00 406.91 1041.53 360.41 1006.62 490.68 916.39 584.51 1072.96 544.31
00030943 00000038 720.24 145.08 407.96 573.57 867.82 408.62 1042.14 361.65 1009.83 491.05 917.52 585.69 1075.54 545.28
00030944 00000039 720.22 148.04 409.89 582.32 873.15 407.85 1041.24 364.99 1012.79 490.48 920.74 588.49 1075.24 551.62
00030945 00000040 721.46 150.22 410.09 579.96 875.58 410.68 1044.49 367.56 1015.99 491.17 921.59 588.93 1077.10 552.07
00030946 00000041 725.77 147.36 404.62 584.27 887.66 419.52 1049.38 378.04 1025.84 493.79 924.12 589.58 1077.65 554.98
00030947 00000042 729.51 146.93 407.46 584.24 882.62 415.66 1049.69 370.79 1017.95 495.05 928.82 587.36 1087.13 550.84
00030948 00000043 731.04 148.49 408.14 582.62 884.46 411.02 1050.96 366.97 1020.96 491.96 931.58 585.57 1089.62 549.64
00030949 00000044 731.63 144.95 407.84 588.28 884.29 407.84 1051.58 365.45 1021.74 491.33 930.04 583.99 1091.34 549.27
00030950 00000045 730.35 145.22 407.50 586.63 884.24 405.05 1052.93 365.30 1021.78 490.67 928.59 582.51 1090.60 550.03
00030951 00000046 727.46 147.93 403.63 585.38 889.75 406.61 1051.60 367.83 1031.45 487.68 924.11 584.82 1078.87 552.69
00030952 00000047 723.61 148.26 407.82 586.37 881.67 403.88 1048.97 367.59 1022.37 488.92 918.86 584.39 1077.31 553.72
00030953 00000048 721.49 147.09 407.70 587.41 875.76 402.69 1045.66 368.17 1013.80 490.27 914.49 585.08 1073.37 555.36
00030954 00000049 719.11 147.23 407.76 587.06 870.75 402.43 1043.46 368.27 1007.84 491.94 910.24 585.94 1070.55 556.38
00030955 00000050 716.52 145.42 407.94 592.03 868.91 403.41 1041.25 370.00 1005.68 494.44 906.65 587.39 1067.88 558.48
00030956 00000051 716.43 146.76 406.75 591.85 868.53 404.55 1041.01 370.90 1005.50 495.77 905.07 588.26 1067.16 559.33
00030957 00000052 716.60 145.88 405.29 592.27 869.15 405.42 1040.15 371.37 1006.05 496.38 904.94 588.28 1066.37 559.19
00030958 00000053 715.99 146.44 405.17 592.55 868.89 403.90 1040.24 371.82 1005.02 497.26 902.82 587.83 1064.78 560.36
00030959 00000054 715.27 146.39 404.66 593.56 868.80 402.68 1040.46 371.83 1005.18 497.73 901.05 587.94 1063.90 561.62
00030960 00000055 715.11 145.85 404.68 596.68 868.56 399.35 1041.54 371.19 1004.77 496.44 901.01 588.23 1064.03 563.85
00030961 00000056 713.90 142.14 404.97 601.44 867.66 396.45 1040.37 368.76 1003.60 492.67 902.35 588.79 1062.66 564.49
00030962 00000057 713.53 138.03 403.30 605.49 867.96 393.09 1039.21 365.09 1003.51 488.79 906.66 590.81 1061.10 565.92
00030963 00000058 711.89 132.74 403.62 610.66 866.64 391.20 1036.43 361.52 1003.07 486.11 908.82 592.22 1059.35 565.71
00030964 00000059 711.78 132.68 402.34 607.52 864.61 390.01 1034.10 361.28 999.92 484.06 910.42 593.07 1056.18 567.01
00030965 00000060 709.26 130.86 403.46 606.85 862.74 391.76 1030.11 364.87 995.09 485.41 910.23 594.79 1049.00 570.11
00030966 00000061 708.49 130.22 401.73 607.00 868.55 398.78 1030.18 374.75 995.80 487.58 911.15 595.69 1044.06 573.89
00030967 00000062 708.97 129.67 401.33 607.21 868.93 399.14 1030.16 374.28 996.23 487.81 912.73 596.63 1044.38 574.11
00030968 DELETE   708.24 127.74 402.57 607.63 865.98 395.33 1029.36 369.29 995.47 484.21 912.36 594.55 1045.09 570.84
00030969 00000064 708.91 128.22 401.85 603.04 863.48 393.50 1028.22 366.85 993.69 483.03 911.80 592.68 1045.21 568.17
00030970 00000065 707.96 129.01 402.03 604.98 862.01 390.85 1027.28 364.25 992.70 483.28 908.76 591.88 1044.96 567.41
00030971 00000066 705.23 131.12 405.83 611.22 862.08 387.63 1028.39 363.08 993.64 484.31 903.84 590.43 1047.28 567.78
00030972 00000067 704.03 131.69 406.14 612.53 862.56 387.45 1027.37 363.80 992.81 485.40 900.74 588.88 1045.56 567.09
00030973 DELETE   700.83 133.89 408.64 617.52 865.75 394.01 1032.24 373.07 996.93 490.76 891.27 588.03 1046.28 569.27
00030974 00000069 699.36 136.72 409.65 619.62 867.07 397.70 1032.08 377.23 1000.30 495.15 885.54 588.47 1044.39 570.83
00030975 00000070 699.71 138.72 410.14 619.77 866.12 397.12 1033.90 375.43 1001.89 498.95 882.09 587.94 1046.23 569.63
00030976 00000071 699.58 137.77 412.34 616.16 862.57 398.71 1033.80 373.03 999.98 501.70 879.75 586.00 1048.92 564.52
00030977 00000072 701.79 141.00 412.59 605.73 861.87 397.60 1034.96 371.60 998.26 502.94 880.05 583.11 1050.34 561.49
00030978 00000073 704.20 141.20 411.38 601.49 862.25 396.41 1036.02 369.96 998.55 500.73 880.57 579.33 1053.11 557.36
00030979 00000074 704.46 141.28 412.15 601.41 862.39 395.78 1036.97 369.74 998.93 499.81 880.24 577.86 1054.65 556.12
00030980 00000075 706.18 142.72 411.07 598.96 864.25 399.44 1040.29 372.10 1001.80 501.78 880.28 578.38 1056.85 555.90
00030981 00000076 710.65 148.04 408.24 600.45 875.34 407.14 1045.97 382.60 1010.00 505.81 885.76 583.37 1059.72 563.49
00030982 00000077 717.22 149.11 404.39 609.80 881.15 412.44 1050.58 384.95 1016.76 511.04 890.40 592.53 1064.45 570.50
00030983 00000078 720.62 156.41 402.52 602.63 881.81 414.55 1051.30 388.02 1017.00 513.22 896.58 595.87 1067.59 574.31
00030984 00000079 723.35 155.19 400.06 592.11 884.80 410.40 1053.83 386.10 1019.63 510.72 904.03 592.39 1068.12 572.55
00030985 00000080 724.31 152.66 400.27 588.40 884.36 407.46 1053.52 381.68 1019.98 507.71 908.37 591.06 1069.23 569.77
00030986 00000081 723.52 151.28 400.59 585.69 883.21 406.02 1052.00 379.83 1018.99 505.20 907.52 588.52 1068.29 566.97
00030987 00000082 722.27 150.49 401.08 585.88 879.71 405.19 1050.63 380.60 1014.49 505.12 902.94 586.14 1067.07 565.83
00030988 00000083 719.40 151.49 403.30 583.09 874.90 405.36 1048.82 380.17 1010.47 505.74 897.25 584.47 1066.15 563.69
00030989 00000084 716.84 149.81 404.76 594.74 871.70 405.34 1046.43 379.32 1008.18 508.13 891.90 587.98 1063.73 566.58
00030990 00000085 714.21 150.60 406.39 599.08 870.39 404.48 1044.08 379.81 1005.01 509.08 888.93 589.50 1059.72 569.13
00030991 00000086 714.75 147.93 403.57 597.96 869.87 401.83 1042.83 380.22 1001.31 506.74 892.68 589.39 1056.80 570.91
00030992 00000087 715.81 145.89 401.04 598.37 870.03 399.40 1041.55 379.64 1000.70 502.57 902.22 594.98 1054.73 577.25
00030993 00000088 716.52 148.32 399.70 600.50 871.38 398.10 1041.76 381.54 1000.78 500.72 902.58 598.27 1051.69 583.24
00030994 00000089 713.73 150.46 402.37 605.79 872.04 399.51 1039.59 385.09 997.64 504.26 898.57 599.70 1047.69 586.39
00030995 00000090 712.81 149.86 401.82 599.70 870.18 402.51 1042.59 385.91 997.95 509.96 894.40 597.76 1049.59 583.10
00030996 00000091 711.93 150.24 403.58 595.33 869.69 403.66 1043.36 385.05 998.74 511.00 893.78 595.31 1051.95 579.14
00030997 00000092 711.93 150.93 404.74 594.87 869.65 404.66 1042.94 385.20 998.75 510.70 893.54 593.80 1053.92 576.92
00030998 00000093 712.43 150.95 404.92 594.58 870.20 404.95 1043.15 384.28 999.61 510.83 893.19 593.11 1054.45 575.40
00030999 00000094 711.92 151.64 405.02 600.92 871.93 405.64 1042.28 384.15 1001.79 512.57 889.98 593.10 1054.59 575.10
00031000 00000095 710.77 155.35 405.70 599.52 870.85 407.07 1040.79 385.27 1000.48 516.29 885.45 593.52 1052.18 575.71
00031001 00000096 710.88 158.22 405.84 598.48 869.45 407.80 1040.93 385.63 999.52 518.38 884.50 595.67 1052.72 577.50
00031002 00000097 710.51 162.34 405.58 594.04 868.70 412.50 1042.74 391.35 997.03 525.12 881.67 597.41 1052.22 580.28
00031003 00000098 713.50 170.17 400.08 582.79 870.51 422.81 1045.05 402.14 996.28 529.18 879.59 599.36 1051.23 582.84
00031004 00000099 713.42 172.41 399.99 581.07 868.55 424.81 1044.08 402.23 994.69 532.09 877.59 601.63 1050.00 583.75
00031005 00000100 712.25 170.04 399.53 585.29 866.56 424.12 1042.46 401.15 992.53 534.91 878.02 603.89 1048.98 585.53
00031006 00000101 713.44 169.74 400.33 586.23 867.83 423.42 1042.33 402.25 990.65 535.19 881.64 606.47 1046.69 589.24
00031007 00000102 714.76 164.89 401.18 590.09 868.50 422.70 1045.34 401.71 993.18 534.91 884.00 607.62 1049.84 590.34
00031008 00000103 716.43 165.15 400.98 587.99 868.02 422.72 1047.08 401.05 994.23 533.13 887.08 609.44 1051.56 591.43
00031009 00000104 718.21 166.03 400.23 591.43 870.90 421.55 1046.14 400.90 995.47 531.77 890.60 611.82 1050.96 594.42
00031010 00000105 719.37 164.01 400.04 599.65 873.54 420.74 1045.39 401.34 996.18 530.96 890.29 611.09 1051.56 594.57
00031011 00000106 720.48 164.91 401.75 598.21 874.96 418.86 1048.47 398.82 999.48 530.36 890.23 607.84 1055.95 590.99
00031012 00000107 721.27 161.18 402.00 598.18 876.45 417.30 1051.00 398.38 1001.45 528.52 892.99 605.74 1057.77 589.74
00031013 00000108 722.76 162.94 401.70 590.40 877.10 415.79 1053.52 397.31 1003.55 526.20 895.91 604.17 1059.47 588.68
00031014 00000109 723.65 161.07 399.94 579.27 878.86 415.84 1056.85 397.03 1006.56 525.09 899.56 600.30 1060.99 584.69
00031015 00000110 724.44 160.63 399.68 579.22 879.43 415.27 1057.53 396.36 1007.60 523.49 902.60 601.19 1062.10 585.31
00031016 00000111 724.53 159.75 399.78 581.13 879.06 415.30 1057.22 396.07 1007.14 523.34 902.60 601.85 1062.21 585.63
00031017 00000112 724.58 160.07 399.66 582.45 878.99 415.42 1056.23 395.94 1006.61 523.24 902.90 602.90 1061.57 586.38
00031018 00000113 724.85 160.96 399.19 581.65 877.97 415.64 1055.71 396.38 1005.25 523.46 902.97 604.28 1060.97 587.91
00031019 00000114 724.35 160.61 399.39 583.67 876.37 415.64 1054.53 396.58 1002.87 523.72 901.89 606.68 1058.57 590.46
00031020 00000115 724.47 160.48 398.38 584.67 875.83 415.05 1053.25 396.61 1000.90 523.34 901.96 608.35 1056.19 592.58
00031021 00000116 723.70 160.15 398.75 585.51 875.62 414.36 1053.11 396.25 1001.08 522.41 901.83 608.18 1056.25 592.63
00031022 00000117 723.02 160.46 399.29 585.01 874.99 414.39 1053.18 395.96 1001.35 522.00 901.58 607.65 1057.12 591.79
00031023 00000118 723.47 160.70 399.16 584.25 874.94 414.58 1053.37 395.99 1001.50 522.01 901.56 607.08 1057.80 591.13
00031024 00000119 723.45 158.64 399.68 588.60 876.15 415.06 1054.36 396.04 1003.23 522.42 901.67 607.02 1059.72 590.54
00031025 00000120 723.61 158.97 399.60 587.52 876.03 415.11 1054.66 396.10 1003.31 522.56 901.81 606.99 1060.05 590.54
00031026 00000121 723.69 158.69 399.19 587.47 875.99 415.01 1054.61 395.97 1003.21 522.03 901.91 606.71 1059.95 590.20
00031027 00000122 723.57 158.44 399.21 587.63 875.83 414.92 1054.56 395.99 1003.15 522.15 901.56 606.53 1059.76 590.15
00031028 00000123 723.32 158.45 399.26 589.18 875.41 415.33 1054.10 396.05 1002.66 522.44 900.22 606.50 1059.82 589.86
00031029 00000124 722.98 158.69 399.63 589.20 874.61 415.56 1054.16 395.65 1002.63 522.94 899.97 606.77 1060.44 589.59
00031030 00000125 722.42 159.07 400.30 588.96 874.76 415.60 1053.39 395.72 1002.03 522.97 900.19 606.58 1059.72 589.37
00031031 00000126 722.34 159.55 400.11 587.63 874.77 415.48 1053.14 395.53 1002.04 523.04 899.64 605.26 1059.60 588.04
00031032 00000127 721.89 158.65 400.12 590.55 875.54 415.03 1053.17 395.58 1001.96 523.69 899.11 605.68 1058.53 588.82
00031033 00000128 721.00 162.37 398.58 588.20 876.38 416.96 1049.63 398.29 999.98 523.35 900.23 607.14 1053.72 590.81
00031034 00000129 722.78 165.64 395.23 581.99 882.77 422.53 1050.91 405.58 1002.69 522.42 902.91 606.29 1051.85 591.55
00031035 00000130 723.42 164.41 395.19 581.09 882.68 419.23 1050.95 401.95 1003.47 520.86 904.69 604.94 1052.65 589.95
00031036 00000131 722.40 161.69 396.28 585.48 882.26 413.01 1051.46 396.28 1005.03 519.32 906.93 605.23 1053.84 590.58
00031037 00000132 721.87 159.16 397.20 589.09 881.36 410.40 1051.28 394.26 1004.73 517.86 907.84 606.02 1053.76 591.55
00031038 00000133 722.30 158.62 397.54 592.15 880.22 408.89 1051.02 393.35 1004.29 516.79 907.48 606.49 1054.87 592.45
00031039 00000134 722.42 159.77 398.08 584.52 877.11 409.70 1053.23 394.35 1002.53 518.15 903.87 604.85 1054.97 591.29
00031040 00000135 722.71 159.13 397.46 580.37 876.51 410.04 1055.05 394.38 1003.05 519.67 903.13 604.04 1056.04 590.39
00031041 00000136 721.36 158.81 398.82 590.59 877.39 408.84 1051.79 394.82 1001.76 517.47 902.42 606.81 1052.15 594.36
00031042 00000137 722.38 159.35 399.55 593.83 877.30 409.15 1052.97 393.72 1003.26 518.22 901.39 606.46 1056.03 592.85
00031043 00000138 722.98 160.67 399.42 592.24 878.54 409.21 1052.24 394.19 1003.47 517.82 900.63 603.46 1056.08 590.28
00031044 00000139 723.16 162.01 399.30 588.45 878.90 408.26 1052.96 393.46 1004.13 517.39 900.68 601.32 1056.82 588.42
00031045 00000140 722.83 159.78 399.18 589.40 879.92 408.32 1052.55 393.55 1004.80 517.02 901.01 600.16 1056.28 587.27
00031046 00000141 722.43 159.35 399.21 589.75 879.35 407.74 1051.60 393.11 1004.29 516.15 900.66 599.48 1055.96 586.68
00031047 00000142 721.06 159.96 400.16 590.70 877.83 407.31 1050.27 393.83 1002.42 515.82 897.83 597.80 1054.98 585.87
00031048 00000143 720.33 159.32 400.85 587.96 876.06 407.14 1049.83 393.71 1000.11 516.01 896.00 596.55 1053.49 584.71
00031049 00000144 719.93 158.39 401.03 589.69 875.62 406.64 1050.25 393.37 999.93 516.38 895.26 596.56 1053.88 584.79
00031050 00000145 719.70 157.38 400.61 590.36 875.06 405.52 1049.79 392.30 999.73 515.72 894.95 596.13 1053.55 584.41
00031051 00000146 718.38 156.14 401.22 590.94 874.62 405.00 1048.15 391.91 998.62 514.73 894.56 594.91 1052.22 583.25
00031052 00000147 717.39 155.77 401.96 595.40 873.64 403.98 1047.49 390.94 998.37 513.59 893.06 595.35 1052.46 583.62
00031053 00000148 717.21 154.24 401.65 596.87 873.89 402.97 1046.14 390.46 997.95 513.26 893.01 595.16 1050.45 583.94
00031054 00000149 716.18 154.02 403.01 603.33 873.12 401.34 1044.94 389.23 997.13 511.90 891.27 595.54 1050.68 584.51
00031055 00000150 715.28 153.37 401.99 611.65 872.03 400.39 1043.68 388.58 997.53 511.43 889.43 599.84 1048.38 589.08
00031056 00000151 713.82 153.93 403.46 617.10 870.25 401.50 1041.37 388.35 997.13 512.55 885.24 601.22 1047.99 589.53
00031057 00000152 712.95 155.71 404.56 618.47 867.94 402.52 1040.61 388.67 995.93 514.73 881.74 601.74 1048.91 589.56
00031058 00000153 714.73 162.82 404.69 602.93 866.08 406.00 1042.64 390.54 993.75 519.77 879.13 598.77 1051.21 585.77
00031059 00000154 715.49 172.18 403.85 586.24 863.77 410.54 1042.79 394.62 989.43 527.40 875.71 596.91 1049.96 584.07
00031060 00000155 717.08 177.32 402.81 574.03 862.54 412.91 1045.15 398.28 987.28 530.14 873.10 594.86 1049.07 583.60
00031061 00000156 718.05 179.72 402.83 567.95 862.76 413.27 1047.05 398.95 987.87 530.70 873.57 593.46 1050.52 582.70
00031062 00000157 718.20 180.32 402.99 566.96 863.10 412.48 1047.01 397.74 988.42 529.79 874.23 592.66 1050.96 581.57
00031063 00000158 717.59 177.56 402.42 575.50 864.18 407.34 1045.52 394.55 989.15 524.90 874.25 591.84 1049.96 581.90
00031064 00000159 715.42 175.75 404.11 576.25 862.95 404.37 1044.18 391.84 988.27 522.27 874.11 590.50 1048.26 580.65
00031065 00000160 716.26 175.23 402.04 576.91 863.34 404.97 1043.85 392.05 988.40 522.95 876.15 593.06 1047.50 582.75
00031066 00000161 717.63 176.67 399.80 567.46 862.40 409.71 1045.49 396.26 987.13 526.60 878.27 594.65 1047.08 584.01
00031067 00000162 719.00 177.87 399.07 564.13 861.06 412.46 1048.89 396.84 987.22 530.57 883.43 602.93 1047.69 590.28
00031068 00000163 719.30 179.96 399.09 567.96 863.11 414.21 1049.22 399.60 988.50 531.35 885.96 607.18 1047.44 595.07
00031069 00000164 716.44 181.83 402.26 570.46 861.10 409.98 1045.52 395.27 990.74 532.08 883.59 607.12 1044.23 593.55
00031070 00000165 718.58 176.69 400.48 572.56 864.80 411.26 1048.65 397.48 989.48 527.84 886.68 606.89 1045.93 595.33
00031071 00000166 719.20 171.97 399.19 572.53 866.13 408.48 1048.29 394.60 990.05 524.59 887.84 602.26 1046.28 590.62
