Video ID: 	AvoObZZutvs
H: 	1080
W: 	1920
FPS: 	25.0

FRAME INDEX X0 Y0 W H [Landmarks (5 Points)]

00008596 00000000 775.74 109.35 367.47 494.49 882.58 326.26 1043.46 328.04 969.10 410.61 911.20 502.44 1023.12 503.30
00008597 00000001 775.29 103.51 368.88 493.68 877.88 315.61 1039.96 315.98 965.70 395.59 908.05 492.78 1021.24 492.45
00008598 00000002 773.47 95.26 366.43 503.52 880.14 312.76 1040.82 307.50 966.20 384.46 911.45 492.97 1022.63 489.01
00008599 00000003 773.14 89.60 370.44 504.75 881.25 309.79 1043.59 306.80 966.97 379.73 910.57 488.15 1019.20 486.25
00008600 00000004 772.80 87.89 369.53 504.82 880.77 309.12 1042.05 306.31 966.87 378.70 909.97 484.86 1018.74 483.25
00008601 00000005 771.55 86.70 368.08 508.67 875.50 308.34 1035.60 300.99 961.61 379.61 909.56 487.66 1017.85 482.14
00008602 00000006 769.06 84.43 368.19 513.34 873.40 309.14 1032.36 300.87 960.10 380.99 906.94 489.71 1016.10 483.49
00008603 00000007 766.97 89.00 371.54 510.41 869.56 314.16 1030.06 304.70 955.81 385.52 904.49 492.64 1015.38 485.28
00008604 00000008 766.77 93.52 368.74 510.65 864.97 320.88 1026.00 312.29 950.00 397.26 898.90 501.06 1009.77 494.80
00008605 00000009 762.82 98.09 366.82 512.91 854.57 325.46 1017.40 314.44 941.16 410.16 890.22 515.24 1002.16 507.45
00008606 DELETE   753.91 100.52 373.79 515.45 843.05 332.68 1007.51 324.56 925.34 426.20 882.26 522.67 999.68 516.92
00008607 00000011 747.32 105.53 376.73 518.93 837.53 338.68 999.99 332.06 918.41 435.28 877.11 528.02 994.14 523.09
00008608 00000012 741.80 109.18 379.36 520.17 830.95 341.82 993.36 335.31 911.19 440.38 871.51 532.05 987.90 527.21
00008609 DELETE   737.57 110.58 380.78 519.26 826.10 343.57 988.01 338.25 904.65 442.84 866.38 532.38 982.57 528.43
00008610 DELETE   733.02 111.92 380.65 515.60 821.87 343.75 981.71 341.20 898.13 444.97 860.05 532.27 972.77 530.67
00008611 00000015 730.73 115.32 381.46 512.17 820.33 349.86 981.05 349.27 894.58 442.57 854.38 530.03 968.61 530.24
00008612 00000016 728.08 115.21 380.88 514.51 816.52 351.06 977.38 350.36 889.95 439.65 849.21 529.34 965.34 529.53
00008613 00000017 726.17 112.98 382.06 515.89 814.10 347.44 975.12 347.39 886.53 434.02 843.78 525.16 962.25 525.79
00008614 00000018 725.65 106.28 381.98 520.92 812.48 338.33 971.99 339.39 882.53 427.02 838.88 520.60 956.51 522.26
00008615 00000019 725.44 101.47 379.34 520.00 807.44 328.33 969.53 328.01 878.65 421.72 837.24 514.92 953.27 515.43
00008616 00000020 728.26 96.87 374.59 516.08 805.32 319.66 967.69 318.17 876.56 413.37 836.14 508.64 949.71 508.02
00008617 00000021 732.06 93.91 372.10 515.15 805.58 315.79 966.92 311.23 875.40 403.02 835.92 502.95 949.78 500.21
00008618 00000022 733.43 89.84 372.19 517.93 806.60 312.74 968.61 308.21 876.03 399.23 835.49 500.92 949.74 498.30
00008619 00000023 733.91 87.10 374.36 521.10 806.94 312.03 969.59 307.24 876.11 399.11 836.01 500.84 950.46 498.16
00008620 00000024 735.64 87.02 375.13 520.28 807.49 313.25 970.40 307.98 876.30 402.02 837.31 501.50 952.25 498.40
00008621 00000025 737.30 88.14 375.34 519.41 809.47 314.90 971.39 310.26 878.23 406.29 839.74 503.30 954.10 500.54
00008622 00000026 738.31 86.97 375.31 520.88 810.29 315.06 971.95 310.65 879.12 407.75 840.75 503.67 954.83 501.07
00008623 00000027 739.19 85.27 375.83 520.99 810.44 314.86 972.75 310.37 878.66 407.34 840.53 502.99 955.35 500.36
00008624 00000028 739.75 82.04 375.50 524.30 809.45 313.64 973.01 307.89 877.14 405.05 838.91 501.96 955.00 498.42
00008625 00000029 739.68 81.86 375.42 522.50 807.69 313.31 972.06 306.76 874.70 403.44 837.38 501.52 954.13 497.47
00008626 00000030 738.66 82.71 375.11 521.82 806.64 315.08 969.66 308.06 873.40 404.55 836.73 502.57 953.06 498.14
00008627 00000031 738.34 88.05 373.89 516.03 805.85 317.33 968.26 310.90 872.54 406.73 836.56 504.57 951.30 500.49
00008628 00000032 737.16 90.76 372.59 513.65 804.26 319.38 965.66 313.22 870.71 410.18 835.92 507.13 948.89 503.21
00008629 00000033 736.27 92.90 372.57 515.62 803.53 323.04 963.07 317.75 868.09 415.81 834.89 511.52 948.40 508.11
00008630 00000034 733.82 97.14 374.45 516.76 803.24 327.05 963.11 321.84 868.05 420.80 835.92 515.82 950.01 512.58
00008631 00000035 729.20 102.84 377.13 523.26 803.75 330.63 962.10 324.76 869.75 423.93 837.67 519.05 949.71 515.74
00008632 00000036 726.20 105.20 378.25 530.78 803.79 332.87 961.39 326.71 869.39 426.97 838.78 524.89 947.87 521.47
00008633 00000037 723.64 106.99 377.90 534.21 804.24 332.53 960.41 326.17 872.15 426.92 842.34 528.54 944.74 525.31
00008634 00000038 723.19 106.61 378.09 535.94 803.39 333.47 960.07 327.29 870.65 427.54 840.85 529.37 945.46 526.23
00008635 00000039 722.43 107.04 378.63 534.19 802.36 333.91 959.21 327.45 870.07 427.09 840.45 529.30 945.20 525.86
00008636 00000040 721.76 108.29 379.09 530.99 801.65 334.58 958.58 327.64 869.61 427.69 840.22 529.32 945.30 525.36
00008637 00000041 721.92 108.59 378.09 529.07 801.55 335.82 959.09 328.80 869.64 427.63 839.58 529.64 945.20 525.56
00008638 00000042 722.79 109.35 378.19 527.77 801.95 336.86 959.25 329.83 869.51 428.43 838.87 529.53 945.90 525.42
00008639 00000043 722.62 110.04 379.13 526.63 802.69 337.48 959.48 330.69 870.09 429.41 838.98 529.68 945.87 525.72
00008640 00000044 722.58 111.14 380.13 525.58 803.65 338.02 959.61 331.68 871.01 430.91 839.81 530.17 946.36 526.46
00008641 00000045 723.58 111.09 380.80 525.78 805.48 338.53 961.51 332.74 872.90 431.69 840.98 530.70 947.83 527.40
00008642 00000046 725.59 111.91 380.47 524.06 807.83 339.50 962.75 333.26 875.43 432.55 843.70 530.80 950.52 527.12
00008643 00000047 727.42 113.28 381.73 522.01 811.21 343.61 966.10 337.61 879.24 433.84 847.31 530.05 955.35 526.28
00008644 00000048 732.09 114.65 379.29 521.48 812.98 348.50 967.72 340.50 880.72 433.58 848.90 530.98 958.32 525.71
00008645 00000049 733.65 113.96 381.02 522.43 814.67 348.52 971.63 340.93 882.21 436.98 851.23 531.82 963.33 526.68
00008646 00000050 734.34 112.95 383.69 523.61 817.36 347.34 976.47 340.11 886.89 440.06 855.07 533.84 968.36 528.82
00008647 00000051 734.18 114.61 385.84 523.69 819.09 346.76 976.97 339.60 889.93 444.38 857.90 536.36 968.24 531.37
00008648 00000052 735.65 113.79 385.12 523.88 820.28 346.49 978.41 340.18 891.14 447.42 859.97 537.72 969.95 533.36
00008649 00000053 736.68 113.99 384.41 523.62 821.23 346.83 979.43 340.92 891.67 448.84 860.84 538.51 970.52 534.50
00008650 00000054 737.35 115.42 384.54 521.35 821.65 347.41 979.73 340.74 891.77 449.24 861.33 538.93 970.82 534.37
00008651 00000055 737.05 114.99 384.82 522.19 821.66 347.18 979.89 340.76 892.19 449.44 861.53 539.06 970.81 534.72
00008652 00000056 736.53 114.59 385.01 523.90 821.69 346.72 979.39 340.22 892.42 449.36 861.75 539.07 970.81 534.62
00008653 00000057 735.59 116.17 384.82 522.32 820.96 347.18 978.49 340.69 892.05 449.73 861.47 539.18 970.10 534.74
00008654 00000058 733.55 116.48 385.88 523.33 819.95 348.19 977.63 341.05 892.04 449.91 861.26 539.83 970.23 534.86
00008655 00000059 731.61 115.73 386.38 524.86 818.68 348.69 976.85 341.88 892.23 450.55 860.87 540.33 969.94 535.55
00008656 00000060 730.61 117.03 385.75 524.66 817.20 349.88 976.13 342.92 891.14 450.58 859.78 541.10 969.51 536.16
00008657 00000061 730.18 116.63 385.08 525.69 816.29 350.05 975.58 342.99 890.43 450.19 859.00 541.11 969.23 536.04
00008658 00000062 728.90 117.70 385.35 525.55 815.41 350.51 974.55 342.41 890.11 449.95 858.13 541.12 968.42 535.29
00008659 00000063 727.60 117.83 384.99 524.35 814.15 350.42 973.58 342.36 889.02 449.80 857.12 540.65 967.64 534.82
00008660 00000064 726.63 118.37 384.86 524.36 813.34 351.09 973.09 342.37 888.65 449.16 856.64 540.50 967.62 534.23
00008661 00000065 726.38 118.96 384.74 522.47 813.03 351.55 972.92 343.38 888.03 448.72 855.43 539.87 966.85 534.03
00008662 00000066 725.85 120.60 383.98 520.90 812.38 352.90 972.47 344.22 887.56 448.30 854.88 540.54 966.36 534.26
00008663 00000067 724.46 121.35 384.39 520.80 811.70 352.75 970.78 344.97 886.32 449.24 853.98 540.89 964.37 535.32
00008664 00000068 723.76 123.03 383.39 520.80 810.91 353.13 970.31 346.23 885.63 449.74 852.58 541.19 963.19 536.41
00008665 00000069 722.59 124.01 382.25 519.42 810.26 353.32 969.14 347.60 884.33 449.69 850.92 540.87 960.98 537.11
00008666 00000070 721.03 125.15 381.35 519.67 808.74 354.03 967.46 349.01 882.09 450.08 848.63 541.47 958.69 538.31
00008667 00000071 719.65 125.53 381.00 520.64 807.55 354.78 966.22 350.27 880.46 450.35 846.63 541.85 956.74 539.16
00008668 00000072 718.14 125.58 379.98 520.92 806.18 355.82 964.50 351.93 878.77 450.06 844.59 541.77 954.59 539.58
00008669 00000073 717.17 125.97 378.07 521.10 804.98 356.53 961.58 352.26 876.95 449.78 843.22 542.76 951.64 540.27
00008670 00000074 715.79 126.88 377.47 521.52 803.12 356.46 960.06 351.77 875.19 449.46 841.10 543.52 949.87 540.75
00008671 00000075 715.42 126.33 376.93 522.84 802.58 356.26 959.58 351.52 874.29 450.52 840.89 544.44 949.22 541.63
00008672 00000076 714.27 125.99 377.16 524.24 801.41 355.99 959.02 352.28 872.99 451.45 838.73 544.54 947.97 542.52
00008673 00000077 713.30 126.64 377.38 523.68 800.13 356.44 957.62 352.51 871.87 451.35 837.16 544.91 946.34 542.67
00008674 00000078 711.77 126.06 378.43 524.73 799.07 356.26 957.20 352.58 871.22 451.54 836.20 545.23 945.88 543.17
00008675 00000079 710.49 127.21 379.34 523.35 797.75 356.27 956.26 352.26 870.18 451.23 835.23 544.82 945.48 542.43
00008676 00000080 709.06 126.93 380.22 523.57 796.59 355.91 955.29 351.69 869.15 451.84 834.19 544.93 944.73 542.32
00008677 00000081 707.88 127.39 381.08 523.44 795.38 356.40 954.63 352.13 868.20 452.16 832.98 545.55 944.01 542.84
00008678 00000082 707.13 127.44 381.77 524.01 794.01 356.84 954.48 352.46 866.84 452.32 831.74 546.19 943.96 543.37
00008679 00000083 707.12 126.54 380.75 525.53 793.40 356.91 954.00 352.88 866.18 453.28 830.97 546.98 943.12 544.45
00008680 00000084 706.61 126.92 380.38 525.92 792.96 357.33 953.80 353.16 866.09 453.39 830.47 547.83 942.55 545.18
00008681 00000085 705.51 126.85 381.05 528.31 791.81 358.38 952.64 353.55 864.92 454.38 830.33 548.84 942.28 545.58
00008682 00000086 705.37 127.34 380.25 529.32 791.36 358.51 951.77 353.44 864.46 454.98 830.21 549.39 942.07 545.93
00008683 00000087 705.08 127.27 380.71 530.89 791.56 359.23 951.80 353.62 865.01 456.53 830.98 550.69 942.47 546.75
00008684 00000088 704.74 128.11 381.39 531.18 792.13 359.95 952.14 353.71 866.07 457.83 832.45 551.52 943.42 546.98
00008685 00000089 705.50 128.53 381.04 530.92 792.54 360.88 952.32 354.00 866.63 458.05 832.75 552.47 943.64 547.41
00008686 00000090 705.75 128.62 381.56 531.19 792.75 361.28 952.55 354.02 866.87 458.52 833.48 552.32 944.66 546.89
00008687 00000091 706.89 129.44 380.65 528.95 793.77 361.95 954.02 355.29 867.95 459.15 833.65 551.76 945.53 546.83
00008688 00000092 707.63 130.02 381.92 527.77 794.50 361.53 955.62 354.74 868.69 458.10 834.06 551.33 946.66 546.31
00008689 00000093 708.37 131.65 381.50 526.40 795.44 362.10 956.20 355.03 869.55 458.45 835.24 551.64 947.41 546.42
00008690 00000094 709.43 131.98 381.30 526.53 796.97 361.72 958.30 355.08 871.27 459.44 836.29 551.28 949.41 546.39
00008691 00000095 712.18 132.67 380.77 525.84 802.19 362.97 964.85 357.34 877.98 459.61 840.86 549.96 955.99 545.99
00008692 00000096 717.86 133.93 378.78 526.68 810.59 365.92 970.62 359.54 887.21 457.72 849.47 550.26 962.60 545.99
00008693 00000097 724.60 135.73 379.38 525.53 821.76 365.80 984.04 358.76 901.47 458.52 861.18 551.78 974.98 546.85
00008694 00000098 733.53 135.96 375.09 521.79 832.69 368.28 992.15 356.66 919.67 460.90 878.69 553.86 991.96 544.89
00008695 DELETE   741.57 130.09 378.72 522.62 844.67 362.86 1012.93 348.38 939.24 459.17 892.85 554.56 1011.48 543.12
00008696 00000100 754.23 130.35 376.12 522.48 863.10 360.20 1031.32 347.61 962.25 458.13 906.51 553.11 1026.83 543.05
00008697 00000101 764.61 131.67 373.01 519.81 880.12 353.80 1050.54 345.27 982.53 449.37 928.95 550.05 1047.25 543.09
00008698 00000102 771.67 130.29 369.80 521.53 891.33 354.66 1060.79 345.23 996.11 451.82 939.68 551.17 1054.81 543.38
00008699 00000103 777.62 132.48 367.80 518.68 898.59 358.26 1066.40 346.31 1005.12 453.82 947.96 554.62 1059.20 544.95
00008700 00000104 781.26 133.62 366.61 515.94 905.50 359.50 1071.50 347.07 1013.05 454.33 956.38 557.38 1064.31 547.23
00008701 00000105 783.47 133.25 366.21 517.85 908.54 361.03 1074.45 348.32 1017.08 456.39 961.33 559.29 1068.96 548.87
00008702 00000106 784.85 133.31 364.81 519.13 911.41 361.98 1076.50 349.26 1021.25 457.29 964.20 560.82 1070.74 550.40
00008703 00000107 785.02 134.65 364.55 517.54 912.38 363.88 1078.07 351.68 1023.04 458.09 965.90 562.76 1073.06 552.66
00008704 00000108 784.14 137.30 365.29 514.71 912.39 366.22 1077.74 353.83 1022.98 459.59 966.00 563.32 1072.60 552.97
00008705 00000109 781.64 138.81 366.94 513.54 911.72 368.78 1076.69 356.67 1022.72 460.59 965.39 564.36 1071.61 554.10
00008706 00000110 778.53 139.06 368.15 515.72 910.01 370.64 1075.10 357.82 1021.92 463.23 963.43 566.71 1069.46 555.86
00008707 DELETE   773.62 139.14 368.20 516.48 908.76 373.87 1071.07 360.87 1020.96 465.80 961.93 568.61 1066.35 557.49
CROP_BBOX: 434 0 1372 886
