Video ID: 	rZ5TF2LAZHg
H: 	1080
W: 	1920
FPS: 	25.0

FRAME INDEX X0 Y0 W H [Landmarks (5 Points)]

00001186 00000000 734.21 308.14 490.16 671.33 886.62 634.34 1107.49 631.03 1005.21 785.42 884.96 825.60 1081.80 823.63
00001187 00000001 727.11 288.54 492.17 693.73 872.97 638.00 1095.73 634.12 990.92 785.46 874.78 829.24 1071.29 827.04
00001188 00000002 724.16 308.44 486.45 670.02 867.32 635.58 1085.35 635.30 977.82 786.13 866.29 824.32 1057.11 825.61
00001189 00000003 720.61 311.17 487.71 667.71 863.39 629.60 1083.89 632.53 972.85 785.18 861.18 823.53 1052.03 827.68
00001190 00000004 719.78 318.55 485.32 658.55 859.90 622.76 1080.08 630.10 965.68 782.15 857.05 821.20 1045.79 828.99
00001191 00000005 717.36 308.89 484.29 662.54 856.77 616.79 1076.33 623.85 962.34 777.29 854.83 817.66 1041.53 825.52
00001192 00000006 715.76 303.95 479.58 663.43 850.96 610.61 1071.48 618.32 956.06 768.60 850.72 812.16 1038.19 820.64
00001193 00000007 712.09 297.83 480.44 660.35 847.40 604.77 1067.89 611.49 951.93 756.00 848.19 803.39 1036.96 810.71
00001194 00000008 712.29 290.16 477.52 659.71 844.95 595.16 1066.73 601.40 950.15 743.91 848.58 794.88 1038.82 801.23
00001195 00000009 715.95 305.46 470.58 631.88 843.66 579.37 1064.75 589.93 945.41 733.58 850.16 785.56 1037.20 795.31
00001196 00000010 715.70 288.54 469.18 636.95 842.33 559.23 1060.79 571.14 944.36 717.72 853.29 773.42 1030.47 784.08
00001197 00000011 714.07 262.24 470.72 655.96 843.49 551.71 1060.85 557.93 944.80 697.14 859.51 761.23 1032.90 766.65
00001198 DELETE   720.84 249.13 458.82 640.12 845.37 538.91 1057.77 543.98 944.69 675.08 856.31 736.19 1034.39 741.31
00001199 DELETE   723.56 244.45 455.54 626.37 846.61 521.81 1059.52 525.53 947.56 656.74 855.59 718.83 1037.62 722.82
00001200 00000014 726.95 243.40 453.31 611.12 846.95 504.02 1055.84 512.08 944.74 644.45 857.74 701.93 1038.66 709.22
00001201 00000015 729.84 211.71 456.71 630.74 846.65 495.35 1054.78 501.18 942.89 629.34 866.05 691.34 1037.01 695.98
00001202 00000016 736.01 201.23 455.83 638.14 855.90 483.16 1060.15 492.13 949.24 618.30 869.26 679.31 1041.44 686.22
00001203 00000017 743.41 192.95 451.36 638.06 859.40 477.01 1059.20 482.95 951.53 609.57 876.07 677.01 1040.15 681.33
00001204 00000018 748.99 169.67 448.41 653.02 862.02 468.82 1064.97 473.67 960.35 599.93 877.82 670.22 1049.70 673.30
00001205 00000019 750.31 164.65 452.82 654.69 865.82 464.15 1069.55 469.79 964.69 596.72 882.59 664.29 1057.18 667.94
00001206 00000020 753.15 160.41 453.88 661.26 868.50 463.00 1073.51 471.40 966.11 597.88 882.37 661.57 1061.34 667.40
00001207 00000021 755.37 167.14 453.24 653.00 868.21 463.95 1074.45 474.95 962.60 600.48 879.94 662.73 1057.81 670.88
00001208 00000022 754.88 167.89 450.29 653.02 863.99 464.09 1070.04 477.31 956.39 600.69 872.81 661.67 1053.10 671.52
00001209 00000023 754.22 177.05 450.61 649.15 862.27 464.14 1064.30 481.43 948.76 602.60 867.19 662.17 1046.14 675.19
00001210 00000024 757.63 173.79 447.08 656.73 860.75 469.18 1058.39 487.58 942.07 606.54 868.66 669.60 1040.71 683.05
00001211 00000025 753.98 183.19 450.74 648.42 861.85 479.19 1061.08 494.83 946.08 609.99 872.58 675.41 1041.20 686.21
00001212 00000026 754.22 180.61 453.02 652.88 862.17 482.04 1062.52 498.75 945.15 615.71 872.39 681.34 1039.07 692.94
00001213 00000027 752.62 195.89 455.59 646.02 860.48 486.14 1061.21 503.68 942.90 622.23 870.92 684.66 1039.39 697.06
00001214 00000028 751.59 195.65 454.81 652.14 865.01 480.87 1063.00 502.94 947.89 623.55 868.09 683.73 1041.36 700.42
00001215 00000029 749.75 194.74 458.06 652.40 860.93 485.85 1062.00 502.54 946.32 623.43 869.22 683.12 1042.57 694.99
00001216 00000030 751.74 175.95 455.50 666.60 866.87 488.85 1066.73 499.06 957.19 619.14 875.49 682.35 1048.93 688.77
00001217 DELETE   750.08 197.95 462.07 635.00 875.87 489.86 1077.09 495.00 973.28 621.08 888.69 678.28 1061.19 680.53
00001218 00000032 754.10 189.96 462.85 645.44 887.13 483.29 1092.54 482.49 1001.75 622.48 908.18 688.83 1087.72 687.25
00001219 00000033 761.85 217.31 457.96 617.47 900.72 485.59 1108.13 471.98 1023.26 627.21 930.53 694.69 1108.06 682.61
00001220 00000034 762.97 217.83 456.47 627.30 907.42 496.06 1110.80 474.62 1034.09 629.68 940.07 702.71 1115.10 684.43
00001221 00000035 760.74 224.07 459.28 630.32 907.85 501.06 1109.08 477.71 1034.12 633.48 940.14 705.85 1115.29 686.26
00001222 00000036 756.06 235.61 456.43 626.39 902.44 510.43 1101.42 489.54 1025.66 640.97 931.56 710.10 1106.07 692.42
00001223 00000037 751.96 253.64 450.18 621.55 891.51 530.54 1089.72 512.34 1009.50 661.92 914.28 713.56 1095.48 698.84
00001224 00000038 743.70 249.70 453.83 637.90 876.74 539.48 1075.70 523.43 988.24 669.17 901.69 723.41 1083.73 709.79
00001225 00000039 736.44 241.59 457.98 651.58 861.99 548.03 1065.20 536.32 970.22 672.88 890.82 733.61 1070.89 722.88
00001226 00000040 733.79 237.42 462.52 662.03 853.64 553.57 1061.73 546.47 958.86 687.70 886.05 751.74 1058.06 744.73
00001227 00000041 729.03 252.26 465.34 651.69 846.84 558.63 1056.77 551.57 951.22 694.50 884.09 760.90 1050.48 754.46
00001228 00000042 724.64 259.55 468.93 654.14 843.75 563.57 1051.53 559.02 943.78 696.09 878.15 764.16 1042.21 759.63
00001229 00000043 723.58 270.10 469.23 651.57 839.07 563.22 1045.37 561.60 937.41 699.13 874.57 766.47 1039.99 764.22
00001230 00000044 717.57 274.31 471.86 648.05 833.86 565.81 1042.08 566.64 930.66 700.94 864.34 764.23 1036.12 764.00
00001231 00000045 713.18 263.04 473.00 657.65 824.63 569.76 1036.21 573.78 920.03 709.02 854.09 767.53 1025.03 770.19
00001232 00000046 708.25 288.18 477.42 632.81 821.43 567.56 1032.25 577.61 912.43 711.99 849.05 764.56 1020.25 772.67
00001233 00000047 709.81 280.85 472.79 642.88 821.36 573.18 1026.77 585.02 907.82 717.73 846.52 766.97 1016.49 776.28
00001234 00000048 708.07 294.50 472.15 628.34 817.08 574.36 1021.32 585.24 902.77 720.92 846.08 771.48 1011.09 780.17
00001235 00000049 707.32 301.51 468.55 620.06 812.11 577.10 1016.64 585.90 898.19 723.41 845.60 777.91 1006.33 784.82
00001236 00000050 692.79 300.95 473.43 618.02 803.83 576.39 1010.71 580.68 896.59 725.58 843.23 782.45 1007.40 784.06
00001237 00000051 689.68 301.38 473.96 618.00 799.92 579.66 1009.12 583.26 893.05 729.54 838.48 783.46 1007.47 784.79
00001238 00000052 686.75 293.98 475.50 629.29 798.79 580.79 1009.15 585.96 890.80 728.94 833.27 785.03 1003.15 787.66
00001239 00000053 688.12 290.67 473.61 634.45 796.90 582.18 1007.50 588.00 887.63 731.85 830.76 786.99 1002.37 790.31
00001240 00000054 688.46 290.07 472.94 636.12 795.87 582.32 1005.93 588.81 885.47 733.91 829.61 787.50 1000.70 791.39
00001241 00000055 687.87 290.87 472.26 636.77 795.65 582.13 1005.03 588.89 885.11 732.93 828.78 788.11 998.99 792.21
00001242 00000056 688.15 292.39 473.45 633.40 796.74 580.73 1007.57 587.59 886.40 730.57 828.53 787.07 999.35 791.09
00001243 00000057 687.29 298.34 475.29 626.81 796.86 580.11 1008.83 586.31 888.09 729.94 830.11 787.34 1000.68 790.85
00001244 00000058 688.75 305.18 474.91 619.46 799.73 578.07 1011.00 584.86 891.60 728.08 834.03 786.36 1001.57 790.21
00001245 00000059 690.19 301.44 474.63 621.59 800.42 576.37 1011.75 583.43 892.24 727.94 836.02 785.92 1003.70 789.79
00001246 00000060 691.25 302.54 474.55 620.64 803.07 573.94 1013.91 581.83 894.73 726.66 836.06 783.14 1005.21 787.76
00001247 00000061 692.72 293.17 475.18 630.36 804.04 572.87 1015.47 581.64 894.94 725.44 836.93 783.16 1005.89 788.14
00001248 00000062 694.46 292.55 475.44 632.90 805.95 571.35 1017.91 580.31 897.16 724.79 837.73 782.53 1007.16 787.75
00001249 00000063 694.45 280.50 477.39 645.87 806.64 571.23 1018.96 579.26 898.54 723.41 839.40 784.15 1007.45 788.43
00001250 00000064 701.13 278.11 475.04 655.58 808.60 572.91 1016.62 583.44 894.71 721.47 836.80 783.78 998.64 792.80
00001251 00000065 700.47 280.45 479.87 658.40 810.82 566.25 1016.25 574.59 898.95 726.27 839.51 779.54 1006.12 786.50
00001252 00000066 700.46 260.48 481.92 677.32 817.97 565.63 1025.15 576.36 909.10 721.37 844.95 779.49 1012.78 787.67
00001253 00000067 704.89 262.55 476.44 673.98 824.20 565.49 1029.85 577.43 914.95 720.10 847.16 775.99 1019.19 785.18
00001254 00000068 711.27 267.69 469.34 673.42 818.82 571.62 1026.54 575.72 911.52 713.10 851.72 779.90 1020.43 782.73
00001255 00000069 707.67 265.62 474.58 667.00 818.55 558.54 1020.11 559.08 908.37 711.41 844.55 770.71 1013.51 771.21
00001256 00000070 697.00 257.44 480.66 667.79 814.52 558.25 1026.21 560.46 915.32 705.86 848.26 774.62 1021.13 774.22
00001257 00000071 693.06 259.41 483.52 667.48 809.78 556.48 1021.77 558.88 909.32 705.87 841.38 770.64 1019.95 770.66
00001258 00000072 689.76 248.61 487.59 680.06 806.24 555.80 1020.43 559.76 905.30 709.62 838.91 772.37 1017.48 773.60
00001259 00000073 690.60 264.27 485.17 662.29 802.54 554.69 1017.03 559.89 899.36 711.98 835.54 770.91 1014.79 773.13
00001260 00000074 689.25 265.94 483.98 660.09 799.32 558.26 1012.09 565.87 892.63 717.02 831.25 772.33 1008.14 776.63
00001261 00000075 691.02 261.39 481.07 673.72 794.18 560.24 1003.18 569.50 882.96 725.03 823.84 773.93 996.52 781.52
00001262 00000076 692.95 269.04 477.57 665.24 789.74 562.95 998.27 576.46 874.04 732.67 819.32 773.25 993.42 784.34
00001263 00000077 689.15 282.38 475.50 637.99 788.35 563.80 999.48 581.30 868.64 730.42 815.65 768.48 997.72 781.11
00001264 00000078 686.12 283.21 475.77 637.28 785.69 561.38 994.39 585.94 860.67 729.94 806.08 759.18 994.04 777.61
00001265 00000079 685.75 291.87 475.60 631.62 782.72 561.96 991.97 585.30 857.39 728.91 805.76 763.52 990.42 780.86
00001266 00000080 692.69 284.42 472.73 647.36 779.67 563.93 982.67 587.77 852.19 732.45 806.31 771.55 978.22 790.51
00001267 00000081 692.31 284.12 471.16 652.33 777.92 564.91 976.47 588.13 845.64 731.34 806.89 776.98 970.87 795.34
00001268 00000082 690.59 286.76 472.13 650.90 775.81 562.61 974.36 589.98 841.23 731.89 803.19 775.28 967.55 797.04
00001269 00000083 687.78 292.64 470.92 639.02 769.12 560.07 975.59 586.24 832.45 729.27 800.56 779.64 968.19 799.23
00001270 00000084 688.52 292.93 471.19 647.17 769.17 558.50 964.82 589.50 828.26 728.17 795.78 774.97 958.80 799.38
00001271 00000085 687.97 292.49 468.73 648.30 767.97 556.33 962.64 590.94 824.16 726.34 789.91 772.06 952.72 799.23
00001272 00000086 686.39 296.38 466.98 643.57 765.92 554.44 960.86 591.32 821.53 725.95 786.59 771.33 948.37 800.39
00001273 00000087 687.96 306.21 462.94 628.95 760.36 552.49 961.86 588.92 810.31 725.11 781.44 777.09 945.72 804.78
00001274 00000088 678.83 302.45 469.37 632.20 757.56 546.86 959.61 591.07 814.29 737.36 782.31 769.61 942.99 805.84
00001275 00000089 678.73 301.01 466.62 628.46 755.74 546.23 956.50 592.11 810.96 736.06 777.79 767.19 939.07 804.94
00001276 00000090 679.00 302.23 463.01 626.35 754.35 548.16 949.44 594.93 805.21 736.79 775.84 767.28 933.37 805.88
00001277 00000091 678.47 304.34 463.58 625.34 752.09 547.41 944.88 594.06 798.74 734.52 772.06 767.36 928.79 806.00
00001278 00000092 676.27 312.86 465.58 619.33 748.94 544.57 940.93 593.78 793.39 733.05 769.16 767.81 925.26 808.32
00001279 00000093 673.28 311.77 464.58 623.44 745.36 544.29 937.05 595.44 787.90 733.81 764.03 767.92 921.63 809.95
00001280 00000094 672.12 320.32 465.23 615.56 742.17 544.10 932.24 597.09 781.41 734.12 762.40 768.10 917.07 811.38
00001281 00000095 670.49 318.61 464.39 617.51 740.39 544.87 929.05 598.20 777.62 733.85 758.76 768.40 913.42 811.96
00001282 00000096 670.30 323.75 462.38 613.22 739.37 544.66 926.96 599.31 774.26 735.15 757.99 768.92 910.99 813.56
00001283 00000097 669.68 327.84 462.42 609.17 737.53 542.62 925.50 599.03 770.56 737.24 754.22 766.88 909.64 813.05
00001284 00000098 669.17 325.33 459.37 610.57 735.92 542.23 923.42 598.99 768.05 737.54 752.35 766.71 907.75 813.22
00001285 00000099 669.57 327.83 457.63 607.95 735.83 541.36 923.32 597.64 768.13 735.58 751.29 765.77 906.88 811.94
00001286 00000100 670.60 328.17 455.79 607.23 735.55 541.06 921.53 596.90 767.23 734.31 752.23 766.43 905.87 812.20
00001287 00000101 670.15 325.68 456.47 608.87 736.58 541.68 922.51 597.01 768.92 732.37 752.10 765.36 906.57 810.73
00001288 00000102 671.12 328.76 457.90 605.30 738.12 541.63 923.26 597.48 770.25 731.24 753.74 764.29 907.57 809.95
00001289 00000103 671.00 331.90 459.19 602.06 737.65 540.63 924.47 596.90 770.56 731.59 753.34 764.39 907.39 810.42
00001290 00000104 670.80 329.86 460.32 604.31 737.79 539.87 924.70 596.87 770.51 732.31 753.55 763.86 908.07 810.53
00001291 00000105 671.55 335.25 461.59 600.57 740.00 539.35 927.48 598.72 772.53 734.58 755.96 762.72 912.45 811.03
00001292 00000106 672.29 326.34 461.27 610.88 742.33 540.62 930.19 598.91 776.78 733.81 757.91 762.85 915.55 810.35
00001293 00000107 673.03 325.21 465.09 613.17 744.82 542.08 932.94 599.47 781.27 735.52 762.51 763.66 920.82 810.24
00001294 00000108 674.07 328.51 466.75 611.29 746.49 541.34 937.78 599.20 784.45 735.76 763.41 764.12 923.62 811.26
00001295 00000109 679.83 323.73 460.76 615.98 746.18 545.28 937.72 601.05 783.22 738.52 759.11 773.61 912.15 819.71
00001296 00000110 687.78 335.51 457.23 610.69 757.69 557.17 952.74 614.27 797.21 736.01 766.46 773.04 924.55 818.59
00001297 00000111 693.78 332.48 460.21 613.87 772.74 562.75 967.58 621.67 814.51 739.58 778.32 770.26 941.97 817.33
00001298 00000112 697.03 323.24 466.88 614.24 783.91 572.99 979.74 624.25 835.38 741.56 791.30 770.06 958.09 810.94
00001299 DELETE   705.19 325.70 470.39 612.42 798.88 574.00 996.62 616.86 859.01 739.49 804.94 775.18 970.71 810.02
00001300 DELETE   709.72 310.03 477.21 629.19 812.14 573.63 1009.00 608.06 878.17 741.68 821.87 780.04 982.62 809.08
00001301 00000115 718.16 305.59 476.62 636.14 826.61 575.94 1025.12 606.97 898.25 744.77 835.06 783.42 993.28 810.05
00001302 00000116 728.71 307.15 470.99 635.11 838.92 582.55 1045.26 603.28 920.24 736.98 850.21 795.21 1012.87 812.96
00001303 00000117 729.97 303.03 474.79 646.27 846.38 586.89 1055.22 598.96 936.87 734.06 863.85 799.93 1027.62 810.34
00001304 00000118 734.11 308.75 473.15 642.66 854.50 587.61 1064.70 597.93 949.84 733.42 871.73 799.16 1039.89 807.52
00001305 00000119 737.37 296.61 471.99 652.05 860.69 588.87 1070.20 595.41 960.91 731.69 881.99 801.42 1046.06 806.40
00001306 00000120 741.08 294.21 469.71 648.99 866.36 585.68 1078.55 589.78 971.18 729.78 888.45 798.94 1053.86 801.68
00001307 00000121 741.86 301.62 471.17 638.38 870.13 584.15 1082.65 586.65 976.30 724.83 889.14 791.52 1062.49 792.75
00001308 00000122 741.90 305.00 471.65 634.62 871.97 583.78 1084.16 583.30 980.42 724.96 890.19 787.45 1067.26 786.35
00001309 00000123 741.07 299.67 472.32 639.03 874.39 582.80 1084.13 581.35 984.56 724.31 892.88 783.09 1070.26 781.04
00001310 00000124 740.89 293.61 471.47 646.31 874.95 582.85 1083.92 581.26 986.12 725.34 893.03 781.29 1073.03 779.29
00001311 00000125 741.21 297.99 470.71 641.06 874.42 581.68 1083.92 579.65 985.54 726.45 892.06 779.03 1074.40 776.85
00001312 00000126 741.43 300.73 469.76 638.68 873.92 581.45 1081.73 579.66 983.23 726.26 890.56 775.23 1075.44 773.28
00001313 00000127 739.79 298.15 467.59 639.60 869.87 584.05 1076.80 581.56 978.29 724.84 887.37 774.54 1074.55 771.93
00001314 00000128 733.83 291.21 479.17 636.32 866.42 585.85 1075.11 587.03 971.44 726.64 883.20 771.71 1065.64 771.43
00001315 00000129 735.74 288.82 475.82 633.86 865.43 582.29 1075.62 586.18 968.90 725.58 880.09 770.03 1061.34 772.34
00001316 00000130 734.28 272.59 476.30 653.82 863.68 578.79 1073.72 583.21 965.77 719.81 878.80 771.16 1055.72 773.75
00001317 00000131 734.24 269.76 476.17 658.32 863.41 578.11 1074.02 582.35 964.66 716.44 879.16 772.80 1054.46 775.11
00001318 00000132 736.42 266.65 476.45 662.31 864.62 576.30 1074.03 581.58 963.27 714.11 879.13 772.57 1052.48 775.61
00001319 00000133 737.13 267.00 477.74 664.60 864.91 575.92 1072.23 582.05 961.93 715.58 881.29 777.39 1049.29 781.11
00001320 00000134 740.56 258.63 477.31 673.59 866.64 573.50 1074.88 582.46 961.50 713.82 882.14 778.90 1048.78 784.53
00001321 00000135 740.29 249.97 478.01 685.32 868.12 571.87 1079.21 583.29 963.24 714.17 878.60 779.86 1047.79 787.75
00001322 00000136 741.60 253.66 478.19 677.10 870.02 570.76 1081.52 584.20 964.67 715.21 877.32 776.84 1048.11 786.38
00001323 00000137 742.78 254.74 477.53 673.87 870.03 570.56 1082.42 585.84 964.70 715.62 875.13 775.17 1049.27 786.22
00001324 00000138 742.25 255.42 478.27 671.90 869.29 570.23 1082.69 585.85 964.09 717.80 873.11 773.82 1050.07 785.29
00001325 00000139 740.99 254.42 478.96 674.58 869.11 571.61 1083.07 586.69 965.27 719.75 873.40 775.15 1050.18 786.29
00001326 00000140 741.42 267.82 476.03 658.00 872.22 577.05 1082.24 591.62 968.51 720.24 874.62 774.41 1049.62 785.27
00001327 00000141 742.01 290.38 472.33 641.31 869.90 585.70 1083.23 596.18 969.95 725.18 877.34 785.52 1054.69 793.71
00001328 00000142 742.80 289.55 468.56 644.14 871.67 596.64 1082.02 605.06 972.65 732.40 879.32 789.20 1057.51 795.65
00001329 00000143 740.91 290.95 468.78 650.64 871.39 602.47 1081.68 608.55 974.98 737.16 879.82 795.43 1057.96 800.20
00001330 00000144 739.40 292.30 469.89 650.79 872.35 606.85 1081.21 610.75 976.06 745.30 883.00 799.65 1056.36 802.84
00001331 00000145 738.85 305.72 470.15 638.03 871.81 611.02 1081.84 613.27 976.70 751.36 881.52 802.57 1054.92 804.87
00001332 00000146 738.21 299.76 468.99 643.03 871.06 614.83 1081.47 615.43 976.36 754.74 881.93 805.13 1055.08 806.12
00001333 00000147 736.28 315.60 469.39 627.74 870.10 617.43 1078.93 616.52 975.54 756.07 882.77 804.87 1055.86 804.60
00001334 00000148 734.12 322.80 472.06 622.04 868.91 619.02 1078.39 618.55 974.19 759.77 880.53 805.01 1056.28 805.32
00001335 00000149 732.20 328.35 473.74 614.43 869.14 620.38 1079.69 619.32 975.63 761.65 880.27 804.15 1056.41 804.33
00001336 00000150 733.94 328.89 470.93 619.95 868.58 622.23 1078.04 620.15 975.89 766.46 884.39 811.14 1056.46 810.10
00001337 00000151 734.20 334.52 470.26 616.54 870.51 624.59 1079.19 621.42 978.33 770.22 886.63 813.86 1056.88 812.26
00001338 00000152 735.13 332.04 468.74 619.98 870.70 625.75 1078.68 621.58 978.50 770.17 886.23 814.57 1056.13 812.17
00001339 00000153 733.98 328.25 470.68 624.24 870.25 626.96 1079.51 621.46 979.30 769.17 885.97 815.61 1056.44 812.11
00001340 00000154 733.92 330.35 471.25 617.94 870.77 624.19 1081.29 620.46 979.48 767.95 883.60 814.45 1053.92 812.69
00001341 00000155 735.44 330.42 470.60 617.27 871.04 623.00 1081.05 619.11 979.25 767.33 883.34 812.63 1055.52 810.71
00001342 00000156 736.99 332.08 469.15 615.54 872.35 621.04 1081.37 617.08 980.06 761.94 887.94 812.27 1056.33 810.00
00001343 00000157 737.63 326.73 469.35 617.98 871.88 617.94 1080.30 613.09 980.08 755.90 889.67 809.36 1058.92 806.05
00001344 00000158 736.99 314.40 471.24 627.25 872.41 615.38 1085.07 608.74 984.83 753.96 890.02 806.61 1064.97 801.86
00001345 00000159 740.49 308.34 469.55 630.89 873.77 611.74 1085.99 605.00 986.09 750.50 891.12 802.99 1069.45 798.00
00001346 00000160 740.92 303.85 470.58 633.20 874.55 610.48 1087.17 602.91 988.15 748.66 894.23 803.55 1071.00 797.63
00001347 00000161 741.26 302.60 470.61 634.63 875.15 610.60 1087.73 601.74 989.45 747.52 895.20 803.81 1072.28 796.81
00001348 00000162 740.18 305.83 471.99 633.74 874.90 610.77 1087.54 602.39 989.47 749.54 894.90 804.40 1071.66 797.88
00001349 00000163 739.51 311.73 472.32 630.19 875.89 612.59 1087.32 604.80 989.30 753.06 894.58 805.49 1070.40 799.69
00001350 00000164 739.14 317.02 471.59 626.26 875.39 612.87 1084.76 606.27 987.25 753.46 893.30 804.82 1067.44 800.21
00001351 00000165 737.23 320.55 470.06 622.30 873.73 614.06 1083.35 607.15 985.78 753.00 891.57 802.49 1067.65 797.76
00001352 00000166 735.46 326.03 470.95 614.71 873.52 615.14 1084.80 608.27 985.88 755.38 886.02 798.53 1066.89 794.35
00001353 00000167 735.44 328.37 470.58 612.38 872.83 615.51 1084.66 609.08 984.97 756.25 885.91 798.60 1069.17 794.66
00001354 00000168 733.48 326.76 472.82 615.86 872.75 617.97 1084.11 609.79 985.61 756.91 887.18 801.27 1067.51 795.82
