Video ID: 	MgJTNM0PMVQ
H: 	1080
W: 	1440
FPS: 	29.97002997002997

FRAME INDEX X0 Y0 W H [Landmarks (5 Points)]

00004612 00000000 594.12 171.54 383.71 537.96 670.67 400.93 826.21 370.66 743.44 476.28 711.85 579.70 847.52 555.14
00004613 00000001 592.76 177.49 386.33 529.47 671.71 402.92 827.65 372.91 746.12 478.55 712.31 580.87 847.71 556.56
00004614 DELETE   592.23 180.27 387.81 529.87 670.56 406.44 830.11 377.21 747.00 482.19 710.47 584.57 850.00 561.01
00004615 DELETE   592.33 182.33 385.41 531.91 669.18 408.56 830.14 381.23 745.76 486.16 707.75 587.45 849.63 565.39
00004616 DELETE   592.40 182.32 385.44 531.91 669.31 408.47 830.30 381.26 745.84 486.30 707.88 587.44 849.73 565.44
00004617 00000005 591.95 182.47 381.87 527.75 667.09 408.57 830.19 384.38 743.39 487.52 703.23 586.76 845.36 567.46
00004618 DELETE   590.24 183.60 380.82 524.91 665.02 408.63 828.92 385.47 741.06 487.13 700.95 586.56 842.26 568.37
00004619 DELETE   587.27 183.77 382.25 527.18 663.88 409.86 826.41 386.33 739.47 486.34 699.55 586.88 839.72 568.58
00004620 00000008 586.97 184.80 381.32 528.68 661.63 410.97 826.07 387.73 736.28 487.26 696.79 588.62 839.69 570.60
00004621 00000009 586.90 184.50 381.53 529.50 661.64 410.87 825.99 387.62 736.37 487.10 696.83 588.38 840.13 570.31
00004622 00000010 585.24 183.79 384.13 532.31 658.11 414.54 822.10 386.75 733.53 486.99 697.59 592.24 839.80 570.34
00004623 00000011 580.35 184.02 388.79 533.87 655.92 414.49 818.04 385.52 731.61 485.41 698.43 593.21 837.97 570.58
00004624 00000012 576.84 186.12 390.44 529.71 654.28 411.47 814.05 384.07 729.21 483.44 695.05 588.82 833.62 567.44
00004625 DELETE   575.80 184.09 389.58 529.69 652.43 410.70 811.63 382.66 726.13 481.01 693.08 586.25 832.04 564.46
00004626 00000014 575.86 184.15 389.56 529.61 652.43 410.65 811.61 382.62 726.10 480.98 693.07 586.21 832.01 564.44
00004627 DELETE   574.76 185.21 390.37 530.75 650.92 409.79 811.46 380.84 724.51 480.93 691.85 587.30 832.46 564.52
00004628 00000016 573.56 185.05 391.10 535.01 650.03 408.57 811.02 380.32 724.79 486.13 691.59 591.15 831.72 569.11
00004629 00000017 570.13 184.53 394.52 544.55 643.95 407.19 806.96 378.72 717.33 488.32 688.98 596.10 831.70 573.07
00004630 00000018 564.82 186.85 397.03 547.61 640.15 411.21 805.14 379.85 713.82 489.22 686.82 601.07 831.54 575.34
00004631 DELETE   564.69 185.97 397.23 548.42 640.02 411.25 805.16 379.95 714.02 489.36 686.85 601.22 831.51 575.61
00004632 00000020 558.05 188.17 403.03 541.66 635.99 415.29 801.71 382.54 712.59 492.58 684.44 601.75 828.57 574.86
00004633 00000021 552.06 187.43 407.40 539.56 632.39 419.31 800.25 385.77 711.89 496.10 681.73 603.02 827.15 574.91
00004634 DELETE   552.86 189.00 405.40 539.63 631.43 423.29 801.23 385.93 712.05 498.28 680.06 604.90 828.85 574.03
00004635 DELETE   562.17 191.50 400.78 546.30 637.82 418.21 806.91 387.20 712.47 494.41 679.86 603.34 827.80 577.72
00004636 00000024 562.25 191.25 400.65 546.36 637.93 417.79 806.85 387.18 712.54 494.50 679.93 603.17 827.71 577.86
00004637 00000025 568.41 187.08 392.99 555.74 644.77 414.16 814.01 385.83 717.84 490.79 687.52 610.36 826.07 587.87
00004638 00000026 569.47 189.32 393.59 560.36 643.84 411.55 817.64 384.59 714.60 489.80 683.79 613.81 827.20 592.42
00004639 00000027 568.95 195.74 390.32 549.61 643.29 417.31 817.96 389.78 713.36 488.79 682.45 617.03 823.29 595.64
00004640 00000028 568.08 199.51 391.46 546.96 642.63 422.74 816.37 395.14 712.89 496.06 685.68 620.68 823.80 599.33
00004641 00000029 568.08 199.66 391.52 546.88 642.72 422.58 816.40 395.15 712.90 496.07 685.62 620.56 823.75 599.36
00004642 00000030 571.30 202.10 387.36 544.47 647.29 424.73 818.84 398.24 718.26 498.60 688.94 620.27 826.51 599.86
00004643 00000031 575.87 205.15 381.70 547.01 651.46 427.51 822.80 402.24 720.90 497.41 689.05 619.96 830.10 600.43
00004644 00000032 577.89 203.72 383.59 551.55 654.50 426.33 826.42 401.01 729.03 498.00 692.16 619.94 836.45 600.32
00004645 00000033 577.04 202.68 385.87 548.82 654.65 423.46 828.70 396.09 730.90 495.78 694.20 618.33 839.02 597.02
00004646 00000034 576.92 202.91 385.93 548.88 654.68 423.67 828.69 396.26 730.91 495.95 694.29 618.69 839.03 597.33
00004647 00000035 576.03 200.20 389.01 547.33 656.37 423.10 831.18 394.11 736.61 494.78 698.69 616.73 842.71 594.14
00004648 00000036 576.51 199.18 388.78 545.81 657.30 421.76 831.33 392.84 738.53 494.24 700.27 614.31 844.42 591.65
00004649 00000037 575.23 199.42 389.79 542.20 655.77 421.38 831.16 390.73 738.72 493.55 700.88 613.18 846.34 588.84
00004650 00000038 572.52 195.05 391.75 548.50 652.83 421.46 827.19 388.74 736.07 491.57 698.78 613.30 845.18 586.94
00004651 00000039 572.12 194.68 392.19 548.58 652.65 421.39 827.26 388.57 736.08 491.27 698.68 613.21 845.09 586.80
00004652 00000040 569.63 195.28 393.78 549.28 648.98 421.99 823.32 388.29 731.42 489.60 695.56 613.61 841.85 586.36
00004653 00000041 565.69 196.36 395.10 549.39 644.04 423.92 816.84 388.26 725.61 490.38 692.80 614.96 837.71 586.40
00004654 00000042 561.76 196.18 395.48 550.29 639.20 426.85 809.77 388.85 717.07 490.82 689.42 618.05 831.10 587.80
00004655 00000043 552.35 197.66 402.68 548.11 632.17 429.35 803.34 391.38 710.71 494.71 684.78 619.99 825.11 589.41
00004656 00000044 552.77 198.06 402.33 547.79 632.31 429.20 803.52 391.09 710.82 494.51 684.97 620.14 825.02 589.49
00004657 00000045 550.76 203.19 401.98 545.54 629.75 431.52 799.56 394.04 706.01 496.78 681.13 622.10 820.27 591.75
00004658 00000046 546.15 204.21 403.49 545.14 624.60 433.72 795.64 397.01 702.14 498.44 678.04 624.22 816.61 594.45
00004659 00000047 541.48 203.77 405.87 548.14 620.85 433.33 791.84 398.87 697.59 501.72 674.04 624.86 812.30 596.69
00004660 00000048 538.53 202.49 408.60 549.75 616.71 434.40 786.50 399.80 692.27 504.54 669.97 625.55 808.72 597.17
00004661 00000049 538.42 202.42 408.73 549.91 616.38 434.55 786.43 399.75 691.97 504.64 669.84 625.82 808.82 597.29
00004662 00000050 535.54 204.07 409.20 544.25 613.79 433.66 784.88 398.77 692.19 505.07 668.20 626.42 806.30 597.98
00004663 00000051 534.32 204.52 408.92 543.64 612.17 433.04 782.61 399.07 689.94 505.59 666.31 626.56 803.54 598.84
00004664 00000052 533.06 204.32 409.01 547.62 611.37 433.99 780.05 400.27 688.35 505.98 665.08 627.24 802.37 599.74
00004665 00000053 532.71 205.05 407.38 546.32 611.27 434.62 779.37 401.16 688.51 506.64 665.02 627.37 801.74 600.16
00004666 00000054 532.70 204.82 407.10 546.25 611.11 434.66 779.30 401.14 688.64 506.89 664.91 627.35 801.71 600.09
00004667 00000055 532.19 206.02 407.11 544.68 610.02 434.70 778.71 401.64 687.44 507.07 663.16 627.61 800.39 600.72
00004668 00000056 532.01 207.03 406.74 543.42 609.60 435.13 778.31 402.01 686.87 507.15 662.42 626.98 799.83 600.08
00004669 00000057 531.86 208.18 406.33 541.92 609.74 434.56 778.24 402.82 685.28 507.16 661.62 626.77 798.08 601.04
00004670 00000058 531.59 207.50 406.88 542.66 610.00 434.34 778.73 403.49 684.83 507.22 661.15 627.01 797.47 602.01
00004671 00000059 531.67 207.43 406.91 543.13 610.12 434.39 779.04 403.49 685.15 507.33 661.22 627.11 798.01 602.06
00004672 00000060 531.08 207.95 407.60 542.90 610.32 434.84 778.94 403.24 686.19 508.30 662.45 626.95 799.77 601.22
00004673 00000061 530.13 208.82 409.16 542.36 609.30 435.79 778.19 403.83 685.28 509.84 662.80 628.10 800.24 602.03
00004674 00000062 530.23 208.14 410.01 544.92 609.60 436.37 778.50 404.03 686.84 512.03 665.71 629.50 802.50 603.01
00004675 00000063 531.32 208.50 410.57 547.77 610.60 437.67 779.18 405.78 687.66 514.41 666.52 630.97 803.66 604.77
00004676 00000064 531.31 208.80 410.53 547.42 610.65 437.57 779.20 405.77 687.66 514.32 666.53 630.74 803.75 604.60
00004677 00000065 532.75 209.44 408.89 548.26 611.82 438.33 778.95 407.05 688.47 515.90 667.62 630.96 804.07 605.24
00004678 00000066 533.07 210.42 409.33 548.17 610.91 439.35 780.40 407.67 687.95 516.75 665.87 632.57 804.98 606.41
00004679 00000067 533.72 209.01 409.15 547.41 612.40 438.78 781.44 408.43 689.57 517.23 667.37 632.30 804.06 607.29
00004680 00000068 532.74 209.46 410.36 547.53 612.97 436.59 782.56 407.60 691.80 517.50 667.50 631.75 804.41 607.86
00004681 00000069 532.67 209.76 410.63 547.43 613.13 436.67 782.49 407.63 691.68 517.01 667.56 631.53 804.38 607.59
00004682 00000070 534.45 213.28 408.43 547.04 613.94 441.51 781.82 414.96 688.17 519.21 664.56 631.71 801.59 609.61
00004683 00000071 536.54 211.27 404.91 550.60 615.56 447.01 778.30 421.59 684.44 521.32 664.84 635.95 798.61 614.86
00004684 00000072 536.95 213.37 404.11 553.02 615.12 448.68 780.01 424.37 683.26 523.76 662.95 639.34 798.36 619.15
00004685 00000073 539.59 212.05 401.45 561.56 616.96 446.38 779.45 422.86 682.86 522.61 662.68 638.24 798.83 618.82
00004686 00000074 539.62 211.42 401.19 561.70 616.99 446.61 779.23 423.05 682.93 522.69 662.95 638.13 798.80 618.69
00004687 00000075 543.04 211.19 399.61 559.91 617.28 444.05 783.83 419.60 684.37 521.04 662.78 640.21 798.93 620.28
00004688 00000076 547.26 211.47 396.67 555.58 620.09 441.32 787.92 418.25 687.18 520.76 663.29 637.24 800.27 618.46
00004689 00000077 548.71 212.19 396.02 552.66 621.43 439.90 791.61 417.79 689.24 521.28 664.97 637.72 801.95 619.81
00004690 00000078 547.43 209.92 398.60 552.29 621.90 440.37 793.20 419.02 691.06 521.21 665.38 636.67 802.29 619.25
00004691 00000079 547.55 209.86 398.59 551.94 622.09 440.25 793.14 419.09 691.05 520.96 665.41 636.31 802.17 619.04
00004692 00000080 548.15 210.47 398.33 547.94 623.20 441.29 793.03 420.82 692.83 521.48 666.48 631.01 805.47 613.91
00004693 00000081 548.01 207.58 399.17 563.52 625.47 442.58 795.89 419.97 695.94 523.83 669.79 642.89 804.44 624.63
00004694 00000082 550.31 208.35 395.73 567.72 627.36 443.83 797.39 420.52 697.77 524.24 671.63 645.90 806.46 627.48
00004695 00000083 548.12 209.11 401.05 561.51 625.24 444.34 799.66 420.58 699.04 525.58 671.28 642.20 813.30 622.42
00004696 00000084 548.04 209.35 400.85 561.12 625.33 444.15 799.55 420.65 699.16 525.41 671.25 641.88 813.18 622.32
00004697 00000085 546.05 210.08 403.23 559.27 624.86 445.31 798.68 422.55 699.23 526.39 670.32 638.60 814.28 619.42
00004698 00000086 545.79 209.38 402.05 561.32 625.65 446.09 799.25 422.62 700.74 527.89 672.92 643.65 810.79 624.37
00004699 00000087 545.77 210.43 400.88 560.88 625.93 447.26 798.54 423.22 700.45 528.80 673.35 646.03 808.26 626.56
00004700 00000088 545.19 210.25 401.11 559.19 625.42 449.55 797.18 425.67 699.70 529.38 673.06 645.70 807.29 626.38
00004701 00000089 545.18 210.22 401.09 559.37 625.51 449.64 797.04 425.90 699.77 529.57 673.11 645.51 807.26 626.34
00004702 00000090 545.26 209.90 401.35 564.96 624.65 451.56 796.80 427.61 697.92 530.83 670.49 645.83 808.77 626.46
00004703 00000091 545.80 209.47 400.07 570.92 624.95 452.11 795.70 428.09 697.53 530.68 668.90 645.78 808.98 626.60
00004704 00000092 545.67 209.52 400.34 570.22 625.15 449.47 796.15 426.89 698.89 531.18 669.31 642.09 811.42 623.66
00004705 00000093 544.27 211.95 401.33 560.45 623.04 446.27 795.73 424.40 698.95 530.05 668.20 638.76 811.25 620.55
00004706 00000094 544.52 211.48 401.28 561.00 623.26 446.07 795.79 424.39 698.97 530.01 668.17 638.54 811.43 620.47
00004707 00000095 544.29 211.89 401.51 556.74 622.91 445.26 793.39 424.42 697.48 530.09 665.92 632.13 811.13 614.49
00004708 00000096 543.48 213.15 402.02 551.79 620.36 446.39 791.74 423.42 696.06 529.53 666.24 632.52 813.48 612.70
00004709 00000097 543.13 212.28 402.51 553.03 619.39 447.51 791.58 423.88 694.92 528.98 665.62 633.46 813.33 613.11
00004710 00000098 543.47 215.50 401.62 550.94 619.84 447.63 792.09 423.15 693.88 527.78 666.33 635.64 810.52 614.89
00004711 00000099 543.58 215.16 401.69 551.13 619.65 447.96 791.90 423.17 693.79 527.82 666.28 635.82 810.57 614.78
00004712 00000100 544.34 214.96 401.84 559.40 620.02 449.49 793.50 423.84 692.77 528.15 665.70 641.77 809.83 620.45
00004713 00000101 544.60 214.21 401.40 564.60 620.50 450.10 791.39 423.75 691.25 527.81 665.38 641.45 810.60 619.82
00004714 00000102 544.58 213.42 401.05 566.56 620.43 449.85 790.96 423.31 690.83 527.57 665.32 641.97 810.55 620.32
00004715 00000103 544.03 212.67 401.34 565.47 620.51 449.20 791.04 423.68 691.13 527.63 665.61 640.87 810.47 619.91
00004716 00000104 544.02 212.62 401.42 565.54 620.50 449.23 790.88 423.61 691.07 527.64 665.69 640.88 810.39 619.86
00004717 00000105 543.58 213.13 401.84 562.06 619.48 447.55 791.60 423.12 690.63 527.99 663.83 639.23 810.64 618.86
00004718 00000106 543.33 213.33 402.65 558.04 618.80 447.23 792.64 423.26 691.77 528.39 664.01 637.96 811.82 617.70
00004719 00000107 542.25 214.26 403.32 547.26 617.13 446.23 794.13 422.18 692.96 527.79 665.03 637.39 810.69 616.84
00004720 00000108 542.64 213.52 403.88 544.76 617.82 446.94 795.11 422.66 693.87 525.98 665.56 636.07 811.44 615.24
00004721 00000109 542.72 213.31 403.74 545.07 617.58 447.03 794.79 422.43 693.47 526.06 665.48 636.06 811.47 614.97
00004722 00000110 542.60 213.90 403.47 542.11 617.69 448.93 794.26 423.22 693.66 525.62 664.82 633.65 812.96 611.62
00004723 00000111 542.57 214.01 403.66 542.94 618.78 450.10 792.64 423.78 693.55 526.46 665.58 632.13 813.45 609.57
00004724 00000112 542.49 214.48 403.84 541.67 618.87 451.47 792.60 424.47 694.03 526.69 666.26 631.97 814.64 608.78
00004725 00000113 541.57 215.30 405.03 540.20 618.68 452.27 793.31 424.98 695.15 527.65 667.03 632.25 815.77 608.74
00004726 00000114 541.85 215.18 405.02 540.56 618.82 452.40 793.18 424.85 695.14 527.76 667.34 632.31 815.94 608.61
00004727 00000115 542.92 214.38 404.38 541.89 619.21 454.26 793.69 426.86 695.30 528.25 666.57 632.44 816.71 608.84
00004728 00000116 543.36 214.99 404.06 541.87 618.80 455.28 794.51 427.53 695.04 528.83 664.91 632.16 817.89 608.25
00004729 00000117 544.31 214.07 403.16 540.39 619.59 454.84 794.45 427.50 695.41 528.57 666.06 631.55 817.24 607.95
00004730 00000118 544.75 217.21 402.68 531.10 619.31 451.83 796.15 425.76 696.15 526.56 665.40 629.71 816.01 607.01
00004731 00000119 544.80 216.76 402.82 531.66 619.25 451.82 796.07 425.82 696.03 526.53 665.33 629.75 815.94 607.10
00004732 00000120 548.79 216.13 399.76 527.13 621.53 448.67 797.33 424.65 696.01 523.44 666.78 626.98 813.58 605.99
00004733 00000121 549.97 218.20 398.75 519.27 621.95 446.36 799.37 422.88 696.64 521.86 666.47 626.76 813.20 606.13
00004734 00000122 550.96 218.83 397.94 520.04 622.40 446.58 799.94 422.89 696.69 521.44 667.45 627.27 813.02 606.64
00004735 00000123 550.53 218.39 398.71 522.84 622.95 447.19 800.26 424.00 697.69 522.37 667.86 627.87 813.22 607.75
00004736 00000124 550.39 218.67 398.58 522.59 622.61 447.07 800.49 423.97 697.50 522.20 667.19 627.84 813.29 607.78
00004737 00000125 548.68 215.58 399.09 526.03 621.40 451.59 800.14 427.46 697.60 524.85 666.66 630.22 813.63 609.48
00004738 00000126 546.79 216.06 400.22 527.66 621.85 455.25 798.79 430.52 697.99 527.15 666.65 630.91 813.35 609.71
00004739 00000127 546.26 216.09 400.44 528.28 622.10 456.41 798.58 432.46 697.69 527.61 666.30 633.62 810.04 613.31
00004740 00000128 547.01 215.76 397.75 528.75 622.62 457.15 798.47 433.50 698.94 529.51 667.00 633.93 809.90 614.09
00004741 00000129 546.97 216.15 397.76 528.12 622.63 457.15 798.37 433.50 698.99 529.57 667.01 633.93 809.74 614.10
00004742 00000130 546.23 216.25 397.59 529.27 622.18 455.65 797.65 432.72 698.26 529.04 666.47 633.93 808.45 614.71
00004743 00000131 546.30 214.59 397.79 531.44 622.00 453.71 797.47 431.90 697.82 529.50 665.81 634.57 808.08 616.17
00004744 00000132 546.18 213.55 397.37 540.98 621.29 454.75 795.16 431.68 695.44 529.91 663.72 633.69 808.51 614.37
00004745 00000133 548.07 212.53 396.85 556.25 621.93 455.45 790.85 432.73 690.20 531.62 660.28 633.16 808.30 614.32
00004746 00000134 548.21 212.99 396.80 555.97 621.81 455.75 790.97 432.67 690.17 531.58 660.14 633.39 808.43 614.29
00004747 00000135 548.64 213.88 397.60 561.94 623.63 455.61 792.35 433.15 691.44 531.69 661.66 640.23 803.30 622.28
00004748 00000136 549.89 212.61 396.16 562.86 624.84 455.05 792.35 432.30 692.13 531.68 664.38 641.28 804.43 623.36
00004749 00000137 549.00 213.19 397.11 563.41 624.31 454.83 793.21 432.68 692.72 532.65 663.49 641.06 806.20 623.58
00004750 00000138 548.53 213.03 398.13 566.73 623.61 455.96 792.51 431.87 692.60 532.96 664.05 643.43 806.82 624.46
00004751 00000139 548.92 212.52 397.78 567.68 623.72 455.86 792.38 431.93 692.44 533.16 664.01 643.48 806.94 624.61
00004752 00000140 548.30 213.53 397.85 564.35 623.50 455.67 792.55 432.30 692.61 533.54 663.99 642.98 806.15 624.50
00004753 00000141 547.54 213.42 399.46 562.46 623.67 455.31 793.83 431.99 694.38 534.13 665.92 643.39 807.08 624.83
00004754 00000142 545.53 213.68 400.45 555.36 621.09 455.21 794.41 430.00 693.76 532.90 666.81 644.17 806.77 623.73
00004755 00000143 544.09 212.77 401.37 549.90 619.75 455.04 794.78 429.79 694.05 531.74 666.42 642.74 807.39 621.93
00004756 00000144 544.13 212.63 401.52 549.94 619.68 455.03 794.88 429.67 693.89 531.48 666.26 642.81 807.49 621.89
00004757 00000145 542.06 213.51 402.74 542.47 617.81 454.56 794.01 429.31 694.10 529.91 665.24 640.06 807.86 618.90
00004758 00000146 542.39 214.98 401.98 540.86 616.81 454.57 794.85 429.71 693.29 529.93 662.85 639.36 809.01 618.43
00004759 00000147 543.49 214.09 400.61 545.48 617.47 454.47 793.76 430.79 691.52 529.55 660.68 637.39 807.38 617.49
00004760 00000148 547.15 212.46 397.52 560.69 622.07 455.93 790.85 431.69 691.11 531.05 663.10 641.16 802.69 621.60
00004761 00000149 546.91 212.63 397.58 560.03 622.02 455.73 790.89 431.62 691.24 530.95 663.19 641.06 802.64 621.59
00004762 00000150 548.11 213.80 394.80 558.79 623.95 455.46 790.64 433.09 693.28 532.61 664.17 640.66 800.47 622.98
00004763 00000151 549.36 213.88 395.57 561.70 624.63 455.71 793.47 432.72 694.57 533.69 664.54 642.20 803.89 624.04
00004764 00000152 548.92 213.85 396.67 561.05 625.94 456.02 795.08 433.02 697.41 535.22 668.28 643.38 805.73 625.07
00004765 00000153 548.97 211.71 396.69 566.84 623.48 456.01 789.73 433.97 691.66 537.19 665.11 644.02 802.22 626.42
00004766 00000154 548.96 211.87 396.90 566.76 623.47 456.03 789.81 433.93 691.57 537.42 665.18 644.23 802.17 626.58
00004767 00000155 546.38 212.74 396.01 553.34 620.71 452.59 788.43 429.88 688.52 529.61 663.44 642.48 795.78 624.24
00004768 00000156 551.19 212.37 397.62 538.79 623.35 435.41 792.46 417.07 690.20 519.23 665.54 627.80 800.63 612.41
00004769 00000157 558.98 189.26 391.69 551.70 636.89 420.38 803.32 398.71 708.89 497.01 676.69 614.69 809.21 597.72
00004770 00000158 566.20 169.82 390.76 552.98 645.65 401.84 809.89 384.77 717.98 482.53 677.36 595.57 816.30 582.02
00004771 00000159 566.43 169.26 390.34 553.54 645.63 401.47 809.67 384.58 717.85 482.77 677.21 595.27 816.31 581.85
00004772 00000160 574.52 163.12 386.30 543.45 651.39 392.76 812.08 373.14 718.69 467.68 680.17 581.53 813.87 566.60
00004773 00000161 577.33 151.06 383.25 549.17 647.80 386.75 813.27 364.27 712.20 460.04 677.15 581.87 812.05 564.93
00004774 00000162 573.15 144.85 391.99 544.55 645.71 377.87 819.38 358.30 709.82 456.64 678.73 568.27 814.62 553.48
00004775 00000163 575.31 144.74 391.21 535.67 647.85 373.42 817.80 355.32 709.93 450.54 678.66 555.52 815.38 541.95
00004776 00000164 575.61 145.24 391.11 534.93 647.78 373.66 817.46 355.30 709.39 450.33 678.56 555.39 815.24 541.60
00004777 00000165 576.99 145.72 390.23 524.47 649.92 369.12 818.30 352.86 711.55 446.16 681.36 548.62 816.35 536.33
00004778 00000166 576.62 146.27 389.60 519.88 650.81 368.66 817.88 351.97 713.78 444.93 683.65 548.47 814.85 535.88
00004779 00000167 579.38 145.11 386.49 526.03 648.50 373.50 817.82 351.17 714.38 442.13 675.07 556.16 818.94 538.59
00004780 00000168 575.59 145.88 389.34 528.47 646.40 372.60 817.72 354.16 709.92 446.73 679.20 555.10 814.82 540.87
00004781 00000169 575.50 145.99 389.37 528.39 646.32 372.67 817.63 354.22 710.06 446.72 679.29 555.10 814.86 540.84
00004782 00000170 570.65 146.88 391.48 531.86 642.74 381.08 812.63 356.23 711.40 448.27 673.63 566.17 815.06 546.59
