Video ID: 	OD1aWlwVfeQ
H: 	1080
W: 	1920
FPS: 	23.976023976023978

FRAME INDEX X0 Y0 W H [Landmarks (5 Points)]

00005766 00000000 550.10 184.83 430.88 539.53 692.63 370.74 891.15 384.49 803.87 480.43 696.79 569.99 870.24 582.23
00005767 00000001 550.11 177.48 422.49 535.78 685.47 362.97 885.46 378.35 795.41 470.76 694.46 565.48 860.07 578.26
00005768 00000002 547.61 168.46 416.91 517.11 676.36 359.14 875.10 366.22 786.16 454.73 691.45 552.06 860.28 557.09
00005769 00000003 542.68 166.91 414.67 512.15 669.59 363.35 860.44 362.02 775.95 446.62 689.07 546.04 853.71 544.05
00005770 DELETE   538.58 165.74 410.97 511.25 658.43 360.46 848.83 354.07 764.27 444.79 682.35 549.79 845.15 543.43
00005771 00000005 525.88 160.66 404.66 510.12 641.09 357.62 835.08 346.18 752.82 441.57 670.15 552.33 835.48 541.91
00005772 00000006 516.72 155.25 403.66 514.37 625.98 353.56 817.90 339.48 733.21 434.70 656.36 550.02 820.55 537.17
00005773 00000007 505.38 146.25 407.46 519.75 614.37 351.93 803.96 336.70 717.35 426.24 646.90 548.94 807.25 534.48
00005774 00000008 494.96 147.33 411.50 517.00 602.53 352.39 793.15 335.53 704.99 421.93 640.14 550.91 796.63 535.15
00005775 00000009 484.44 147.91 416.71 512.71 589.93 349.09 783.74 331.11 691.64 422.21 630.52 549.06 784.90 532.12
00005776 00000010 478.93 148.36 417.33 514.56 579.25 348.79 775.14 327.88 680.64 422.56 621.82 551.07 775.60 531.92
00005777 00000011 473.67 150.43 418.02 520.38 572.04 354.50 767.01 329.39 673.06 424.14 614.17 555.49 769.98 533.31
00005778 00000012 469.64 158.04 412.05 523.08 564.11 364.97 755.23 335.57 659.54 427.51 605.36 563.47 758.22 538.50
00005779 00000013 461.18 159.99 414.27 524.56 553.39 374.07 742.98 341.50 648.79 433.59 594.50 568.05 747.80 540.34
00005780 00000014 452.29 155.62 416.83 518.76 544.09 375.24 733.54 343.87 636.29 437.81 588.57 567.58 744.33 539.41
00005781 00000015 448.22 154.39 416.29 518.67 537.90 374.76 728.83 341.39 631.35 438.19 584.01 568.27 741.41 538.61
00005782 00000016 448.67 156.69 418.85 520.73 540.27 371.98 733.86 339.18 636.93 439.37 588.03 569.90 745.64 540.21
00005783 00000017 451.74 159.41 417.53 520.32 543.76 369.62 738.36 337.57 643.18 442.49 592.61 572.42 749.09 543.52
00005784 00000018 453.97 159.13 417.08 520.35 547.50 367.83 742.73 337.25 648.01 442.22 595.57 571.76 751.83 544.18
00005785 00000019 457.17 163.17 415.60 513.76 547.99 367.03 745.36 336.33 649.02 439.04 590.41 567.58 750.26 540.33
00005786 00000020 459.18 159.38 415.54 516.98 549.50 365.05 747.13 335.54 649.35 436.93 589.19 562.20 750.70 535.97
00005787 00000021 461.62 159.27 414.93 517.06 552.55 365.67 748.82 336.14 651.35 435.86 592.12 560.01 752.28 534.26
00005788 00000022 463.57 160.92 414.35 514.18 555.43 367.10 750.81 337.40 654.42 436.09 594.27 559.61 754.67 533.92
00005789 00000023 460.73 159.49 417.23 514.60 556.96 369.09 755.85 344.29 655.09 437.34 597.76 550.55 762.62 529.82
00005790 00000024 462.20 159.18 416.40 515.30 558.88 371.04 755.58 345.90 656.45 438.07 599.97 551.20 763.32 530.28
00005791 00000025 471.74 165.44 412.36 507.26 565.26 373.18 756.53 342.86 662.64 437.82 604.61 559.56 760.74 533.72
00005792 00000026 471.24 163.56 417.97 509.49 567.01 369.94 760.35 341.36 666.51 437.28 606.94 558.99 765.22 534.10
00005793 00000027 471.16 162.88 420.75 511.52 567.51 367.12 761.52 340.14 666.79 437.49 607.96 559.08 765.14 535.18
00005794 00000028 471.27 164.26 418.96 511.50 564.99 365.71 759.47 339.23 662.50 436.74 605.63 561.06 760.72 537.49
00005795 00000029 466.05 165.82 414.85 516.88 554.23 365.33 749.36 338.49 648.43 438.01 595.48 566.14 748.07 542.60
00005796 00000030 456.85 159.47 416.47 527.98 541.98 367.38 735.46 341.26 629.47 441.71 584.17 573.21 735.30 550.51
00005797 00000031 450.36 156.78 414.24 530.74 532.13 366.85 724.95 341.38 613.94 440.00 570.62 571.27 723.90 549.22
00005798 00000032 451.63 154.37 417.08 534.17 538.52 364.91 733.27 337.38 627.17 439.78 581.59 573.27 733.42 549.05
00005799 00000033 461.55 164.20 415.34 527.74 551.53 367.13 747.46 339.48 650.74 441.10 597.60 574.59 750.84 550.42
00005800 00000034 467.37 163.42 414.99 526.19 562.17 367.66 757.38 343.10 661.82 440.15 606.08 573.01 761.55 551.24
00005801 00000035 469.33 164.90 416.55 524.74 563.64 367.32 759.55 344.03 662.10 440.74 605.97 571.86 761.90 551.06
00005802 00000036 470.38 169.22 417.07 517.56 562.96 368.42 758.11 348.00 657.88 443.59 600.01 567.13 757.51 548.99
00005803 00000037 470.74 167.91 420.19 523.03 565.33 367.74 762.47 350.81 661.04 446.40 599.68 563.27 760.97 548.01
00005804 00000038 474.47 171.27 421.37 522.43 573.55 368.61 771.82 351.83 675.23 452.57 612.26 567.02 774.88 551.69
00005805 00000039 476.81 171.75 422.81 524.37 580.00 372.31 775.83 353.18 686.26 452.73 620.37 567.67 783.54 550.47
00005806 00000040 478.23 175.25 422.24 520.60 584.44 372.84 778.42 353.47 692.15 453.45 623.94 566.14 788.37 548.81
00005807 00000041 479.87 175.08 421.59 521.77 586.30 374.42 781.67 355.34 694.62 454.36 624.21 566.62 792.59 549.51
00005808 00000042 482.28 172.14 420.31 524.72 588.86 373.98 785.06 355.09 698.32 455.04 627.29 569.02 795.59 551.81
00005809 00000043 483.06 173.21 421.54 531.59 591.98 371.99 785.83 351.10 702.38 454.00 637.49 573.89 795.12 554.71
00005810 00000044 484.45 169.67 422.77 546.27 595.39 371.09 789.76 351.04 707.44 452.35 644.85 582.32 795.50 563.39
00005811 00000045 485.64 169.85 422.39 547.94 597.91 372.84 791.50 352.16 711.54 453.50 647.45 583.72 798.81 564.18
00005812 00000046 485.62 169.50 422.04 550.18 597.68 371.52 791.66 351.63 711.99 454.45 647.87 585.38 798.00 566.55
00005813 00000047 483.54 168.93 422.51 552.83 595.94 370.29 790.27 351.52 710.72 454.38 646.49 586.12 794.69 568.21
00005814 00000048 481.44 169.74 423.85 554.41 592.40 369.66 788.39 352.50 705.77 455.05 641.80 586.44 791.46 569.95
00005815 00000049 480.31 170.54 421.93 555.59 589.90 375.24 784.33 358.52 702.13 459.10 637.61 587.19 788.76 571.49
00005816 00000050 479.49 175.60 421.10 551.35 591.51 386.38 780.06 367.16 701.60 464.46 639.16 588.42 789.45 571.30
00005817 00000051 477.82 173.72 419.85 552.32 586.03 385.59 779.46 367.02 698.63 467.81 633.34 591.11 787.77 574.86
00005818 00000052 474.72 170.35 417.79 553.06 577.13 385.37 773.69 366.83 686.92 470.61 621.69 588.92 779.99 573.43
00005819 00000053 466.23 168.49 418.86 553.62 563.96 386.21 761.27 365.25 670.85 472.51 608.88 589.01 768.22 571.75
00005820 00000054 457.71 174.41 422.11 559.78 548.66 390.42 749.80 366.80 652.29 481.60 594.09 597.68 758.67 577.65
00005821 00000055 449.04 181.47 427.32 568.54 541.46 401.35 748.74 375.47 646.41 493.03 593.45 615.84 756.02 594.17
00005822 00000056 448.12 184.01 428.95 574.79 547.07 403.36 751.81 377.35 657.57 496.94 604.68 622.67 761.76 600.69
00005823 00000057 460.88 174.28 428.25 581.42 568.73 402.22 766.12 375.07 685.55 493.14 632.86 621.55 779.95 598.88
00005824 00000058 472.23 181.62 425.90 568.27 587.31 408.35 783.24 381.47 709.13 494.43 654.68 621.47 805.83 597.84
00005825 00000059 475.45 182.36 425.29 567.70 592.02 407.88 791.16 382.35 716.36 497.96 657.64 623.55 809.69 600.56
00005826 00000060 470.60 188.04 429.76 561.66 583.11 411.85 783.82 392.25 699.73 501.93 641.77 620.37 798.10 602.81
00005827 00000061 461.61 195.04 430.72 558.41 567.60 415.04 767.01 397.10 675.52 512.27 622.62 626.77 771.83 611.61
00005828 00000062 458.16 201.00 428.86 560.89 555.59 418.55 763.73 403.57 659.78 525.75 597.90 630.08 763.79 617.76
00005829 00000063 460.67 202.97 430.81 560.17 560.91 423.76 768.48 407.82 667.85 531.23 603.61 632.21 772.00 618.84
00005830 DELETE   468.22 201.90 428.29 557.71 578.02 435.02 775.49 412.21 689.94 529.11 627.60 630.58 791.41 611.25
00005831 00000065 471.48 202.79 432.47 555.43 587.18 431.89 787.79 404.68 708.00 525.56 643.10 631.86 806.67 608.51
00005832 00000066 472.04 204.83 431.79 554.02 584.79 425.15 791.52 404.24 706.59 525.64 637.41 630.08 807.00 611.70
00005833 00000067 466.10 204.78 434.15 558.41 573.69 425.16 781.51 408.73 688.21 530.28 621.59 632.12 792.26 617.65
00005834 00000068 468.11 207.53 424.26 564.01 567.94 425.27 766.76 411.65 673.95 529.57 610.78 640.94 766.22 628.15
00005835 00000069 467.64 204.04 425.09 581.37 570.25 421.39 766.14 405.77 678.99 525.18 618.28 644.93 768.01 630.20
00005836 00000070 471.94 209.81 426.00 568.61 583.14 424.93 777.77 401.71 697.39 523.39 639.23 646.24 781.81 624.33
00005837 00000071 478.62 207.00 423.08 553.17 591.25 425.82 786.96 398.58 710.01 522.76 651.40 644.59 794.99 618.56
00005838 00000072 467.98 204.35 430.25 552.82 576.20 423.59 780.97 405.10 691.73 524.69 631.45 631.31 795.09 615.09
00005839 00000073 464.42 204.30 429.58 555.30 566.45 422.88 769.78 405.49 674.27 526.55 614.71 631.29 778.34 616.43
00005840 00000074 463.16 203.74 428.29 553.53 563.35 421.53 767.59 404.36 670.67 524.78 609.70 629.17 774.82 614.60
00005841 00000075 465.18 204.73 431.81 550.73 568.72 423.02 774.07 404.29 679.39 525.19 619.25 629.79 784.58 613.41
00005842 00000076 470.98 203.42 429.01 549.87 577.11 426.63 784.53 405.00 695.99 523.07 634.03 630.96 802.20 611.72
00005843 00000077 470.70 209.81 424.43 544.39 579.75 438.72 776.84 413.97 692.24 527.67 631.77 631.73 794.15 610.55
00005844 00000078 467.68 207.48 424.73 549.88 568.51 435.51 768.20 413.30 675.71 533.84 615.70 635.35 779.53 616.67
00005845 00000079 462.10 216.34 428.06 540.74 558.06 432.82 766.95 413.19 664.94 535.05 603.84 635.72 774.53 618.77
00005846 00000080 463.55 215.73 428.72 538.51 561.55 430.27 770.04 411.03 670.03 533.22 609.81 634.03 779.01 617.23
00005847 00000081 465.78 211.26 431.29 542.65 566.62 430.28 775.63 409.32 679.40 532.45 619.09 634.87 788.42 616.31
00005848 00000082 465.72 212.78 432.87 542.64 566.26 429.87 775.02 409.32 677.79 533.39 617.60 634.75 786.79 616.58
00005849 00000083 464.51 215.06 430.91 541.11 563.63 427.48 769.64 410.12 669.60 532.53 609.10 632.31 775.80 617.26
00005850 00000084 472.30 215.29 424.00 555.41 576.34 427.31 769.07 410.54 681.57 526.21 621.76 643.23 762.39 627.45
00005851 00000085 476.35 218.05 430.63 574.95 595.28 425.96 786.33 404.15 712.49 522.32 657.42 657.06 783.11 636.44
00005852 00000086 489.94 212.82 426.05 597.31 613.14 439.41 801.71 401.69 741.99 533.09 684.14 673.67 819.18 640.67
00005853 00000087 494.91 221.51 425.91 588.36 616.57 444.16 806.55 408.91 745.10 541.22 684.04 675.53 822.51 644.23
00005854 DELETE   488.70 220.83 431.38 585.85 602.50 450.53 796.93 425.79 718.40 554.60 661.88 673.38 807.13 649.78
00005855 DELETE   478.71 228.11 432.40 581.44 581.53 458.37 779.43 446.75 686.51 571.44 625.88 670.26 779.95 659.14
00005856 00000090 465.88 242.25 434.15 572.59 563.75 466.16 767.86 452.16 667.57 584.79 605.88 681.01 766.64 668.43
00005857 00000091 466.47 244.57 436.44 567.88 574.23 470.25 777.32 450.58 688.52 589.01 627.98 682.51 785.83 664.99
00005858 00000092 469.67 253.58 434.98 547.06 587.28 473.96 787.80 437.38 713.44 580.36 655.05 681.49 812.79 649.87
00005859 00000093 466.37 229.66 424.97 560.90 581.91 464.91 776.96 420.38 713.28 559.80 651.86 669.81 809.57 631.44
00005860 DELETE   443.75 232.06 430.48 547.09 553.64 459.08 754.60 416.86 678.67 561.75 622.90 655.97 788.44 621.22
00005861 00000095 426.25 223.66 437.05 546.86 537.49 455.01 730.10 409.63 660.31 557.13 604.53 656.75 761.27 615.70
00005862 00000096 426.19 218.01 432.48 547.01 535.62 449.99 728.11 406.83 657.48 549.77 601.63 653.16 757.68 613.81
00005863 00000097 434.10 209.85 431.53 565.99 546.23 441.46 750.48 407.13 670.81 537.56 610.67 646.80 780.07 618.25
00005864 DELETE   444.95 195.62 427.55 582.60 563.06 443.93 758.81 407.33 687.60 531.59 628.01 644.30 792.42 614.19
00005865 00000099 448.51 200.59 427.29 582.90 567.42 445.93 761.47 411.11 690.40 535.15 628.49 646.42 794.50 617.97
00005866 00000100 454.11 226.51 424.45 570.57 566.47 447.80 763.37 416.31 689.86 539.10 625.53 662.74 781.51 636.00
00005867 00000101 454.57 229.53 423.50 556.49 561.57 444.76 760.31 420.43 678.76 546.16 617.15 661.84 768.58 640.56
00005868 00000102 447.97 222.18 431.15 556.83 552.95 442.24 759.13 413.76 668.84 550.42 607.86 649.39 778.97 625.91
00005869 00000103 451.69 216.97 432.49 561.73 559.09 441.10 764.90 413.30 675.58 551.08 614.75 650.64 783.65 627.93
00005870 00000104 462.87 222.60 424.66 565.15 568.33 444.46 770.61 421.44 687.08 551.25 623.87 664.73 777.85 644.31
00005871 00000105 464.41 223.89 423.23 566.08 569.76 441.93 770.21 422.66 685.69 548.57 621.86 663.94 773.81 646.62
00005872 00000106 465.01 220.85 423.55 561.03 570.70 438.97 769.76 422.25 684.09 545.33 619.13 658.03 770.90 642.48
00005873 00000107 465.66 221.74 424.65 557.05 572.96 437.34 772.41 421.43 686.89 544.11 620.52 655.38 771.71 640.45
00005874 00000108 467.11 222.48 423.70 558.33 574.89 436.74 773.90 421.38 689.00 543.77 622.02 655.89 772.48 641.44
00005875 00000109 467.40 220.84 423.47 558.44 575.63 434.95 774.16 420.73 688.98 541.93 621.11 654.52 771.21 640.98
00005876 00000110 469.54 215.21 421.14 557.24 577.20 432.15 774.10 418.06 689.87 538.95 623.16 651.54 771.05 637.81
00005877 00000111 471.20 216.36 421.71 554.03 578.79 430.20 777.10 414.58 692.17 537.05 626.83 649.95 774.81 634.91
00005878 00000112 473.09 220.24 423.11 550.13 581.22 429.28 780.33 412.22 694.65 535.16 630.90 649.64 779.18 633.20
00005879 00000113 474.44 218.52 423.52 548.45 584.01 427.81 783.74 409.03 699.19 531.34 635.01 648.55 783.74 630.44
00005880 00000114 477.46 213.88 421.78 550.21 587.75 437.69 783.15 414.71 702.26 530.98 636.74 646.14 786.77 625.02
00005881 00000115 472.21 207.53 427.95 551.73 584.29 429.44 785.21 413.36 698.00 526.79 633.10 633.88 792.92 620.02
00005882 00000116 474.29 206.99 427.52 550.44 584.07 423.90 790.24 410.24 700.19 521.77 633.61 632.23 796.58 620.11
00005883 00000117 474.36 200.39 430.42 554.38 584.86 418.50 791.06 406.77 700.37 515.57 635.19 627.23 797.83 616.49
00005884 00000118 473.77 199.71 430.49 554.10 583.40 413.81 791.11 402.51 698.81 511.66 634.16 623.90 798.23 613.36
00005885 00000119 487.10 182.13 426.06 553.21 601.35 390.81 801.79 379.13 715.02 480.75 649.07 605.68 798.82 594.29
00005886 00000120 490.03 179.18 425.04 556.75 608.70 390.94 804.20 375.92 724.56 481.62 660.57 606.88 804.60 592.55
CROP_BBOX: 140 0 1258 1080
