Video ID: 	W0l4KqEVg1Y
H: 	1080
W: 	1920
FPS: 	29.97002997002997

FRAME INDEX X0 Y0 W H [Landmarks (5 Points)]

00005097 00000000 1012.34 142.01 434.98 632.35 1087.53 365.73 1252.70 413.17 1100.30 497.03 1060.45 586.62 1186.19 627.17
00005098 00000001 1004.14 144.86 449.22 639.04 1089.21 371.47 1265.68 423.16 1102.97 502.77 1056.40 596.53 1193.09 640.23
00005099 DELETE   1003.86 147.32 446.23 644.72 1090.44 378.41 1266.07 430.74 1105.66 511.30 1057.81 604.39 1193.77 648.19
00005100 DELETE   1012.05 156.67 434.24 638.71 1088.02 384.12 1252.69 432.67 1106.10 523.81 1065.68 610.29 1192.28 651.83
00005101 DELETE   1009.30 164.34 433.05 638.00 1085.03 391.80 1250.11 443.09 1103.34 533.34 1063.58 619.22 1187.54 663.24
00005102 00000005 1007.72 172.24 431.56 637.06 1079.68 397.09 1248.20 449.94 1101.35 545.57 1060.24 626.21 1186.76 671.69
00005103 00000006 1006.26 174.04 430.99 641.40 1075.95 400.40 1244.35 455.04 1097.07 551.08 1058.28 629.27 1186.20 675.93
00005104 00000007 1005.82 176.47 429.63 647.01 1073.05 407.26 1240.21 460.26 1093.86 553.61 1056.87 635.00 1184.21 680.25
00005105 00000008 1004.68 179.55 427.97 648.47 1069.31 412.19 1235.74 462.84 1089.08 556.86 1053.63 638.31 1183.24 681.75
00005106 00000009 1002.50 181.32 427.61 647.46 1066.71 414.03 1233.02 461.99 1087.19 556.93 1051.88 639.31 1180.91 680.81
00005107 00000010 998.40 179.97 428.95 645.91 1063.93 411.72 1233.55 458.42 1087.72 556.18 1049.77 637.70 1180.99 678.32
00005108 00000011 996.56 177.09 430.74 644.39 1062.16 408.30 1232.91 454.97 1086.48 555.37 1048.85 634.97 1181.61 675.46
00005109 00000012 996.73 175.06 432.69 642.77 1060.72 404.68 1233.05 450.17 1085.46 552.38 1048.86 632.36 1183.69 671.73
00005110 00000013 997.22 171.18 430.10 641.76 1060.51 400.16 1233.53 445.34 1084.80 548.90 1048.06 629.02 1184.28 668.22
00005111 00000014 997.33 167.20 428.73 642.95 1060.89 395.59 1232.99 440.95 1084.84 545.53 1048.49 625.49 1184.93 664.82
00005112 00000015 1000.91 163.00 425.85 650.22 1063.70 393.79 1232.04 437.07 1086.09 539.95 1053.37 626.54 1185.78 664.10
00005113 00000016 1002.04 163.06 426.08 649.36 1065.32 390.42 1234.79 433.81 1087.52 535.23 1054.05 625.37 1184.52 663.03
00005114 00000017 1003.59 160.29 428.10 650.28 1066.71 389.20 1236.71 431.34 1090.51 534.16 1056.35 624.61 1184.98 661.36
00005115 00000018 1004.99 156.51 428.91 650.33 1069.16 389.10 1238.12 430.28 1094.46 531.72 1058.40 621.14 1184.51 657.09
00005116 00000019 1007.49 155.46 430.20 649.60 1072.81 388.69 1240.56 430.40 1097.41 529.41 1060.31 618.92 1187.29 655.26
00005117 00000020 1008.71 155.25 432.24 649.84 1076.23 386.01 1244.48 427.87 1101.61 527.41 1063.11 618.32 1189.15 654.74
00005118 00000021 1011.35 155.39 431.85 649.65 1081.49 384.28 1247.92 426.44 1105.02 524.16 1068.24 616.89 1192.95 653.24
00005119 00000022 1011.95 154.99 431.85 647.53 1083.93 383.42 1249.42 425.57 1106.83 522.45 1069.45 615.04 1193.74 651.48
00005120 00000023 1012.55 153.63 431.66 646.83 1084.97 381.40 1251.18 424.78 1106.97 521.06 1069.20 612.51 1194.04 649.91
00005121 00000024 1012.36 152.39 431.85 648.18 1086.21 380.07 1251.42 424.53 1106.98 519.23 1069.31 610.26 1195.57 648.47
00005122 00000025 1011.42 150.87 433.36 648.03 1085.96 378.37 1251.54 422.95 1106.54 517.55 1068.89 607.98 1195.41 646.22
00005123 00000026 1011.57 150.13 432.36 647.84 1085.59 377.95 1250.81 422.25 1106.43 517.12 1068.66 606.89 1195.59 644.87
00005124 00000027 1011.92 149.80 432.49 646.76 1085.29 377.54 1251.08 421.59 1106.44 516.97 1068.59 606.04 1195.87 643.82
00005125 00000028 1011.68 149.39 432.87 646.41 1084.25 377.53 1250.42 420.97 1105.83 517.08 1067.91 605.94 1195.54 643.27
00005126 00000029 1011.72 148.55 431.65 646.89 1082.84 377.61 1250.28 420.32 1105.81 517.72 1066.82 606.39 1195.52 643.27
00005127 00000030 1011.08 148.11 433.56 647.00 1081.18 376.54 1249.43 419.13 1103.98 516.39 1065.10 604.84 1195.80 641.53
00005128 00000031 1010.72 147.30 432.95 645.54 1079.64 375.87 1249.31 418.31 1103.56 515.60 1063.59 603.65 1195.35 640.22
00005129 00000032 1010.59 145.77 432.63 645.21 1077.44 374.36 1247.81 415.90 1101.75 515.09 1062.54 603.28 1194.31 639.10
00005130 00000033 1010.39 143.83 432.61 645.50 1077.45 372.70 1248.24 414.79 1101.54 513.44 1061.76 601.63 1193.64 638.00
00005131 00000034 1010.95 144.03 432.84 645.09 1078.85 372.09 1249.73 414.41 1102.84 513.18 1062.78 601.47 1195.00 638.04
00005132 00000035 1011.48 143.14 432.92 645.01 1081.55 370.92 1251.43 414.71 1104.15 512.84 1064.88 600.40 1195.17 638.08
00005133 00000036 1011.56 144.20 433.67 643.13 1084.70 370.34 1253.94 414.95 1107.69 513.45 1068.10 600.59 1195.67 638.94
00005134 00000037 1006.83 143.08 445.53 648.79 1090.93 373.76 1267.40 418.06 1112.31 508.25 1067.07 604.86 1200.61 642.59
00005135 00000038 1007.19 142.23 447.45 649.11 1091.87 374.47 1270.15 419.13 1114.87 509.74 1067.77 604.28 1204.71 642.34
00005136 00000039 1007.57 143.23 447.52 648.15 1093.64 376.14 1272.85 420.96 1118.10 510.45 1068.67 603.98 1207.83 642.15
00005137 00000040 1009.11 143.13 448.67 647.85 1095.70 376.48 1275.38 421.01 1120.29 511.60 1070.85 604.08 1210.54 642.13
00005138 00000041 1010.84 142.44 447.26 648.49 1097.21 377.04 1276.51 422.10 1122.11 512.77 1072.04 603.75 1212.27 642.33
00005139 00000042 1012.88 143.02 445.52 647.21 1098.18 377.33 1276.03 421.46 1122.41 512.24 1073.42 603.57 1214.61 641.32
00005140 00000043 1013.92 142.10 445.56 648.97 1098.69 377.86 1275.93 421.71 1123.14 512.34 1074.50 603.97 1215.52 641.56
00005141 00000044 1013.52 142.92 445.58 650.07 1099.86 377.84 1276.52 421.12 1124.14 511.83 1075.48 604.90 1214.43 642.13
00005142 00000045 1012.76 144.50 446.74 647.83 1100.55 378.61 1276.34 422.38 1124.63 512.42 1076.51 605.12 1213.94 642.65
00005143 00000046 1011.02 144.76 449.18 650.66 1100.42 379.92 1275.94 422.96 1123.99 511.62 1077.39 606.84 1213.45 643.73
00005144 00000047 1009.19 145.09 450.32 652.67 1098.84 379.60 1275.52 422.52 1122.99 512.50 1075.75 608.27 1213.40 644.95
00005145 00000048 1007.54 145.26 451.55 652.87 1096.80 379.92 1274.81 422.35 1122.75 512.91 1074.08 609.01 1213.16 645.25
00005146 00000049 1007.70 145.25 449.83 653.33 1096.10 380.25 1273.78 422.75 1121.64 512.43 1072.84 609.05 1211.71 645.33
00005147 00000050 1006.68 145.86 449.93 651.27 1094.87 379.54 1273.27 422.30 1121.07 513.55 1071.94 608.27 1211.92 644.59
00005148 00000051 1005.67 146.80 448.73 648.27 1093.15 379.44 1272.15 421.81 1120.58 513.63 1070.65 607.98 1211.28 643.83
00005149 00000052 1005.64 146.66 445.54 646.29 1092.62 379.25 1271.57 422.83 1120.41 513.54 1068.72 605.71 1211.46 642.43
00005150 00000053 1005.73 146.51 444.29 642.60 1091.95 379.19 1271.14 423.73 1120.20 514.00 1067.40 603.83 1209.65 641.37
00005151 00000054 1005.80 146.24 443.97 642.96 1092.25 377.99 1271.08 423.19 1119.51 513.27 1067.06 602.59 1208.87 640.66
00005152 00000055 1005.93 146.15 442.89 642.64 1092.49 377.72 1271.46 422.30 1120.14 513.10 1067.66 602.81 1208.63 640.47
00005153 00000056 1005.53 146.43 444.73 643.69 1092.76 377.25 1272.55 421.74 1120.87 513.17 1068.27 603.13 1210.37 640.74
00005154 00000057 1005.81 146.43 445.30 643.48 1093.68 378.00 1272.84 422.46 1121.52 512.37 1069.05 602.54 1210.36 640.17
00005155 00000058 1006.79 146.47 447.06 641.26 1094.85 377.50 1273.00 421.49 1122.38 511.55 1070.47 601.15 1211.41 638.45
00005156 00000059 1006.67 145.42 449.27 642.16 1095.99 376.40 1274.43 421.67 1122.20 511.81 1071.33 599.95 1213.62 638.35
00005157 00000060 1008.96 145.43 448.15 642.18 1098.27 377.10 1275.47 421.09 1123.89 510.77 1074.08 600.76 1214.04 638.22
00005158 00000061 1010.90 145.84 446.47 641.99 1099.15 377.63 1275.41 421.47 1123.65 511.28 1074.77 601.23 1213.69 638.62
00005159 00000062 1011.46 146.01 446.14 641.51 1099.31 377.35 1275.96 420.85 1124.54 511.68 1075.69 601.55 1214.43 638.68
00005160 00000063 1011.94 145.59 446.61 642.12 1099.71 378.46 1276.89 421.37 1126.16 512.54 1076.68 602.31 1215.35 639.00
00005161 00000064 1011.68 145.84 446.63 641.82 1099.37 378.16 1276.82 421.31 1125.71 512.43 1076.14 602.30 1214.83 639.19
00005162 00000065 1011.43 146.10 447.67 640.99 1098.94 378.06 1276.96 421.39 1125.68 512.90 1075.85 602.30 1214.34 639.37
00005163 00000066 1010.89 145.45 447.55 641.69 1098.43 377.93 1276.17 420.69 1124.63 511.78 1075.29 602.51 1213.85 639.09
00005164 00000067 1010.01 144.38 447.98 642.14 1097.38 377.10 1275.81 420.71 1124.29 512.29 1074.10 601.89 1214.17 639.14
00005165 00000068 1009.63 143.79 447.57 642.71 1096.35 378.16 1274.82 420.73 1124.40 513.34 1074.22 602.58 1215.10 638.93
00005166 00000069 1009.08 143.16 447.79 643.78 1095.64 379.12 1274.42 421.58 1124.89 513.26 1073.47 602.58 1215.76 638.86
00005167 00000070 1009.06 143.05 447.84 644.42 1094.96 379.86 1274.03 421.89 1124.46 513.90 1072.93 603.44 1216.08 639.38
00005168 00000071 1008.19 142.41 448.80 644.95 1094.23 379.82 1273.83 422.17 1123.41 513.92 1071.36 603.39 1215.34 639.58
00005169 00000072 1008.52 142.12 448.57 644.73 1094.43 379.51 1273.85 422.23 1123.58 514.20 1071.46 602.91 1215.25 639.44
00005170 00000073 1008.38 141.75 448.91 643.35 1095.07 378.27 1274.72 421.50 1124.20 513.55 1071.22 601.88 1213.69 638.97
00005171 00000074 1009.29 140.36 447.10 644.46 1096.01 376.97 1274.72 419.76 1124.85 511.21 1072.12 601.54 1212.04 638.42
00005172 00000075 1011.45 140.03 441.25 639.64 1095.37 375.62 1273.94 416.71 1124.18 508.85 1073.37 603.56 1202.62 639.16
00005173 00000076 1014.00 141.10 437.29 640.19 1099.17 376.80 1272.02 414.63 1124.23 503.41 1078.62 608.29 1194.30 641.24
00005174 00000077 1013.82 139.35 437.33 642.86 1099.58 375.20 1272.66 412.24 1124.72 500.32 1078.16 607.70 1194.19 640.06
00005175 00000078 1014.92 138.26 436.64 639.85 1100.01 374.43 1272.53 411.97 1125.78 498.80 1079.10 603.72 1196.17 636.36
00005176 00000079 1012.07 135.36 441.17 638.42 1098.51 371.01 1275.04 410.85 1127.20 493.08 1074.69 595.77 1201.12 630.47
00005177 00000080 1010.03 130.64 445.05 640.87 1096.50 367.57 1277.25 408.56 1129.47 490.92 1073.30 588.53 1215.46 623.79
00005178 00000081 1008.69 129.80 446.00 640.05 1096.82 366.41 1278.44 407.15 1131.13 488.92 1074.78 584.65 1219.20 619.48
00005179 00000082 1008.03 130.30 446.58 636.42 1096.08 364.56 1277.86 405.28 1130.72 487.62 1074.43 583.38 1218.29 618.20
00005180 00000083 1007.79 129.81 446.01 637.45 1096.57 365.13 1276.75 405.59 1130.60 488.01 1074.64 584.36 1214.90 618.98
00005181 00000084 1007.19 133.28 442.76 634.18 1096.07 366.17 1273.70 407.03 1127.14 487.86 1071.60 587.56 1204.07 622.66
00005182 00000085 1007.08 132.92 442.18 638.36 1094.12 369.34 1271.10 407.23 1122.83 489.86 1070.94 596.10 1196.09 629.07
00005183 00000086 1006.38 135.11 439.71 637.12 1090.38 372.42 1266.24 407.67 1118.50 490.85 1069.58 599.44 1191.41 630.28
00005184 00000087 1005.03 133.82 439.52 639.00 1088.53 373.07 1264.59 408.97 1115.89 490.78 1066.72 599.16 1190.39 630.50
00005185 00000088 1005.89 133.79 436.88 638.95 1087.75 373.74 1264.08 408.95 1115.63 489.54 1066.09 598.89 1191.21 629.70
00005186 00000089 1005.46 131.50 438.07 643.90 1087.85 372.70 1264.21 408.27 1115.31 488.83 1065.90 597.97 1193.54 629.00
00005187 00000090 1005.82 130.49 438.52 645.57 1088.52 371.83 1266.45 407.41 1117.04 488.03 1066.94 595.97 1200.14 626.77
00005188 00000091 1006.87 129.75 439.21 643.22 1089.28 369.56 1268.42 405.20 1118.99 487.09 1069.18 593.88 1205.35 624.40
00005189 00000092 1007.64 129.22 441.11 643.85 1091.06 367.54 1270.53 403.22 1121.34 484.80 1070.73 591.16 1209.12 621.70
00005190 00000093 1008.54 128.04 441.94 644.05 1092.63 365.89 1270.80 401.81 1121.94 482.61 1072.55 587.56 1211.45 618.28
00005191 00000094 1008.11 129.17 442.95 644.49 1093.78 364.28 1271.42 400.26 1122.56 482.26 1072.63 587.36 1211.99 618.12
00005192 00000095 1008.03 129.76 443.57 645.05 1094.63 363.44 1271.84 399.82 1122.76 481.19 1073.44 586.68 1212.95 617.74
00005193 00000096 1008.26 129.13 444.47 646.73 1094.78 363.25 1272.13 399.28 1122.74 480.33 1074.05 586.47 1213.57 617.26
00005194 00000097 1008.88 133.65 447.93 647.18 1101.56 363.52 1277.16 400.55 1124.99 484.40 1077.44 586.77 1219.41 618.27
00005195 00000098 1009.41 129.64 443.56 648.39 1096.18 363.13 1273.56 399.58 1123.79 479.99 1075.43 587.20 1214.74 618.41
00005196 00000099 1009.93 129.97 443.31 646.93 1096.29 362.83 1273.91 399.96 1123.88 480.72 1075.47 586.76 1214.73 618.54
00005197 00000100 1009.70 129.91 443.09 643.69 1095.64 363.09 1274.36 400.56 1124.87 482.89 1074.75 586.97 1214.20 619.12
00005198 00000101 1009.74 130.16 442.62 639.82 1094.88 363.98 1273.79 401.37 1125.12 483.01 1073.91 586.17 1213.47 618.24
00005199 00000102 1009.97 129.55 440.75 637.02 1094.02 363.95 1273.20 402.27 1124.62 483.69 1071.65 585.67 1210.33 618.61
00005200 00000103 1009.25 131.01 441.76 635.84 1092.84 364.27 1271.88 402.87 1122.96 484.93 1070.08 586.10 1208.96 619.26
00005201 00000104 1008.67 130.69 441.63 635.65 1092.25 364.48 1271.72 404.05 1122.57 485.83 1068.35 586.35 1207.08 620.19
00005202 00000105 1008.57 131.05 440.98 636.34 1092.01 365.85 1271.32 406.56 1122.32 488.22 1067.88 587.10 1206.85 621.87
00005203 00000106 1007.62 130.69 440.59 636.53 1090.04 367.74 1270.06 408.56 1122.59 493.48 1068.28 589.93 1206.46 624.81
00005204 00000107 1007.38 131.69 439.75 639.80 1086.46 369.90 1265.52 408.46 1116.39 496.42 1065.70 593.56 1202.58 626.64
00005205 00000108 1008.17 130.59 435.88 642.02 1085.19 370.86 1263.51 409.07 1114.11 498.04 1064.43 595.43 1200.79 628.08
00005206 00000109 1007.51 131.13 433.64 644.02 1084.10 372.96 1259.90 410.15 1109.92 498.36 1062.08 598.16 1193.45 630.07
00005207 00000110 1006.56 132.97 430.78 646.31 1081.05 374.14 1254.99 409.36 1103.82 497.66 1060.79 601.92 1186.74 632.35
00005208 00000111 1007.39 133.98 429.07 644.61 1076.17 375.08 1246.58 409.69 1093.53 497.75 1056.43 604.80 1177.10 634.64
00005209 00000112 1012.53 132.54 416.55 649.62 1072.04 373.16 1235.59 410.44 1091.58 504.36 1054.67 602.68 1172.94 636.38
00005210 00000113 1009.99 133.68 417.31 650.46 1067.80 375.40 1230.90 412.76 1085.90 505.15 1050.22 605.02 1166.92 638.95
00005211 00000114 1007.44 134.33 417.14 651.68 1065.18 376.35 1227.85 413.52 1082.66 505.43 1047.81 606.71 1164.07 640.48
00005212 00000115 1004.21 137.29 418.96 649.36 1063.02 377.53 1226.98 415.54 1080.83 507.08 1044.58 608.21 1160.18 642.84
00005213 00000116 1002.40 138.85 420.97 648.51 1061.09 378.37 1224.81 415.67 1080.19 508.89 1043.78 609.31 1159.19 643.36
00005214 00000117 1002.60 138.91 421.16 648.63 1060.89 379.77 1224.04 415.24 1080.07 508.82 1045.18 610.42 1159.51 642.86
00005215 00000118 1002.44 137.76 421.99 651.22 1060.82 379.49 1224.33 414.27 1079.95 508.24 1045.96 610.36 1161.76 642.21
00005216 00000119 1002.47 136.50 422.18 653.13 1061.42 378.99 1224.89 412.81 1080.32 506.15 1046.84 609.16 1164.58 640.19
00005217 00000120 1003.60 134.03 421.02 654.81 1063.19 377.35 1225.29 410.59 1080.36 503.87 1048.54 607.41 1167.34 637.80
00005218 00000121 1003.94 131.24 421.23 655.70 1064.48 375.30 1227.08 407.92 1081.94 499.95 1049.76 605.39 1168.07 635.26
00005219 00000122 1000.54 130.05 427.37 649.99 1068.63 375.31 1235.44 406.00 1079.76 489.44 1050.70 601.87 1171.83 628.34
00005220 00000123 1004.15 126.54 425.91 648.07 1071.23 372.07 1236.51 404.54 1081.55 485.10 1051.19 595.58 1175.25 623.60
00005221 00000124 1003.83 127.35 426.59 644.28 1071.52 370.78 1238.39 403.64 1084.39 483.99 1052.48 594.31 1176.90 622.65
00005222 00000125 1005.35 126.76 427.41 641.72 1074.46 367.92 1241.91 402.79 1088.09 483.94 1054.67 591.26 1180.55 621.09
00005223 00000126 1006.89 127.84 427.56 637.28 1077.22 367.90 1242.15 402.25 1089.76 481.55 1057.36 589.25 1182.08 618.57
00005224 00000127 1008.65 127.30 427.98 637.41 1077.78 367.26 1243.89 402.27 1090.98 481.80 1058.41 588.88 1183.49 618.68
00005225 00000128 1008.73 127.54 429.75 637.89 1079.31 367.57 1246.23 402.81 1093.28 481.07 1060.04 589.53 1184.69 619.54
00005226 00000129 1009.58 126.70 430.58 641.12 1081.09 368.22 1250.30 403.07 1097.40 481.79 1062.00 590.95 1187.32 620.87
00005227 00000130 1009.36 125.47 432.11 642.38 1082.23 368.32 1252.24 403.08 1100.22 481.70 1063.67 591.85 1188.51 622.02
00005228 00000131 1009.71 127.00 432.98 641.80 1084.35 367.82 1254.69 403.62 1101.93 482.12 1064.63 592.67 1189.00 623.71
00005229 00000132 1009.89 126.83 433.68 641.81 1084.85 368.28 1255.92 404.98 1103.26 482.84 1065.19 592.74 1191.27 624.45
00005230 00000133 1009.79 127.32 435.74 641.31 1085.37 367.73 1257.94 405.19 1105.11 484.84 1066.08 593.15 1193.76 625.31
00005231 00000134 1009.94 128.40 437.02 642.33 1086.45 367.82 1259.46 406.18 1106.28 486.61 1066.46 593.01 1196.37 625.75
00005232 00000135 1009.04 128.02 439.01 644.86 1087.09 368.00 1260.58 406.41 1107.25 486.17 1066.79 593.62 1197.71 626.48
00005233 00000136 1008.86 128.70 438.82 644.92 1087.37 368.24 1261.15 406.37 1108.24 486.30 1067.33 593.61 1199.33 626.20
00005234 00000137 1008.43 129.53 439.90 646.53 1088.27 369.19 1261.46 407.50 1108.17 486.51 1067.40 593.68 1200.16 626.33
00005235 00000138 1008.61 130.18 440.12 648.07 1089.37 369.50 1262.93 407.65 1109.89 486.78 1068.44 593.99 1201.95 626.51
00005236 00000139 1008.84 130.71 440.16 649.42 1090.72 370.62 1265.42 408.77 1111.61 486.02 1067.78 594.80 1203.01 627.44
00005237 00000140 1008.83 131.83 442.47 648.79 1090.88 369.92 1267.33 408.71 1113.79 486.63 1069.11 594.19 1205.88 627.26
00005238 00000141 1010.54 133.82 445.51 661.04 1097.54 372.66 1270.57 409.62 1115.40 493.40 1074.74 599.89 1215.22 631.52
00005239 00000142 1011.03 133.69 446.42 664.17 1098.90 371.66 1272.96 409.45 1117.77 493.74 1075.36 600.68 1216.71 633.14
00005240 00000143 1010.98 135.02 446.72 664.05 1100.21 371.69 1274.53 409.84 1119.66 494.95 1076.55 601.70 1216.10 634.51
00005241 00000144 1011.96 134.93 445.83 663.71 1101.62 370.74 1275.81 409.43 1122.44 495.97 1078.24 601.72 1217.02 635.06
00005242 00000145 1013.31 133.88 443.15 665.49 1102.65 369.81 1277.00 408.97 1124.40 496.83 1078.68 602.01 1218.08 635.73
00005243 00000146 1013.86 133.88 442.81 665.54 1103.26 369.38 1277.08 408.23 1125.31 496.86 1079.66 602.05 1217.98 635.56
00005244 00000147 1014.76 132.69 441.42 666.11 1102.92 368.98 1277.69 408.10 1126.28 497.70 1079.35 601.64 1219.14 635.36
00005245 00000148 1015.36 131.98 440.52 665.94 1102.69 369.52 1278.23 408.58 1126.93 497.94 1079.44 602.25 1218.70 635.95
00005246 00000149 1015.83 132.02 439.87 664.54 1102.51 369.92 1278.16 409.20 1126.73 497.81 1079.06 602.02 1218.05 635.93
00005247 00000150 1014.49 132.77 441.80 662.58 1102.91 369.48 1277.84 409.16 1126.50 497.23 1078.94 601.15 1217.29 635.33
00005248 00000151 1014.15 133.63 442.80 657.68 1101.47 370.88 1276.64 409.67 1125.41 496.84 1078.81 600.30 1217.51 633.71
00005249 00000152 1013.75 133.53 441.45 652.72 1096.54 369.57 1276.16 408.41 1123.49 493.33 1076.77 599.65 1213.06 633.22
00005250 00000153 1012.34 132.71 443.36 650.21 1096.05 369.91 1276.71 409.37 1125.01 494.38 1077.44 597.19 1216.12 631.07
00005251 00000154 1010.19 131.44 445.00 645.84 1094.28 368.79 1275.07 409.66 1123.91 494.30 1074.62 592.93 1217.54 627.70
00005252 00000155 1009.72 131.17 445.19 643.14 1093.46 367.97 1274.35 409.76 1123.21 494.27 1073.06 590.80 1217.88 626.24
00005253 00000156 1009.87 130.98 444.48 641.20 1092.84 368.09 1273.87 409.82 1122.97 494.18 1072.54 590.19 1217.16 625.56
00005254 00000157 1009.49 130.97 445.18 641.31 1092.84 369.22 1273.94 411.16 1123.25 494.46 1072.47 590.39 1217.42 625.98
00005255 00000158 1009.58 130.82 444.97 642.16 1093.67 369.73 1274.30 411.82 1123.64 495.02 1072.90 590.53 1218.20 626.20
00005256 00000159 1009.42 131.86 445.76 640.18 1093.51 369.99 1274.75 412.40 1123.81 495.08 1072.68 590.20 1218.17 626.13
00005257 00000160 1009.50 131.51 445.88 640.44 1093.60 370.40 1274.74 413.10 1123.68 494.99 1072.47 590.00 1218.35 626.18
00005258 00000161 1009.36 132.20 445.98 640.23 1093.51 370.24 1274.71 413.46 1123.90 495.98 1072.41 589.92 1218.87 626.51
00005259 00000162 1009.81 133.82 444.38 639.90 1093.80 371.49 1275.29 414.21 1124.45 496.67 1072.94 591.21 1219.57 627.37
