Video ID: 	PG4r907iqT4
H: 	1080
W: 	1920
FPS: 	29.97002997002997

FRAME INDEX X0 Y0 W H [Landmarks (5 Points)]

00003512 00000000 801.07 178.43 388.33 583.36 932.10 441.97 1107.56 443.92 1044.81 531.50 959.36 633.83 1102.64 634.49
00003513 00000001 801.17 176.96 389.15 581.90 930.96 439.03 1108.25 440.53 1043.94 528.03 957.81 629.51 1103.45 629.74
00003514 00000002 801.58 171.97 389.83 584.12 930.18 434.08 1109.45 436.31 1043.09 522.57 956.66 625.40 1105.04 626.32
00003515 00000003 801.81 168.05 389.20 587.23 930.15 429.38 1106.69 433.49 1041.06 515.78 955.88 623.37 1099.78 626.22
00003516 00000004 800.45 166.19 388.22 603.05 928.31 426.89 1104.84 433.87 1039.26 512.61 950.73 629.39 1094.61 634.69
00003517 00000005 798.87 164.89 388.88 605.70 924.70 424.49 1104.61 434.78 1033.99 511.52 942.85 626.67 1092.11 634.66
00003518 00000006 798.06 161.30 390.48 604.26 921.86 422.41 1104.88 432.84 1030.93 508.47 941.42 622.38 1093.78 630.28
00003519 00000007 800.21 161.88 388.41 596.94 920.33 423.20 1104.33 431.81 1027.86 509.00 943.57 621.22 1095.67 627.61
00003520 00000008 799.45 164.37 388.24 589.75 918.84 424.75 1101.79 432.32 1024.94 510.98 944.57 621.58 1093.11 627.19
00003521 00000009 796.44 167.25 387.04 585.70 916.65 428.83 1096.60 436.63 1022.79 515.80 944.51 623.34 1088.73 629.04
00003522 00000010 794.97 171.75 388.56 584.29 915.46 433.46 1095.17 440.52 1020.49 523.65 942.57 627.22 1087.13 632.16
00003523 DELETE   791.62 179.32 388.86 586.47 911.17 443.10 1090.78 448.30 1016.87 533.88 938.14 636.71 1082.59 640.16
00003524 00000012 787.43 184.93 391.23 588.71 907.34 447.67 1090.53 452.73 1013.14 544.78 932.91 645.96 1078.30 649.58
00003525 00000013 785.67 190.12 390.45 590.71 905.96 448.56 1085.83 453.84 1010.60 548.14 929.39 649.67 1070.65 654.21
00003526 00000014 788.98 197.28 384.52 593.36 904.84 446.30 1083.00 450.59 1013.14 544.62 928.99 656.53 1065.84 658.35
00003527 00000015 789.25 197.78 383.92 592.47 902.83 447.52 1080.83 451.53 1010.03 545.56 926.92 656.45 1065.22 658.02
00003528 00000016 788.41 199.00 385.65 588.17 899.66 449.92 1077.59 452.09 1006.10 545.24 925.96 655.26 1064.94 655.16
00003529 00000017 786.99 197.61 388.44 584.57 899.22 454.99 1076.31 457.15 999.42 551.47 926.12 652.57 1065.77 654.61
00003530 00000018 786.89 199.91 388.47 581.17 897.94 456.91 1075.63 459.02 997.00 553.40 924.58 652.54 1065.18 654.54
00003531 00000019 786.17 201.02 389.34 579.89 897.38 456.66 1074.58 459.00 995.65 553.13 924.13 652.52 1063.26 654.82
00003532 00000020 786.22 200.61 389.06 580.43 897.15 454.81 1074.84 458.40 994.78 552.15 922.13 652.38 1060.78 655.95
00003533 00000021 790.06 205.99 383.76 578.32 897.03 454.70 1074.78 456.87 999.29 547.17 923.29 657.55 1059.33 657.74
00003534 00000022 790.17 207.76 382.96 578.49 895.85 458.11 1073.93 460.02 998.27 551.52 921.66 660.49 1060.02 660.49
00003535 00000023 785.21 204.50 390.11 581.39 894.11 460.60 1075.41 464.80 990.41 557.78 914.76 654.79 1061.12 658.83
00003536 00000024 783.92 206.19 390.52 581.69 893.40 462.97 1075.30 466.86 990.43 559.28 913.48 654.49 1062.70 658.19
00003537 00000025 786.82 210.82 384.07 583.44 892.96 463.68 1073.81 467.25 996.24 553.55 916.98 660.66 1065.05 661.72
00003538 00000026 784.65 209.41 381.53 590.54 890.32 462.98 1068.17 465.82 993.65 554.80 914.71 664.05 1060.58 664.68
00003539 00000027 779.07 210.83 380.90 587.29 886.49 460.83 1063.18 464.03 989.24 553.96 910.29 661.20 1055.08 662.31
00003540 00000028 774.18 210.05 383.57 584.12 881.46 461.12 1058.50 462.18 984.62 555.42 907.99 658.71 1052.36 658.23
00003541 00000029 770.07 212.92 383.08 580.84 876.94 460.24 1053.29 461.42 979.39 555.83 903.89 657.13 1044.65 657.19
00003542 00000030 766.44 214.68 382.52 580.64 872.31 460.51 1050.73 462.97 975.49 556.56 898.98 660.43 1037.61 661.63
00003543 00000031 764.98 217.41 382.14 579.01 869.64 461.89 1049.44 465.29 972.16 557.23 896.08 660.58 1035.38 662.63
00003544 00000032 761.60 220.29 382.98 574.95 866.41 465.18 1046.53 469.27 968.27 558.87 890.45 657.58 1034.45 660.55
00003545 00000033 758.77 219.85 383.13 564.30 863.17 466.63 1045.17 463.17 964.55 560.84 887.97 658.57 1037.43 656.49
00003546 00000034 757.58 219.48 383.12 562.12 861.72 466.58 1044.02 461.19 962.47 560.24 889.14 661.56 1033.67 658.02
00003547 00000035 755.99 220.31 382.91 562.67 859.94 467.33 1041.26 461.79 959.58 561.26 888.63 666.35 1027.94 662.74
00003548 00000036 755.12 220.38 381.55 560.91 858.32 468.48 1041.31 463.49 958.95 563.77 887.23 668.27 1027.60 665.08
00003549 00000037 756.56 220.85 381.39 558.82 859.91 468.45 1042.20 462.47 960.04 562.91 889.12 667.57 1028.53 663.73
00003550 00000038 756.71 220.86 381.66 559.97 860.56 467.57 1042.07 461.03 960.74 560.98 890.17 667.06 1028.73 662.80
00003551 00000039 755.68 219.72 382.16 561.79 859.35 467.56 1038.43 459.77 959.48 560.04 890.84 666.84 1026.62 661.43
00003552 00000040 754.15 219.05 383.77 563.27 858.25 467.54 1036.11 459.29 958.78 558.86 890.72 666.34 1025.66 660.38
00003553 00000041 754.19 221.30 383.49 564.60 857.11 469.08 1034.49 460.75 956.56 559.92 890.43 668.54 1024.57 662.66
00003554 00000042 755.94 222.75 383.71 568.06 858.09 469.64 1033.64 462.41 955.04 559.52 891.45 670.24 1023.14 665.03
00003555 00000043 754.83 220.96 384.74 582.33 861.66 466.41 1036.06 467.48 961.14 555.53 893.66 670.84 1018.13 672.02
00003556 00000044 755.32 219.14 383.73 584.39 861.36 465.71 1035.48 466.58 960.42 554.23 893.53 670.74 1017.59 671.77
00003557 00000045 756.57 218.33 383.52 584.30 861.59 464.84 1036.31 465.48 960.66 553.35 893.93 669.16 1018.72 669.88
00003558 00000046 758.74 218.93 382.99 579.70 863.37 464.59 1038.90 466.16 962.45 553.68 895.38 666.45 1021.64 667.68
00003559 00000047 760.62 221.66 382.44 571.56 865.33 465.06 1041.52 467.53 964.87 555.09 895.34 662.98 1024.92 664.93
00003560 00000048 763.01 223.78 382.03 567.61 867.79 465.76 1043.96 468.00 967.63 556.83 898.12 663.00 1028.91 664.62
00003561 00000049 765.98 224.92 381.71 566.56 870.24 466.20 1047.19 467.20 970.34 557.14 900.88 664.48 1033.12 664.76
00003562 00000050 767.37 225.93 381.07 564.50 872.65 470.29 1049.05 471.24 972.13 556.02 901.28 663.30 1035.86 663.65
00003563 00000051 768.23 226.08 379.70 564.07 875.44 475.59 1046.65 475.57 971.92 555.29 902.40 661.54 1036.00 661.89
00003564 00000052 768.06 226.48 380.89 563.66 875.34 471.49 1048.52 472.41 972.96 555.36 901.95 661.93 1035.54 662.66
00003565 00000053 768.84 223.03 381.79 566.98 874.98 467.67 1051.12 467.34 975.48 555.36 903.75 662.61 1038.80 661.77
00003566 00000054 771.20 221.82 380.08 570.20 877.98 466.12 1053.79 464.94 980.27 556.26 907.72 665.01 1041.67 663.36
00003567 00000055 774.44 222.26 379.63 573.68 882.13 466.11 1057.63 465.61 985.15 556.95 913.21 667.06 1047.18 665.71
00003568 00000056 778.83 222.10 377.56 578.15 886.06 466.67 1060.69 467.40 989.51 557.43 916.94 669.82 1051.01 669.44
00003569 00000057 781.09 221.41 377.36 579.53 889.08 466.58 1062.89 467.70 992.12 555.39 919.60 669.01 1053.03 668.87
00003570 00000058 783.99 221.27 376.77 580.70 893.04 466.85 1066.90 468.19 997.12 552.71 922.24 668.24 1057.67 668.24
00003571 00000059 785.91 220.46 377.35 581.00 896.69 466.27 1072.17 467.45 1002.03 550.26 925.01 667.70 1060.65 667.81
00003572 00000060 788.70 215.59 376.30 579.08 899.57 462.59 1075.67 462.01 1007.73 548.66 928.25 663.29 1066.32 661.90
00003573 00000061 790.44 209.23 377.63 575.66 900.69 458.74 1078.04 456.74 1010.19 547.06 931.61 659.82 1069.54 656.91
00003574 00000062 790.38 207.22 379.39 573.80 904.06 456.25 1080.75 453.82 1014.17 546.26 936.48 657.14 1072.18 653.44
00003575 00000063 791.73 207.18 378.47 573.79 907.63 457.47 1083.11 454.67 1019.36 548.44 940.87 657.48 1075.47 653.84
00003576 00000064 792.73 208.49 378.79 573.16 912.76 458.31 1085.87 456.54 1025.66 551.07 945.03 657.23 1077.41 654.69
00003577 00000065 794.88 209.47 377.64 571.90 916.62 460.55 1087.93 459.37 1029.39 552.49 948.98 657.81 1078.84 655.84
00003578 00000066 796.07 209.88 378.06 572.04 919.73 459.56 1091.24 459.52 1033.36 552.12 951.47 658.08 1081.27 656.98
00003579 00000067 791.06 210.08 383.40 575.58 919.86 467.61 1094.70 462.97 1031.39 560.39 949.69 661.46 1088.19 657.61
00003580 00000068 798.25 210.73 377.98 572.02 921.97 461.14 1097.46 463.67 1036.90 553.94 951.03 658.88 1086.12 660.14
00003581 00000069 798.21 210.15 379.36 574.44 924.66 459.20 1099.68 461.91 1040.56 553.84 954.63 659.55 1087.02 660.92
00003582 00000070 799.32 210.63 378.25 576.31 925.74 465.09 1095.75 466.13 1038.48 551.76 955.90 659.56 1086.43 659.95
00003583 00000071 800.05 210.74 376.25 578.81 926.94 468.50 1094.19 471.20 1037.90 550.32 953.02 657.38 1085.62 659.94
00003584 00000072 798.96 207.70 376.56 582.03 927.33 463.94 1095.19 466.11 1039.95 549.84 951.55 654.99 1085.77 656.94
00003585 00000073 798.03 205.26 376.98 586.49 926.08 460.44 1097.39 460.79 1041.46 550.36 951.41 655.68 1087.65 655.74
00003586 00000074 799.12 202.80 379.22 588.98 926.47 457.08 1099.22 457.42 1043.04 552.28 953.37 656.36 1090.03 655.97
00003587 00000075 799.37 199.84 381.69 592.91 926.55 454.86 1100.51 454.91 1043.96 551.81 953.04 655.53 1092.01 654.97
00003588 00000076 798.74 198.07 381.64 595.21 925.27 453.01 1100.46 453.71 1042.36 551.10 951.07 655.74 1090.81 655.68
00003589 00000077 794.67 196.68 382.61 601.35 925.19 451.56 1097.75 453.29 1041.02 548.64 947.67 655.05 1086.21 655.57
00003590 00000078 791.94 193.28 383.14 598.43 920.45 448.52 1096.52 449.87 1037.28 546.29 944.51 651.85 1086.23 651.84
00003591 DELETE   786.82 182.99 387.31 594.66 915.16 448.68 1093.83 447.21 1027.15 543.91 941.43 644.68 1087.32 642.69
00003592 00000080 791.38 174.83 384.38 590.79 917.98 441.64 1094.99 440.58 1029.89 532.29 949.96 637.34 1092.13 635.42
00003593 DELETE   793.87 169.05 384.39 585.43 919.90 435.50 1097.02 434.78 1031.65 524.49 953.96 630.07 1094.72 628.39
00003594 00000082 796.17 164.87 383.29 586.59 920.39 431.20 1098.07 430.09 1032.44 520.19 954.45 627.73 1095.80 625.91
00003595 00000083 796.90 163.34 383.75 586.58 920.92 429.18 1098.66 428.15 1033.10 518.73 954.98 626.84 1095.77 625.22
00003596 00000084 796.81 163.12 384.69 586.67 921.94 428.59 1098.55 427.85 1033.71 518.91 955.99 626.51 1095.36 625.11
00003597 00000085 797.42 162.66 384.20 588.35 923.27 427.63 1098.26 426.41 1035.60 517.65 956.54 626.56 1095.01 624.97
00003598 00000086 799.01 162.55 383.21 588.45 925.28 426.79 1099.11 424.84 1038.07 516.27 957.05 625.52 1095.22 623.61
00003599 00000087 799.21 161.41 383.23 584.28 927.32 426.16 1100.88 422.48 1041.44 512.81 960.72 620.67 1099.66 617.33
00003600 00000088 802.85 159.37 382.32 580.18 930.53 422.35 1104.35 419.09 1045.55 505.11 962.30 613.38 1103.30 610.57
00003601 00000089 804.96 159.22 382.99 577.07 933.27 420.36 1109.38 418.40 1050.55 501.04 963.06 609.02 1108.00 607.64
00003602 00000090 808.60 156.03 381.96 576.91 937.10 416.09 1112.86 414.49 1056.31 496.17 967.16 605.96 1110.51 605.18
00003603 00000091 810.13 153.64 383.83 579.30 940.71 413.48 1116.29 412.77 1061.22 492.91 970.75 605.43 1112.12 605.56
00003604 00000092 812.46 152.85 384.78 582.71 943.60 412.31 1118.68 409.59 1065.14 493.33 975.86 608.16 1115.05 606.85
00003605 00000093 815.77 153.51 383.23 584.12 946.80 411.44 1121.26 407.57 1068.71 494.16 979.74 609.51 1118.22 607.23
00003606 00000094 817.12 152.48 384.72 586.78 946.68 412.06 1122.83 405.98 1069.47 495.81 982.36 612.95 1121.10 608.75
00003607 00000095 818.96 152.02 385.27 586.84 947.06 412.19 1124.10 405.17 1070.17 495.91 983.96 613.91 1122.99 608.97
00003608 00000096 820.68 151.89 384.94 585.55 948.02 411.05 1125.07 404.09 1070.54 495.97 984.55 613.18 1123.13 608.38
00003609 00000097 822.35 151.82 384.42 584.06 948.96 410.97 1125.62 403.45 1070.65 495.73 986.16 612.97 1123.49 607.52
00003610 00000098 824.46 151.86 384.59 580.10 951.38 410.37 1127.06 403.17 1072.19 494.16 988.60 609.84 1124.87 604.39
00003611 00000099 826.87 150.13 383.76 575.09 952.10 410.10 1130.37 403.28 1072.72 492.83 988.67 605.79 1128.67 600.40
00003612 00000100 829.71 148.48 381.98 571.09 954.41 408.84 1133.71 402.89 1074.22 492.25 988.09 601.16 1130.95 596.59
00003613 00000101 830.07 147.46 382.02 571.40 954.51 407.87 1134.60 402.19 1074.44 491.85 988.00 600.32 1131.30 595.97
00003614 00000102 830.33 146.96 381.40 570.83 954.57 406.26 1134.87 401.86 1073.96 490.42 987.17 599.07 1130.03 595.88
00003615 00000103 831.09 146.58 381.34 571.34 955.86 405.82 1136.72 401.64 1075.68 490.41 987.50 598.38 1131.67 595.42
00003616 00000104 832.08 147.26 381.10 572.02 957.22 407.32 1137.67 403.82 1076.06 493.59 986.79 600.02 1130.96 597.62
00003617 00000105 831.19 150.06 382.04 569.84 957.11 412.74 1139.69 410.77 1075.09 496.94 985.55 602.07 1131.45 600.26
00003618 00000106 832.68 152.65 380.38 569.86 960.02 420.55 1137.44 416.71 1077.16 497.39 984.96 600.81 1132.97 597.48
00003619 00000107 833.04 153.65 381.30 572.95 959.68 420.69 1137.72 415.55 1076.85 498.50 985.68 602.47 1134.85 598.06
00003620 00000108 832.36 153.41 387.57 585.18 960.04 416.72 1140.17 415.15 1074.07 499.73 990.78 605.80 1133.36 603.84
00003621 00000109 835.31 152.85 386.56 591.45 962.79 414.93 1143.35 415.56 1077.10 504.63 994.77 611.27 1135.72 610.83
00003622 00000110 838.75 153.40 385.39 594.10 964.68 416.93 1145.93 417.41 1080.78 509.25 998.04 615.57 1139.45 614.75
00003623 00000111 840.90 154.84 384.92 593.56 965.54 418.14 1150.02 419.41 1082.97 513.96 997.69 616.87 1143.14 616.61
00003624 00000112 843.65 157.47 384.17 588.89 967.40 419.62 1152.72 421.92 1083.97 515.17 998.71 615.44 1146.46 616.14
00003625 00000113 845.59 158.71 384.57 586.77 970.35 420.89 1154.78 423.72 1086.37 514.79 1000.86 615.04 1148.31 616.33
00003626 00000114 847.14 159.53 385.53 585.85 973.21 421.84 1156.45 424.55 1089.31 514.99 1003.94 615.10 1150.92 616.27
00003627 00000115 848.24 159.90 387.26 587.72 977.25 422.11 1158.35 424.87 1093.01 517.38 1008.66 617.28 1153.17 618.37
00003628 00000116 853.44 160.11 386.75 589.54 982.21 423.00 1161.30 425.67 1096.95 516.83 1014.77 619.66 1157.27 620.54
00003629 00000117 858.62 159.48 386.33 589.01 986.65 423.67 1166.99 424.32 1102.59 515.51 1019.73 618.91 1165.29 618.45
00003630 00000118 862.10 156.60 385.40 593.59 992.24 425.44 1170.73 424.46 1110.48 516.80 1025.73 620.68 1170.28 618.97
CROP_BBOX: 567 0 1487 934
