Video ID: 	df1DHR44FNs
H: 	1080
W: 	1920
FPS: 	25.0

FRAME INDEX X0 Y0 W H [Landmarks (5 Points)]

00018402 00000000 797.85 119.51 343.64 476.92 833.56 330.16 937.23 325.67 826.36 424.66 855.65 514.77 928.25 510.21
00018403 DELETE   803.37 122.35 336.31 479.35 832.82 329.96 937.25 330.95 826.77 429.64 853.01 518.74 925.78 517.15
00018404 DELETE   807.05 124.31 334.06 486.66 837.12 331.50 936.94 334.85 828.34 431.58 858.78 521.99 927.03 522.05
00018405 00000003 813.26 120.52 325.19 500.91 847.31 334.13 936.49 338.46 829.44 433.07 868.89 525.37 929.32 526.88
00018406 00000004 820.45 122.69 323.47 510.56 854.03 332.62 933.74 340.54 829.15 436.30 875.96 528.86 929.15 533.35
00018407 00000005 822.97 124.71 326.28 511.38 862.75 334.26 936.17 345.04 831.46 439.25 884.35 529.34 934.46 535.00
00018408 00000006 826.34 125.40 328.29 513.10 868.17 334.02 943.63 347.90 836.89 439.89 887.10 530.33 937.85 537.99
00018409 00000007 840.76 116.87 326.26 529.25 859.12 333.15 956.02 341.90 828.68 434.44 876.75 538.60 942.24 547.02
00018410 00000008 839.90 134.21 329.12 508.97 874.27 335.04 959.59 349.92 844.20 439.14 887.21 530.87 945.44 539.30
00018411 00000009 845.55 141.62 324.99 502.59 879.02 336.67 963.66 350.87 848.52 440.00 891.62 530.14 950.98 538.21
00018412 00000010 845.83 141.55 326.82 504.34 886.66 338.20 966.76 349.34 850.64 437.63 896.83 530.81 952.71 537.55
00018413 00000011 848.98 140.18 324.76 503.68 888.13 336.83 970.20 348.88 853.95 435.98 897.46 529.37 953.38 536.56
00018414 00000012 850.20 140.05 324.10 503.78 889.74 335.87 970.87 348.11 854.92 435.01 898.84 528.54 954.32 535.92
00018415 00000013 851.41 139.81 323.77 504.21 890.21 337.44 971.98 349.07 856.17 435.63 899.59 529.35 955.65 536.20
00018416 00000014 851.12 141.67 324.75 503.94 889.92 337.77 971.98 349.53 855.41 436.03 899.56 530.23 955.89 537.18
00018417 00000015 850.35 143.77 324.83 502.86 889.64 338.65 971.57 350.46 855.12 436.56 899.17 530.56 955.78 537.53
00018418 00000016 849.72 144.46 326.40 501.91 887.93 339.69 970.88 349.89 854.54 437.32 898.40 531.34 955.42 537.18
00018419 00000017 849.64 143.83 325.21 503.48 887.56 339.60 970.16 349.69 854.33 438.25 899.30 532.05 956.50 537.78
00018420 00000018 849.25 144.59 326.64 505.67 887.30 340.58 970.24 350.42 853.58 438.85 898.93 533.21 957.26 538.82
00018421 00000019 848.62 143.28 325.21 510.17 885.39 342.26 969.68 351.40 853.21 440.69 897.87 535.96 957.74 541.14
00018422 00000020 848.72 142.89 325.20 512.35 884.67 343.25 970.41 352.41 854.24 441.70 897.65 537.13 958.26 542.26
00018423 00000021 849.25 145.31 326.63 511.38 883.71 344.31 970.33 352.91 854.10 443.42 897.74 538.20 959.90 543.03
00018424 00000022 848.90 144.37 327.35 513.39 882.74 344.85 970.80 353.10 854.58 444.21 897.13 539.31 960.68 543.92
00018425 00000023 848.81 144.64 326.55 513.86 882.04 346.22 970.94 353.18 854.77 444.38 896.78 540.39 961.37 544.19
00018426 00000024 853.91 138.62 330.80 525.57 867.33 349.07 975.07 350.15 842.93 448.95 892.74 550.92 972.11 552.93
00018427 00000025 856.02 140.72 327.88 529.38 873.37 350.02 969.94 348.68 845.22 445.79 900.06 553.37 964.15 555.53
00018428 00000026 852.98 141.67 335.03 521.52 867.62 350.22 984.90 355.27 852.28 452.94 890.09 551.92 973.89 557.72
00018429 00000027 855.00 143.71 332.29 514.90 877.59 349.09 982.70 363.76 865.34 454.78 894.11 545.88 964.42 555.66
00018430 DELETE   855.52 138.64 340.27 526.39 881.65 353.95 991.24 366.47 876.68 459.82 900.41 551.42 976.57 559.32
00018431 DELETE   852.93 141.29 354.19 529.45 886.17 356.11 1005.09 370.97 889.02 467.26 904.76 551.35 990.86 561.76
00018432 00000030 854.04 143.10 355.63 527.90 889.78 355.81 1020.48 369.53 901.73 470.91 907.21 552.38 1003.85 562.34
00018433 DELETE   860.79 145.03 357.55 522.35 897.03 354.43 1032.94 365.84 914.57 472.35 916.83 552.57 1017.01 560.71
00018434 00000032 866.95 141.59 356.59 529.73 905.44 355.29 1039.74 363.36 920.83 465.76 930.53 555.85 1022.91 561.23
00018435 00000033 873.39 137.31 353.92 531.19 910.07 354.01 1045.58 363.45 923.90 465.01 934.95 555.10 1026.11 561.43
00018436 00000034 878.76 135.51 358.25 527.49 913.89 350.93 1051.22 362.88 929.27 464.53 935.47 550.43 1034.57 558.78
00018437 00000035 884.71 135.15 356.40 533.72 920.41 351.88 1058.94 362.31 937.70 463.86 945.13 552.81 1046.92 559.44
00018438 00000036 894.25 149.30 350.62 522.03 936.27 353.95 1067.33 361.99 944.32 458.75 960.27 555.24 1048.78 559.62
00018439 00000037 899.54 148.72 348.89 515.23 942.25 352.24 1071.89 362.61 954.18 458.90 962.66 549.73 1053.16 556.10
00018440 00000038 905.26 148.05 346.83 512.91 945.06 348.84 1073.93 361.35 956.37 458.66 963.71 547.06 1052.68 555.17
00018441 00000039 906.03 146.47 346.55 514.17 947.97 347.29 1079.67 361.08 962.99 460.14 965.82 546.56 1056.09 556.09
00018442 00000040 906.17 149.17 348.91 517.48 951.10 346.35 1082.95 361.77 965.10 459.97 970.37 548.04 1059.48 558.65
00018443 00000041 906.28 150.07 356.49 516.75 952.36 347.73 1087.39 364.17 968.03 460.93 971.89 548.91 1062.67 560.41
00018444 00000042 907.29 149.61 351.65 516.01 954.96 349.98 1091.57 366.05 971.67 461.23 969.84 550.21 1064.99 561.48
00018445 00000043 910.28 158.27 349.23 507.77 955.08 350.68 1094.11 367.30 969.31 460.96 971.64 550.97 1067.88 562.59
00018446 00000044 909.88 153.16 357.59 515.04 953.92 353.21 1095.62 368.00 971.77 463.33 972.67 554.42 1070.86 564.73
00018447 00000045 906.97 151.79 357.91 512.96 955.59 353.76 1097.90 367.84 975.94 459.71 967.62 552.18 1066.68 562.27
00018448 00000046 905.92 152.16 358.85 503.84 956.66 349.63 1099.09 365.51 980.44 457.92 970.24 546.53 1063.86 558.05
00018449 00000047 904.30 150.86 357.80 519.66 956.42 349.74 1101.31 366.22 980.26 461.03 976.85 550.46 1071.43 562.04
00018450 00000048 904.56 149.91 354.27 509.18 955.49 347.91 1098.47 364.07 979.14 461.44 976.68 548.90 1073.41 559.84
00018451 00000049 903.82 150.99 351.49 504.83 954.68 349.78 1098.07 363.60 979.93 460.75 974.10 548.52 1074.01 557.79
00018452 00000050 902.27 154.08 351.71 512.23 954.10 351.53 1097.88 365.48 980.82 462.15 975.95 547.92 1075.26 556.97
00018453 00000051 899.63 155.60 356.12 510.94 951.30 351.54 1096.64 363.22 982.30 463.34 973.86 552.03 1073.57 559.48
00018454 00000052 898.08 156.37 354.18 513.43 950.88 354.62 1095.07 365.22 979.13 464.00 975.58 554.82 1075.59 561.13
00018455 00000053 896.70 157.20 354.57 518.32 949.50 356.30 1093.47 365.17 977.97 462.89 977.91 558.18 1075.58 562.93
00018456 00000054 894.24 157.24 355.93 511.60 948.08 358.12 1093.60 366.48 980.35 465.95 975.40 559.80 1076.22 564.35
00018457 00000055 893.95 158.65 355.88 507.57 948.85 358.13 1096.06 366.47 983.90 466.32 975.57 557.51 1077.21 561.95
00018458 00000056 894.09 159.19 357.59 505.90 949.20 357.69 1097.68 366.97 986.82 468.51 975.62 555.78 1076.49 561.11
00018459 00000057 894.20 158.40 359.41 504.87 950.40 357.90 1100.39 367.19 990.50 469.11 977.68 554.43 1078.86 559.94
00018460 00000058 895.81 158.84 358.81 502.48 952.21 358.73 1101.36 366.06 993.50 468.93 984.36 555.35 1081.43 559.37
00018461 00000059 898.27 158.80 359.05 501.52 954.84 358.57 1103.79 364.04 997.68 469.24 988.68 554.87 1087.07 557.50
00018462 00000060 901.68 156.12 359.90 504.99 958.36 358.75 1107.85 362.68 1003.88 469.48 993.18 554.91 1094.67 556.32
00018463 00000061 903.82 154.51 360.16 510.52 960.90 358.00 1112.42 360.61 1008.35 469.22 997.07 555.42 1102.01 555.65
00018464 00000062 907.70 150.85 361.57 513.05 964.67 355.77 1118.80 358.50 1015.43 469.80 1002.30 554.27 1110.66 554.68
00018465 00000063 911.01 148.80 363.12 515.75 969.49 356.33 1126.14 357.54 1022.82 469.38 1007.48 555.65 1117.86 555.09
00018466 00000064 917.14 146.38 364.42 518.93 975.84 358.72 1131.48 359.69 1027.04 468.89 1016.34 553.99 1123.84 553.03
00018467 00000065 931.40 145.94 365.63 517.82 995.95 360.87 1140.13 358.51 1038.09 460.50 1035.39 555.06 1133.80 551.68
00018468 00000066 940.09 145.92 365.38 511.40 1003.73 355.44 1151.15 354.33 1050.66 459.57 1043.84 550.17 1145.11 547.59
00018469 00000067 949.10 150.76 363.63 505.56 1012.76 352.29 1161.02 355.91 1058.08 459.75 1049.78 547.62 1152.51 548.55
00018470 00000068 956.15 147.71 362.01 506.13 1020.31 348.54 1168.14 354.29 1063.44 457.94 1049.97 543.92 1153.94 546.97
00018471 00000069 961.88 143.72 360.56 507.09 1026.92 345.05 1174.96 350.00 1071.03 454.60 1053.89 541.72 1159.99 544.38
00018472 00000070 967.31 141.70 360.74 507.98 1030.13 345.82 1180.35 350.38 1075.02 453.51 1056.13 541.48 1163.75 543.90
00018473 00000071 969.66 141.95 360.79 505.42 1032.86 345.83 1184.67 349.63 1078.13 452.08 1057.25 541.03 1165.86 543.01
00018474 00000072 970.84 140.61 362.17 505.72 1034.36 343.75 1186.78 348.60 1080.14 452.30 1058.48 540.64 1167.87 543.40
00018475 00000073 971.30 139.42 363.26 505.11 1034.99 342.80 1188.96 348.46 1080.39 451.48 1058.25 540.69 1170.11 543.99
00018476 00000074 971.58 138.59 362.72 504.58 1036.23 340.98 1190.12 347.50 1081.39 450.66 1058.19 538.95 1170.25 543.02
00018477 00000075 971.26 137.30 362.37 504.25 1036.48 340.37 1189.75 346.65 1081.47 449.55 1057.33 538.68 1168.25 542.66
00018478 00000076 971.27 137.76 361.71 504.83 1036.06 340.08 1189.32 346.21 1080.20 448.33 1056.38 537.92 1167.42 541.83
00018479 00000077 970.96 138.25 361.27 505.95 1035.80 339.51 1188.34 344.89 1079.95 447.89 1056.33 537.49 1166.05 540.92
00018480 00000078 970.00 136.89 361.99 507.03 1035.63 339.07 1186.96 343.87 1079.21 446.72 1056.02 536.62 1164.81 539.64
00018481 00000079 968.82 136.91 361.97 510.93 1035.07 340.00 1186.91 344.43 1078.72 446.04 1057.18 535.37 1164.53 537.99
00018482 00000080 967.70 137.00 362.89 517.75 1032.56 339.81 1186.04 342.69 1076.69 444.16 1057.21 535.24 1164.19 536.50
00018483 00000081 960.80 134.64 365.11 524.22 1025.57 336.32 1187.06 342.85 1077.22 446.32 1051.39 536.48 1167.67 542.50
00018484 00000082 966.15 136.04 359.70 512.32 1031.22 336.00 1182.56 338.64 1073.31 442.07 1052.77 532.23 1162.14 533.72
00018485 00000083 964.24 134.77 363.12 506.62 1031.06 336.49 1182.81 339.35 1074.22 443.09 1050.75 532.19 1161.20 534.14
00018486 00000084 962.12 132.99 364.45 506.65 1030.69 337.94 1182.09 339.72 1075.12 443.20 1051.49 532.66 1162.07 533.78
00018487 00000085 960.41 133.94 366.03 507.42 1030.75 337.35 1181.72 338.59 1076.06 441.53 1054.43 532.23 1161.69 532.87
00018488 00000086 954.89 134.68 372.18 507.04 1029.66 334.13 1184.02 334.68 1084.11 444.57 1054.00 529.89 1167.41 532.28
00018489 00000087 953.54 133.39 371.39 501.18 1028.43 330.94 1183.30 332.48 1083.34 442.44 1052.81 527.55 1164.84 530.38
00018490 00000088 954.61 132.78 370.44 495.94 1027.56 328.94 1184.25 332.56 1082.47 441.89 1049.37 524.41 1164.52 528.84
00018491 00000089 954.99 131.84 370.51 496.90 1028.26 328.16 1184.59 332.07 1083.15 441.78 1049.60 523.75 1164.55 528.51
00018492 00000090 956.62 129.63 370.46 499.94 1030.58 327.96 1185.49 330.37 1086.84 440.92 1054.47 524.84 1166.87 528.45
00018493 00000091 956.92 126.83 370.88 503.83 1031.63 325.94 1185.64 328.20 1088.06 439.30 1056.49 526.54 1165.28 530.05
00018494 00000092 958.72 123.06 370.42 507.80 1031.28 324.87 1184.29 326.76 1086.19 434.90 1054.24 523.01 1163.99 526.32
00018495 00000093 959.41 115.90 368.69 514.63 1028.88 321.02 1181.96 323.07 1081.88 429.86 1051.66 518.89 1162.54 522.21
00018496 00000094 957.76 113.01 366.82 516.82 1025.94 318.20 1176.54 319.82 1075.85 423.59 1048.51 514.49 1159.53 517.58
00018497 00000095 955.26 106.02 365.33 515.02 1019.29 314.43 1173.92 316.57 1071.56 421.02 1042.87 513.47 1158.29 516.28
00018498 00000096 953.80 101.85 364.55 513.89 1016.04 313.06 1170.97 314.69 1068.13 419.47 1039.81 511.89 1156.46 513.90
00018499 00000097 952.19 100.23 365.91 510.14 1013.63 311.20 1167.09 312.24 1065.48 416.50 1038.40 508.79 1153.15 510.02
00018500 00000098 950.87 99.79 365.91 508.66 1012.98 311.54 1165.43 311.45 1066.56 415.95 1039.98 508.14 1153.25 508.33
00018501 00000099 950.10 97.77 366.61 506.51 1011.93 309.82 1165.06 309.80 1066.97 416.60 1041.06 507.81 1154.45 507.68
00018502 00000100 949.09 97.86 367.81 507.79 1011.26 309.68 1165.14 309.62 1067.01 416.60 1039.12 506.37 1154.80 506.24
00018503 00000101 941.69 98.48 372.44 510.21 1010.99 309.11 1169.77 306.12 1065.86 414.28 1043.15 504.80 1156.78 503.70
00018504 00000102 943.13 100.71 369.74 516.62 1013.59 310.14 1169.02 307.07 1067.07 414.48 1045.99 506.92 1156.23 506.16
00018505 00000103 943.61 101.76 369.35 515.89 1014.47 310.89 1169.39 308.61 1069.18 416.86 1048.74 506.41 1158.99 506.14
00018506 00000104 942.79 102.94 370.96 514.38 1014.53 310.74 1170.06 308.84 1070.08 417.87 1047.88 505.64 1159.46 505.67
00018507 00000105 942.07 105.62 372.63 510.29 1016.45 313.10 1172.12 310.30 1075.44 420.17 1051.79 505.62 1163.34 504.81
00018508 00000106 947.21 105.16 370.34 509.32 1021.05 314.04 1172.72 312.96 1084.73 422.24 1054.33 508.02 1165.18 507.46
00018509 00000107 943.92 105.95 375.31 516.09 1023.63 314.60 1176.96 313.28 1091.02 422.62 1056.59 510.25 1166.37 509.64
00018510 00000108 945.71 102.60 376.06 520.72 1025.61 314.05 1181.18 309.86 1095.95 421.42 1061.27 510.58 1176.24 507.41
00018511 00000109 945.89 100.58 375.75 515.20 1026.96 313.14 1183.37 306.75 1101.06 420.39 1066.42 507.63 1182.46 502.51
00018512 00000110 944.62 98.38 376.90 508.49 1026.67 312.51 1185.25 302.77 1105.19 418.98 1070.62 506.06 1188.48 497.90
00018513 00000111 941.46 99.59 380.31 511.98 1025.79 312.60 1184.80 301.08 1106.37 416.35 1074.03 506.37 1190.42 496.86
00018514 00000112 939.28 100.01 383.04 519.75 1026.27 313.20 1184.57 300.62 1108.94 416.00 1073.62 507.68 1189.72 497.75
00018515 00000113 939.66 99.28 384.22 522.15 1029.98 315.82 1185.15 304.06 1112.16 415.04 1077.00 506.13 1192.03 496.61
00018516 00000114 941.64 100.83 382.51 517.39 1034.29 317.09 1188.58 305.92 1118.29 416.73 1081.64 505.52 1196.54 496.23
00018517 00000115 941.95 99.63 383.41 521.34 1038.06 316.70 1193.36 305.15 1125.43 416.41 1085.36 507.66 1199.67 498.19
00018518 00000116 941.95 102.43 384.97 522.01 1041.06 317.47 1195.94 305.27 1129.55 416.07 1089.13 509.03 1202.59 498.97
00018519 00000117 943.68 103.53 383.58 519.33 1043.27 318.16 1200.97 304.90 1134.63 418.25 1092.69 512.01 1208.42 501.01
00018520 00000118 946.35 101.84 383.75 519.07 1046.35 320.25 1207.86 306.93 1140.15 421.29 1096.18 514.57 1214.50 503.26
00018521 00000119 946.59 102.84 386.17 519.63 1049.43 321.73 1213.27 307.93 1144.90 422.14 1099.93 516.29 1219.42 504.22
00018522 00000120 947.59 102.05 386.27 522.37 1052.71 323.88 1217.80 309.22 1150.31 424.38 1105.00 518.76 1225.04 505.89
00018523 00000121 947.14 104.72 385.25 518.26 1052.98 328.74 1219.08 311.98 1151.54 427.46 1108.38 521.86 1227.95 507.29
00018524 00000122 944.99 106.54 384.24 511.41 1052.28 332.73 1220.83 314.72 1152.32 429.55 1108.34 522.23 1229.68 506.48
00018525 00000123 943.00 108.77 381.37 508.24 1051.52 333.04 1217.74 313.68 1151.38 433.61 1111.17 524.13 1227.18 507.24
00018526 00000124 938.68 112.11 381.60 511.75 1050.16 332.42 1214.86 314.47 1149.71 435.35 1109.30 526.95 1221.74 511.59
00018527 00000125 934.27 118.35 382.49 512.65 1049.42 334.50 1213.70 316.33 1151.38 439.56 1109.14 533.36 1218.78 518.30
00018528 00000126 933.01 121.16 381.03 508.62 1046.47 336.57 1210.09 316.71 1148.73 442.32 1108.46 537.46 1217.55 520.99
00018529 00000127 930.11 124.96 380.05 499.56 1041.98 336.65 1207.11 316.12 1144.80 442.85 1105.81 537.81 1216.52 520.42
00018530 00000128 928.89 127.02 377.79 495.70 1039.87 337.04 1204.42 317.63 1140.86 444.50 1102.82 534.78 1213.99 518.38
00018531 00000129 928.96 128.96 374.32 496.22 1036.87 338.61 1201.07 320.25 1135.83 444.27 1097.91 533.00 1211.04 517.74
00018532 00000130 925.20 130.77 375.14 501.33 1031.71 340.57 1196.68 325.71 1129.14 446.38 1085.66 533.34 1202.73 521.08
00018533 00000131 921.32 127.82 379.02 507.61 1026.86 340.87 1192.89 328.19 1122.30 446.25 1078.62 531.10 1199.35 520.76
00018534 00000132 919.86 129.63 378.68 503.66 1023.27 342.64 1186.61 329.59 1115.52 445.36 1075.61 529.97 1194.86 519.19
00018535 00000133 915.52 128.02 381.45 501.97 1019.69 342.01 1182.03 328.12 1109.98 444.61 1072.81 528.90 1189.74 517.10
00018536 DELETE   909.51 126.52 385.14 501.49 1014.02 342.41 1174.98 327.81 1101.89 445.43 1068.93 530.95 1183.08 518.33
00018537 DELETE   906.76 129.57 385.77 493.03 1008.28 344.38 1167.66 329.24 1092.24 444.94 1065.66 534.13 1176.49 520.94
00018538 DELETE   905.50 132.80 387.93 496.32 1001.49 343.15 1163.07 330.11 1081.49 445.20 1055.81 530.09 1168.66 518.82
00018539 00000137 907.83 119.79 381.42 507.91 988.06 341.86 1147.88 331.63 1060.27 449.29 1046.51 531.83 1152.80 522.73
00018540 00000138 909.24 122.48 377.48 503.60 984.48 341.21 1144.41 332.16 1053.17 449.79 1039.50 529.53 1147.62 521.34
00018541 00000139 908.95 123.10 376.06 503.00 981.81 339.94 1140.47 332.51 1046.95 448.96 1032.98 529.61 1141.80 522.89
00018542 00000140 908.50 123.53 374.32 499.34 980.46 337.27 1137.59 331.69 1041.94 446.35 1029.05 526.86 1135.75 521.65
00018543 DELETE   906.43 121.16 374.82 502.00 979.69 333.78 1136.16 332.12 1038.93 444.38 1023.01 524.56 1129.79 522.63
00018544 00000142 905.94 119.65 371.53 501.79 977.36 331.36 1132.55 331.09 1033.34 441.99 1019.03 522.95 1125.12 522.20
00018545 00000143 905.42 116.86 368.40 501.29 971.37 327.79 1126.87 327.91 1025.80 439.13 1012.46 521.20 1121.41 520.82
00018546 00000144 900.16 114.50 370.47 509.74 965.09 324.74 1123.76 326.49 1021.09 436.31 1003.13 518.67 1117.23 519.93
00018547 00000145 897.04 111.00 369.04 509.15 958.79 324.19 1115.77 323.76 1012.43 434.78 999.80 518.40 1111.59 517.81
00018548 00000146 901.26 107.10 364.65 514.37 955.36 328.66 1104.78 322.54 1006.53 430.21 997.77 519.23 1106.48 512.38
00018549 00000147 898.82 105.11 365.58 513.94 951.51 327.18 1099.85 321.81 998.93 426.66 990.82 515.04 1098.10 508.60
00018550 00000148 898.08 106.45 365.30 510.75 949.18 326.84 1098.47 322.01 995.30 424.26 986.71 513.63 1093.69 507.44
00018551 00000149 898.98 105.71 364.39 515.34 949.05 325.60 1096.93 321.98 991.38 423.54 983.76 514.08 1090.58 508.87
00018552 00000150 899.26 103.60 362.55 519.21 950.65 324.23 1096.40 323.50 989.99 423.38 982.53 512.59 1087.86 509.85
00018553 00000151 902.27 101.85 361.71 518.62 952.06 322.44 1096.38 324.76 987.44 421.55 980.28 509.56 1084.28 509.46
00018554 00000152 904.88 99.44 361.86 519.60 954.75 319.07 1095.75 325.35 985.48 418.35 977.41 502.96 1081.28 506.27
00018555 00000153 901.79 94.50 362.48 526.12 948.40 310.85 1095.97 316.69 976.05 419.36 974.52 505.88 1083.37 511.43
00018556 00000154 904.49 88.72 357.56 525.91 942.48 304.19 1094.12 312.95 963.87 412.88 963.91 504.69 1072.44 512.77
00018557 DELETE   907.34 90.77 355.12 516.18 948.51 301.67 1083.51 317.49 963.43 400.47 958.18 491.28 1053.32 502.04
00018558 00000156 903.85 86.64 353.69 515.99 944.86 292.37 1073.77 306.88 953.31 389.34 952.65 486.92 1040.12 496.44
00018559 00000157 899.82 86.40 354.56 518.64 940.06 283.49 1069.23 299.01 941.21 382.43 942.85 487.98 1028.08 499.01
00018560 00000158 897.63 83.97 353.41 524.53 937.52 284.85 1064.47 298.38 931.40 380.33 937.25 492.75 1019.09 502.53
00018561 00000159 892.87 84.09 354.74 528.75 933.35 290.94 1060.16 301.21 925.32 384.30 935.67 495.68 1019.64 503.42
00018562 00000160 889.00 83.91 354.27 540.04 928.86 299.76 1056.27 306.56 920.21 391.41 934.43 505.27 1022.35 509.91
00018563 00000161 885.77 85.35 351.56 544.44 919.89 304.36 1047.09 314.36 912.02 405.98 932.25 512.84 1021.84 519.68
00018564 00000162 886.92 91.94 348.11 538.34 918.59 308.46 1037.32 318.32 900.03 415.02 928.74 513.41 1013.31 521.51
00018565 00000163 880.89 90.06 352.63 532.06 907.84 314.62 1023.56 315.69 900.38 416.17 924.30 512.18 1005.77 513.36
00018566 00000164 879.02 91.20 352.66 527.46 905.24 315.96 1018.55 317.74 896.33 415.39 920.41 510.02 999.98 511.67
00018567 00000165 877.42 90.20 353.05 528.24 903.66 315.76 1016.75 318.28 893.98 415.43 917.90 509.19 998.23 511.35
00018568 00000166 876.18 91.04 352.62 527.28 902.86 316.00 1016.12 318.68 893.22 415.47 917.01 508.72 998.06 510.97
