Video ID: 	oLHXGdtSRrs
H: 	1080
W: 	1920
FPS: 	25.0

FRAME INDEX X0 Y0 W H [Landmarks (5 Points)]

00000914 00000000 859.04 135.44 403.62 627.98 920.83 379.39 1097.77 366.20 971.20 476.05 944.96 600.81 1095.74 590.00
00000915 DELETE   857.92 131.97 397.85 628.33 915.50 380.70 1091.16 372.16 962.51 485.44 936.60 603.05 1089.22 595.61
00000916 00000002 851.66 132.79 404.07 642.46 908.60 391.42 1086.99 380.25 957.38 497.99 934.47 616.35 1091.39 605.64
00000917 00000003 848.67 137.10 407.50 658.82 908.41 394.85 1081.40 380.00 952.02 502.73 940.03 628.01 1090.72 613.85
00000918 00000004 850.65 139.55 406.10 657.65 909.96 394.34 1082.24 380.77 953.82 505.99 943.68 631.27 1092.67 618.18
00000919 00000005 851.87 139.87 407.68 640.98 910.21 394.33 1086.03 384.66 957.98 508.12 942.87 627.99 1086.27 618.73
00000920 00000006 851.13 139.77 404.90 636.67 908.63 398.89 1084.95 390.18 957.53 512.47 937.67 629.18 1081.72 620.99
00000921 00000007 847.70 142.46 405.23 638.53 903.74 407.64 1077.32 397.06 951.70 521.32 935.47 637.63 1075.00 627.95
00000922 00000008 846.54 142.66 400.69 638.35 902.23 415.28 1076.09 406.59 952.87 529.22 933.41 643.99 1070.90 636.27
00000923 00000009 846.91 143.46 401.85 633.44 902.87 411.25 1080.35 403.01 953.60 524.91 929.93 638.65 1073.10 630.96
00000924 00000010 850.13 146.66 403.96 627.37 907.44 403.18 1086.48 392.57 958.57 514.55 935.90 631.69 1079.48 622.15
00000925 00000011 854.97 150.59 402.90 616.65 911.66 397.12 1092.04 385.71 962.97 508.68 942.66 624.64 1089.27 614.60
00000926 00000012 854.24 147.30 402.12 616.86 912.59 394.37 1091.23 383.41 963.37 502.65 941.80 621.28 1084.78 611.77
00000927 00000013 848.01 147.54 402.63 622.46 906.11 402.32 1080.50 390.78 957.52 512.74 938.84 631.71 1072.45 621.71
00000928 00000014 845.89 149.44 398.92 630.91 902.20 414.71 1072.36 405.00 952.18 528.79 934.56 644.61 1063.57 636.43
00000929 00000015 841.36 149.17 401.46 636.46 899.44 417.07 1069.77 407.81 948.37 530.61 930.12 649.97 1059.55 642.62
00000930 00000016 843.80 142.01 400.56 637.22 899.78 411.39 1072.12 401.31 951.81 525.61 931.99 643.25 1061.75 634.89
00000931 00000017 847.22 139.55 398.86 634.80 903.13 406.18 1076.30 394.36 955.00 517.18 935.09 637.46 1067.29 627.53
00000932 00000018 845.27 139.72 400.58 633.84 903.52 405.30 1078.32 392.88 958.89 517.05 938.81 637.64 1070.03 627.17
00000933 00000019 846.01 141.17 398.75 636.10 902.89 407.74 1074.33 395.65 955.69 520.92 938.45 640.19 1068.07 629.81
00000934 00000020 845.00 140.32 399.30 642.00 901.43 408.94 1072.39 397.24 953.51 523.31 936.36 643.98 1065.25 634.32
00000935 00000021 842.98 140.58 399.00 638.09 899.02 406.48 1071.25 393.69 952.12 519.54 933.70 641.10 1062.24 630.47
00000936 00000022 842.29 139.63 397.88 632.58 897.08 404.28 1070.80 392.02 950.51 518.29 930.65 635.91 1062.21 625.60
00000937 00000023 840.76 140.46 402.25 628.56 894.79 403.84 1071.52 391.08 948.62 518.58 927.15 633.35 1064.67 622.33
00000938 00000024 839.48 142.93 403.75 628.39 894.73 404.86 1071.14 391.54 949.30 519.51 927.19 634.34 1064.80 622.95
00000939 00000025 836.79 140.40 407.11 636.95 893.24 406.55 1068.68 391.74 947.59 521.15 928.96 639.95 1063.60 627.57
00000940 00000026 834.83 145.24 408.34 636.61 891.81 408.32 1066.51 394.27 946.00 523.07 926.33 641.23 1058.62 629.74
00000941 00000027 833.67 143.33 408.26 638.80 889.74 408.06 1063.74 394.40 942.33 524.54 924.80 641.51 1056.67 630.28
00000942 00000028 833.22 145.20 408.41 637.62 888.42 407.86 1061.01 394.92 938.58 525.16 922.64 640.75 1054.11 629.94
00000943 00000029 834.32 142.72 407.66 635.71 889.88 405.74 1064.67 392.78 941.03 523.67 923.13 638.27 1058.09 627.22
00000944 00000030 842.46 136.65 403.19 636.92 896.29 404.21 1073.06 392.90 949.36 520.42 926.84 635.94 1066.51 626.04
00000945 00000031 846.80 137.02 402.46 635.00 905.70 404.32 1083.31 397.69 959.57 521.91 933.60 633.18 1076.97 626.80
00000946 00000032 853.39 140.77 398.33 633.15 912.83 405.56 1086.08 399.22 963.85 517.48 939.94 630.79 1080.57 624.93
00000947 00000033 852.74 141.66 401.89 639.42 913.12 405.23 1083.36 398.40 961.08 518.06 944.08 633.18 1082.01 626.70
00000948 00000034 852.86 143.45 401.48 639.94 912.34 406.91 1083.81 401.49 961.51 522.59 941.24 632.68 1084.24 626.98
00000949 00000035 853.83 140.69 402.28 639.97 913.89 405.74 1084.49 401.74 962.24 522.84 942.57 630.50 1083.56 625.80
00000950 00000036 857.20 137.23 400.08 636.80 917.48 404.39 1088.63 401.76 965.81 519.54 944.78 626.38 1085.88 623.10
00000951 00000037 861.90 135.38 399.68 630.53 919.46 400.30 1093.44 395.63 968.62 516.15 947.60 621.59 1092.23 616.51
00000952 00000038 865.37 135.49 398.40 627.52 923.03 397.41 1095.99 392.32 971.84 513.35 950.88 618.23 1095.76 612.78
00000953 00000039 866.03 133.87 397.97 636.60 926.47 394.62 1096.08 387.93 972.41 509.80 954.14 618.44 1096.28 611.44
00000954 00000040 866.85 134.98 395.70 642.49 927.38 395.74 1094.87 387.78 970.85 508.68 954.72 620.87 1096.03 612.76
00000955 00000041 866.05 137.62 397.89 642.28 925.54 395.06 1095.49 384.54 970.08 507.63 954.61 622.24 1098.70 611.95
00000956 00000042 864.15 132.60 398.56 651.05 923.01 395.84 1094.19 384.05 967.90 507.11 953.56 623.62 1100.67 612.20
00000957 00000043 861.73 136.92 400.74 650.36 920.10 398.94 1089.48 385.36 964.53 508.96 953.43 626.95 1101.04 613.64
00000958 00000044 858.40 138.68 402.79 653.69 918.23 401.64 1087.23 387.64 963.42 512.77 954.12 630.71 1100.53 617.05
00000959 00000045 858.81 144.71 401.78 644.53 915.05 412.09 1090.74 399.36 964.38 518.37 951.84 629.81 1099.14 618.47
00000960 00000046 858.89 151.01 400.82 642.37 916.26 415.88 1089.05 404.73 965.72 525.60 952.49 633.32 1098.69 623.24
00000961 00000047 857.72 151.34 399.46 642.68 915.65 417.69 1086.68 409.53 963.28 529.96 949.67 634.09 1095.93 626.37
00000962 00000048 858.31 146.53 399.32 645.90 915.99 417.98 1087.63 411.12 964.03 532.36 948.32 635.11 1095.14 628.58
00000963 00000049 861.27 141.73 401.42 652.03 923.24 411.76 1089.23 409.05 965.93 529.86 949.90 632.61 1094.82 628.47
00000964 00000050 865.57 139.08 401.28 648.13 928.26 408.00 1096.05 404.11 972.24 525.68 956.15 630.04 1098.41 625.24
00000965 00000051 871.99 128.99 408.71 652.54 937.61 406.47 1114.33 400.01 989.57 524.55 961.87 628.22 1099.14 622.73
00000966 00000052 874.89 120.87 407.78 648.82 937.95 400.43 1118.38 395.24 990.96 518.01 961.84 625.42 1098.22 621.20
00000967 00000053 878.57 117.94 406.41 647.65 940.10 396.88 1119.77 392.68 988.79 508.98 959.87 620.29 1093.31 616.90
00000968 00000054 877.14 116.71 409.97 645.38 936.87 394.69 1118.98 390.83 987.03 502.52 956.34 615.90 1089.71 613.94
00000969 00000055 870.22 132.78 403.05 628.83 930.05 395.64 1101.72 391.21 974.52 508.36 953.49 616.65 1089.69 612.41
00000970 00000056 861.47 137.37 401.36 632.48 921.44 400.58 1091.29 398.77 965.65 513.27 945.70 624.76 1077.58 623.09
00000971 00000057 859.81 146.87 394.81 630.25 905.13 403.18 1080.52 402.74 955.22 526.53 933.26 632.56 1060.23 633.13
00000972 DELETE   841.95 147.96 405.05 637.05 898.67 413.19 1065.61 407.11 943.48 531.33 924.64 642.99 1055.24 637.33
00000973 00000059 835.23 150.33 411.61 646.41 881.96 418.41 1050.54 415.03 922.53 542.72 911.91 646.65 1040.23 644.29
00000974 00000060 832.85 150.44 412.28 647.81 880.88 423.09 1049.17 417.55 923.33 545.94 916.56 649.89 1044.88 645.54
00000975 00000061 843.97 167.39 402.40 627.36 892.24 416.18 1063.01 411.66 936.22 541.04 926.33 646.10 1057.30 642.70
00000976 00000062 850.96 149.35 398.11 638.21 899.05 409.77 1075.75 400.87 950.06 532.66 931.82 638.89 1072.61 632.23
00000977 00000063 845.61 154.07 404.55 633.01 909.05 406.49 1080.58 401.90 959.08 526.41 935.22 629.75 1083.27 624.27
00000978 00000064 844.31 144.61 404.92 638.24 906.58 405.83 1080.24 401.49 957.69 526.33 934.76 629.06 1084.25 623.78
00000979 00000065 843.01 147.23 400.09 629.51 894.95 407.34 1069.91 400.51 946.25 531.72 926.46 627.73 1069.73 622.30
00000980 00000066 835.23 145.31 404.03 638.34 889.87 418.29 1053.14 407.66 933.91 531.21 923.68 634.31 1064.93 623.90
00000981 00000067 837.22 144.51 404.04 642.66 883.57 417.87 1052.72 409.07 923.88 534.89 917.04 636.33 1055.60 629.17
00000982 00000068 841.43 142.80 400.67 643.59 890.09 415.71 1060.79 407.37 935.45 535.33 923.46 636.29 1063.07 629.57
00000983 00000069 841.60 141.24 402.98 643.44 902.02 423.68 1074.64 416.38 956.01 532.66 933.67 637.59 1081.42 629.80
00000984 00000070 847.05 153.21 402.44 634.66 910.84 422.60 1082.99 415.99 962.98 532.59 941.53 634.44 1089.45 627.59
00000985 00000071 847.55 157.77 403.25 635.58 910.41 420.45 1081.45 413.42 960.80 533.47 944.09 637.02 1092.42 629.84
00000986 00000072 844.98 150.85 396.56 636.44 906.14 418.49 1077.92 413.01 958.29 533.01 934.96 631.87 1086.23 625.29
00000987 00000073 836.82 139.03 400.67 641.86 893.90 417.68 1064.98 408.17 945.27 533.20 926.90 631.30 1078.07 621.42
00000988 00000074 836.29 146.08 403.67 638.51 885.83 414.27 1054.49 409.43 925.75 533.65 915.67 627.47 1059.08 623.40
00000989 00000075 832.86 146.91 408.80 644.22 883.14 416.53 1052.57 407.96 921.96 531.90 915.61 631.18 1060.07 623.99
00000990 00000076 836.49 146.66 404.52 648.91 887.90 416.50 1057.64 407.26 926.75 534.13 919.96 631.86 1068.05 624.15
00000991 00000077 834.63 137.07 407.82 667.24 896.00 413.32 1065.52 401.46 944.61 528.22 929.85 637.99 1082.84 626.18
00000992 DELETE   841.19 138.61 405.78 659.59 906.35 414.05 1080.37 407.45 960.86 532.31 937.64 635.06 1093.08 627.56
00000993 00000079 848.55 145.69 403.53 642.96 914.79 413.92 1094.52 411.45 973.09 530.88 940.93 630.03 1099.30 626.13
00000994 00000080 855.56 142.93 404.29 637.46 925.66 413.77 1102.16 409.36 985.30 527.49 953.17 627.32 1103.92 622.49
00000995 00000081 859.16 138.11 407.41 641.21 936.86 408.87 1113.06 404.96 1000.70 526.68 966.75 622.71 1116.90 617.85
00000996 00000082 864.82 138.23 408.85 637.86 944.50 409.32 1122.50 403.94 1008.84 524.02 973.09 621.30 1123.24 615.14
00000997 00000083 864.68 133.72 409.89 640.72 943.49 409.78 1119.97 403.17 1006.05 523.11 974.77 620.78 1122.48 613.39
00000998 00000084 863.12 140.12 407.18 636.35 940.24 410.77 1113.67 402.81 1000.47 524.35 971.65 622.01 1118.31 613.85
00000999 00000085 861.85 143.07 402.82 631.64 934.71 413.39 1104.88 407.55 992.63 528.32 966.52 621.98 1111.77 615.60
00001000 00000086 857.55 145.92 403.01 630.66 926.78 414.42 1100.83 411.67 983.96 531.26 954.92 623.25 1104.94 619.30
00001001 00000087 857.58 149.25 401.02 632.61 925.87 414.84 1098.28 412.21 981.13 531.22 953.10 624.73 1102.50 620.93
00001002 00000088 855.06 149.10 402.12 640.30 925.41 413.52 1097.74 409.99 980.18 529.22 954.37 628.78 1102.74 624.24
00001003 00000089 854.78 144.88 401.68 637.59 924.54 413.17 1099.37 411.13 981.48 528.49 952.01 626.56 1100.80 623.35
00001004 00000090 855.46 139.08 398.25 638.77 922.58 411.59 1096.64 410.13 977.31 527.28 949.85 626.98 1094.90 624.34
00001005 00000091 851.42 139.53 401.07 636.83 918.88 408.44 1093.64 409.15 973.44 527.61 946.86 629.12 1087.76 628.47
00001006 00000092 849.40 137.19 397.30 641.71 916.46 407.32 1088.27 405.82 971.45 525.09 945.22 631.69 1080.24 629.65
00001007 00000093 847.46 145.38 394.86 632.72 912.35 407.30 1087.54 404.56 967.50 524.28 937.07 627.59 1082.30 624.35
00001008 00000094 842.81 131.14 398.54 641.59 904.76 403.37 1083.64 399.39 961.98 523.85 929.38 627.46 1074.95 623.26
00001009 00000095 839.57 128.38 397.89 643.19 897.41 403.09 1075.50 395.41 952.99 520.18 925.66 626.72 1070.68 619.35
00001010 00000096 835.93 137.89 400.98 633.51 892.38 401.29 1069.40 393.83 944.54 519.66 922.07 628.43 1063.14 621.17
00001011 00000097 833.38 139.04 405.47 644.10 889.80 404.68 1065.79 393.96 941.95 522.20 921.33 635.12 1060.35 625.35
00001012 00000098 833.62 142.44 406.03 647.50 892.06 407.80 1065.28 397.91 943.14 524.18 923.93 639.96 1057.60 631.39
00001013 00000099 835.97 140.09 402.90 650.97 894.60 409.06 1067.95 399.95 946.05 526.91 927.63 646.32 1058.35 638.68
00001014 00000100 836.87 142.27 401.43 646.62 897.74 407.78 1071.65 402.43 950.04 529.69 928.78 646.89 1056.56 642.80
00001015 00000101 847.55 144.24 396.39 644.73 903.77 407.43 1082.64 407.98 958.96 529.08 932.14 641.87 1054.94 643.46
00001016 DELETE   853.53 136.69 405.49 658.66 922.46 400.75 1105.06 403.59 979.30 517.18 949.48 637.47 1069.62 641.03
00001017 DELETE   869.87 153.10 395.45 642.67 943.59 399.92 1120.90 398.56 1002.68 506.46 964.95 631.82 1095.36 631.19
00001018 DELETE   882.39 135.02 395.64 660.93 964.70 390.16 1144.15 385.74 1027.90 496.95 982.24 632.47 1118.05 629.07
00001019 00000105 890.77 137.76 393.71 647.86 976.39 389.55 1158.05 387.15 1040.69 493.90 992.86 623.33 1132.95 621.57
00001020 00000106 884.01 130.04 397.52 651.84 972.49 391.00 1153.86 388.01 1040.01 494.74 990.72 623.07 1128.10 620.67
00001021 00000107 873.13 128.95 404.21 642.29 955.19 393.77 1137.50 387.65 1020.08 498.74 975.18 622.42 1114.89 616.83
00001022 00000108 863.95 133.39 399.01 643.04 937.57 399.79 1111.28 391.35 995.07 502.70 962.21 629.57 1091.60 622.89
00001023 00000109 853.88 132.69 401.97 652.11 926.19 401.77 1093.00 394.32 980.88 509.46 959.55 634.32 1081.03 628.23
00001024 00000110 850.06 139.02 396.71 648.03 915.73 404.98 1081.92 394.30 966.16 510.74 948.93 638.80 1074.20 630.13
00001025 00000111 852.00 149.83 400.46 632.22 919.29 415.60 1087.95 413.07 968.10 522.10 946.44 632.45 1081.70 630.04
00001026 00000112 853.20 147.78 405.75 628.37 928.68 418.54 1099.29 420.88 982.55 527.28 953.54 623.99 1094.88 624.64
00001027 00000113 856.28 139.57 413.12 643.16 941.41 418.17 1115.88 424.70 1002.49 531.85 964.49 623.39 1112.75 627.27
00001028 00000114 871.33 144.33 409.72 651.45 955.35 420.21 1132.37 425.24 1014.76 537.24 976.80 633.98 1125.61 636.36
00001029 00000115 888.47 138.58 407.50 656.75 964.25 415.11 1146.33 425.48 1022.70 543.53 978.27 634.08 1132.57 642.38
00001030 00000116 892.96 134.47 410.99 648.29 978.42 407.41 1160.83 421.40 1044.57 538.02 989.44 621.57 1146.36 631.71
00001031 00000117 898.48 132.26 409.28 653.14 986.30 406.15 1167.60 422.95 1051.85 534.07 993.08 617.61 1150.58 629.89
00001032 00000118 900.81 131.35 410.51 655.48 987.65 405.95 1167.38 422.16 1050.89 533.21 995.74 619.49 1150.42 631.23
00001033 00000119 898.68 136.03 414.31 655.59 984.02 405.42 1161.63 418.74 1044.33 534.90 993.20 620.28 1147.83 629.85
00001034 00000120 888.49 149.95 417.08 651.80 958.41 417.40 1141.96 420.00 1015.91 544.72 976.69 635.18 1139.17 637.62
00001035 DELETE   867.51 165.35 419.68 669.07 941.67 444.77 1115.39 435.42 995.90 559.68 971.00 659.70 1128.62 650.95
00001036 DELETE   834.55 178.92 417.27 686.93 900.43 469.03 1067.88 447.36 953.47 591.96 958.35 703.97 1110.55 682.36
00001037 00000123 820.09 187.29 414.33 674.89 880.64 480.41 1051.66 467.41 930.70 613.06 929.35 699.17 1079.21 686.99
00001038 DELETE   817.47 162.54 412.18 668.75 874.59 472.20 1046.40 462.27 931.46 597.51 919.11 687.05 1063.62 678.86
00001039 DELETE   814.66 163.11 423.22 655.61 875.29 457.00 1048.31 448.93 929.21 589.23 913.76 672.44 1063.31 665.04
00001040 00000126 828.17 163.18 414.79 649.88 885.48 443.66 1058.44 439.27 936.93 577.75 923.21 665.30 1064.79 661.46
00001041 00000127 839.13 158.19 408.12 651.96 894.44 437.53 1067.07 435.79 944.69 573.38 932.69 661.62 1070.31 660.22
00001042 00000128 842.43 149.54 406.90 655.45 895.65 432.12 1067.63 430.90 946.37 567.18 933.12 660.01 1067.97 659.15
00001043 00000129 839.74 145.86 408.01 654.74 892.06 429.52 1062.34 428.10 939.66 562.04 927.01 654.35 1065.65 653.23
00001044 00000130 835.10 147.02 411.00 647.26 888.55 426.55 1060.48 426.45 936.25 558.60 920.36 646.92 1063.14 646.82
00001045 00000131 832.58 146.88 412.33 645.65 886.43 424.84 1059.37 427.23 933.85 557.09 915.10 642.64 1059.46 644.59
00001046 00000132 832.28 142.68 412.81 650.46 885.61 425.34 1058.00 426.36 932.07 554.87 915.44 644.72 1057.86 645.42
00001047 00000133 832.54 139.72 413.67 654.38 885.37 425.40 1057.83 425.86 931.71 555.44 915.42 648.78 1057.24 649.05
00001048 00000134 833.03 141.31 412.62 650.21 884.85 425.40 1058.77 427.79 932.29 557.08 912.26 647.46 1056.10 649.40
00001049 00000135 831.64 141.96 412.81 645.09 883.41 425.21 1058.58 428.48 932.39 556.60 908.37 644.64 1053.03 647.32
00001050 00000136 830.10 144.79 413.98 644.74 882.55 424.28 1058.26 426.55 931.70 556.52 909.28 644.48 1055.24 646.32
00001051 00000137 829.28 148.20 418.06 659.35 884.04 425.82 1056.71 422.95 929.01 554.92 916.82 650.46 1060.65 648.27
00001052 00000138 827.46 154.88 416.87 672.98 883.90 432.70 1058.96 421.17 925.45 555.35 921.40 661.89 1072.21 651.92
00001053 00000139 825.50 153.99 414.49 681.40 883.73 437.77 1057.14 424.66 924.15 557.80 922.19 665.39 1075.12 653.84
00001054 00000140 822.31 154.50 412.59 681.93 881.69 441.42 1053.92 427.33 923.48 563.01 921.69 666.34 1074.50 653.94
00001055 00000141 821.14 156.65 410.89 673.25 880.03 442.59 1051.83 430.92 923.50 564.24 919.55 664.18 1069.41 653.98
00001056 00000142 820.44 149.96 412.70 675.66 879.55 440.70 1051.41 432.28 924.26 561.52 914.42 660.97 1062.27 653.68
00001057 00000143 826.85 150.92 415.07 672.41 883.70 430.56 1055.58 427.35 926.65 556.40 915.23 657.94 1058.93 655.41
00001058 DELETE   843.32 143.29 405.95 665.44 897.78 420.02 1069.41 418.58 940.08 544.68 926.00 649.37 1066.21 648.66
00001059 DELETE   849.10 147.20 403.55 648.67 910.30 413.47 1080.40 412.83 954.51 532.78 932.03 637.83 1080.54 635.88
00001060 00000146 860.87 157.23 397.18 629.22 918.53 411.84 1095.51 412.63 966.84 527.12 940.51 629.41 1086.16 630.08
00001061 00000147 865.50 150.65 399.02 631.69 922.58 411.58 1100.70 411.69 972.51 527.57 947.12 627.17 1092.69 627.31
00001062 00000148 866.07 154.48 396.23 629.25 924.37 413.50 1100.69 414.32 977.11 532.07 949.90 632.21 1092.18 633.39
00001063 00000149 863.77 151.19 396.24 641.97 929.65 417.80 1095.76 417.60 975.09 534.74 955.66 639.62 1089.21 639.28
00001064 00000150 863.28 146.88 399.46 650.58 929.13 424.86 1098.13 424.94 977.02 543.30 957.69 647.82 1091.16 647.89
00001065 00000151 866.34 145.66 396.22 655.01 930.67 431.97 1098.99 431.73 978.84 553.25 962.25 656.71 1091.50 656.50
00001066 00000152 868.28 140.30 399.72 664.16 933.32 436.18 1104.26 434.28 984.60 559.07 967.52 662.93 1097.92 661.10
00001067 00000153 873.32 143.67 408.33 662.90 941.34 437.13 1118.80 435.69 995.87 558.37 965.82 662.22 1099.25 660.65
00001068 00000154 888.55 133.39 397.63 665.26 950.19 435.69 1113.82 436.40 1001.38 551.92 979.00 657.64 1101.46 658.17
00001069 00000155 893.17 131.39 398.81 665.26 957.91 433.36 1119.53 439.19 1005.42 547.34 985.37 655.41 1107.23 659.92
00001070 00000156 902.48 138.38 400.65 650.11 961.98 424.03 1129.89 426.52 1006.07 538.87 987.19 652.35 1111.30 654.17
00001071 00000157 902.35 145.68 403.66 635.84 957.95 414.34 1126.31 416.99 995.24 531.23 978.48 641.65 1103.73 643.54
00001072 00000158 898.52 134.07 401.90 645.57 954.14 412.09 1121.58 411.80 994.83 527.89 975.50 635.61 1098.04 635.25
00001073 00000159 892.22 134.75 404.52 656.02 948.63 408.94 1119.75 410.96 985.94 525.65 965.66 639.43 1091.47 641.63
00001074 00000160 884.45 141.15 412.54 649.75 943.11 408.74 1116.21 408.70 982.87 527.86 964.89 642.54 1089.03 642.84
00001075 00000161 884.75 138.97 412.35 653.21 943.25 407.41 1115.13 405.69 979.89 524.87 965.63 640.39 1090.19 639.12
00001076 00000162 891.68 133.83 407.16 653.45 945.59 403.23 1116.75 402.68 981.49 522.41 968.53 637.03 1089.90 636.98
00001077 00000163 896.48 121.55 403.87 655.59 947.85 398.76 1122.31 400.32 986.95 523.04 969.01 630.68 1094.67 632.49
00001078 00000164 902.37 118.25 404.46 658.04 951.45 398.11 1124.84 398.62 990.11 518.92 971.05 629.84 1098.65 630.96
00001079 00000165 905.49 116.12 402.70 665.58 954.08 398.16 1127.76 397.64 992.04 517.21 973.25 633.09 1098.93 633.67
00001080 00000166 900.26 127.27 405.99 654.81 954.14 404.94 1128.29 398.58 998.88 521.64 980.40 635.26 1106.75 629.98
00001081 00000167 896.84 133.49 406.71 655.01 952.32 408.22 1123.47 400.47 998.15 522.19 979.52 636.58 1107.77 630.24
