Video ID: 	7VUePwc-A4g
H: 	1080
W: 	1920
FPS: 	25.0

FRAME INDEX X0 Y0 W H [Landmarks (5 Points)]

00001827 00000000 851.45 158.31 597.20 744.29 988.29 414.67 1247.29 351.91 1137.99 545.52 1090.59 699.03 1309.56 639.81
00001828 00000001 860.36 165.89 594.40 744.63 990.98 421.85 1251.56 361.66 1136.45 553.51 1089.82 706.23 1313.72 650.05
00001829 00000002 842.95 164.33 601.55 759.61 975.21 430.36 1235.65 372.13 1122.89 573.62 1075.99 716.31 1300.23 662.21
00001830 00000003 818.27 180.14 606.97 758.66 953.70 441.07 1218.67 385.89 1107.32 594.82 1057.46 733.96 1281.62 683.59
00001831 00000004 804.50 208.99 598.08 749.61 933.83 463.98 1198.35 399.82 1089.39 617.92 1046.02 754.43 1262.59 694.52
00001832 DELETE   779.63 203.67 612.11 750.28 912.11 482.86 1174.43 425.91 1073.06 649.06 1029.71 759.92 1243.67 710.30
00001833 DELETE   757.90 260.10 601.06 696.25 890.52 492.47 1162.23 433.53 1052.36 672.68 996.55 768.53 1217.90 714.83
00001834 00000007 736.62 256.71 596.31 698.43 868.33 503.17 1142.41 446.89 1036.56 685.79 980.94 781.14 1199.58 729.98
00001835 00000008 717.46 275.45 604.06 688.26 850.58 515.25 1125.43 459.65 1022.57 698.56 971.14 794.12 1183.48 743.57
00001836 00000009 704.90 274.83 618.81 692.19 839.92 522.49 1115.15 464.17 1012.33 705.78 964.37 796.41 1180.29 743.80
00001837 00000010 700.48 274.77 623.99 698.51 837.09 524.62 1109.50 462.84 1009.10 705.10 963.83 794.87 1181.62 739.06
00001838 00000011 701.59 266.95 621.99 704.83 837.33 522.75 1107.41 455.51 1008.83 695.98 962.95 788.03 1187.52 727.03
00001839 00000012 698.43 258.38 625.01 702.60 837.99 513.52 1109.67 446.05 1010.32 688.33 959.77 773.46 1192.49 711.26
00001840 00000013 697.73 228.22 636.25 729.33 839.01 503.94 1104.28 439.54 1006.17 683.84 964.13 765.94 1192.70 710.08
00001841 00000014 698.61 227.87 625.70 724.40 836.72 497.94 1102.05 425.59 1002.13 666.06 960.50 752.18 1195.85 684.57
00001842 00000015 692.02 212.70 630.33 733.61 833.86 492.11 1093.87 417.88 997.04 655.10 955.35 740.20 1192.01 670.88
00001843 00000016 685.41 202.32 631.28 725.34 825.12 480.09 1083.50 410.95 992.79 654.04 950.38 727.73 1184.54 666.59
00001844 00000017 688.64 225.21 618.53 700.47 819.59 483.77 1082.32 403.16 981.72 649.51 939.43 729.45 1173.82 657.57
00001845 00000018 683.21 220.49 610.68 694.10 815.81 481.12 1078.19 401.59 979.91 645.13 929.48 718.86 1166.02 647.84
00001846 00000019 682.29 204.89 606.66 698.10 817.44 468.17 1071.79 397.84 977.82 639.32 924.46 695.95 1164.27 633.89
00001847 00000020 679.36 199.89 595.77 694.68 815.69 467.56 1063.55 397.14 976.12 635.14 927.87 696.03 1169.43 634.75
00001848 00000021 682.56 194.27 596.61 686.26 815.60 461.56 1068.04 384.69 980.26 621.97 928.50 686.68 1173.84 620.02
00001849 00000022 699.49 175.75 595.72 690.00 829.74 441.08 1077.00 373.49 987.12 604.82 940.41 671.20 1179.05 612.55
00001850 00000023 720.09 178.78 589.44 676.27 850.55 430.25 1088.85 361.92 993.39 577.79 961.08 655.88 1181.81 591.61
00001851 00000024 755.00 188.53 569.22 663.50 870.20 416.85 1102.90 356.12 1000.61 565.95 969.27 642.57 1190.03 585.85
00001852 00000025 772.98 169.52 570.23 674.20 883.10 399.26 1124.84 346.07 1013.44 560.68 980.74 637.77 1201.21 588.35
00001853 00000026 793.32 164.79 559.57 663.89 901.38 395.94 1141.21 344.08 1032.01 555.53 994.15 631.61 1211.67 583.70
00001854 00000027 813.33 159.57 546.33 660.44 914.00 390.14 1151.17 344.85 1042.53 543.18 1001.25 627.05 1219.78 584.71
00001855 00000028 824.11 171.68 531.44 647.73 932.97 385.94 1165.54 342.26 1057.54 527.19 1011.74 614.51 1225.07 571.47
00001856 00000029 829.21 162.81 524.92 651.65 936.46 377.55 1168.92 333.37 1063.37 515.60 1014.86 607.50 1225.92 564.14
00001857 00000030 824.71 139.59 531.89 662.32 938.40 375.70 1166.56 330.89 1064.65 506.05 1007.53 603.22 1230.14 559.85
00001858 00000031 826.92 136.82 514.41 646.82 938.38 373.92 1152.42 322.72 1057.35 488.76 1003.57 593.35 1211.45 547.86
00001859 00000032 820.33 140.51 517.76 638.08 927.84 360.25 1147.67 304.53 1050.86 478.27 995.17 588.88 1200.96 539.90
00001860 00000033 799.37 133.32 518.70 648.65 915.12 349.30 1141.22 301.49 1041.53 467.73 989.96 586.03 1195.99 540.94
00001861 00000034 786.01 117.41 519.31 659.67 901.96 342.31 1130.08 292.32 1031.89 455.43 983.08 587.58 1180.15 541.28
00001862 00000035 775.30 124.72 518.22 650.28 889.79 338.63 1119.31 291.53 1015.10 451.30 975.02 592.18 1159.93 548.59
00001863 00000036 766.85 119.35 509.36 649.71 876.72 348.98 1100.07 300.86 1001.89 450.84 960.14 596.84 1142.63 556.46
00001864 00000037 748.17 108.70 514.84 664.63 864.75 351.01 1084.56 311.20 982.01 453.17 940.10 596.54 1117.43 562.73
00001865 00000038 726.12 120.02 515.69 663.36 838.82 365.74 1059.09 311.01 957.82 451.81 923.88 611.26 1099.27 563.26
00001866 00000039 712.03 147.03 512.91 641.67 819.17 366.70 1035.55 318.49 933.38 464.89 905.72 613.98 1080.22 569.92
00001867 00000040 691.44 147.58 524.63 649.38 800.94 371.68 1016.13 324.63 912.53 472.27 886.32 617.65 1057.36 574.01
00001868 00000041 681.44 149.65 519.29 651.73 784.79 379.50 1001.03 331.06 894.85 479.49 867.78 626.54 1041.42 582.05
00001869 00000042 680.63 159.45 508.11 635.75 777.37 389.19 991.56 331.93 882.84 484.46 867.06 631.28 1039.72 579.79
00001870 00000043 683.23 164.80 504.99 629.25 775.70 393.75 989.80 335.84 880.67 488.28 866.81 633.57 1040.15 581.40
00001871 00000044 687.41 169.00 505.83 627.57 777.92 401.11 995.66 344.37 885.76 491.46 860.93 635.50 1041.04 584.77
00001872 00000045 691.51 174.51 503.05 621.48 781.88 402.39 998.04 346.34 891.09 492.94 867.44 635.20 1045.60 585.05
00001873 00000046 698.54 175.73 504.96 621.04 790.36 401.23 1001.97 347.28 897.17 494.45 877.13 633.75 1051.46 585.78
00001874 00000047 710.45 180.86 503.62 613.93 797.25 401.17 1007.72 345.47 903.21 496.91 888.90 633.82 1061.92 584.61
00001875 00000048 718.27 178.88 502.40 615.73 805.59 401.41 1016.29 344.48 911.60 495.00 898.55 633.47 1072.51 583.08
00001876 00000049 726.15 178.14 494.92 611.96 811.69 400.61 1020.23 343.80 913.70 493.25 901.99 630.90 1075.15 580.40
00001877 00000050 729.60 179.90 489.77 609.19 813.01 401.78 1020.90 343.12 914.25 493.51 903.22 631.48 1076.72 579.48
00001878 00000051 730.09 179.95 488.95 608.02 813.52 401.41 1020.14 343.63 914.21 494.46 903.50 630.54 1075.65 579.27
00001879 00000052 729.69 179.68 487.71 606.51 814.05 400.33 1019.31 345.27 913.92 494.44 902.30 628.45 1073.33 579.44
00001880 00000053 730.05 173.18 482.10 609.14 812.30 399.13 1014.45 345.24 910.81 494.90 897.94 626.64 1067.18 578.89
00001881 00000054 729.30 174.65 477.98 605.63 810.12 396.65 1009.74 345.26 906.38 493.34 893.10 624.28 1060.52 578.36
00001882 00000055 728.29 170.85 472.78 609.78 807.63 395.73 1003.17 345.11 902.88 491.59 888.58 623.16 1054.20 577.86
00001883 00000056 727.08 170.30 473.00 608.81 806.14 395.75 1001.10 344.31 900.21 491.02 887.05 621.56 1053.32 575.32
00001884 00000057 728.21 169.58 473.01 609.46 808.49 394.81 1003.60 344.31 903.39 489.61 888.32 619.61 1056.41 574.09
00001885 00000058 730.84 171.30 475.75 606.07 811.71 397.33 1009.32 344.72 906.93 488.58 891.71 619.13 1063.09 571.87
00001886 00000059 735.00 175.48 475.06 597.36 815.80 396.76 1014.67 344.52 911.21 487.16 895.68 616.71 1067.72 569.70
00001887 00000060 739.37 178.53 474.06 592.38 821.02 398.21 1021.61 345.18 920.15 489.10 902.36 616.50 1074.80 568.91
00001888 00000061 742.34 176.91 477.34 598.55 826.64 398.87 1026.07 346.09 927.50 493.14 909.20 618.78 1080.07 571.66
00001889 00000062 747.18 184.66 477.64 594.87 834.20 399.15 1032.11 348.36 932.69 497.54 914.80 619.59 1086.41 573.94
00001890 00000063 749.31 186.74 481.42 595.24 837.47 401.45 1035.92 349.60 936.17 497.38 917.92 621.35 1091.67 574.77
00001891 00000064 753.86 179.70 477.74 600.83 843.51 402.86 1041.08 349.64 944.50 495.49 923.71 622.63 1095.73 575.17
00001892 00000065 761.75 181.15 474.83 597.34 850.39 399.22 1051.32 347.31 951.41 490.53 928.58 620.33 1101.84 573.63
00001893 00000066 765.51 186.33 470.46 594.18 857.49 405.75 1057.26 351.00 957.49 495.24 932.77 621.06 1100.07 571.56
00001894 00000067 766.93 189.39 470.05 591.69 857.71 407.80 1057.51 351.25 956.87 496.03 933.48 622.53 1101.52 571.84
00001895 00000068 766.06 192.50 471.02 590.02 855.04 411.69 1052.51 355.18 953.08 498.89 932.03 624.74 1098.89 574.18
00001896 00000069 761.72 205.72 472.00 579.11 844.88 416.09 1040.20 360.72 935.94 503.43 923.71 627.14 1088.72 577.98
00001897 00000070 763.29 211.60 466.12 568.98 835.75 421.96 1030.10 368.01 920.20 505.71 911.21 632.45 1074.38 584.44
00001898 00000071 758.12 205.41 467.03 570.72 823.32 421.93 1015.02 371.44 896.32 511.74 894.60 635.49 1057.96 591.05
00001899 00000072 756.77 202.71 464.68 575.73 818.63 421.29 1004.55 373.38 882.37 511.58 887.27 637.18 1047.03 594.81
00001900 00000073 763.63 208.89 454.43 571.99 822.98 424.83 1012.51 381.43 888.64 514.37 889.57 638.86 1049.50 599.41
00001901 00000074 769.77 224.68 461.90 562.93 836.87 423.32 1030.60 380.02 910.70 513.00 904.32 639.58 1066.19 600.79
00001902 DELETE   780.09 215.76 469.32 574.32 854.91 430.26 1053.58 388.84 941.68 514.05 916.18 636.23 1081.97 601.05
00001903 DELETE   786.40 204.96 465.97 591.66 874.94 423.20 1071.51 386.85 962.74 514.01 931.21 638.40 1100.79 606.71
00001904 00000077 792.28 205.53 466.22 593.20 884.11 424.86 1085.76 388.25 981.77 516.98 944.86 641.86 1119.04 610.40
00001905 00000078 793.47 204.49 467.97 601.34 887.48 434.88 1085.97 396.11 986.33 524.38 949.74 649.51 1124.31 616.57
00001906 00000079 791.31 211.93 469.36 605.75 882.55 441.62 1075.54 403.46 974.12 536.07 944.46 658.93 1113.00 627.19
00001907 DELETE   782.31 212.12 471.86 607.70 864.00 460.98 1056.19 417.72 948.38 543.94 927.46 667.81 1085.96 631.36
00001908 DELETE   773.67 232.26 466.95 584.89 847.71 465.09 1034.36 425.20 919.49 557.81 915.42 678.50 1062.18 644.29
00001909 DELETE   773.48 232.77 451.77 581.08 828.93 465.19 1009.54 428.71 885.67 559.33 897.65 684.29 1047.50 651.94
00001910 00000083 765.31 234.37 456.39 591.52 820.39 466.46 995.56 433.41 867.31 564.81 888.40 688.92 1032.81 658.54
00001911 DELETE   770.73 231.31 453.46 596.52 822.87 463.34 998.07 432.54 867.61 564.55 888.41 688.71 1033.56 660.31
00001912 00000085 774.75 230.47 463.44 593.17 838.96 466.41 1024.53 434.97 896.42 565.81 900.01 688.57 1042.78 660.93
00001913 00000086 782.40 243.51 466.45 578.91 858.50 467.01 1042.53 437.49 927.81 569.37 921.21 684.48 1062.88 659.26
00001914 DELETE   797.56 245.46 469.56 576.21 875.56 465.84 1064.09 432.13 954.12 567.94 945.30 685.99 1087.27 657.44
00001915 00000088 800.54 242.07 475.31 578.41 881.61 459.54 1089.04 420.40 976.22 559.56 954.64 682.45 1117.66 647.92
00001916 00000089 800.97 231.92 478.93 595.75 884.05 451.25 1088.53 409.58 978.78 552.51 959.46 679.30 1123.94 642.00
00001917 DELETE   797.79 220.97 475.68 607.57 880.13 445.43 1079.09 405.79 969.76 544.79 952.04 676.77 1112.24 640.88
00001918 00000091 795.34 206.98 478.18 615.89 874.46 439.64 1058.21 398.91 950.70 538.21 946.35 667.83 1090.68 633.22
00001919 00000092 787.78 214.23 480.88 605.01 863.09 433.94 1050.02 390.62 938.05 533.72 939.23 667.62 1079.34 631.41
00001920 00000093 782.56 199.63 481.14 619.52 857.21 432.12 1044.92 387.19 932.22 530.77 933.92 666.93 1072.58 629.64
00001921 00000094 781.65 194.37 481.76 624.27 855.62 428.41 1042.84 380.24 930.23 526.47 934.84 665.39 1075.14 625.45
00001922 00000095 784.73 201.67 480.53 616.64 856.93 425.75 1045.76 373.38 932.19 521.36 939.75 669.69 1079.30 625.96
00001923 00000096 787.77 210.05 481.49 607.87 860.88 424.97 1052.01 372.13 939.59 520.14 946.54 671.37 1084.75 627.00
00001924 00000097 790.65 220.13 483.32 594.39 865.89 425.81 1059.94 375.26 952.30 521.22 952.36 667.84 1093.96 624.77
00001925 00000098 784.88 219.80 492.70 593.23 867.73 424.19 1074.14 378.83 961.17 534.41 951.46 663.91 1112.91 625.81
00001926 00000099 787.37 219.92 495.27 586.53 872.96 421.51 1081.50 375.98 971.46 534.26 959.92 656.87 1125.11 617.98
00001927 00000100 790.81 204.03 492.76 593.29 874.17 417.59 1086.85 368.04 977.65 522.45 963.07 650.93 1130.44 608.23
00001928 00000101 789.78 198.97 492.28 593.26 873.65 409.67 1086.06 361.80 977.60 513.33 963.62 643.67 1127.55 601.91
00001929 00000102 788.87 194.61 492.88 592.26 872.76 407.01 1085.22 358.91 977.20 510.27 962.34 638.97 1126.77 596.82
00001930 00000103 788.68 185.62 490.68 598.00 872.39 403.23 1081.44 356.16 974.55 506.94 959.39 634.58 1121.21 593.54
00001931 00000104 789.16 182.99 491.70 603.07 870.52 403.43 1082.27 353.21 972.63 502.80 956.08 636.64 1119.23 593.06
00001932 00000105 791.06 176.85 494.78 611.53 873.70 402.78 1085.34 351.98 976.57 502.11 955.46 631.18 1127.65 587.15
00001933 00000106 793.49 171.71 495.39 621.91 877.36 400.32 1087.70 348.54 979.18 496.68 958.78 631.87 1131.80 586.94
00001934 00000107 798.23 172.05 490.51 629.04 882.03 399.46 1092.51 347.17 980.82 492.12 961.91 637.26 1133.64 591.89
00001935 00000108 804.16 169.25 490.23 627.71 885.66 397.75 1097.70 345.47 982.37 488.57 963.36 633.57 1138.76 587.97
00001936 00000109 814.48 167.02 481.87 623.43 889.31 395.70 1101.70 342.57 983.11 482.27 961.42 628.94 1143.13 582.14
00001937 00000110 820.14 168.49 479.68 618.44 894.28 392.26 1105.86 340.62 985.69 478.04 965.25 625.24 1143.88 579.91
00001938 00000111 826.84 169.41 475.47 614.24 902.83 387.54 1107.69 340.31 988.36 475.47 971.02 621.34 1138.48 579.64
00001939 00000112 833.28 170.65 475.03 611.34 910.30 383.23 1114.08 336.38 992.74 473.33 980.63 619.22 1143.98 577.18
00001940 00000113 846.38 168.41 469.45 609.69 921.14 386.76 1121.70 336.31 1001.40 474.90 991.46 619.31 1156.07 574.33
00001941 00000114 860.04 164.76 477.95 615.77 934.37 387.65 1134.35 343.76 1020.59 481.10 1007.67 624.04 1165.16 586.79
00001942 00000115 874.37 169.78 480.72 613.60 942.79 384.90 1155.32 337.12 1028.41 480.85 1010.99 628.71 1184.48 586.24
00001943 00000116 888.47 167.42 474.37 620.39 954.24 387.82 1164.89 343.96 1035.81 481.64 1019.57 629.36 1190.71 591.02
00001944 00000117 894.49 157.63 476.84 631.98 964.33 397.39 1169.81 349.57 1037.11 477.41 1027.97 631.24 1194.44 589.73
00001945 00000118 906.99 155.25 474.78 633.62 970.84 396.67 1173.63 350.47 1031.20 475.23 1027.86 632.07 1192.46 591.58
00001946 00000119 915.80 143.13 476.88 642.61 977.93 402.20 1168.91 361.48 1032.24 488.52 1030.56 634.62 1183.60 600.82
00001947 00000120 926.15 151.71 475.73 633.25 980.36 404.03 1169.18 368.04 1030.28 496.97 1030.66 634.66 1183.41 604.78
00001948 00000121 938.46 186.11 474.37 601.42 985.60 404.69 1174.77 375.54 1032.85 504.42 1032.15 635.81 1185.47 611.72
00001949 00000122 950.71 199.98 475.96 600.03 996.50 415.94 1182.17 386.33 1039.42 514.38 1039.67 643.25 1190.14 618.99
00001950 00000123 961.72 196.80 474.76 606.97 1008.06 422.04 1190.98 393.15 1045.17 522.41 1049.39 648.20 1200.25 624.43
00001951 00000124 964.18 197.53 471.23 607.09 1010.78 424.10 1192.27 398.75 1044.09 527.75 1047.35 652.41 1196.85 631.70
00001952 00000125 955.04 221.67 472.28 588.11 999.92 423.21 1187.91 401.09 1039.96 531.16 1039.43 657.11 1191.74 638.93
00001953 00000126 942.93 214.08 461.66 607.05 987.87 423.65 1172.83 398.48 1026.53 529.54 1029.82 670.50 1170.99 650.43
00001954 00000127 922.70 209.25 465.27 616.73 969.80 415.27 1158.25 392.56 1010.02 528.81 1016.88 669.55 1161.63 650.71
00001955 00000128 918.70 217.88 472.42 606.10 958.40 404.59 1140.66 380.56 990.05 517.44 1001.94 653.69 1147.65 633.25
00001956 DELETE   900.90 189.68 468.30 616.57 943.44 390.10 1127.39 374.43 975.75 507.94 981.20 634.96 1132.93 621.89
00001957 00000130 882.87 165.98 466.03 618.30 934.88 378.90 1113.84 363.43 970.41 490.66 973.85 619.29 1120.77 606.23
00001958 DELETE   871.30 143.24 459.12 623.11 925.23 372.19 1106.68 357.26 962.29 478.69 961.07 606.11 1109.15 593.63
00001959 00000132 860.18 139.88 452.63 607.88 911.69 356.21 1097.22 340.06 953.88 466.72 945.30 586.65 1097.62 572.89
00001960 00000133 849.70 139.82 457.17 596.69 898.84 336.64 1084.30 323.45 938.94 449.49 930.62 568.43 1078.60 556.84
00001961 00000134 837.90 142.35 460.21 599.93 885.04 327.10 1071.68 311.86 921.15 435.36 916.06 566.55 1066.22 553.77
00001962 00000135 823.42 139.61 457.02 599.80 871.45 327.51 1062.13 311.59 916.39 436.96 904.22 565.32 1062.51 552.53
00001963 00000136 806.28 133.68 455.27 608.67 860.26 337.03 1053.10 318.08 909.34 442.17 893.32 573.38 1051.01 558.28
00001964 DELETE   794.62 145.48 452.93 599.96 852.42 348.68 1044.97 328.51 900.73 446.06 882.71 578.76 1039.21 562.13
00001965 DELETE   783.18 152.93 443.00 590.28 836.24 355.63 1030.18 336.51 883.60 446.34 860.39 575.93 1028.20 559.10
00001966 DELETE   771.42 143.50 442.07 605.57 824.82 349.09 1016.79 330.37 869.83 441.91 849.15 578.74 1008.53 562.38
00001967 00000140 765.30 146.75 446.75 593.29 811.57 345.28 996.98 324.08 850.30 438.34 842.24 578.03 985.41 560.69
00001968 00000141 753.51 133.88 447.98 582.83 797.18 343.53 988.29 322.15 841.78 436.03 825.54 569.55 973.22 552.67
00001969 00000142 743.80 130.05 448.09 572.92 795.02 327.57 984.90 314.13 840.61 426.30 818.39 553.95 962.35 543.65
00001970 00000143 740.40 126.41 448.20 586.16 796.74 321.44 982.42 310.06 836.48 416.45 816.11 551.84 954.04 543.24
00001971 00000144 732.24 122.09 453.41 604.18 795.03 324.69 985.73 307.72 840.18 415.83 821.78 560.18 960.25 546.58
00001972 00000145 727.00 117.94 456.21 612.55 790.05 331.01 991.00 312.77 846.60 423.31 817.80 565.31 970.84 550.65
00001973 00000146 720.21 123.72 459.51 607.93 787.45 341.52 992.90 320.20 850.57 432.10 818.02 571.04 976.48 553.82
00001974 00000147 710.71 133.53 462.62 600.23 781.77 354.47 989.06 327.00 853.21 443.63 818.95 579.99 978.99 557.53
00001975 00000148 701.92 146.84 462.30 594.07 774.94 360.36 978.65 333.89 847.22 454.08 814.95 584.43 973.15 562.58
00001976 DELETE   691.92 164.74 462.55 590.13 761.41 366.20 962.41 339.55 832.81 458.58 810.26 596.21 967.75 572.63
00001977 DELETE   682.38 150.21 465.78 626.60 749.04 382.35 955.24 353.19 816.38 474.05 795.14 620.57 957.48 595.06
00001978 00000151 674.72 176.63 468.12 615.40 740.72 396.60 940.93 369.82 801.98 499.12 785.05 632.73 945.77 609.86
00001979 00000152 673.30 191.36 477.02 617.52 731.20 418.09 924.04 391.20 782.42 514.83 775.10 648.02 923.04 626.25
00001980 00000153 674.58 201.64 466.38 618.82 729.51 422.31 912.78 396.96 773.40 526.86 776.02 662.08 913.59 641.44
00001981 00000154 675.14 207.04 464.88 612.01 730.67 421.87 909.93 403.28 771.34 541.09 775.34 665.36 910.90 650.20
00001982 00000155 683.24 219.55 466.38 595.24 730.88 421.39 914.11 406.02 772.20 547.28 778.59 661.22 920.26 648.05
00001983 00000156 691.17 211.15 469.24 604.77 740.52 417.69 924.92 403.78 781.71 547.20 785.56 656.17 931.62 643.69
00001984 00000157 694.97 206.76 463.15 609.23 752.49 417.79 940.46 402.41 799.57 539.85 799.80 658.15 941.65 645.00
00001985 00000158 710.13 199.17 465.93 616.93 765.70 418.75 948.89 398.27 808.06 530.33 813.02 658.77 946.20 642.15
00001986 00000159 726.03 207.34 463.60 599.69 776.88 405.88 963.14 388.22 818.64 520.28 822.55 649.30 950.00 634.73
00001987 00000160 741.25 186.58 463.44 607.24 793.21 390.12 973.35 374.36 828.52 502.63 831.51 633.89 959.48 621.33
00001988 00000161 759.94 158.39 454.58 621.67 811.12 384.13 984.63 364.52 839.56 484.93 846.89 624.97 968.78 609.23
00001989 00000162 775.91 166.12 451.70 603.48 823.11 382.19 1000.55 360.67 856.55 476.87 857.77 620.02 984.32 602.18
00001990 00000163 780.65 158.91 451.97 609.81 836.94 377.81 1016.03 364.08 868.91 485.49 870.67 617.20 998.48 606.20
00001991 00000164 790.16 157.97 450.13 603.58 846.27 376.40 1023.71 365.13 878.79 486.48 878.14 614.10 1007.04 605.14
00001992 00000165 799.65 172.10 451.10 588.72 853.27 376.35 1034.25 366.07 889.13 487.86 883.55 613.71 1016.18 605.61
00001993 00000166 807.28 167.60 448.55 590.78 861.61 381.02 1038.87 370.71 897.37 489.62 889.24 614.85 1020.10 607.12
00001994 00000167 811.40 166.89 450.02 594.86 866.61 382.17 1041.99 371.49 900.73 489.82 894.91 616.84 1023.44 609.11
