Video ID: 	xaOZErDxB-8
H: 	1080
W: 	1920
FPS: 	25.0

FRAME INDEX X0 Y0 W H [Landmarks (5 Points)]

00018565 00000000 730.48 137.44 369.71 552.19 802.00 401.26 946.68 408.18 855.24 510.71 839.64 582.56 943.00 588.28
00018566 DELETE   732.08 128.56 366.50 553.84 801.35 395.15 943.51 397.69 854.83 500.15 839.72 575.98 941.92 578.21
00018567 00000002 730.79 121.91 368.28 557.79 802.22 391.24 943.57 393.09 855.15 495.01 840.84 572.06 943.28 573.58
00018568 00000003 727.73 119.32 370.58 557.50 799.51 387.70 941.00 388.29 853.92 491.22 839.80 567.36 944.21 567.47
00018569 00000004 726.71 114.82 371.26 559.36 795.53 384.77 939.02 382.83 850.16 488.73 838.48 565.29 945.47 563.07
00018570 00000005 726.37 116.91 370.37 556.24 793.64 381.79 936.94 379.81 847.64 487.51 837.17 561.63 946.05 559.32
00018571 00000006 723.52 119.93 371.63 552.38 790.96 383.28 934.11 380.88 845.75 489.63 836.48 562.94 943.45 560.16
00018572 00000007 722.21 116.09 373.59 556.61 789.01 384.63 934.01 380.72 846.09 492.05 838.90 565.13 946.99 560.92
00018573 00000008 720.09 115.48 375.12 557.34 787.64 386.54 932.55 380.60 846.67 492.84 840.27 565.65 948.93 559.65
00018574 00000009 716.37 111.32 377.97 562.48 785.56 387.53 929.85 380.37 845.90 493.72 841.08 566.63 948.82 559.48
00018575 00000010 713.58 118.20 380.06 557.28 784.74 390.14 928.28 382.29 846.01 495.07 841.44 566.74 948.13 558.88
00018576 DELETE   712.42 124.37 380.88 553.57 782.74 395.10 929.21 385.54 846.40 498.01 843.54 569.03 953.17 559.58
00018577 00000012 710.17 116.94 381.64 562.87 781.30 399.25 926.16 391.32 845.27 503.27 843.82 573.37 951.02 564.89
00018578 00000013 709.20 124.98 381.33 557.31 783.27 402.19 927.19 398.89 846.72 508.55 843.86 576.79 948.85 572.15
00018579 DELETE   711.63 133.64 380.36 553.05 784.25 407.57 927.63 404.55 847.25 518.48 847.43 583.84 950.90 579.18
00018580 DELETE   716.41 133.63 378.39 558.05 784.71 413.58 931.80 410.61 847.73 527.40 849.38 590.58 955.63 586.07
00018581 00000016 717.85 139.67 375.48 550.50 786.02 420.35 933.70 415.24 850.23 528.74 850.27 589.57 959.29 583.19
00018582 00000017 720.52 139.86 375.56 555.56 787.36 422.13 936.70 417.87 850.35 531.16 848.60 588.97 964.89 583.20
00018583 00000018 722.59 141.10 375.04 555.54 788.86 422.99 939.43 420.03 851.18 533.76 849.35 590.43 966.86 585.80
00018584 00000019 725.07 143.67 372.31 550.21 792.21 423.63 942.18 421.04 853.72 533.16 852.71 590.17 967.87 585.84
00018585 00000020 729.42 147.26 369.48 546.50 794.79 423.13 944.31 421.34 855.44 532.61 852.81 589.65 968.45 586.11
00018586 00000021 730.03 148.93 369.60 545.73 795.41 422.95 944.56 421.53 855.51 531.98 852.08 589.63 967.61 586.51
00018587 00000022 730.12 151.03 368.38 541.64 796.62 424.48 944.98 424.04 856.93 531.56 853.42 588.33 968.07 585.79
00018588 00000023 729.20 152.21 368.99 538.49 797.60 425.23 946.58 425.67 857.90 529.36 851.46 586.19 966.37 584.44
00018589 00000024 727.57 150.69 370.51 539.71 796.13 421.65 946.10 423.91 856.51 528.39 849.14 584.54 964.27 584.31
00018590 00000025 728.91 150.57 369.05 539.14 796.13 419.56 946.20 422.43 855.99 526.90 848.40 583.06 964.57 583.24
00018591 00000026 732.20 145.40 366.30 544.25 798.65 419.82 945.60 421.26 856.12 525.29 851.36 583.93 964.63 583.27
00018592 00000027 733.34 143.58 365.41 548.20 797.57 417.75 943.84 418.52 854.73 525.64 851.59 585.19 964.17 584.07
00018593 00000028 732.98 143.03 365.25 549.14 796.40 416.35 943.29 416.45 854.02 525.46 850.68 584.93 964.46 583.27
00018594 00000029 733.96 141.22 365.16 548.58 799.48 414.64 945.47 414.97 856.63 523.22 852.35 583.36 964.95 582.03
00018595 00000030 734.93 141.39 364.31 546.88 800.46 413.67 946.43 414.89 856.69 521.80 851.64 581.73 964.49 581.24
00018596 00000031 735.55 140.43 364.13 548.23 800.51 413.57 946.57 415.19 856.40 521.68 851.72 581.43 965.10 581.30
00018597 00000032 736.59 143.01 365.69 548.38 801.79 415.01 948.38 416.55 858.19 523.26 853.02 583.04 966.66 582.96
00018598 DELETE   733.82 147.51 368.80 542.60 803.49 416.75 950.68 419.74 860.70 522.97 853.02 583.16 965.48 584.35
00018599 00000034 731.82 144.26 371.17 543.40 805.67 417.38 951.21 420.73 863.27 523.36 854.42 585.35 961.19 587.01
00018600 00000035 732.70 143.03 369.12 544.60 804.30 415.32 951.90 418.67 862.73 523.11 853.55 585.07 962.53 586.70
00018601 00000036 732.70 141.41 367.53 547.56 802.56 414.09 948.12 416.87 859.60 522.71 853.22 584.86 961.36 585.91
00018602 00000037 732.88 140.05 366.32 548.18 801.36 410.48 946.64 414.40 857.45 520.35 850.67 583.31 958.41 585.43
00018603 00000038 732.92 132.44 365.73 552.74 801.11 409.13 944.98 412.55 855.38 517.64 849.08 582.01 955.31 583.70
00018604 00000039 731.97 131.27 366.26 552.47 799.53 404.89 942.98 408.92 854.36 513.91 846.22 580.66 950.35 582.91
00018605 00000040 731.83 134.47 365.29 550.14 798.81 406.90 941.68 409.60 853.92 514.71 846.37 581.81 950.08 582.86
00018606 00000041 732.18 136.40 365.23 549.78 799.45 410.74 941.84 412.08 855.02 519.05 850.63 585.51 953.27 585.45
00018607 00000042 732.32 137.72 366.33 551.87 799.38 411.88 943.89 413.82 855.30 523.10 851.37 588.66 955.60 589.27
00018608 00000043 730.58 135.70 367.12 553.19 797.77 411.10 942.86 413.14 854.04 522.02 849.72 587.11 955.37 587.55
00018609 00000044 729.75 132.48 367.68 551.88 797.18 409.20 942.29 411.82 852.95 516.43 846.61 580.44 954.77 581.11
00018610 00000045 728.10 137.14 366.99 546.89 794.12 404.02 940.84 407.80 849.58 511.43 838.13 573.75 951.64 575.56
00018611 00000046 730.70 128.28 364.66 547.09 793.30 397.87 938.88 401.67 846.39 504.43 833.37 565.99 948.11 568.05
00018612 00000047 730.14 120.72 364.22 552.93 794.23 396.55 937.63 399.24 846.08 496.28 831.78 560.23 947.67 561.43
00018613 00000048 727.30 130.07 363.61 548.74 790.56 394.10 934.21 398.95 840.90 496.51 827.38 558.99 945.32 562.06
00018614 DELETE   726.64 127.23 361.84 556.20 788.61 394.97 930.36 402.37 837.55 498.01 825.66 569.25 932.97 574.58
00018615 00000050 724.69 132.23 362.56 555.24 783.77 396.52 926.88 407.64 833.20 510.10 819.68 579.20 923.05 587.73
00018616 00000051 716.10 133.16 369.14 564.40 776.47 402.00 921.77 413.51 827.44 519.63 816.43 590.03 918.39 598.77
00018617 00000052 711.62 152.48 368.77 553.76 771.49 410.92 918.76 421.40 824.93 525.83 812.02 597.21 911.92 605.24
00018618 00000053 710.56 158.50 367.84 549.58 767.28 416.22 916.16 426.10 822.25 530.79 810.99 601.88 910.88 609.19
00018619 00000054 698.90 148.63 372.15 561.53 754.84 407.63 912.42 418.52 811.45 539.57 785.34 596.69 915.46 604.59
00018620 00000055 698.60 150.94 372.18 557.65 753.88 402.78 913.42 414.14 809.04 535.50 781.12 588.82 919.54 597.24
00018621 00000056 698.80 151.88 372.05 556.16 755.09 401.78 913.59 409.90 812.43 533.74 785.14 588.14 920.59 593.96
00018622 00000057 700.63 143.87 379.62 568.34 762.33 406.93 919.54 416.77 813.74 535.19 794.50 590.30 928.76 596.45
00018623 00000058 715.96 151.62 367.38 565.89 776.52 429.81 922.45 436.60 828.35 534.94 818.90 603.01 925.36 607.42
00018624 00000059 721.14 153.97 365.50 568.44 779.96 434.83 925.47 441.01 832.41 544.52 819.25 608.93 924.92 613.53
00018625 00000060 723.38 153.83 367.27 571.10 780.85 434.14 930.38 439.01 834.62 546.72 820.47 609.97 930.98 613.52
00018626 00000061 725.04 154.87 366.44 567.07 782.38 426.99 931.87 431.86 835.52 542.32 823.27 608.60 932.47 612.03
00018627 DELETE   727.22 145.56 365.20 568.74 783.76 418.29 934.28 425.91 835.59 534.10 824.79 603.06 934.26 608.52
00018628 00000063 726.66 138.46 365.16 569.91 785.22 411.27 935.58 421.47 836.05 528.39 824.88 597.83 934.90 605.41
00018629 00000064 728.69 141.97 365.64 564.83 788.57 412.10 939.67 422.02 839.70 529.27 825.65 595.70 937.81 603.24
00018630 00000065 731.37 144.78 367.11 560.94 792.52 414.29 945.28 423.11 844.45 531.37 829.27 596.92 942.14 603.60
00018631 00000066 732.90 144.41 365.28 559.16 796.70 414.93 948.78 424.10 849.21 529.75 832.28 594.54 945.34 601.51
00018632 00000067 730.89 137.96 369.45 563.06 796.19 410.18 948.76 418.25 848.95 525.82 834.45 589.47 950.33 595.37
00018633 00000068 728.86 138.23 369.29 555.54 796.18 405.79 946.58 414.76 850.16 518.32 836.12 580.78 950.95 587.31
00018634 00000069 730.30 137.18 365.48 549.67 797.71 402.22 943.39 409.83 850.25 508.96 833.91 572.68 946.82 578.25
00018635 00000070 729.89 128.81 369.31 554.09 796.28 394.18 944.23 399.61 849.43 502.23 833.32 567.52 949.00 571.41
00018636 00000071 727.10 121.03 370.94 559.21 793.02 390.98 943.88 395.77 847.76 500.65 831.47 565.85 949.49 568.97
00018637 00000072 727.06 119.91 369.93 560.19 792.87 391.61 944.38 396.93 848.01 501.66 830.31 566.11 949.29 569.47
00018638 00000073 726.76 118.96 369.49 558.67 792.29 391.11 944.38 396.05 848.10 500.34 829.91 564.75 949.09 567.75
00018639 00000074 725.98 121.10 369.97 556.62 790.79 389.27 942.42 392.50 846.20 496.99 829.11 562.60 948.68 564.45
00018640 00000075 728.07 120.20 367.72 557.60 791.48 384.86 941.34 387.52 844.18 492.31 829.69 559.93 949.44 561.17
00018641 00000076 726.31 117.27 371.02 554.48 791.53 379.03 943.73 381.05 845.81 487.56 827.96 555.90 948.36 556.74
00018642 00000077 725.21 115.65 370.82 552.02 791.22 374.62 944.40 378.07 845.98 484.94 822.81 551.64 944.66 553.92
00018643 00000078 725.66 115.83 370.61 552.51 791.27 376.01 943.39 379.34 845.61 486.26 824.49 554.14 944.04 556.20
00018644 00000079 725.74 120.15 370.60 552.03 791.47 379.43 941.63 381.69 845.11 487.90 827.80 556.62 945.55 557.73
00018645 00000080 724.58 120.45 371.30 551.13 789.40 380.94 941.76 382.70 844.51 489.77 827.56 556.79 948.21 557.29
00018646 00000081 724.83 117.08 371.72 553.60 789.36 377.67 942.81 380.06 844.73 488.11 825.66 553.49 949.99 554.57
00018647 00000082 725.20 115.41 370.61 551.79 790.31 374.19 942.64 377.74 845.18 486.50 824.40 552.35 945.30 554.64
00018648 00000083 725.66 113.66 370.39 553.94 790.76 373.81 942.80 377.49 845.59 487.09 826.23 555.58 943.63 557.99
00018649 00000084 726.76 115.22 370.17 560.27 792.17 379.17 941.50 381.40 845.18 489.60 829.30 560.28 944.86 561.60
00018650 00000085 730.25 120.09 367.76 557.93 793.41 386.29 942.31 388.68 845.76 495.06 830.65 561.87 948.97 563.06
00018651 00000086 727.42 122.99 369.94 551.87 792.69 388.96 944.20 392.39 846.93 495.72 831.43 561.52 950.47 563.53
00018652 00000087 727.52 122.26 369.78 553.69 792.86 388.92 943.48 391.68 847.02 493.33 831.39 560.40 950.48 561.95
00018653 00000088 729.31 123.90 367.16 549.05 793.26 386.77 942.80 389.81 846.27 491.34 829.77 557.48 948.31 559.26
00018654 00000089 728.73 120.66 368.08 551.47 793.10 382.82 943.56 385.54 846.57 489.18 828.81 556.20 948.15 557.73
00018655 00000090 727.70 121.23 368.11 551.03 791.46 381.10 941.75 384.11 844.45 489.74 827.25 555.96 945.87 557.67
00018656 00000091 729.19 120.18 366.79 553.59 791.59 383.13 942.15 386.28 843.92 490.80 827.08 556.62 947.20 558.37
00018657 00000092 730.38 121.02 365.41 552.98 792.98 385.51 943.07 390.75 845.06 493.52 827.59 556.57 947.80 560.07
00018658 00000093 728.99 121.83 366.57 550.93 792.19 386.76 944.12 391.62 845.94 495.36 826.94 557.54 948.40 560.79
00018659 00000094 728.74 123.60 367.28 546.01 792.43 385.06 944.04 389.05 846.19 492.96 826.97 555.30 948.81 557.85
00018660 00000095 728.74 120.26 368.96 550.53 792.52 382.96 942.79 385.14 845.76 489.13 828.17 554.85 948.83 555.81
00018661 00000096 728.61 120.43 369.13 552.78 793.00 381.77 942.69 384.40 845.86 489.29 829.42 556.28 948.26 557.69
00018662 00000097 729.79 122.86 367.60 550.47 793.35 383.42 943.20 385.59 846.19 490.01 829.44 556.91 948.56 557.94
00018663 00000098 730.54 122.50 367.67 552.17 795.07 385.19 943.03 387.96 846.91 490.35 830.87 557.17 948.71 558.74
00018664 00000099 731.69 124.76 367.55 552.69 795.78 386.39 942.42 388.97 847.57 492.95 831.74 558.67 949.54 560.18
00018665 00000100 731.44 124.10 367.75 555.01 795.49 386.44 942.22 388.97 847.41 494.06 832.44 559.81 950.36 561.18
00018666 00000101 731.59 121.47 367.97 556.77 796.45 385.28 942.79 386.81 846.56 488.05 834.40 557.71 951.92 558.31
00018667 00000102 730.95 117.75 369.19 557.73 796.61 379.65 945.76 380.24 847.24 481.79 831.66 553.84 951.44 553.92
00018668 00000103 731.46 116.43 365.60 551.94 797.35 372.12 946.81 373.82 846.74 472.00 825.39 545.88 944.96 547.33
00018669 DELETE   736.92 98.22 366.04 565.68 799.40 359.23 943.43 361.61 842.09 464.92 826.40 542.40 939.38 542.34
00018670 00000105 735.30 101.27 359.25 549.41 800.50 353.08 945.71 361.20 845.43 455.79 821.82 531.56 937.02 538.65
00018671 00000106 735.93 98.00 358.02 547.73 799.51 346.05 945.94 356.44 842.38 450.65 817.78 529.31 932.88 538.28
00018672 DELETE   740.52 86.27 362.55 563.90 801.05 346.45 947.52 348.61 833.75 446.74 816.17 532.87 932.05 533.84
00018673 00000108 742.14 89.14 358.66 555.38 799.71 346.02 943.93 348.00 829.96 444.67 812.61 531.23 926.71 532.31
00018674 00000109 741.00 90.08 356.14 554.15 798.54 340.79 939.84 343.27 823.13 437.93 809.91 528.62 918.66 530.29
00018675 00000110 740.98 91.39 354.96 556.37 799.76 336.34 940.50 337.81 821.30 430.64 808.33 527.64 916.83 528.95
00018676 00000111 736.46 90.44 347.31 552.26 791.88 326.13 931.57 338.73 820.88 423.28 798.79 516.65 905.72 529.06
00018677 00000112 735.66 84.69 355.94 558.83 792.95 333.67 934.49 332.58 813.33 421.89 800.08 525.86 903.12 525.96
00018678 00000113 729.25 90.05 361.47 553.06 787.91 335.18 932.13 338.73 811.70 427.15 794.60 526.94 898.86 530.76
00018679 00000114 726.12 90.34 363.09 554.27 786.48 339.65 931.66 344.77 814.63 434.57 796.03 529.59 899.62 534.67
00018680 00000115 727.76 92.64 361.19 549.24 786.63 340.93 931.51 349.98 815.49 442.01 793.88 528.95 902.56 536.87
CROP_BBOX: 378 0 1382 914
