Video ID: 	0M9EXLaJFqI
H: 	1080
W: 	1920
FPS: 	25.0

FRAME INDEX X0 Y0 W H [Landmarks (5 Points)]

00006454 00000000 496.13 199.04 516.24 744.30 630.66 512.88 861.10 435.79 802.31 610.59 725.85 768.66 930.41 700.35
00006455 00000001 495.21 199.10 513.05 742.23 631.65 511.49 861.11 434.44 803.74 610.10 733.00 771.91 929.81 704.14
00006456 00000002 492.45 196.55 513.46 743.10 633.55 512.04 861.06 437.03 805.92 610.51 738.39 772.08 929.09 706.38
00006457 00000003 489.62 196.08 516.02 742.78 634.03 511.87 861.79 435.51 808.63 611.29 740.59 772.43 930.84 705.08
00006458 00000004 494.84 194.31 509.85 743.58 637.66 509.49 862.12 433.18 811.82 607.45 741.47 770.72 930.42 703.52
00006459 00000005 494.12 193.74 510.51 740.86 638.82 506.47 864.00 432.53 812.56 605.29 739.90 767.25 929.86 702.04
00006460 00000006 496.27 189.84 508.04 740.36 640.49 505.65 863.29 430.23 813.67 600.99 740.51 762.67 931.21 695.89
00006461 00000007 495.17 189.30 510.05 741.17 641.59 506.34 865.01 431.24 815.78 600.44 742.47 763.71 932.23 697.29
00006462 00000008 499.00 189.62 504.65 745.58 647.19 507.00 867.24 432.80 821.42 600.09 744.94 765.99 930.29 701.29
00006463 00000009 499.36 190.01 505.00 752.32 649.52 507.23 869.22 431.24 826.79 597.57 752.19 771.51 933.10 705.61
00006464 00000010 501.23 188.11 503.88 754.59 650.70 507.49 868.63 430.16 827.16 595.84 755.41 772.54 934.67 705.71
00006465 00000011 501.85 187.94 505.39 749.70 652.47 507.46 870.76 429.88 829.29 595.60 759.07 770.49 937.22 703.21
00006466 00000012 503.64 186.00 503.99 736.16 656.48 508.30 872.26 429.69 832.42 595.09 761.41 761.92 939.30 693.70
00006467 00000013 510.92 188.62 500.49 735.66 661.54 505.72 879.48 429.15 836.90 590.91 762.71 760.73 943.28 694.30
00006468 00000014 507.79 191.71 503.31 738.25 661.47 507.21 880.84 429.76 841.83 593.95 760.08 764.25 945.10 696.80
00006469 00000015 511.74 193.80 501.41 731.40 664.77 509.92 886.03 432.90 845.58 597.57 761.70 762.84 947.35 695.66
00006470 00000016 514.16 191.11 496.12 729.17 667.23 508.78 885.93 433.30 846.18 596.42 762.27 760.52 943.69 694.57
00006471 00000017 514.83 186.01 491.76 727.49 668.01 508.07 883.10 430.32 845.00 591.94 763.82 755.49 944.44 687.40
00006472 00000018 512.55 187.50 494.87 720.41 668.82 504.53 879.80 422.50 845.34 583.21 767.92 750.39 946.85 678.55
00006473 00000019 512.58 186.62 491.68 710.82 667.89 494.73 875.45 413.34 841.23 565.43 765.96 740.64 940.94 669.18
00006474 00000020 505.01 172.19 499.46 705.84 668.00 482.53 878.16 405.03 849.23 543.34 765.51 721.48 946.28 655.92
00006475 DELETE   497.51 166.40 502.93 701.42 667.50 459.17 878.22 395.47 853.50 534.12 775.57 708.83 947.39 655.89
00006476 00000022 502.70 160.40 499.94 698.99 681.25 458.95 888.76 389.73 869.54 521.89 787.27 704.46 957.55 645.08
00006477 00000023 519.56 165.23 476.37 692.79 689.32 450.17 884.24 391.82 870.60 519.95 797.87 699.29 960.85 648.73
00006478 00000024 506.74 157.09 490.19 704.39 678.30 454.93 884.32 384.43 864.81 517.13 782.96 702.88 954.25 642.13
00006479 00000025 502.35 161.34 493.52 700.87 673.24 450.10 883.77 392.88 857.68 522.53 777.68 699.98 950.54 652.04
00006480 00000026 510.34 160.17 484.08 700.56 677.53 450.40 885.91 395.59 859.26 525.42 778.23 699.92 947.53 653.84
00006481 00000027 516.10 163.77 480.66 691.65 681.42 451.04 887.00 395.38 861.13 527.85 781.60 698.13 946.55 651.41
00006482 00000028 534.64 162.79 457.43 682.08 695.01 449.30 890.55 397.92 868.28 522.75 793.44 691.83 954.64 647.94
00006483 00000029 532.38 160.94 461.36 683.66 696.19 449.79 891.05 397.82 870.09 524.96 793.31 691.22 954.24 646.87
00006484 00000030 535.79 157.89 462.06 688.69 698.98 450.37 895.42 400.07 871.12 527.75 794.98 690.82 957.43 647.80
00006485 00000031 541.46 159.59 455.90 687.85 702.90 451.29 898.55 401.91 874.84 528.70 799.86 691.56 961.62 649.31
00006486 00000032 538.40 161.86 460.37 679.83 701.90 451.17 896.60 400.84 873.27 526.35 802.12 689.82 959.92 646.92
00006487 00000033 538.03 162.19 456.35 677.48 699.88 448.83 894.39 397.97 871.41 526.51 797.58 686.97 957.80 643.75
00006488 00000034 519.55 167.10 476.97 674.27 685.71 452.16 889.26 394.87 864.84 531.60 785.31 692.23 946.74 643.97
00006489 DELETE   513.05 163.15 478.38 679.03 676.14 449.36 883.24 390.11 856.37 529.32 775.93 690.65 944.54 640.64
00006490 00000036 510.33 163.88 478.04 682.89 668.03 446.36 874.16 388.20 844.10 526.70 766.52 689.61 933.42 640.69
00006491 DELETE   506.03 168.77 476.97 677.41 660.11 443.88 865.28 386.21 832.95 522.77 756.26 685.80 926.20 637.41
00006492 DELETE   502.07 171.93 475.25 671.06 653.58 441.02 854.47 382.53 827.46 518.00 753.59 680.79 922.76 631.57
00006493 DELETE   497.98 165.55 478.10 670.08 650.68 439.40 850.14 380.67 821.26 516.51 747.56 674.87 917.77 625.72
00006494 00000040 497.22 168.39 481.42 662.65 649.51 439.42 850.86 380.84 819.20 514.46 746.00 671.90 917.91 622.93
00006495 00000041 496.08 166.34 483.13 656.48 651.93 439.63 851.26 381.14 821.73 510.63 748.11 667.55 916.96 619.20
00006496 00000042 493.13 159.95 488.10 660.62 654.02 440.79 853.86 379.87 825.59 507.47 750.29 665.85 921.63 615.68
00006497 00000043 491.18 161.66 488.77 675.88 652.64 439.33 851.52 380.94 828.07 499.66 755.57 675.07 922.27 626.63
00006498 00000044 491.17 161.88 488.40 676.44 652.76 438.92 851.00 380.01 828.28 500.67 757.06 675.88 922.38 627.05
00006499 00000045 489.76 159.83 487.72 664.19 652.96 439.72 851.29 379.96 827.31 507.10 755.47 671.38 919.61 622.18
00006500 00000046 488.76 160.71 485.28 666.04 648.94 440.89 848.51 380.77 824.86 507.79 752.45 673.66 919.42 623.85
00006501 00000047 484.93 155.49 487.19 680.39 643.39 438.93 845.81 380.00 816.90 507.38 742.65 674.69 915.46 625.98
00006502 00000048 481.33 155.48 489.36 679.16 635.24 440.13 839.62 379.34 806.08 502.60 734.51 672.33 911.51 622.01
00006503 00000049 482.16 152.46 485.21 670.15 635.78 434.90 838.28 378.80 802.77 494.74 726.48 660.57 904.59 613.78
00006504 00000050 482.20 148.94 483.31 668.13 634.98 430.81 836.64 373.75 801.87 489.48 723.20 653.84 903.01 606.10
00006505 00000051 483.56 151.55 485.48 667.43 636.33 428.66 838.85 372.05 803.37 486.16 723.43 652.53 904.71 605.33
00006506 00000052 483.61 150.58 486.28 671.56 638.41 425.90 840.15 367.77 807.93 481.76 724.61 652.25 906.93 603.84
00006507 DELETE   484.70 151.43 485.29 681.70 644.80 427.46 844.64 363.31 818.55 480.96 728.03 657.92 911.77 601.23
00006508 00000054 484.71 151.53 484.72 684.39 648.40 428.24 848.47 364.51 822.08 480.26 733.41 662.07 913.07 605.87
00006509 00000055 485.19 144.10 489.90 678.23 645.95 430.71 849.73 370.51 818.44 483.67 736.47 659.69 915.34 609.82
00006510 00000056 482.64 146.13 495.46 682.75 645.25 432.77 852.14 373.01 819.41 489.27 738.36 666.31 917.71 616.88
00006511 00000057 483.43 145.77 493.42 699.77 643.33 434.84 851.36 377.79 818.84 494.33 740.66 677.12 917.90 629.71
00006512 00000058 484.39 142.77 492.08 703.85 641.53 434.90 847.97 375.66 815.99 498.08 738.08 675.07 918.92 625.42
00006513 00000059 480.17 142.01 493.63 691.19 637.69 436.53 847.96 373.38 810.31 506.62 728.54 669.10 916.00 616.06
00006514 00000060 481.95 143.73 490.86 691.62 637.04 438.12 846.70 375.41 808.55 509.87 727.73 670.68 916.15 617.96
00006515 00000061 484.24 147.37 490.99 696.85 636.41 439.02 845.10 375.25 809.92 508.83 731.72 675.60 918.54 621.68
00006516 00000062 490.35 153.67 485.56 693.66 647.92 441.67 850.68 372.42 816.76 509.59 736.46 677.84 920.63 616.42
00006517 00000063 492.06 146.79 485.83 699.92 646.03 435.97 853.57 375.23 821.58 506.31 739.80 676.82 923.62 624.99
00006518 00000064 495.90 148.66 488.61 701.04 656.57 440.57 862.57 370.16 829.15 509.21 746.54 679.78 929.41 617.56
00006519 00000065 497.22 151.72 489.68 699.48 659.36 439.95 866.18 370.81 832.18 511.33 746.76 680.46 929.97 619.57
00006520 00000066 497.16 144.59 492.17 704.49 661.02 439.30 868.73 369.46 834.64 511.36 748.39 680.22 930.97 618.79
00006521 00000067 500.16 147.47 490.38 699.79 663.52 439.57 871.19 368.65 837.26 510.05 750.07 678.85 931.79 616.83
00006522 00000068 500.23 147.95 492.67 697.23 665.10 439.74 873.10 368.61 840.06 509.32 754.00 678.59 934.91 616.45
00006523 00000069 501.77 143.65 494.26 695.13 661.65 432.76 876.46 369.45 842.05 509.46 752.24 675.51 937.74 622.06
00006524 00000070 502.30 147.68 491.70 699.38 667.92 437.86 875.62 364.76 846.65 504.91 756.08 678.23 938.11 614.53
00006525 00000071 500.35 143.77 491.45 703.15 668.52 436.52 872.37 362.99 845.39 498.72 753.63 674.02 934.78 610.28
00006526 00000072 499.48 141.85 492.35 693.08 668.40 431.99 875.13 364.74 845.94 492.97 753.15 666.89 934.27 608.67
00006527 00000073 502.09 147.71 486.58 683.24 667.86 430.75 871.80 365.28 841.42 493.60 748.65 663.30 929.34 606.89
00006528 00000074 496.76 154.83 491.39 687.30 659.09 435.74 863.64 366.66 829.03 498.85 740.33 666.99 926.85 606.54
00006529 DELETE   485.95 150.10 495.14 698.53 649.75 439.28 856.36 370.64 820.28 500.96 726.34 667.64 919.94 607.27
00006530 00000076 483.92 147.35 491.34 705.36 641.41 434.69 849.83 368.39 811.21 491.94 721.48 667.36 917.67 608.27
00006531 00000077 481.44 146.40 493.62 707.09 635.89 434.92 845.04 365.34 805.56 488.64 719.70 667.47 917.14 605.56
00006532 00000078 482.30 147.16 495.35 711.66 636.27 435.75 845.34 364.86 805.16 491.82 717.92 668.89 917.55 605.94
00006533 00000079 476.71 146.10 506.87 716.21 635.65 439.22 849.71 371.27 805.66 503.06 716.65 675.19 919.07 613.52
00006534 00000080 479.64 149.38 508.51 717.92 637.06 445.31 853.11 374.86 809.26 513.56 716.95 682.29 922.71 619.32
00006535 DELETE   480.90 144.94 511.26 723.51 640.67 446.36 853.89 375.38 812.43 517.28 724.81 685.85 924.90 622.84
00006536 00000082 483.72 151.67 513.24 720.13 646.27 451.31 859.93 379.94 820.43 522.87 733.13 692.31 929.72 629.84
00006537 00000083 487.75 152.20 507.03 718.47 653.23 451.63 870.65 387.42 828.44 528.85 740.27 697.32 930.28 640.83
00006538 00000084 494.13 160.86 500.66 700.76 652.86 451.85 872.77 397.41 827.50 535.53 743.90 696.42 928.84 650.92
00006539 00000085 498.68 164.74 496.78 693.18 657.93 453.41 878.83 398.84 832.96 537.88 748.26 696.69 933.54 650.82
00006540 00000086 501.40 157.44 500.18 712.92 665.42 462.06 883.58 400.41 840.41 532.57 751.78 703.59 935.88 650.09
00006541 00000087 505.66 163.25 502.52 719.37 667.92 466.15 889.40 404.25 844.95 534.57 750.84 709.61 941.51 656.50
00006542 00000088 509.74 167.88 503.30 743.73 672.00 475.01 889.05 411.55 845.84 545.50 742.51 716.32 940.72 659.51
00006543 00000089 511.19 166.40 503.94 748.50 674.16 480.71 890.46 414.30 849.09 551.31 740.99 717.23 943.13 658.28
00006544 00000090 516.51 172.75 501.83 740.17 676.34 483.09 893.89 414.47 851.63 555.87 744.82 717.44 949.89 656.66
00006545 00000091 521.23 176.39 504.02 731.36 681.52 483.02 899.89 415.51 855.82 558.72 751.69 717.92 954.63 658.21
00006546 00000092 527.85 171.25 489.21 723.60 688.78 475.36 895.24 417.77 854.07 560.12 746.93 709.93 951.27 660.10
00006547 00000093 530.81 171.94 484.33 722.45 689.41 477.16 896.61 418.94 855.30 563.38 748.54 711.95 952.15 661.69
00006548 00000094 534.07 177.72 482.88 716.39 690.46 479.51 899.95 423.11 857.19 565.50 747.79 714.06 952.43 665.73
00006549 00000095 533.68 177.29 482.02 716.10 691.31 480.23 900.84 424.33 858.14 566.78 747.77 714.36 952.52 666.44
00006550 00000096 524.35 183.44 496.06 710.01 684.69 485.61 908.54 423.24 863.96 564.47 751.62 719.27 953.23 666.36
00006551 00000097 521.68 182.02 497.64 709.77 683.84 484.87 908.85 422.97 863.14 564.63 750.66 718.82 953.20 666.34
00006552 00000098 530.23 189.24 490.41 710.63 687.92 489.96 905.03 425.83 857.40 568.15 752.28 718.29 951.65 661.98
00006553 00000099 527.66 190.17 486.21 714.86 687.06 488.67 900.19 423.27 856.49 566.65 751.64 717.26 950.79 659.98
00006554 00000100 527.49 190.96 486.40 711.92 685.32 489.40 897.34 425.24 852.30 567.63 749.31 716.78 946.41 660.18
00006555 00000101 525.95 194.12 488.87 708.31 682.02 491.81 893.71 425.84 848.25 569.43 746.74 718.22 943.42 659.88
00006556 00000102 518.23 191.32 491.99 707.72 677.14 491.23 890.08 426.05 844.28 570.90 742.11 719.89 936.92 662.04
00006557 00000103 510.23 194.46 495.97 702.64 668.94 489.94 882.38 423.07 836.80 568.08 737.50 719.81 932.30 659.98
00006558 00000104 510.49 190.71 491.56 703.44 662.27 492.09 874.33 418.91 828.18 568.17 731.09 718.28 929.47 653.93
00006559 00000105 506.90 187.87 492.91 701.53 655.71 488.25 864.54 410.97 819.28 558.81 726.62 710.09 923.95 642.10
00006560 00000106 504.38 183.58 492.36 702.06 649.62 483.45 858.41 406.98 808.96 552.35 722.03 705.77 917.50 637.94
00006561 DELETE   503.00 183.98 490.92 704.07 648.50 480.37 856.23 406.99 806.66 551.71 717.65 702.29 915.34 636.99
00006562 00000108 503.83 187.05 490.25 704.46 651.65 477.52 860.52 407.57 810.97 548.33 718.09 701.89 917.13 639.33
00006563 00000109 506.34 185.57 491.73 704.77 654.51 476.39 864.30 407.70 815.21 545.02 720.51 700.52 920.36 639.03
00006564 00000110 503.07 175.16 492.95 700.39 652.94 469.48 866.63 402.13 822.52 541.23 722.75 696.53 926.43 638.64
00006565 00000111 508.34 173.17 488.90 696.46 657.93 466.23 873.58 397.95 828.84 537.37 728.45 693.90 931.11 635.48
00006566 00000112 513.40 170.01 487.07 693.27 661.96 462.09 879.28 393.84 834.89 531.96 737.17 694.22 933.29 636.12
00006567 00000113 516.78 165.81 487.18 698.63 664.87 458.75 879.54 393.91 835.30 529.14 747.48 699.31 931.08 643.71
00006568 00000114 515.61 166.23 492.28 701.90 667.15 459.30 883.59 396.37 839.34 529.42 752.91 702.76 935.75 648.63
00006569 00000115 510.61 165.89 499.84 708.69 665.30 461.95 883.86 395.47 841.83 532.01 751.17 706.20 940.00 648.93
00006570 00000116 508.83 162.58 498.68 713.56 665.96 464.56 884.63 398.80 842.78 534.92 748.61 705.63 939.00 649.07
00006571 00000117 512.03 164.32 495.77 703.87 667.65 462.12 886.00 395.34 844.77 534.09 747.49 700.56 938.45 643.21
00006572 00000118 513.89 159.06 495.06 706.66 667.55 460.61 886.02 387.03 848.07 529.52 744.57 694.55 941.93 631.34
00006573 00000119 513.76 162.38 494.58 704.59 667.26 459.67 884.16 384.07 847.59 530.02 740.46 690.30 941.77 625.74
00006574 00000120 506.09 160.29 501.60 713.07 661.97 459.43 879.04 385.34 841.44 530.75 736.43 691.42 940.36 627.59
CROP_BBOX: 161 0 1348 1080
