Video ID: 	nC9uW6YuVUg
H: 	1080
W: 	1920
FPS: 	25.0

FRAME INDEX X0 Y0 W H [Landmarks (5 Points)]

00001284 00000000 448.13 109.45 393.43 560.65 693.18 337.79 812.68 353.77 830.76 442.21 713.55 544.37 802.07 556.97
00001285 00000001 449.11 110.15 394.90 562.67 694.58 341.74 814.98 354.75 833.77 446.13 716.33 548.35 804.80 558.94
00001286 00000002 449.30 111.15 394.52 561.61 695.51 344.34 815.60 354.41 835.93 446.75 718.44 549.65 806.32 558.07
00001287 00000003 448.05 109.12 395.48 562.82 693.38 343.28 815.31 353.37 834.92 445.41 717.63 549.23 806.68 557.21
00001288 00000004 447.46 108.16 393.43 565.40 691.33 340.74 811.19 353.63 831.17 444.97 713.96 548.60 802.09 559.04
00001289 00000005 444.06 106.20 393.29 562.18 688.40 337.32 808.40 352.36 827.61 443.54 710.00 545.04 797.63 556.60
00001290 DELETE   434.65 107.43 394.66 556.56 685.55 347.41 795.10 365.60 816.62 438.78 700.57 532.81 783.66 547.37
00001291 00000007 427.65 106.08 398.12 558.27 680.52 344.64 792.92 363.39 813.05 439.45 694.85 532.16 780.56 547.27
00001292 00000008 422.93 108.81 399.21 556.87 674.65 341.42 793.03 363.63 811.59 438.22 692.47 531.76 783.12 549.77
00001293 00000009 415.41 109.31 403.00 560.87 670.38 339.16 788.55 365.11 810.04 437.37 689.58 533.27 781.83 554.36
00001294 DELETE   410.81 110.44 405.00 562.04 666.96 335.48 785.58 364.23 806.72 436.13 685.10 533.04 778.74 556.56
00001295 DELETE   406.41 111.63 405.23 564.58 661.52 332.31 782.96 364.22 801.94 435.22 678.50 533.65 775.24 559.91
00001296 DELETE   403.72 108.58 396.54 568.65 652.88 329.42 772.87 359.47 795.25 436.14 667.93 535.39 762.25 560.35
00001297 00000013 396.72 103.81 393.98 572.48 639.08 328.73 762.09 354.02 781.82 436.02 655.15 538.18 751.64 558.97
00001298 00000014 386.60 104.99 399.89 572.13 628.95 328.44 757.11 352.88 772.69 436.17 645.40 538.58 746.64 558.66
00001299 00000015 382.90 109.35 399.93 571.38 624.79 332.61 754.03 355.88 769.28 438.63 641.78 542.16 743.38 561.55
00001300 00000016 382.72 111.40 397.22 572.06 621.99 336.18 753.53 357.15 767.37 442.34 638.84 545.91 742.63 563.71
00001301 00000017 384.15 113.28 395.00 574.51 618.18 339.70 752.43 357.19 765.79 447.63 636.52 551.87 742.27 567.03
00001302 00000018 382.83 113.92 394.19 575.74 616.77 344.36 748.45 356.85 763.78 449.35 637.86 555.54 739.84 566.83
00001303 00000019 383.29 114.12 394.03 573.20 617.56 346.52 750.44 358.82 764.10 450.24 639.60 556.13 741.95 566.81
00001304 00000020 383.02 114.35 394.10 570.99 617.71 350.14 752.14 359.26 765.44 450.34 642.31 556.83 745.08 564.55
00001305 00000021 382.14 117.79 395.89 567.35 618.32 352.45 753.75 361.66 766.80 452.02 645.13 558.91 746.64 566.35
00001306 00000022 381.37 121.02 398.14 567.68 621.40 354.27 752.69 363.96 767.99 454.00 649.79 561.87 746.22 570.00
00001307 00000023 383.43 124.85 400.51 569.71 624.53 355.36 753.54 366.54 769.59 456.87 653.20 564.73 747.49 574.85
00001308 00000024 387.25 126.59 400.06 569.67 627.89 358.39 754.75 370.34 770.46 458.63 654.27 564.83 748.52 576.31
00001309 00000025 393.02 127.23 397.74 570.56 631.35 359.47 759.22 373.88 773.86 460.59 656.45 565.08 752.82 578.73
00001310 00000026 395.96 125.72 397.93 572.58 635.76 357.00 762.51 372.67 777.99 459.75 660.34 564.02 756.13 578.49
00001311 00000027 398.76 123.57 397.70 574.92 640.47 356.18 765.74 372.56 781.76 460.59 663.53 563.69 758.18 578.62
00001312 00000028 398.53 124.33 397.48 572.71 640.11 356.01 767.19 372.90 782.87 461.58 663.97 564.21 759.38 579.37
00001313 00000029 396.83 125.92 398.62 571.21 636.90 356.32 768.97 374.87 782.61 462.30 661.02 564.53 760.23 581.17
00001314 00000030 397.25 125.37 397.80 571.69 636.63 357.95 769.68 376.64 781.92 464.04 659.67 565.09 759.92 581.86
00001315 00000031 398.91 127.71 397.54 571.07 635.99 360.98 771.19 381.66 781.01 465.84 658.18 565.44 760.73 584.29
00001316 00000032 401.79 127.77 397.18 572.88 637.64 362.25 771.17 381.77 781.36 466.54 658.86 565.70 761.24 583.65
00001317 00000033 404.19 128.43 394.59 570.93 639.52 362.73 774.00 382.83 784.10 467.16 659.99 565.08 763.17 583.47
00001318 00000034 405.17 126.54 394.58 570.90 641.40 362.27 775.13 381.66 785.19 466.63 661.15 563.80 763.38 581.57
00001319 00000035 404.32 126.77 396.31 568.67 642.01 358.86 775.12 379.43 786.20 464.07 661.63 562.05 763.62 580.63
00001320 00000036 405.63 124.28 396.11 571.71 643.36 356.29 775.40 376.64 787.13 461.57 663.68 560.46 764.54 578.65
00001321 00000037 408.89 124.73 394.33 571.36 644.48 356.24 778.03 376.32 788.80 461.31 662.55 558.04 766.23 576.31
00001322 DELETE   414.07 121.43 389.63 574.72 648.37 360.83 782.86 382.80 789.67 463.07 662.69 558.64 767.34 578.32
00001323 DELETE   417.46 122.11 386.84 575.31 647.44 372.12 783.46 388.20 788.02 463.72 666.11 561.37 771.59 576.33
00001324 DELETE   418.58 125.94 388.06 576.08 646.28 375.25 784.64 390.55 784.37 468.27 669.39 568.69 773.17 582.86
00001325 00000041 431.16 129.26 380.73 569.88 651.10 372.11 798.75 392.61 790.77 469.55 670.79 577.78 773.78 595.01
00001326 00000042 429.06 130.82 383.51 571.11 643.70 371.20 802.80 393.66 787.57 470.69 663.16 577.89 775.94 596.04
00001327 00000043 427.62 133.69 385.91 572.95 636.38 371.84 805.68 396.45 783.31 474.22 654.43 580.97 777.20 600.66
00001328 00000044 426.18 134.41 389.54 579.81 630.54 373.83 800.10 394.74 774.45 477.47 648.96 585.10 773.66 601.89
00001329 00000045 424.27 136.66 393.10 582.97 627.81 374.73 797.04 393.97 769.65 480.86 645.64 589.40 769.01 605.02
00001330 00000046 425.98 136.03 393.52 580.66 625.57 375.41 798.24 391.79 768.69 481.91 644.91 590.76 771.28 604.09
00001331 00000047 426.95 131.85 392.29 581.77 625.08 370.38 798.55 385.57 769.46 478.85 644.70 587.60 772.71 600.08
00001332 00000048 426.15 127.66 391.87 583.31 622.06 367.46 795.44 382.68 766.30 476.59 641.99 584.94 770.28 597.37
00001333 00000049 422.33 128.07 392.85 586.80 619.11 365.61 791.39 382.67 763.61 474.99 640.07 585.36 767.56 599.27
00001334 00000050 419.80 129.07 392.02 587.14 614.83 365.07 786.54 382.37 758.25 474.58 635.01 585.08 763.43 599.29
00001335 00000051 418.24 128.83 392.22 586.37 611.67 363.28 784.06 381.52 754.93 472.98 630.95 582.93 761.19 597.95
00001336 00000052 416.94 129.82 392.00 585.41 610.48 360.87 783.42 379.81 754.10 471.69 630.63 582.54 760.36 598.13
00001337 00000053 416.19 129.35 392.69 588.08 609.76 360.95 781.85 378.74 754.07 470.61 630.96 582.43 760.91 597.09
00001338 00000054 415.45 130.53 393.25 588.73 609.00 361.17 781.71 378.77 753.57 470.34 629.80 582.54 760.67 597.09
00001339 00000055 413.18 132.78 394.12 589.74 606.22 361.27 778.65 377.50 750.69 469.47 627.97 583.27 758.59 596.70
00001340 00000056 412.26 132.94 393.97 587.47 603.64 361.12 777.33 376.06 749.11 469.66 626.00 582.62 757.47 594.99
00001341 00000057 411.31 132.28 395.35 584.85 601.15 360.57 776.47 373.95 747.99 469.46 623.21 581.15 757.17 592.20
00001342 00000058 410.41 131.81 395.78 583.76 599.98 360.49 776.16 372.81 748.21 469.24 622.15 580.09 756.94 590.32
00001343 00000059 411.00 130.92 395.53 584.19 598.69 361.45 775.91 372.47 747.07 469.44 622.27 580.52 757.61 589.55
00001344 00000060 410.17 131.20 396.15 582.47 597.70 361.18 775.48 371.84 746.17 469.33 623.40 581.27 757.66 589.77
00001345 00000061 407.94 130.28 397.96 581.53 596.52 358.58 774.18 369.74 745.85 467.89 623.51 580.69 757.11 589.56
00001346 00000062 405.04 127.41 401.87 582.57 595.20 355.62 773.02 365.07 744.46 465.34 622.93 578.78 756.66 586.02
00001347 00000063 400.75 125.51 406.36 585.23 593.50 352.51 770.71 361.65 743.45 462.39 623.34 577.90 756.00 584.46
00001348 00000064 396.90 124.86 411.21 589.54 591.44 351.68 769.97 360.42 743.38 462.33 620.16 579.02 755.07 585.13
00001349 00000065 396.02 123.06 412.72 591.18 590.99 353.85 769.41 361.17 742.16 463.00 618.67 578.69 754.57 583.62
00001350 00000066 391.24 117.39 415.47 596.65 586.30 361.22 767.20 366.00 742.14 463.81 616.37 576.11 762.55 580.14
00001351 00000067 387.91 116.50 415.35 594.97 583.03 364.34 763.60 367.29 737.79 464.81 614.11 577.11 758.19 579.53
00001352 00000068 387.45 116.04 407.00 598.14 574.11 368.42 752.22 368.14 720.64 467.00 602.91 579.97 740.44 580.54
00001353 00000069 387.22 116.73 406.92 605.43 572.81 368.58 748.35 368.21 716.06 467.19 603.73 584.05 738.53 584.51
00001354 00000070 385.29 118.20 414.02 603.62 577.88 364.65 750.82 368.58 723.52 467.18 616.85 582.78 745.80 586.75
00001355 00000071 387.48 116.66 402.43 602.20 570.86 371.23 745.29 366.95 713.85 471.12 609.70 587.89 739.50 584.89
00001356 00000072 387.45 119.49 403.09 597.44 569.13 371.04 745.55 366.18 712.78 471.11 610.35 587.81 740.28 584.30
00001357 00000073 385.32 120.00 404.28 597.80 565.31 372.68 742.97 365.22 708.95 472.73 607.83 589.31 738.99 583.79
00001358 00000074 382.82 121.82 405.15 599.16 558.08 374.70 738.34 364.94 702.54 475.53 600.97 592.01 734.48 584.94
00001359 00000075 380.76 125.35 404.72 600.97 551.54 377.40 736.76 368.34 697.17 476.79 593.95 596.41 732.93 590.01
00001360 00000076 374.61 131.89 408.30 604.80 544.30 373.86 727.59 371.44 690.94 477.57 589.21 604.80 722.13 602.27
00001361 00000077 375.08 137.38 405.62 604.83 542.06 375.64 723.04 373.24 686.30 478.99 588.15 606.87 719.80 604.70
00001362 00000078 374.44 142.30 404.12 602.45 539.94 377.90 719.55 375.87 682.67 480.55 585.42 607.13 718.11 605.35
00001363 00000079 374.25 145.98 401.94 598.94 537.18 379.52 717.87 376.74 680.49 481.48 580.24 607.03 716.13 604.86
00001364 00000080 375.73 148.67 397.17 586.30 535.40 386.07 725.29 380.62 681.22 483.62 569.66 607.57 717.39 603.04
00001365 00000081 372.54 150.08 397.32 581.37 529.61 387.62 726.10 381.04 680.22 485.42 565.37 606.42 720.59 600.33
00001366 00000082 372.72 147.89 395.03 582.44 529.00 388.30 723.86 380.95 678.62 485.16 565.18 606.06 718.78 599.36
00001367 00000083 371.49 151.87 394.43 583.04 529.20 386.04 718.94 382.56 675.04 480.57 562.88 605.32 712.67 602.44
00001368 00000084 370.47 152.29 394.61 583.54 528.44 383.19 714.28 381.55 673.02 477.33 560.93 603.43 708.30 602.34
00001369 00000085 369.46 150.51 395.29 586.61 526.53 378.96 711.50 377.73 671.36 471.20 559.04 599.91 707.96 599.11
00001370 00000086 370.18 148.40 394.82 585.90 525.96 377.05 711.63 376.46 671.31 464.29 558.69 596.56 709.36 596.29
00001371 00000087 370.12 146.26 395.14 584.27 526.05 377.60 712.01 375.57 671.45 463.53 559.81 594.63 710.62 592.91
00001372 00000088 368.74 145.39 395.01 583.05 524.64 378.34 711.42 374.94 671.29 463.28 559.41 594.12 711.11 591.13
00001373 00000089 367.95 144.49 393.96 581.65 522.82 378.46 709.41 372.77 668.76 463.72 557.83 593.07 709.86 588.19
00001374 00000090 365.57 140.41 393.16 578.86 518.45 378.89 706.43 372.90 664.76 463.88 555.28 590.85 707.55 585.43
00001375 00000091 363.92 138.20 392.17 573.86 515.70 377.00 703.94 370.73 660.26 460.24 553.27 585.87 704.97 579.82
00001376 00000092 362.52 129.41 390.64 573.19 513.03 370.05 701.23 362.39 658.17 453.98 550.48 579.24 700.66 571.91
00001377 00000093 360.61 126.40 391.09 571.25 509.40 365.00 697.55 355.82 652.62 449.56 548.19 574.56 696.08 565.66
00001378 00000094 356.14 128.66 392.02 567.80 504.72 358.97 692.23 347.38 646.97 445.76 545.16 571.69 690.99 560.37
00001379 00000095 350.14 128.04 395.00 569.57 500.00 356.80 686.04 345.35 641.73 443.23 542.11 570.08 686.55 558.66
00001380 00000096 342.71 126.42 399.65 574.20 496.30 355.98 679.84 347.29 636.89 442.44 540.04 569.82 680.95 560.40
00001381 00000097 336.86 128.48 401.44 575.97 492.97 356.89 673.61 350.41 631.88 443.99 538.23 571.46 674.98 563.97
00001382 00000098 332.89 128.16 401.69 579.55 488.42 357.53 669.82 352.48 627.69 445.67 534.08 573.79 670.85 567.58
00001383 00000099 329.21 128.97 402.03 582.28 485.89 358.87 666.30 353.65 625.69 447.82 531.29 576.51 668.02 570.36
00001384 00000100 327.68 130.85 402.12 583.02 483.87 362.16 661.96 355.30 622.59 448.82 532.55 580.38 666.45 572.75
00001385 00000101 329.63 137.26 399.82 579.70 483.73 366.41 660.92 358.13 622.07 452.77 533.08 585.04 665.71 576.44
00001386 00000102 331.20 141.49 397.09 575.40 486.27 369.25 662.08 362.06 623.58 455.38 535.91 586.06 665.30 578.61
00001387 00000103 333.71 143.14 396.20 573.88 488.57 370.10 663.12 363.00 625.05 455.45 538.31 586.33 665.60 578.92
00001388 00000104 334.75 142.29 395.70 572.02 490.49 369.17 665.25 362.09 627.49 455.08 541.12 584.92 667.40 577.43
00001389 00000105 336.12 139.74 395.62 567.75 492.82 368.49 665.58 360.14 630.15 454.62 543.59 581.45 669.04 573.00
00001390 00000106 338.84 137.42 392.97 566.85 495.69 368.00 666.02 358.33 633.29 454.18 547.50 580.73 671.13 571.30
00001391 00000107 342.17 138.47 390.93 564.93 499.65 369.26 668.60 358.17 636.67 456.17 550.47 580.65 673.48 570.06
00001392 00000108 343.60 140.88 391.28 562.69 501.52 370.56 672.18 360.76 638.57 457.68 550.65 581.61 675.61 572.01
00001393 00000109 343.76 142.18 392.07 560.99 502.48 370.33 673.74 362.69 637.91 457.48 548.97 580.13 674.83 572.38
00001394 00000110 341.60 141.17 393.31 564.11 500.20 370.41 671.68 362.79 635.78 457.74 547.36 582.02 673.36 574.35
00001395 00000111 339.66 140.49 395.29 567.65 499.00 370.31 669.28 362.75 633.78 457.54 545.64 582.62 671.37 574.98
00001396 00000112 340.13 139.06 394.86 568.26 499.45 370.53 670.45 362.79 634.98 457.01 545.07 580.99 673.57 573.28
00001397 00000113 343.29 134.59 393.36 565.36 502.19 367.87 676.16 360.92 639.81 454.91 545.17 575.67 678.49 568.52
00001398 00000114 344.70 130.48 392.98 567.85 502.72 366.56 678.41 358.73 642.03 452.80 544.76 572.44 681.13 564.37
00001399 00000115 345.44 129.64 392.46 568.70 503.34 365.50 680.01 358.44 643.18 452.37 544.69 572.08 681.64 564.64
00001400 00000116 345.49 130.49 392.79 569.17 504.86 365.39 681.01 358.74 644.65 453.66 546.14 573.91 681.68 566.86
00001401 00000117 349.24 131.47 388.64 567.46 509.04 371.50 685.34 368.36 647.39 456.57 547.23 574.32 684.49 570.43
00001402 00000118 352.79 131.74 386.55 564.54 514.36 371.99 688.97 367.57 652.55 455.91 554.69 575.87 688.02 570.92
00001403 00000119 354.04 133.06 386.42 563.52 516.35 371.43 691.20 363.60 657.00 455.46 561.29 579.13 692.24 571.36
00001404 00000120 354.09 134.25 386.54 562.96 517.24 371.76 690.67 362.71 658.29 456.12 565.41 582.33 693.12 573.66
00001405 00000121 355.62 134.45 386.75 565.30 519.51 371.43 693.12 363.81 661.28 455.22 566.41 582.06 695.36 574.76
00001406 00000122 357.55 135.05 388.69 567.65 520.47 373.63 696.47 366.31 663.23 457.68 565.26 583.48 698.69 576.52
00001407 00000123 360.07 135.51 388.18 568.12 523.86 376.24 700.21 369.25 667.34 459.80 567.45 584.67 702.50 578.21
00001408 00000124 363.90 136.10 388.78 569.51 527.16 378.64 706.11 369.92 671.70 462.65 568.79 586.66 707.22 578.81
00001409 00000125 369.23 136.76 389.24 570.88 532.57 378.79 711.11 370.95 676.06 462.85 570.80 586.79 710.50 579.79
00001410 00000126 372.93 135.76 390.35 576.99 536.64 378.14 716.74 369.29 681.86 464.63 573.19 589.35 715.58 581.83
00001411 00000127 375.87 134.79 393.74 583.25 538.99 376.84 720.15 371.08 684.80 460.40 575.83 590.96 718.10 586.15
00001412 00000128 377.27 137.29 399.65 592.37 541.83 373.90 721.54 370.19 685.28 455.87 581.59 593.87 720.72 590.55
00001413 00000129 381.71 127.88 399.55 612.20 543.11 360.49 722.49 357.75 687.18 454.90 595.11 594.79 726.21 591.32
00001414 00000130 388.85 128.65 399.60 606.39 552.89 363.19 727.96 357.48 696.93 456.87 608.50 596.53 731.25 590.64
00001415 00000131 397.12 130.54 397.31 593.61 564.12 365.13 735.27 359.00 704.79 460.96 616.87 594.50 734.23 587.99
00001416 00000132 402.39 130.91 398.66 592.38 568.76 368.75 745.67 360.79 712.73 463.75 618.74 594.75 744.82 586.47
00001417 00000133 404.46 131.57 402.51 590.45 571.24 370.43 755.93 364.83 719.66 467.47 614.62 592.77 753.22 586.25
00001418 00000134 406.36 132.98 403.47 595.20 571.20 375.01 761.73 368.86 720.92 472.65 613.64 596.81 758.59 589.66
00001419 00000135 408.07 140.22 404.44 599.75 572.92 380.81 762.13 375.12 722.45 478.73 615.72 605.22 760.79 598.77
00001420 00000136 407.09 144.76 409.09 610.24 576.39 384.94 757.60 380.75 723.13 478.22 621.14 612.00 761.71 607.79
00001421 00000137 408.86 142.46 408.20 615.35 581.86 391.28 762.00 390.80 727.53 482.24 622.50 613.18 764.09 612.01
00001422 00000138 410.55 147.33 407.27 607.26 584.03 396.49 763.34 395.30 728.64 484.18 626.03 613.82 765.49 612.12
00001423 00000139 410.45 149.64 405.92 601.88 583.67 397.17 763.00 395.59 729.29 484.02 629.11 614.92 766.42 612.79
00001424 00000140 409.37 149.09 405.39 598.89 581.09 397.24 759.14 394.80 725.26 483.01 629.38 613.40 763.85 610.31
00001425 00000141 405.57 149.83 404.84 600.12 575.60 396.68 751.92 393.74 720.32 481.77 625.55 614.06 757.67 610.74
00001426 00000142 403.98 149.12 403.65 598.90 569.28 397.58 750.98 392.00 715.50 483.31 618.22 612.76 755.90 607.32
00001427 00000143 401.06 149.52 401.53 592.76 564.44 396.72 751.58 392.42 711.42 485.42 610.74 609.66 752.55 605.12
00001428 00000144 396.62 148.04 404.03 593.85 560.14 397.12 747.51 392.02 707.11 485.86 605.30 607.98 748.59 602.79
00001429 00000145 392.97 147.53 405.08 597.29 556.40 395.64 738.95 389.10 700.83 485.37 602.20 609.52 740.30 603.54
00001430 00000146 387.95 147.77 407.96 603.14 551.61 395.54 732.66 387.67 696.37 485.89 599.18 614.48 735.55 607.55
00001431 00000147 385.99 149.00 407.60 606.53 547.97 397.49 730.01 388.56 693.49 487.24 596.65 618.91 734.33 611.16
00001432 00000148 386.22 150.01 409.23 607.02 548.14 400.14 730.37 390.99 693.79 489.52 596.36 620.05 735.62 612.10
00001433 00000149 390.96 154.34 406.64 603.01 550.08 402.52 732.67 394.21 695.75 492.13 597.74 621.25 738.48 613.99
00001434 00000150 392.42 156.79 405.23 604.10 550.21 403.46 732.53 395.94 696.69 494.88 596.32 623.72 738.44 617.18
00001435 00000151 390.51 158.71 404.67 604.93 548.11 403.97 730.48 397.39 694.62 498.10 594.25 626.49 735.93 620.79
00001436 00000152 387.68 160.05 404.18 605.59 545.09 404.18 727.15 398.55 690.73 499.75 590.50 627.27 732.89 622.34
00001437 00000153 385.05 162.50 403.45 596.87 545.17 406.48 725.39 398.73 689.20 504.08 589.45 624.84 730.93 618.22
00001438 00000154 385.01 160.84 401.21 591.31 543.70 405.05 729.63 397.77 689.55 505.20 586.25 620.68 733.26 614.31
00001439 00000155 384.08 159.72 402.00 590.45 541.40 403.15 729.05 396.43 687.56 503.54 582.91 617.99 732.79 611.92
00001440 00000156 382.62 159.03 400.45 590.74 538.38 402.26 723.61 393.07 683.05 502.07 581.27 617.71 728.89 609.90
00001441 00000157 380.67 157.85 398.87 592.00 535.93 399.73 716.19 391.58 677.67 497.87 580.23 616.60 723.45 609.96
00001442 00000158 376.98 159.21 399.12 589.11 534.43 398.62 712.92 390.70 675.41 498.05 579.16 616.04 720.34 609.40
00001443 00000159 377.27 160.42 398.08 586.56 533.82 399.25 712.55 390.75 674.59 499.06 577.18 614.26 719.88 607.28
00001444 00000160 381.36 158.73 395.99 588.25 534.65 399.94 716.20 392.12 676.22 498.97 575.54 613.09 722.35 607.00
00001445 00000161 384.48 159.27 395.74 587.11 536.82 399.87 719.04 391.58 678.78 497.54 578.56 613.33 725.15 606.75
00001446 00000162 386.29 159.84 395.33 587.11 538.99 400.50 720.91 392.66 680.33 499.49 579.96 613.93 725.89 607.53
00001447 00000163 383.93 161.72 396.78 587.05 539.81 403.95 721.20 395.96 681.21 504.73 580.20 617.14 725.47 610.63
00001448 00000164 380.02 164.23 398.14 585.49 537.98 406.52 719.35 397.52 678.90 510.03 577.71 619.59 724.75 612.22
00001449 00000165 377.33 167.97 398.18 581.66 535.49 408.93 716.79 398.71 676.09 513.72 576.64 621.16 723.95 612.67
00001450 00000166 372.75 169.08 397.43 579.01 534.00 414.64 723.19 408.07 675.74 516.66 570.66 628.41 717.60 622.11
00001451 00000167 371.17 175.90 397.45 574.80 529.63 419.03 718.56 412.14 669.07 517.30 569.12 632.43 713.40 625.75
00001452 00000168 372.34 179.83 395.14 575.56 527.36 421.99 716.25 416.81 665.92 516.67 567.14 635.38 712.03 630.16
00001453 00000169 372.02 184.14 393.60 575.89 528.08 424.99 714.91 420.68 665.36 518.64 567.16 637.61 711.16 633.10
00001454 00000170 372.15 183.94 393.60 582.16 530.78 428.74 715.97 425.63 666.55 524.43 569.12 641.41 711.68 637.67
