Video ID: 	2ScphPYOJmw
H: 	1080
W: 	1920
FPS: 	23.976023976023978

FRAME INDEX X0 Y0 W H [Landmarks (5 Points)]

00014743 00000000 492.37 160.95 404.05 521.50 578.69 347.83 761.64 324.78 659.56 417.86 612.63 546.43 757.70 527.98
00014744 00000001 490.71 162.45 404.72 520.10 576.30 346.50 759.31 324.20 656.98 419.27 611.14 546.41 755.11 528.51
00014745 00000002 489.94 163.98 405.55 520.06 574.51 345.98 757.70 323.31 655.41 418.78 610.64 546.89 752.98 528.69
00014746 00000003 490.22 164.84 405.41 517.86 574.06 345.98 756.95 324.31 653.55 419.63 609.17 545.98 750.93 528.57
00014747 00000004 490.76 163.09 404.99 516.19 573.56 349.30 754.88 326.38 651.67 419.99 608.02 546.37 749.81 527.94
00014748 DELETE   492.32 165.74 404.63 510.74 576.34 357.55 752.89 334.41 649.97 419.35 606.63 544.74 749.65 526.17
00014749 DELETE   491.09 164.88 407.43 496.12 574.65 359.87 750.65 337.05 646.65 422.68 603.27 540.97 748.19 521.98
00014750 00000007 490.83 160.73 405.64 492.81 572.74 358.85 750.51 336.75 644.89 424.61 598.86 541.59 745.99 522.87
00014751 00000008 490.85 159.37 406.26 485.84 570.39 356.30 751.04 334.82 644.34 425.31 596.48 539.74 745.83 521.10
00014752 00000009 490.06 161.23 407.34 484.34 569.17 353.80 752.28 332.38 644.80 425.58 596.72 538.94 747.95 520.17
00014753 00000010 490.13 160.97 407.86 484.74 569.94 351.36 754.21 330.29 646.77 425.34 598.48 537.73 750.57 519.14
00014754 00000011 492.61 162.33 404.89 489.17 574.49 353.13 754.64 333.42 649.65 426.44 601.70 536.79 751.62 519.67
00014755 00000012 497.19 165.30 402.57 502.32 583.93 357.21 757.42 338.18 659.20 425.50 613.93 540.56 751.85 524.97
00014756 DELETE   501.42 166.95 400.49 509.65 588.84 356.84 760.56 335.50 667.31 421.96 621.25 544.03 752.68 526.97
00014757 00000014 502.29 163.17 400.79 516.36 590.39 354.35 764.51 333.55 674.08 421.68 624.98 546.81 756.48 530.08
00014758 00000015 502.82 164.62 400.19 514.17 590.54 352.65 766.31 330.76 676.18 423.66 627.43 548.31 759.41 530.50
00014759 00000016 502.00 164.41 401.27 512.89 590.58 351.86 767.18 329.76 677.24 424.06 628.08 548.34 760.26 530.24
00014760 00000017 501.11 163.80 401.89 512.07 590.66 350.06 767.16 327.98 677.27 423.73 627.88 548.29 757.86 530.33
00014761 00000018 500.43 162.18 403.44 512.78 589.92 348.92 768.00 327.76 675.79 423.98 626.10 547.94 757.57 530.74
00014762 00000019 499.38 161.86 404.84 512.68 588.93 348.46 767.69 327.54 673.79 423.58 624.82 547.36 757.71 530.19
00014763 00000020 497.53 162.43 407.06 511.61 588.52 345.65 767.06 326.10 672.71 422.64 624.63 545.50 755.36 529.43
00014764 00000021 498.09 162.35 406.76 510.32 588.02 344.09 767.25 325.33 671.64 422.72 623.91 544.59 755.46 529.15
00014765 00000022 499.99 155.23 405.80 506.80 587.62 344.10 770.40 325.46 670.88 422.23 622.37 543.67 762.24 527.72
00014766 00000023 502.50 153.14 404.75 502.59 588.56 344.97 774.27 326.34 672.13 421.18 622.07 544.43 768.08 527.82
00014767 00000024 506.36 153.66 401.57 495.85 589.93 347.24 776.06 327.43 673.24 421.66 622.86 544.66 772.81 526.36
00014768 00000025 507.81 154.44 402.18 494.16 591.58 348.22 778.51 328.65 675.86 422.17 624.70 545.11 776.92 526.49
00014769 00000026 508.86 155.78 402.41 491.27 593.07 348.84 779.51 329.93 677.07 422.30 625.14 545.12 777.16 526.88
00014770 00000027 510.64 157.68 402.33 486.57 593.98 348.85 780.15 330.73 678.10 424.50 625.92 545.05 777.85 527.20
00014771 00000028 511.70 155.98 403.99 491.08 594.85 348.59 782.59 331.29 679.42 425.23 625.23 545.28 780.47 528.19
00014772 00000029 514.00 156.16 402.98 493.63 597.00 347.94 785.57 331.46 682.60 426.10 627.45 546.03 782.66 529.74
00014773 00000030 519.32 157.41 401.63 492.58 599.81 350.19 790.24 333.41 686.26 428.67 630.85 549.63 785.77 533.17
00014774 00000031 523.54 159.17 399.40 494.06 603.11 351.29 794.58 335.74 690.55 430.74 633.19 551.90 788.06 536.91
00014775 00000032 527.20 159.69 397.03 493.97 605.60 353.30 797.05 337.54 693.72 433.36 634.88 553.59 788.74 538.87
00014776 00000033 528.97 161.88 395.50 493.58 607.15 355.33 797.85 339.08 696.52 437.24 638.14 556.19 790.36 541.36
00014777 00000034 534.19 173.10 395.58 481.47 610.69 357.53 801.00 340.80 701.84 444.97 639.54 556.64 794.88 540.84
00014778 00000035 535.28 173.43 395.65 485.10 611.94 359.02 802.03 342.95 702.62 446.68 640.19 557.41 795.11 542.39
00014779 00000036 536.93 173.00 395.36 485.13 613.11 359.13 802.79 343.88 703.62 447.89 641.49 557.81 796.58 543.41
00014780 00000037 537.13 171.90 395.99 489.15 614.43 359.96 804.07 345.16 705.06 448.62 642.11 558.13 797.60 544.22
00014781 00000038 538.40 171.82 394.04 490.28 616.24 359.58 804.70 345.62 706.68 448.53 643.66 559.09 797.44 545.92
00014782 00000039 539.37 173.22 394.17 491.66 617.74 360.44 806.00 347.67 707.54 449.79 644.23 560.57 796.17 548.58
00014783 00000040 539.38 172.54 393.39 501.52 618.98 361.50 807.80 349.87 709.54 451.39 647.67 562.35 796.81 551.78
00014784 00000041 539.80 175.33 391.78 505.14 620.23 362.99 806.51 350.39 709.94 453.79 652.49 564.66 794.11 553.79
00014785 00000042 537.48 167.44 397.22 523.69 616.10 364.75 804.11 346.24 704.68 452.28 655.21 573.34 802.17 557.66
00014786 00000043 538.75 177.74 397.77 526.47 620.17 360.40 807.78 348.70 709.58 451.22 653.93 566.74 798.21 557.24
00014787 00000044 539.15 177.40 397.91 528.40 620.18 359.51 808.10 348.01 709.73 450.10 653.46 566.08 798.47 556.77
00014788 00000045 540.01 177.65 397.06 524.68 620.93 359.94 808.61 348.17 710.11 450.75 654.34 564.81 798.77 555.17
00014789 00000046 540.87 175.87 397.57 524.63 624.33 365.89 807.14 353.93 710.22 449.19 653.82 560.77 797.18 551.15
00014790 00000047 542.36 178.85 397.89 521.87 626.09 369.35 805.13 356.82 709.79 448.32 654.61 556.77 796.77 546.81
00014791 00000048 542.65 178.76 398.02 521.66 626.31 369.88 805.18 357.59 709.85 449.97 654.00 556.86 796.80 547.08
00014792 00000049 543.15 177.83 398.99 523.62 625.32 366.87 807.11 356.10 709.41 451.79 654.11 557.84 799.14 548.95
00014793 00000050 544.30 178.26 400.30 523.97 626.34 362.76 809.43 353.08 710.33 452.71 656.17 557.93 801.02 549.60
00014794 00000051 546.07 178.82 399.04 518.14 626.98 364.47 810.82 352.30 711.70 453.14 659.56 558.68 802.91 548.37
00014795 00000052 547.94 178.67 397.55 516.79 628.15 370.98 808.89 355.26 711.01 449.78 660.12 558.62 801.87 545.98
00014796 00000053 547.42 176.06 395.91 519.02 626.32 370.53 806.30 352.51 708.44 445.90 658.70 559.37 799.48 544.96
00014797 00000054 545.56 178.36 396.77 515.33 621.36 365.86 804.04 347.28 703.09 444.30 654.55 559.41 796.86 544.21
00014798 00000055 544.07 179.11 394.47 512.64 616.28 361.71 800.83 344.47 698.35 444.93 649.75 559.03 792.23 544.58
00014799 00000056 543.08 180.28 394.03 507.33 613.44 359.26 795.85 343.06 693.74 445.32 645.96 555.82 786.65 541.98
00014800 00000057 536.67 173.83 397.71 511.82 608.85 357.13 789.59 338.60 685.06 441.72 644.60 557.46 786.01 542.00
00014801 00000058 535.36 174.37 398.02 510.60 607.25 356.05 787.56 338.65 681.84 441.79 641.29 556.91 780.36 542.50
00014802 00000059 533.98 173.68 396.89 508.33 604.41 355.29 785.53 339.50 677.21 442.42 637.35 556.92 776.11 543.91
00014803 00000060 533.06 183.88 398.41 493.65 606.36 349.70 779.90 338.05 670.85 445.49 636.49 551.70 770.62 543.55
00014804 00000061 531.35 182.16 400.47 493.35 603.49 348.63 778.67 338.70 667.26 447.35 631.60 551.61 767.76 544.91
00014805 00000062 530.47 181.51 400.49 497.51 601.33 348.96 775.72 338.95 664.82 447.92 629.54 552.05 765.22 545.34
00014806 00000063 530.12 179.58 401.39 502.95 597.90 350.03 773.63 339.82 660.32 448.60 625.47 554.27 763.40 547.40
00014807 00000064 527.32 171.42 394.84 505.33 596.45 356.44 772.08 342.58 662.71 441.70 621.81 550.09 759.10 539.35
00014808 DELETE   529.43 173.13 390.73 504.40 598.64 362.68 768.66 347.48 661.82 440.70 621.03 547.59 759.93 536.07
00014809 DELETE   528.60 173.07 389.29 504.25 596.73 365.49 764.87 347.90 657.93 440.09 618.16 546.79 758.06 533.53
00014810 00000067 526.43 174.22 391.16 504.07 592.80 364.76 760.34 346.81 651.97 439.68 616.00 547.94 752.08 534.41
00014811 DELETE   522.16 179.74 392.31 505.79 589.49 362.46 755.43 345.04 647.22 437.71 613.54 549.17 743.83 536.37
00014812 DELETE   517.38 174.85 394.64 513.33 583.83 357.58 754.60 341.06 644.55 438.02 610.14 552.54 741.36 540.28
00014813 DELETE   509.25 172.96 403.11 516.93 579.34 349.59 756.12 338.00 643.70 439.95 605.09 550.27 739.84 541.78
00014814 00000071 504.71 177.61 404.77 513.72 575.26 345.81 753.82 335.80 641.91 440.03 601.46 549.72 735.55 542.51
00014815 DELETE   501.96 179.96 404.69 508.70 571.44 345.14 751.55 333.72 638.03 438.44 598.03 548.62 734.10 540.09
00014816 00000073 500.87 178.92 405.01 508.08 569.23 344.27 749.08 331.35 635.14 436.17 596.67 547.97 732.55 538.15
00014817 DELETE   499.50 179.62 406.15 507.33 568.82 342.90 748.46 329.76 634.83 434.43 596.20 546.64 732.69 536.53
00014818 DELETE   499.33 179.14 406.27 502.55 570.23 343.17 749.92 330.11 636.47 434.75 595.74 543.88 732.59 533.79
00014819 00000076 500.46 178.65 406.73 502.28 573.09 341.88 751.90 330.82 638.19 434.84 596.36 540.04 735.30 531.58
00014820 DELETE   503.91 177.70 406.50 499.36 575.41 342.51 756.17 331.88 641.03 435.92 598.32 539.74 739.11 531.65
00014821 DELETE   508.53 175.65 407.13 502.15 578.97 341.97 761.80 330.36 645.26 436.64 604.02 542.31 745.46 533.41
00014822 DELETE   512.92 174.26 404.56 502.72 583.16 344.28 765.73 328.86 650.56 437.21 611.74 546.62 749.50 534.55
00014823 00000080 516.12 174.31 402.78 507.83 587.62 344.64 768.82 325.55 657.64 432.38 620.72 549.75 754.42 534.37
00014824 00000081 521.75 168.92 396.32 510.30 592.76 349.03 772.16 329.94 662.64 431.89 623.80 549.54 760.04 533.96
00014825 00000082 522.30 165.38 397.56 512.59 592.20 347.84 774.22 327.75 663.45 432.27 624.01 551.49 761.94 535.21
00014826 00000083 521.57 166.47 399.80 509.16 589.76 344.20 773.57 324.45 661.80 433.00 622.48 552.45 758.89 536.54
00014827 00000084 522.94 166.43 400.35 509.97 591.89 340.56 775.72 323.12 662.78 431.23 621.87 549.79 757.01 535.96
00014828 00000085 524.48 165.39 400.55 511.35 595.52 339.79 777.61 323.03 664.50 428.49 623.31 547.48 757.61 534.45
00014829 00000086 525.53 164.90 400.47 510.53 598.05 336.90 779.94 321.83 666.20 426.14 625.35 545.63 757.43 533.84
00014830 00000087 534.45 169.57 398.45 510.29 592.76 337.83 781.89 325.79 660.46 427.50 623.83 549.29 754.77 538.77
00014831 00000088 535.64 168.48 396.28 510.17 594.85 336.43 783.37 325.36 661.74 426.85 624.00 548.94 755.38 539.34
00014832 00000089 532.64 171.32 400.11 506.15 603.02 335.18 790.81 330.75 670.47 422.25 626.19 545.32 763.29 540.88
00014833 00000090 533.22 171.30 399.48 507.12 604.69 336.42 790.12 330.64 671.78 422.44 630.91 546.14 763.57 540.71
00014834 00000091 532.60 171.92 399.86 507.38 606.34 335.74 790.92 330.06 673.64 420.33 632.87 546.42 764.17 540.90
00014835 00000092 534.91 172.04 399.30 504.79 607.51 334.35 792.33 329.91 674.50 418.89 631.81 542.19 766.87 537.51
00014836 00000093 539.85 166.02 394.54 498.86 607.78 331.32 797.27 327.68 678.86 419.89 631.17 541.16 771.05 537.71
00014837 00000094 540.65 165.47 396.12 502.70 610.19 330.58 798.77 326.39 679.93 418.38 633.98 541.00 772.93 536.89
00014838 00000095 539.28 166.58 399.75 510.95 613.15 331.42 798.10 326.57 679.52 414.77 638.75 539.15 772.16 534.09
00014839 00000096 543.11 164.32 397.56 509.83 613.86 333.56 800.23 324.18 681.48 415.13 641.90 542.14 777.67 533.39
00014840 00000097 544.67 161.10 395.89 507.74 616.87 340.36 798.61 331.35 683.04 415.02 641.36 540.28 775.69 532.17
00014841 00000098 545.36 160.07 396.37 505.13 617.34 341.17 799.90 332.59 685.48 415.70 640.55 539.81 774.89 532.31
00014842 00000099 544.80 156.31 397.77 506.00 615.21 336.78 802.45 330.11 685.18 418.57 636.64 539.54 774.02 533.93
00014843 00000100 544.31 156.73 399.16 510.27 614.95 336.97 803.83 330.09 683.58 418.36 636.93 542.56 772.39 536.79
00014844 00000101 543.01 155.42 400.93 517.54 616.49 336.57 804.40 330.60 683.16 417.59 638.65 543.52 770.76 538.23
00014845 00000102 541.73 155.98 403.46 522.17 616.85 336.69 803.65 329.32 682.55 415.14 640.03 544.49 770.31 537.94
00014846 00000103 541.15 154.06 404.44 530.05 619.56 345.53 800.30 332.67 680.74 409.37 642.25 546.06 769.77 535.04
00014847 DELETE   543.64 149.96 398.64 521.12 616.71 343.01 793.89 326.74 675.80 402.99 640.42 542.39 769.18 528.87
00014848 DELETE   545.26 144.76 392.04 504.56 606.66 330.00 787.83 317.91 665.74 394.00 622.26 529.27 759.14 520.95
00014849 DELETE   542.20 139.56 389.42 495.66 604.04 324.80 776.05 313.21 648.81 390.40 610.98 514.74 741.98 506.61
00014850 00000107 543.65 135.72 389.84 495.98 608.30 319.07 778.01 310.93 648.03 387.16 610.08 508.88 742.29 503.58
00014851 DELETE   546.22 135.26 388.39 496.68 608.81 319.45 781.48 310.10 649.98 386.91 612.59 511.96 746.13 505.56
00014852 DELETE   549.82 140.36 386.81 494.18 612.27 318.10 787.40 309.11 658.16 388.37 618.28 516.06 750.35 509.71
00014853 00000110 556.99 145.01 383.17 492.15 613.48 313.07 793.66 313.64 665.41 396.29 623.14 519.91 757.79 521.82
00014854 00000111 550.38 146.30 388.32 498.32 613.34 324.64 785.71 315.51 661.33 401.62 624.70 524.02 752.48 517.41
00014855 00000112 547.08 145.25 387.53 502.30 610.66 328.14 784.49 319.98 659.84 404.16 622.92 525.13 750.68 519.41
00014856 00000113 546.04 145.42 390.47 498.84 606.38 321.24 788.39 318.31 662.77 404.79 624.63 526.47 757.82 525.13
00014857 00000114 544.46 143.48 390.95 506.08 602.29 323.71 785.09 316.77 659.51 405.13 621.96 531.04 758.70 526.65
00014858 00000115 540.12 143.87 391.80 507.98 596.45 325.82 780.54 317.55 655.33 405.77 616.62 532.46 755.31 527.37
00014859 00000116 536.14 143.67 390.82 508.05 593.85 327.73 775.40 320.52 650.64 407.62 612.62 531.82 746.83 527.68
00014860 DELETE   534.36 145.95 389.17 502.73 592.93 336.28 769.96 325.13 646.64 407.77 611.11 531.07 738.69 523.59
00014861 DELETE   533.46 147.36 385.72 499.89 592.74 336.54 766.95 330.77 643.54 408.87 606.41 525.67 734.20 522.66
00014862 00000119 529.61 150.94 387.14 495.21 589.03 333.63 766.94 329.31 643.49 409.62 602.77 524.22 732.83 522.54
00014863 00000120 525.35 147.00 390.32 499.30 586.29 331.12 766.40 326.96 643.28 409.63 600.78 525.12 730.69 523.82
00014864 00000121 522.57 145.08 390.87 498.74 583.16 332.70 764.86 325.11 641.62 410.40 600.25 528.54 730.10 524.63
00014865 00000122 513.62 147.80 401.31 500.64 575.36 334.90 748.94 319.58 628.19 419.01 597.62 530.67 725.22 519.14
00014866 00000123 510.25 150.11 399.74 508.45 572.81 337.82 746.64 319.77 628.62 420.33 598.68 538.18 724.74 524.64
00014867 00000124 510.65 151.33 397.93 508.26 573.29 338.34 746.13 321.10 628.04 419.77 599.56 536.34 725.28 523.32
00014868 00000125 513.08 151.21 398.85 499.18 575.41 336.64 747.04 322.12 628.10 420.90 600.41 527.41 729.51 516.13
00014869 00000126 516.47 151.19 395.82 494.94 577.11 334.09 749.41 323.08 628.82 422.99 598.53 523.72 729.68 515.47
00014870 00000127 518.86 153.72 394.21 493.55 579.79 332.83 750.91 324.59 630.68 425.26 598.95 523.86 729.44 518.05
00014871 00000128 524.52 151.12 391.33 501.11 586.58 331.87 768.30 331.85 643.95 420.61 599.84 530.44 734.39 532.19
00014872 00000129 526.67 150.70 393.19 505.36 586.83 333.92 771.09 332.31 643.33 424.13 601.24 535.20 739.65 535.60
00014873 00000130 527.81 151.18 394.47 507.66 587.26 333.73 772.05 330.53 643.00 423.64 603.46 538.31 741.38 537.23
00014874 00000131 526.72 153.00 397.11 510.34 590.20 335.48 772.58 331.94 646.09 422.22 608.88 538.15 742.50 536.23
00014875 00000132 527.76 154.61 395.62 509.71 590.58 334.77 773.35 330.77 646.00 422.01 610.64 541.57 744.95 539.27
00014876 00000133 527.89 155.29 395.41 510.19 591.34 335.46 773.61 332.05 645.93 422.55 609.49 541.98 744.59 540.25
00014877 00000134 531.17 162.33 388.91 494.52 588.24 338.46 766.18 328.02 644.04 424.27 609.58 539.11 737.73 530.79
00014878 00000135 529.38 157.24 392.13 498.80 591.61 333.70 773.92 335.96 647.93 424.20 602.53 531.89 740.48 535.15
00014879 00000136 529.77 155.75 391.17 497.88 591.75 333.36 774.88 335.45 648.38 424.59 603.21 532.73 739.32 536.06
00014880 00000137 529.03 158.66 391.84 499.72 592.30 333.67 773.55 335.45 647.11 424.79 605.06 534.90 735.91 537.89
00014881 00000138 531.23 161.73 386.43 496.36 588.38 337.06 765.27 331.36 642.16 427.36 607.54 539.04 726.81 534.82
00014882 00000139 530.56 163.04 386.60 496.33 588.05 337.34 765.00 331.87 642.48 427.13 607.23 539.91 726.03 535.78
00014883 00000140 530.88 162.96 387.79 495.36 587.96 338.49 765.75 331.51 642.62 427.35 605.56 540.36 729.55 535.16
00014884 00000141 531.84 165.16 388.59 496.90 588.88 338.52 768.34 332.10 645.00 427.82 607.79 542.11 733.60 536.97
CROP_BBOX: 204 0 1306 1022
