Video ID: 	zEl5Zrf2pXc
H: 	1080
W: 	1920
FPS: 	25.0

FRAME INDEX X0 Y0 W H [Landmarks (5 Points)]

00007926 00000000 624.35 112.90 362.89 564.65 783.32 331.64 922.62 359.00 876.30 447.84 773.38 519.19 895.85 542.44
00007927 DELETE   622.56 111.86 363.78 560.63 782.73 330.84 924.25 356.37 877.14 447.58 776.06 517.77 899.70 539.38
00007928 DELETE   622.43 113.95 363.64 557.43 780.56 333.13 922.51 356.21 874.18 448.00 775.88 517.31 899.07 536.92
00007929 00000003 624.52 115.02 363.14 553.04 784.89 335.01 923.45 356.24 875.21 450.87 781.86 519.34 897.73 537.63
00007930 DELETE   626.88 115.63 362.39 555.33 791.88 338.30 928.08 359.66 882.80 452.23 789.77 523.97 901.88 542.07
00007931 DELETE   630.04 117.44 360.97 556.08 794.04 341.56 931.42 360.09 887.57 453.88 795.04 528.66 906.63 544.38
00007932 DELETE   631.46 122.81 363.44 550.88 794.38 345.99 937.37 363.21 889.94 456.41 794.95 529.49 910.75 544.12
00007933 00000007 637.18 125.98 360.60 548.95 796.68 350.84 939.75 366.74 891.73 460.74 797.78 531.56 914.48 545.06
00007934 00000008 636.73 130.43 363.16 550.62 800.84 353.16 941.60 368.75 896.89 461.58 800.89 537.07 914.45 550.31
00007935 00000009 638.65 132.73 365.30 557.25 802.45 355.05 944.02 371.75 899.65 463.43 802.44 540.90 919.56 554.83
00007936 00000010 647.31 138.86 363.34 549.89 803.32 349.17 946.90 363.83 899.70 462.36 804.01 542.46 915.05 555.68
00007937 00000011 647.38 138.07 365.15 550.21 802.32 350.96 947.64 364.71 899.89 464.17 804.62 544.42 916.42 556.83
00007938 00000012 646.95 138.76 365.34 550.58 802.67 351.77 947.71 365.76 900.31 464.81 804.43 544.84 917.00 557.39
00007939 00000013 647.17 139.62 363.53 549.61 801.47 352.41 947.58 365.81 900.42 465.33 803.79 545.26 917.62 557.42
00007940 00000014 646.14 139.54 362.89 549.33 800.59 353.78 946.79 366.33 900.32 465.90 803.26 546.50 917.24 557.94
00007941 00000015 646.52 139.92 361.26 549.68 800.74 353.92 946.80 365.26 901.56 465.90 805.65 549.01 916.77 559.44
00007942 00000016 639.71 134.83 359.86 552.73 798.08 364.79 942.84 375.27 898.33 468.42 812.07 554.84 921.46 563.65
00007943 00000017 639.96 132.73 356.56 553.12 796.17 366.65 939.51 375.00 895.30 469.11 813.29 555.63 920.89 562.54
00007944 00000018 636.04 130.37 358.37 551.75 794.22 367.07 938.47 374.31 893.20 470.17 813.33 556.67 918.97 562.60
00007945 00000019 633.57 129.22 360.27 553.65 793.60 366.45 938.12 374.32 892.63 470.49 812.56 556.48 918.68 562.84
00007946 00000020 632.23 129.49 362.32 563.00 793.31 364.85 938.89 375.74 893.08 470.68 803.86 555.43 915.72 564.54
00007947 00000021 631.35 130.18 361.37 566.03 794.47 361.72 938.30 374.08 893.15 469.99 802.06 553.66 914.70 563.86
00007948 00000022 632.37 131.29 360.75 562.85 794.69 360.83 938.84 374.24 893.41 469.68 799.66 550.25 915.02 561.39
00007949 00000023 633.48 131.54 360.48 560.94 795.34 360.81 939.63 374.54 893.89 469.48 799.00 548.66 915.15 560.10
00007950 00000024 633.34 131.92 361.27 555.55 795.55 360.75 940.68 374.61 893.83 469.20 798.98 545.67 915.81 557.17
00007951 00000025 634.95 132.25 360.45 552.37 795.59 361.47 940.91 375.47 893.24 469.04 798.52 543.94 915.42 555.68
00007952 00000026 634.73 131.40 361.54 551.42 795.29 361.48 940.95 375.40 892.94 468.73 798.41 542.99 915.35 554.74
00007953 00000027 634.83 131.43 361.40 553.94 795.82 361.83 940.82 375.79 893.42 469.39 797.95 543.92 914.80 555.71
00007954 00000028 636.10 132.09 361.37 555.09 794.67 362.42 941.96 376.45 893.31 470.13 797.57 545.91 916.56 557.65
00007955 00000029 636.87 133.25 360.61 555.38 794.01 363.13 942.90 377.44 893.54 470.79 797.86 547.46 917.89 559.39
00007956 00000030 637.68 133.76 360.27 556.22 794.17 363.40 943.11 377.85 894.06 471.06 797.63 547.42 918.65 559.49
00007957 00000031 639.20 134.04 359.29 556.88 794.59 363.92 943.28 378.12 894.81 470.97 797.73 547.46 919.65 559.32
00007958 00000032 638.71 134.78 360.33 558.53 795.28 364.43 943.72 378.88 895.67 472.04 798.19 548.43 920.33 560.46
00007959 00000033 637.89 136.68 360.19 558.36 794.94 365.23 943.42 379.35 895.91 472.61 798.11 549.42 920.63 561.15
00007960 00000034 637.13 137.52 360.79 558.20 795.32 364.90 943.45 379.14 896.06 472.67 798.09 549.49 920.12 561.31
00007961 00000035 637.44 136.80 361.30 558.88 794.38 365.44 943.72 378.83 895.81 473.00 798.05 550.09 921.28 561.18
00007962 00000036 638.35 137.47 360.80 557.99 795.45 365.55 944.00 379.07 896.54 473.46 798.63 549.31 921.60 560.49
00007963 00000037 642.67 139.95 358.27 556.78 797.77 355.64 941.88 366.24 895.88 469.90 801.65 550.42 912.24 560.36
00007964 00000038 644.44 140.71 356.72 556.03 797.51 356.20 942.27 366.72 896.06 469.85 802.11 550.99 912.44 560.83
00007965 00000039 645.23 139.54 355.93 552.08 797.69 357.82 942.73 366.28 898.93 468.08 805.64 551.33 916.41 559.46
00007966 00000040 641.05 137.95 358.70 546.18 797.01 368.58 944.46 378.26 897.29 473.40 807.05 551.28 922.19 559.52
00007967 00000041 645.38 141.51 361.68 548.46 800.34 358.40 945.77 366.66 902.54 467.67 808.77 550.59 919.40 558.40
00007968 00000042 647.31 143.86 364.44 547.66 804.40 357.60 947.60 367.46 904.53 468.09 808.89 545.72 923.18 554.92
00007969 00000043 648.66 143.31 368.28 551.87 806.37 356.03 951.16 366.43 907.51 470.83 806.16 540.94 930.80 550.61
00007970 00000044 649.56 141.65 370.72 556.95 800.67 363.01 952.33 372.94 903.55 472.16 800.17 543.52 932.92 552.97
00007971 DELETE   646.49 144.54 368.76 550.58 797.85 369.38 945.36 378.59 897.89 472.77 800.99 548.67 923.02 557.58
00007972 00000046 642.67 144.79 363.00 559.97 796.61 366.13 942.21 376.54 896.31 470.57 805.84 557.60 915.95 566.91
00007973 00000047 647.02 142.37 360.38 565.19 800.27 366.05 942.39 376.04 901.24 472.07 817.39 564.69 917.79 573.54
00007974 00000048 650.52 144.09 357.49 557.66 808.00 368.47 943.06 373.64 908.87 472.31 832.24 567.45 923.48 571.95
00007975 00000049 651.95 139.83 357.01 563.99 809.26 364.43 945.01 369.89 911.57 470.01 835.29 567.38 926.60 572.19
00007976 00000050 651.35 139.39 358.76 562.34 806.77 363.23 944.36 369.26 908.93 467.49 832.51 565.60 924.85 570.75
00007977 00000051 653.09 141.29 360.19 557.62 808.35 362.71 948.82 370.33 911.62 471.23 830.63 562.59 927.53 569.15
00007978 00000052 655.66 142.39 362.50 556.36 809.87 363.31 952.77 372.57 913.77 473.43 827.03 558.12 934.29 565.76
00007979 00000053 656.58 143.21 364.55 558.46 810.43 363.72 954.62 374.70 913.72 477.27 821.94 558.91 933.78 568.14
00007980 00000054 658.20 143.49 364.22 558.49 811.20 364.65 956.18 376.37 915.32 478.58 822.32 559.13 936.73 568.90
00007981 00000055 658.49 144.59 364.14 563.62 814.95 370.44 957.40 381.44 919.27 479.12 831.01 565.86 939.12 575.13
00007982 DELETE   660.32 149.03 363.24 558.98 820.13 377.52 959.97 385.19 924.65 483.05 839.34 573.00 941.87 580.05
00007983 00000057 660.68 151.98 362.19 554.79 816.24 381.87 959.48 386.34 923.08 486.46 838.20 575.09 944.94 579.16
00007984 00000058 656.46 152.72 365.33 558.25 812.64 382.63 955.92 386.95 917.52 489.20 832.07 574.99 940.79 578.64
00007985 00000059 655.01 153.61 365.35 557.43 811.01 383.16 954.47 388.05 915.08 490.50 827.61 574.58 937.47 578.76
00007986 00000060 656.75 155.66 366.01 558.54 814.03 382.83 957.73 389.04 917.67 493.65 825.38 574.43 938.29 580.01
00007987 00000061 661.19 156.45 363.01 559.34 819.81 383.67 961.10 391.21 923.55 494.42 824.97 572.48 940.89 579.72
00007988 00000062 665.24 156.68 361.42 550.90 820.44 384.71 965.06 390.95 925.82 495.53 826.96 570.70 945.24 576.88
00007989 00000063 662.64 155.94 362.21 551.60 817.64 384.20 961.74 390.63 922.56 495.51 826.07 570.61 943.13 576.95
00007990 00000064 654.95 151.91 366.71 562.71 810.71 381.13 954.96 388.90 914.11 489.16 823.18 572.72 936.54 579.35
00007991 00000065 651.43 150.88 365.60 562.70 807.67 379.68 947.31 387.56 908.02 484.34 828.56 576.15 927.88 582.76
00007992 00000066 651.78 150.11 362.45 560.50 805.92 380.49 946.02 386.48 906.57 486.75 831.15 579.98 926.94 584.89
00007993 DELETE   655.06 151.76 363.71 557.15 809.17 382.67 950.41 387.57 911.76 488.66 836.31 581.10 933.26 585.02
00007994 00000068 661.43 149.92 359.95 551.83 812.17 383.17 956.34 385.00 918.90 490.06 839.39 579.57 940.55 581.33
00007995 00000069 659.59 148.72 362.95 558.89 810.93 381.41 955.30 385.29 916.03 490.19 833.21 577.92 938.09 581.26
00007996 00000070 655.60 149.67 364.97 557.60 807.54 378.35 953.21 384.62 911.83 486.91 828.14 574.86 934.19 580.06
00007997 00000071 653.76 149.17 364.77 559.74 806.88 376.00 951.18 383.69 909.61 486.34 821.22 570.77 930.04 577.31
00007998 00000072 651.87 149.42 364.76 562.27 806.68 373.53 950.46 382.10 910.34 484.59 816.84 566.06 930.65 573.50
00007999 00000073 648.97 150.56 364.15 561.17 806.51 371.66 946.93 380.11 907.95 484.02 814.30 563.77 925.44 571.35
00008000 00000074 647.03 148.96 363.71 562.82 804.58 369.95 945.20 379.34 905.68 481.66 809.96 560.90 922.76 569.40
00008001 00000075 647.47 148.25 362.73 561.73 803.70 368.98 945.15 378.61 904.97 480.89 807.73 558.72 922.87 567.59
00008002 00000076 648.16 148.11 361.99 559.56 803.15 369.16 944.93 377.33 904.70 480.72 808.19 558.58 923.07 566.26
00008003 00000077 647.91 146.75 361.75 559.74 803.29 368.85 944.80 376.37 905.53 479.95 809.05 558.42 923.22 565.62
00008004 00000078 646.14 146.65 361.88 561.53 804.16 369.43 944.32 376.72 905.93 480.22 810.82 559.68 922.49 566.53
00008005 00000079 645.80 145.72 359.88 560.07 802.13 370.42 943.27 375.38 904.21 480.10 811.36 561.54 921.56 566.44
00008006 00000080 645.41 147.12 354.90 552.84 805.93 376.08 951.77 387.35 912.98 488.50 812.01 556.57 932.72 568.66
00008007 00000081 641.08 146.21 354.96 552.30 803.43 377.70 948.48 387.28 909.62 489.75 811.06 556.97 930.41 567.45
00008008 00000082 636.51 144.59 355.90 556.24 801.56 378.78 946.06 387.81 907.28 489.96 810.26 559.55 927.16 569.77
00008009 00000083 633.04 144.31 354.94 563.04 792.20 373.10 929.09 373.59 891.83 481.43 814.82 569.71 912.69 570.22
00008010 00000084 626.05 141.22 359.79 566.70 790.00 379.75 931.76 382.28 891.43 486.80 811.84 569.01 923.97 570.25
00008011 00000085 623.34 140.84 360.97 564.84 785.79 380.96 931.35 381.92 890.47 485.59 807.50 568.05 923.75 568.35
00008012 00000086 621.76 142.40 362.34 562.12 782.22 380.62 930.12 380.66 888.24 484.97 802.92 566.47 922.49 566.26
00008013 00000087 619.85 142.83 362.81 564.51 779.56 379.73 927.96 380.00 886.82 484.31 799.20 566.43 919.79 566.74
00008014 00000088 619.62 143.75 362.69 563.48 778.20 379.45 926.48 379.13 885.44 484.69 798.42 565.84 918.86 565.75
00008015 00000089 619.19 143.68 363.13 562.86 777.07 379.93 925.96 379.17 884.32 485.15 796.88 564.55 919.15 564.07
00008016 00000090 619.66 144.04 362.42 561.82 778.48 379.15 926.24 378.76 884.97 484.51 797.34 563.55 918.70 563.38
00008017 00000091 619.85 144.16 362.07 560.83 778.95 377.69 925.32 377.92 883.70 484.53 795.92 561.68 916.09 562.12
00008018 00000092 620.05 144.35 361.17 561.97 779.53 376.81 925.23 377.35 884.04 484.25 795.99 561.31 916.13 561.90
00008019 00000093 619.88 143.54 362.17 561.39 779.73 376.77 925.35 377.38 883.85 484.47 795.66 560.43 915.88 561.15
00008020 00000094 620.35 142.46 362.15 561.71 780.26 376.88 925.22 377.65 883.63 484.35 795.48 559.86 915.46 560.68
00008021 00000095 620.62 142.01 362.00 560.41 780.61 376.49 925.54 377.66 883.39 484.55 795.50 559.22 915.07 560.35
00008022 00000096 621.35 140.76 361.68 561.77 781.58 375.93 927.23 378.78 884.43 483.64 796.42 559.50 916.11 561.84
00008023 00000097 620.80 137.72 362.54 570.19 784.14 375.83 926.95 378.43 886.90 482.17 803.53 565.78 917.62 567.66
00008024 00000098 622.13 137.07 361.13 566.89 787.48 376.46 928.24 378.69 889.12 482.26 809.98 566.71 919.46 567.98
00008025 00000099 624.14 138.79 359.34 564.34 788.88 375.39 929.98 378.80 891.27 481.50 808.83 564.36 920.36 566.53
00008026 00000100 627.27 138.88 356.50 563.28 794.90 372.69 935.80 382.05 899.31 483.92 808.31 557.48 919.99 567.96
00008027 00000101 624.39 140.51 360.00 560.91 787.04 374.27 931.55 379.02 890.47 481.76 801.67 560.08 919.54 563.66
00008028 00000102 626.36 140.49 356.67 558.47 794.03 372.05 934.07 381.79 897.30 485.70 802.60 553.78 917.88 564.66
00008029 00000103 624.52 140.56 359.95 557.39 785.68 373.72 931.75 379.33 888.89 481.85 798.62 556.43 918.71 560.71
00008030 00000104 624.40 140.22 359.91 557.22 786.31 372.68 931.73 378.24 889.29 480.52 797.69 554.97 917.80 559.29
00008031 00000105 624.03 139.68 360.57 558.06 786.43 372.21 932.42 377.78 890.40 478.57 798.19 554.91 918.82 559.17
00008032 00000106 627.09 139.76 356.86 559.44 794.35 369.24 935.34 380.34 897.00 481.96 798.14 549.55 917.64 561.43
00008033 00000107 626.93 140.10 356.65 558.78 793.63 369.63 935.62 380.51 896.97 482.39 798.09 550.77 918.13 562.41
00008034 00000108 626.80 139.73 356.58 557.24 792.84 370.16 935.52 381.07 896.67 481.92 797.68 550.90 918.03 562.49
00008035 00000109 626.95 139.75 356.73 558.57 792.99 370.33 935.62 381.09 896.90 482.40 798.41 552.05 917.93 563.61
00008036 00000110 627.24 140.22 355.64 557.28 793.27 370.91 935.63 381.31 897.25 483.08 799.26 552.28 918.22 563.61
00008037 00000111 627.10 139.77 355.67 558.79 793.97 371.26 935.64 381.98 897.77 483.70 800.50 552.71 918.18 564.33
00008038 00000112 627.29 140.00 355.76 557.06 794.41 371.51 936.02 382.42 897.86 484.59 800.79 552.40 917.99 564.22
00008039 00000113 627.69 140.69 354.98 556.48 794.06 371.13 936.07 382.12 897.89 484.38 800.50 552.59 918.52 564.40
00008040 00000114 627.62 139.98 355.33 556.85 793.70 371.28 935.89 382.35 897.56 484.32 800.14 552.57 918.10 564.42
00008041 00000115 627.99 139.16 355.86 556.62 793.30 371.27 935.81 382.22 896.93 483.23 799.63 552.51 917.82 564.22
00008042 00000116 627.87 139.38 354.92 556.25 793.45 369.90 935.08 380.86 896.72 482.90 799.81 551.38 917.85 563.07
00008043 00000117 628.26 139.11 354.27 554.58 792.79 369.56 934.76 380.68 896.15 481.76 799.00 550.58 917.53 562.31
00008044 00000118 624.49 136.07 358.89 551.26 786.38 370.92 932.61 376.45 888.44 478.91 800.51 555.16 915.94 559.69
CROP_BBOX: 409 0 1255 836
