Video ID: 	DhSPylnsadY
H: 	1080
W: 	1920
FPS: 	29.97002997002997

FRAME INDEX X0 Y0 W H [Landmarks (5 Points)]

00017227 00000000 799.37 309.57 420.55 549.61 839.74 448.15 951.09 482.57 785.34 585.42 852.88 666.45 960.56 689.32
00017228 00000001 802.95 307.96 417.33 549.96 843.06 449.74 952.96 483.47 788.86 584.38 854.60 665.38 962.54 688.00
00017229 00000002 803.80 303.25 419.92 551.38 842.42 448.95 953.28 481.76 788.81 585.34 855.10 665.41 963.86 687.01
00017230 00000003 803.01 295.65 422.85 556.33 839.68 447.29 955.80 479.35 789.39 585.88 855.28 665.17 966.74 686.04
00017231 00000004 803.26 295.32 421.14 555.57 840.03 447.82 955.62 480.06 789.76 585.60 855.46 664.49 966.38 685.57
00017232 00000005 801.59 293.19 423.65 558.53 840.25 445.49 955.16 478.71 788.93 584.09 854.87 663.89 964.86 685.79
00017233 00000006 800.43 299.13 422.68 552.53 839.62 446.67 952.06 480.02 787.62 583.01 853.22 663.27 961.54 685.30
00017234 00000007 797.52 296.40 423.92 556.67 837.38 440.99 949.20 475.77 783.45 581.10 850.81 662.79 957.77 685.87
00017235 00000008 795.45 298.43 424.20 555.19 838.24 439.28 948.48 478.10 781.41 581.86 849.85 661.15 956.00 687.41
00017236 00000009 795.23 304.93 421.12 549.47 837.81 439.11 946.98 477.10 780.57 581.40 846.98 661.57 952.45 686.90
00017237 00000010 793.17 301.64 419.69 556.38 832.77 435.51 941.97 472.50 775.80 579.00 842.94 662.39 948.04 686.64
00017238 00000011 790.78 305.54 421.39 554.42 828.49 440.05 942.57 476.33 771.76 579.31 837.85 664.10 943.80 687.75
00017239 00000012 787.19 303.60 420.67 558.97 820.17 441.71 942.71 476.30 773.89 579.69 831.09 666.69 942.69 689.75
00017240 00000013 781.43 301.47 418.92 561.63 814.93 442.67 936.15 478.65 771.89 580.33 827.59 666.74 939.44 690.90
00017241 00000014 777.44 290.19 414.80 569.97 811.10 441.40 933.04 479.10 768.66 581.01 824.23 664.83 939.86 690.54
00017242 00000015 769.97 281.63 421.11 575.09 804.59 444.17 930.59 481.09 764.19 580.82 819.36 664.12 937.61 689.49
00017243 DELETE   762.06 281.00 423.61 572.29 798.10 439.06 925.04 476.16 761.21 579.95 815.56 661.02 931.55 687.35
00017244 00000017 757.56 279.81 421.58 571.92 792.66 441.09 919.45 476.59 757.90 581.44 812.93 660.31 928.48 685.30
00017245 DELETE   753.54 284.15 420.24 567.51 784.68 442.72 909.27 473.19 752.04 582.27 809.73 663.19 921.90 684.00
00017246 00000019 744.89 255.34 420.75 584.31 777.02 438.04 909.23 473.11 750.05 589.70 813.80 662.29 920.45 686.35
00017247 00000020 741.11 260.99 414.36 576.49 772.25 442.36 901.91 477.34 749.77 588.44 807.61 658.64 916.68 682.45
00017248 00000021 733.01 272.16 424.64 566.09 764.82 449.59 891.02 479.58 741.59 588.09 802.30 658.89 909.60 677.86
00017249 DELETE   726.53 251.62 424.66 584.60 758.72 445.61 882.96 478.42 734.15 585.49 793.59 652.21 902.47 674.54
00017250 00000023 721.33 277.08 424.59 562.08 762.51 439.81 879.16 474.57 714.30 578.68 774.61 655.71 886.36 679.38
00017251 DELETE   720.43 276.16 422.76 562.47 755.89 436.55 873.32 470.37 705.32 576.62 769.97 654.43 882.49 676.73
00017252 DELETE   717.63 236.84 421.04 599.29 751.48 437.35 871.50 467.16 702.43 573.82 765.22 657.44 879.04 676.97
00017253 00000026 716.10 254.70 419.00 579.88 752.23 434.66 867.65 467.03 700.85 572.23 764.81 652.98 877.58 674.39
00017254 00000027 714.50 258.11 416.19 573.48 753.23 433.45 869.26 464.70 704.73 568.31 764.34 648.30 878.82 669.06
00017255 00000028 712.85 252.06 414.30 573.59 749.28 431.48 872.32 464.24 704.37 567.54 758.90 643.18 878.27 665.97
00017256 00000029 708.79 242.63 413.45 575.89 741.02 426.18 871.04 455.01 704.30 564.68 761.00 641.44 877.35 661.34
00017257 00000030 708.52 249.24 412.27 565.26 742.05 422.90 869.84 452.73 704.82 559.98 760.29 637.26 873.64 657.68
00017258 00000031 709.62 245.20 410.27 567.42 742.10 418.09 872.09 448.68 704.80 554.20 756.28 632.94 871.06 654.21
00017259 DELETE   703.53 251.23 416.16 558.16 736.48 412.45 868.98 445.41 700.34 553.98 754.19 627.86 871.37 650.46
00017260 DELETE   703.60 233.77 416.73 574.18 732.79 407.12 868.95 436.95 697.41 547.44 749.24 625.09 870.08 645.50
00017261 00000034 702.07 220.32 419.84 584.93 731.67 403.86 867.63 430.39 697.90 541.89 748.19 619.52 869.15 637.56
00017262 00000035 703.08 204.43 420.22 592.90 728.94 396.17 866.48 424.91 696.62 538.30 744.92 612.33 870.73 632.23
00017263 00000036 699.81 201.36 422.80 591.56 727.98 388.81 863.37 420.74 692.05 526.36 743.85 604.20 867.16 626.64
00017264 00000037 698.42 221.75 421.34 567.87 732.56 383.25 862.99 415.18 699.67 516.81 748.37 599.78 865.80 621.94
00017265 DELETE   694.96 207.90 420.97 574.58 729.57 380.76 858.97 412.98 697.37 514.38 747.38 596.22 863.40 618.67
00017266 DELETE   695.75 214.23 418.34 567.06 732.95 376.26 853.92 410.49 695.87 511.65 750.03 593.64 863.16 617.21
00017267 00000040 692.52 216.90 418.61 561.32 729.56 374.52 851.27 408.10 692.79 511.24 747.75 592.08 862.13 615.15
00017268 00000041 688.02 198.10 420.90 576.26 725.33 373.04 848.08 405.45 690.46 510.38 744.02 589.53 857.89 612.59
00017269 00000042 684.31 184.59 425.09 585.05 720.85 373.84 849.08 404.19 687.46 511.55 741.11 588.25 858.34 610.49
00017270 00000043 684.26 179.84 423.62 588.87 720.94 373.88 846.17 400.96 686.86 508.94 742.12 588.07 856.25 607.70
00017271 00000044 683.09 187.68 423.63 581.20 719.20 372.60 846.08 399.71 687.38 508.32 741.86 587.50 856.23 607.22
00017272 00000045 684.33 179.96 421.57 586.98 721.08 370.39 846.66 397.76 688.63 505.81 741.60 585.55 854.89 605.76
00017273 00000046 684.63 191.38 420.10 573.73 720.67 370.22 847.05 396.90 690.51 507.06 742.49 584.58 856.62 603.84
00017274 00000047 686.22 192.58 418.12 571.32 722.36 367.12 847.60 394.28 691.81 505.42 742.86 582.30 857.41 601.72
00017275 00000048 685.38 188.40 419.53 572.29 718.96 365.84 850.32 392.32 692.13 505.73 740.82 581.18 858.99 600.25
00017276 DELETE   682.23 183.61 423.46 574.12 715.50 364.83 853.78 391.29 691.36 504.84 737.03 578.58 860.35 598.05
00017277 00000050 682.14 179.89 424.58 574.57 715.22 365.16 853.22 390.42 690.90 504.81 738.80 578.85 860.08 597.65
00017278 00000051 684.36 174.64 423.21 578.56 716.53 363.43 854.47 388.45 692.28 503.55 740.22 578.57 861.70 597.18
00017279 00000052 686.40 170.82 422.60 581.72 718.02 362.28 855.83 388.27 692.38 502.83 741.15 578.26 862.55 597.46
00017280 00000053 691.45 171.02 419.16 583.21 721.96 360.05 858.12 386.38 695.01 500.29 743.27 578.86 863.99 598.15
00017281 00000054 696.54 163.88 416.35 586.55 725.54 361.28 859.37 387.48 694.78 499.14 744.36 578.65 864.11 597.62
00017282 00000055 697.62 160.82 417.61 589.50 729.41 359.00 861.83 386.13 696.07 497.41 746.29 577.79 866.12 597.23
00017283 00000056 696.77 146.36 408.95 603.45 716.69 359.65 848.45 383.94 702.42 502.68 753.19 584.72 873.18 600.56
00017284 00000057 696.16 149.47 411.50 598.17 717.75 360.24 848.24 383.12 703.36 501.80 754.59 583.00 874.56 597.63
00017285 00000058 699.93 163.03 421.69 583.25 732.10 358.07 867.36 381.63 702.39 495.30 750.95 575.29 870.58 591.50
00017286 00000059 700.89 155.56 412.88 588.06 722.36 354.89 855.41 382.51 709.71 500.78 758.64 576.04 881.02 594.32
00017287 00000060 703.83 177.17 420.75 567.71 739.00 352.92 868.58 378.81 703.68 493.10 757.52 571.37 873.23 588.72
00017288 00000061 702.74 158.75 416.42 583.73 728.80 350.98 860.72 382.10 714.31 495.78 762.27 571.88 884.07 592.49
00017289 00000062 704.39 149.08 423.36 593.40 730.00 348.92 863.21 378.39 716.64 493.04 763.55 572.45 883.56 592.07
00017290 00000063 705.31 150.27 424.64 592.72 730.01 349.55 864.75 376.94 719.15 492.75 764.55 572.16 885.29 590.23
00017291 00000064 709.26 148.81 421.19 592.86 734.19 350.10 868.85 377.76 721.36 493.66 767.45 571.46 889.53 590.01
00017292 00000065 700.37 155.69 431.35 588.15 736.68 332.55 880.06 365.55 722.49 485.33 771.41 558.23 883.30 581.84
00017293 00000066 702.30 157.27 432.90 586.57 738.53 330.17 882.39 363.87 723.66 484.26 774.10 556.67 886.99 580.91
00017294 00000067 714.01 149.05 419.74 590.56 737.60 344.90 867.68 374.22 720.78 495.47 775.25 568.49 894.17 587.96
00017295 00000068 715.86 138.29 417.18 600.34 739.08 339.56 869.90 372.31 721.42 495.85 775.22 566.06 896.75 588.67
00017296 00000069 717.36 136.77 413.96 599.07 739.65 338.85 868.79 372.19 720.13 497.69 777.26 565.79 896.88 588.80
00017297 00000070 718.32 138.41 412.74 596.10 740.42 334.69 870.20 368.32 718.44 494.16 777.81 563.48 896.98 586.81
00017298 00000071 719.92 126.83 416.52 607.84 742.42 335.07 872.00 366.95 718.92 492.88 779.46 564.56 896.52 586.74
00017299 00000072 718.95 133.33 419.11 599.59 743.35 336.00 873.07 365.93 721.98 492.01 780.56 564.40 896.67 585.23
00017300 00000073 719.00 135.19 419.73 597.10 743.99 338.42 873.01 367.00 723.71 491.32 781.80 563.88 896.89 583.65
00017301 00000074 714.98 158.00 434.63 578.50 752.81 333.50 884.46 365.38 711.68 480.50 773.72 554.29 888.67 575.49
00017302 00000075 715.27 149.56 434.58 584.74 749.21 334.71 885.52 364.26 711.64 479.94 770.55 556.00 889.98 575.56
00017303 00000076 715.46 154.28 434.82 579.25 750.25 333.97 887.09 363.44 712.50 478.56 771.12 553.70 891.62 573.05
00017304 00000077 716.34 146.76 431.44 585.81 748.51 331.97 888.23 362.58 713.12 477.77 767.59 551.94 890.89 572.54
00017305 00000078 717.60 148.90 431.57 582.47 750.29 332.48 887.98 361.13 713.18 474.91 768.36 551.98 890.09 570.95
00017306 00000079 717.16 150.08 431.29 579.89 750.44 332.79 886.58 361.14 713.18 475.64 769.45 551.32 890.73 569.82
00017307 00000080 718.78 144.12 429.25 585.34 750.86 331.52 886.98 361.39 711.41 474.92 768.91 550.17 890.32 569.99
00017308 00000081 717.83 147.05 429.73 583.01 751.00 330.71 886.18 360.00 710.10 474.76 769.35 550.59 889.80 569.86
00017309 00000082 717.56 152.88 429.54 576.36 752.34 332.00 885.42 361.35 710.52 474.36 769.88 549.85 888.41 569.19
00017310 00000083 717.57 149.59 427.92 579.91 752.07 332.02 884.77 359.24 711.41 471.39 769.38 550.26 887.81 568.00
00017311 00000084 717.53 144.51 426.89 585.29 751.63 331.33 884.26 358.12 710.77 471.12 768.17 550.65 886.97 568.15
00017312 00000085 718.87 141.77 426.72 587.34 752.09 331.46 884.12 358.02 710.32 470.59 768.54 551.32 887.08 568.52
00017313 00000086 717.66 122.71 420.85 600.46 741.65 335.60 873.62 359.95 723.54 482.36 778.99 558.28 894.57 574.89
00017314 00000087 718.58 139.14 427.17 590.55 751.57 332.79 883.66 359.16 710.66 473.40 770.85 553.02 888.64 570.00
00017315 00000088 720.08 139.25 426.55 590.98 752.68 332.93 883.71 359.69 709.82 474.91 771.58 554.05 888.89 571.22
00017316 00000089 719.81 138.96 426.97 591.55 753.12 335.09 883.10 361.84 709.57 477.82 773.26 555.34 889.37 572.40
00017317 00000090 720.27 145.48 427.45 585.75 753.74 336.50 883.20 362.87 710.42 478.35 774.27 557.18 889.25 574.12
00017318 00000091 721.95 144.24 426.76 586.30 753.36 336.53 885.69 363.14 712.16 477.87 773.97 557.28 891.43 574.54
00017319 00000092 724.49 135.65 425.01 593.69 754.87 336.56 888.26 363.65 714.15 478.33 774.73 557.64 893.78 575.17
00017320 00000093 726.15 145.12 424.36 586.43 757.94 338.30 888.99 364.06 716.85 478.41 777.26 559.00 894.96 575.53
00017321 00000094 726.98 141.96 425.35 589.09 758.51 336.35 889.49 364.37 718.01 478.48 777.73 557.28 895.66 575.45
00017322 00000095 730.36 129.82 419.23 605.26 755.76 338.81 882.22 365.10 738.60 488.49 791.57 566.58 901.44 584.63
00017323 00000096 731.11 126.37 418.66 611.20 758.77 341.94 880.96 368.57 739.44 490.97 795.13 568.18 901.85 586.55
00017324 00000097 732.33 130.60 415.68 607.74 758.22 344.26 881.05 369.47 741.04 493.01 796.50 569.77 904.07 586.81
00017325 00000098 731.51 146.86 419.01 592.39 763.33 347.15 884.81 373.45 744.10 492.93 798.62 570.45 905.51 587.87
00017326 00000099 732.23 142.85 416.26 598.35 760.68 351.23 884.78 374.46 744.50 493.70 796.81 573.12 907.29 587.96
00017327 00000100 731.35 140.60 417.03 602.26 757.78 355.71 883.90 377.48 745.37 495.02 794.02 574.29 908.83 587.97
00017328 00000101 731.40 137.76 419.48 608.02 756.22 361.23 885.42 381.26 746.29 494.67 791.97 575.81 910.09 587.78
00017329 00000102 732.99 144.14 421.46 605.54 758.66 363.74 888.51 380.41 749.77 498.30 794.30 581.57 911.34 590.71
00017330 00000103 733.46 164.23 423.96 584.05 758.98 369.40 894.66 391.38 747.90 502.78 791.55 578.37 899.49 593.33
00017331 00000104 735.21 164.29 422.16 585.41 759.90 372.34 893.05 392.65 748.76 505.28 792.91 583.18 899.40 597.05
00017332 00000105 736.51 172.76 418.63 578.10 761.94 377.65 890.88 396.42 749.82 509.93 796.80 588.12 898.66 600.41
00017333 00000106 734.50 165.70 421.44 587.24 758.79 380.19 890.35 399.10 750.59 512.61 795.43 590.52 899.68 603.20
00017334 00000107 735.36 161.85 420.32 595.34 758.11 378.95 893.01 399.17 749.69 513.01 794.84 592.32 899.83 605.99
00017335 00000108 734.02 169.13 421.05 588.08 757.84 381.12 891.10 401.58 748.35 514.79 795.29 593.82 899.18 607.47
00017336 00000109 733.49 172.67 421.18 584.40 758.26 380.97 891.96 402.52 748.41 516.43 796.25 594.00 901.71 608.28
00017337 00000110 733.05 171.00 423.34 586.41 759.10 378.20 893.91 402.97 748.84 516.75 796.52 592.68 902.20 609.50
00017338 00000111 732.32 178.44 426.28 579.54 758.93 381.02 891.83 404.15 748.62 518.53 798.06 597.20 900.52 612.40
00017339 00000112 732.38 181.99 424.64 577.69 758.31 379.92 891.07 403.93 747.21 519.05 798.20 596.74 901.54 612.48
00017340 00000113 733.24 189.63 425.03 573.10 759.70 379.83 893.78 404.78 746.53 519.35 798.69 598.19 903.15 614.26
00017341 00000114 733.80 198.82 424.66 564.43 758.97 383.82 892.78 405.89 746.67 520.18 797.78 602.88 901.01 616.49
00017342 00000115 734.30 200.80 422.01 564.51 761.06 385.00 891.77 408.68 744.82 520.83 799.18 603.87 900.64 618.80
00017343 00000116 732.48 197.78 424.19 571.67 759.35 390.71 889.68 409.97 742.95 522.40 798.63 608.22 899.53 619.79
00017344 00000117 731.12 201.25 423.00 570.19 756.82 393.39 887.65 410.76 742.90 522.58 794.27 610.05 897.40 620.29
00017345 00000118 731.13 204.37 418.70 570.67 757.94 397.89 889.02 415.15 747.15 523.25 794.26 610.64 899.88 620.74
00017346 00000119 730.89 197.47 420.33 579.93 756.27 399.24 889.61 416.64 748.10 525.21 792.84 613.79 898.84 624.33
00017347 00000120 735.61 224.55 412.39 556.13 766.40 398.09 898.74 418.21 739.32 524.41 782.61 608.79 901.67 621.83
00017348 00000121 729.84 199.50 421.22 580.56 753.53 402.90 890.99 420.90 748.24 532.32 789.82 618.84 900.44 630.21
00017349 00000122 728.55 209.13 423.97 572.41 753.00 405.42 891.13 421.56 749.72 536.41 789.72 621.97 901.70 631.81
00017350 00000123 729.39 206.45 419.35 576.66 754.17 407.76 890.15 423.92 750.48 538.49 789.54 623.66 901.00 633.87
00017351 00000124 730.49 209.70 419.65 574.85 754.15 410.73 889.91 425.70 750.27 541.53 790.01 626.76 900.40 635.94
00017352 00000125 729.89 194.62 418.55 591.07 752.39 415.44 887.98 428.27 750.02 544.72 788.55 629.14 900.71 637.28
00017353 00000126 729.34 200.25 421.34 586.69 750.90 416.16 889.52 429.51 751.14 546.13 787.22 630.75 901.69 639.28
00017354 00000127 730.69 196.65 421.18 590.84 751.62 416.63 889.44 428.40 752.09 546.14 788.10 632.73 900.97 640.13
00017355 00000128 730.75 199.83 422.53 587.58 752.61 415.34 892.50 430.45 752.13 548.69 788.31 632.15 903.63 642.11
00017356 00000129 731.01 193.75 422.18 595.49 753.23 415.09 891.91 430.90 753.31 549.37 788.35 633.39 902.86 644.13
00017357 00000130 729.80 194.50 424.11 596.75 754.01 417.67 889.42 434.45 751.34 552.58 791.27 634.63 903.97 645.69
00017358 00000131 730.95 194.13 424.39 597.15 755.81 415.35 893.10 435.83 751.59 553.32 790.37 633.83 904.60 647.76
00017359 00000132 731.73 195.38 424.66 597.02 756.89 413.53 894.96 437.32 750.59 554.28 789.46 633.69 904.72 650.20
00017360 00000133 731.29 202.75 424.85 590.48 756.69 416.50 893.04 440.06 751.14 557.67 790.00 635.62 904.57 651.82
00017361 00000134 731.11 207.14 425.85 586.21 756.98 417.36 892.74 442.11 751.37 558.95 790.38 635.65 903.79 652.68
00017362 00000135 731.52 207.88 424.75 586.39 758.60 417.55 891.21 442.89 750.49 559.27 790.71 637.13 902.32 654.69
00017363 00000136 730.83 210.52 422.38 583.76 758.44 416.77 890.02 443.31 750.48 560.36 790.12 637.29 901.65 655.85
00017364 00000137 730.74 212.66 421.77 582.94 758.16 417.31 889.46 443.17 749.95 560.90 790.27 638.40 901.42 656.38
00017365 00000138 729.92 214.45 420.93 582.25 755.53 416.63 888.40 443.23 748.10 562.50 788.69 639.43 900.98 657.91
00017366 00000139 730.66 215.31 422.00 581.94 756.05 418.32 888.84 444.80 748.04 561.53 787.63 640.66 899.48 658.95
00017367 00000140 731.56 219.96 419.51 579.11 757.59 419.20 887.90 446.90 746.07 563.17 788.86 640.75 899.75 659.84
00017368 00000141 731.09 219.62 418.31 578.96 757.54 419.57 886.93 447.66 745.51 563.17 788.38 640.25 898.55 659.65
00017369 00000142 732.40 217.63 413.32 579.82 756.97 418.67 885.99 446.92 746.76 561.89 786.14 639.09 896.56 659.14
00017370 00000143 729.73 215.43 417.52 581.20 756.47 416.74 887.44 447.64 745.11 561.48 785.23 637.57 895.58 659.78
00017371 00000144 728.33 220.84 418.10 573.46 754.59 414.42 888.47 446.01 744.66 558.76 782.27 633.78 896.13 656.68
00017372 00000145 728.04 215.34 418.65 577.50 753.21 414.46 887.71 444.47 744.47 558.45 781.32 633.36 896.03 655.22
00017373 00000146 729.15 204.37 418.68 586.16 752.73 410.86 887.58 440.79 744.32 555.06 781.41 630.90 894.58 652.90
00017374 00000147 728.83 202.61 418.58 586.07 752.83 409.55 885.86 440.90 741.58 556.37 782.62 629.70 894.39 652.81
00017375 00000148 729.75 198.50 414.18 586.88 750.77 410.32 887.03 436.50 745.33 552.85 781.76 628.80 896.53 648.09
00017376 00000149 729.05 194.22 415.00 588.97 748.27 411.70 887.10 434.52 746.62 549.21 777.99 627.19 895.20 644.26
00017377 00000150 730.03 199.75 411.64 581.71 750.80 411.26 885.48 433.43 747.67 548.68 781.66 625.33 895.41 641.58
00017378 00000151 729.21 203.69 413.94 575.97 751.78 411.10 887.01 433.49 748.15 547.29 782.81 623.86 896.11 639.98
00017379 00000152 729.98 208.77 414.60 570.35 752.40 410.52 887.82 431.78 748.53 545.57 783.97 623.39 895.59 638.15
00017380 00000153 731.56 207.47 415.49 569.99 755.11 408.99 891.58 432.00 750.85 544.89 785.69 621.59 897.86 637.69
00017381 00000154 731.97 212.05 422.14 563.95 755.55 403.70 897.03 429.26 751.86 542.25 788.27 618.98 900.95 636.38
00017382 00000155 738.55 207.09 415.95 566.40 767.82 400.85 905.78 427.30 759.16 538.44 795.49 616.36 904.89 634.71
00017383 00000156 741.89 208.31 417.41 567.41 772.14 400.33 906.99 424.12 759.73 535.48 800.07 618.86 904.81 634.82
00017384 00000157 745.69 207.88 411.31 566.21 776.97 395.26 910.17 422.64 763.45 535.55 804.76 614.96 909.44 633.82
00017385 00000158 746.35 199.50 411.16 573.60 776.21 388.87 915.11 419.85 764.22 536.46 803.76 613.37 910.41 635.31
00017386 00000159 743.39 205.88 410.52 566.76 771.39 382.20 917.14 421.43 764.29 533.96 806.05 602.18 906.65 631.18
00017387 00000160 744.86 208.13 411.42 563.07 772.93 380.45 918.42 420.51 764.79 533.97 806.87 601.85 907.19 631.49
00017388 00000161 745.26 205.73 412.16 566.03 771.93 380.86 919.84 419.38 764.94 533.27 806.32 602.55 908.57 630.97
00017389 00000162 746.30 204.01 410.31 567.22 775.21 382.63 920.35 420.55 767.50 532.00 809.17 602.19 909.30 629.99
00017390 00000163 750.28 198.55 408.70 571.96 777.62 383.14 921.07 417.22 768.63 529.65 812.17 604.01 911.16 628.59
00017391 00000164 749.16 192.50 412.49 577.13 777.27 381.23 923.36 414.02 769.52 527.72 811.88 605.31 909.92 628.88
00017392 00000165 749.45 191.93 416.67 578.39 777.37 378.66 927.21 412.28 772.44 527.47 810.86 604.91 911.64 629.16
00017393 00000166 752.58 189.93 415.33 577.41 779.43 380.79 928.91 411.44 773.25 524.64 811.30 605.47 912.62 627.28
00017394 00000167 756.45 190.96 414.01 576.99 784.50 379.04 930.82 410.64 776.15 524.15 814.74 604.94 913.48 627.35
00017395 00000168 756.55 188.74 414.53 577.43 782.51 376.01 929.85 407.99 775.14 523.66 814.53 603.19 913.15 625.81
00017396 00000169 754.46 193.41 417.37 570.45 782.39 370.76 932.13 406.08 777.14 521.46 814.00 599.23 914.35 624.78
00017397 00000170 757.65 204.96 416.18 556.85 784.36 371.96 932.34 405.88 778.60 519.03 815.84 599.57 915.60 623.94
