Video ID: 	igZKgXRSlsA
H: 	1080
W: 	1920
FPS: 	29.97002997002997

FRAME INDEX X0 Y0 W H [Landmarks (5 Points)]

00005029 00000000 783.79 205.87 378.24 513.21 939.18 413.21 1125.22 417.28 1068.94 513.44 970.41 613.86 1099.99 617.38
00005030 DELETE   784.07 205.58 378.09 513.49 939.47 413.15 1125.36 417.00 1069.07 513.49 970.89 613.87 1100.06 617.17
00005031 DELETE   783.81 206.17 378.09 512.72 939.12 413.14 1125.00 417.03 1068.80 513.49 970.64 613.90 1099.81 617.23
00005032 00000003 784.51 205.81 377.56 513.22 939.84 413.27 1125.91 417.54 1069.43 513.13 970.27 613.33 1099.35 617.09
00005033 00000004 784.18 205.44 377.69 513.69 939.82 413.35 1125.72 417.66 1069.39 513.18 970.31 613.34 1099.25 617.10
00005034 00000005 784.37 204.25 377.47 513.82 939.79 413.30 1125.03 417.83 1068.94 512.20 970.02 612.39 1098.74 616.31
00005035 00000006 784.58 202.23 377.27 515.55 939.57 412.53 1124.88 417.57 1068.44 511.46 969.77 611.76 1098.48 616.10
00005036 00000007 784.70 201.88 377.14 515.91 939.68 412.56 1124.77 417.62 1068.38 511.45 969.77 611.73 1098.41 616.09
00005037 00000008 784.68 203.43 377.00 514.47 939.18 412.04 1125.01 417.92 1068.17 511.17 968.75 611.14 1098.48 616.20
00005038 00000009 784.54 203.16 376.96 514.38 938.95 412.28 1124.56 418.09 1067.90 511.02 968.99 611.08 1098.50 616.03
00005039 00000010 784.81 203.80 376.89 513.90 938.84 412.10 1124.60 418.03 1067.55 511.08 968.52 611.07 1098.13 616.17
00005040 00000011 785.16 202.16 376.59 514.52 939.68 412.73 1124.25 417.88 1068.01 511.82 970.20 612.26 1098.46 616.62
00005041 00000012 785.21 202.46 376.61 514.27 939.63 412.60 1124.44 417.68 1068.06 511.86 970.20 612.33 1098.55 616.63
00005042 00000013 785.09 204.12 376.39 512.43 939.82 412.64 1124.44 417.50 1068.15 511.78 970.56 612.00 1098.37 616.09
00005043 00000014 785.34 203.33 376.74 513.67 939.63 412.67 1125.33 417.67 1068.56 511.86 970.51 612.52 1099.06 616.74
00005044 00000015 785.32 203.22 376.93 513.74 939.71 412.62 1125.28 417.33 1068.50 512.07 970.64 612.28 1099.13 616.27
00005045 00000016 785.48 201.93 376.70 514.44 939.75 412.60 1125.20 418.01 1068.44 511.36 970.39 611.74 1099.37 616.24
00005046 00000017 785.43 202.19 376.65 514.05 939.66 412.59 1124.97 417.92 1068.26 511.33 970.41 611.76 1099.17 616.20
00005047 00000018 785.37 202.78 376.57 513.67 939.55 412.53 1124.92 417.92 1068.23 511.37 970.04 611.53 1099.14 616.07
00005048 00000019 785.35 203.77 376.52 512.40 939.47 412.29 1125.11 417.55 1068.33 511.05 970.22 611.58 1099.10 615.99
00005049 00000020 785.49 202.90 376.59 514.11 939.80 412.74 1124.79 417.64 1068.49 511.59 970.33 611.84 1098.95 616.01
00005050 00000021 785.49 204.01 377.03 513.34 939.70 412.56 1125.49 417.58 1068.45 512.17 970.09 612.23 1099.02 616.54
00005051 00000022 785.48 204.61 376.91 512.51 939.78 412.34 1125.28 417.16 1068.34 511.94 970.22 612.17 1098.52 616.30
00005052 00000023 785.46 204.46 376.95 512.68 939.55 412.21 1125.20 417.14 1068.06 512.01 970.25 612.09 1098.62 616.30
00005053 00000024 785.53 202.32 376.61 513.89 939.47 412.34 1124.94 417.76 1068.08 511.25 969.59 612.07 1098.45 616.70
00005054 00000025 785.23 203.58 376.46 512.28 937.86 412.15 1124.30 417.66 1067.12 509.83 969.21 610.93 1099.11 615.62
00005055 00000026 785.64 204.26 375.04 510.71 937.19 410.97 1122.95 417.12 1065.80 507.47 967.38 608.01 1097.75 613.36
00005056 00000027 785.72 204.13 374.99 510.88 937.19 410.91 1123.06 417.14 1065.82 507.46 967.40 608.05 1097.81 613.45
00005057 00000028 785.03 205.96 374.66 507.45 936.06 410.36 1122.30 417.75 1064.77 505.02 966.26 606.01 1098.49 612.29
00005058 00000029 785.27 204.56 373.94 509.23 936.75 409.48 1121.83 417.57 1064.81 504.09 965.72 604.48 1097.13 611.44
00005059 00000030 785.12 203.89 375.28 511.42 936.48 410.41 1122.69 416.31 1065.48 506.99 967.32 608.49 1097.96 613.66
00005060 00000031 784.25 206.59 377.00 511.24 938.70 413.05 1124.60 418.42 1067.19 512.57 969.00 612.91 1097.68 617.43
00005061 00000032 784.27 206.48 377.05 511.29 938.73 413.07 1124.61 418.45 1067.21 512.55 969.03 612.93 1097.74 617.46
00005062 00000033 783.66 211.25 377.40 509.89 939.13 418.31 1125.12 422.01 1068.10 519.06 972.07 618.70 1099.97 621.77
00005063 00000034 783.81 210.67 377.54 511.25 939.85 420.16 1124.84 423.64 1068.66 520.25 972.09 619.23 1099.93 622.11
00005064 00000035 785.13 208.06 377.78 510.95 940.09 414.92 1126.64 419.97 1068.66 514.51 969.33 614.33 1098.76 618.69
00005065 00000036 786.06 205.76 374.94 507.70 936.01 408.60 1123.59 418.57 1063.04 503.09 963.43 603.85 1097.29 612.34
00005066 00000037 785.56 205.37 375.63 507.53 935.74 408.96 1123.24 419.39 1062.88 502.33 962.86 603.16 1097.01 612.06
00005067 00000038 784.55 205.49 374.69 500.92 933.76 402.65 1119.49 415.94 1058.32 493.31 961.76 593.94 1093.37 604.79
00005068 00000039 783.74 205.10 375.15 500.85 933.01 402.35 1118.20 415.32 1057.14 493.59 960.94 593.79 1092.05 604.35
00005069 00000040 784.50 204.70 376.06 508.14 934.78 407.47 1121.29 419.41 1060.26 500.85 960.41 601.59 1093.44 611.64
00005070 00000041 784.29 202.88 379.19 516.72 939.29 413.38 1124.82 420.99 1065.25 514.06 966.70 613.42 1094.65 619.89
00005071 00000042 784.01 204.25 379.11 515.31 938.83 413.32 1124.68 421.07 1064.73 513.82 965.86 613.18 1094.20 619.82
00005072 00000043 785.23 206.54 378.75 514.53 940.92 417.08 1125.27 424.44 1066.46 517.96 968.36 616.13 1096.06 622.47
00005073 00000044 785.86 203.44 378.54 514.94 940.84 413.33 1126.49 422.73 1066.86 512.80 967.34 611.87 1096.22 619.78
00005074 00000045 785.81 201.67 376.62 509.63 937.46 405.34 1124.29 420.10 1062.97 497.55 961.47 598.47 1095.14 610.76
00005075 00000046 784.87 202.38 374.03 502.44 935.42 399.77 1119.68 413.29 1060.57 490.75 962.80 591.62 1092.72 602.57
00005076 00000047 784.88 202.47 373.98 502.39 935.45 399.79 1119.68 413.32 1060.58 490.77 962.79 591.60 1092.74 602.56
00005077 00000048 782.65 200.47 374.19 503.10 935.05 397.48 1117.76 411.66 1061.12 488.24 962.65 589.87 1091.47 601.27
00005078 00000049 783.88 201.78 375.53 505.92 937.08 401.79 1120.14 416.33 1061.21 493.15 961.66 592.99 1091.17 604.85
00005079 00000050 784.89 201.27 378.31 517.05 938.98 411.26 1125.34 421.63 1065.91 510.80 965.00 611.03 1094.24 619.73
00005080 00000051 785.69 205.13 379.17 516.95 941.95 418.02 1125.58 425.56 1067.19 520.73 968.15 617.23 1095.48 623.74
00005081 00000052 785.92 205.14 378.95 516.90 941.92 418.10 1125.58 425.85 1067.25 520.72 968.17 617.25 1095.54 623.92
00005082 00000053 787.10 206.91 378.39 514.56 943.25 417.02 1127.90 423.95 1069.62 519.78 969.99 617.17 1098.02 623.15
00005083 00000054 786.80 201.70 378.36 515.00 942.37 409.74 1128.35 420.23 1069.78 507.94 966.27 607.75 1097.33 616.77
00005084 00000055 787.06 198.98 374.95 505.95 939.26 400.16 1123.72 414.62 1065.38 491.51 965.60 592.69 1096.13 604.49
00005085 00000056 785.58 197.35 372.32 504.92 937.03 393.52 1119.26 408.20 1063.91 484.71 963.96 586.25 1093.70 598.19
00005086 00000057 785.32 197.15 372.78 504.03 937.39 393.57 1119.29 408.01 1064.08 484.71 964.48 585.85 1093.73 597.52
00005087 00000058 785.46 196.89 373.23 505.19 937.90 394.82 1119.87 409.14 1064.07 487.34 964.30 587.68 1093.16 599.24
00005088 00000059 787.26 202.82 375.08 506.37 940.13 404.11 1125.88 418.11 1066.90 497.61 964.34 597.63 1095.79 609.27
00005089 00000060 787.15 197.58 379.86 522.83 944.14 412.19 1129.69 420.64 1071.70 514.12 969.97 614.03 1098.85 621.25
00005090 00000061 789.33 203.64 379.05 516.71 945.01 415.26 1131.29 423.66 1072.01 517.90 970.68 615.87 1100.63 623.14
00005091 00000062 789.50 204.84 378.69 515.94 944.98 415.22 1131.31 423.71 1071.64 517.70 970.12 615.29 1100.38 622.74
00005092 00000063 788.38 201.10 378.84 516.94 944.63 410.97 1131.83 422.11 1073.46 510.38 968.60 610.71 1099.69 620.31
00005093 00000064 787.97 204.33 374.47 502.57 941.94 402.33 1125.80 416.78 1067.53 494.82 965.78 594.16 1095.62 606.12
00005094 00000065 786.41 198.33 374.36 504.57 938.38 395.78 1121.28 410.60 1063.96 488.24 963.78 589.11 1093.29 601.12
00005095 00000066 785.11 196.77 372.98 505.82 936.94 394.64 1119.61 410.61 1063.20 487.37 961.78 588.05 1092.35 600.98
00005096 00000067 785.11 196.62 372.97 505.92 936.91 394.64 1119.62 410.63 1063.16 487.41 961.78 588.08 1092.32 601.01
00005097 00000068 785.30 198.58 376.06 506.49 937.42 400.06 1121.64 416.19 1061.92 492.53 961.98 592.79 1093.16 605.89
00005098 00000069 785.73 203.24 378.49 511.74 939.50 408.02 1127.76 421.15 1067.52 503.99 963.31 605.12 1096.09 616.22
00005099 00000070 786.46 199.90 379.38 518.98 940.92 412.07 1127.69 421.92 1067.93 512.30 965.64 611.88 1096.29 620.46
00005100 00000071 786.05 202.26 379.29 514.85 939.82 409.95 1128.24 421.35 1067.97 508.45 964.42 608.96 1096.40 618.72
00005101 00000072 785.99 202.10 379.28 515.02 939.85 410.08 1128.17 421.43 1068.03 508.44 964.48 608.98 1096.40 618.69
00005102 00000073 786.10 202.64 376.24 507.74 938.24 404.07 1125.06 420.14 1064.30 497.06 961.07 597.43 1094.44 610.83
00005103 00000074 784.61 199.64 375.48 505.28 936.46 399.71 1121.29 414.70 1062.03 491.86 961.56 592.18 1093.37 604.36
00005104 00000075 782.48 198.83 376.20 506.13 935.71 398.77 1119.95 414.44 1061.57 490.05 961.03 590.86 1092.63 603.53
00005105 00000076 784.58 200.37 375.34 507.19 936.45 402.55 1121.21 418.38 1061.38 494.71 960.43 595.15 1091.69 608.09
00005106 00000077 785.01 200.02 375.19 506.61 936.36 402.99 1120.86 418.21 1060.86 494.80 961.16 595.42 1091.85 607.83
00005107 00000078 785.82 200.73 377.74 514.26 938.73 407.93 1126.91 421.88 1066.69 504.91 962.88 605.62 1095.58 617.31
00005108 00000079 786.75 202.60 378.67 514.49 939.98 410.44 1128.17 421.40 1067.52 510.53 964.99 610.06 1096.04 619.47
00005109 00000080 786.70 202.36 378.05 511.56 940.55 408.94 1128.28 422.36 1068.34 505.03 964.41 605.81 1096.78 617.11
00005110 00000081 788.03 203.48 374.49 505.34 939.20 403.70 1125.63 417.99 1065.11 497.16 964.15 597.40 1095.15 609.25
00005111 00000082 787.76 204.10 375.02 504.37 939.09 403.92 1125.32 417.84 1065.07 497.04 963.97 597.07 1095.09 608.64
00005112 00000083 787.15 201.62 373.83 503.26 938.33 400.39 1122.61 415.80 1063.04 492.64 962.76 592.32 1093.62 605.00
00005113 00000084 786.10 201.32 375.00 505.80 938.17 401.24 1122.72 416.06 1063.11 494.28 962.24 594.07 1092.44 606.30
00005114 00000085 785.58 202.75 377.84 510.82 938.77 406.93 1126.29 420.89 1065.99 502.92 962.78 603.46 1095.57 615.14
00005115 00000086 785.68 200.86 380.13 517.13 941.00 411.85 1127.25 420.92 1067.54 512.57 966.48 611.72 1096.00 619.54
00005116 00000087 785.76 200.89 380.05 517.07 941.05 411.82 1127.27 420.94 1067.55 512.58 966.44 611.70 1095.97 619.55
00005117 00000088 786.12 201.98 380.12 516.48 942.48 411.71 1129.20 421.43 1069.29 512.84 967.71 612.24 1097.00 620.50
00005118 00000089 787.41 203.72 377.54 510.34 941.75 409.49 1129.39 421.82 1069.46 504.08 964.64 604.69 1097.94 615.22
00005119 00000090 787.31 204.63 375.80 505.16 941.26 404.59 1126.82 417.69 1067.71 498.19 965.36 598.10 1095.61 608.94
00005120 00000091 786.21 202.09 376.16 507.30 940.17 403.85 1125.08 417.71 1065.52 497.31 963.99 596.98 1093.96 608.45
00005121 00000092 786.13 202.35 376.24 506.97 940.17 403.84 1125.06 417.62 1065.50 497.32 964.00 596.88 1093.98 608.30
00005122 DELETE   785.84 203.82 377.12 509.07 939.73 407.50 1127.48 421.07 1067.69 502.54 963.66 602.96 1096.37 614.27
00005123 00000094 785.63 200.09 379.56 517.00 941.34 410.41 1128.07 422.00 1068.11 509.92 965.80 609.77 1095.10 619.50
00005124 00000095 785.80 201.65 379.57 516.21 942.66 411.76 1129.12 421.93 1069.35 512.59 966.87 611.31 1096.21 619.92
00005125 00000096 786.39 203.78 377.80 511.44 942.49 409.26 1130.04 422.02 1070.34 506.33 966.02 606.59 1097.82 617.24
00005126 00000097 785.56 203.53 378.71 511.89 942.55 409.71 1129.73 422.66 1070.65 505.89 965.37 606.12 1097.37 616.97
00005127 00000098 787.39 204.43 375.54 504.61 942.05 405.24 1126.74 418.38 1068.22 498.03 965.92 597.83 1095.86 608.69
00005128 00000099 787.33 204.91 375.06 500.54 940.68 402.44 1125.38 416.60 1065.99 495.08 964.91 594.59 1094.07 606.18
00005129 00000100 786.99 203.43 375.48 505.01 941.07 403.58 1126.10 418.00 1066.60 497.20 964.69 596.82 1094.63 608.70
00005130 DELETE   785.99 203.68 378.11 511.36 941.75 407.64 1129.46 421.82 1069.97 504.44 965.01 605.01 1096.89 616.76
00005131 00000102 786.63 203.17 377.45 512.27 942.04 407.85 1129.07 421.47 1069.98 504.99 964.66 605.08 1096.29 616.51
00005132 00000103 787.11 199.65 378.70 518.54 944.45 410.58 1130.77 421.52 1071.68 512.44 968.66 611.78 1097.54 621.03
00005133 00000104 789.18 200.85 376.65 515.46 945.51 411.10 1131.87 422.67 1073.73 510.92 969.47 611.20 1098.92 620.97
00005134 00000105 788.22 204.68 376.30 508.39 945.33 408.18 1130.80 421.19 1072.80 502.74 968.04 603.26 1098.94 614.05
00005135 00000106 788.40 207.77 374.73 500.75 943.59 405.93 1127.83 418.62 1070.32 497.80 967.68 598.08 1097.02 608.50
00005136 00000107 788.35 207.69 374.76 500.85 943.70 405.94 1127.93 418.62 1070.45 497.83 967.74 598.06 1096.99 608.45
00005137 00000108 787.52 207.30 375.88 502.12 943.17 405.70 1128.39 418.89 1070.18 498.43 966.88 598.88 1096.95 609.68
00005138 00000109 787.67 203.12 376.98 512.02 944.09 407.93 1130.33 421.42 1071.78 504.35 965.41 604.18 1097.01 615.58
00005139 00000110 788.73 199.90 377.46 517.17 946.23 410.52 1132.10 422.49 1073.41 511.21 968.79 610.88 1098.04 621.03
00005140 00000111 789.31 201.25 377.23 514.24 947.02 410.16 1132.93 421.92 1074.39 509.63 969.80 609.34 1099.38 619.26
00005141 00000112 789.42 201.29 377.15 514.17 946.95 410.19 1132.83 421.94 1074.30 509.67 969.76 609.36 1099.32 619.27
00005142 00000113 789.57 206.12 375.73 506.53 946.21 408.70 1131.58 421.93 1073.36 504.79 967.82 604.73 1098.58 615.85
00005143 00000114 788.13 205.91 376.21 505.64 944.66 407.78 1130.24 421.57 1071.96 501.57 967.03 601.62 1098.22 613.01
00005144 00000115 787.81 206.81 376.18 506.16 944.44 407.48 1130.35 421.09 1071.67 502.77 965.90 602.66 1096.91 614.03
00005145 00000116 788.57 203.75 376.30 510.78 944.75 408.95 1130.16 421.06 1072.07 507.33 966.72 606.72 1096.77 617.08
00005146 00000117 787.97 204.48 376.57 510.50 945.04 409.29 1129.88 420.76 1072.29 507.77 967.25 606.92 1096.69 616.69
00005147 00000118 788.63 202.12 376.77 513.02 946.69 410.05 1131.01 421.45 1073.55 509.43 969.04 608.72 1097.47 618.41
00005148 00000119 788.77 204.44 376.04 508.94 947.69 409.36 1131.22 422.23 1074.61 505.03 968.50 604.87 1098.10 615.73
00005149 DELETE   789.05 206.23 374.71 502.31 946.19 406.53 1130.13 420.35 1072.73 498.80 968.22 599.31 1097.81 610.62
00005150 00000121 789.46 206.85 373.82 499.65 944.37 403.89 1128.38 418.02 1070.24 496.64 967.78 596.37 1096.30 607.82
00005151 DELETE   788.97 207.19 374.37 499.53 944.09 403.76 1128.60 418.16 1070.31 496.54 967.47 596.30 1096.71 607.96
00005152 00000123 788.42 206.78 374.87 501.37 943.87 404.70 1129.60 418.84 1070.77 497.70 966.94 598.36 1097.00 609.88
00005153 00000124 789.32 206.59 375.18 504.08 945.07 407.19 1130.91 420.23 1071.81 502.13 967.33 602.13 1097.49 612.89
00005154 00000125 789.81 205.64 374.98 505.94 946.94 408.36 1131.02 421.30 1073.37 503.59 968.41 603.30 1097.88 614.04
00005155 00000126 789.74 207.81 374.15 501.76 946.14 407.51 1131.08 421.03 1073.22 500.85 968.20 600.90 1098.37 611.97
00005156 00000127 789.82 207.70 374.13 501.87 946.49 407.49 1131.01 420.92 1073.36 500.82 968.31 600.80 1098.11 611.80
00005157 00000128 788.10 206.83 375.10 499.86 944.55 404.55 1128.70 418.33 1071.07 496.92 968.36 597.26 1096.69 608.34
CROP_BBOX: 489 0 1362 919
