Video ID: 	TJb1VjjSY6w
H: 	1080
W: 	1920
FPS: 	25.0

FRAME INDEX X0 Y0 W H [Landmarks (5 Points)]

00007855 00000000 1036.70 173.14 391.10 536.30 1097.38 387.83 1286.81 395.60 1163.89 472.20 1093.43 572.14 1261.09 580.71
00007856 00000001 1032.16 175.31 388.86 528.24 1100.44 385.50 1286.99 400.02 1149.62 472.11 1088.91 566.85 1258.60 579.83
00007857 DELETE   1041.24 180.32 393.53 520.99 1117.17 378.25 1306.98 403.91 1183.08 478.37 1104.91 563.64 1275.02 585.70
00007858 DELETE   1056.87 186.63 394.87 515.56 1149.78 384.22 1336.88 406.10 1218.99 474.83 1136.30 568.78 1301.86 586.40
00007859 00000004 1068.64 194.59 394.37 514.16 1165.70 383.04 1357.79 406.26 1240.17 472.82 1153.58 571.64 1320.46 591.88
00007860 00000005 1072.09 194.12 393.48 514.36 1165.84 382.13 1358.83 404.42 1238.65 470.93 1153.58 572.02 1320.03 591.62
00007861 00000006 1069.95 189.93 393.48 513.99 1159.76 381.44 1350.92 404.02 1228.31 468.57 1144.44 570.52 1310.34 589.88
00007862 00000007 1069.60 186.30 391.44 515.89 1156.54 378.45 1347.64 400.44 1224.42 463.91 1143.14 569.34 1304.48 588.07
00007863 00000008 1073.07 182.16 392.26 516.83 1157.09 373.37 1349.29 395.52 1222.57 458.95 1141.01 566.97 1304.02 585.97
00007864 00000009 1076.91 181.82 392.43 513.14 1161.76 369.58 1353.18 395.44 1226.78 454.07 1144.34 558.42 1313.48 580.37
00007865 00000010 1077.37 180.68 396.47 514.32 1168.12 374.04 1356.96 401.24 1234.19 452.44 1151.97 555.67 1320.87 578.89
00007866 00000011 1079.80 177.28 398.17 520.15 1170.49 375.74 1358.58 402.59 1235.53 454.01 1155.48 556.80 1322.51 579.74
00007867 00000012 1082.10 174.54 397.15 524.96 1170.85 374.54 1357.59 401.05 1232.41 455.91 1156.43 559.62 1318.95 582.51
00007868 00000013 1083.71 167.60 396.34 534.09 1170.29 369.56 1358.68 398.83 1230.04 455.06 1152.87 558.16 1316.15 583.53
00007869 00000014 1084.45 168.04 395.96 533.78 1172.49 366.46 1362.92 395.62 1233.75 457.94 1155.92 558.46 1321.03 583.71
00007870 00000015 1085.64 167.73 396.06 525.18 1174.63 361.22 1367.09 391.85 1236.87 453.91 1155.57 548.03 1325.84 574.13
00007871 00000016 1086.95 156.01 396.94 518.44 1177.74 351.47 1371.12 382.34 1239.52 440.67 1157.80 534.45 1337.47 560.25
00007872 00000017 1084.88 147.09 397.56 508.50 1178.83 336.99 1370.52 365.36 1245.61 420.99 1159.76 518.34 1338.20 542.50
00007873 00000018 1083.63 145.31 393.79 497.06 1179.27 327.15 1378.39 358.54 1251.40 400.14 1168.97 506.16 1341.58 532.40
00007874 00000019 1084.77 144.42 393.08 495.08 1179.82 325.38 1377.95 355.89 1251.85 396.71 1170.18 503.15 1343.12 528.95
00007875 00000020 1085.32 141.14 394.08 505.25 1177.50 323.27 1377.95 351.75 1250.79 395.21 1169.16 504.28 1345.65 528.31
00007876 00000021 1086.86 137.53 393.89 513.41 1177.43 321.10 1377.02 347.81 1250.10 391.64 1169.23 504.06 1344.45 527.07
00007877 00000022 1087.49 140.24 392.36 507.67 1177.98 316.70 1375.34 343.80 1249.59 387.31 1167.23 499.73 1341.10 523.57
00007878 00000023 1085.45 132.87 395.23 511.78 1177.60 313.52 1371.78 339.23 1244.54 380.01 1165.36 493.73 1337.96 516.33
00007879 00000024 1082.75 132.81 396.14 505.47 1177.89 312.81 1369.12 336.01 1245.05 374.56 1163.12 490.15 1333.99 510.99
00007880 00000025 1081.99 133.61 396.21 500.66 1177.43 311.20 1367.34 334.28 1244.83 370.95 1161.22 488.28 1331.44 509.27
00007881 00000026 1080.20 134.83 395.67 498.88 1175.60 311.12 1364.46 334.56 1244.43 369.25 1158.33 486.71 1329.38 507.86
00007882 00000027 1078.55 134.05 395.63 502.04 1172.55 310.47 1361.76 332.24 1241.86 369.53 1156.21 489.24 1326.59 508.80
00007883 00000028 1076.25 134.35 395.82 505.07 1169.41 309.29 1360.27 331.77 1239.67 371.21 1154.26 491.37 1325.51 511.10
00007884 00000029 1074.35 133.47 396.70 510.20 1165.85 310.65 1358.62 333.69 1236.13 372.09 1151.15 493.51 1325.39 513.46
00007885 00000030 1073.86 135.28 396.19 511.92 1163.03 312.00 1357.52 335.44 1233.28 376.91 1149.47 496.20 1325.20 516.30
00007886 00000031 1073.91 137.54 394.64 515.30 1159.40 313.43 1356.70 336.21 1232.82 380.58 1147.79 500.47 1326.43 519.71
00007887 00000032 1074.10 136.34 394.90 523.13 1159.40 314.72 1359.86 338.34 1233.52 385.98 1148.84 504.52 1328.73 524.36
00007888 00000033 1074.87 134.26 399.38 527.08 1162.40 322.42 1355.84 337.36 1233.88 395.23 1152.60 515.62 1330.56 529.14
00007889 00000034 1075.05 133.73 398.35 528.41 1161.37 326.17 1353.96 340.07 1232.29 401.53 1153.02 518.18 1331.09 530.57
00007890 00000035 1075.94 135.53 396.66 530.43 1163.23 330.79 1352.87 345.97 1231.57 409.16 1153.46 522.71 1326.74 536.02
00007891 00000036 1077.00 138.06 396.31 534.12 1162.23 337.02 1354.74 353.35 1229.74 418.73 1152.29 531.52 1323.51 545.75
00007892 00000037 1077.63 142.50 395.89 537.20 1160.60 345.30 1355.65 365.65 1230.68 427.19 1149.85 540.56 1318.25 558.16
00007893 00000038 1078.01 144.26 394.63 535.60 1157.49 350.62 1351.67 369.63 1226.75 432.26 1149.52 543.54 1318.41 560.03
00007894 00000039 1078.48 141.85 393.47 537.66 1155.52 351.67 1349.25 367.26 1224.63 431.46 1150.32 544.53 1320.48 558.13
00007895 00000040 1076.41 143.61 395.33 541.24 1152.78 351.97 1347.76 364.84 1220.41 429.84 1148.72 547.12 1318.41 558.44
00007896 00000041 1075.29 143.68 394.45 545.20 1149.61 353.14 1342.84 366.03 1215.97 431.43 1145.40 547.11 1315.37 558.71
00007897 00000042 1073.88 145.20 392.73 535.78 1145.18 355.49 1337.00 365.55 1210.30 437.25 1142.96 549.43 1309.69 558.36
00007898 00000043 1070.84 145.58 388.54 532.29 1142.27 357.08 1329.99 367.11 1208.23 443.31 1141.94 551.85 1296.68 560.67
00007899 00000044 1066.44 151.96 387.95 533.23 1151.48 371.25 1332.85 378.47 1218.78 444.46 1154.09 558.04 1293.92 563.87
00007900 00000045 1061.72 155.30 390.57 539.45 1148.80 382.97 1328.29 390.06 1215.42 448.23 1151.41 563.74 1290.65 569.99
00007901 00000046 1060.28 157.01 392.13 544.46 1144.39 384.33 1327.88 393.43 1213.35 453.21 1145.93 569.67 1288.97 577.61
00007902 00000047 1060.04 156.68 393.22 551.15 1143.65 387.17 1330.48 394.18 1214.22 457.38 1145.87 576.02 1292.29 582.08
00007903 00000048 1057.37 159.66 390.99 549.65 1138.21 380.64 1321.79 392.12 1210.68 456.63 1140.38 570.63 1291.33 580.82
00007904 00000049 1059.73 160.15 389.06 547.81 1137.49 369.97 1324.50 380.31 1210.50 445.19 1138.84 563.55 1293.32 573.09
00007905 00000050 1063.52 153.07 387.76 541.99 1139.87 361.34 1326.37 371.16 1210.60 438.55 1139.39 555.19 1290.50 564.49
00007906 00000051 1065.47 152.98 387.34 537.48 1148.83 364.65 1334.13 371.84 1215.20 437.82 1148.65 554.38 1295.98 560.08
00007907 00000052 1065.56 152.25 386.97 539.45 1148.38 366.84 1335.18 375.72 1216.10 442.06 1147.60 556.88 1295.87 564.10
00007908 00000053 1061.85 153.50 391.68 547.92 1148.01 373.56 1339.46 387.17 1217.34 453.09 1142.97 566.13 1296.02 577.30
00007909 00000054 1059.43 158.78 390.02 549.44 1142.51 376.06 1332.90 393.64 1214.67 465.35 1137.09 573.87 1295.10 588.50
00007910 00000055 1058.92 162.18 391.11 548.34 1145.45 379.93 1336.21 399.84 1217.93 469.25 1139.56 576.56 1298.04 592.88
00007911 00000056 1060.76 163.62 392.32 543.65 1147.26 378.30 1338.46 397.48 1220.55 467.81 1140.66 574.37 1301.02 590.03
00007912 00000057 1063.57 159.94 394.73 545.12 1146.94 372.86 1342.05 391.85 1220.65 459.21 1139.30 568.90 1304.56 584.63
00007913 00000058 1065.80 156.09 394.08 547.04 1147.38 369.17 1341.23 387.88 1220.55 456.63 1140.31 562.40 1306.66 578.39
00007914 00000059 1065.43 159.78 393.42 545.71 1148.57 367.54 1339.35 385.73 1220.93 454.88 1141.65 556.39 1309.63 572.10
00007915 00000060 1065.27 160.83 392.68 544.74 1148.04 366.76 1338.61 385.56 1219.57 455.15 1139.86 554.44 1311.14 570.61
00007916 00000061 1063.80 161.74 392.61 543.05 1145.98 371.43 1334.45 389.76 1216.85 456.07 1137.91 553.65 1313.84 568.90
00007917 00000062 1060.54 164.33 391.03 535.11 1145.27 378.80 1329.76 396.85 1215.11 457.05 1137.14 552.39 1312.17 566.97
00007918 00000063 1062.92 161.96 392.39 532.32 1145.63 380.62 1336.25 399.82 1219.30 460.46 1133.82 551.82 1306.52 567.32
00007919 00000064 1061.06 164.96 392.43 521.82 1141.96 379.23 1329.34 399.64 1212.26 460.45 1130.70 548.23 1300.48 565.11
00007920 00000065 1057.94 160.09 392.88 523.91 1137.43 374.11 1323.62 394.89 1206.53 457.55 1126.18 544.59 1296.43 562.09
00007921 00000066 1056.78 159.55 390.22 526.10 1133.44 371.11 1318.77 389.12 1199.64 455.34 1123.36 544.47 1292.49 559.58
00007922 00000067 1055.77 157.82 387.51 534.47 1132.09 369.76 1314.91 382.79 1196.07 452.20 1125.07 547.54 1290.30 557.88
00007923 00000068 1055.80 153.59 385.48 542.09 1130.34 368.32 1313.50 376.18 1192.06 445.94 1127.36 555.02 1284.79 561.57
00007924 00000069 1055.41 148.89 384.50 538.99 1129.78 366.59 1312.81 372.17 1191.65 442.44 1128.74 556.94 1280.49 562.36
00007925 00000070 1056.41 144.59 384.58 541.31 1130.59 368.65 1312.86 375.12 1192.66 438.56 1126.90 555.49 1278.42 561.97
00007926 00000071 1056.93 150.69 385.65 536.04 1132.00 368.85 1315.57 378.40 1194.46 439.55 1126.79 553.35 1279.61 562.00
00007927 00000072 1058.53 151.39 384.99 533.40 1132.83 368.69 1316.71 377.16 1196.43 440.45 1127.54 554.50 1279.42 562.41
00007928 00000073 1058.33 152.59 384.43 536.77 1134.82 369.62 1314.93 376.93 1195.03 437.11 1130.71 554.58 1277.41 561.42
00007929 00000074 1057.07 148.97 384.36 540.94 1137.10 369.35 1312.00 372.30 1193.62 433.75 1135.66 554.47 1271.38 558.01
00007930 00000075 1051.92 151.69 387.36 533.17 1134.98 368.03 1309.85 370.85 1194.28 433.17 1136.12 552.89 1269.95 556.41
00007931 00000076 1049.07 153.00 388.60 525.91 1130.38 370.99 1308.55 375.37 1194.08 442.09 1130.77 553.13 1273.20 558.05
00007932 00000077 1045.88 155.79 388.40 522.07 1125.70 370.64 1308.81 379.91 1192.93 446.45 1123.45 553.70 1274.80 562.78
00007933 00000078 1045.19 159.35 387.79 516.25 1123.21 371.86 1308.73 383.85 1192.27 450.08 1118.62 553.11 1275.69 564.47
00007934 00000079 1045.95 159.15 387.88 519.55 1121.01 372.41 1308.90 383.79 1192.26 450.14 1116.88 552.54 1279.52 563.24
00007935 00000080 1045.18 158.31 389.65 528.44 1122.79 370.10 1309.61 378.80 1193.29 448.99 1120.36 553.60 1283.79 561.41
00007936 00000081 1046.41 157.02 390.20 527.56 1122.79 369.58 1311.90 375.55 1194.38 447.64 1122.08 555.08 1287.06 560.72
00007937 00000082 1047.87 152.69 386.83 521.92 1125.30 367.80 1309.07 370.21 1193.79 441.44 1127.34 551.46 1283.75 554.12
00007938 00000083 1049.48 145.66 382.37 517.30 1122.44 362.25 1308.49 364.07 1191.85 428.85 1121.33 544.42 1279.22 547.06
00007939 00000084 1052.10 135.61 378.99 512.67 1119.52 352.68 1306.82 353.84 1188.45 419.51 1118.86 533.07 1279.98 535.05
00007940 00000085 1049.90 131.16 382.45 504.91 1120.08 345.33 1304.10 346.61 1186.03 410.55 1122.01 520.81 1277.09 522.53
00007941 00000086 1050.06 128.62 380.38 498.83 1116.91 337.65 1300.85 340.29 1181.20 402.83 1117.29 513.35 1274.16 516.25
00007942 00000087 1048.34 126.94 380.99 500.74 1114.63 334.40 1297.43 335.32 1177.86 398.42 1115.87 511.13 1271.83 512.72
00007943 00000088 1048.07 125.33 380.77 502.85 1112.82 333.96 1295.16 334.45 1174.44 397.68 1114.35 511.83 1269.07 513.15
00007944 00000089 1046.26 126.63 381.93 503.70 1109.14 335.96 1294.61 334.96 1174.35 401.63 1113.35 515.95 1269.74 516.04
00007945 00000090 1045.70 126.61 381.24 506.98 1106.32 340.15 1294.81 336.55 1175.23 405.03 1111.17 520.01 1272.45 518.17
00007946 00000091 1044.97 123.81 380.76 513.86 1105.91 345.84 1294.31 339.97 1176.15 410.51 1111.88 525.79 1273.63 522.26
00007947 00000092 1045.18 123.46 381.16 516.02 1106.42 350.03 1295.70 343.66 1177.43 413.70 1113.24 529.83 1275.53 525.69
00007948 00000093 1046.09 125.55 380.95 513.63 1107.85 352.47 1295.64 346.51 1178.54 418.13 1115.79 530.97 1275.81 527.20
00007949 00000094 1047.60 127.37 380.36 511.27 1109.36 353.51 1295.62 348.16 1178.45 421.10 1118.13 530.99 1277.08 527.49
00007950 00000095 1048.84 128.37 380.01 510.16 1111.09 353.94 1296.94 348.62 1180.01 421.85 1120.67 531.86 1278.69 528.28
00007951 00000096 1049.83 127.85 380.56 511.94 1112.84 354.40 1298.76 349.79 1181.31 422.29 1121.47 532.26 1280.08 529.13
00007952 00000097 1050.39 126.37 382.79 517.16 1116.04 352.88 1301.46 348.88 1183.48 422.83 1124.15 533.55 1279.98 530.78
00007953 00000098 1051.27 124.60 384.64 526.59 1119.47 351.04 1304.43 346.90 1185.26 419.88 1127.88 536.50 1279.76 533.53
00007954 00000099 1052.83 124.09 385.30 530.59 1121.68 347.40 1307.08 344.44 1186.20 417.29 1128.01 535.03 1280.52 532.97
00007955 00000100 1053.00 123.13 386.37 533.72 1122.89 344.47 1308.32 342.43 1188.44 416.40 1128.24 533.45 1282.82 532.12
00007956 00000101 1053.83 121.56 385.45 534.77 1122.57 344.37 1309.34 340.70 1188.52 415.83 1128.80 534.55 1284.57 531.93
00007957 00000102 1053.58 121.27 385.99 537.83 1121.30 344.84 1310.40 341.41 1189.36 416.26 1124.89 535.29 1286.70 533.13
00007958 00000103 1052.65 123.66 386.94 541.81 1123.44 347.70 1309.73 343.62 1190.67 420.00 1127.25 537.98 1285.40 535.37
00007959 00000104 1051.01 128.46 387.16 550.94 1123.23 357.13 1308.40 350.66 1188.59 427.27 1127.68 544.64 1292.90 539.78
00007960 00000105 1047.71 139.23 388.91 554.69 1120.60 367.70 1308.39 363.99 1191.78 444.36 1126.16 550.58 1299.03 546.61
00007961 00000106 1044.33 145.15 391.63 556.40 1112.30 376.75 1303.90 371.58 1189.16 459.74 1120.57 559.72 1298.50 554.41
00007962 DELETE   1034.10 163.90 391.17 551.45 1103.03 402.49 1296.20 398.57 1174.37 484.61 1111.83 577.98 1295.57 576.46
00007963 00000108 1029.28 174.64 395.52 549.39 1101.14 418.48 1294.88 416.14 1175.46 503.85 1113.64 592.38 1295.20 590.99
00007964 00000109 1023.21 186.83 397.22 549.69 1102.30 429.60 1295.16 431.54 1177.09 514.08 1116.48 602.39 1294.33 603.30
00007965 00000110 1021.23 195.86 394.78 540.68 1099.76 435.31 1293.52 439.50 1173.38 524.50 1112.03 607.34 1288.65 610.01
00007966 00000111 1019.59 198.32 395.96 530.36 1097.60 434.55 1293.63 439.58 1172.53 524.36 1113.02 611.43 1282.65 614.61
00007967 00000112 1018.02 194.00 400.46 534.82 1098.99 427.81 1296.24 434.56 1175.89 518.64 1114.78 611.50 1279.92 616.49
00007968 00000113 1022.60 184.95 398.24 539.99 1104.06 423.01 1299.17 429.57 1180.38 511.42 1120.14 609.72 1280.46 614.95
00007969 00000114 1026.56 181.52 397.51 539.83 1107.14 423.12 1302.58 428.51 1183.37 504.98 1123.04 607.67 1283.30 612.24
00007970 00000115 1028.37 180.59 398.50 537.54 1108.07 422.81 1302.65 425.08 1185.90 503.32 1125.76 606.28 1285.47 608.50
00007971 00000116 1028.35 177.22 399.78 540.07 1104.90 419.48 1301.60 420.41 1183.02 503.41 1123.39 605.24 1287.36 605.82
00007972 00000117 1030.93 173.00 398.78 543.60 1106.83 412.10 1302.84 411.57 1185.74 498.65 1125.13 599.71 1291.90 598.98
00007973 00000118 1033.44 168.76 398.14 544.70 1109.39 402.13 1308.62 402.59 1188.98 489.69 1122.56 590.90 1296.61 592.04
00007974 00000119 1042.47 166.42 395.88 530.69 1110.64 389.73 1309.16 387.64 1190.16 475.73 1121.64 580.96 1290.93 579.97
00007975 00000120 1048.91 160.62 394.59 529.45 1129.64 387.23 1317.80 387.79 1205.73 462.16 1140.28 570.53 1290.83 571.14
00007976 00000121 1053.17 157.01 391.49 527.51 1134.55 381.60 1317.92 380.35 1209.50 455.92 1147.91 566.68 1290.49 566.16
00007977 00000122 1054.61 151.31 391.85 533.57 1138.16 377.74 1319.00 374.93 1211.32 448.85 1151.55 565.43 1288.40 563.72
00007978 00000123 1055.59 150.64 392.01 536.51 1140.19 373.19 1320.05 370.99 1211.69 443.73 1153.28 563.44 1287.31 562.04
00007979 00000124 1056.43 148.23 390.22 537.14 1142.03 370.28 1320.30 367.92 1212.33 440.21 1154.52 560.95 1286.59 559.40
00007980 00000125 1057.34 147.32 388.49 533.41 1142.00 368.35 1319.85 366.11 1211.94 439.58 1152.91 558.43 1286.28 557.14
00007981 00000126 1057.81 149.89 387.24 528.93 1142.91 368.78 1321.69 367.99 1212.39 440.43 1150.86 554.95 1291.00 554.60
00007982 00000127 1060.32 150.06 384.82 527.65 1143.03 369.63 1325.50 369.46 1213.62 442.04 1148.66 553.79 1297.59 553.69
00007983 00000128 1062.10 149.87 388.16 530.49 1142.70 367.21 1330.44 371.41 1212.30 445.29 1142.95 553.22 1303.34 556.53
00007984 00000129 1063.86 148.26 390.41 536.67 1143.38 367.89 1334.21 372.65 1214.44 446.89 1140.74 552.60 1309.03 556.29
00007985 00000130 1064.10 144.76 389.75 534.51 1141.81 366.48 1332.51 371.53 1213.18 448.52 1138.19 550.30 1310.64 554.45
00007986 00000131 1064.41 145.25 389.54 530.36 1141.40 366.48 1330.98 370.85 1212.22 448.87 1138.14 548.96 1310.52 552.58
00007987 00000132 1064.77 144.94 387.34 528.30 1139.52 364.36 1329.16 367.76 1209.63 444.44 1136.48 546.99 1309.45 549.87
00007988 00000133 1063.26 141.37 386.40 533.46 1137.34 363.33 1327.79 363.65 1209.79 438.75 1136.61 547.55 1307.98 548.03
00007989 00000134 1063.59 141.75 384.74 538.28 1141.08 363.87 1325.07 361.20 1208.39 434.92 1145.37 550.31 1299.87 548.14
00007990 00000135 1061.26 140.97 386.62 541.10 1141.38 362.26 1323.87 362.44 1207.76 430.33 1142.40 545.52 1292.76 545.96
00007991 00000136 1057.22 142.38 388.85 538.87 1141.14 362.16 1320.56 362.33 1205.22 424.36 1141.64 540.97 1287.41 541.44
00007992 00000137 1053.83 146.17 389.72 535.96 1139.02 361.36 1317.68 367.06 1201.25 425.78 1133.55 538.69 1281.94 543.80
00007993 00000138 1052.39 156.10 389.78 530.15 1134.92 362.57 1316.89 378.68 1197.21 438.94 1122.36 542.70 1274.67 556.96
00007994 00000139 1054.38 160.90 388.30 533.43 1137.13 364.76 1319.22 387.32 1196.56 449.74 1123.71 547.74 1275.49 566.93
00007995 00000140 1053.04 162.75 391.22 530.87 1137.36 361.93 1323.00 389.09 1199.05 453.24 1118.86 541.33 1281.80 563.61
00007996 00000141 1056.04 159.48 393.07 525.45 1140.18 360.60 1328.36 388.39 1204.09 446.66 1119.10 536.29 1287.47 559.34
00007997 00000142 1060.75 159.06 390.35 519.52 1143.30 357.25 1332.94 382.55 1208.03 441.83 1123.39 534.62 1296.12 555.68
00007998 00000143 1063.07 155.36 389.54 521.30 1145.50 356.67 1333.64 380.02 1208.95 440.60 1125.71 534.28 1300.20 553.62
00007999 00000144 1067.88 151.25 388.71 532.57 1146.48 357.34 1332.44 376.84 1205.02 436.97 1126.98 535.61 1301.11 551.46
00008000 00000145 1066.48 147.78 393.43 540.07 1145.04 355.75 1331.15 373.08 1202.75 432.58 1126.48 535.14 1302.38 548.96
00008001 00000146 1064.41 138.95 395.36 547.59 1144.13 353.51 1329.52 368.43 1201.68 424.93 1127.46 534.24 1300.06 546.41
00008002 00000147 1065.90 135.69 394.89 548.68 1145.65 351.16 1329.29 364.15 1200.91 420.12 1129.91 531.93 1299.03 542.53
00008003 00000148 1067.95 134.62 394.03 545.27 1146.52 347.75 1330.49 360.82 1202.76 415.80 1130.60 529.55 1300.37 540.46
00008004 00000149 1069.34 130.86 392.80 544.89 1146.74 346.98 1330.82 358.17 1204.16 414.66 1131.81 527.95 1302.00 537.57
00008005 00000150 1069.68 130.22 393.12 541.10 1146.14 348.45 1332.99 359.10 1206.05 412.90 1130.22 523.49 1305.88 532.67
00008006 00000151 1066.80 130.79 396.75 529.57 1145.34 347.47 1338.24 361.91 1212.33 408.29 1127.23 516.80 1308.28 529.11
00008007 00000152 1064.45 132.72 394.26 507.89 1143.38 338.92 1338.69 357.56 1210.90 396.25 1120.78 504.54 1303.12 520.35
00008008 00000153 1058.79 133.94 397.40 502.73 1145.10 331.11 1336.09 357.57 1211.08 388.91 1119.44 497.16 1294.16 519.53
00008009 00000154 1061.34 130.54 399.53 508.40 1148.95 324.83 1338.84 357.85 1209.77 391.29 1118.46 494.53 1294.32 522.49
00008010 00000155 1065.06 124.61 399.89 526.74 1149.95 321.43 1339.08 358.95 1203.68 409.09 1117.32 505.51 1296.72 536.51
00008011 00000156 1073.22 130.48 398.34 533.92 1154.68 328.69 1341.04 358.29 1204.82 413.04 1127.13 513.08 1302.31 538.08
00008012 00000157 1076.31 137.14 401.20 538.86 1157.24 334.31 1343.79 359.93 1208.85 417.82 1134.11 520.03 1309.36 542.31
00008013 00000158 1076.31 136.58 403.43 537.07 1161.24 335.92 1347.38 361.68 1215.40 418.74 1137.74 519.99 1313.94 542.26
00008014 00000159 1076.64 134.99 405.43 537.80 1164.71 336.31 1352.20 363.61 1221.19 419.57 1141.46 520.49 1320.25 543.99
00008015 00000160 1078.79 134.24 405.70 540.23 1168.53 338.73 1358.31 365.26 1227.54 421.66 1148.29 521.85 1329.09 544.51
00008016 00000161 1081.54 139.16 404.76 533.09 1172.56 340.06 1364.26 366.72 1233.45 424.24 1152.31 523.00 1336.29 546.01
00008017 00000162 1081.10 141.60 405.78 530.03 1174.05 343.12 1368.95 371.22 1238.35 428.13 1153.81 524.23 1340.31 548.19
