Video ID: 	-cyUxFgUyrY
H: 	1080
W: 	1920
FPS: 	25.0

FRAME INDEX X0 Y0 W H [Landmarks (5 Points)]

00000687 00000000 523.02 231.49 411.60 613.54 603.14 494.02 803.77 494.20 698.92 639.47 638.56 710.23 791.98 711.21
00000688 DELETE   516.28 233.00 410.41 599.21 601.49 490.02 791.49 488.76 690.30 633.27 639.96 699.63 794.08 697.63
00000689 00000002 516.51 227.89 408.93 592.74 602.89 483.84 792.51 483.80 691.34 624.25 640.92 694.90 789.04 693.59
00000690 00000003 516.24 227.33 407.13 585.57 604.69 479.18 792.48 480.09 691.65 617.37 641.16 691.13 784.57 690.60
00000691 DELETE   516.37 227.58 404.11 582.64 606.42 478.86 790.94 480.69 691.59 612.68 638.66 687.49 780.86 687.83
00000692 DELETE   523.58 224.58 394.87 584.54 612.83 478.47 792.37 483.97 693.98 611.04 638.26 684.73 777.64 688.07
00000693 00000006 524.04 226.60 395.27 580.65 615.66 472.07 797.36 481.12 696.40 607.23 636.46 681.40 778.08 687.79
00000694 00000007 527.89 222.99 392.91 584.49 619.14 468.58 800.80 479.39 699.82 605.96 635.33 679.01 779.35 686.98
00000695 00000008 529.60 222.00 391.69 584.83 620.78 465.36 804.06 475.63 701.57 601.50 635.55 677.69 780.16 685.25
00000696 00000009 536.38 227.72 389.79 585.34 626.85 461.32 811.24 476.06 709.29 595.16 632.25 672.71 770.59 686.58
00000697 00000010 539.05 233.74 389.80 580.06 633.30 461.71 816.15 477.75 716.83 592.43 637.31 672.43 775.03 687.38
00000698 00000011 545.07 243.79 388.16 571.47 640.21 462.18 822.75 480.22 723.39 594.10 641.89 672.47 782.55 689.20
00000699 00000012 546.50 253.36 390.74 563.05 646.30 468.75 828.30 487.36 729.82 596.03 649.87 676.97 787.75 693.76
00000700 00000013 550.72 257.93 390.72 573.22 654.28 473.49 835.42 495.40 735.85 600.00 651.10 681.33 793.89 700.52
00000701 00000014 563.93 275.54 384.31 565.80 662.97 475.34 844.55 499.36 743.53 607.07 659.33 688.09 793.79 707.87
00000702 00000015 571.88 285.29 383.16 559.79 673.05 484.51 852.57 509.09 751.82 614.25 666.90 696.42 800.78 716.73
00000703 00000016 577.03 293.21 382.34 553.13 683.59 488.23 860.45 513.15 765.18 617.50 677.52 698.24 808.48 718.72
00000704 00000017 585.25 289.02 381.92 548.53 693.80 484.54 875.36 512.35 777.62 612.18 687.85 693.64 821.29 716.38
00000705 00000018 590.92 273.43 389.10 551.75 708.63 479.79 891.28 505.89 797.61 609.34 703.45 683.31 847.90 706.59
00000706 00000019 603.42 265.97 396.98 542.56 734.78 468.77 913.54 493.40 823.49 595.73 718.61 664.22 860.58 686.39
00000707 00000020 618.45 250.72 389.29 539.86 753.32 450.66 929.62 473.79 847.49 573.46 742.42 650.80 880.91 670.27
00000708 DELETE   633.94 236.99 384.63 540.23 776.79 427.80 949.85 457.20 871.74 551.21 760.18 632.44 893.47 655.95
00000709 00000022 646.51 220.53 383.28 538.76 790.02 405.10 961.94 435.17 889.46 532.14 778.02 614.23 907.19 638.57
00000710 00000023 649.41 200.18 385.03 541.01 805.53 392.51 980.37 424.67 912.25 509.49 797.79 594.56 930.22 622.84
00000711 00000024 660.25 192.34 378.78 544.17 813.87 384.67 984.26 418.96 922.92 496.90 804.42 586.23 937.14 616.78
00000712 00000025 667.35 189.79 376.80 550.33 820.39 384.37 990.37 416.00 933.51 495.88 811.13 586.63 947.69 614.91
00000713 00000026 671.27 192.68 376.95 550.25 830.24 390.91 996.68 420.95 940.32 496.29 823.09 593.66 953.48 619.99
00000714 00000027 678.03 194.08 374.79 552.07 833.98 393.61 999.61 420.48 941.31 496.59 828.35 597.13 958.58 620.59
00000715 00000028 678.37 177.92 386.69 568.56 842.49 387.68 1006.26 419.28 943.24 500.43 836.26 592.56 958.27 619.16
00000716 00000029 689.68 170.37 389.24 574.69 854.38 378.89 1021.82 410.72 957.07 492.02 848.56 591.42 971.56 617.36
00000717 00000030 701.63 167.92 393.96 578.02 867.02 375.76 1041.61 407.86 976.32 490.10 857.54 587.46 991.69 613.75
00000718 00000031 717.48 166.51 393.24 580.29 881.44 372.09 1054.42 404.07 993.18 490.92 874.17 586.30 1008.04 612.61
00000719 00000032 730.29 165.55 395.04 584.55 898.61 377.62 1068.93 405.49 1012.56 499.23 895.57 596.07 1025.62 619.32
00000720 00000033 742.24 170.11 395.00 582.12 907.41 379.73 1082.58 405.84 1020.61 504.11 906.49 600.84 1039.54 622.49
00000721 00000034 742.27 168.24 399.12 593.68 919.46 384.63 1084.54 411.04 1028.00 518.68 911.56 605.80 1037.02 628.35
00000722 00000035 745.93 168.23 403.79 597.22 920.95 392.52 1089.22 414.20 1030.07 527.51 917.72 616.36 1043.74 635.10
00000723 00000036 748.23 172.14 404.37 602.28 921.01 397.90 1092.08 417.75 1030.59 535.79 919.72 623.59 1049.23 640.99
00000724 00000037 748.97 174.48 409.73 605.39 917.60 401.78 1095.59 419.99 1030.49 542.76 916.09 628.98 1053.66 645.24
00000725 00000038 750.11 174.47 411.15 611.35 915.39 403.79 1094.45 423.52 1027.50 546.63 909.90 628.90 1052.86 646.45
00000726 00000039 748.42 174.17 413.05 619.90 908.50 403.15 1091.06 423.68 1021.90 546.37 902.31 631.24 1049.53 649.52
00000727 00000040 751.15 187.54 408.12 611.21 906.12 396.16 1092.85 420.82 1019.28 544.43 902.76 635.91 1032.82 655.59
00000728 00000041 748.35 187.65 407.04 609.52 902.67 395.87 1090.28 419.01 1015.65 544.57 901.60 635.66 1031.51 654.11
00000729 00000042 742.48 174.01 408.49 619.18 899.69 401.86 1084.53 421.07 1011.78 541.51 898.39 632.55 1043.83 649.61
00000730 00000043 739.89 173.04 406.07 619.31 897.60 401.58 1081.39 418.78 1011.22 540.96 898.67 632.95 1041.97 648.63
00000731 00000044 739.94 184.61 400.58 602.53 891.55 400.25 1078.12 410.90 1012.88 536.51 902.55 638.84 1040.64 647.94
00000732 00000045 738.30 187.62 396.03 596.70 890.03 400.74 1074.54 411.16 1011.70 535.66 903.26 641.40 1033.16 650.18
00000733 00000046 735.01 189.92 394.14 591.31 887.75 403.69 1069.53 413.71 1009.64 534.75 901.85 641.23 1027.92 649.15
00000734 00000047 729.15 191.26 394.65 588.25 882.18 404.63 1061.44 413.86 1005.50 533.83 896.76 639.44 1021.55 646.54
00000735 00000048 722.24 192.49 397.04 589.67 877.81 405.22 1055.73 416.88 1000.42 533.52 889.77 637.02 1016.59 645.98
00000736 00000049 715.09 191.18 397.70 587.59 871.94 407.20 1049.98 417.85 995.42 532.22 886.51 636.53 1011.30 644.74
00000737 00000050 711.50 193.46 393.55 578.82 866.61 406.57 1045.43 415.11 992.27 530.58 884.50 633.25 1014.74 639.54
00000738 00000051 704.39 194.29 391.35 576.58 865.16 408.57 1037.36 414.45 991.86 527.91 886.32 630.68 1013.12 634.82
00000739 00000052 694.40 192.46 389.75 574.89 859.50 410.05 1027.39 411.88 985.45 522.64 885.08 629.15 1006.33 630.17
00000740 00000053 681.25 189.41 383.91 572.21 844.14 407.39 1012.44 408.80 969.11 522.34 870.57 622.71 997.55 625.14
00000741 00000054 678.01 199.44 377.62 567.51 827.87 407.52 1005.43 407.33 959.61 521.30 854.25 629.79 992.66 629.42
00000742 00000055 669.40 195.29 376.11 560.78 817.21 404.76 990.92 408.04 941.70 516.81 841.40 621.71 975.10 624.53
00000743 00000056 655.82 194.62 384.47 560.35 799.74 401.73 977.87 403.76 928.42 512.72 823.87 621.96 956.32 623.55
00000744 00000057 650.68 187.52 381.70 567.44 801.12 398.83 978.35 409.11 923.38 511.25 820.81 615.56 955.72 624.73
00000745 00000058 646.07 184.54 382.78 568.77 797.37 396.77 975.19 407.90 917.34 511.00 817.25 614.78 949.58 624.32
00000746 00000059 641.24 182.33 385.97 574.21 793.79 397.70 971.55 408.49 913.56 511.66 812.43 614.64 947.01 623.85
00000747 00000060 639.14 181.55 386.40 576.68 792.33 402.49 968.87 413.95 910.03 515.83 808.43 616.20 943.92 625.99
00000748 00000061 639.13 194.72 387.96 572.36 789.96 400.77 966.30 414.03 910.73 522.91 805.10 622.55 931.91 632.66
00000749 00000062 638.58 198.43 389.89 575.74 791.26 404.48 966.08 418.04 909.63 528.62 804.85 627.38 929.68 637.50
00000750 00000063 635.98 201.60 391.31 577.87 792.68 408.38 963.64 423.90 908.44 533.49 804.54 630.63 925.10 642.33
00000751 00000064 633.80 206.12 391.71 577.98 791.78 409.75 962.58 426.31 907.45 539.32 802.20 635.27 920.84 647.80
00000752 00000065 631.86 207.39 391.87 577.17 789.96 411.51 962.25 429.10 906.67 541.11 800.65 636.95 920.09 650.29
00000753 00000066 628.56 210.31 392.93 578.70 788.54 412.90 959.84 430.39 904.85 542.23 799.71 640.01 917.13 653.08
00000754 00000067 625.83 212.21 389.63 575.01 785.51 415.53 955.60 432.55 900.29 542.69 795.99 641.15 912.49 653.98
00000755 00000068 623.02 211.66 387.34 574.03 783.31 414.84 951.97 431.85 895.97 542.48 791.12 640.13 906.71 653.02
00000756 00000069 620.54 212.81 387.20 570.36 777.53 413.13 949.54 431.09 889.52 542.02 784.71 638.35 902.52 651.81
00000757 00000070 618.13 212.63 386.99 568.25 773.53 412.77 945.82 428.97 886.63 541.11 780.32 637.32 899.26 649.61
00000758 00000071 615.25 211.08 387.51 569.68 769.32 412.09 942.30 427.02 883.46 538.12 777.43 635.78 897.94 647.35
00000759 00000072 612.40 212.00 388.51 568.24 763.87 411.63 939.68 426.17 878.63 535.61 773.26 634.19 895.74 645.44
00000760 00000073 609.51 209.92 388.38 570.14 758.69 410.39 935.57 424.85 873.15 533.62 769.58 632.10 892.80 643.34
00000761 00000074 608.55 208.37 383.96 563.02 755.77 410.50 932.41 422.90 873.96 527.16 766.59 632.72 900.72 643.31
00000762 00000075 603.31 190.79 387.94 581.50 754.96 405.05 931.03 423.07 867.03 526.34 762.97 621.68 896.53 638.58
00000763 00000076 603.17 184.85 388.83 582.45 754.18 401.20 931.09 419.98 867.88 521.67 764.43 617.95 898.10 635.16
00000764 00000077 604.16 179.15 391.94 584.61 752.45 396.54 933.06 414.39 869.51 516.66 765.83 614.27 904.46 630.06
00000765 00000078 605.33 174.62 394.09 588.78 753.94 390.18 937.10 409.24 871.87 514.41 765.94 611.62 909.20 627.59
00000766 00000079 606.66 170.69 394.22 590.85 758.84 387.84 938.95 406.75 875.25 512.57 770.62 610.65 910.12 626.25
00000767 00000080 608.97 168.38 394.16 593.93 763.28 386.40 943.91 405.96 880.41 511.71 776.19 612.62 913.36 628.54
00000768 00000081 612.65 165.55 396.59 600.51 768.85 387.69 948.77 405.54 884.94 512.31 783.28 617.17 916.54 631.81
00000769 00000082 617.11 178.26 401.17 585.03 771.87 385.96 962.16 402.13 895.24 517.80 788.66 620.92 916.82 632.53
00000770 00000083 621.36 162.61 404.09 608.50 782.54 391.08 964.33 407.39 903.56 516.07 797.48 622.12 934.79 635.26
00000771 00000084 626.74 176.67 408.95 597.81 787.28 390.75 974.27 408.30 910.89 521.54 804.26 627.35 931.93 640.53
00000772 00000085 630.58 182.63 409.47 603.35 791.95 395.86 976.71 413.59 914.27 531.13 805.02 634.48 933.52 648.18
00000773 00000086 633.49 186.89 408.95 604.38 796.25 403.71 979.39 419.26 918.77 540.85 808.60 642.07 936.41 653.95
00000774 00000087 635.74 193.84 408.64 602.74 797.59 412.51 985.24 429.76 922.23 551.00 806.81 648.46 943.59 661.57
00000775 00000088 637.24 197.79 408.47 602.95 797.32 415.97 986.07 434.69 919.70 555.85 804.92 652.47 942.74 666.76
00000776 00000089 636.86 204.21 406.97 608.03 796.74 419.68 981.32 439.96 914.67 559.63 800.56 657.95 932.65 673.41
00000777 00000090 634.14 204.78 407.76 610.51 792.49 428.04 971.88 448.97 902.92 561.53 793.41 662.06 922.85 678.18
00000778 00000091 633.08 203.40 411.29 609.19 786.15 423.07 970.04 444.77 894.84 563.63 784.06 656.64 917.57 673.00
00000779 00000092 636.12 198.70 409.20 607.74 787.58 415.21 970.22 439.73 894.38 557.84 782.02 648.16 915.46 666.69
00000780 00000093 638.55 195.58 410.01 600.73 791.04 406.75 974.51 433.13 897.14 553.41 784.93 641.10 916.06 661.36
00000781 00000094 639.28 196.17 411.37 594.91 795.23 403.38 980.73 429.84 905.21 549.58 792.21 638.10 923.05 658.73
00000782 00000095 643.62 198.66 409.30 588.06 798.07 401.17 984.82 427.04 910.52 541.19 796.61 633.26 933.42 653.87
00000783 00000096 647.54 199.31 405.49 587.75 806.36 401.41 987.82 426.70 919.58 540.21 804.60 634.45 937.09 654.85
00000784 00000097 652.58 200.17 401.79 586.57 811.36 404.41 991.09 427.42 926.34 539.47 811.46 635.95 944.77 654.67
00000785 00000098 655.56 200.10 399.32 584.94 814.99 408.91 993.91 428.62 933.80 540.03 817.89 637.78 953.00 653.80
00000786 00000099 658.11 202.71 396.80 580.97 816.97 409.90 996.14 428.85 936.94 541.15 820.45 638.70 955.99 654.11
00000787 00000100 659.47 202.74 395.18 580.37 816.64 411.10 996.10 428.04 937.54 541.52 822.33 638.78 959.02 652.43
00000788 00000101 660.20 202.82 393.39 579.87 816.31 410.69 994.96 426.25 937.10 540.33 822.93 638.93 958.02 651.44
00000789 00000102 659.91 202.22 390.84 580.22 815.16 410.59 992.69 424.85 936.71 539.23 823.93 640.31 955.83 651.71
00000790 00000103 661.16 200.19 389.80 581.58 814.04 410.35 994.01 424.15 937.05 536.93 824.25 639.09 960.85 650.07
00000791 00000104 663.96 199.28 387.68 579.52 812.72 411.22 995.67 423.76 937.49 536.99 822.99 637.48 965.23 647.64
00000792 00000105 666.49 198.69 386.29 581.11 814.50 410.75 997.12 423.83 938.81 536.01 823.40 637.16 965.74 648.17
00000793 00000106 666.94 201.36 387.02 578.97 818.23 408.88 996.51 422.93 938.98 533.36 826.54 636.85 960.88 648.45
00000794 00000107 668.36 203.08 385.73 574.91 819.27 407.88 996.30 422.92 938.77 529.55 827.28 634.33 960.22 646.77
00000795 00000108 670.05 203.12 382.97 568.92 820.08 407.40 996.99 425.24 939.43 526.95 824.83 630.09 960.36 645.15
00000796 00000109 671.43 201.40 380.99 566.70 820.41 405.55 997.56 422.14 940.54 525.40 825.68 628.37 960.99 642.80
00000797 00000110 672.09 202.28 380.08 560.60 821.35 403.40 997.68 420.71 940.96 522.54 827.41 624.52 961.00 639.21
00000798 00000111 673.46 201.13 379.64 558.09 821.99 401.66 998.58 420.35 940.88 519.45 827.58 621.71 960.82 637.34
00000799 00000112 671.97 197.07 383.39 562.56 826.30 398.78 1006.57 420.30 946.48 519.09 835.29 620.44 969.75 638.39
00000800 00000113 672.97 197.57 383.42 560.97 826.21 398.90 1007.37 420.28 947.13 518.95 835.84 619.96 970.96 637.76
00000801 00000114 673.45 198.02 383.69 560.20 826.15 398.86 1007.25 419.37 946.96 519.00 836.43 620.07 971.15 637.04
00000802 00000115 674.13 197.59 383.65 560.47 825.88 398.33 1008.02 419.14 946.60 518.67 836.37 619.97 971.74 637.11
00000803 00000116 670.39 193.38 388.17 566.63 829.14 399.05 1006.02 424.04 942.12 523.80 829.37 612.46 964.66 635.01
00000804 00000117 669.84 193.52 388.77 567.49 828.19 400.93 1005.31 425.37 940.61 526.13 829.89 614.20 964.45 636.30
00000805 00000118 669.26 193.88 390.65 569.07 827.72 402.25 1005.47 426.26 939.65 529.31 828.58 615.75 964.21 637.57
00000806 00000119 667.99 196.91 392.51 569.11 827.10 406.00 1003.87 429.69 935.82 533.25 824.52 617.26 961.23 639.15
00000807 00000120 672.10 211.81 385.95 555.53 818.64 420.47 993.05 437.28 931.91 533.06 819.70 631.30 951.48 646.08
00000808 00000121 666.49 209.78 394.29 569.10 810.25 421.40 982.29 442.56 916.30 541.21 808.05 635.32 935.29 652.95
00000809 DELETE   664.86 213.03 401.35 569.37 804.49 425.05 977.41 451.87 899.33 553.37 795.75 637.12 924.72 659.19
00000810 00000123 662.67 217.74 406.29 571.68 802.97 429.36 973.09 457.48 891.14 559.89 789.18 641.18 916.52 664.37
00000811 00000124 666.74 218.64 409.16 585.30 799.19 439.10 975.89 461.87 890.23 563.71 783.69 651.75 908.18 671.77
00000812 00000125 671.79 221.05 411.52 585.77 803.03 443.06 980.55 466.37 893.51 570.80 784.57 654.99 913.62 675.48
00000813 00000126 676.66 222.79 411.31 583.51 809.22 448.17 987.32 472.89 900.07 578.52 790.43 658.18 925.55 679.76
00000814 00000127 680.65 224.49 410.49 581.46 812.50 451.42 992.41 476.72 904.49 585.72 794.11 660.63 931.25 682.60
00000815 00000128 681.65 225.31 410.67 583.86 812.21 454.63 993.04 479.29 904.34 588.84 795.02 663.27 933.93 684.82
00000816 00000129 682.32 225.27 408.17 586.12 807.75 454.77 989.30 477.58 899.93 589.10 793.96 665.37 934.82 685.59
00000817 00000130 679.45 225.41 405.90 588.82 800.28 456.95 980.96 479.04 890.64 592.05 786.52 666.40 927.30 686.23
00000818 00000131 676.27 223.30 406.63 592.20 795.15 455.29 976.63 478.82 883.32 589.88 780.10 663.77 920.93 684.69
00000819 00000132 675.52 220.19 406.92 596.87 793.01 452.86 973.59 476.27 879.96 587.36 777.54 662.07 917.50 682.89
00000820 00000133 673.16 217.64 408.08 600.66 791.55 450.73 972.68 473.40 878.95 585.85 776.24 662.26 916.18 682.51
00000821 00000134 670.99 215.68 410.21 603.26 790.71 449.80 973.11 472.55 878.48 584.20 775.27 660.64 915.64 680.82
00000822 00000135 664.47 209.87 413.71 597.14 791.80 444.49 970.53 470.64 876.26 584.60 780.48 656.65 926.54 677.83
00000823 00000136 667.55 211.76 409.04 602.15 791.26 451.29 977.24 474.37 877.58 581.96 775.07 651.72 924.57 673.88
00000824 00000137 666.73 209.79 409.66 601.53 791.34 452.62 979.71 472.22 881.64 584.79 778.06 652.60 929.36 671.98
00000825 00000138 665.24 209.56 414.92 597.39 794.61 456.16 984.60 472.44 886.37 587.67 782.84 653.65 932.47 670.33
00000826 00000139 665.84 206.18 416.41 599.18 796.84 457.65 989.08 474.12 889.92 588.28 783.21 653.65 934.99 670.57
00000827 00000140 666.80 202.75 418.40 602.03 799.00 453.13 992.23 471.99 891.47 586.32 784.20 653.31 934.58 672.32
00000828 00000141 667.19 200.26 422.38 605.99 802.08 451.90 994.92 471.87 895.22 588.95 787.07 655.34 936.86 675.15
00000829 00000142 668.92 201.70 424.54 607.05 805.49 452.78 999.52 471.71 900.19 594.80 792.27 659.81 941.56 678.60
00000830 00000143 673.63 204.32 425.91 608.63 809.91 457.22 1004.84 476.37 905.07 603.14 798.10 667.98 945.25 686.76
00000831 00000144 679.33 212.52 425.42 603.36 817.80 462.77 1013.97 482.41 915.48 608.70 808.63 676.89 952.53 695.80
00000832 00000145 681.90 218.18 429.63 602.07 827.05 465.76 1023.40 486.82 925.82 614.25 816.31 681.79 961.07 701.46
00000833 00000146 685.74 223.01 430.88 592.95 837.52 465.71 1030.56 489.23 933.12 615.01 823.41 681.53 964.24 703.00
00000834 00000147 690.15 221.31 432.80 595.22 846.00 461.95 1035.39 487.85 938.84 614.76 830.07 682.01 966.43 705.22
00000835 00000148 703.09 218.85 430.68 605.56 848.38 460.57 1045.78 486.72 943.48 615.84 828.92 681.13 967.58 705.80
00000836 00000149 707.13 216.97 429.72 607.54 856.71 457.38 1050.11 484.31 950.68 611.64 835.08 678.08 969.19 703.52
00000837 00000150 710.95 215.71 425.08 605.89 858.28 453.22 1051.14 480.25 954.65 606.18 838.01 674.89 972.14 700.34
00000838 00000151 710.70 213.35 424.69 605.59 857.58 452.96 1051.44 477.68 954.00 603.77 840.32 672.60 974.46 696.25
00000839 00000152 708.78 211.36 425.92 605.07 853.52 456.20 1050.79 477.11 951.17 601.11 838.20 669.40 976.96 690.19
00000840 00000153 705.12 205.96 428.70 611.00 852.28 456.26 1050.20 472.13 954.00 596.09 843.48 669.03 982.17 685.51
00000841 00000154 695.99 207.10 419.10 597.39 856.29 444.63 1041.15 459.10 964.24 583.16 859.88 668.08 991.86 681.58
00000842 00000155 698.08 206.55 409.30 592.54 856.91 432.87 1040.87 448.63 973.86 574.78 871.97 669.25 993.07 680.39
00000843 00000156 693.40 200.66 408.15 593.62 852.32 425.45 1037.43 440.31 970.08 567.15 866.46 663.53 988.01 673.84
00000844 00000157 687.45 191.10 406.56 596.63 844.41 423.99 1027.55 436.46 955.92 561.71 856.05 654.01 985.85 666.16
00000845 00000158 682.09 189.02 407.80 596.67 834.52 418.31 1019.68 434.58 943.65 555.62 839.71 644.57 974.75 660.49
00000846 00000159 681.01 186.62 405.74 595.23 829.74 414.36 1015.36 432.87 938.20 550.63 833.21 639.88 970.04 657.63
00000847 00000160 680.97 188.37 406.08 593.26 831.07 412.79 1016.05 433.66 939.21 548.63 832.30 638.38 968.70 658.09
00000848 00000161 683.39 196.26 404.81 583.47 834.66 411.81 1019.61 430.60 947.15 551.80 835.47 646.14 960.71 660.29
00000849 00000162 684.32 199.33 405.06 581.94 843.07 412.38 1023.07 433.18 954.23 554.34 839.04 645.19 960.52 661.13
00000850 00000163 685.09 202.01 402.41 577.81 847.16 413.35 1025.36 434.59 958.77 554.03 841.89 646.35 962.36 662.66
00000851 00000164 683.83 204.23 402.25 572.59 852.83 413.80 1027.99 436.82 964.51 553.41 844.91 646.35 963.31 664.00
00000852 00000165 684.63 205.67 401.41 570.46 858.81 413.58 1031.54 439.08 969.46 553.17 848.47 646.51 964.29 666.00
00000853 00000166 683.31 205.22 402.51 575.76 860.30 411.93 1030.77 438.50 970.47 551.69 850.92 645.94 963.30 666.45
00000854 00000167 679.50 201.16 401.57 585.46 855.34 408.21 1026.82 437.33 966.36 550.05 845.43 644.15 959.41 667.10
00000855 00000168 675.28 200.10 399.80 584.19 846.04 404.99 1020.60 432.98 957.66 546.81 836.80 641.67 954.21 663.88
00000856 00000169 671.06 200.44 402.45 581.44 839.54 402.36 1016.50 427.67 951.54 543.80 831.94 637.73 951.26 657.67
