Video ID: 	8IyJEFbBhXo
H: 	1080
W: 	1920
FPS: 	25.0

FRAME INDEX X0 Y0 W H [Landmarks (5 Points)]

00048338 00000000 814.30 105.83 483.86 726.02 883.58 394.11 1070.46 439.59 900.64 538.50 861.25 649.53 997.65 690.40
00048339 DELETE   817.10 103.77 482.86 725.75 884.02 393.24 1071.80 439.33 902.35 539.26 862.51 648.78 1000.17 690.15
00048340 00000002 819.30 101.14 480.51 725.24 885.40 394.95 1071.53 441.78 902.44 538.52 862.32 646.65 1001.14 688.48
00048341 00000003 820.60 99.72 479.50 726.42 885.36 396.02 1071.07 443.10 901.50 539.16 862.44 647.20 1001.53 689.11
00048342 00000004 820.62 99.96 480.69 724.08 885.00 395.20 1070.32 443.34 900.42 539.42 861.69 646.48 999.89 689.37
00048343 00000005 820.97 100.21 479.63 722.45 884.44 395.33 1069.04 444.01 899.14 539.33 860.83 645.75 998.95 688.98
00048344 00000006 820.22 100.36 479.89 722.02 884.45 395.14 1068.51 445.10 898.59 539.54 859.95 645.38 996.94 689.73
00048345 00000007 819.81 100.96 479.91 721.98 883.59 395.62 1067.95 445.53 897.51 539.70 859.04 646.37 995.94 690.64
00048346 00000008 819.57 103.37 479.20 719.96 883.27 395.61 1067.59 446.14 896.71 540.49 858.79 646.70 994.83 691.50
00048347 00000009 819.48 103.23 479.64 720.57 882.95 395.57 1067.65 446.06 896.54 540.84 858.83 647.32 995.16 692.01
00048348 00000010 819.80 101.60 478.75 721.27 883.85 394.98 1067.00 446.16 896.35 539.27 858.61 645.61 994.12 690.85
00048349 00000011 821.31 102.01 479.05 719.89 885.00 395.26 1067.42 445.69 897.62 538.52 860.31 645.20 994.67 689.82
00048350 00000012 822.30 102.45 476.62 718.15 885.98 395.80 1067.79 445.16 900.02 539.33 862.43 645.31 997.02 688.84
00048351 00000013 824.32 104.60 477.66 715.50 888.44 396.62 1070.12 444.03 902.86 538.62 866.16 645.90 999.34 687.80
00048352 00000014 826.11 104.85 477.72 714.73 889.65 396.69 1072.32 443.66 905.16 537.99 867.69 646.06 1001.24 687.56
00048353 00000015 827.86 105.27 477.56 713.35 891.35 396.23 1075.03 442.36 908.16 537.41 870.15 646.15 1003.45 686.85
00048354 00000016 829.28 105.85 476.16 711.52 892.70 395.79 1077.07 441.88 910.12 537.51 872.12 645.74 1005.74 686.35
00048355 00000017 830.26 103.26 476.64 714.22 893.68 394.77 1079.88 440.85 912.31 537.16 873.38 645.52 1008.09 686.11
00048356 00000018 823.12 108.92 487.18 708.58 901.38 397.78 1093.62 442.80 909.71 531.31 877.26 646.07 1022.95 684.17
00048357 00000019 834.23 104.09 474.98 713.61 897.04 392.34 1085.12 438.67 916.15 536.71 877.97 645.08 1012.75 685.88
00048358 00000020 826.14 108.42 487.71 709.73 905.32 394.56 1098.03 440.81 912.79 530.11 880.50 645.34 1024.85 684.63
00048359 00000021 827.00 109.65 486.22 708.39 906.13 394.83 1097.87 441.31 912.92 529.83 881.38 645.31 1024.89 684.87
00048360 00000022 828.98 109.81 486.08 706.08 906.28 395.14 1099.27 441.77 913.97 530.79 882.35 645.53 1026.16 685.08
00048361 00000023 830.42 111.52 485.45 704.22 907.82 395.30 1100.70 441.45 915.74 528.99 883.39 644.69 1026.92 683.95
00048362 00000024 831.70 107.87 486.51 708.35 911.10 394.06 1102.39 442.53 917.33 527.97 885.97 642.81 1028.60 683.84
00048363 00000025 832.93 108.40 485.03 707.98 916.07 394.04 1104.10 445.16 922.82 524.61 887.35 638.61 1029.69 682.25
00048364 00000026 832.74 107.19 486.00 709.23 916.47 391.82 1106.67 442.98 925.03 525.60 889.21 638.84 1031.93 682.43
00048365 00000027 833.05 105.76 487.31 709.32 918.64 387.69 1110.69 439.21 929.54 525.94 891.27 638.25 1033.83 682.03
00048366 00000028 833.77 104.96 488.86 708.89 920.33 384.38 1115.11 437.17 934.03 526.18 892.61 636.55 1035.55 681.59
00048367 00000029 834.35 102.75 491.04 710.31 922.39 383.06 1117.83 435.66 937.66 525.00 895.44 635.51 1038.01 680.37
00048368 00000030 836.04 100.85 488.64 711.06 923.55 381.15 1119.61 435.03 940.99 525.49 897.77 633.40 1040.97 679.43
00048369 00000031 836.50 101.83 489.10 709.71 923.77 379.91 1121.89 433.97 943.06 526.10 897.54 633.52 1041.11 679.83
00048370 00000032 837.57 99.78 487.75 710.51 924.32 379.71 1122.17 434.25 944.79 526.86 898.84 632.84 1042.65 679.49
00048371 00000033 838.26 101.06 487.99 709.22 925.66 379.35 1123.58 432.86 947.35 524.69 899.66 633.13 1042.48 679.06
00048372 00000034 839.10 99.34 487.47 710.52 927.23 378.67 1123.84 431.93 949.50 523.42 900.86 631.17 1043.24 676.92
00048373 00000035 839.96 99.82 488.87 709.16 927.92 377.92 1125.28 431.25 951.28 522.33 901.65 631.12 1043.90 676.96
00048374 00000036 841.77 99.77 486.39 709.33 928.34 377.93 1125.29 432.28 953.20 523.17 902.90 630.84 1045.31 677.45
00048375 00000037 844.27 98.27 484.88 710.40 929.54 377.15 1127.10 432.24 954.70 522.81 903.03 630.17 1045.17 677.63
00048376 00000038 845.08 99.20 486.68 709.69 931.80 377.07 1129.23 431.90 957.77 523.25 905.41 630.07 1047.39 677.22
00048377 00000039 848.23 98.87 485.09 710.81 933.67 376.23 1130.60 431.79 961.67 525.01 908.52 630.09 1050.65 677.75
00048378 00000040 849.48 98.32 484.51 710.15 933.87 375.69 1130.73 431.25 961.76 524.42 909.69 629.20 1051.06 677.00
00048379 00000041 850.87 98.33 484.23 708.08 935.67 374.31 1131.76 430.56 963.37 522.94 910.63 627.86 1051.22 676.14
00048380 00000042 852.82 98.63 484.12 707.89 938.12 373.22 1133.75 430.54 967.02 522.80 912.66 626.86 1052.77 676.11
00048381 00000043 854.62 98.66 485.10 706.55 940.13 372.70 1135.79 430.32 968.76 521.42 914.01 625.88 1053.88 675.40
00048382 00000044 856.06 99.96 484.16 703.86 940.64 372.19 1136.70 429.52 970.51 521.02 915.10 625.40 1055.42 674.66
00048383 00000045 857.89 99.55 483.33 703.18 941.90 372.08 1137.35 429.98 972.29 521.41 916.47 624.79 1056.35 674.46
00048384 00000046 859.52 98.05 481.95 704.22 943.45 372.22 1137.13 430.40 972.66 522.04 917.95 624.62 1056.60 674.60
00048385 00000047 860.94 98.42 481.23 703.12 943.71 371.62 1137.48 430.18 973.02 522.58 917.94 624.22 1056.63 674.60
00048386 00000048 862.90 97.75 479.78 703.39 944.40 371.44 1137.52 430.07 973.09 521.91 918.47 623.56 1057.00 674.05
00048387 00000049 864.02 97.79 479.45 702.93 944.83 371.89 1138.26 430.64 973.55 522.62 918.53 623.86 1057.42 674.48
00048388 00000050 864.82 97.97 480.53 702.49 946.53 373.48 1138.42 433.26 973.13 522.57 919.36 623.80 1057.13 675.25
00048389 00000051 866.26 98.07 479.37 702.34 948.22 377.45 1137.79 436.44 973.14 522.78 920.11 624.14 1057.25 674.95
00048390 00000052 867.94 96.23 478.00 704.84 948.63 378.21 1138.87 436.36 974.67 524.29 921.25 626.36 1058.75 676.45
00048391 00000053 868.54 96.45 479.16 704.87 949.26 377.68 1139.67 437.41 974.63 525.88 920.84 626.93 1058.57 678.20
00048392 00000054 868.16 97.18 480.57 703.98 949.98 378.16 1140.60 438.14 975.30 525.19 921.19 626.33 1060.18 677.63
00048393 00000055 867.26 97.07 483.28 703.40 952.03 378.15 1142.43 438.10 977.80 524.78 923.51 625.83 1061.85 677.06
00048394 00000056 867.77 96.82 482.43 703.65 953.03 377.96 1141.96 438.19 978.24 523.89 924.25 625.08 1060.97 676.64
00048395 00000057 867.96 96.23 482.69 704.29 953.23 377.87 1142.41 437.91 978.96 523.88 924.46 625.23 1061.45 676.61
00048396 00000058 868.11 96.70 481.82 703.20 952.32 378.09 1142.47 438.05 979.24 524.68 924.14 625.55 1062.24 676.83
00048397 00000059 868.31 95.86 481.39 703.86 952.07 378.31 1142.63 437.91 979.65 524.70 924.33 625.78 1063.00 676.73
00048398 00000060 868.89 96.03 482.93 703.51 953.14 377.77 1144.15 436.98 980.42 524.16 925.04 625.22 1063.95 675.90
00048399 00000061 868.80 94.87 481.87 704.25 953.45 376.12 1144.59 435.72 981.32 523.58 924.99 624.01 1063.53 675.11
00048400 00000062 868.38 94.93 482.66 703.45 953.26 375.82 1144.79 434.81 981.28 524.35 926.15 624.18 1064.35 674.72
00048401 00000063 868.95 94.58 482.37 703.52 953.31 375.82 1144.75 434.68 981.29 524.39 926.36 624.21 1064.47 674.62
00048402 00000064 870.54 95.79 481.50 702.28 953.57 376.29 1145.42 435.40 981.32 524.28 926.11 624.64 1064.66 675.33
00048403 00000065 870.01 97.09 481.54 700.54 955.16 376.72 1146.63 436.55 982.61 524.88 927.33 625.12 1065.04 676.31
00048404 00000066 871.63 99.32 483.90 697.29 956.59 377.65 1148.30 437.34 983.36 524.73 928.64 627.14 1064.59 678.09
00048405 00000067 872.33 99.15 484.37 698.48 956.60 378.77 1148.61 437.53 983.47 526.87 929.81 629.79 1066.36 679.83
00048406 00000068 872.87 101.28 484.89 697.33 956.40 379.90 1148.85 437.87 983.56 528.82 930.00 632.25 1066.41 681.60
00048407 00000069 873.44 100.13 484.40 698.82 956.84 380.91 1149.08 438.87 984.40 531.08 931.33 633.42 1067.63 682.68
00048408 00000070 873.80 102.43 484.80 698.04 957.66 381.94 1150.28 439.04 986.20 532.98 933.17 635.39 1068.79 683.94
00048409 00000071 876.54 102.21 482.75 700.18 958.85 382.27 1151.26 440.57 985.98 535.07 932.77 636.63 1068.56 686.19
00048410 00000072 879.54 103.80 477.01 703.93 954.26 387.46 1147.05 433.95 988.50 539.51 934.21 640.84 1073.23 682.18
00048411 00000073 879.62 107.74 477.22 702.27 953.63 390.76 1146.03 436.86 987.35 542.92 934.06 644.58 1072.70 685.41
00048412 00000074 880.99 111.09 473.37 701.61 954.81 393.29 1146.85 440.15 988.01 544.59 933.25 646.69 1072.09 688.08
00048413 00000075 881.00 113.27 471.98 705.59 954.28 396.68 1145.82 442.82 986.41 545.19 932.57 650.74 1070.82 691.44
00048414 00000076 880.64 114.36 472.46 710.48 954.30 397.99 1145.21 443.96 985.11 546.71 933.49 653.87 1070.17 694.40
00048415 00000077 880.15 117.57 472.02 713.12 955.62 399.76 1145.36 445.25 984.32 546.02 934.72 655.76 1069.23 695.95
00048416 00000078 880.21 118.37 470.54 712.93 956.19 401.85 1145.57 446.40 985.26 546.09 935.78 657.17 1069.21 696.57
00048417 00000079 879.70 120.61 469.39 710.77 956.12 403.12 1146.00 446.81 986.50 547.23 935.83 658.26 1069.28 696.97
00048418 00000080 878.98 120.12 470.62 712.99 955.61 403.91 1145.93 447.57 986.42 547.62 935.53 659.67 1069.58 698.30
00048419 00000081 879.39 120.82 470.22 711.65 955.48 404.11 1145.49 447.74 986.20 547.52 935.66 659.14 1069.58 697.69
00048420 00000082 879.83 120.81 470.18 712.32 955.39 403.78 1145.39 447.86 985.75 548.30 935.79 659.54 1069.68 698.44
00048421 00000083 880.38 120.43 468.36 713.81 955.48 404.89 1145.26 448.26 986.39 548.88 936.38 660.95 1069.61 699.32
00048422 00000084 881.43 120.81 467.99 716.90 956.07 405.39 1145.21 449.18 985.02 548.47 937.22 662.68 1069.09 701.39
00048423 00000085 881.10 121.53 468.44 718.76 956.00 405.44 1145.74 448.99 985.20 548.83 937.56 663.65 1070.05 702.11
00048424 00000086 881.76 122.02 468.78 718.84 956.07 405.13 1145.92 448.93 985.06 549.20 937.59 663.44 1070.62 702.13
00048425 00000087 881.74 120.25 468.82 719.44 956.24 404.60 1145.56 448.04 985.18 548.79 937.99 662.53 1071.04 700.94
00048426 00000088 880.09 117.84 470.09 718.84 955.96 403.06 1146.30 447.24 985.93 549.53 937.71 661.45 1072.45 700.30
00048427 00000089 880.53 117.42 470.19 718.84 955.80 402.86 1146.21 447.03 985.74 549.03 937.17 660.99 1072.22 699.85
00048428 00000090 880.69 117.17 467.96 718.32 955.91 403.26 1145.54 447.39 985.29 548.52 937.16 660.76 1071.39 699.54
00048429 00000091 879.97 116.28 467.87 717.99 955.11 403.46 1144.30 446.93 985.09 548.65 936.69 660.97 1070.12 699.18
00048430 00000092 879.82 115.90 468.32 718.81 954.85 404.27 1143.65 446.97 984.54 548.34 936.85 661.68 1069.86 699.28
00048431 00000093 877.04 116.13 470.52 719.44 954.01 405.88 1143.04 447.91 984.17 548.55 936.12 662.32 1069.35 699.37
00048432 00000094 877.75 117.27 469.58 717.88 953.59 407.13 1142.97 449.63 983.33 548.60 935.45 662.52 1069.31 699.87
00048433 00000095 878.76 117.33 469.09 719.59 953.84 407.55 1143.33 450.57 983.51 548.60 935.43 663.59 1069.08 701.37
00048434 00000096 878.37 118.45 470.17 719.98 953.63 407.72 1144.91 451.11 984.13 549.97 935.00 663.36 1072.15 701.51
00048435 00000097 876.96 117.15 471.16 722.27 952.05 407.54 1144.46 451.52 982.28 550.11 931.91 663.11 1070.99 701.80
00048436 00000098 876.42 117.11 471.61 722.75 951.32 407.01 1144.18 451.17 980.87 549.78 931.11 662.72 1071.14 701.55
00048437 00000099 876.16 119.68 469.68 717.74 950.68 407.28 1142.95 452.93 979.90 550.07 929.00 659.92 1070.06 700.01
00048438 00000100 875.53 116.62 468.98 715.77 952.79 407.94 1137.03 458.08 976.06 548.66 927.88 653.73 1066.77 697.37
00048439 00000101 863.24 119.89 480.33 716.81 947.81 405.38 1131.25 453.82 966.51 539.62 920.72 647.05 1060.02 689.26
00048440 DELETE   854.90 123.09 477.52 717.92 936.32 407.35 1112.28 450.97 944.66 533.44 912.14 645.24 1048.33 682.87
00048441 00000103 844.97 120.47 472.12 710.64 915.29 404.65 1089.14 441.49 915.66 531.42 897.77 645.04 1030.76 676.21
00048442 DELETE   836.93 113.50 466.25 717.91 888.63 403.82 1050.75 439.11 887.21 530.08 874.80 647.68 992.31 679.08
00048443 DELETE   823.79 124.00 459.95 697.74 873.19 408.55 1028.19 435.66 848.35 536.70 864.67 651.72 981.05 673.12
00048444 DELETE   798.33 124.75 462.45 699.83 839.85 415.33 990.48 438.84 814.61 546.89 837.74 661.33 951.38 680.41
00048445 00000107 770.36 135.97 455.18 687.80 815.03 418.97 953.96 440.55 776.12 553.13 814.25 661.32 921.49 677.27
00048446 00000108 755.56 140.15 452.52 695.95 801.88 428.35 929.82 440.50 754.27 560.43 803.73 675.63 903.89 682.72
00048447 00000109 747.57 142.82 465.76 695.66 783.57 433.34 923.09 448.52 756.27 573.01 802.25 683.59 905.99 695.58
00048448 00000110 736.61 145.37 473.31 695.79 776.16 436.72 922.42 449.76 753.41 578.34 797.21 687.38 904.48 697.59
00048449 00000111 727.56 150.22 471.82 692.08 772.89 438.42 913.59 450.44 742.04 581.66 792.88 688.18 896.19 696.65
00048450 00000112 711.75 149.47 472.10 687.86 755.13 438.30 899.37 446.98 728.63 582.07 777.78 691.97 882.44 697.15
00048451 00000113 700.52 154.62 468.26 687.21 741.03 441.06 881.26 450.48 711.09 587.73 764.28 694.63 866.37 700.05
00048452 00000114 690.70 159.74 462.18 683.82 730.85 445.72 868.87 457.82 698.81 593.07 753.27 697.33 853.15 705.05
00048453 00000115 681.83 165.49 466.93 684.15 727.29 451.02 855.89 461.74 690.55 595.99 754.33 701.64 846.60 707.21
00048454 00000116 681.32 162.23 471.13 694.27 726.41 461.80 849.64 469.10 697.32 606.29 754.76 709.90 846.68 715.22
00048455 00000117 675.72 165.01 468.52 689.08 718.48 461.11 840.68 471.06 688.91 613.03 750.68 713.99 842.51 721.11
00048456 00000118 661.20 177.90 472.22 673.26 711.00 461.12 839.73 475.33 681.27 611.70 743.53 713.52 833.10 723.14
00048457 00000119 659.53 175.86 468.72 669.47 706.25 459.19 837.50 471.84 678.04 607.97 738.11 708.79 829.57 717.18
00048458 00000120 657.72 175.74 469.83 672.93 705.39 455.76 834.67 469.78 673.07 607.46 738.08 709.32 827.26 718.35
00048459 00000121 652.60 175.24 469.05 680.04 701.63 457.45 824.74 468.11 662.74 606.71 734.26 714.39 819.21 720.07
00048460 00000122 644.97 177.86 469.49 676.20 691.76 458.76 815.84 468.61 652.11 611.04 726.58 718.20 811.83 722.56
00048461 00000123 636.20 182.77 465.75 671.48 685.19 468.83 805.28 472.72 647.06 614.79 721.60 723.50 805.46 722.98
00048462 00000124 638.65 185.09 461.67 671.25 690.47 476.42 789.26 490.21 644.92 624.20 721.65 717.75 794.63 727.46
00048463 00000125 626.12 188.66 469.00 668.90 682.37 479.74 775.87 496.68 633.76 631.37 715.61 718.67 785.26 731.10
00048464 00000126 610.35 188.79 474.50 678.72 675.91 477.44 756.46 495.24 619.02 636.33 715.75 724.61 777.50 737.10
CROP_BBOX: 427 0 1544 1051
