Video ID: 	N9vEjZkCwro
H: 	1080
W: 	1920
FPS: 	23.976023976023978

FRAME INDEX X0 Y0 W H [Landmarks (5 Points)]

00003192 00000000 609.26 102.20 467.42 681.61 807.44 393.07 995.18 367.96 966.34 472.48 857.91 618.23 1020.97 595.42
00003193 00000001 625.85 100.79 463.46 671.39 807.46 395.94 1004.42 365.86 964.95 472.31 863.50 612.44 1031.64 587.25
00003194 00000002 632.70 105.02 465.70 660.17 813.91 399.83 1011.59 367.84 972.67 474.43 869.35 611.33 1040.66 584.74
00003195 00000003 635.45 119.98 471.36 656.15 827.71 401.25 1024.61 378.44 984.16 483.61 876.67 616.29 1048.31 595.53
00003196 DELETE   640.61 128.01 467.13 663.55 837.03 410.30 1028.56 395.29 990.04 502.82 880.79 632.73 1044.66 619.17
00003197 DELETE   643.99 138.97 458.82 666.15 842.14 428.19 1031.04 409.36 992.94 526.70 883.04 651.35 1042.90 635.10
00003198 DELETE   643.10 152.02 463.37 679.36 843.52 441.87 1034.33 422.58 997.98 538.84 886.95 669.21 1047.58 652.14
00003199 00000007 636.85 163.49 465.38 689.64 837.68 452.16 1026.48 431.71 994.66 547.08 886.48 683.07 1043.02 665.37
00003200 00000008 623.67 171.70 471.03 700.98 836.15 462.01 1015.05 447.66 984.24 552.01 879.95 690.81 1031.88 676.27
00003201 00000009 614.97 180.22 470.18 715.86 828.60 465.51 999.77 450.79 977.82 549.73 874.91 700.71 1024.33 686.75
00003202 00000010 609.04 187.32 469.96 712.44 820.90 470.33 993.78 459.78 968.06 556.30 863.64 704.93 1015.88 694.54
00003203 00000011 602.54 191.54 471.73 706.30 812.56 474.26 996.90 461.64 969.90 565.01 855.43 712.74 1014.11 700.92
00003204 00000012 598.15 192.32 471.93 705.31 799.83 478.24 990.90 464.81 957.54 571.16 846.69 716.95 1010.21 704.21
00003205 00000013 591.96 197.87 468.66 709.11 792.40 483.71 985.38 470.04 948.27 578.65 837.66 723.28 1002.73 710.50
00003206 00000014 576.03 200.22 477.21 718.94 782.84 491.07 979.56 467.46 942.96 588.07 838.17 739.26 999.23 716.54
00003207 00000015 570.88 209.11 480.04 715.01 776.79 497.50 971.39 475.71 934.90 592.83 831.97 743.60 993.10 722.00
00003208 00000016 565.51 211.88 479.52 715.47 769.74 500.64 965.59 479.76 927.23 595.36 823.32 745.20 986.04 724.33
00003209 00000017 559.24 214.31 484.29 718.62 762.58 498.37 960.99 476.89 922.49 593.27 811.71 744.49 982.70 723.24
00003210 00000018 560.30 213.65 483.30 710.41 765.28 494.59 958.22 470.62 922.75 582.51 819.85 736.27 983.11 712.92
00003211 00000019 563.88 207.02 481.96 700.21 768.92 488.54 957.87 462.17 928.11 564.50 827.54 722.69 987.51 697.97
00003212 00000020 568.64 197.84 481.25 688.78 771.97 478.93 958.62 461.28 928.24 550.79 820.05 700.95 983.49 685.54
00003213 00000021 572.94 191.12 482.96 669.57 774.18 468.71 963.07 449.93 930.35 529.67 826.39 680.57 991.39 662.77
00003214 00000022 579.24 182.04 481.63 663.77 778.19 452.16 971.33 433.64 940.47 506.83 830.85 664.57 1001.93 646.23
00003215 00000023 589.79 181.51 482.82 643.88 782.50 440.41 975.27 421.71 943.43 489.70 843.91 654.37 1010.39 635.75
00003216 00000024 596.53 180.24 479.29 626.22 789.92 434.80 985.04 418.84 951.25 486.24 848.33 645.58 1016.93 629.85
00003217 00000025 604.31 184.25 471.03 608.71 798.16 436.05 991.81 421.30 960.07 492.43 851.60 640.04 1021.86 625.01
00003218 00000026 610.55 187.78 472.41 606.85 803.61 440.51 997.52 423.82 964.41 498.88 859.44 644.08 1027.81 626.93
00003219 00000027 615.58 184.72 471.21 626.88 809.12 444.96 1000.50 423.39 971.06 505.05 868.86 652.98 1036.01 631.91
00003220 00000028 620.48 181.87 473.78 650.99 816.06 455.09 1006.27 432.25 974.83 514.48 871.50 659.44 1042.00 638.57
00003221 00000029 631.07 186.76 469.73 658.55 829.22 463.17 1013.84 444.01 981.82 527.13 885.10 672.22 1043.45 654.08
00003222 00000030 645.84 197.49 463.64 664.38 841.29 468.20 1025.79 457.33 990.39 545.91 890.30 685.78 1047.67 674.78
00003223 00000031 664.36 194.14 452.55 686.14 851.14 471.64 1034.69 463.27 1002.58 555.56 900.09 703.96 1055.45 695.56
00003224 00000032 666.96 196.75 454.57 705.68 853.64 485.04 1045.11 472.31 1013.06 570.04 899.17 721.17 1068.40 709.26
00003225 DELETE   677.91 203.89 452.64 713.00 858.95 502.38 1051.73 479.62 1018.31 587.18 912.26 741.09 1074.13 720.39
00003226 00000034 677.30 212.31 457.48 726.80 869.60 516.51 1060.59 501.72 1031.11 602.33 914.50 753.41 1076.09 739.60
00003227 DELETE   679.38 228.59 464.19 727.97 883.66 529.55 1070.58 515.66 1043.26 629.54 917.02 770.21 1083.04 757.74
00003228 00000036 687.51 229.09 463.40 738.79 884.96 541.38 1076.81 528.63 1040.84 644.47 926.43 775.41 1094.21 763.32
00003229 00000037 685.49 233.58 465.32 745.35 882.03 545.86 1078.73 531.27 1038.85 652.25 923.64 784.10 1092.49 770.63
00003230 00000038 669.06 234.51 477.25 746.23 882.87 539.42 1071.84 531.81 1037.70 648.70 919.86 788.82 1079.29 780.75
00003231 00000039 656.39 226.25 477.42 759.50 868.50 530.37 1059.03 527.95 1024.29 640.06 897.77 781.25 1068.23 777.42
00003232 00000040 643.78 227.38 478.81 745.09 854.90 520.72 1048.28 514.23 1012.45 636.01 877.60 767.68 1056.42 760.30
00003233 00000041 639.06 214.60 480.69 738.95 849.92 509.65 1047.83 502.90 1008.09 629.85 872.09 755.97 1051.37 747.82
00003234 00000042 637.33 206.91 476.47 731.60 840.11 505.02 1037.70 492.49 997.42 618.44 866.09 744.08 1048.23 732.43
00003235 00000043 630.77 190.36 470.46 719.85 833.86 497.40 1028.08 483.10 987.90 607.50 862.05 730.28 1036.32 716.69
00003236 00000044 629.59 174.31 470.36 713.79 822.60 480.84 1028.50 464.26 982.50 589.13 861.64 711.22 1038.50 696.22
00003237 00000045 622.22 162.43 474.91 718.68 818.84 468.03 1021.41 451.19 978.50 574.96 855.47 696.03 1032.97 680.97
00003238 00000046 618.44 155.50 472.08 719.31 813.93 458.43 1009.78 442.70 971.68 562.02 851.44 685.93 1026.89 672.06
00003239 00000047 612.30 146.62 470.77 716.47 808.95 445.52 1006.86 434.31 964.39 550.72 841.08 675.54 1015.35 665.61
00003240 00000048 610.90 136.42 465.50 729.12 807.36 436.49 1000.33 427.31 958.54 538.31 840.91 672.14 1009.58 663.70
00003241 00000049 605.97 126.48 463.08 737.57 804.58 424.57 991.99 415.57 954.04 524.86 838.98 667.17 1007.00 658.66
00003242 00000050 585.32 115.41 485.63 744.38 801.21 416.47 992.92 401.54 957.95 518.37 836.82 660.87 1005.17 646.49
00003243 00000051 585.94 117.83 480.29 721.94 793.52 409.24 982.65 399.24 944.83 506.19 829.59 646.44 996.14 636.94
00003244 00000052 580.09 111.79 482.36 719.73 787.77 404.15 979.10 395.90 940.72 501.84 823.06 639.36 992.19 630.95
00003245 00000053 570.25 105.54 483.93 722.01 779.63 398.43 972.21 392.43 934.93 494.46 813.19 630.29 988.31 623.38
00003246 00000054 563.61 103.24 484.37 713.57 773.58 397.19 967.28 383.08 932.70 496.42 800.66 621.74 984.79 608.53
00003247 00000055 557.59 100.59 485.41 700.99 768.12 396.75 962.41 378.58 927.00 497.05 792.44 613.94 979.08 597.36
00003248 00000056 551.74 98.46 484.72 697.86 761.56 393.83 958.57 372.41 922.50 494.28 783.59 611.75 974.51 592.62
00003249 00000057 548.51 99.68 483.60 694.96 755.91 392.16 951.66 374.19 913.59 491.63 776.83 609.58 966.08 593.01
00003250 00000058 545.05 100.12 481.24 694.30 751.20 390.82 941.79 373.26 905.68 489.26 771.68 607.98 956.81 591.56
00003251 00000059 547.25 95.87 476.52 703.26 740.54 387.43 941.55 365.94 904.06 482.85 774.74 609.62 962.73 591.02
00003252 00000060 546.96 92.36 476.35 703.86 739.67 383.15 941.34 361.91 902.43 477.44 774.30 605.35 963.40 587.16
00003253 00000061 544.49 94.20 480.60 694.30 751.88 379.05 945.45 361.93 908.16 478.13 773.99 599.87 959.68 583.31
00003254 00000062 547.24 96.82 485.56 694.28 757.68 381.60 951.86 365.65 914.34 477.72 780.55 602.39 964.92 587.02
00003255 00000063 556.44 97.28 482.34 701.21 766.12 387.40 959.30 367.92 924.45 488.29 790.17 609.20 974.89 591.33
00003256 00000064 566.57 102.71 481.67 705.12 777.02 393.19 968.89 380.62 933.27 495.79 805.23 618.89 982.69 606.88
00003257 00000065 578.67 109.75 481.45 710.60 786.26 400.93 980.27 392.10 940.26 499.94 822.24 633.22 991.74 623.77
00003258 00000066 590.99 116.85 476.10 708.13 797.05 407.85 987.79 396.38 949.87 508.42 835.29 642.92 999.55 631.80
00003259 00000067 600.57 124.40 469.77 702.94 802.48 411.80 994.08 400.44 954.79 513.32 840.02 647.00 1005.49 636.09
00003260 00000068 608.97 131.77 463.58 693.22 805.60 413.52 995.99 400.85 957.23 511.33 844.11 647.24 1010.29 635.66
00003261 00000069 612.16 132.01 462.07 699.87 807.88 413.34 993.67 401.01 958.37 510.21 840.92 646.84 1009.75 636.11
00003262 00000070 612.06 129.53 462.07 697.76 809.65 412.84 994.77 400.52 960.75 508.35 843.16 644.36 1011.10 633.63
00003263 00000071 614.37 132.37 463.13 696.56 812.13 414.59 999.72 402.00 963.87 511.53 846.54 647.25 1014.97 636.18
00003264 00000072 616.06 137.45 463.96 699.45 812.67 422.60 1004.45 407.05 968.83 517.56 849.53 656.33 1020.77 643.10
00003265 00000073 620.55 148.92 463.76 691.61 818.70 428.09 1009.43 412.75 975.02 523.99 861.79 662.96 1027.13 649.57
00003266 00000074 623.45 150.31 467.18 682.53 818.51 427.88 1014.49 408.54 979.93 521.23 860.89 656.44 1034.42 639.98
00003267 00000075 621.85 141.71 467.13 680.86 818.77 423.77 1012.41 402.74 979.66 514.10 858.90 648.28 1032.66 630.37
00003268 00000076 618.43 136.92 469.00 674.49 820.29 415.26 1008.84 398.13 977.24 502.97 859.85 638.42 1027.43 623.83
00003269 00000077 616.37 134.15 468.74 679.71 814.77 414.21 1003.75 397.49 971.17 496.67 856.32 638.05 1024.53 623.55
00003270 00000078 614.67 136.23 469.43 692.37 810.20 414.03 995.10 397.02 965.16 490.52 856.11 644.42 1022.64 630.30
00003271 00000079 845.85 113.47 396.87 616.68 1068.35 391.77 1202.27 375.12 1224.31 462.30 1095.23 580.34 1216.57 567.38
00003272 00000080 854.04 118.41 393.44 615.13 1077.36 397.59 1210.96 383.35 1227.85 472.75 1096.63 585.16 1218.41 574.53
00003273 00000081 865.92 122.50 390.48 621.18 1089.97 401.67 1223.55 391.08 1237.98 480.65 1104.89 592.16 1228.64 583.65
00003274 00000082 874.67 131.98 388.97 620.53 1100.33 405.05 1233.21 400.54 1246.44 487.09 1115.31 600.87 1235.10 596.27
00003275 00000083 873.98 132.55 391.53 617.95 1086.53 408.76 1217.65 393.04 1232.93 485.88 1122.69 596.45 1236.75 583.30
00003276 00000084 877.07 132.73 393.85 618.72 1088.54 407.12 1221.66 392.50 1234.06 483.77 1121.83 594.90 1238.57 582.43
00003277 00000085 877.95 127.40 392.21 625.71 1086.68 403.94 1218.22 388.03 1230.79 478.59 1123.17 592.60 1238.81 578.76
00003278 00000086 880.98 133.17 390.29 628.19 1105.11 395.96 1232.67 399.75 1242.78 484.45 1118.68 602.91 1231.78 605.29
00003279 00000087 876.82 135.62 385.84 626.98 1099.92 401.63 1230.64 402.11 1240.43 488.67 1111.10 605.19 1230.58 604.84
00003280 00000088 868.26 133.63 387.62 625.88 1093.13 407.75 1225.05 404.45 1234.03 491.35 1107.01 607.93 1225.46 604.39
00003281 00000089 853.49 131.67 393.15 623.59 1078.79 417.79 1211.47 405.43 1222.01 495.07 1098.08 610.08 1214.68 599.62
00003282 00000090 839.28 137.00 395.57 614.48 1061.77 425.27 1202.97 405.65 1210.65 499.37 1089.47 615.23 1206.61 598.28
00003283 00000091 831.07 146.63 397.98 605.97 1051.45 433.63 1197.61 409.96 1202.79 504.92 1080.35 622.21 1197.39 602.32
00003284 00000092 823.02 150.82 399.46 607.08 1043.16 441.30 1186.81 417.48 1189.75 512.15 1072.41 628.50 1186.75 608.72
00003285 00000093 818.12 151.32 394.98 612.00 1038.69 443.74 1175.97 419.96 1180.37 520.22 1067.53 634.06 1173.16 614.79
00003286 00000094 814.36 149.03 395.78 613.56 1034.84 441.33 1171.85 415.33 1178.01 520.42 1060.18 630.23 1167.47 609.77
00003287 00000095 811.30 148.63 398.13 611.72 1030.88 440.11 1169.38 412.83 1177.20 518.75 1057.49 627.21 1167.69 605.83
00003288 00000096 812.69 148.02 397.59 612.34 1031.29 436.73 1170.88 412.27 1176.60 516.15 1057.48 626.02 1168.95 606.60
00003289 00000097 817.20 146.42 396.19 616.06 1037.08 430.43 1171.95 411.58 1179.32 508.69 1061.83 623.59 1171.30 608.72
00003290 00000098 826.12 144.11 392.15 611.23 1042.21 419.20 1179.52 407.89 1186.41 491.93 1069.14 609.15 1186.60 598.78
00003291 00000099 830.73 129.25 390.64 600.69 1043.97 407.71 1179.64 392.47 1193.68 470.89 1084.00 590.65 1198.26 576.66
00003292 00000100 835.98 124.10 387.84 587.52 1051.20 387.04 1185.74 381.78 1200.70 451.38 1094.09 572.58 1206.19 567.33
00003293 00000101 834.09 123.07 387.63 577.00 1049.07 374.17 1179.53 370.83 1198.75 437.36 1095.85 560.63 1203.73 557.34
00003294 00000102 834.98 118.02 389.16 582.01 1051.36 367.68 1182.02 369.32 1199.74 431.76 1095.98 554.50 1204.00 554.73
00003295 00000103 836.52 108.92 388.75 603.38 1055.48 360.89 1186.33 369.56 1204.90 428.57 1099.18 554.94 1208.41 560.12
00003296 00000104 835.91 108.70 389.90 610.31 1059.42 354.43 1184.17 368.70 1206.51 423.74 1100.02 554.16 1206.77 563.83
00003297 00000105 835.63 109.10 391.06 607.25 1058.28 354.35 1189.20 368.96 1211.43 424.92 1098.93 552.44 1208.12 562.50
00003298 00000106 834.36 115.71 392.41 600.40 1056.14 359.19 1187.31 371.24 1208.53 428.08 1099.27 555.17 1209.22 562.76
00003299 00000107 834.47 113.67 389.59 607.20 1055.13 362.95 1185.34 373.90 1207.02 432.26 1099.12 558.15 1208.00 564.64
00003300 00000108 833.25 120.00 388.91 604.64 1053.90 365.50 1180.13 375.42 1202.88 434.90 1097.71 561.14 1204.03 567.05
00003301 00000109 834.22 118.70 384.74 609.62 1054.10 366.47 1177.03 375.81 1199.30 438.51 1096.15 564.56 1200.11 570.45
00003302 00000110 835.85 123.11 382.75 613.08 1051.17 367.61 1176.46 377.87 1192.99 442.70 1088.09 569.68 1195.36 576.66
00003303 00000111 834.58 126.80 380.43 600.62 1050.39 365.83 1172.67 377.00 1189.91 444.37 1082.37 563.39 1186.65 571.90
00003304 00000112 832.32 130.92 380.71 586.84 1050.25 368.32 1172.01 379.56 1189.02 442.93 1079.22 556.68 1183.29 565.89
00003305 00000113 828.59 135.89 380.34 559.89 1046.26 363.23 1174.54 375.17 1191.44 432.64 1078.97 545.39 1185.59 555.86
00003306 00000114 825.45 130.39 379.67 544.37 1033.88 361.85 1178.06 372.44 1181.38 427.91 1062.33 536.63 1187.63 544.32
00003307 00000115 821.84 127.68 378.56 538.18 1025.03 351.87 1175.24 367.63 1174.31 418.14 1054.34 525.45 1184.18 537.23
00003308 00000116 815.84 126.41 380.42 531.73 1019.18 341.57 1173.07 362.03 1167.65 407.92 1048.17 513.84 1180.21 529.80
CROP_BBOX: 280 0 1535 1080
