Video ID: 	_r0M9apMMQs
H: 	1080
W: 	1920
FPS: 	25.0

FRAME INDEX X0 Y0 W H [Landmarks (5 Points)]

00004077 00000000 396.63 204.76 460.56 542.65 569.18 453.28 710.56 376.58 742.80 454.65 708.67 616.16 832.34 553.61
00004078 00000001 397.63 200.97 461.94 546.16 575.08 447.01 706.74 374.40 748.15 447.17 716.53 611.83 833.83 552.90
00004079 00000002 407.08 202.40 455.61 540.31 581.17 443.54 710.26 370.41 752.90 443.95 725.89 610.67 839.65 551.16
00004080 00000003 188.03 95.42 309.04 360.21
00004081 DELETE   190.14 93.91 308.78 359.71
00004082 00000005 192.26 92.39 308.53 359.21
00004083 00000006 194.37 90.88 308.28 358.71
00004084 00000007 196.49 89.36 308.03 358.21
00004085 00000008 198.81 87.30 308.39 358.54
00004086 00000009 201.13 85.23 308.75 358.88
00004087 00000010 203.45 83.17 309.11 359.21
00004088 00000011 205.77 81.10 309.47 359.54
00004089 00000012 439.82 168.37 454.79 550.49 629.69 402.36 742.00 327.86 806.08 428.00 784.72 595.31 877.60 536.32
00004090 00000013 208.55 79.09 309.04 360.39
00004091 00000014 209.00 79.14 308.25 360.91
00004092 00000015 209.45 79.20 307.46 361.42
00004093 00000016 442.64 175.65 436.81 566.73 615.10 422.63 746.72 347.47 790.26 450.60 747.11 608.31 864.40 548.47
00004094 00000017 210.35 79.30 305.88 362.46
00004095 00000018 210.82 79.88 304.90 363.02
00004096 00000019 211.29 80.45 303.91 363.59
00004097 00000020 211.76 81.02 302.93 364.16
00004098 00000021 212.22 81.59 301.95 364.73
00004099 00000022 212.69 82.17 300.97 365.29
00004100 00000023 212.41 82.52 300.55 365.63
00004101 00000024 212.13 82.87 300.14 365.96
00004102 00000025 211.86 83.23 299.73 366.30
00004103 00000026 211.58 83.58 299.32 366.63
00004104 00000027 211.30 83.93 298.90 366.97
00004105 00000028 211.31 85.07 298.91 366.99
00004106 00000029 211.31 86.20 298.91 367.00
00004107 00000030 211.32 87.33 298.92 367.02
00004108 00000031 211.32 88.47 298.92 367.04
00004109 00000032 211.33 89.60 298.93 367.05
00004110 00000033 209.59 89.60 299.19 366.99
00004111 00000034 207.86 89.59 299.46 366.93
00004112 00000035 414.67 200.74 437.08 570.45 588.33 475.23 724.84 391.25 758.46 490.89 726.45 653.74 837.10 586.09
00004113 00000036 410.51 197.88 440.00 572.72 583.47 476.77 718.35 388.81 750.60 488.28 722.27 653.42 832.26 582.22
00004114 00000037 406.02 198.43 442.32 572.36 580.89 476.36 713.90 388.92 747.41 487.58 718.62 653.04 826.06 582.08
00004115 00000038 406.29 203.59 440.98 567.12 578.43 480.80 714.52 396.76 744.57 484.72 707.84 650.97 822.97 583.39
00004116 00000039 198.13 89.53 301.76 366.67
00004117 00000040 395.39 196.92 445.71 566.87 567.67 479.16 711.47 385.69 728.76 489.39 689.14 653.11 804.38 573.87
00004118 00000041 393.69 188.60 445.85 572.66 563.45 481.05 708.23 376.38 725.95 490.84 685.19 650.30 804.90 561.68
00004119 00000042 387.42 182.15 450.48 578.05 559.01 480.07 705.71 375.04 721.42 493.38 680.26 651.03 799.99 562.28
00004120 00000043 379.16 189.43 451.32 569.16 550.25 474.85 703.12 379.18 718.04 487.83 676.43 640.97 801.04 561.28
00004121 00000044 384.03 188.36 452.18 574.64 556.32 477.95 702.13 373.71 717.36 494.03 683.79 654.82 799.16 566.84
00004122 00000045 381.27 186.03 455.26 576.62 553.95 479.90 701.95 372.13 716.09 495.65 680.57 655.21 799.40 564.48
00004123 00000046 380.06 190.14 455.84 572.79 551.12 479.41 698.72 373.84 711.89 495.36 677.78 655.12 795.72 566.09
00004124 00000047 377.39 191.05 458.56 575.38 548.51 479.05 696.19 373.70 708.79 494.69 673.07 655.27 793.42 566.45
00004125 00000048 376.49 191.26 460.61 571.58 548.61 477.77 697.05 373.46 709.91 494.28 675.18 654.45 795.43 566.25
00004126 00000049 380.13 190.60 459.74 576.61 556.09 470.64 704.93 385.77 724.13 483.81 683.99 643.88 808.65 574.22
00004127 00000050 380.84 190.92 460.69 576.19 557.53 471.08 704.71 384.27 726.37 483.55 686.13 643.13 810.26 571.78
00004128 00000051 382.44 191.24 457.84 579.21 558.59 468.26 705.26 384.31 728.03 484.91 685.98 645.21 809.26 576.23
00004129 00000052 379.18 192.49 461.48 582.21 554.43 479.74 699.19 371.65 718.67 494.85 680.15 657.88 801.25 566.63
00004130 00000053 380.75 193.73 461.39 589.48 554.13 479.10 700.84 372.41 718.56 495.78 680.65 661.66 804.75 571.57
00004131 00000054 381.03 192.99 464.61 596.70 554.60 477.72 700.75 372.44 718.63 493.44 680.70 663.05 805.93 574.14
00004132 00000055 383.60 194.17 465.02 594.92 554.73 477.90 701.56 372.84 718.62 491.40 680.91 661.97 807.51 573.08
00004133 00000056 393.54 192.50 453.36 597.53 562.29 465.83 710.32 383.38 731.20 484.48 686.58 653.95 813.74 585.96
00004134 00000057 394.10 195.72 453.78 587.72 564.63 465.43 711.49 380.30 736.73 480.58 694.65 652.42 817.90 582.47
00004135 00000058 397.72 187.59 455.74 586.40 568.09 466.49 712.44 376.07 738.24 474.78 697.83 645.19 822.42 570.26
00004136 00000059 402.50 180.37 460.90 584.69 571.45 461.32 715.87 368.83 738.50 467.09 699.88 635.84 828.24 558.85
00004137 00000060 408.04 182.48 461.67 579.18 577.69 456.57 721.32 367.05 741.36 461.48 703.54 629.66 832.47 555.38
00004138 00000061 415.00 180.47 458.17 580.93 582.82 455.05 726.13 365.87 745.59 460.62 708.19 629.86 837.64 556.49
00004139 00000062 414.35 186.70 467.14 580.22 588.23 456.70 730.95 359.31 748.69 466.65 714.77 639.15 841.44 556.67
00004140 00000063 418.24 187.14 467.20 582.09 592.11 458.68 733.21 361.54 751.17 467.40 716.90 639.10 843.14 557.31
00004141 00000064 422.65 186.90 467.66 582.52 595.64 460.74 734.56 363.17 752.66 466.31 721.17 639.27 845.78 557.38
00004142 00000065 422.79 185.63 471.24 585.42 597.45 463.24 735.64 361.77 756.01 466.49 724.18 640.32 848.95 555.29
00004143 00000066 424.70 184.08 468.26 586.56 598.65 464.78 737.42 363.40 756.97 468.53 724.52 640.55 848.78 555.73
00004144 00000067 426.31 187.38 465.28 582.48 599.95 463.91 739.43 364.88 758.36 470.78 724.15 641.65 848.60 558.59
00004145 00000068 427.69 193.52 462.70 578.77 600.08 467.73 739.80 368.09 759.81 474.61 725.99 645.70 850.33 562.29
00004146 00000069 429.40 195.63 456.63 577.73 602.34 468.77 744.82 370.78 763.46 480.06 723.88 648.75 848.76 566.79
00004147 00000070 428.04 192.73 459.20 586.17 603.04 470.95 746.05 371.57 765.31 484.29 720.60 652.11 847.60 569.10
00004148 00000071 428.09 191.04 459.27 589.20 603.56 471.28 747.57 370.33 767.08 485.42 717.45 651.56 846.96 567.25
00004149 00000072 429.91 193.77 457.98 586.91 605.38 470.94 751.51 370.40 770.35 486.99 716.58 652.26 848.01 568.36
00004150 00000073 431.08 193.45 458.18 587.25 607.87 471.85 754.86 371.63 773.37 489.73 718.29 653.74 849.49 570.01
00004151 00000074 431.21 192.78 458.49 589.17 609.41 472.73 756.58 372.39 774.47 492.24 720.10 655.40 848.88 571.65
00004152 00000075 434.27 197.87 457.43 582.97 610.02 475.75 756.88 376.68 773.06 492.69 722.53 656.42 849.48 573.59
00004153 00000076 433.48 198.30 458.86 581.57 610.55 475.34 755.20 374.14 773.98 492.63 722.77 655.83 848.57 571.32
00004154 00000077 437.59 199.14 456.34 579.42 612.88 477.77 758.18 376.42 776.74 495.65 725.08 658.11 851.18 573.44
00004155 00000078 446.22 200.18 450.52 573.29 616.04 479.05 763.48 379.54 778.09 497.14 729.62 656.90 855.80 573.44
00004156 00000079 450.92 203.25 449.32 569.09 619.93 479.61 769.33 380.69 781.44 500.68 735.76 658.47 860.63 575.04
00004157 00000080 455.65 203.51 448.24 574.90 621.75 478.65 770.52 379.59 782.78 502.38 738.80 661.92 865.32 578.25
00004158 00000081 459.70 202.92 445.18 572.15 627.87 477.41 774.87 379.73 788.78 498.97 744.63 658.50 868.95 576.02
00004159 00000082 460.05 203.96 442.50 571.28 629.16 477.14 777.08 381.70 791.17 500.64 748.23 660.89 870.62 580.04
00004160 00000083 456.85 203.00 446.18 574.61 627.18 475.07 775.25 381.38 790.36 499.22 746.72 661.58 869.30 582.22
00004161 00000084 456.36 200.63 444.68 572.03 628.04 476.08 776.51 384.27 790.74 500.76 746.32 659.60 867.51 581.57
00004162 00000085 452.27 198.63 444.54 570.15 625.02 476.90 773.07 385.92 788.10 503.52 743.79 659.16 862.72 581.90
00004163 00000086 450.18 201.80 448.02 574.11 624.98 477.20 773.08 384.54 788.37 504.61 744.34 663.13 865.07 584.62
00004164 00000087 448.88 202.10 447.87 574.53 624.19 478.31 771.68 384.03 788.28 503.27 747.63 664.20 866.52 584.55
00004165 00000088 450.78 204.17 449.07 572.62 624.30 477.76 773.42 383.48 787.99 502.73 749.84 665.14 870.03 585.32
00004166 00000089 448.33 204.45 450.24 572.54 624.30 477.32 772.62 382.86 788.52 504.32 746.75 664.58 866.84 584.75
00004167 00000090 447.55 204.70 447.94 566.02 624.53 478.19 771.93 386.16 787.06 503.47 744.16 660.14 862.49 582.45
00004168 00000091 448.37 207.60 446.09 559.01 623.76 476.97 772.25 388.25 786.08 503.02 746.31 659.73 863.61 584.27
00004169 00000092 448.05 208.30 447.39 559.37 624.10 478.05 771.31 388.22 786.11 503.99 747.07 661.02 864.25 584.82
00004170 00000093 450.73 207.72 447.15 564.37 625.06 480.22 770.82 387.72 786.47 506.32 752.02 665.33 866.93 587.22
00004171 00000094 450.17 208.37 445.59 564.99 624.15 479.26 770.49 388.46 786.20 506.37 750.45 665.77 866.55 588.97
00004172 00000095 448.59 210.19 447.36 564.50 622.49 478.03 769.25 388.26 784.76 505.40 748.07 665.16 865.35 589.26
00004173 00000096 446.59 209.04 451.08 573.53 620.93 476.87 766.73 384.39 784.52 504.16 744.42 667.52 864.81 589.82
00004174 00000097 448.96 208.07 448.31 577.44 623.62 475.01 765.90 384.93 784.78 502.09 748.24 667.12 864.82 591.99
00004175 00000098 448.61 207.34 451.12 569.30 625.77 474.31 769.07 382.99 789.15 501.52 757.26 666.35 870.47 589.97
00004176 00000099 447.98 208.63 451.42 561.42 627.30 474.55 768.76 383.03 790.63 503.19 760.42 663.85 871.38 587.17
00004177 00000100 447.24 206.70 450.87 560.29 628.10 473.64 767.54 384.38 790.30 501.71 759.63 661.93 869.18 587.12
00004178 00000101 448.62 206.69 449.32 564.52 625.93 474.83 764.76 384.59 788.45 501.75 758.72 663.29 869.31 587.93
00004179 00000102 446.29 205.29 445.85 571.29 623.21 474.23 762.69 384.71 787.06 501.13 754.55 664.78 867.26 590.06
00004180 00000103 444.65 205.97 441.77 568.36 621.34 475.95 761.16 387.47 785.46 502.11 748.44 663.23 862.13 589.24
00004181 00000104 440.12 205.84 440.08 570.60 616.90 477.56 759.65 389.60 783.01 503.25 739.07 661.98 857.13 588.47
00004182 00000105 436.85 204.81 438.80 571.42 613.64 476.21 755.11 387.48 780.72 501.99 731.72 660.32 849.68 586.46
00004183 00000106 431.30 199.96 439.48 576.73 611.82 475.30 752.38 387.92 779.06 500.75 733.56 659.74 849.81 587.08
00004184 00000107 432.18 197.88 437.54 577.06 610.53 474.02 750.92 387.50 776.89 498.92 738.80 658.27 853.05 586.42
00004185 00000108 431.54 199.55 436.52 573.33 610.28 474.20 749.93 387.51 774.93 499.31 739.08 656.65 851.86 584.59
00004186 00000109 432.79 198.81 435.02 573.29 609.71 473.28 752.07 387.55 775.13 499.14 738.98 656.55 853.49 584.99
00004187 00000110 430.35 200.25 435.41 573.37 606.46 473.61 749.47 389.11 773.94 498.86 736.12 657.82 852.02 587.59
00004188 00000111 429.22 200.65 437.07 578.55 606.35 473.58 746.58 389.02 771.31 500.49 733.09 659.94 848.19 590.18
00004189 00000112 428.80 202.63 434.55 566.61 601.14 475.76 744.40 397.34 769.76 499.45 732.51 651.71 847.87 588.61
00004190 00000113 429.99 199.73 437.84 572.42 607.35 474.72 750.55 384.94 773.54 502.37 737.27 660.02 852.07 585.18
00004191 00000114 430.47 203.38 439.64 571.53 611.99 473.84 747.03 389.15 774.46 502.67 744.46 661.40 851.52 591.96
00004192 00000115 429.12 203.61 443.10 573.28 611.99 472.83 745.34 388.44 775.09 502.84 748.26 662.73 853.75 593.60
00004193 00000116 428.22 206.21 444.89 569.81 612.11 472.05 743.98 388.62 775.83 502.68 750.79 663.86 855.12 595.29
00004194 00000117 427.93 208.30 446.20 567.12 611.74 472.16 745.36 388.21 776.73 501.25 751.17 663.13 856.30 594.28
00004195 00000118 423.55 204.91 447.41 567.02 610.26 472.23 743.36 389.56 774.90 499.95 748.95 660.20 852.67 592.51
00004196 00000119 422.53 205.18 445.91 567.46 606.86 472.22 740.83 391.11 771.81 497.68 745.88 659.53 850.43 593.29
00004197 00000120 422.40 205.97 446.47 569.63 604.45 471.02 736.38 392.30 769.73 495.92 746.84 659.62 850.61 595.88
00004198 00000121 423.89 206.01 447.29 573.57 603.45 472.66 735.46 391.39 769.58 494.85 748.72 661.91 853.26 595.92
00004199 00000122 423.92 207.55 446.37 570.29 602.70 472.48 736.16 391.97 769.37 495.76 745.47 660.22 852.20 594.78
00004200 00000123 422.34 207.37 445.72 568.25 601.69 475.19 736.75 392.70 769.25 496.87 743.93 660.01 853.06 592.34
00004201 00000124 421.65 211.29 447.15 564.36 599.98 475.38 735.56 393.01 767.21 497.16 742.23 659.51 852.33 591.86
00004202 00000125 419.30 216.56 450.83 559.00 598.41 476.82 734.54 393.75 767.87 496.18 743.16 660.93 853.39 592.70
00004203 00000126 418.15 220.79 453.99 558.05 596.65 478.33 730.35 394.80 764.44 496.14 741.41 661.03 851.28 592.68
00004204 00000127 416.46 222.15 457.75 562.82 595.33 477.34 728.82 395.36 763.67 496.29 741.73 663.70 851.30 596.89
00004205 00000128 417.03 221.35 459.41 565.75 593.93 478.14 725.93 394.08 761.26 493.26 740.74 662.62 850.59 594.26
00004206 00000129 416.64 220.42 461.22 565.50 594.67 479.39 724.27 394.25 760.17 491.87 740.85 662.01 849.35 592.66
00004207 00000130 414.96 225.11 461.00 559.53 592.51 479.61 722.68 395.14 759.69 494.14 739.73 662.88 848.72 593.89
00004208 00000131 414.82 226.03 461.66 560.48 592.07 482.65 724.66 396.43 760.35 498.52 740.76 667.04 851.17 596.62
00004209 00000132 415.44 224.13 456.62 563.12 592.96 484.03 726.36 396.97 761.79 502.59 741.09 668.76 851.04 597.69
00004210 00000133 415.96 224.70 455.14 561.73 594.19 487.98 725.21 398.48 762.34 505.57 742.51 670.08 850.30 597.19
00004211 00000134 417.83 223.88 454.30 565.86 594.63 491.29 729.68 399.02 763.23 506.45 737.53 668.90 850.59 593.44
00004212 00000135 422.84 222.23 450.98 565.50 600.85 494.75 732.36 403.18 768.39 506.84 744.84 669.62 853.86 595.26
00004213 00000136 426.05 222.81 450.05 566.34 604.84 495.71 736.60 405.24 773.28 508.88 749.39 671.90 857.76 598.29
00004214 00000137 430.60 232.27 448.83 561.68 606.11 495.49 735.14 409.87 773.91 512.51 752.40 676.26 858.48 607.75
00004215 00000138 433.53 233.91 447.03 560.99 606.62 496.46 738.41 409.72 774.84 514.88 751.83 677.75 859.22 607.98
00004216 00000139 435.22 232.73 445.58 563.92 607.53 499.09 741.57 410.68 775.83 515.17 749.05 676.23 859.59 604.53
00004217 00000140 436.69 228.71 441.57 567.32 609.40 500.52 743.25 412.21 777.68 514.97 748.75 676.49 858.63 604.57
00004218 00000141 437.36 235.58 438.61 562.30 610.94 507.22 744.56 425.44 776.77 509.78 740.13 671.33 852.73 605.00
00004219 00000142 435.85 236.23 438.88 559.09 608.73 501.36 741.90 421.48 775.25 507.11 737.91 668.24 851.92 603.77
00004220 00000143 430.27 236.90 440.32 547.39 603.81 485.55 739.96 411.06 772.49 504.61 733.62 663.10 848.80 601.93
00004221 00000144 424.01 236.28 448.93 539.33 600.67 474.69 736.64 400.32 771.47 495.46 738.40 656.46 850.78 595.95
00004222 00000145 424.80 237.87 450.73 529.10 598.61 473.30 738.61 396.45 769.93 488.76 742.25 653.60 855.35 590.35
00004223 00000146 425.44 238.71 450.84 526.83 597.80 471.30 736.06 395.04 769.10 486.83 744.81 652.83 856.18 590.34
00004224 00000147 424.35 233.49 449.78 535.20 597.11 469.30 734.92 391.85 768.61 486.59 743.00 654.12 853.81 590.50
00004225 00000148 427.68 224.94 446.81 549.15 600.67 467.74 736.84 384.98 770.98 487.67 743.57 655.43 853.28 587.27
00004226 00000149 430.37 223.86 447.14 558.24 602.87 466.67 739.90 383.56 774.32 489.84 741.17 657.19 854.45 588.78
00004227 00000150 434.18 223.78 449.70 559.44 604.76 466.28 741.21 381.44 775.89 488.00 745.20 657.24 858.99 587.33
00004228 00000151 435.46 222.53 455.67 563.32 606.83 466.70 743.49 375.39 779.46 485.67 744.90 658.93 861.14 583.41
00004229 00000152 437.35 222.96 457.26 562.72 609.70 466.93 748.76 373.73 784.24 486.13 743.70 659.59 863.32 582.09
00004230 00000153 441.04 219.07 458.71 566.51 611.39 465.66 754.84 367.33 786.92 485.61 742.68 660.02 867.40 577.82
00004231 00000154 441.75 211.54 456.34 568.89 615.64 463.69 759.63 364.47 791.95 484.92 745.29 657.29 868.53 573.89
00004232 00000155 440.15 206.26 459.40 569.99 617.46 462.60 762.31 363.79 793.02 482.91 743.86 653.33 867.26 570.20
00004233 00000156 441.72 202.66 454.74 567.75 622.95 461.63 765.91 367.11 796.45 483.44 750.76 651.76 867.36 572.08
00004234 00000157 443.57 205.65 458.56 561.16 625.08 462.49 769.09 369.77 797.16 481.92 755.67 650.07 871.37 571.50
00004235 00000158 443.14 205.41 460.82 560.37 626.42 463.24 769.78 371.71 798.21 481.49 758.78 650.17 873.67 572.64
00004236 00000159 445.72 203.88 453.34 556.02 627.59 463.99 772.31 375.11 796.49 481.21 756.06 646.22 870.53 570.93
00004237 00000160 443.50 200.80 451.17 557.11 627.80 466.60 770.47 373.06 799.37 482.00 754.06 644.31 868.08 565.64
00004238 00000161 448.21 208.06 439.80 559.91 631.12 470.60 763.53 387.51 799.32 484.31 755.29 649.06 863.86 579.58
00004239 00000162 449.14 210.17 447.68 564.70 630.84 474.48 767.99 390.87 800.16 487.27 751.78 653.38 867.91 583.42
00004240 00000163 451.79 210.52 442.37 564.17 629.91 471.69 769.74 384.93 797.84 492.79 746.38 654.92 864.35 582.72
00004241 00000164 448.70 204.78 440.75 572.35 632.68 465.91 768.82 380.66 800.73 495.34 745.96 655.61 860.41 584.83
00004242 00000165 454.09 209.64 437.47 566.44 637.27 463.68 772.11 381.72 804.03 495.43 756.14 656.70 866.42 588.52
00004243 00000166 214.96 95.51 306.66 366.32
00004244 00000167 215.74 95.68 306.35 366.96
00004245 00000168 216.17 95.57 305.57 366.85
00004246 00000169 216.61 95.45 304.79 366.74
00004247 00000170 217.05 95.34 304.01 366.64
00004248 00000171 217.48 95.22 303.24 366.53
00004249 00000172 453.52 203.25 432.83 567.86 634.23 447.16 764.44 373.99 802.35 478.37 758.91 646.07 864.83 585.60
00004250 00000173 451.73 203.58 433.38 565.69 633.24 448.63 767.87 373.52 805.23 477.93 757.66 646.39 867.27 583.87
00004251 00000174 450.52 207.22 438.83 565.33 632.34 451.12 768.23 373.72 805.44 479.14 759.23 650.07 869.42 585.66
00004252 00000175 452.13 206.53 441.01 564.90 634.01 456.66 771.41 375.46 805.30 481.42 758.73 650.27 870.92 582.36
00004253 00000176 449.61 203.34 444.12 569.42 639.49 459.08 771.67 377.92 811.99 483.15 765.13 652.06 873.24 584.50
00004254 00000177 216.57 94.21 300.57 368.17
00004255 00000178 217.30 93.61 300.36 368.14
00004256 00000179 218.03 93.00 300.15 368.11
00004257 00000180 218.77 92.40 299.94 368.08
00004258 00000181 219.50 91.80 299.72 368.05
00004259 00000182 220.23 91.19 299.51 368.02
00004260 00000183 220.52 91.22 299.56 367.88
00004261 00000184 220.82 91.25 299.60 367.74
00004262 00000185 221.11 91.27 299.64 367.59
00004263 00000186 221.40 91.30 299.69 367.45
00004264 00000187 221.70 91.33 299.73 367.31
00004265 00000188 222.01 90.72 299.60 367.77
00004266 00000189 222.32 90.10 299.47 368.24
00004267 00000190 222.62 89.49 299.34 368.70
00004268 00000191 222.93 88.88 299.21 369.16
00004269 00000192 223.24 88.27 299.08 369.63
00004270 00000193 226.26 87.39 298.48 369.89
00004271 00000194 229.27 86.52 297.87 370.16
00004272 00000195 232.28 85.64 297.27 370.42
00004273 00000196 235.29 84.76 296.66 370.68
00004274 00000197 514.10 191.40 434.79 598.31 680.52 429.70 812.27 353.23 854.43 464.88 804.30 643.86 924.65 580.73
00004275 00000198 241.25 84.08 295.63 371.49
00004276 00000199 524.90 200.11 436.16 584.80 692.15 435.63 827.68 352.36 868.54 465.23 813.45 644.98 934.80 576.01
00004277 00000200 528.56 202.85 440.09 582.74 699.65 433.34 835.44 355.33 876.70 467.11 819.37 644.67 940.00 580.11
00004278 00000201 532.08 197.81 438.27 586.42 708.35 434.16 840.58 356.93 882.93 468.86 823.38 643.63 940.98 580.01
00004279 00000202 539.18 193.22 434.86 589.10 716.56 437.90 849.17 361.56 889.24 468.52 826.94 643.86 943.39 581.05
00004280 00000203 544.07 195.43 433.56 584.65 721.76 435.31 851.39 358.81 897.13 467.15 833.18 642.50 948.05 579.80
00004281 00000204 259.77 83.32 293.37 373.19
00004282 00000205 263.16 82.55 293.11 372.96
00004283 00000206 266.55 81.78 292.85 372.73
00004284 00000207 269.93 81.00 292.59 372.50
00004285 00000208 269.35 80.51 292.55 372.05
00004286 00000209 522.82 171.85 441.51 563.70 705.94 433.92 839.57 347.34 884.58 450.33 816.08 604.75 937.33 534.03
