Video ID: 	eRSZYJYEz-s
H: 	1080
W: 	1920
FPS: 	25.0

FRAME INDEX X0 Y0 W H [Landmarks (5 Points)]

00002145 00000000 788.68 150.11 383.58 583.59 917.31 376.61 1093.00 382.95 1025.83 492.50 937.13 590.23 1071.51 595.00
00002146 00000001 788.42 154.95 383.81 580.71 919.56 381.94 1091.11 389.20 1024.95 498.18 936.76 591.93 1070.04 597.61
00002147 00000002 787.83 154.36 383.49 586.89 919.98 384.70 1089.47 393.60 1023.10 501.88 933.62 592.99 1068.79 599.79
00002148 00000003 787.76 156.16 384.83 591.86 920.47 385.49 1089.46 394.45 1022.47 503.59 929.28 592.83 1069.65 599.79
00002149 00000004 789.33 154.92 383.67 596.52 919.14 384.35 1091.31 393.05 1021.71 504.62 924.69 590.34 1075.85 597.20
00002150 00000005 789.36 156.24 385.59 596.34 918.00 386.84 1090.69 396.08 1019.18 506.81 921.05 587.70 1076.08 595.03
00002151 00000006 788.32 160.93 387.62 586.67 914.32 389.44 1089.14 398.52 1015.11 508.69 918.08 584.99 1075.17 592.38
00002152 00000007 789.11 164.98 387.00 579.30 913.58 390.86 1089.72 398.81 1015.23 510.60 921.50 587.79 1075.66 594.30
00002153 00000008 789.98 164.74 385.52 579.49 913.52 391.62 1089.39 399.07 1014.48 511.37 925.68 592.56 1074.79 598.26
00002154 00000009 789.15 161.72 388.20 582.26 911.82 390.49 1088.68 397.65 1012.38 511.72 926.62 595.10 1072.57 600.40
00002155 00000010 788.70 158.80 387.16 589.91 911.04 389.00 1085.14 397.26 1008.48 513.02 925.26 598.22 1067.49 604.13
00002156 00000011 787.36 159.13 388.33 590.45 903.90 392.57 1081.73 400.44 1001.06 512.22 916.43 599.07 1064.86 604.91
00002157 00000012 783.17 167.92 388.05 580.81 897.27 398.72 1073.75 408.71 992.08 512.79 909.43 597.24 1059.21 605.21
00002158 DELETE   778.49 173.88 386.83 572.70 890.22 405.69 1062.06 416.42 978.24 516.55 903.87 599.21 1045.04 607.87
00002159 00000014 773.76 171.98 387.55 575.08 882.04 402.77 1055.82 415.13 965.80 514.01 892.58 598.90 1036.92 609.02
00002160 00000015 769.15 169.19 388.00 580.82 875.73 400.84 1049.62 416.20 954.03 514.83 881.10 597.72 1030.13 610.21
00002161 00000016 764.77 172.06 389.65 577.59 870.95 401.54 1045.10 417.78 949.02 516.85 876.38 597.56 1027.43 610.46
00002162 00000017 764.33 180.46 386.85 571.57 862.03 406.08 1038.42 414.79 946.49 525.78 869.91 603.65 1023.71 610.39
00002163 00000018 763.74 182.21 387.83 566.98 861.87 409.18 1040.29 415.01 950.92 527.50 872.28 605.42 1028.05 610.00
00002164 00000019 763.91 183.24 386.83 566.62 864.07 410.24 1041.71 413.89 956.01 528.17 877.53 606.44 1033.61 609.11
00002165 00000020 761.92 170.98 388.56 581.49 868.85 407.31 1045.15 418.12 956.54 520.23 881.74 601.44 1038.21 609.60
00002166 00000021 759.40 170.27 387.48 585.91 866.43 406.61 1042.36 417.37 953.15 519.53 875.35 600.62 1036.25 608.68
00002167 00000022 758.80 176.54 382.87 579.85 856.10 409.30 1032.11 412.04 944.10 524.50 865.21 603.54 1032.01 604.30
00002168 00000023 754.99 168.88 386.51 585.45 859.18 406.42 1035.21 414.55 946.50 518.08 869.04 601.13 1031.22 607.17
00002169 00000024 753.22 179.07 383.01 572.49 852.09 414.13 1026.80 416.84 940.88 529.61 864.14 605.30 1026.05 606.18
00002170 00000025 751.79 189.23 383.86 558.62 850.71 417.62 1025.73 419.66 940.33 531.79 863.47 606.05 1024.25 606.66
00002171 00000026 751.43 189.85 383.76 556.59 850.74 416.63 1025.31 419.73 939.83 530.88 863.57 605.95 1021.37 607.51
00002172 00000027 747.45 185.59 385.80 561.71 850.43 412.97 1023.50 419.86 938.38 527.56 863.66 602.71 1014.19 607.11
00002173 00000028 750.31 180.34 384.48 563.66 851.03 415.23 1022.23 417.54 933.85 522.20 870.20 603.84 1014.80 606.19
00002174 00000029 751.03 172.90 387.20 575.28 854.68 405.25 1027.10 415.24 940.80 519.60 872.83 607.18 1007.15 616.94
00002175 00000030 750.63 178.87 389.29 571.72 855.71 407.81 1031.36 418.56 943.03 524.49 871.40 607.68 1012.48 617.71
00002176 00000031 751.53 176.03 390.31 572.59 858.93 407.84 1034.92 419.73 946.69 526.56 872.75 607.30 1015.49 618.16
00002177 00000032 753.99 178.15 390.06 576.08 864.57 408.13 1038.03 421.54 951.73 524.56 875.15 607.24 1018.42 619.28
00002178 00000033 754.72 175.34 389.51 580.01 868.27 408.96 1041.36 422.20 957.37 525.17 878.83 607.33 1025.92 618.73
00002179 00000034 756.98 177.86 389.29 571.18 871.13 409.86 1042.88 421.17 961.11 524.48 885.39 606.43 1027.99 616.42
00002180 00000035 757.20 179.03 390.69 568.97 872.22 409.02 1044.74 420.41 963.25 526.01 888.73 607.70 1028.62 617.79
00002181 00000036 756.88 176.81 392.19 571.73 872.39 407.96 1045.37 419.51 963.94 525.47 889.83 609.16 1027.26 619.33
00002182 00000037 756.91 171.20 392.93 581.58 872.38 405.88 1044.13 418.30 963.60 524.46 889.25 610.89 1023.12 622.06
00002183 00000038 756.83 173.54 392.29 579.28 869.92 407.05 1045.26 419.53 961.34 526.32 884.99 611.73 1024.67 622.81
00002184 00000039 757.34 172.96 391.88 578.39 869.91 407.76 1046.00 420.43 961.60 527.41 884.78 611.70 1025.25 622.84
00002185 00000040 757.87 170.98 392.75 584.13 870.01 406.38 1045.83 419.26 960.80 525.36 885.02 611.87 1025.78 623.08
00002186 00000041 758.32 169.22 391.50 584.79 872.25 405.23 1042.69 420.43 959.46 522.61 886.96 612.16 1015.34 625.90
00002187 00000042 758.03 169.28 391.77 583.57 871.03 404.72 1041.34 420.18 957.25 521.16 885.25 612.01 1011.41 626.18
00002188 00000043 757.11 172.14 391.42 578.99 869.60 405.47 1039.68 421.06 954.76 520.80 884.39 610.27 1011.32 624.55
00002189 00000044 757.22 174.00 392.10 575.52 869.37 406.93 1039.81 422.50 953.65 522.93 883.93 609.86 1012.15 624.00
00002190 00000045 757.54 173.77 391.95 576.52 869.36 407.06 1040.26 422.25 953.74 522.88 884.51 610.28 1013.94 624.04
00002191 00000046 758.85 172.61 391.26 581.22 869.56 407.72 1042.57 422.84 954.93 523.74 882.97 610.78 1019.63 624.02
00002192 00000047 758.53 175.15 391.64 580.84 868.33 409.15 1043.48 424.41 954.19 525.00 880.08 611.22 1022.64 624.25
00002193 00000048 757.92 176.72 390.97 579.76 864.38 409.53 1039.15 423.44 948.49 524.29 877.13 611.67 1020.20 623.46
00002194 00000049 756.87 184.22 388.01 571.50 858.02 410.65 1033.08 422.96 939.78 524.36 872.35 611.01 1016.26 621.56
00002195 00000050 756.45 182.40 385.42 573.25 852.31 411.59 1029.87 422.39 934.98 524.41 866.27 612.37 1013.02 621.98
00002196 00000051 755.57 190.09 382.80 564.93 847.31 412.80 1025.85 421.72 929.00 525.08 861.86 612.70 1008.98 620.95
00002197 00000052 754.67 186.72 381.62 567.99 846.14 413.85 1023.77 422.66 927.98 525.41 860.75 612.35 1006.54 620.65
00002198 00000053 754.45 187.22 380.15 568.41 845.53 413.98 1022.24 422.76 926.74 525.00 860.42 611.51 1004.64 619.96
00002199 00000054 749.40 193.63 381.61 559.78 842.76 421.87 1015.14 424.10 920.79 528.22 862.87 614.13 1005.38 616.52
00002200 00000055 748.05 195.49 381.53 556.36 842.24 422.72 1014.35 424.71 920.33 528.27 862.05 613.29 1004.20 615.56
00002201 00000056 746.03 192.97 383.10 559.24 841.35 424.30 1013.21 425.41 920.53 529.93 862.52 614.75 1003.19 616.23
00002202 00000057 745.70 193.38 381.61 560.84 840.68 426.41 1010.81 428.17 919.69 532.68 863.17 616.86 1001.28 618.81
00002203 00000058 744.78 195.35 381.45 560.77 840.77 427.28 1010.72 429.98 919.55 534.38 862.85 618.53 999.86 621.36
00002204 00000059 744.27 195.50 381.56 562.18 840.97 428.03 1010.61 431.00 919.56 535.02 862.87 619.46 999.67 622.42
00002205 00000060 743.92 194.76 382.46 562.55 840.95 429.71 1010.94 432.15 920.20 536.29 863.70 620.61 1000.22 623.13
00002206 00000061 742.76 195.06 383.18 564.13 840.04 430.37 1010.62 432.93 919.86 538.02 863.10 621.23 1000.62 623.65
00002207 00000062 743.03 192.53 382.81 566.39 840.34 431.14 1010.58 433.14 920.38 539.23 864.21 621.44 1001.33 623.28
00002208 00000063 742.84 192.87 383.08 565.68 840.36 431.09 1010.06 433.08 920.52 539.25 864.53 621.73 1000.76 623.60
00002209 00000064 742.43 191.96 383.12 566.40 840.02 431.36 1010.15 433.41 920.64 539.88 864.53 622.39 1000.51 624.32
00002210 00000065 742.43 192.48 382.76 567.17 840.62 430.95 1010.59 433.35 921.34 539.34 864.53 622.64 1000.52 624.84
00002211 00000066 741.89 192.28 383.46 566.49 840.30 430.39 1010.28 432.14 921.54 538.33 864.48 621.81 1000.52 623.45
00002212 00000067 741.88 193.01 383.26 567.20 840.03 429.39 1010.68 431.82 920.99 536.87 861.57 619.93 1000.80 622.06
00002213 00000068 742.56 193.13 384.19 578.67 841.04 426.71 1012.28 429.12 920.94 533.25 860.00 621.33 1004.16 623.02
00002214 00000069 743.09 194.85 382.13 574.82 840.21 427.18 1012.91 429.13 920.02 533.86 857.72 618.32 1006.19 619.76
00002215 00000070 742.82 197.19 382.31 570.03 839.88 426.82 1011.38 429.15 919.59 533.61 856.90 616.24 1004.45 618.19
00002216 00000071 742.28 195.64 382.14 565.59 839.98 427.07 1010.38 429.36 919.85 533.62 857.71 614.50 1002.42 616.58
00002217 00000072 741.67 196.88 381.67 560.59 838.52 426.40 1008.97 427.84 918.39 532.98 856.32 611.47 1002.30 613.07
00002218 00000073 740.29 193.47 382.50 559.29 836.53 425.14 1007.64 426.81 915.80 532.11 854.22 609.40 1000.51 611.20
00002219 00000074 739.20 197.84 380.89 549.58 833.51 424.72 1003.69 425.34 911.95 531.91 851.65 607.27 996.42 608.47
00002220 00000075 737.74 195.99 380.09 547.30 828.28 423.40 996.59 423.00 904.33 532.73 848.81 606.20 991.52 606.38
00002221 00000076 737.63 196.79 378.97 545.18 826.05 422.88 993.22 421.51 901.16 531.92 847.38 605.66 988.94 605.10
00002222 00000077 736.71 194.91 379.89 546.14 825.07 422.80 992.70 421.02 900.96 532.08 848.20 606.71 988.65 605.82
00002223 00000078 738.55 197.35 379.40 548.21 827.81 420.78 996.01 418.79 903.19 530.78 850.60 608.83 990.55 607.85
00002224 00000079 740.82 191.71 378.27 560.85 829.93 419.01 998.11 417.11 905.37 529.61 853.37 611.69 994.13 610.45
00002225 00000080 739.81 187.69 379.63 561.97 829.00 418.91 997.95 417.38 905.43 528.99 850.74 609.32 993.43 608.27
00002226 00000081 739.22 183.19 380.47 562.53 828.33 417.90 998.26 416.16 905.68 528.93 850.94 609.08 992.81 607.89
00002227 00000082 739.51 184.74 380.46 558.51 828.75 417.20 997.21 414.69 906.14 529.69 853.67 609.44 992.11 607.82
00002228 00000083 739.68 182.44 380.59 561.72 828.94 415.96 997.67 413.47 906.43 529.36 854.41 610.72 991.80 609.18
00002229 00000084 740.09 176.28 380.45 572.47 831.21 415.12 998.09 412.34 907.90 527.52 856.89 614.74 989.27 613.27
00002230 00000085 739.14 168.74 382.97 579.24 834.24 414.41 1000.24 409.84 913.10 525.12 861.24 615.29 991.44 612.45
00002231 00000086 742.04 174.31 382.18 570.88 841.95 411.71 1010.60 407.22 925.86 515.37 866.10 606.58 1005.25 603.51
00002232 DELETE   748.50 174.72 380.56 569.03 857.06 403.63 1024.67 398.46 947.44 506.31 882.53 600.50 1021.35 596.44
00002233 DELETE   755.50 166.45 381.80 573.70 868.07 399.81 1041.30 392.81 973.59 500.03 896.01 595.27 1041.94 589.63
00002234 00000089 764.14 161.54 381.53 571.83 883.99 380.05 1059.34 379.87 993.67 491.72 917.06 586.82 1052.26 586.76
00002235 00000090 768.74 165.10 379.35 565.18 899.80 372.45 1068.56 373.10 1011.10 485.18 933.31 585.40 1058.96 585.97
00002236 00000091 774.79 165.84 377.78 563.90 906.39 370.97 1075.25 369.80 1015.82 482.97 936.66 584.21 1064.05 583.03
00002237 00000092 779.17 159.22 376.40 568.40 906.91 369.73 1077.12 368.60 1014.83 480.97 935.60 582.50 1064.35 581.31
00002238 00000093 779.74 153.97 378.51 573.66 906.71 369.29 1077.37 368.69 1013.99 480.14 935.19 581.58 1063.12 580.82
00002239 00000094 780.19 158.91 378.05 566.76 905.24 368.46 1076.83 368.44 1011.00 481.41 933.33 581.87 1060.26 581.87
00002240 00000095 780.51 157.91 378.05 568.86 903.70 368.36 1075.87 369.14 1009.06 482.02 930.70 581.78 1058.46 582.44
00002241 00000096 783.02 155.49 376.71 571.84 903.18 369.44 1075.98 370.83 1007.37 482.86 928.00 582.36 1057.80 583.69
00002242 00000097 782.58 157.96 377.86 571.50 903.99 369.98 1076.16 373.11 1008.17 484.84 928.37 583.68 1057.68 586.35
00002243 00000098 782.44 154.37 379.18 578.54 904.49 372.10 1075.44 374.64 1008.61 487.56 929.47 585.81 1058.95 587.79
00002244 00000099 783.58 152.66 380.07 581.10 904.83 374.59 1077.20 376.60 1009.38 490.04 929.55 587.48 1061.11 589.10
00002245 00000100 782.71 153.98 382.41 583.46 905.80 377.48 1078.11 380.13 1009.90 493.85 929.25 590.52 1061.16 592.44
00002246 00000101 784.09 150.40 382.35 590.55 906.15 381.89 1077.79 386.34 1009.08 498.81 928.65 594.66 1059.48 597.92
00002247 00000102 784.18 149.86 384.09 595.76 904.33 385.03 1076.36 391.63 1004.55 505.46 924.99 597.90 1058.21 602.63
00002248 00000103 785.39 155.55 384.91 593.20 901.90 386.84 1076.14 394.02 999.14 507.57 918.90 598.92 1058.31 604.10
00002249 00000104 785.94 154.40 386.07 594.06 900.77 390.71 1077.98 398.11 999.53 512.42 914.99 600.30 1061.18 605.76
CROP_BBOX: 521 0 1392 896
