Video ID: 	GR3G-zeLIIA
H: 	1080
W: 	1920
FPS: 	25.0

FRAME INDEX X0 Y0 W H [Landmarks (5 Points)]

00028922 00000000 1060.92 122.63 421.14 619.19 1188.21 413.73 1363.10 390.29 1299.04 516.96 1238.42 611.60 1377.45 589.98
00028923 00000001 1060.92 110.97 416.59 631.71 1188.37 408.49 1367.52 387.01 1299.27 516.70 1232.54 606.58 1379.54 587.53
00028924 00000002 1058.68 110.20 416.55 631.45 1186.61 407.25 1364.06 385.78 1296.90 516.97 1232.20 605.76 1376.46 587.09
00028925 00000003 1057.57 114.69 414.08 625.91 1184.96 405.99 1362.74 385.14 1295.85 516.30 1231.72 605.77 1374.07 588.03
00028926 00000004 1056.47 115.00 414.41 626.97 1183.35 404.72 1361.19 382.31 1295.27 512.92 1231.10 605.54 1374.31 586.69
00028927 00000005 1055.42 110.15 413.44 627.04 1180.13 405.88 1359.38 378.53 1294.85 514.38 1230.45 602.87 1378.14 579.64
00028928 00000006 1054.08 111.13 411.01 623.89 1178.07 405.05 1355.45 376.39 1292.19 511.77 1227.69 597.84 1377.17 573.71
00028929 00000007 1053.61 111.69 410.54 622.14 1178.07 399.19 1354.28 370.77 1291.61 505.08 1227.92 594.99 1376.04 571.27
00028930 DELETE   1051.57 109.66 411.64 627.09 1175.82 390.84 1351.72 362.02 1290.36 494.14 1229.14 591.51 1376.81 567.43
00028931 DELETE   1050.67 97.90 410.02 632.75 1174.36 383.53 1348.40 351.12 1291.16 485.53 1231.39 584.89 1377.94 557.93
00028932 DELETE   1047.62 94.84 411.44 628.12 1172.64 378.14 1347.71 343.20 1291.88 477.44 1232.56 579.58 1377.15 550.65
00028933 00000011 1047.12 91.46 412.09 622.69 1170.65 376.39 1344.87 336.86 1291.42 471.33 1231.43 573.96 1377.73 541.22
00028934 00000012 1045.89 92.49 412.34 618.96 1168.50 375.13 1343.24 334.16 1291.00 471.08 1231.73 573.22 1379.21 539.11
00028935 00000013 1044.57 89.03 410.15 621.09 1166.20 375.15 1340.18 335.00 1288.91 468.90 1230.89 572.67 1377.80 539.28
00028936 00000014 1041.19 90.24 413.24 621.34 1163.32 375.23 1335.23 334.80 1285.25 466.59 1232.44 573.97 1376.06 540.53
00028937 00000015 1038.65 91.70 413.99 621.32 1161.82 375.45 1331.70 334.55 1283.28 463.36 1232.23 573.31 1374.44 539.66
00028938 00000016 1036.49 87.96 416.08 618.86 1159.65 375.17 1330.16 331.62 1282.20 460.69 1231.37 571.14 1374.35 535.42
00028939 00000017 1033.77 88.06 417.39 613.24 1158.13 373.10 1328.73 327.52 1282.18 459.52 1230.37 568.55 1374.20 531.09
00028940 00000018 1030.36 83.34 422.43 612.79 1155.39 370.56 1327.62 323.64 1279.10 456.26 1226.23 564.43 1373.15 525.93
00028941 00000019 1030.24 84.11 422.39 609.55 1155.06 367.25 1325.51 320.57 1277.29 453.47 1224.64 561.33 1370.99 522.89
00028942 00000020 1030.33 89.84 422.44 600.84 1154.43 365.83 1324.10 317.88 1276.30 450.87 1225.82 560.62 1369.88 521.12
00028943 00000021 1028.76 89.90 423.84 598.29 1153.57 365.18 1323.96 316.93 1275.88 449.64 1225.32 559.44 1369.63 519.66
00028944 00000022 1029.24 89.26 423.72 598.74 1152.71 364.94 1324.00 316.75 1274.99 449.81 1225.14 559.44 1370.48 519.57
00028945 00000023 1029.70 88.23 422.87 603.36 1153.64 365.14 1323.46 318.00 1274.75 449.40 1224.97 559.85 1369.15 520.90
00028946 00000024 1029.63 87.59 422.68 614.78 1154.00 365.78 1323.48 320.47 1274.66 448.79 1223.86 562.95 1368.66 525.62
00028947 00000025 1029.92 86.98 422.13 617.94 1153.73 365.36 1323.90 320.48 1275.44 450.20 1224.07 564.73 1369.41 527.74
00028948 00000026 1030.52 85.56 422.50 616.19 1154.18 365.24 1324.51 320.47 1275.43 450.93 1223.24 562.66 1370.07 525.55
00028949 00000027 1031.30 85.56 422.36 613.69 1153.24 365.30 1325.00 319.68 1274.77 450.91 1222.68 561.67 1371.29 523.71
00028950 00000028 1031.71 85.18 422.88 607.67 1153.42 365.63 1325.81 319.02 1275.08 450.91 1223.49 560.26 1371.80 521.47
00028951 00000029 1031.32 84.04 423.00 604.72 1153.62 367.45 1327.17 319.55 1276.65 451.33 1222.14 558.65 1373.60 518.98
00028952 00000030 1031.38 83.52 422.59 604.66 1154.24 367.58 1326.72 320.24 1276.76 451.93 1222.57 558.88 1372.71 519.60
00028953 00000031 1030.94 83.15 422.04 606.85 1154.10 367.80 1325.58 320.86 1275.89 451.47 1223.65 560.38 1371.19 521.54
00028954 00000032 1030.23 84.83 422.84 613.29 1154.24 367.63 1324.07 322.01 1274.99 450.77 1224.98 563.40 1368.79 525.83
00028955 00000033 1029.91 84.77 422.13 613.89 1153.33 367.42 1323.83 321.97 1274.57 451.33 1223.72 562.77 1369.36 525.19
00028956 00000034 1030.08 84.81 422.38 613.40 1153.33 367.77 1324.87 321.80 1274.83 451.21 1222.72 561.99 1370.75 523.91
00028957 00000035 1028.44 84.67 424.79 619.42 1152.39 367.45 1323.94 321.09 1274.37 450.13 1222.90 564.29 1370.18 525.95
00028958 00000036 1028.31 84.30 424.40 622.00 1150.22 367.67 1323.66 320.99 1273.89 451.70 1222.27 567.13 1371.26 528.59
00028959 00000037 1028.62 84.32 423.53 618.01 1149.51 368.65 1324.04 320.92 1274.20 453.46 1222.20 566.76 1372.96 527.19
00028960 00000038 1028.69 85.66 423.30 616.27 1149.11 368.29 1324.12 320.77 1273.53 454.37 1221.88 566.44 1373.21 527.00
00028961 00000039 1028.16 87.02 423.60 621.59 1147.65 368.42 1322.28 321.50 1272.42 455.44 1219.69 567.86 1372.84 529.03
00028962 00000040 1028.61 88.48 421.72 623.11 1149.93 369.02 1321.41 323.84 1273.50 455.30 1222.05 569.56 1369.47 532.51
00028963 00000041 1029.22 90.02 420.84 617.49 1150.71 368.22 1321.53 323.60 1273.08 455.57 1221.87 567.46 1368.21 530.87
00028964 00000042 1029.45 90.54 420.87 613.64 1150.79 368.06 1321.82 323.14 1272.78 455.14 1222.52 566.78 1368.31 529.93
00028965 00000043 1029.42 90.40 421.23 613.90 1150.53 368.17 1321.52 322.55 1272.62 455.19 1222.36 566.37 1369.02 528.85
00028966 00000044 1029.97 89.57 420.93 614.54 1150.20 367.98 1322.15 322.43 1272.43 455.70 1221.87 566.50 1369.72 528.97
00028967 00000045 1030.29 90.39 420.25 613.59 1150.53 368.62 1321.99 323.81 1272.43 456.11 1220.69 566.22 1368.31 529.39
00028968 00000046 1029.85 90.90 420.66 613.26 1150.85 368.19 1321.75 324.12 1272.00 455.92 1220.29 565.56 1367.12 529.38
00028969 00000047 1030.16 91.27 420.49 613.03 1150.57 367.92 1321.61 323.49 1271.87 455.60 1221.03 565.94 1367.88 529.42
00028970 00000048 1029.41 91.06 421.23 617.17 1150.80 367.54 1321.09 324.28 1271.56 455.52 1220.30 566.11 1366.90 530.63
00028971 00000049 1029.21 90.61 420.61 624.79 1151.09 367.58 1321.77 325.10 1272.45 455.46 1221.09 569.85 1367.28 535.12
00028972 00000050 1029.30 91.79 419.31 633.20 1150.27 369.52 1321.02 327.60 1272.39 458.77 1220.16 575.17 1366.34 541.19
00028973 00000051 1029.91 90.95 420.09 626.54 1150.07 370.71 1322.16 328.40 1272.53 460.01 1220.36 572.94 1367.77 538.51
00028974 00000052 1030.72 91.61 420.11 614.34 1151.22 371.50 1323.57 326.72 1273.60 459.51 1221.18 567.66 1370.83 530.84
00028975 00000053 1031.53 90.21 419.55 606.96 1151.40 370.47 1326.04 324.96 1274.46 459.81 1218.77 563.53 1372.29 525.80
00028976 00000054 1029.43 88.04 420.90 607.28 1150.24 368.87 1324.48 322.35 1274.15 459.46 1219.40 562.75 1372.72 524.14
00028977 00000055 1029.22 86.93 420.74 610.85 1149.43 367.99 1323.74 321.73 1273.26 459.25 1219.79 564.00 1372.20 525.67
00028978 00000056 1029.86 86.73 419.27 609.62 1150.72 368.85 1324.26 323.98 1273.37 460.52 1219.57 563.96 1370.15 526.88
00028979 00000057 1031.05 89.28 416.62 607.63 1151.75 369.17 1324.03 326.37 1272.74 461.69 1218.95 563.29 1367.46 527.97
00028980 00000058 1030.09 89.26 417.08 607.67 1151.30 368.73 1323.59 326.62 1272.31 461.96 1218.38 563.08 1366.37 528.37
00028981 00000059 1029.05 88.70 419.35 615.86 1149.43 368.19 1321.74 326.83 1269.83 460.66 1216.42 565.09 1365.09 531.29
00028982 00000060 1028.39 89.51 419.31 619.66 1148.90 368.37 1320.20 327.40 1269.31 460.41 1217.05 567.23 1363.85 533.83
00028983 00000061 1027.72 92.09 420.64 614.96 1148.39 369.33 1320.41 327.30 1269.18 460.88 1218.00 567.51 1364.51 533.28
00028984 00000062 1027.58 92.75 420.98 612.53 1148.05 369.60 1320.42 327.36 1268.85 460.85 1216.45 566.18 1364.63 531.71
00028985 00000063 1027.88 93.64 420.35 610.53 1147.70 370.16 1320.82 327.37 1269.26 461.77 1215.75 565.96 1365.66 530.87
00028986 00000064 1027.50 95.27 421.00 607.24 1147.53 370.89 1320.52 327.85 1268.49 462.97 1213.39 564.31 1365.04 528.98
00028987 00000065 1028.34 94.26 420.19 604.11 1148.29 373.12 1322.03 327.07 1270.73 464.02 1213.53 563.20 1369.49 525.04
00028988 00000066 1029.83 98.36 417.69 597.22 1152.62 377.26 1325.09 333.98 1271.91 464.17 1212.93 560.64 1367.19 524.96
00028989 00000067 1030.43 101.73 416.40 596.97 1153.90 378.08 1325.59 336.66 1272.54 464.29 1214.01 562.38 1365.16 528.47
00028990 00000068 1030.21 99.71 415.30 602.45 1152.08 374.40 1322.40 334.21 1271.40 463.50 1215.57 564.98 1362.64 532.44
00028991 00000069 1028.44 96.68 418.39 608.69 1150.29 373.02 1321.36 334.30 1269.49 462.27 1215.93 566.96 1361.09 535.78
00028992 00000070 1027.73 96.74 419.04 610.41 1149.18 372.30 1320.12 332.99 1268.58 463.38 1215.37 567.08 1361.55 535.31
00028993 00000071 1027.14 96.33 418.56 612.22 1147.58 372.23 1318.24 331.88 1267.49 462.08 1213.79 567.24 1360.89 534.57
00028994 00000072 1026.52 93.74 419.36 615.01 1146.69 371.66 1317.30 331.04 1266.80 461.58 1214.28 567.37 1361.49 534.27
00028995 00000073 1024.75 92.12 420.88 614.15 1144.60 371.22 1315.84 329.58 1265.65 461.44 1211.84 565.80 1360.85 531.89
00028996 00000074 1021.58 91.77 422.49 611.20 1141.77 370.64 1313.86 327.68 1263.40 462.18 1208.34 563.76 1359.98 528.73
00028997 00000075 1018.63 87.51 423.14 620.48 1139.50 370.59 1309.24 326.83 1260.63 460.90 1206.86 564.21 1357.66 528.53
00028998 00000076 1015.18 81.61 421.50 629.95 1134.81 370.44 1306.40 325.56 1257.96 461.17 1203.90 565.62 1356.37 529.01
00028999 00000077 1003.51 90.03 426.35 623.24 1127.26 376.06 1305.08 321.79 1255.01 465.49 1193.26 578.56 1343.65 532.94
00029000 00000078 1002.86 90.48 425.52 616.79 1126.20 377.88 1304.10 322.48 1253.68 466.14 1192.62 576.21 1344.17 529.60
00029001 00000079 999.77 92.27 425.77 614.50 1125.31 381.04 1301.00 325.38 1251.85 466.90 1192.36 578.04 1340.27 531.33
00029002 00000080 1002.50 93.41 421.12 615.12 1128.28 388.95 1298.75 334.98 1250.67 466.69 1193.88 580.55 1337.28 535.25
00029003 00000081 1002.53 92.92 421.24 617.37 1128.35 389.23 1300.05 334.11 1252.59 470.30 1196.44 584.69 1338.44 538.44
00029004 00000082 1003.22 94.10 423.53 618.23 1128.86 386.32 1302.24 330.11 1255.53 472.42 1199.31 586.16 1341.30 539.15
00029005 00000083 1015.39 92.77 420.84 617.22 1135.40 379.06 1307.87 334.51 1258.71 469.54 1207.28 570.97 1357.00 534.76
00029006 00000084 1017.69 97.81 420.39 608.63 1137.39 380.52 1310.18 335.13 1260.76 470.53 1210.84 570.56 1360.81 533.54
00029007 00000085 1019.38 100.02 422.68 605.98 1141.20 381.59 1313.75 337.53 1263.15 470.26 1214.42 570.65 1362.86 534.70
00029008 00000086 1022.47 101.20 422.72 602.61 1145.07 381.96 1319.20 337.22 1267.29 472.36 1215.60 569.13 1368.26 532.39
00029009 00000087 1023.14 101.00 424.22 604.23 1148.15 381.23 1320.22 337.71 1269.69 470.61 1216.65 568.42 1367.67 532.82
00029010 00000088 1024.33 100.23 423.17 613.25 1148.26 379.70 1319.00 338.03 1269.48 469.54 1218.04 571.45 1365.58 537.63
00029011 00000089 1026.35 100.94 421.42 616.46 1151.26 380.71 1322.42 340.15 1273.03 471.17 1220.71 574.53 1366.85 541.55
00029012 00000090 1028.40 102.44 419.86 612.02 1151.78 380.55 1325.13 340.71 1273.10 471.43 1218.95 573.67 1367.09 541.29
00029013 00000091 1027.92 101.63 420.60 613.19 1151.16 380.23 1324.62 339.34 1273.22 470.71 1218.93 574.13 1367.71 540.94
00029014 00000092 1028.14 100.89 420.52 609.16 1151.59 380.24 1325.40 337.67 1274.54 471.57 1219.85 572.82 1369.76 538.06
00029015 00000093 1028.43 100.31 420.29 605.73 1151.43 381.07 1325.94 336.62 1275.52 471.79 1217.71 569.98 1371.96 533.54
00029016 00000094 1027.45 98.60 420.64 606.85 1151.45 380.76 1325.34 335.40 1276.03 471.21 1217.16 568.81 1372.38 531.53
00029017 00000095 1026.53 98.10 421.86 612.24 1150.24 378.30 1323.16 335.90 1272.88 469.26 1216.91 570.26 1368.54 535.69
00029018 00000096 1025.55 97.40 421.21 619.33 1149.14 378.01 1321.78 337.55 1271.41 470.43 1216.40 573.06 1366.26 540.27
00029019 00000097 1024.98 96.75 421.91 620.80 1147.61 377.50 1321.69 336.72 1270.14 470.61 1215.79 574.48 1365.66 541.53
00029020 00000098 1025.83 98.32 419.75 615.69 1147.51 376.90 1320.25 335.76 1269.58 469.07 1215.15 571.87 1365.30 538.52
00029021 00000099 1025.55 96.73 420.22 607.40 1146.90 376.51 1319.17 332.35 1269.73 467.08 1214.93 567.57 1368.19 531.45
00029022 00000100 1023.38 92.83 421.59 606.46 1145.35 373.82 1315.58 328.93 1267.31 463.27 1212.90 564.09 1365.24 527.20
00029023 00000101 1019.52 89.87 422.67 612.96 1141.51 372.07 1311.41 326.81 1262.62 461.63 1209.62 562.92 1362.03 525.67
00029024 00000102 1016.54 85.06 420.99 620.78 1136.06 374.22 1309.57 326.87 1259.19 461.07 1204.94 564.23 1360.99 525.37
00029025 00000103 1001.89 92.27 425.26 616.27 1128.27 389.26 1301.38 333.16 1253.72 466.05 1193.41 576.90 1344.39 529.39
00029026 DELETE   996.60 94.91 427.95 614.30 1124.73 389.28 1296.28 332.56 1248.89 468.36 1188.75 576.40 1339.16 528.52
00029027 00000105 995.16 100.70 429.09 613.74 1121.85 387.01 1293.11 330.25 1245.78 469.82 1187.20 578.86 1336.97 530.80
00029028 00000106 992.85 99.84 425.72 617.61 1119.79 385.14 1288.96 328.89 1243.35 469.84 1187.06 581.41 1332.60 534.04
00029029 00000107 990.79 99.07 426.32 618.84 1119.51 382.61 1289.44 328.92 1242.23 470.61 1186.79 582.98 1329.38 537.96
00029030 00000108 990.25 97.50 426.53 620.28 1118.75 381.43 1287.95 328.60 1240.19 470.29 1186.13 582.59 1327.34 538.33
00029031 00000109 989.52 98.29 428.40 619.94 1118.50 380.76 1288.28 328.28 1240.24 470.27 1186.06 582.44 1327.00 538.39
00029032 00000110 991.20 94.84 428.50 623.65 1119.86 379.98 1289.01 328.16 1241.15 468.29 1187.77 581.98 1327.87 538.51
00029033 00000111 992.65 93.88 429.24 627.07 1120.68 377.77 1291.04 327.17 1241.93 466.24 1188.05 582.03 1329.04 539.48
00029034 00000112 994.13 93.16 429.19 622.90 1120.87 376.79 1292.16 324.83 1242.53 464.63 1188.62 578.95 1331.33 535.12
00029035 00000113 993.50 91.08 430.95 618.28 1120.78 377.19 1293.97 323.88 1243.92 463.99 1188.07 575.26 1333.09 530.15
00029036 00000114 995.40 94.64 430.26 608.24 1121.83 377.63 1295.25 324.12 1244.36 463.72 1187.26 572.03 1333.43 526.88
00029037 00000115 998.04 93.77 428.20 609.88 1122.86 376.28 1296.65 322.86 1245.62 463.89 1189.64 572.93 1334.96 527.99
00029038 00000116 1000.04 93.26 425.04 615.39 1123.85 375.34 1296.88 323.17 1246.48 464.02 1190.77 575.89 1335.33 532.09
00029039 00000117 1002.57 91.49 423.19 619.21 1125.42 373.67 1298.22 323.41 1247.38 462.42 1192.39 576.50 1336.46 534.21
00029040 00000118 1002.69 89.98 422.64 616.78 1125.72 373.16 1298.17 323.17 1247.68 461.82 1192.77 575.36 1335.19 533.36
00029041 00000119 1001.84 87.69 423.00 619.73 1124.50 374.82 1297.78 324.74 1246.90 463.03 1192.32 576.54 1335.62 534.34
00029042 00000120 999.50 89.53 423.93 619.61 1122.91 375.37 1295.68 325.08 1245.52 462.91 1190.64 576.48 1334.55 533.92
00029043 00000121 998.77 90.48 424.27 624.73 1121.36 377.36 1292.64 327.58 1242.37 463.69 1188.46 578.16 1332.93 535.92
00029044 00000122 997.85 91.84 424.90 628.52 1120.64 378.13 1292.00 328.71 1241.51 465.44 1186.71 580.32 1331.88 538.51
00029045 00000123 998.66 93.06 423.78 628.85 1119.91 378.42 1292.05 329.74 1239.75 466.60 1184.37 581.12 1331.08 539.99
00029046 00000124 998.96 93.74 423.70 629.31 1119.36 378.32 1291.71 330.72 1238.99 466.29 1183.60 581.50 1330.23 541.24
00029047 00000125 998.76 89.53 424.62 634.27 1119.38 378.34 1292.23 330.57 1239.76 466.23 1184.18 582.05 1331.34 541.52
00029048 00000126 1000.48 90.48 423.93 638.28 1119.65 376.94 1292.81 330.01 1239.27 465.99 1183.50 582.76 1331.54 542.81
00029049 00000127 1001.78 92.61 423.83 640.54 1120.63 376.42 1294.01 329.91 1240.05 466.24 1184.86 584.22 1333.36 544.53
00029050 00000128 1003.87 94.93 422.31 641.30 1121.79 376.67 1295.39 330.49 1241.70 466.99 1186.16 586.06 1334.54 546.66
00029051 00000129 1006.02 94.99 420.63 643.44 1123.52 376.65 1297.71 331.26 1242.97 468.43 1186.80 587.17 1335.85 548.37
00029052 00000130 1014.50 87.76 420.96 646.63 1130.95 370.13 1300.76 333.17 1246.86 465.51 1191.99 574.54 1344.53 545.05
00029053 00000131 1018.44 92.53 419.79 630.74 1134.49 372.32 1303.83 337.04 1249.18 467.67 1195.02 570.10 1345.87 541.74
00029054 00000132 1019.54 91.46 420.56 616.40 1134.49 375.96 1309.14 339.36 1250.86 470.67 1194.35 565.79 1350.95 535.86
00029055 00000133 1019.24 93.44 422.25 614.10 1133.66 377.15 1309.62 340.83 1249.73 472.91 1193.34 567.12 1351.60 537.46
00029056 00000134 1018.60 95.84 423.15 620.53 1134.00 378.49 1306.10 343.64 1247.60 473.53 1192.88 568.35 1347.69 540.12
00029057 00000135 1019.27 96.08 421.54 623.69 1136.41 380.03 1306.85 347.45 1248.34 476.06 1193.17 568.59 1345.84 542.24
00029058 00000136 1018.95 98.46 422.03 625.42 1136.33 383.94 1306.73 350.42 1248.17 480.02 1194.18 571.31 1346.01 544.14
00029059 00000137 1018.83 101.88 422.44 624.41 1135.31 386.12 1307.34 352.43 1247.14 482.45 1192.64 573.79 1345.47 546.64
00029060 00000138 1020.11 102.43 419.65 627.13 1134.60 389.35 1307.73 354.84 1247.30 486.22 1192.54 575.81 1347.36 547.92
00029061 00000139 1019.90 103.54 417.80 630.73 1133.30 394.02 1306.76 359.76 1245.46 490.82 1191.25 580.53 1345.05 553.09
00029062 00000140 1019.02 102.39 418.83 629.90 1131.18 399.77 1306.80 364.65 1244.02 497.96 1191.04 584.88 1345.98 556.56
00029063 00000141 1019.64 100.88 417.06 629.02 1130.46 404.82 1306.75 367.77 1243.77 500.99 1189.99 585.07 1347.08 555.15
00029064 00000142 1019.08 99.85 417.57 627.16 1130.51 406.74 1306.16 368.82 1243.88 501.10 1190.40 584.79 1346.91 554.27
00029065 00000143 1018.06 101.58 417.31 626.43 1129.21 405.85 1305.26 366.98 1243.25 501.02 1188.99 583.65 1347.03 552.26
00029066 00000144 1016.34 98.95 418.12 631.46 1127.85 404.62 1303.95 366.13 1241.59 500.02 1187.48 584.02 1345.27 552.99
00029067 00000145 1003.67 106.94 423.88 627.05 1126.42 406.02 1297.06 365.96 1240.44 498.49 1185.39 595.06 1331.23 559.95
00029068 00000146 1003.02 107.13 424.24 627.08 1126.02 405.98 1296.25 366.24 1239.83 499.04 1185.33 595.26 1330.60 560.43
00029069 00000147 1002.88 107.44 423.53 626.84 1125.60 407.06 1296.11 367.45 1239.45 499.86 1184.73 595.59 1330.51 560.84
00029070 00000148 1002.59 106.83 424.01 626.95 1125.19 407.48 1295.87 367.20 1239.44 499.57 1185.27 596.04 1330.92 560.73
00029071 00000149 1003.00 107.58 424.04 624.70 1125.00 408.20 1295.54 366.46 1239.47 498.97 1184.81 594.48 1331.74 557.81
00029072 00000150 1003.63 108.02 423.88 623.89 1125.36 406.23 1295.91 364.74 1239.85 498.73 1184.96 593.99 1331.65 557.56
00029073 00000151 1003.44 107.27 424.45 624.51 1124.98 405.43 1296.35 364.08 1239.44 498.87 1184.37 593.75 1331.81 557.45
00029074 00000152 1003.60 107.81 423.64 623.82 1125.15 406.03 1296.12 363.99 1239.90 498.81 1184.83 593.83 1332.17 556.96
00029075 00000153 1001.90 105.81 423.75 626.38 1124.98 407.26 1295.42 365.47 1240.18 499.60 1185.30 594.98 1331.75 558.30
00029076 00000154 1002.01 106.29 423.16 625.18 1124.69 408.33 1294.88 366.36 1239.35 499.76 1185.19 594.63 1331.43 557.83
00029077 00000155 1001.29 107.42 424.36 623.36 1124.21 408.66 1294.43 366.20 1239.20 499.83 1185.24 594.13 1331.49 556.87
00029078 00000156 1001.64 107.26 424.57 623.09 1123.95 408.49 1294.23 365.49 1238.79 499.38 1184.91 593.48 1331.68 555.67
00029079 00000157 1001.18 107.59 424.88 623.56 1124.13 407.49 1294.65 364.96 1239.39 499.74 1185.13 593.63 1332.16 556.17
00029080 00000158 1001.00 106.67 424.61 626.80 1123.83 406.14 1295.12 364.01 1239.39 499.48 1184.87 595.22 1332.12 558.19
00029081 00000159 1000.66 105.84 423.86 632.70 1124.07 404.43 1295.60 364.35 1239.36 499.56 1184.17 597.06 1331.47 561.81
00029082 00000160 1001.30 105.58 422.32 636.62 1124.27 404.39 1295.95 364.25 1240.12 500.19 1184.73 598.50 1332.51 563.25
00029083 00000161 999.78 105.59 423.11 635.34 1123.63 404.33 1294.87 364.14 1239.60 499.83 1183.83 597.85 1331.05 562.57
00029084 00000162 999.43 107.31 422.81 631.55 1123.55 404.56 1294.46 364.50 1239.72 499.80 1184.26 597.51 1330.22 562.40
00029085 00000163 999.23 107.01 422.27 630.60 1123.12 404.08 1293.90 363.88 1239.26 498.56 1183.54 596.24 1330.05 560.93
