Video ID: 	GJ4G550cJac
H: 	1080
W: 	1920
FPS: 	25.0

FRAME INDEX X0 Y0 W H [Landmarks (5 Points)]

00010166 00000000 594.55 221.23 370.82 539.63 732.88 401.37 900.22 431.33 835.74 504.12 732.75 599.63 868.77 624.81
00010167 00000001 597.99 225.04 373.84 541.57 738.79 399.62 904.98 425.87 843.12 511.39 743.17 605.09 874.78 626.61
00010168 00000002 598.10 224.98 373.68 541.40 738.77 399.65 905.00 425.86 843.06 511.37 743.20 605.10 874.82 626.60
00010169 00000003 602.68 226.93 372.19 543.12 742.83 402.50 909.07 428.54 847.49 517.19 746.40 610.88 878.49 632.32
00010170 00000004 604.46 227.49 374.97 549.12 748.51 401.40 912.93 428.34 849.70 521.80 749.72 617.29 875.92 639.87
00010171 DELETE   606.44 230.56 374.51 551.05 752.65 399.67 914.24 428.93 851.28 519.47 747.60 614.14 877.87 638.83
00010172 00000006 609.52 220.36 373.50 551.51 755.02 395.52 917.71 424.32 856.39 514.02 753.19 610.92 879.56 635.45
00010173 00000007 614.45 214.00 368.70 555.76 761.72 397.12 926.93 422.27 867.07 508.77 758.44 609.40 892.13 630.97
00010174 00000008 618.11 211.75 366.86 558.06 767.71 393.41 933.27 418.42 874.86 505.45 764.08 608.78 897.94 630.13
00010175 00000009 622.43 216.16 364.27 556.05 773.85 391.57 939.65 416.62 881.01 504.21 767.86 609.88 902.45 631.29
00010176 00000010 628.08 217.81 362.61 548.41 775.48 386.22 937.22 416.34 877.24 510.40 770.74 602.01 888.43 627.07
00010177 00000011 630.09 220.17 362.87 547.25 781.49 386.47 940.02 416.71 881.41 509.68 776.97 602.29 891.06 627.18
00010178 00000012 633.45 222.71 362.30 534.66 793.89 390.09 948.29 418.02 895.01 507.81 792.93 601.66 902.01 624.32
00010179 00000013 640.50 225.59 360.71 533.76 804.06 392.28 952.71 418.95 907.09 505.65 808.94 603.78 913.31 625.13
00010180 00000014 649.81 222.89 359.59 535.17 820.89 395.59 962.08 424.50 924.78 506.54 830.59 608.14 924.94 631.02
00010181 00000015 656.35 220.78 357.71 536.66 830.75 394.81 971.81 428.93 937.95 505.64 836.35 606.30 935.22 634.15
00010182 00000016 665.45 227.58 357.39 535.25 842.40 398.11 988.54 434.30 951.45 519.10 840.34 613.29 942.37 643.58
00010183 00000017 671.05 231.87 358.74 547.03 848.12 402.30 990.78 444.53 952.39 524.77 835.51 616.91 941.34 652.64
00010184 00000018 670.87 235.39 363.32 553.22 849.07 410.31 989.15 455.60 948.44 541.55 828.31 623.42 937.58 661.83
00010185 00000019 671.36 242.55 362.26 539.60 843.29 417.70 992.23 464.11 945.02 547.04 823.01 623.62 942.19 663.17
00010186 00000020 667.69 242.17 367.29 547.98 838.53 426.24 987.57 474.77 938.16 552.83 814.35 628.98 934.25 670.67
00010187 00000021 667.13 242.43 370.24 561.58 838.92 431.64 985.25 474.10 936.12 561.06 816.11 639.17 932.80 676.11
00010188 00000022 664.75 241.42 374.85 569.81 838.19 431.40 982.60 473.92 932.91 565.28 810.98 643.12 926.67 680.25
00010189 00000023 662.92 241.46 374.69 570.97 836.44 430.87 980.51 473.05 930.79 566.74 810.66 643.61 925.57 680.16
00010190 00000024 659.06 241.25 373.93 565.08 828.76 430.41 977.34 471.63 925.16 566.95 806.81 640.48 923.34 675.98
00010191 00000025 654.23 239.93 375.42 562.87 824.94 429.96 975.78 470.24 920.88 562.30 804.73 639.15 919.54 673.75
00010192 00000026 646.08 241.78 376.41 561.04 817.14 426.35 969.83 465.69 911.24 557.95 795.31 634.84 910.18 668.41
00010193 00000027 646.14 241.78 376.29 560.80 817.07 426.36 969.83 465.65 911.16 557.99 795.28 634.83 910.12 668.35
00010194 00000028 639.25 240.37 377.53 561.55 812.38 423.82 961.68 463.15 904.72 556.95 789.42 632.09 904.36 665.45
00010195 00000029 631.14 236.77 380.50 562.59 804.46 421.63 955.05 458.82 896.46 556.97 783.92 633.26 897.04 664.14
00010196 00000030 627.72 236.59 380.30 556.82 798.01 421.08 950.12 452.82 891.05 556.22 784.46 635.49 894.60 661.45
00010197 00000031 625.79 236.36 373.73 551.27 785.43 419.60 943.06 449.41 879.64 556.48 773.04 634.08 889.77 658.40
00010198 00000032 621.25 238.67 371.44 544.16 776.97 419.71 937.61 447.33 871.17 554.96 765.25 632.88 886.39 655.52
00010199 00000033 617.60 240.53 372.48 535.92 763.85 420.10 925.46 452.35 857.66 551.90 756.44 627.40 886.31 654.91
00010200 00000034 612.45 235.48 375.95 549.73 760.82 422.45 920.19 456.72 852.42 553.21 753.77 631.80 879.63 660.48
00010201 00000035 606.70 232.44 377.04 554.42 755.83 429.59 912.05 462.88 845.27 556.49 750.41 635.16 872.15 662.82
00010202 00000036 605.63 230.34 376.81 555.95 753.63 425.39 912.74 457.50 845.26 555.98 750.20 635.93 871.30 662.63
00010203 00000037 605.37 232.48 376.08 553.68 754.14 422.60 914.29 453.55 847.49 555.25 752.56 636.44 872.55 662.05
00010204 00000038 605.79 233.61 376.23 552.60 755.24 421.41 915.68 452.58 848.26 555.54 753.25 636.26 873.24 662.02
00010205 00000039 608.19 237.59 375.58 548.70 758.04 420.85 918.03 452.96 850.30 554.10 755.55 635.32 875.81 661.90
00010206 00000040 609.87 238.07 376.59 548.81 759.89 420.26 919.27 452.61 852.38 553.16 756.43 634.00 878.69 660.85
00010207 00000041 612.52 236.10 376.04 548.46 761.43 419.51 921.53 451.15 854.25 552.24 758.26 633.38 881.39 659.72
00010208 00000042 615.69 240.08 374.25 542.12 763.19 420.43 922.85 452.67 854.93 551.89 759.46 631.82 882.81 658.77
00010209 00000043 613.94 236.28 375.11 549.42 762.95 417.23 926.77 445.26 857.04 555.76 758.96 633.54 876.47 656.42
00010210 00000044 615.71 237.77 375.38 549.15 764.78 417.28 928.88 445.79 857.59 555.71 760.10 633.79 877.14 657.08
00010211 00000045 617.96 237.60 374.64 548.23 766.22 417.60 929.77 445.97 858.37 555.45 760.28 632.56 878.45 655.74
00010212 00000046 619.12 237.20 374.09 547.78 766.44 417.63 930.25 446.27 858.05 553.84 759.36 631.10 879.31 654.49
00010213 00000047 618.40 237.05 375.92 551.35 767.00 417.31 930.74 446.75 857.78 555.60 758.37 633.38 876.51 657.47
00010214 00000048 618.53 235.78 375.98 555.53 767.28 417.11 930.14 446.89 857.13 556.96 758.65 636.06 873.39 660.55
00010215 00000049 615.99 232.06 377.68 557.64 761.29 421.32 925.61 452.43 851.34 556.62 754.06 635.61 869.17 661.30
00010216 00000050 611.65 228.14 379.67 559.95 755.69 426.87 917.04 458.14 841.95 558.47 748.19 634.67 862.04 660.82
00010217 00000051 603.31 232.48 386.62 551.30 742.37 413.79 902.01 451.37 818.73 543.58 724.32 626.15 839.59 658.54
00010218 00000052 603.39 232.20 386.49 551.56 742.40 413.78 902.03 451.46 818.72 543.62 724.34 626.07 839.67 658.52
00010219 00000053 599.40 234.28 383.59 546.95 723.07 407.65 893.22 447.93 795.07 533.58 701.91 617.89 826.67 652.86
00010220 00000054 588.05 237.92 387.04 533.85 697.00 404.39 872.38 445.96 754.27 528.69 672.28 606.97 805.70 642.45
00010221 00000055 581.87 239.81 392.42 540.88 692.39 400.43 867.35 443.84 743.94 531.00 662.28 610.09 790.61 647.17
00010222 00000056 578.07 247.21 394.60 538.46 687.29 407.71 862.09 453.65 736.96 535.30 654.68 608.86 794.49 647.86
00010223 00000057 576.73 246.38 394.95 541.21 688.43 412.26 862.72 458.82 740.30 540.66 656.48 610.95 797.48 650.51
00010224 00000058 578.68 245.02 394.70 547.77 696.48 419.08 865.29 466.42 751.21 547.74 665.56 616.04 807.05 656.23
00010225 00000059 582.76 245.73 390.49 548.22 699.11 423.73 866.57 467.64 756.53 552.70 671.26 620.16 812.61 657.40
00010226 00000060 586.24 244.03 387.36 552.61 704.64 426.47 870.54 469.34 765.65 554.45 677.45 621.62 819.58 658.05
00010227 00000061 587.17 242.04 387.44 556.30 708.42 426.18 874.72 469.98 771.24 554.75 680.06 623.09 822.05 660.38
00010228 00000062 590.21 241.10 386.03 559.38 714.17 429.15 879.37 472.85 779.94 556.74 685.52 625.89 826.58 663.24
00010229 00000063 593.51 239.88 384.51 563.55 717.98 430.17 883.48 470.35 787.91 561.25 693.03 630.45 834.88 664.56
00010230 00000064 595.64 239.22 380.74 556.27 720.97 426.75 887.95 465.00 798.00 552.59 702.04 626.27 843.02 658.75
00010231 DELETE   596.77 235.48 377.56 556.69 725.42 428.43 885.31 465.64 804.59 546.30 707.97 620.47 846.54 651.98
00010232 00000066 597.42 233.48 375.59 553.48 719.68 417.17 885.48 453.21 799.31 535.87 704.84 615.12 842.72 645.77
00010233 DELETE   594.66 235.52 377.32 546.78 714.19 413.61 884.65 446.52 795.55 535.45 703.50 616.86 839.86 644.45
00010234 00000068 593.89 232.68 375.17 545.02 712.96 411.01 883.75 439.15 797.91 534.95 709.66 620.20 839.51 643.41
00010235 00000069 592.27 231.44 375.11 543.61 711.84 409.07 881.92 435.96 797.30 533.12 710.87 619.67 836.95 641.77
00010236 00000070 590.96 225.54 374.05 543.95 708.55 408.05 880.01 432.46 796.11 531.01 711.39 617.80 837.00 637.73
00010237 00000071 590.24 223.14 372.49 542.96 707.58 406.56 879.68 429.18 796.84 529.79 711.94 616.00 838.15 634.58
00010238 00000072 588.86 220.34 372.56 544.24 706.90 404.88 877.69 425.12 797.19 526.63 713.76 617.00 834.28 634.15
00010239 00000073 587.64 221.09 372.19 540.04 705.47 403.16 876.57 419.02 798.74 523.10 716.53 615.71 837.10 629.28
00010240 00000074 582.89 207.51 373.68 544.98 705.06 399.22 878.10 409.03 806.36 514.71 723.40 613.34 844.57 621.78
00010241 00000075 577.31 208.32 372.80 541.50 704.50 397.73 873.41 402.07 806.15 507.18 727.23 609.54 844.44 613.29
00010242 00000076 565.44 204.89 375.58 542.69 699.23 394.49 862.98 397.76 801.64 499.82 723.42 599.18 841.22 601.96
00010243 00000077 565.57 204.84 375.67 542.76 699.17 394.37 862.96 397.69 801.54 499.75 723.47 599.11 841.21 601.92
00010244 00000078 558.72 187.97 371.29 556.16 698.50 389.59 857.15 396.21 800.72 489.23 717.61 590.27 845.97 595.48
00010245 00000079 548.64 194.97 370.84 548.18 679.75 385.10 843.49 389.58 784.71 486.54 705.08 585.19 837.86 589.22
00010246 00000080 545.46 202.34 373.21 545.86 668.92 383.35 838.74 380.13 779.92 482.50 695.94 590.42 838.42 587.28
00010247 00000081 535.59 195.85 369.43 542.64 654.27 380.15 828.97 376.58 766.00 477.14 681.68 585.16 830.30 582.08
00010248 00000082 527.38 200.39 372.35 533.77 646.62 380.25 818.55 374.95 758.42 473.30 673.12 579.63 822.40 575.35
00010249 00000083 517.21 200.72 372.44 526.59 634.68 375.44 802.99 368.36 741.68 468.21 664.26 574.37 806.43 568.25
00010250 00000084 513.66 197.02 368.75 524.67 627.94 372.94 797.28 365.59 733.12 465.65 659.34 571.81 798.34 565.54
00010251 00000085 506.43 206.45 369.51 515.21 619.51 369.47 790.11 359.11 725.21 460.33 655.47 572.49 790.11 563.97
00010252 00000086 500.28 214.22 369.27 503.91 614.93 367.84 784.70 355.25 721.54 455.54 654.83 571.08 786.39 560.79
00010253 00000087 495.76 217.19 369.88 489.09 610.69 368.60 780.69 353.31 718.48 452.26 655.29 564.54 787.60 551.77
00010254 00000088 494.45 209.26 369.46 498.16 608.83 366.97 777.86 350.96 716.88 448.75 655.48 563.57 787.40 550.43
00010255 00000089 491.80 204.37 367.04 503.09 608.90 372.23 769.89 353.89 714.05 445.34 657.52 560.32 783.64 545.63
00010256 00000090 490.75 203.08 365.45 495.85 606.48 370.94 768.56 351.44 713.35 440.90 656.22 555.19 785.96 539.21
00010257 00000091 488.11 196.82 368.94 494.01 602.52 359.50 768.67 337.41 713.13 433.35 658.83 550.79 784.81 532.07
00010258 00000092 488.91 197.57 369.23 490.86 602.67 357.86 765.90 333.46 712.73 428.61 660.01 549.64 783.68 528.79
00010259 00000093 487.17 189.64 368.70 491.54 602.95 352.13 761.58 330.25 711.90 420.75 659.73 541.45 779.22 522.61
00010260 00000094 487.00 188.55 367.96 492.99 602.19 347.93 760.71 324.07 714.07 415.55 663.48 541.23 783.20 520.74
00010261 00000095 487.87 180.09 368.17 499.29 604.09 344.21 758.87 316.56 716.54 406.57 669.78 538.96 789.47 515.14
00010262 00000096 487.34 175.97 369.64 493.66 605.45 346.41 759.32 315.52 718.19 405.44 671.36 536.95 789.71 510.67
00010263 00000097 481.01 172.69 372.07 477.03 601.13 357.08 761.35 322.64 718.87 408.27 668.81 527.00 795.16 498.20
00010264 00000098 484.80 172.62 368.84 468.72 602.90 357.85 762.07 323.21 718.97 405.63 670.14 522.70 795.93 493.78
00010265 00000099 495.18 180.46 363.24 477.34 609.96 348.89 756.29 315.21 716.83 399.16 675.62 528.47 789.89 500.39
00010266 DELETE   496.43 180.06 365.63 487.60 611.21 349.05 757.57 315.83 718.38 401.62 678.31 535.20 790.51 507.53
00010267 00000101 501.14 186.45 363.03 487.82 613.28 350.82 766.02 321.68 722.34 406.36 675.08 538.79 793.53 514.51
00010268 00000102 501.20 186.46 362.81 487.85 613.29 350.74 766.04 321.66 722.37 406.37 675.05 538.76 793.55 514.53
00010269 00000103 502.41 193.91 364.04 482.34 615.63 353.75 771.68 325.91 725.97 412.15 674.08 541.97 796.24 518.78
00010270 00000104 503.61 191.16 366.27 488.62 617.82 359.78 777.63 332.29 729.52 420.65 673.27 548.20 799.88 525.29
00010271 00000105 502.83 195.93 371.03 490.34 617.70 364.33 780.93 336.23 729.77 427.76 674.08 556.24 802.88 532.66
00010272 DELETE   502.59 200.71 374.91 501.14 616.09 367.54 782.35 337.92 731.53 438.33 677.36 567.54 808.32 542.40
00010273 00000107 503.89 201.26 375.09 501.71 617.28 370.24 784.29 342.32 731.51 442.34 677.05 570.01 807.80 546.27
00010274 00000108 503.75 199.08 376.30 507.04 619.59 374.65 786.16 347.72 733.50 451.89 676.77 571.38 807.70 548.19
00010275 00000109 502.99 200.43 378.99 506.76 619.81 379.28 786.12 352.27 733.92 459.46 676.66 573.14 808.92 549.59
00010276 00000110 503.55 200.10 377.36 513.81 622.34 386.98 787.23 360.97 735.34 472.35 677.95 580.25 808.05 557.27
00010277 00000111 506.64 206.60 371.91 514.69 626.15 390.80 788.00 364.52 739.01 480.23 682.40 587.72 809.36 564.44
00010278 00000112 509.10 207.86 368.63 526.37 631.88 394.07 792.47 369.48 747.43 487.16 689.64 598.51 812.70 576.68
00010279 00000113 509.04 204.35 368.12 533.10 632.46 400.55 794.18 374.95 748.92 493.05 691.72 605.23 814.13 582.61
00010280 00000114 512.05 206.14 370.01 531.92 632.84 405.22 798.99 378.96 750.61 496.67 690.92 607.65 818.61 584.76
00010281 00000115 514.14 209.26 373.25 530.81 634.63 408.01 803.97 382.08 753.05 498.08 691.34 608.76 823.11 586.11
00010282 00000116 519.93 217.65 376.62 530.83 637.65 417.16 805.42 384.18 760.80 496.48 693.35 619.89 820.46 591.17
00010283 00000117 523.05 216.95 375.51 535.68 638.39 420.34 808.61 385.78 762.19 495.67 693.08 621.74 826.17 591.40
00010284 00000118 529.14 220.67 373.92 538.24 642.65 420.33 814.53 387.86 767.64 500.53 694.49 623.81 833.28 595.51
00010285 00000119 533.86 222.55 372.17 538.31 646.05 423.76 817.03 391.55 770.60 503.45 694.91 624.65 838.14 596.87
CROP_BBOX: 292 0 1227 974
