Video ID: 	Pu1t0lstK3M
H: 	1080
W: 	1920
FPS: 	25.0

FRAME INDEX X0 Y0 W H [Landmarks (5 Points)]

00003174 00000000 769.86 193.14 516.21 733.42 836.73 476.33 1065.57 478.65 907.94 670.47 884.98 751.59 1072.45 753.60
00003175 00000001 762.42 198.21 519.88 731.35 831.72 480.64 1063.06 480.90 906.59 674.75 882.27 756.20 1069.84 756.48
00003176 00000002 756.02 200.71 521.82 733.73 827.13 483.25 1061.24 482.87 905.30 678.42 880.29 761.20 1066.37 761.07
00003177 00000003 749.74 203.46 525.58 736.63 821.93 486.93 1060.08 484.82 902.92 683.69 878.67 772.13 1063.17 770.52
00003178 00000004 745.55 206.33 526.24 735.04 816.92 491.18 1057.82 488.86 899.41 688.22 875.53 778.86 1057.72 776.94
00003179 DELETE   748.94 204.97 526.99 744.75 814.29 488.31 1050.01 491.68 888.38 692.66 869.80 774.87 1049.80 777.09
00003180 00000006 743.89 209.53 529.03 746.15 807.41 492.86 1037.47 497.23 876.83 697.89 865.42 781.11 1040.43 784.24
00003181 00000007 736.68 210.49 533.22 748.68 797.95 495.72 1028.46 501.30 865.91 701.98 856.86 790.01 1027.32 794.70
00003182 00000008 731.38 212.32 535.73 745.44 793.02 494.95 1021.86 502.96 858.68 701.19 849.93 788.93 1019.76 795.56
00003183 00000009 728.49 208.83 534.99 744.76 788.80 490.53 1016.65 500.73 850.97 696.50 842.87 781.18 1017.01 789.39
00003184 00000010 728.59 194.14 536.01 756.87 789.14 485.00 1018.16 491.31 847.27 686.91 841.87 775.58 1018.63 780.62
00003185 00000011 728.34 185.97 541.16 756.79 791.21 475.91 1020.58 481.57 849.97 678.66 846.84 767.47 1022.86 771.76
00003186 00000012 728.73 181.88 546.33 756.62 794.05 469.66 1024.43 477.40 854.94 674.44 849.50 759.32 1027.81 764.99
00003187 00000013 733.56 179.48 545.98 759.83 800.45 471.10 1028.57 476.36 861.55 672.97 858.71 760.24 1035.53 763.52
00003188 DELETE   734.16 184.09 549.46 760.80 800.07 473.08 1035.78 481.17 864.10 684.08 857.61 761.04 1041.11 766.53
00003189 DELETE   733.54 207.13 546.44 749.20 803.56 492.01 1046.14 498.01 879.38 706.99 868.31 784.56 1054.69 788.82
00003190 00000016 735.57 221.72 549.41 747.94 809.93 505.61 1053.72 513.03 887.96 725.41 876.48 802.70 1061.53 807.15
00003191 00000017 737.17 227.42 546.91 743.88 811.14 509.02 1056.01 516.72 890.99 731.68 876.27 806.32 1061.49 811.17
00003192 00000018 740.64 221.58 541.95 747.04 813.31 506.25 1056.58 514.09 891.21 725.10 876.26 802.60 1061.00 807.63
00003193 00000019 742.20 220.31 543.42 744.92 812.97 502.17 1054.05 508.13 890.25 717.10 876.88 796.13 1061.28 799.82
00003194 00000020 743.28 218.72 544.54 741.84 815.59 499.88 1054.79 502.73 892.67 710.20 880.74 791.68 1065.85 792.71
00003195 00000021 745.73 218.22 544.10 740.02 817.35 499.79 1055.14 502.28 893.17 710.41 881.99 789.84 1069.33 790.41
00003196 00000022 747.89 220.50 541.53 736.67 818.72 499.91 1054.95 503.76 893.20 711.79 881.92 786.55 1070.54 788.24
00003197 00000023 749.89 223.55 538.92 730.53 820.76 500.44 1056.27 505.15 895.60 712.21 882.63 783.27 1071.04 785.73
00003198 00000024 751.87 223.02 535.49 724.22 822.14 498.05 1057.42 502.71 897.37 708.44 882.91 782.25 1068.65 784.97
00003199 00000025 753.69 217.99 530.37 723.51 823.76 495.12 1059.21 500.65 900.62 703.53 881.80 779.70 1064.29 783.51
00003200 00000026 755.13 217.54 525.88 723.71 825.34 495.32 1060.41 500.13 902.61 700.43 881.72 778.90 1063.64 782.24
00003201 00000027 753.66 218.13 524.63 724.80 824.97 497.19 1057.92 501.38 901.80 700.97 882.89 783.95 1059.81 786.96
00003202 00000028 751.33 223.41 520.82 719.41 820.73 497.88 1056.35 502.92 899.22 702.49 879.10 785.24 1054.91 789.03
00003203 00000029 750.18 221.88 517.87 716.06 817.46 496.18 1053.58 501.28 895.94 699.22 876.07 779.97 1053.01 783.73
00003204 00000030 754.08 213.27 515.28 714.27 817.52 486.42 1046.93 494.35 888.92 689.16 873.02 766.06 1042.49 772.25
00003205 00000031 749.15 206.56 515.05 722.13 817.98 485.42 1047.37 488.62 890.68 684.63 874.53 766.75 1049.45 767.63
00003206 00000032 748.04 204.93 513.16 722.12 817.67 484.19 1048.38 486.39 892.60 682.49 873.88 766.02 1048.73 766.23
00003207 00000033 748.02 204.89 509.89 721.46 817.43 483.75 1047.66 486.32 892.23 681.17 872.93 764.98 1047.27 765.59
00003208 00000034 747.61 206.40 507.35 719.97 817.17 483.76 1046.09 485.86 891.48 680.55 872.24 764.99 1045.51 765.30
00003209 00000035 749.89 208.12 506.42 716.89 812.75 481.11 1043.11 485.69 886.25 679.64 865.71 757.23 1041.88 760.75
00003210 00000036 749.21 207.24 506.47 718.22 813.53 480.72 1042.04 484.33 886.83 676.92 867.81 756.98 1041.44 759.73
00003211 00000037 748.31 207.87 506.13 713.40 814.79 482.69 1043.57 485.39 891.00 676.16 869.77 754.15 1043.81 756.00
00003212 00000038 747.08 207.04 508.07 712.70 816.36 483.88 1047.80 485.15 896.96 677.06 872.13 751.94 1048.61 752.51
00003213 00000039 746.63 205.96 509.56 711.71 818.83 484.67 1051.08 483.49 903.75 675.88 876.78 751.92 1053.20 750.44
00003214 00000040 745.64 201.93 509.92 715.49 819.72 484.35 1054.02 480.33 909.05 673.56 879.16 752.35 1057.78 748.54
00003215 00000041 744.37 199.80 510.39 716.58 821.59 483.40 1054.47 477.33 913.62 669.65 883.45 750.06 1060.28 744.54
00003216 00000042 743.24 198.01 509.53 718.07 822.66 483.14 1055.56 475.14 917.58 668.92 885.48 748.49 1064.88 741.23
00003217 00000043 740.85 195.37 512.21 721.92 823.52 482.67 1057.73 472.18 920.96 667.50 888.01 746.96 1070.09 737.44
00003218 00000044 738.57 191.86 513.97 725.42 823.53 482.83 1058.71 469.93 923.40 667.85 889.86 744.71 1076.91 732.77
00003219 00000045 737.27 191.14 514.69 728.23 822.26 484.45 1057.52 468.55 923.85 668.91 891.04 744.01 1083.15 729.10
00003220 00000046 732.82 193.50 515.69 727.38 818.14 487.09 1054.41 471.13 920.87 671.14 886.30 744.75 1082.33 729.57
00003221 DELETE   726.84 193.40 516.61 725.33 808.62 487.05 1044.20 469.95 908.28 669.90 876.41 743.73 1075.68 727.58
00003222 DELETE   715.88 199.54 520.26 716.80 795.37 485.28 1026.64 471.22 889.29 673.89 864.45 739.36 1062.24 725.48
00003223 00000049 713.13 200.87 512.57 715.14 787.05 483.86 1013.35 471.33 875.31 672.66 852.66 739.38 1047.57 727.25
00003224 00000050 708.17 198.72 512.49 717.65 784.78 483.63 1011.36 468.26 875.48 668.29 851.58 741.33 1045.42 727.05
00003225 00000051 706.44 198.91 509.62 717.19 781.44 484.37 1007.36 465.91 872.75 665.06 848.74 742.46 1042.60 725.60
00003226 00000052 699.45 195.22 507.66 721.34 774.35 487.85 1001.35 465.81 866.26 664.64 842.06 744.01 1036.82 724.53
00003227 00000053 688.42 194.40 512.17 720.25 765.43 489.71 993.26 468.48 857.63 667.10 833.29 746.32 1025.44 727.83
00003228 00000054 679.01 196.69 514.89 716.91 758.56 485.65 987.28 472.74 849.89 668.18 829.77 742.94 1016.15 730.36
00003229 00000055 673.94 200.14 513.09 713.77 750.31 487.33 982.70 471.74 844.49 667.94 821.94 743.90 1013.24 729.19
00003230 00000056 668.45 196.34 515.91 720.04 744.38 486.63 979.32 469.04 840.27 667.76 816.28 745.35 1012.34 728.76
00003231 00000057 664.61 195.09 514.40 724.00 739.25 486.84 973.01 467.80 834.23 668.44 812.00 748.63 1006.03 731.05
00003232 00000058 661.04 197.28 513.20 719.65 736.15 487.83 965.32 470.63 827.82 669.01 809.97 754.04 990.63 738.52
00003233 00000059 659.22 197.54 511.30 716.29 735.78 488.78 960.18 471.99 825.09 668.24 810.60 757.94 981.13 743.16
00003234 00000060 659.81 197.46 509.67 712.88 736.82 489.48 962.42 471.66 828.49 667.67 811.16 761.08 978.21 745.85
00003235 00000061 664.78 194.27 506.58 714.85 739.88 489.63 969.44 470.15 835.49 662.37 813.80 759.66 979.87 743.45
00003236 00000062 668.51 191.67 509.03 718.21 744.25 487.30 974.80 467.15 840.52 657.85 817.63 757.29 983.50 740.57
00003237 00000063 670.69 191.02 511.97 719.91 744.46 486.41 976.73 466.05 840.29 659.39 816.52 756.62 987.88 739.47
00003238 00000064 671.20 196.03 516.25 718.47 745.03 488.49 977.82 468.14 834.18 667.74 814.33 763.46 990.77 745.29
00003239 00000065 673.95 198.73 514.83 719.98 750.03 492.40 978.83 475.50 837.41 671.38 818.30 765.23 992.19 749.64
00003240 DELETE   685.32 199.34 508.41 718.52 760.65 487.90 987.23 476.98 850.90 671.16 828.97 754.48 1001.69 744.52
00003241 DELETE   694.54 195.77 506.51 717.63 767.33 488.23 995.91 473.17 856.32 669.84 832.60 753.10 1015.35 740.53
00003242 DELETE   701.92 190.04 506.27 724.24 773.71 482.69 1004.63 466.79 864.35 664.12 836.73 749.17 1024.96 735.82
00003243 00000069 703.85 193.45 511.94 719.97 777.10 481.29 1008.06 466.81 867.80 664.84 840.94 747.65 1029.61 735.04
00003244 00000070 704.69 196.68 514.13 720.71 780.91 486.97 1009.31 474.51 870.29 670.76 843.60 752.15 1029.48 741.38
00003245 00000071 704.77 202.31 516.88 718.43 782.42 491.32 1010.60 482.73 870.70 680.53 844.83 754.00 1030.36 746.32
00003246 00000072 700.61 202.17 521.27 727.34 782.51 491.42 1020.79 478.03 882.35 676.66 852.06 760.57 1043.48 748.10
00003247 00000073 705.34 202.88 523.78 729.22 784.07 494.70 1017.40 487.59 872.71 691.09 844.49 758.80 1038.22 751.89
00003248 DELETE   710.90 207.56 523.53 732.85 787.10 499.08 1021.26 496.32 873.99 699.71 843.11 762.96 1039.14 759.48
00003249 00000075 715.84 213.12 523.28 731.11 790.99 505.20 1024.14 503.35 877.03 705.62 849.45 772.25 1039.31 769.56
00003250 00000076 720.13 212.43 523.34 727.76 795.64 504.47 1031.27 502.69 883.02 705.13 853.10 772.53 1042.60 770.11
00003251 00000077 726.83 206.47 519.45 729.15 802.09 500.60 1038.62 497.11 891.78 698.44 859.34 771.10 1046.14 767.57
00003252 00000078 729.79 205.63 522.77 729.95 806.95 497.63 1044.64 492.56 899.67 694.89 866.60 770.59 1050.55 766.05
00003253 00000079 732.66 203.48 525.60 734.24 809.78 496.28 1050.27 491.24 902.74 695.24 868.42 772.27 1054.01 767.85
00003254 00000080 736.73 197.49 524.03 739.36 812.36 495.97 1054.38 491.36 905.03 695.98 868.65 770.73 1058.11 766.60
00003255 00000081 740.44 193.72 523.79 743.73 817.18 492.30 1060.25 489.44 909.01 692.34 872.86 769.76 1062.49 766.87
00003256 00000082 741.94 189.97 524.52 748.14 821.94 488.87 1065.35 486.66 914.46 687.92 877.79 765.94 1067.87 763.25
00003257 00000083 744.85 188.90 525.68 750.44 824.53 486.28 1067.97 483.85 915.97 684.46 882.70 764.60 1073.07 761.65
00003258 00000084 747.73 187.34 526.13 750.96 827.38 484.64 1069.86 482.58 917.21 681.75 885.68 761.55 1075.82 758.88
00003259 00000085 747.40 195.60 522.69 737.89 829.02 491.16 1071.52 486.80 921.25 689.21 884.15 763.69 1079.89 759.48
00003260 00000086 746.30 190.14 526.06 743.27 829.16 489.85 1068.89 484.92 917.80 685.95 882.11 761.69 1076.68 756.08
00003261 00000087 746.21 189.11 525.79 743.60 829.08 488.65 1068.86 484.94 917.14 685.05 881.34 762.36 1074.04 757.87
00003262 00000088 745.84 187.94 523.45 746.62 828.36 486.09 1067.80 483.47 916.01 680.53 880.55 763.32 1069.11 760.23
00003263 00000089 745.70 185.57 521.33 746.86 827.01 484.62 1065.45 483.04 914.03 679.29 879.10 763.11 1064.84 761.03
00003264 00000090 743.33 189.46 520.47 741.09 823.06 485.66 1054.60 488.19 903.28 680.39 874.46 759.60 1058.53 760.37
00003265 DELETE   741.81 187.03 517.16 744.99 818.26 480.88 1046.32 485.96 890.51 673.25 867.03 755.73 1049.71 758.49
00003266 DELETE   745.82 191.48 511.04 728.10 805.16 462.23 1035.18 476.09 870.80 660.86 848.55 736.01 1032.26 746.64
00003267 DELETE   742.33 171.71 510.85 739.32 799.63 452.62 1028.45 462.15 861.11 640.10 839.73 730.93 1021.38 738.45
00003268 00000094 740.94 159.32 510.22 746.82 795.40 441.76 1021.66 449.59 853.68 629.84 835.14 725.12 1014.52 731.59
00003269 00000095 740.03 159.01 511.96 747.90 795.11 440.57 1021.37 449.07 852.69 630.55 834.92 725.14 1014.28 732.17
00003270 00000096 741.12 164.82 512.32 746.17 796.28 446.11 1023.17 456.33 854.44 640.83 837.04 730.51 1017.58 738.83
00003271 00000097 741.90 172.11 516.72 749.56 800.46 452.92 1028.18 464.65 858.56 651.90 842.26 736.38 1026.51 745.44
00003272 00000098 744.84 176.55 516.44 748.44 801.86 453.88 1031.71 466.11 860.45 655.01 843.06 736.97 1030.72 746.18
00003273 00000099 747.25 174.36 517.25 749.24 803.84 452.90 1033.94 464.26 861.92 651.58 845.68 736.74 1030.83 745.34
00003274 00000100 749.51 173.41 515.87 749.59 805.59 450.88 1034.57 461.64 862.69 647.49 848.28 736.33 1030.94 744.42
00003275 00000101 751.12 174.37 514.59 748.39 807.24 451.54 1035.23 462.36 864.50 647.80 851.19 735.87 1032.16 743.89
00003276 00000102 747.70 182.04 517.13 740.42 813.45 454.64 1041.27 465.44 872.57 650.00 859.55 743.68 1035.90 751.57
00003277 00000103 748.23 185.66 518.65 737.25 815.42 457.71 1045.49 467.58 878.88 654.71 862.75 743.28 1043.35 750.16
00003278 00000104 751.73 186.68 516.17 731.69 821.99 459.88 1050.11 470.13 886.84 655.00 865.32 738.40 1050.17 746.92
00003279 00000105 754.35 186.38 514.73 731.01 824.61 460.39 1052.28 470.34 889.95 656.63 866.84 737.32 1052.75 745.67
00003280 00000106 756.11 186.39 515.80 730.06 826.32 460.09 1052.96 470.22 890.36 656.94 868.94 736.69 1055.17 745.17
00003281 00000107 756.29 185.86 517.35 733.26 826.29 459.16 1050.89 469.28 888.35 656.89 870.22 736.65 1056.66 744.93
00003282 00000108 755.49 187.89 515.82 728.80 824.04 457.29 1046.20 469.22 881.82 654.36 869.23 735.54 1051.00 745.23
00003283 00000109 750.06 187.99 520.73 725.76 816.89 457.08 1037.84 468.90 872.16 654.27 869.47 738.86 1041.22 747.09
00003284 00000110 751.56 189.80 519.28 717.96 815.82 455.15 1035.33 467.86 867.89 651.36 868.99 736.81 1037.96 745.65
00003285 00000111 752.53 186.40 519.33 719.38 817.73 454.10 1039.41 465.40 872.76 648.13 870.77 737.09 1039.10 745.07
00003286 00000112 754.51 185.52 518.41 721.43 821.10 454.60 1044.29 464.11 879.73 646.54 873.60 736.39 1044.44 743.20
00003287 00000113 756.11 186.50 520.19 717.03 823.22 454.35 1048.75 462.60 886.29 647.42 876.04 733.17 1052.39 738.70
00003288 00000114 761.33 181.20 513.34 719.68 830.36 454.17 1051.98 462.08 891.60 645.18 873.86 727.34 1055.15 734.04
00003289 00000115 761.05 183.60 513.23 717.02 830.09 454.69 1053.05 463.33 892.69 647.28 873.14 727.62 1055.60 734.92
00003290 00000116 761.04 182.00 512.75 720.27 830.06 454.04 1052.74 462.40 891.75 645.59 872.20 727.96 1055.71 735.00
00003291 00000117 761.71 179.58 511.44 725.10 831.14 452.39 1052.65 461.56 891.11 643.34 871.80 726.41 1056.00 734.12
00003292 00000118 762.90 179.05 509.39 721.94 830.00 451.06 1053.76 460.01 891.43 643.00 870.52 724.88 1057.62 732.21
00003293 00000119 761.76 183.20 513.57 713.59 826.51 451.89 1054.15 460.82 892.17 644.99 874.82 726.99 1056.72 733.08
00003294 00000120 761.52 181.27 512.89 714.95 827.37 451.59 1055.26 460.64 894.14 644.04 874.77 727.67 1055.36 734.15
00003295 00000121 762.52 180.32 510.85 716.05 828.88 451.34 1056.03 460.95 895.98 643.68 875.58 727.37 1055.03 734.50
00003296 00000122 763.42 181.11 510.42 714.00 829.81 450.73 1056.69 460.38 897.09 643.13 876.58 726.92 1054.62 734.29
00003297 00000123 764.76 180.88 509.95 713.01 831.07 449.81 1057.93 459.38 898.78 642.47 878.16 727.02 1055.35 734.34
00003298 00000124 766.26 179.39 508.63 715.14 832.32 448.56 1058.35 457.54 899.63 639.69 878.21 725.53 1056.11 732.37
00003299 00000125 771.26 176.67 504.68 713.41 834.33 449.17 1059.60 457.29 901.35 638.01 878.74 722.58 1058.65 728.60
CROP_BBOX: 418 0 1557 1080
