Video ID: 	9kZhan4JdFw
H: 	1080
W: 	1920
FPS: 	25.0

FRAME INDEX X0 Y0 W H [Landmarks (5 Points)]

00010128 00000000 748.87 189.49 403.96 640.69 942.99 439.37 1106.92 437.96 1086.48 548.51 991.78 671.46 1107.02 668.12
00010129 00000001 739.24 197.45 419.68 633.61 930.41 441.56 1107.78 440.20 1074.98 555.40 978.97 674.81 1104.93 671.14
00010130 DELETE   732.07 201.66 424.48 621.47 915.81 438.33 1099.90 439.14 1050.91 565.31 960.94 674.08 1087.81 672.79
00010131 00000003 730.62 201.29 422.68 620.54 903.49 443.13 1097.63 447.30 1038.88 572.19 945.08 675.83 1082.83 677.60
00010132 DELETE   737.51 214.68 421.41 604.37 916.89 443.19 1104.70 447.43 1047.59 576.29 958.96 677.17 1086.21 678.83
00010133 DELETE   748.77 220.75 418.24 604.01 936.16 447.71 1121.30 452.25 1071.48 573.15 978.98 681.79 1106.69 683.08
00010134 DELETE   759.97 216.30 415.12 613.92 958.61 448.09 1136.24 454.37 1099.34 564.77 1001.37 682.65 1124.74 685.42
00010135 00000007 777.35 203.72 411.10 621.42 975.51 444.53 1153.82 452.67 1116.55 560.52 1012.84 681.67 1135.34 686.58
00010136 00000008 782.99 198.21 410.57 617.55 977.72 444.08 1149.93 454.77 1113.54 552.60 1011.04 673.80 1130.48 681.57
00010137 00000009 788.34 196.82 406.37 610.92 971.56 432.93 1150.12 446.84 1107.18 539.45 1004.20 663.82 1127.69 674.68
00010138 00000010 782.41 197.54 407.45 598.72 968.89 416.77 1141.71 428.94 1102.15 528.60 998.82 646.47 1120.77 655.59
00010139 00000011 780.13 186.36 406.83 595.07 968.28 414.38 1140.90 422.37 1102.64 517.56 998.11 636.55 1122.59 641.83
00010140 00000012 777.85 190.14 406.07 585.31 962.63 399.06 1134.14 406.99 1092.48 511.82 994.69 627.86 1115.52 632.61
00010141 00000013 768.53 184.96 406.26 586.69 950.52 392.62 1126.70 405.30 1078.81 505.37 982.78 622.56 1104.83 630.87
00010142 00000014 751.60 174.73 409.67 597.07 930.87 392.32 1110.65 408.89 1057.78 504.11 961.92 615.45 1095.64 628.31
00010143 00000015 736.11 176.09 409.45 582.21 912.40 392.27 1091.93 405.86 1038.47 502.41 947.27 607.82 1078.23 618.92
00010144 DELETE   728.23 180.19 408.94 576.00 898.57 389.83 1081.00 396.50 1032.83 487.06 932.50 606.67 1073.99 610.38
00010145 00000017 705.32 165.61 412.67 599.42 877.30 384.92 1056.48 391.39 1009.07 486.87 912.35 606.80 1053.38 610.72
00010146 00000018 695.13 158.29 409.23 597.70 850.53 382.26 1037.32 383.32 981.78 483.02 895.58 603.81 1036.72 603.21
00010147 00000019 685.70 154.33 407.31 589.31 831.31 384.69 1024.67 383.49 963.40 482.88 879.67 598.24 1030.49 595.52
00010148 DELETE   669.73 155.91 412.72 587.96 816.76 387.58 1010.91 383.87 948.92 483.27 866.04 595.97 1021.59 591.67
00010149 DELETE   660.31 153.64 413.06 591.00 810.47 385.94 999.26 384.50 938.92 482.46 855.69 597.07 1003.07 595.50
00010150 DELETE   653.47 157.86 412.14 578.30 801.10 390.22 993.93 377.58 936.48 480.88 849.28 604.29 999.34 592.00
00010151 00000023 647.26 156.50 416.73 582.75 792.67 388.82 988.05 373.65 929.59 481.27 844.96 606.47 995.63 591.75
00010152 00000024 641.07 157.88 420.86 602.32 785.22 386.52 979.78 369.51 920.50 486.79 840.07 613.07 989.31 596.35
00010153 00000025 639.90 157.15 421.31 608.57 783.60 388.90 978.26 371.09 918.84 488.53 839.57 615.23 990.02 597.75
00010154 00000026 638.87 152.77 422.22 612.06 782.69 390.37 977.14 370.14 917.37 489.91 837.69 614.58 990.27 594.88
00010155 00000027 641.39 153.37 423.64 608.59 780.61 393.73 978.44 369.68 916.18 492.32 835.37 613.59 994.39 590.95
00010156 00000028 638.85 163.79 427.32 599.84 781.24 397.92 977.82 364.35 919.14 494.06 836.93 618.46 991.53 588.26
00010157 00000029 646.17 158.62 422.32 612.43 784.60 403.10 986.19 375.88 924.17 505.65 844.43 630.18 1001.64 605.15
00010158 00000030 644.53 170.18 424.77 620.08 786.82 413.72 981.10 376.31 928.39 505.61 848.25 645.56 997.07 612.66
00010159 00000031 653.62 155.11 418.72 633.98 785.81 417.44 987.92 386.99 926.93 520.81 847.60 649.39 1007.34 622.73
00010160 00000032 651.37 169.21 421.37 624.33 786.69 424.30 991.76 381.27 928.73 522.72 842.92 653.06 1011.79 616.07
00010161 00000033 649.07 174.40 421.45 623.14 784.72 424.04 987.19 384.54 924.17 525.72 838.87 655.24 1002.85 621.05
00010162 00000034 644.04 176.81 424.13 621.46 782.48 423.65 982.97 387.57 920.88 526.05 838.54 658.20 994.62 626.44
00010163 00000035 642.99 175.65 422.03 620.83 778.44 425.17 980.34 388.69 918.07 528.11 836.04 658.28 993.17 625.99
00010164 00000036 631.97 174.64 430.37 616.23 773.14 424.13 974.87 390.07 913.88 531.80 832.07 653.98 985.36 623.07
00010165 00000037 629.97 167.73 427.74 621.73 767.48 424.35 966.35 388.53 906.81 533.06 828.25 651.60 979.17 618.95
00010166 00000038 625.24 179.77 425.95 613.09 761.65 422.78 959.06 388.13 899.87 535.10 826.55 653.43 973.28 621.31
00010167 00000039 623.29 177.91 421.71 616.57 758.30 425.10 953.02 390.96 893.05 533.77 822.39 653.41 966.57 621.62
00010168 00000040 618.01 184.97 420.76 611.10 753.58 423.00 946.88 391.51 886.40 533.33 817.92 652.01 958.87 622.42
00010169 00000041 611.20 192.38 425.23 604.50 747.58 424.20 938.48 390.42 879.52 531.57 818.49 654.39 953.55 623.07
00010170 00000042 604.48 181.78 429.12 620.39 743.25 424.98 936.52 390.93 878.75 527.24 817.95 659.37 952.07 628.07
00010171 00000043 600.01 185.61 430.14 619.83 739.83 426.12 930.72 391.44 875.73 526.71 814.93 660.02 950.84 628.49
00010172 00000044 596.57 184.52 429.85 614.15 736.05 425.12 928.81 391.24 871.74 528.25 810.19 656.60 947.03 626.06
00010173 00000045 597.57 180.10 429.08 614.52 732.53 425.21 926.77 387.57 868.65 525.67 808.78 655.96 946.66 622.13
00010174 00000046 596.59 166.41 427.64 613.38 725.37 427.84 919.93 384.67 863.05 531.36 799.09 645.72 956.21 609.57
00010175 00000047 591.37 166.26 431.69 615.34 719.22 429.23 916.06 382.35 858.54 530.49 795.04 645.61 956.66 606.40
00010176 00000048 588.50 160.32 432.75 625.87 718.60 432.76 911.12 385.63 858.40 529.22 795.65 648.44 951.23 609.77
00010177 00000049 589.06 162.64 431.93 626.76 718.36 436.87 907.30 387.68 857.33 528.45 798.95 651.30 950.85 611.23
00010178 00000050 588.12 163.43 433.86 629.33 717.57 439.44 907.98 386.64 859.99 529.05 803.08 655.87 955.02 612.61
00010179 00000051 583.97 168.17 441.26 623.89 715.18 440.44 910.66 388.15 859.75 534.34 799.10 656.30 958.68 613.05
00010180 00000052 581.59 169.16 439.80 625.74 715.05 441.87 905.50 389.85 859.51 531.82 788.45 651.52 951.24 609.74
00010181 00000053 580.09 171.78 441.80 624.11 713.87 449.54 904.86 394.92 858.65 534.28 788.70 655.45 953.01 611.30
00010182 00000054 577.72 179.61 443.88 619.94 713.45 462.60 904.12 402.73 861.19 543.34 793.73 660.85 958.10 612.64
00010183 00000055 576.40 179.71 445.14 623.37 706.94 456.67 903.70 396.23 857.01 541.93 793.33 662.97 961.56 613.34
00010184 00000056 575.94 180.36 442.44 625.98 705.53 456.83 899.77 394.32 855.47 539.85 794.69 663.70 959.34 612.45
00010185 00000057 568.70 173.27 448.56 639.78 698.02 456.79 894.84 391.04 851.48 540.57 796.25 673.22 957.78 619.71
00010186 00000058 557.30 171.96 452.30 633.91 689.48 457.88 891.13 393.07 845.82 544.76 790.00 674.01 950.08 621.80
00010187 00000059 541.29 185.04 462.85 618.04 690.14 465.78 875.82 391.83 832.86 540.46 781.87 677.58 921.58 614.02
00010188 00000060 534.96 187.04 459.50 617.70 683.47 462.61 868.78 390.33 824.91 541.14 769.03 672.75 914.90 610.25
00010189 00000061 537.85 186.22 452.11 611.12 679.16 463.34 862.73 393.05 817.41 539.25 759.41 663.50 913.23 602.07
00010190 00000062 536.89 190.83 450.51 610.66 676.85 458.25 856.58 391.58 809.63 538.24 755.13 660.45 905.34 602.01
00010191 00000063 531.72 188.50 450.01 613.96 673.13 456.54 849.01 389.82 804.54 534.36 757.76 663.67 899.02 605.91
00010192 00000064 525.10 182.91 442.81 616.13 660.03 451.74 852.35 390.80 805.77 542.68 743.72 665.86 900.21 615.65
00010193 00000065 520.04 176.90 446.63 620.42 654.32 450.31 848.08 388.42 801.23 541.80 740.26 663.26 900.23 611.62
00010194 00000066 518.67 176.50 447.76 625.34 650.99 447.75 845.10 385.94 798.64 539.88 737.70 663.54 900.31 611.94
00010195 00000067 519.74 176.27 443.49 627.30 648.77 444.67 842.95 384.12 796.17 536.23 737.46 664.30 897.84 614.03
00010196 00000068 519.66 177.15 441.96 619.37 645.48 441.48 842.13 381.85 791.22 536.01 731.37 659.20 894.34 609.80
00010197 00000069 524.67 175.55 437.90 619.56 647.20 441.38 841.54 381.20 791.34 535.58 731.94 658.08 895.71 607.96
00010198 00000070 524.60 167.56 440.21 630.94 649.13 444.31 841.76 382.53 793.12 534.84 731.79 659.35 896.53 608.02
00010199 00000071 526.99 164.17 440.86 623.09 654.66 444.27 845.31 383.58 794.30 536.83 733.44 652.99 894.47 602.37
00010200 00000072 529.46 159.40 441.82 631.07 656.44 442.22 849.81 381.36 798.36 536.90 735.19 654.39 897.16 603.50
00010201 00000073 532.83 179.31 453.16 616.09 671.02 446.16 853.24 382.32 805.34 529.76 758.13 657.47 900.76 601.75
00010202 00000074 541.09 177.38 448.00 622.71 678.16 449.43 857.03 384.12 811.11 526.95 768.98 662.14 907.53 605.50
00010203 00000075 543.54 167.29 441.94 635.75 676.98 444.89 867.26 383.77 821.65 536.28 762.42 666.88 912.46 614.57
00010204 00000076 552.35 165.16 436.61 633.47 682.82 442.37 874.36 382.81 826.70 535.24 761.93 664.26 913.35 613.42
00010205 00000077 561.10 167.78 436.20 631.37 692.19 440.57 886.60 392.17 835.26 532.23 772.13 653.73 929.81 615.16
00010206 00000078 567.93 171.39 433.17 632.17 699.20 440.18 892.91 390.43 844.91 531.87 792.17 664.46 939.69 624.80
00010207 00000079 569.02 173.30 437.64 631.59 702.98 440.63 897.65 391.82 849.99 528.64 794.08 665.22 943.14 626.44
00010208 00000080 573.54 170.45 436.99 633.57 703.22 439.18 900.86 390.21 852.40 530.52 786.24 662.96 946.78 623.52
00010209 00000081 583.22 167.42 432.62 639.84 709.52 441.58 906.42 390.94 858.69 536.52 793.21 665.30 954.85 623.97
00010210 00000082 590.13 170.23 430.43 637.03 716.71 442.96 911.81 392.71 863.83 540.24 798.90 665.71 958.75 624.31
00010211 00000083 594.46 165.55 428.40 639.15 722.37 443.19 916.44 393.18 868.66 540.98 801.76 664.88 960.16 623.74
00010212 00000084 596.77 167.62 428.02 637.46 727.87 442.17 919.44 394.73 872.04 541.74 803.55 663.19 960.21 624.13
00010213 00000085 601.25 181.65 431.34 624.18 738.31 437.20 928.63 392.33 877.78 532.68 814.52 662.05 959.80 621.68
00010214 00000086 603.91 185.26 432.24 609.93 741.89 437.01 934.37 392.44 883.09 534.64 817.12 657.64 967.09 616.99
00010215 00000087 606.95 183.05 431.84 606.24 746.35 440.56 935.27 392.70 886.90 534.56 821.98 655.19 969.81 612.07
00010216 00000088 609.92 182.75 427.92 605.86 751.37 443.79 935.53 394.08 891.13 531.81 826.91 655.55 971.61 610.82
00010217 00000089 611.81 186.18 424.91 613.17 752.68 440.91 937.44 394.43 893.00 530.97 827.14 660.10 970.67 618.07
00010218 00000090 617.03 181.62 418.30 620.73 755.74 440.34 939.00 395.68 893.80 530.79 830.52 661.00 970.37 620.44
00010219 00000091 617.63 171.56 418.12 625.72 761.76 441.58 943.51 395.70 901.11 529.56 833.51 659.28 971.82 617.71
00010220 00000092 621.15 178.10 415.77 615.62 766.28 439.97 947.88 396.31 906.71 527.86 836.27 657.02 973.70 617.13
00010221 00000093 623.57 175.78 413.83 618.72 770.82 440.78 950.61 397.32 910.93 525.48 840.17 657.80 976.19 617.87
00010222 00000094 622.94 172.67 412.73 626.81 774.01 439.38 955.70 398.93 917.47 520.27 847.07 661.17 981.04 623.58
00010223 00000095 624.34 175.29 415.99 622.37 775.60 440.12 963.20 398.27 921.60 523.21 849.73 663.23 987.40 624.01
00010224 00000096 622.28 177.86 420.40 628.99 775.53 439.23 964.94 399.56 922.21 525.13 850.47 667.86 988.96 630.95
00010225 00000097 621.03 176.40 423.18 639.12 771.13 439.05 964.67 401.04 919.92 529.10 843.20 672.15 988.47 636.77
00010226 00000098 620.04 181.48 422.38 626.89 771.22 437.85 966.42 403.63 919.89 532.75 840.01 668.75 985.95 636.37
00010227 00000099 617.97 180.57 423.96 627.10 769.21 437.63 961.57 399.46 915.92 534.00 837.93 666.95 985.04 631.19
00010228 00000100 616.41 180.34 421.82 627.62 770.08 442.85 958.18 408.46 912.42 539.19 834.38 665.24 980.02 634.48
00010229 00000101 615.29 172.70 422.99 640.97 765.27 449.23 950.91 409.40 907.90 536.46 832.30 667.54 977.08 632.65
00010230 00000102 614.82 177.28 422.54 640.99 762.23 446.91 947.84 405.83 906.05 534.60 830.59 668.33 975.72 632.21
00010231 00000103 616.59 176.19 416.98 636.43 759.88 442.62 947.63 405.49 902.12 535.98 830.32 669.10 971.38 635.64
00010232 00000104 612.64 175.23 421.40 639.06 755.39 436.18 945.21 397.91 897.32 534.12 826.85 667.49 969.39 632.06
00010233 00000105 608.61 183.90 424.39 636.86 747.38 430.73 941.20 391.64 891.65 533.95 820.95 668.22 970.62 631.62
00010234 00000106 596.67 186.14 433.48 640.07 740.69 428.35 938.38 390.94 887.83 535.03 817.54 669.13 968.39 633.86
00010235 00000107 593.08 182.66 434.58 644.58 736.34 428.17 932.51 392.14 881.14 533.07 813.45 667.96 961.74 633.87
00010236 00000108 591.27 186.95 429.02 638.75 731.97 423.83 928.48 390.67 876.78 532.70 810.16 668.34 955.60 637.29
00010237 00000109 588.69 179.24 425.97 646.91 727.48 427.36 923.36 396.49 869.60 534.36 801.05 670.20 947.75 641.19
00010238 00000110 585.74 187.80 426.51 641.37 719.07 434.30 921.58 404.58 859.94 544.55 789.37 674.53 943.12 646.94
00010239 00000111 582.05 191.98 426.01 647.76 712.11 447.91 917.94 421.99 849.57 566.97 777.13 687.02 933.74 663.62
00010240 00000112 576.49 201.01 429.75 656.30 704.49 471.10 907.09 444.38 841.33 596.05 764.42 702.36 926.48 680.23
00010241 00000113 567.65 222.49 438.85 649.72 698.93 489.93 905.75 463.01 837.58 620.72 754.17 723.53 919.94 703.18
00010242 00000114 561.49 218.12 446.16 666.25 692.95 500.19 906.62 477.18 832.70 636.73 745.19 734.49 914.49 717.18
00010243 00000115 560.50 223.69 446.51 660.25 692.22 502.37 904.05 479.72 828.93 643.19 745.79 734.98 909.90 718.17
00010244 00000116 550.47 228.88 446.97 646.64 686.83 496.94 894.94 461.75 823.87 641.67 749.86 738.11 909.53 706.71
00010245 00000117 544.61 227.44 447.20 642.29 677.25 485.09 885.45 444.42 817.92 632.90 747.93 733.46 907.65 697.36
00010246 00000118 537.80 222.15 450.66 646.39 670.59 476.32 871.77 438.66 804.03 613.59 741.88 723.92 894.15 690.99
00010247 00000119 535.55 204.87 446.81 647.51 668.33 466.61 864.74 433.01 800.67 599.11 734.95 706.40 885.66 677.18
00010248 00000120 534.10 188.92 448.24 658.23 663.97 458.97 864.51 423.88 798.78 582.38 731.55 696.47 883.76 665.24
00010249 00000121 537.83 190.31 449.49 651.17 666.67 454.02 871.84 417.76 805.24 575.50 736.15 694.82 890.30 662.70
00010250 00000122 544.98 188.97 445.44 640.25 672.22 456.71 879.12 423.98 808.72 568.91 730.17 679.60 899.66 651.18
00010251 00000123 548.97 182.28 444.34 640.53 678.65 452.96 879.78 415.56 813.14 558.37 738.69 673.28 904.51 641.42
00010252 00000124 553.68 178.06 437.28 631.84 681.68 446.63 880.34 407.74 815.52 563.44 743.16 670.89 899.41 637.33
00010253 00000125 557.07 174.90 436.43 624.09 687.41 442.47 880.95 400.77 818.09 552.05 752.02 664.74 903.13 628.91
00010254 00000126 556.13 185.60 444.27 598.82 688.40 429.16 885.34 384.59 821.17 536.82 755.85 651.15 907.01 611.64
00010255 00000127 553.81 173.04 446.69 616.60 690.31 426.39 885.97 385.49 821.79 525.64 754.53 651.78 901.76 615.53
00010256 00000128 554.95 172.75 442.81 616.76 685.19 424.66 889.48 380.18 820.76 525.49 751.31 652.16 910.29 611.98
00010257 00000129 553.12 175.50 440.24 615.76 681.39 424.02 886.63 380.46 817.47 525.96 744.75 649.34 910.83 609.86
00010258 00000130 549.32 178.22 439.48 613.24 677.92 420.81 883.49 377.51 813.82 523.88 742.68 648.70 906.69 609.39
00010259 00000131 544.32 172.93 445.66 629.13 677.09 422.82 877.33 379.72 812.60 519.28 748.14 659.06 897.84 620.19
00010260 00000132 542.87 170.26 441.42 626.92 673.94 423.80 875.24 380.28 810.17 519.87 742.23 655.87 898.82 616.58
00010261 00000133 539.49 164.84 434.92 621.16 666.89 423.41 867.00 382.48 803.66 525.04 729.83 645.01 893.95 609.99
00010262 00000134 533.73 166.20 435.56 611.74 659.72 421.18 862.12 380.74 796.61 522.44 726.13 641.09 892.01 606.52
00010263 00000135 529.07 165.79 434.42 606.85 647.49 418.88 851.06 378.21 781.44 519.18 718.54 637.01 885.25 602.42
00010264 00000136 519.97 164.49 433.80 606.91 637.22 420.24 843.48 382.06 769.55 523.00 704.92 635.84 875.20 604.49
00010265 00000137 508.83 165.45 435.91 607.83 629.08 425.21 832.65 386.96 760.57 525.23 694.12 636.22 861.63 606.33
00010266 00000138 497.52 169.67 443.14 618.76 614.90 429.01 818.15 390.20 744.97 532.89 681.37 640.95 852.70 609.39
00010267 00000139 487.54 162.90 444.73 643.86 609.03 434.99 809.97 400.42 740.84 544.44 672.21 655.84 835.09 628.83
00010268 00000140 469.28 187.28 461.54 635.60 600.91 449.08 801.09 405.54 732.94 553.83 672.62 678.24 824.40 639.92
00010269 00000141 465.80 195.10 459.78 640.27 591.21 466.49 802.07 423.10 730.70 582.72 661.24 696.58 829.17 659.44
00010270 00000142 464.14 216.26 461.00 641.96 594.56 479.20 796.76 436.23 728.39 608.74 670.28 717.77 822.12 681.01
00010271 00000143 465.51 219.09 462.15 657.15 597.23 494.86 801.12 456.51 732.83 631.52 670.46 735.05 822.08 702.05
00010272 00000144 480.83 213.12 455.11 672.89 600.70 506.28 813.05 475.74 732.33 647.55 663.96 734.68 830.07 711.38
00010273 00000145 479.19 220.77 462.48 676.28 600.63 510.49 817.01 478.57 734.22 655.29 664.31 743.14 835.13 718.17
00010274 00000146 477.88 219.23 466.88 665.06 598.95 511.20 819.43 476.09 735.67 650.45 662.46 735.22 844.86 707.23
00010275 00000147 483.69 207.96 461.04 672.78 603.76 506.79 822.64 472.38 738.98 645.31 662.49 729.60 847.39 702.04
00010276 00000148 473.16 212.08 460.15 662.66 608.37 503.97 812.86 461.11 745.97 637.35 671.04 728.83 837.56 692.58
00010277 00000149 487.00 213.48 453.69 642.10 612.83 499.21 823.88 455.34 748.25 625.21 675.58 718.04 844.61 682.58
00010278 00000150 495.73 203.71 448.08 637.68 610.93 489.18 825.25 448.96 745.40 609.84 673.95 703.80 844.35 671.57
00010279 00000151 495.58 201.55 452.64 642.20 615.54 477.96 828.90 439.92 748.74 597.95 673.19 694.25 847.24 664.15
00010280 00000152 511.93 198.04 445.91 649.25 627.65 466.14 835.65 433.90 755.88 587.40 689.42 694.36 853.87 668.65
00010281 00000153 518.51 192.66 448.73 644.83 641.37 460.99 843.26 429.46 771.18 581.15 703.85 685.27 863.06 658.46
00010282 DELETE   526.08 202.94 448.59 618.97 648.55 446.76 855.18 413.08 781.12 567.33 710.78 672.56 877.21 642.93
00010283 00000155 535.95 199.65 445.07 603.81 660.27 444.56 864.19 410.91 791.35 558.12 721.89 663.87 885.52 633.68
00010284 00000156 540.51 170.66 435.45 628.17 672.16 448.08 862.44 412.78 800.34 552.73 727.86 657.70 883.81 627.63
00010285 00000157 544.52 185.65 440.89 620.60 678.74 439.92 868.92 400.49 808.99 539.21 744.69 665.11 889.09 631.51
00010286 00000158 549.90 186.76 442.11 602.67 686.30 439.67 875.90 399.79 815.62 532.27 756.27 659.97 897.11 624.29
00010287 00000159 553.04 182.59 442.45 596.83 691.39 427.69 880.86 388.37 819.17 528.54 754.40 644.36 898.76 608.92
00010288 00000160 558.93 176.19 436.66 603.24 690.96 422.59 881.27 389.87 815.08 531.41 744.60 634.26 899.85 606.17
00010289 00000161 556.59 179.78 443.20 592.02 698.43 420.34 883.59 384.06 821.77 519.53 752.03 627.88 900.92 595.16
00010290 00000162 564.43 170.31 439.12 599.19 698.22 416.98 889.72 387.40 822.03 521.99 747.55 620.45 907.95 594.83
00010291 00000163 575.40 166.18 430.72 604.88 706.77 417.47 897.61 394.44 826.35 521.44 762.06 626.04 907.95 608.12
00010292 00000164 582.36 165.30 425.89 614.57 713.31 417.11 904.79 397.32 835.93 526.82 769.85 633.71 917.26 618.49
00010293 00000165 583.17 174.98 429.42 605.00 713.74 418.12 910.54 397.21 839.57 532.53 768.17 634.93 924.04 618.94
00010294 00000166 586.84 176.41 430.60 605.70 715.10 418.75 913.63 397.62 843.07 535.50 772.44 637.24 929.05 620.97
00010295 00000167 588.85 179.85 429.84 606.43 719.55 421.93 915.85 399.66 847.26 540.45 776.73 639.77 932.58 622.26
00010296 00000168 587.85 177.83 429.66 602.13 721.12 425.49 922.90 403.95 851.33 545.55 775.37 640.59 934.88 623.42
00010297 00000169 589.33 190.40 425.60 571.28 725.85 426.90 923.40 408.46 851.89 541.42 778.83 634.02 926.99 619.98
