Video ID: 	KCsvolBxsnE
H: 	1080
W: 	1920
FPS: 	25.0

FRAME INDEX X0 Y0 W H [Landmarks (5 Points)]

00009645 00000000 217.15 104.86 508.18 748.54 485.54 372.82 673.10 370.01 677.39 507.37 528.51 667.13 680.51 663.14
00009646 00000001 225.50 106.04 507.75 745.32 490.89 376.68 682.65 370.37 683.24 507.08 536.89 667.21 692.81 660.34
00009647 00000002 240.98 110.63 503.20 737.83 499.44 380.17 690.88 368.55 688.64 506.80 547.60 667.50 702.17 656.15
00009648 00000003 253.32 106.02 504.59 742.50 511.60 377.64 706.15 364.47 702.11 507.14 559.33 666.40 715.47 653.70
00009649 00000004 265.79 111.92 498.99 732.82 520.56 380.88 716.78 368.49 710.92 501.64 573.61 666.64 728.18 654.76
00009650 00000005 275.13 113.69 504.08 731.57 530.52 379.44 724.73 371.51 717.47 499.91 583.67 666.99 732.37 660.23
00009651 00000006 288.08 105.73 506.15 753.92 550.33 369.54 738.87 370.53 737.24 506.43 587.04 666.73 741.09 665.99
00009652 DELETE   304.06 109.15 503.55 751.34 572.30 379.50 759.89 383.41 755.60 512.48 602.63 669.27 756.24 671.48
00009653 DELETE   316.16 115.96 506.36 744.86 578.95 382.07 770.27 380.16 765.75 509.45 609.40 668.15 769.87 665.33
00009654 00000009 331.59 119.79 497.91 737.46 587.03 379.36 780.24 377.01 769.23 504.40 623.80 665.68 779.18 662.47
00009655 00000010 344.88 117.62 499.29 736.63 600.53 380.09 791.74 373.28 782.15 504.35 642.69 665.21 795.37 659.04
00009656 00000011 361.61 121.33 498.44 725.24 614.38 381.00 806.42 371.30 800.68 504.04 660.81 665.15 811.57 657.10
00009657 00000012 372.10 107.29 499.32 743.53 633.86 372.10 818.54 364.12 819.61 503.31 686.87 663.51 834.26 654.66
00009658 00000013 389.84 109.19 497.00 740.94 643.34 376.23 832.94 361.76 831.86 502.09 703.92 667.72 852.57 653.51
00009659 00000014 402.55 116.88 496.43 733.13 652.01 383.30 843.42 366.51 834.17 508.19 712.64 669.68 857.48 653.08
00009660 00000015 413.78 116.76 491.87 735.75 663.68 387.27 854.69 372.33 846.73 510.76 722.69 672.96 869.33 658.75
00009661 00000016 427.36 122.93 490.69 727.79 672.54 389.79 863.92 371.04 854.50 513.90 728.61 673.19 878.99 656.62
00009662 00000017 433.16 110.02 498.43 743.06 687.06 381.97 871.15 367.06 871.40 513.91 742.61 671.26 889.99 656.74
00009663 00000018 445.56 110.02 493.62 741.27 701.40 377.88 883.84 366.13 883.90 508.60 756.30 667.33 902.05 655.52
00009664 00000019 455.41 107.75 492.09 744.96 706.75 377.63 892.23 361.43 893.47 504.85 767.88 669.68 915.12 654.10
00009665 00000020 466.71 109.57 490.16 743.89 712.78 379.86 898.34 361.44 900.44 504.05 780.21 673.03 922.40 655.82
00009666 00000021 470.26 107.65 493.94 746.08 718.91 379.24 905.51 359.67 908.06 505.21 786.39 672.16 929.88 654.08
00009667 00000022 481.05 114.25 488.51 733.61 724.96 382.68 909.84 357.86 909.81 503.34 792.83 670.46 934.75 647.88
00009668 00000023 487.99 118.33 487.61 725.76 728.46 382.13 916.75 359.64 914.40 500.90 794.88 668.34 940.72 647.97
00009669 00000024 491.34 117.26 488.63 724.21 732.34 380.30 919.29 357.85 920.44 493.84 796.22 663.50 943.50 643.70
00009670 00000025 493.92 121.41 485.85 705.14 735.73 379.47 918.02 352.59 925.71 484.23 801.97 656.43 947.15 632.96
00009671 00000026 492.21 117.61 489.47 705.14 735.26 378.60 914.98 345.27 926.03 477.64 803.05 650.27 948.84 621.63
00009672 00000027 483.43 103.56 499.39 711.24 726.76 369.84 914.69 336.94 922.56 475.41 797.08 643.55 951.38 615.34
00009673 00000028 480.58 97.84 503.35 709.64 724.18 369.16 912.55 329.02 923.25 472.44 800.09 639.56 952.82 605.50
00009674 00000029 478.89 97.92 505.60 724.18 724.01 370.97 906.52 329.30 925.32 472.87 807.26 648.70 955.40 613.62
00009675 00000030 479.22 106.14 502.02 727.09 726.33 376.59 903.42 338.67 926.81 478.81 816.84 659.00 957.58 626.82
00009676 00000031 484.95 121.04 492.51 713.68 725.76 391.05 894.33 340.84 921.01 483.42 817.43 668.76 954.41 626.41
00009677 00000032 480.55 121.13 495.84 715.81 721.43 395.54 890.45 338.80 915.91 487.41 812.26 670.71 952.36 622.47
00009678 00000033 472.54 126.77 497.42 707.95 714.30 399.60 882.90 336.79 908.25 492.18 806.12 674.68 946.44 621.26
00009679 00000034 465.22 120.22 501.14 715.92 705.64 404.35 869.67 334.03 902.75 489.06 806.43 677.30 944.30 618.26
00009680 00000035 456.84 123.04 499.96 715.17 690.71 404.19 854.44 330.26 892.42 484.50 803.20 679.85 940.59 617.80
00009681 00000036 440.87 118.62 506.28 734.14 675.33 391.03 843.52 333.05 886.95 471.20 791.44 671.25 931.56 623.04
00009682 00000037 427.37 122.40 520.24 725.88 665.31 406.46 831.28 328.49 876.17 475.92 781.26 676.32 923.31 610.59
00009683 00000038 423.17 122.43 523.41 713.58 659.38 411.25 831.08 326.14 868.89 477.14 774.06 676.60 918.89 604.99
00009684 00000039 417.52 119.46 527.51 714.05 653.05 417.32 828.85 323.79 865.49 480.33 771.48 677.05 918.92 598.52
00009685 00000040 410.13 116.65 530.00 721.17 647.73 421.39 822.18 328.01 860.49 485.21 771.38 683.55 915.07 605.50
00009686 00000041 404.14 126.60 528.76 716.00 635.83 428.94 811.27 331.18 846.33 492.01 761.28 690.74 905.57 608.89
00009687 00000042 402.68 130.57 520.37 715.47 626.54 430.61 804.64 332.40 834.81 494.46 750.21 693.91 898.75 611.41
00009688 00000043 393.57 132.08 521.32 712.71 615.03 430.19 795.96 330.33 822.31 494.83 735.01 694.45 889.82 610.12
00009689 00000044 377.77 134.02 528.67 710.50 600.13 432.75 780.75 328.94 807.32 492.70 721.42 694.51 879.17 606.40
00009690 DELETE   364.94 129.39 530.09 718.80 581.66 432.99 764.94 328.88 791.74 490.10 710.83 695.64 871.22 606.39
00009691 00000046 358.89 116.11 526.77 730.63 567.02 430.29 753.70 339.52 782.59 489.06 702.61 685.56 860.94 609.11
00009692 00000047 351.23 115.21 528.99 732.82 559.46 431.10 743.10 340.74 771.44 491.32 693.99 685.83 852.75 608.97
00009693 00000048 346.48 116.53 531.27 738.77 550.93 434.00 739.13 341.93 764.23 497.88 684.27 690.51 852.64 611.84
00009694 00000049 345.15 117.02 532.63 744.66 549.91 439.85 736.70 346.61 762.94 504.89 683.58 695.90 852.28 616.20
00009695 00000050 348.77 122.83 528.15 738.60 551.93 444.16 740.44 353.07 761.72 515.86 685.32 699.48 851.23 621.66
00009696 00000051 349.93 125.85 524.79 733.76 553.20 449.10 740.81 357.47 760.78 521.73 686.10 700.86 850.45 622.60
00009697 00000052 342.44 136.04 535.43 717.13 557.13 454.89 748.54 347.14 764.19 512.12 683.88 707.87 840.05 617.05
00009698 00000053 336.11 135.51 534.70 713.88 551.65 454.98 740.78 346.89 756.40 511.50 678.33 706.12 833.32 614.99
00009699 00000054 330.45 133.25 535.35 713.29 537.90 451.75 728.96 341.40 740.89 504.81 671.65 703.27 827.90 609.93
00009700 00000055 320.60 131.02 538.57 713.26 524.74 455.60 714.39 337.16 726.02 501.94 661.30 702.41 819.35 602.26
00009701 00000056 312.99 128.89 538.72 715.79 510.10 452.48 698.12 351.64 706.15 508.94 654.46 692.67 807.77 608.24
00009702 00000057 302.78 132.85 543.89 713.59 499.14 458.02 689.86 353.34 698.01 512.33 647.32 694.27 802.97 606.35
00009703 00000058 298.19 130.79 545.53 723.75 494.09 458.55 687.95 352.78 696.46 517.64 646.80 700.89 804.74 611.74
00009704 00000059 297.60 132.10 544.78 727.69 491.86 456.21 687.32 354.51 694.75 519.06 642.31 703.46 801.97 618.03
00009705 00000060 298.30 128.67 543.54 728.12 490.47 452.52 686.99 352.53 692.20 514.70 639.92 701.40 799.84 617.43
00009706 00000061 299.80 125.46 541.02 730.20 491.25 448.51 687.01 349.86 692.34 507.83 640.02 699.41 798.40 616.76
00009707 00000062 302.77 123.53 537.47 726.18 493.25 446.73 690.20 347.75 693.94 507.95 638.85 696.32 799.27 613.95
00009708 00000063 303.08 123.17 538.13 726.58 493.88 443.69 689.62 346.63 695.24 506.20 641.69 696.32 799.58 615.72
00009709 00000064 300.02 126.99 538.23 738.68 491.60 445.34 688.30 352.64 693.03 511.88 637.07 704.88 795.41 627.89
00009710 00000065 298.85 128.96 537.31 736.70 489.58 451.79 687.25 356.94 690.21 526.16 632.20 705.08 795.27 625.14
00009711 00000066 297.79 136.37 539.86 742.47 492.66 458.47 690.74 366.09 693.39 535.93 631.59 712.89 795.10 635.42
00009712 00000067 304.56 150.37 536.70 736.87 498.61 463.99 697.32 373.94 697.79 542.22 635.83 718.86 798.01 643.73
00009713 00000068 312.61 152.58 534.26 736.90 507.47 461.50 702.80 373.94 702.56 539.37 642.96 719.09 800.38 645.95
00009714 00000069 325.04 146.40 529.72 733.28 518.95 453.43 711.99 364.42 713.14 525.53 656.01 713.56 808.66 639.24
00009715 00000070 328.25 139.84 530.35 717.20 531.07 444.51 720.06 354.74 728.36 511.69 670.23 702.78 814.13 628.22
00009716 00000071 332.67 128.05 536.21 710.45 540.04 448.47 727.62 334.94 741.78 497.08 682.63 698.36 832.94 602.41
00009717 00000072 333.96 125.46 541.38 710.08 547.39 443.71 728.30 328.16 751.80 488.11 692.12 691.74 840.41 594.25
00009718 00000073 333.46 115.08 544.07 720.89 551.74 441.81 729.89 327.72 758.57 479.51 696.30 686.64 843.66 590.64
00009719 00000074 331.10 107.01 543.93 732.34 543.63 430.91 721.51 320.24 752.35 465.37 690.95 682.09 842.50 588.72
00009720 00000075 321.28 103.40 541.59 729.58 534.81 413.96 718.06 326.57 737.96 457.19 667.97 668.77 819.65 596.53
00009721 00000076 311.38 105.60 541.11 722.63 519.04 414.59 711.41 326.63 725.31 457.95 649.75 666.50 812.51 593.10
00009722 00000077 301.69 104.16 540.13 712.42 504.38 411.26 700.21 326.13 705.61 456.21 635.67 662.98 798.24 591.51
00009723 00000078 301.60 101.33 535.48 711.19 503.08 409.20 697.52 325.48 703.44 457.15 633.56 660.57 794.48 590.16
00009724 00000079 299.69 100.14 538.43 713.09 503.92 409.39 699.80 323.92 706.97 454.45 635.35 659.81 798.19 587.87
00009725 00000080 300.84 104.50 540.44 708.10 508.76 410.64 703.89 324.06 712.29 456.53 638.05 659.77 800.35 587.13
00009726 00000081 302.01 105.03 538.76 707.35 510.05 413.71 702.10 323.57 714.39 457.14 636.59 658.76 800.11 583.60
00009727 00000082 302.41 107.75 537.17 707.66 511.04 414.51 703.73 324.40 714.34 460.98 628.82 657.29 796.33 582.37
00009728 00000083 306.13 107.22 531.32 726.69 510.15 408.53 703.30 322.96 715.15 464.55 623.71 662.86 794.27 591.41
00009729 00000084 306.70 109.82 526.71 723.11 510.53 406.05 704.65 323.16 716.10 467.92 614.55 660.05 790.53 591.04
00009730 00000085 302.97 107.07 527.43 715.78 507.31 405.07 702.52 321.51 713.07 464.97 612.48 656.79 788.48 587.10
00009731 00000086 299.91 101.36 526.72 711.66 504.91 402.74 702.43 319.14 709.61 463.39 611.36 653.82 786.70 583.78
00009732 00000087 295.66 95.13 526.71 713.88 502.17 401.49 699.62 316.95 708.53 461.29 610.66 651.85 784.27 580.69
00009733 00000088 290.70 92.10 526.79 718.72 499.12 400.53 696.51 315.94 707.65 462.30 609.51 652.84 782.84 581.23
00009734 00000089 285.73 92.36 525.26 728.18 497.19 399.51 692.46 319.18 707.77 465.31 606.39 655.57 779.51 587.18
00009735 00000090 282.04 90.89 522.23 731.62 496.58 400.44 690.13 323.20 708.13 471.37 604.80 658.47 775.01 592.41
00009736 00000091 275.97 108.19 526.32 717.65 504.53 412.41 691.71 325.59 712.86 473.49 611.94 667.88 770.34 594.09
00009737 00000092 272.82 108.83 521.80 718.40 501.67 414.50 685.21 324.85 708.47 474.74 607.61 666.87 766.54 590.65
00009738 00000093 266.31 100.72 523.08 722.42 491.54 399.07 682.48 327.53 696.62 471.08 597.93 659.96 755.49 600.58
00009739 00000094 261.39 101.85 523.52 730.36 488.01 396.79 674.32 332.43 692.02 469.52 600.52 663.32 752.66 610.04
00009740 00000095 257.11 102.32 522.70 736.14 484.64 392.97 668.29 332.22 689.29 469.04 596.97 665.92 746.24 615.76
00009741 00000096 251.13 105.89 521.30 739.00 480.18 392.85 663.12 337.29 681.94 470.47 587.98 667.81 738.41 622.04
00009742 00000097 246.17 107.27 520.37 735.77 476.78 394.52 659.35 334.22 682.32 472.42 581.07 667.54 734.89 618.16
00009743 00000098 245.08 120.43 510.45 720.57 471.47 409.56 647.51 326.43 674.03 480.90 577.10 680.13 731.08 609.36
00009744 00000099 238.96 120.49 512.92 723.87 467.59 409.23 644.08 327.58 671.54 483.14 574.70 682.92 726.75 613.02
00009745 00000100 234.13 124.40 514.95 721.43 463.01 409.23 639.41 328.48 668.99 482.21 575.18 683.31 727.20 613.96
00009746 00000101 229.80 123.48 515.98 725.74 459.63 407.66 632.39 327.10 667.32 479.69 573.76 682.25 723.52 613.08
00009747 00000102 221.88 115.19 521.36 737.87 458.46 394.25 634.53 330.44 674.84 471.83 574.77 671.17 723.66 618.33
00009748 00000103 218.72 116.04 519.65 738.67 458.20 394.65 630.17 332.25 675.10 474.72 575.83 674.02 718.72 622.32
00009749 00000104 218.32 129.47 512.16 724.90 454.27 403.02 621.67 328.79 668.68 483.20 571.41 683.94 713.80 620.53
00009750 00000105 218.51 128.36 511.36 725.78 455.72 402.51 619.67 328.40 670.79 482.83 572.58 683.91 712.76 620.98
00009751 00000106 216.83 127.25 510.01 726.25 457.01 401.31 617.28 328.55 673.19 481.98 573.23 682.57 710.31 620.97
00009752 00000107 215.92 127.39 509.07 725.51 456.55 402.12 615.44 329.78 672.32 482.98 572.77 682.70 708.22 621.48
00009753 00000108 204.93 110.77 526.37 740.62 461.93 406.12 618.61 332.61 676.66 485.64 579.23 683.42 705.93 623.19
00009754 00000109 200.96 108.20 526.41 741.34 462.37 407.47 616.74 334.31 677.37 487.13 577.85 683.66 701.89 624.17
00009755 00000110 197.74 108.75 526.48 739.65 460.41 408.39 615.63 332.98 675.54 486.48 575.66 683.16 701.06 621.58
00009756 00000111 194.59 106.42 523.14 744.01 457.45 406.48 609.86 333.25 671.49 487.26 570.49 683.16 693.64 623.63
00009757 00000112 190.49 106.71 521.87 745.94 452.03 405.90 605.21 334.44 661.75 489.73 559.52 683.31 684.28 625.17
00009758 00000113 182.29 106.58 525.51 744.42 450.44 406.24 598.41 333.67 656.62 490.28 556.23 682.30 677.07 623.50
00009759 00000114 176.39 108.80 523.04 739.13 445.53 406.09 586.34 332.84 648.69 487.25 551.69 678.73 669.06 619.40
00009760 00000115 168.79 107.82 523.67 742.10 441.14 405.57 577.22 331.66 646.30 485.79 547.42 678.32 663.88 618.34
00009761 00000116 163.64 108.94 523.16 739.90 434.26 404.31 570.02 328.64 642.20 485.65 543.97 678.45 660.86 616.86
00009762 00000117 158.63 109.03 524.11 738.67 430.09 403.87 563.41 326.61 636.95 484.72 541.88 678.20 658.29 615.16
00009763 00000118 151.85 106.59 526.17 738.00 427.15 403.22 556.38 325.02 632.25 484.01 540.44 677.51 652.51 613.58
00009764 00000119 149.74 103.96 526.27 740.25 421.88 404.49 549.66 324.14 628.10 484.30 537.73 678.42 650.49 612.79
00009765 00000120 145.07 103.84 524.33 741.61 417.77 401.37 545.31 325.01 625.15 483.96 534.81 678.78 646.61 616.43
00009766 00000121 140.70 104.67 522.05 741.39 412.87 401.02 541.00 326.28 622.23 486.47 531.42 680.73 641.44 619.68
00009767 00000122 139.23 104.00 526.54 744.97 409.03 393.74 544.22 330.76 622.86 478.83 531.76 674.49 639.15 624.20
00009768 00000123 137.19 110.53 521.89 739.94 408.97 400.94 533.94 329.67 617.86 485.66 527.79 680.28 635.30 621.82
00009769 00000124 125.40 109.67 536.72 732.48 408.65 411.01 539.81 335.18 621.70 484.61 524.71 675.20 631.69 615.05
00009770 00000125 123.06 107.47 534.03 733.54 408.54 410.40 540.25 334.25 621.55 488.41 520.57 676.20 627.97 615.77
00009771 00000126 123.08 111.58 529.61 729.93 403.47 409.69 539.88 331.61 617.58 488.73 515.04 677.34 627.46 614.77
00009772 00000127 124.15 113.17 525.91 732.43 400.73 409.26 538.18 333.01 614.98 488.25 511.70 677.97 625.52 616.91
00009773 00000128 123.78 113.01 527.23 731.31 399.40 409.77 540.17 332.88 612.65 487.43 511.98 677.81 629.15 616.12
00009774 00000129 123.07 112.82 527.75 732.08 399.14 407.76 535.90 335.31 610.78 488.77 513.90 679.13 625.39 621.62
00009775 00000130 123.05 112.37 528.36 733.62 401.62 405.85 535.90 339.94 610.73 488.83 517.33 678.86 624.83 626.91
00009776 00000131 125.45 109.68 531.23 740.36 403.47 406.59 536.36 340.73 612.85 486.50 526.60 680.19 631.17 628.32
00009777 00000132 127.45 112.80 534.09 738.30 406.05 407.46 540.01 340.46 618.24 484.85 532.71 680.69 637.71 627.75
00009778 00000133 135.22 110.65 520.71 741.65 404.91 397.46 535.68 333.19 612.57 487.77 526.32 681.58 637.13 628.91
00009779 00000134 140.85 112.96 521.04 746.81 407.09 394.30 537.65 332.82 613.47 485.21 525.52 682.58 636.16 632.32
00009780 00000135 142.44 115.37 519.61 750.01 405.99 394.71 536.07 334.56 613.72 486.28 521.43 683.61 634.39 634.18
00009781 00000136 141.61 116.56 514.16 750.66 405.51 394.34 536.62 335.84 613.04 488.01 510.39 684.06 624.44 635.69
00009782 00000137 139.80 121.55 515.06 739.99 403.73 396.55 538.63 335.28 610.96 488.40 507.24 682.38 624.31 631.60
00009783 00000138 133.97 118.96 517.07 735.71 405.44 400.45 538.20 335.16 612.61 490.41 505.77 681.26 621.96 627.07
00009784 00000139 124.58 111.85 532.64 734.20 405.95 407.21 548.79 337.23 619.33 487.82 511.73 677.28 629.01 621.10
00009785 00000140 125.54 112.40 534.38 730.38 405.04 407.79 548.12 334.49 619.27 485.16 514.99 676.02 633.17 617.05
00009786 00000141 136.64 119.82 518.32 723.40 401.28 404.27 542.21 327.80 610.32 487.57 507.58 679.17 632.11 615.35
00009787 00000142 141.61 127.21 521.73 715.02 402.15 407.71 547.58 325.93 609.85 487.52 511.55 679.44 640.47 611.12
00009788 00000143 148.47 121.20 518.15 719.74 407.00 409.23 552.07 323.14 614.88 487.11 514.88 678.78 645.04 607.01
00009789 00000144 153.15 119.88 521.03 722.12 414.56 408.01 557.54 324.32 621.23 485.01 522.58 677.31 651.67 607.65
00009790 00000145 162.76 117.19 519.07 726.17 420.56 409.85 568.31 326.68 629.60 485.25 528.18 677.43 660.63 608.05
00009791 00000146 169.57 115.34 519.66 727.80 427.48 409.30 579.91 329.68 635.68 484.06 533.43 676.81 667.37 610.72
00009792 00000147 177.47 119.30 520.73 723.94 434.12 408.43 588.85 330.23 639.51 481.65 538.71 675.72 674.01 611.03
00009793 00000148 181.32 112.94 528.82 730.28 442.21 411.07 599.10 330.72 651.88 481.67 552.28 676.76 686.52 610.41
00009794 00000149 188.24 114.21 529.94 729.29 447.61 411.64 608.52 332.25 659.98 484.14 559.17 678.65 694.14 613.01
00009795 00000150 194.55 116.44 527.64 728.17 452.10 413.06 616.18 333.99 664.41 488.19 562.25 681.00 698.83 615.30
00009796 00000151 199.70 120.88 529.03 725.32 459.15 415.64 627.52 335.28 672.14 492.21 565.93 685.26 703.56 618.57
00009797 00000152 213.89 134.50 516.90 713.38 459.15 414.89 629.25 335.54 668.38 492.71 563.56 685.46 711.78 617.79
00009798 00000153 221.45 132.79 523.81 720.69 465.56 414.99 636.24 335.47 675.04 490.82 573.35 685.59 723.69 618.05
00009799 00000154 233.46 129.94 524.91 728.55 475.82 413.30 650.63 336.13 684.64 494.15 584.78 689.88 735.42 624.58
00009800 00000155 242.92 127.27 527.28 738.00 488.73 414.66 664.54 342.32 696.37 500.27 597.05 693.81 744.81 633.47
00009801 00000156 251.33 127.18 526.72 740.29 500.02 416.49 680.25 352.21 707.82 508.48 605.22 698.51 751.00 645.69
00009802 00000157 261.71 126.57 523.44 742.78 507.83 422.96 692.36 355.51 718.53 515.53 612.75 704.02 759.87 648.25
00009803 00000158 273.01 129.43 520.30 741.05 517.54 425.77 704.92 358.13 728.74 517.47 621.92 706.08 770.16 649.41
00009804 00000159 290.87 134.40 509.10 744.03 522.13 426.71 709.38 366.01 733.69 519.34 628.76 705.45 781.03 654.10
00009805 00000160 303.12 127.28 509.30 753.22 531.05 417.69 717.64 360.03 736.37 512.84 634.67 702.09 788.11 653.65
00009806 00000161 312.71 127.80 511.02 754.14 542.29 409.12 729.04 360.03 744.17 507.36 643.34 699.56 795.34 658.54
00009807 00000162 321.63 126.84 510.75 749.46 550.12 407.59 737.26 358.48 751.09 505.37 648.50 696.01 800.06 655.15
00009808 00000163 329.59 121.43 508.63 748.50 555.96 406.41 749.77 353.58 755.73 505.91 651.22 695.46 807.90 650.49
00009809 00000164 339.80 124.53 502.12 741.51 563.44 408.68 763.77 357.57 763.35 513.12 655.71 696.95 814.82 653.12
00009810 00000165 350.71 127.24 498.17 737.68 571.64 410.87 775.38 364.79 768.17 521.10 659.57 699.04 817.98 659.39
00009811 00000166 359.16 132.12 500.31 732.18 579.48 412.03 782.33 367.03 777.40 521.42 667.40 699.76 825.80 661.11
00009812 00000167 372.85 131.99 493.76 745.55 592.44 407.54 782.08 364.33 786.01 519.47 674.09 694.47 833.98 657.33
00009813 00000168 386.63 126.91 494.74 736.48 600.45 401.60 797.09 358.99 793.33 507.55 681.20 685.42 845.98 648.86
00009814 00000169 398.51 129.88 490.03 718.66 612.12 397.50 809.30 351.62 797.57 499.65 695.55 680.47 854.29 638.75
00009815 00000170 403.81 124.59 490.66 725.33 622.56 395.71 817.70 355.91 806.71 503.22 704.00 679.62 857.48 643.25
