Video ID: 	gFGKx86aJ-s
H: 	1080
W: 	1920
FPS: 	25.0

FRAME INDEX X0 Y0 W H [Landmarks (5 Points)]

00012074 00000000 860.10 111.14 362.78 516.77 912.89 354.96 1053.09 323.99 957.71 419.26 951.60 529.08 1069.04 503.68
00012075 00000001 860.82 114.39 359.63 512.72 910.52 356.61 1050.26 326.06 953.40 420.83 949.69 530.95 1066.30 506.09
00012076 00000002 854.38 108.89 358.85 517.34 900.01 355.83 1047.15 329.30 947.43 420.35 932.53 525.95 1056.61 503.77
00012077 00000003 857.99 107.33 357.55 515.81 901.32 354.93 1049.21 330.41 947.72 422.89 931.66 525.04 1055.15 504.62
00012078 00000004 863.75 105.75 353.86 518.60 905.10 352.97 1053.20 331.76 949.34 424.10 931.38 524.81 1055.96 507.06
00012079 00000005 871.24 115.51 355.61 516.66 920.57 355.73 1063.56 346.29 956.08 431.43 941.87 522.03 1058.45 515.01
00012080 DELETE   882.04 114.68 357.17 514.96 932.02 355.49 1069.39 338.40 957.73 427.06 952.95 527.59 1067.70 513.21
00012081 00000007 881.24 110.31 361.10 521.80 928.57 350.54 1082.05 337.88 974.37 423.93 948.65 526.31 1074.64 515.25
00012082 00000008 891.12 118.48 358.37 518.92 942.83 356.26 1083.15 342.62 969.77 426.40 959.86 529.34 1076.67 517.26
00012083 DELETE   891.50 119.12 361.78 516.61 943.71 350.57 1092.61 351.52 982.68 433.85 960.62 521.16 1084.05 523.55
00012084 00000010 897.69 120.71 360.64 513.53 950.80 349.44 1102.14 350.16 989.19 435.35 966.74 519.20 1092.65 521.44
00012085 00000011 901.49 118.11 360.97 513.50 954.15 350.31 1110.17 349.12 995.19 435.73 971.84 520.07 1101.03 520.57
00012086 00000012 904.51 119.55 360.94 511.81 955.63 351.33 1111.91 347.84 995.60 434.23 975.22 521.69 1103.76 520.42
00012087 00000013 906.78 119.20 360.42 513.44 958.44 352.42 1114.80 347.79 999.35 434.39 979.21 523.33 1106.74 521.31
00012088 00000014 910.43 117.47 358.90 516.82 961.99 351.51 1115.84 346.69 1001.19 436.06 983.58 524.04 1108.63 521.95
00012089 00000015 916.02 117.04 353.07 525.02 963.95 351.07 1109.97 344.39 997.68 428.13 981.30 528.59 1102.27 522.03
00012090 00000016 918.39 114.65 354.39 525.03 965.25 351.55 1112.63 342.73 1002.57 427.48 983.77 530.49 1104.99 522.31
00012091 00000017 919.56 115.92 354.16 523.40 967.33 351.01 1114.41 342.32 1005.30 427.27 985.44 530.08 1106.59 522.02
00012092 00000018 921.94 111.06 354.63 526.79 968.30 351.20 1115.76 341.60 1008.30 428.76 986.94 529.82 1108.33 521.22
00012093 00000019 923.63 110.55 353.49 526.45 970.09 351.47 1117.13 342.12 1010.41 429.93 988.69 529.20 1109.44 520.87
00012094 00000020 930.61 110.88 353.71 523.51 981.01 351.96 1119.22 342.38 1012.16 432.60 1006.37 530.80 1117.18 523.15
00012095 00000021 931.04 112.45 354.63 523.08 982.18 351.34 1120.58 342.58 1013.78 433.37 1007.36 530.12 1118.47 523.07
00012096 00000022 931.66 113.20 356.47 522.99 984.61 351.65 1122.53 343.41 1016.07 434.32 1009.34 529.55 1119.69 522.71
00012097 00000023 933.01 113.60 356.01 522.68 986.54 350.98 1124.85 342.67 1019.05 434.54 1011.00 529.36 1122.65 522.44
00012098 00000024 935.74 112.21 356.24 523.91 989.71 350.39 1128.53 342.01 1021.14 434.31 1012.94 528.97 1124.89 521.92
00012099 00000025 938.29 113.50 355.92 523.79 990.69 350.38 1129.74 341.24 1021.10 434.51 1013.73 529.93 1126.84 522.24
00012100 00000026 939.27 113.96 356.69 527.20 992.98 350.86 1131.96 340.89 1022.93 434.05 1015.32 530.80 1128.19 522.41
00012101 00000027 938.13 114.46 358.21 535.52 993.79 351.73 1134.09 339.52 1025.53 432.74 1018.77 533.99 1131.56 523.58
00012102 00000028 937.86 114.70 359.96 542.98 995.56 353.34 1136.59 338.17 1029.37 432.75 1023.89 538.63 1135.31 525.19
00012103 00000029 940.57 113.03 359.28 547.00 997.70 353.71 1140.44 337.33 1032.37 433.28 1026.48 540.94 1138.80 526.51
00012104 00000030 939.84 111.78 359.01 553.28 993.77 350.26 1141.01 344.40 1037.07 440.65 1022.33 541.24 1142.33 537.02
00012105 00000031 939.78 115.29 359.80 550.87 995.91 352.44 1143.84 343.54 1042.52 439.17 1026.91 543.66 1144.38 537.26
00012106 00000032 939.06 116.94 361.59 552.12 996.39 355.41 1144.56 343.65 1045.05 440.29 1030.68 546.21 1148.28 537.36
00012107 00000033 940.45 117.92 362.21 551.35 998.58 356.03 1144.92 343.65 1049.01 441.70 1033.81 546.55 1149.28 537.24
00012108 00000034 940.00 121.32 363.20 548.50 999.74 357.86 1145.50 346.48 1051.08 444.40 1035.07 547.53 1149.64 539.07
00012109 00000035 940.69 124.06 364.43 547.47 1001.22 362.71 1146.66 349.83 1054.42 448.54 1037.34 549.26 1152.05 539.62
00012110 00000036 943.11 123.34 363.12 548.68 1003.55 365.30 1148.80 353.99 1056.68 452.08 1039.02 548.68 1155.30 540.15
00012111 00000037 942.38 124.42 364.47 544.07 1003.03 362.47 1149.21 348.61 1057.47 448.14 1040.64 545.89 1157.63 535.33
00012112 00000038 939.59 124.71 367.22 536.87 1003.06 356.62 1151.05 345.12 1059.75 441.96 1039.92 538.70 1158.41 530.06
00012113 00000039 937.89 124.19 367.45 532.23 1002.90 354.65 1151.58 342.74 1061.12 439.82 1041.75 535.66 1161.06 526.50
00012114 00000040 935.99 125.29 366.55 529.90 1000.63 355.01 1149.20 340.62 1061.34 440.74 1043.22 536.32 1162.53 524.92
00012115 00000041 932.72 124.59 365.48 529.14 997.26 354.42 1146.31 336.79 1059.43 440.78 1042.82 536.72 1163.16 522.48
00012116 00000042 928.91 124.16 365.72 528.00 993.74 352.31 1143.35 333.42 1055.79 437.46 1039.34 535.86 1160.90 520.76
00012117 00000043 922.26 121.30 366.53 527.94 990.49 349.95 1140.59 330.48 1056.07 431.55 1036.17 532.03 1158.05 516.59
00012118 00000044 914.22 121.44 369.48 526.10 986.70 349.18 1140.06 325.59 1057.57 426.35 1037.31 532.48 1159.01 513.77
00012119 00000045 904.05 129.91 374.51 515.75 980.09 359.13 1132.73 328.06 1051.82 439.70 1030.69 534.37 1153.68 510.16
00012120 00000046 898.55 126.57 376.63 518.73 974.07 363.21 1123.67 329.00 1043.52 438.54 1024.67 534.13 1147.25 507.15
00012121 00000047 892.07 130.76 377.05 516.62 968.79 362.16 1115.61 328.65 1038.00 435.08 1018.47 532.53 1139.28 506.00
00012122 00000048 887.05 127.64 377.16 521.44 962.04 360.60 1109.56 331.00 1030.67 431.82 1010.34 530.83 1132.61 507.17
00012123 00000049 880.78 127.86 376.41 519.07 954.58 357.92 1106.40 331.28 1024.38 426.47 1000.69 528.38 1125.10 507.13
00012124 00000050 877.38 125.64 374.18 521.77 947.61 357.15 1099.50 333.12 1015.71 426.54 993.52 529.13 1116.68 510.24
00012125 00000051 875.02 126.49 373.75 523.91 943.14 359.27 1091.83 332.28 1008.63 426.01 989.40 531.21 1110.69 510.10
00012126 00000052 874.02 127.51 371.65 525.44 939.95 360.95 1086.89 334.01 1003.36 429.34 985.60 533.65 1105.68 512.64
00012127 00000053 871.50 130.16 372.75 524.20 936.60 362.77 1084.30 335.95 998.67 433.50 981.19 535.34 1102.20 514.32
00012128 00000054 870.26 128.29 371.85 526.74 933.44 362.19 1077.80 335.95 991.87 435.73 978.22 535.20 1098.16 514.37
00012129 00000055 868.83 132.84 372.22 521.28 930.64 363.79 1077.34 338.49 989.32 438.24 975.10 535.42 1096.58 515.47
00012130 00000056 869.25 131.08 371.79 521.05 931.25 363.46 1077.81 339.00 990.25 438.30 975.78 534.99 1096.40 515.80
00012131 00000057 872.61 128.24 369.73 521.99 933.57 361.27 1079.87 337.91 991.74 436.39 976.91 533.10 1098.83 514.74
00012132 00000058 874.02 125.73 369.41 524.88 935.78 360.72 1080.02 338.09 993.50 435.15 978.18 532.59 1097.78 514.85
00012133 00000059 875.37 124.18 370.46 527.35 938.35 358.91 1083.95 338.89 995.93 433.40 978.85 530.68 1099.17 515.01
00012134 00000060 876.38 126.14 370.72 525.08 940.13 359.98 1086.29 337.87 998.58 432.34 982.01 531.53 1101.99 514.29
00012135 00000061 877.46 124.44 372.42 525.75 942.01 359.53 1090.25 337.15 1002.24 429.81 983.77 530.87 1104.38 513.47
00012136 00000062 879.46 122.66 372.58 525.35 943.27 357.16 1093.15 335.86 1003.91 428.22 984.49 527.69 1107.60 510.90
00012137 00000063 881.28 121.91 372.68 521.25 944.23 355.22 1096.84 334.86 1004.81 427.57 984.15 525.36 1109.42 509.35
00012138 00000064 882.23 121.59 372.21 521.38 945.77 354.91 1098.44 334.65 1006.81 427.41 985.72 525.04 1110.78 509.10
00012139 00000065 883.44 124.48 372.57 517.98 947.83 355.20 1100.03 334.66 1008.59 429.15 987.31 524.87 1112.13 508.65
00012140 00000066 885.29 123.91 372.35 517.06 950.40 353.67 1104.23 334.61 1011.39 428.73 988.60 523.60 1114.16 508.65
00012141 00000067 886.57 122.63 372.87 517.84 952.44 353.24 1106.39 334.51 1013.66 429.75 989.90 523.40 1115.65 508.78
00012142 00000068 888.10 125.92 372.63 513.69 954.37 354.21 1108.34 334.36 1015.16 429.52 991.60 523.34 1117.37 507.85
00012143 00000069 889.81 126.53 371.59 512.81 955.83 353.86 1109.74 334.72 1016.13 430.27 992.15 522.09 1118.89 507.17
00012144 00000070 891.04 124.51 371.85 513.57 956.78 353.35 1111.30 334.72 1016.99 431.30 992.43 521.26 1120.78 506.64
00012145 00000071 891.21 123.68 372.32 513.65 956.74 353.33 1112.08 335.11 1017.87 431.69 992.91 521.11 1122.20 506.72
00012146 00000072 891.95 122.47 372.14 514.68 957.56 352.97 1112.66 334.68 1018.52 431.75 993.69 520.66 1123.01 506.19
00012147 00000073 891.75 122.75 372.31 514.71 957.74 352.86 1113.01 335.03 1019.37 432.35 993.90 520.72 1123.36 506.59
00012148 00000074 892.47 124.09 372.28 514.42 958.60 353.19 1113.54 333.99 1019.87 433.12 994.52 521.08 1123.99 505.89
00012149 00000075 892.28 125.40 371.98 514.12 958.61 353.59 1113.03 333.70 1019.58 433.57 994.76 521.52 1124.12 505.76
00012150 00000076 892.26 125.01 372.27 514.55 958.69 353.80 1113.40 333.93 1020.36 433.92 995.37 521.55 1125.45 505.75
00012151 00000077 891.77 124.65 373.18 514.78 958.94 354.44 1113.26 333.76 1021.09 434.17 996.47 522.19 1126.09 505.64
00012152 00000078 891.39 124.03 373.39 516.14 958.99 354.55 1112.80 333.58 1021.52 433.86 996.79 522.33 1126.34 505.56
00012153 00000079 890.40 123.76 373.42 517.59 958.49 354.63 1111.57 333.49 1021.01 433.31 996.42 522.59 1124.97 505.77
00012154 00000080 890.22 124.51 373.91 518.11 958.32 354.56 1111.39 333.06 1020.75 433.16 995.77 522.52 1124.75 505.47
00012155 00000081 889.92 124.91 373.92 518.03 958.14 354.60 1110.52 333.07 1020.84 433.45 996.14 522.52 1124.47 505.42
00012156 00000082 889.88 124.93 373.58 519.24 958.20 354.73 1110.06 333.23 1020.80 433.90 996.26 522.96 1124.29 505.91
00012157 00000083 890.24 125.08 373.29 519.98 958.39 355.30 1110.19 333.27 1021.14 434.30 996.68 523.53 1124.71 506.13
00012158 00000084 889.73 125.59 372.80 520.82 958.15 355.77 1108.54 333.95 1020.89 434.68 996.89 523.93 1123.62 506.77
00012159 00000085 888.89 124.53 373.62 522.95 957.86 355.45 1108.14 334.02 1020.73 434.47 996.45 523.66 1123.74 506.73
00012160 00000086 888.69 124.98 373.56 522.81 957.79 355.81 1107.93 333.95 1021.01 434.41 996.91 523.84 1124.04 506.55
00012161 00000087 888.13 124.06 373.76 524.48 957.24 355.59 1107.31 333.57 1020.71 433.92 996.52 523.90 1123.62 506.49
00012162 00000088 888.12 124.73 373.81 523.80 957.33 355.90 1107.23 333.32 1021.15 434.04 996.98 524.00 1124.13 506.10
00012163 00000089 888.79 124.60 373.64 525.12 957.92 356.44 1107.35 333.59 1021.86 434.47 998.16 524.53 1125.36 506.37
00012164 00000090 889.14 124.86 373.28 524.20 958.05 356.68 1107.99 333.58 1022.31 434.94 998.28 524.62 1125.74 506.23
00012165 00000091 889.19 126.31 373.37 522.63 957.95 357.14 1108.11 333.22 1022.28 434.49 998.00 524.65 1125.71 505.61
00012166 00000092 887.63 125.46 374.67 521.78 957.16 356.39 1107.80 332.61 1022.21 434.24 997.76 524.11 1125.29 505.12
00012167 00000093 887.71 124.02 375.27 521.39 956.11 356.07 1108.05 331.49 1021.34 433.34 996.93 523.73 1125.56 503.99
00012168 00000094 888.81 125.02 373.96 519.24 957.44 356.08 1109.48 330.89 1022.73 433.62 998.18 524.03 1126.71 503.87
00012169 00000095 889.67 123.92 374.94 520.24 959.09 355.43 1111.32 330.56 1025.30 435.49 1000.73 524.36 1129.49 504.32
00012170 00000096 890.29 130.95 374.00 517.12 961.79 358.23 1111.33 332.33 1028.66 441.26 1005.29 527.53 1131.07 506.81
00012171 00000097 891.61 134.35 375.15 518.73 962.53 361.37 1112.04 334.04 1028.82 443.67 1006.25 531.05 1133.25 509.32
00012172 00000098 891.35 130.96 377.10 531.01 963.09 364.53 1113.31 335.37 1031.38 445.66 1008.62 537.42 1136.24 514.08
00012173 00000099 890.54 130.76 376.58 529.54 963.11 363.60 1112.40 335.07 1031.61 444.84 1009.43 537.12 1135.23 514.30
00012174 00000100 889.81 131.52 375.39 521.84 962.86 360.74 1111.31 332.15 1031.33 442.60 1009.42 532.95 1133.69 510.02
00012175 00000101 888.50 128.61 374.62 521.72 961.08 358.72 1109.61 330.48 1029.37 437.79 1007.77 530.32 1132.22 507.69
00012176 00000102 883.53 128.32 377.59 519.84 957.61 358.89 1106.23 330.08 1025.58 432.16 1003.14 527.56 1128.55 504.26
00012177 00000103 881.00 131.42 373.33 519.33 955.30 362.80 1104.06 336.64 1025.08 430.47 999.51 527.11 1127.62 505.87
00012178 00000104 874.45 128.13 376.17 531.74 950.99 364.26 1099.61 335.73 1025.77 432.55 999.37 533.07 1127.41 509.87
00012179 00000105 867.28 132.96 380.81 524.92 944.64 364.63 1093.01 332.16 1022.51 435.91 999.47 534.86 1125.52 508.28
00012180 00000106 863.35 137.03 379.73 507.89 938.86 363.29 1092.37 329.62 1017.81 432.21 993.99 531.52 1122.62 504.21
00012181 00000107 859.48 131.00 376.13 502.87 934.66 359.32 1087.80 328.03 1011.12 426.33 985.11 523.68 1114.18 498.58
00012182 DELETE   852.91 129.97 374.48 494.44 924.28 354.11 1079.52 318.66 1000.79 415.62 972.14 516.60 1105.29 488.61
00012183 00000109 841.68 117.45 373.01 502.43 907.18 352.03 1061.84 310.19 980.57 412.41 962.04 507.74 1094.42 472.74
00012184 DELETE   830.88 117.86 375.53 500.52 897.29 355.76 1047.26 307.46 966.99 418.25 954.91 515.65 1082.45 476.04
00012185 00000111 828.77 118.45 371.87 502.33 892.21 358.57 1039.83 310.50 959.08 419.48 949.25 517.17 1075.36 477.83
00012186 DELETE   821.12 123.07 371.73 502.80 886.48 358.03 1033.11 314.95 955.19 421.22 941.48 518.45 1066.36 483.23
00012187 00000113 815.81 125.56 371.12 501.85 880.49 359.12 1030.60 319.30 949.39 420.77 933.01 520.27 1060.12 487.99
00012188 DELETE   811.86 124.36 371.71 507.54 875.07 361.17 1024.87 322.80 943.08 422.03 927.26 522.63 1054.77 491.47
00012189 DELETE   809.06 130.09 371.68 504.32 871.68 362.41 1021.31 327.51 938.62 428.31 922.79 525.12 1050.04 497.00
00012190 00000116 807.16 131.60 372.68 506.37 870.03 364.56 1018.49 330.61 936.41 430.06 921.19 526.95 1048.31 499.67
CROP_BBOX: 629 0 1565 908
