Video ID: 	rFwiOtzFw2E
H: 	1080
W: 	1920
FPS: 	25.0

FRAME INDEX X0 Y0 W H [Landmarks (5 Points)]

00000585 00000000 1183.01 74.01 416.57 607.72 1238.95 313.99 1398.46 333.15 1252.05 433.60 1240.00 518.20 1366.09 533.89
00000586 00000001 1181.99 74.54 413.65 606.55 1236.63 313.74 1394.18 333.65 1249.00 434.05 1238.16 518.07 1363.11 534.23
00000587 00000002 1180.92 78.57 413.33 600.53 1232.52 315.91 1392.19 334.18 1250.00 438.13 1236.03 520.49 1361.78 535.23
00000588 00000003 1180.21 84.76 415.08 598.60 1233.25 318.16 1391.95 335.99 1251.53 441.10 1239.16 523.24 1363.81 537.30
00000589 DELETE   1180.60 95.94 419.57 600.78 1236.92 325.66 1392.55 342.27 1255.52 447.46 1247.09 537.49 1368.37 550.83
00000590 00000005 1182.62 107.95 415.63 592.78 1240.00 334.80 1392.97 353.48 1261.32 458.18 1250.88 539.93 1373.75 554.94
00000591 DELETE   1183.30 91.52 413.95 600.37 1239.25 328.63 1395.82 342.74 1260.58 443.51 1247.47 533.73 1368.98 544.91
00000592 DELETE   1184.88 102.27 409.23 581.16 1240.56 315.69 1393.29 321.97 1255.41 419.14 1250.82 520.65 1374.04 525.28
00000593 00000008 1179.12 89.38 412.19 595.94 1233.25 308.62 1397.29 309.04 1261.10 418.61 1248.24 522.94 1380.52 523.10
00000594 00000009 1177.59 94.22 408.81 590.82 1228.30 313.73 1391.51 313.08 1258.58 425.68 1246.30 528.99 1377.65 528.01
00000595 DELETE   1173.39 101.60 404.32 579.92 1223.42 326.56 1380.46 330.24 1250.70 434.17 1238.56 529.51 1361.55 532.52
00000596 DELETE   1170.15 103.89 399.42 571.79 1216.84 325.77 1370.84 335.73 1238.09 433.54 1226.71 523.92 1350.94 531.98
00000597 DELETE   1167.49 88.12 402.02 587.34 1216.88 319.48 1371.66 325.44 1241.08 420.39 1225.00 518.27 1345.57 523.89
00000598 00000013 1166.73 89.45 405.56 590.92 1218.67 317.44 1375.03 321.54 1242.41 414.50 1226.12 518.53 1350.50 522.40
00000599 00000014 1166.66 89.26 407.40 607.88 1219.45 316.28 1376.23 319.56 1240.86 417.05 1230.39 530.63 1359.37 533.36
00000600 00000015 1167.23 87.59 405.95 618.16 1221.10 313.48 1376.16 319.02 1238.67 415.93 1229.51 533.81 1355.61 538.58
00000601 00000016 1166.21 85.74 410.11 604.51 1217.92 311.84 1378.10 314.65 1240.61 409.09 1225.24 525.53 1350.07 528.59
00000602 00000017 1159.54 80.96 415.42 592.94 1211.84 309.46 1375.68 312.49 1233.95 406.64 1220.82 519.96 1347.87 521.79
00000603 00000018 1156.15 80.45 412.02 585.54 1212.16 300.97 1373.81 307.99 1236.77 403.82 1214.97 508.08 1349.33 514.34
00000604 00000019 1152.06 70.92 415.47 597.26 1203.57 311.27 1362.34 306.18 1228.77 402.54 1218.50 513.46 1345.49 508.68
00000605 00000020 1145.19 67.63 417.01 602.03 1197.48 311.72 1359.41 306.49 1227.16 406.93 1215.13 514.51 1346.55 509.30
00000606 00000021 1141.17 64.24 421.64 610.83 1196.56 303.81 1364.05 307.03 1226.83 413.28 1204.49 509.74 1346.49 511.51
00000607 00000022 1137.89 56.96 420.71 623.94 1193.02 304.80 1362.24 305.36 1226.75 414.90 1204.94 514.16 1347.93 513.70
00000608 00000023 1134.48 53.90 421.59 629.24 1192.18 305.84 1360.88 307.01 1226.02 415.83 1205.17 518.70 1341.81 519.42
00000609 00000024 1126.69 56.39 428.21 635.92 1183.90 307.16 1356.01 303.50 1220.45 419.73 1204.63 529.58 1342.56 526.05
00000610 00000025 1119.42 57.20 433.42 636.43 1176.85 311.14 1350.56 304.42 1214.75 421.74 1200.96 534.05 1342.26 527.68
00000611 00000026 1123.21 46.98 428.61 642.00 1179.02 309.77 1345.55 305.20 1212.15 420.20 1202.24 525.75 1333.69 523.24
00000612 00000027 1119.49 42.19 429.52 632.91 1174.25 309.12 1341.34 304.60 1212.47 418.76 1196.53 518.11 1328.51 515.49
00000613 00000028 1117.92 41.38 426.42 628.71 1172.43 310.20 1339.29 304.69 1213.12 422.06 1194.64 518.05 1326.82 514.66
00000614 00000029 1114.27 53.97 428.61 621.12 1172.44 316.88 1338.50 309.74 1215.54 431.55 1196.69 522.73 1330.91 518.38
00000615 00000030 1113.80 59.45 424.39 620.83 1171.18 324.17 1335.24 318.31 1210.94 440.29 1195.40 530.33 1329.58 526.98
00000616 00000031 1112.95 62.16 421.43 619.07 1169.02 330.19 1334.81 326.36 1210.12 446.54 1190.27 536.28 1323.84 534.54
00000617 00000032 1113.04 60.83 421.91 619.63 1169.47 331.46 1335.62 328.65 1211.15 445.56 1187.21 537.39 1320.08 536.66
00000618 00000033 1113.15 53.77 423.86 625.78 1168.95 328.50 1335.18 321.14 1210.02 438.11 1188.70 532.88 1323.07 528.53
00000619 00000034 1113.33 54.78 419.49 615.15 1167.72 323.18 1336.20 314.69 1213.11 434.89 1187.99 524.69 1326.52 519.34
00000620 00000035 1114.29 54.40 417.20 607.85 1168.64 318.66 1337.83 309.44 1216.67 428.06 1189.27 519.72 1325.54 513.56
00000621 00000036 1115.73 56.49 417.57 602.80 1171.53 317.33 1335.40 305.63 1217.90 424.43 1196.56 516.69 1326.91 508.43
00000622 00000037 1117.78 56.71 416.29 601.85 1172.84 317.42 1336.48 305.67 1218.65 423.31 1198.59 517.22 1327.66 508.85
00000623 00000038 1119.62 61.29 413.54 597.61 1174.73 317.77 1338.28 305.08 1221.06 422.07 1201.02 517.37 1329.34 508.36
00000624 00000039 1121.47 65.06 417.11 603.80 1178.31 317.59 1338.39 304.50 1221.94 419.48 1206.09 519.68 1331.58 510.54
00000625 00000040 1123.58 65.58 416.13 604.22 1180.78 318.80 1339.34 303.52 1224.72 418.26 1210.94 521.47 1334.58 510.41
00000626 00000041 1123.97 62.24 416.35 600.17 1177.38 316.51 1342.78 300.18 1225.94 418.08 1205.74 515.09 1342.68 502.93
00000627 00000042 1126.11 63.00 415.45 596.96 1177.91 313.59 1343.30 297.50 1224.25 415.59 1203.08 509.87 1344.61 497.81
00000628 00000043 1127.54 61.81 413.83 602.20 1178.77 312.76 1344.18 295.16 1223.96 412.90 1204.71 511.88 1346.02 498.54
00000629 00000044 1129.72 62.73 415.46 603.04 1182.57 314.64 1346.75 295.81 1228.33 411.93 1211.95 514.01 1348.67 499.63
00000630 00000045 1132.80 74.54 410.44 585.05 1191.39 316.91 1358.79 303.98 1242.14 408.25 1214.26 516.39 1354.91 505.56
00000631 00000046 1134.19 75.85 412.71 586.99 1194.18 317.42 1363.20 304.26 1246.33 407.24 1219.18 521.76 1356.08 511.13
00000632 00000047 1135.04 85.87 416.89 581.16 1195.91 315.48 1368.21 302.32 1248.87 406.13 1221.01 522.80 1360.41 512.20
00000633 00000048 1138.37 91.43 417.12 573.63 1198.89 309.85 1374.74 298.37 1251.06 401.24 1219.61 517.78 1364.52 508.47
00000634 00000049 1138.81 86.05 418.11 571.16 1198.80 306.65 1373.22 292.38 1250.68 393.65 1220.09 512.42 1364.75 500.66
00000635 00000050 1140.43 74.95 415.29 574.54 1199.60 300.85 1372.32 285.03 1252.09 386.07 1222.47 507.05 1364.06 494.17
00000636 00000051 1141.79 74.47 412.92 570.10 1199.98 297.07 1373.74 279.31 1252.89 377.91 1224.76 501.22 1366.54 487.07
00000637 00000052 1144.37 73.91 416.27 565.26 1201.97 295.44 1377.13 276.67 1255.99 373.22 1228.33 496.54 1371.31 481.49
00000638 00000053 1147.52 71.73 415.73 567.74 1206.38 295.78 1380.32 275.33 1263.19 372.39 1234.76 495.01 1379.26 478.75
00000639 00000054 1150.00 68.85 413.25 572.66 1210.47 296.40 1382.36 274.94 1267.78 373.14 1239.73 494.55 1384.94 477.45
00000640 00000055 1152.61 63.31 407.08 573.88 1214.28 297.32 1387.42 277.36 1274.37 373.68 1241.67 491.62 1387.84 476.60
00000641 00000056 1156.16 59.56 419.74 581.78 1223.70 298.40 1397.05 277.08 1285.60 375.98 1254.95 495.34 1386.25 477.56
00000642 00000057 1159.92 62.21 424.04 580.72 1224.60 300.19 1398.83 275.69 1286.14 376.19 1255.44 498.73 1386.82 478.75
00000643 00000058 1163.24 63.67 423.66 580.29 1227.80 296.65 1402.44 273.21 1288.06 376.60 1257.81 497.72 1390.15 478.60
00000644 00000059 1166.19 63.46 422.20 581.45 1230.53 295.60 1405.50 271.44 1289.99 374.24 1259.91 496.91 1393.30 477.30
00000645 00000060 1168.85 57.73 423.49 587.83 1231.75 294.33 1407.51 269.80 1290.57 373.54 1261.40 496.55 1397.19 476.73
00000646 00000061 1170.90 58.82 423.60 585.61 1232.39 294.19 1409.83 269.34 1292.42 374.77 1262.02 497.25 1398.73 477.38
00000647 00000062 1172.01 62.98 422.30 580.42 1233.42 296.75 1410.72 272.28 1293.61 377.63 1263.61 497.71 1400.14 478.16
00000648 00000063 1172.51 59.57 421.83 583.69 1232.32 299.56 1411.29 274.74 1294.50 382.50 1263.50 500.90 1401.95 481.15
00000649 00000064 1172.80 57.70 420.77 587.45 1232.70 301.17 1411.25 276.72 1294.36 384.43 1263.24 502.58 1401.54 483.13
00000650 00000065 1173.50 60.04 420.83 588.94 1233.37 301.14 1411.11 276.05 1294.20 384.60 1266.44 504.85 1403.03 484.85
00000651 00000066 1173.54 60.64 423.24 591.55 1233.91 302.82 1410.57 277.84 1293.44 386.28 1267.18 506.49 1403.21 486.59
00000652 00000067 1175.37 60.99 419.84 591.13 1236.07 303.70 1412.27 279.77 1295.97 388.16 1270.00 506.93 1404.22 488.03
00000653 00000068 1177.03 62.31 421.26 590.69 1236.37 304.64 1412.51 278.79 1296.87 390.05 1271.29 508.82 1405.55 488.39
00000654 00000069 1179.03 63.99 418.76 589.12 1237.41 304.84 1412.14 279.23 1297.51 390.58 1272.28 508.52 1405.50 488.31
00000655 00000070 1181.49 63.75 419.92 590.97 1238.25 304.71 1412.43 278.46 1296.86 390.85 1274.13 510.13 1406.48 489.49
00000656 00000071 1184.55 63.11 418.81 593.00 1239.48 306.62 1412.55 278.87 1295.86 391.99 1275.60 511.08 1408.49 489.27
00000657 00000072 1186.19 64.58 418.36 591.80 1241.47 306.29 1412.91 279.61 1297.03 392.33 1277.40 510.92 1408.72 489.92
00000658 00000073 1187.29 65.32 417.43 591.61 1243.01 306.54 1414.94 279.82 1299.75 392.57 1279.64 511.15 1411.33 490.08
00000659 00000074 1189.13 67.37 416.44 589.29 1244.45 306.64 1415.56 280.11 1301.08 393.76 1281.14 511.09 1413.08 490.24
00000660 00000075 1189.68 68.58 416.64 587.18 1244.73 307.13 1415.41 280.01 1301.60 393.70 1282.31 510.53 1413.75 489.21
00000661 00000076 1190.18 71.79 415.97 584.00 1245.26 308.02 1415.71 280.19 1302.55 394.37 1282.57 510.66 1414.75 488.80
00000662 00000077 1190.51 70.89 415.61 584.25 1245.73 308.16 1416.26 280.80 1303.00 394.82 1282.70 509.74 1415.56 488.23
00000663 00000078 1190.90 72.44 416.33 583.95 1246.28 308.64 1416.83 281.10 1303.61 394.83 1283.14 509.73 1416.53 488.17
00000664 00000079 1191.66 80.26 413.86 575.03 1247.05 311.83 1416.43 284.14 1302.80 394.97 1282.60 509.84 1415.28 488.30
00000665 00000080 1187.35 88.01 415.63 564.88 1249.31 311.69 1419.54 287.85 1309.98 398.29 1283.76 515.06 1419.15 495.53
00000666 00000081 1186.75 85.23 414.67 568.39 1248.66 314.49 1419.21 290.80 1309.99 400.78 1283.79 516.64 1418.32 497.36
00000667 00000082 1186.75 87.70 414.88 566.68 1248.38 314.37 1419.44 290.87 1309.28 402.29 1284.34 517.69 1418.53 498.52
00000668 00000083 1186.20 87.38 413.89 568.18 1248.18 314.87 1418.58 292.46 1308.42 403.50 1283.34 518.64 1416.13 500.46
00000669 00000084 1187.01 94.93 411.71 561.37 1247.52 317.25 1416.02 291.13 1306.33 402.19 1281.76 521.15 1409.35 500.14
00000670 00000085 1184.96 81.85 413.89 584.80 1239.97 322.36 1416.39 302.63 1295.76 407.07 1265.89 523.65 1404.36 508.29
00000671 DELETE   1175.67 72.55 414.24 591.97 1234.68 324.66 1404.18 311.40 1280.71 412.48 1257.25 522.97 1385.86 512.23
00000672 DELETE   1175.81 87.62 410.51 589.49 1231.32 319.76 1382.98 315.66 1256.74 413.87 1249.91 523.58 1362.48 520.05
00000673 00000088 1177.32 84.75 401.38 597.98 1227.17 322.01 1383.61 322.99 1256.14 425.84 1239.27 530.36 1363.48 531.34
00000674 DELETE   1178.17 77.40 399.19 610.35 1227.55 322.60 1382.27 325.17 1253.21 425.65 1239.60 532.88 1364.15 534.81
00000675 00000090 1179.69 78.91 400.59 603.80 1227.20 319.41 1383.42 321.68 1250.38 422.46 1238.04 529.95 1362.53 531.81
00000676 DELETE   1181.51 89.58 406.44 584.06 1227.97 314.14 1387.39 315.79 1251.05 416.25 1233.95 521.93 1356.89 523.80
00000677 00000092 1181.45 87.60 407.17 573.64 1235.72 303.44 1388.36 316.53 1250.08 403.58 1232.63 503.81 1352.57 513.95
00000678 00000093 1183.61 85.39 410.73 576.16 1237.95 302.69 1392.58 317.44 1249.33 404.20 1231.75 503.69 1353.06 515.46
00000679 00000094 1189.08 78.44 407.42 582.71 1244.36 307.74 1392.51 321.67 1251.13 404.35 1241.26 503.28 1354.32 515.14
00000680 00000095 1193.00 75.67 405.84 586.21 1245.70 310.80 1396.86 321.93 1256.51 406.47 1243.37 507.16 1358.57 517.12
00000681 00000096 1194.22 77.72 405.82 582.30 1247.34 310.79 1398.33 320.96 1258.99 404.70 1244.19 506.03 1358.91 515.40
00000682 00000097 1193.12 80.80 403.32 580.24 1245.58 305.47 1398.66 321.49 1254.75 403.82 1234.31 505.74 1354.45 519.05
00000683 00000098 1189.96 80.20 402.27 577.73 1244.46 302.42 1398.87 319.70 1253.63 398.79 1229.33 501.81 1347.50 516.16
00000684 00000099 1188.49 76.68 400.76 576.97 1243.09 300.54 1396.89 319.42 1250.86 395.41 1226.55 499.57 1341.07 515.21
00000685 00000100 1185.91 77.33 402.29 573.71 1242.48 299.12 1396.15 320.00 1249.98 394.15 1224.43 497.70 1336.61 514.87
00000686 00000101 1181.91 76.70 405.77 573.40 1240.91 298.37 1395.87 317.13 1250.73 389.96 1222.98 494.95 1337.26 510.53
00000687 00000102 1178.01 74.79 407.07 571.85 1236.75 296.63 1392.36 311.97 1247.54 383.87 1221.31 492.95 1335.78 505.61
00000688 00000103 1175.89 71.03 406.62 576.77 1233.31 293.56 1386.98 308.32 1243.03 379.62 1220.00 492.76 1332.54 504.72
00000689 00000104 1175.46 75.37 403.96 575.38 1230.54 294.57 1385.42 307.22 1243.06 382.30 1220.40 496.44 1332.66 507.01
00000690 00000105 1174.68 84.72 401.06 569.53 1228.27 297.54 1382.79 309.54 1242.39 389.47 1219.95 501.45 1332.60 511.38
00000691 00000106 1174.70 88.98 396.01 560.05 1224.89 299.54 1380.04 314.00 1238.84 393.36 1217.59 499.40 1332.34 510.94
00000692 00000107 1171.06 90.57 395.32 561.36 1222.44 296.72 1372.72 310.45 1234.70 395.58 1213.05 494.19 1338.32 507.44
00000693 00000108 1166.56 91.29 396.87 568.43 1219.48 298.49 1369.73 309.84 1232.60 397.88 1212.20 499.16 1338.14 510.26
00000694 00000109 1162.84 90.57 401.68 574.87 1218.44 300.70 1368.77 312.03 1231.55 403.89 1212.98 503.70 1336.69 514.18
00000695 00000110 1158.08 82.50 401.45 591.40 1205.55 313.49 1359.38 314.89 1224.78 408.22 1212.80 515.72 1331.33 518.06
00000696 00000111 1155.62 87.80 399.38 592.06 1202.32 315.57 1354.18 314.79 1221.12 407.93 1207.74 521.91 1322.06 522.66
00000697 00000112 1150.03 89.93 394.36 590.08 1196.20 318.20 1348.33 318.22 1216.03 410.39 1198.47 523.65 1314.52 525.17
00000698 00000113 1145.44 90.13 394.85 589.92 1190.42 323.58 1341.13 321.87 1208.59 412.01 1191.72 526.97 1305.59 527.27
00000699 00000114 1141.00 86.60 395.14 596.85 1184.49 324.66 1337.22 323.33 1201.92 413.32 1187.38 531.40 1300.84 531.79
00000700 00000115 1135.35 75.86 398.29 612.42 1178.52 325.70 1335.10 327.26 1195.29 418.11 1182.02 535.57 1295.80 538.18
00000701 00000116 1130.60 77.20 400.20 613.66 1175.77 323.84 1331.34 328.20 1188.97 418.44 1177.49 534.44 1292.78 539.11
00000702 00000117 1127.40 80.81 403.06 607.20 1175.91 322.73 1333.36 328.41 1190.76 426.23 1176.79 534.17 1294.66 539.85
00000703 00000118 1123.63 76.42 405.88 615.26 1170.55 321.56 1328.75 327.32 1183.17 418.42 1173.11 534.43 1290.00 540.05
00000704 00000119 1119.72 77.71 406.87 613.37 1169.41 321.15 1326.91 327.84 1181.85 418.35 1171.89 533.83 1287.89 539.95
00000705 00000120 1117.05 76.94 408.52 613.66 1168.11 321.06 1325.64 328.05 1181.35 417.95 1170.07 533.23 1286.85 539.46
00000706 00000121 1115.80 79.11 410.85 611.98 1167.60 320.14 1323.74 327.72 1179.10 417.52 1169.40 532.36 1285.88 538.98
00000707 00000122 1116.53 76.38 408.60 611.90 1167.02 321.41 1327.17 327.06 1184.54 424.08 1167.43 533.98 1287.12 539.24
00000708 00000123 1116.25 74.16 409.08 615.22 1166.94 321.67 1325.67 328.08 1183.26 424.07 1167.26 533.88 1285.84 539.71
00000709 00000124 1116.37 77.20 410.11 612.54 1167.23 321.37 1326.78 327.62 1183.77 424.18 1167.28 534.09 1286.07 539.80
CROP_BBOX: 895 0 1825 838
