Video ID: 	18gOAb4FTfw
H: 	1080
W: 	1920
FPS: 	23.97602700553543

FRAME INDEX X0 Y0 W H [Landmarks (5 Points)]

00001115 00000000 866.57 70.86 396.47 585.08 962.25 247.93 1163.10 251.66 1052.59 365.18 979.11 494.48 1131.84 498.45
00001116 00000001 866.78 68.31 398.37 593.75 963.66 248.08 1164.71 251.90 1053.36 369.51 979.93 496.51 1133.00 500.00
00001117 00000002 866.59 69.54 400.01 595.68 962.14 250.06 1162.70 255.61 1049.11 373.85 976.78 495.84 1132.79 500.32
00001118 00000003 864.27 66.18 402.60 605.38 961.72 254.47 1162.89 260.87 1050.05 378.55 975.31 501.01 1132.54 506.06
00001119 00000004 863.51 60.27 401.10 617.55 960.43 257.81 1162.60 264.58 1048.58 381.96 974.59 506.29 1132.96 511.52
00001120 00000005 861.90 58.37 402.99 626.33 958.77 263.14 1162.71 269.09 1046.67 390.07 974.08 514.15 1132.76 518.36
00001121 DELETE   857.77 63.49 403.28 626.60 955.93 268.73 1159.51 275.24 1042.51 396.66 972.22 520.98 1129.88 525.29
00001122 00000007 854.43 63.40 404.38 630.37 951.31 272.53 1156.22 279.70 1037.58 403.67 965.99 525.45 1128.83 530.16
00001123 00000008 854.39 66.41 403.87 628.43 949.72 276.55 1153.82 283.25 1033.84 409.16 963.81 527.15 1126.93 531.35
00001124 00000009 854.99 65.47 402.53 629.24 949.01 278.32 1153.19 284.83 1032.42 410.10 962.59 529.52 1124.46 533.67
00001125 00000010 854.55 62.23 404.18 629.92 948.61 280.43 1151.97 286.26 1031.73 411.61 963.89 530.04 1124.94 533.57
00001126 00000011 854.35 63.32 403.86 631.09 949.18 280.72 1153.45 286.66 1033.46 411.76 964.60 531.79 1125.03 535.41
00001127 00000012 855.11 63.68 405.63 631.59 948.96 280.94 1152.85 286.78 1031.49 412.19 963.54 531.64 1124.49 535.22
00001128 00000013 857.96 63.89 400.61 629.43 949.84 279.58 1152.94 286.27 1030.07 410.45 962.36 529.36 1123.49 533.79
00001129 00000014 857.00 67.92 404.36 625.78 948.25 277.88 1152.14 283.64 1028.77 408.50 961.94 529.22 1122.76 532.98
00001130 00000015 856.21 67.82 403.81 624.52 947.26 277.38 1151.99 283.54 1028.32 408.26 961.34 529.09 1122.27 533.20
00001131 00000016 853.80 64.17 406.44 629.74 946.29 279.28 1151.07 285.67 1027.82 409.88 959.80 530.66 1119.96 534.95
00001132 00000017 850.00 65.67 407.31 632.31 944.22 279.79 1148.58 286.03 1025.85 410.90 957.21 532.93 1117.12 537.11
00001133 00000018 847.74 67.25 408.53 632.48 942.49 279.97 1146.49 285.12 1022.74 410.87 957.08 534.47 1114.91 538.02
00001134 00000019 847.95 68.88 403.96 631.67 940.60 279.18 1145.10 283.99 1021.74 410.48 954.87 534.29 1114.23 537.68
00001135 00000020 849.18 67.29 401.77 629.04 939.33 278.79 1143.68 282.93 1019.46 408.04 954.26 532.22 1113.91 535.12
00001136 00000021 847.57 64.61 405.38 627.83 937.79 279.15 1143.17 284.75 1018.50 406.53 951.11 528.58 1115.36 532.57
00001137 00000022 847.30 67.13 404.67 624.77 937.32 277.97 1142.62 284.09 1018.02 406.99 950.22 527.40 1115.16 531.93
00001138 00000023 846.52 63.74 403.95 627.18 937.24 277.42 1143.12 284.11 1019.26 404.80 950.00 525.76 1115.96 530.71
00001139 00000024 845.29 67.87 407.65 631.52 938.03 272.39 1142.52 277.61 1019.16 401.25 954.16 528.59 1114.70 532.20
00001140 00000025 848.92 60.90 401.12 637.82 940.26 270.90 1144.41 275.38 1021.79 397.72 956.65 526.68 1115.75 529.56
00001141 00000026 851.90 66.78 402.98 626.28 940.01 263.70 1145.55 269.04 1020.35 388.15 953.61 518.35 1113.68 522.56
00001142 00000027 853.94 66.93 403.35 620.97 939.61 258.15 1143.55 262.86 1021.55 382.94 951.91 511.50 1113.21 515.32
00001143 00000028 854.81 70.96 403.44 613.67 941.10 253.11 1144.30 260.00 1021.59 379.68 952.03 505.10 1112.32 510.82
00001144 00000029 856.72 70.03 402.67 613.66 941.93 249.94 1145.46 258.19 1021.62 377.66 950.81 501.50 1113.10 508.41
00001145 00000030 857.59 66.45 400.40 615.66 943.45 250.61 1146.21 259.22 1022.94 377.65 952.63 502.13 1110.81 509.45
00001146 00000031 859.38 64.20 396.37 617.65 943.41 254.20 1145.98 263.29 1021.85 379.02 950.51 506.65 1106.59 514.94
00001147 00000032 858.31 64.08 394.97 620.07 940.75 259.35 1145.96 266.98 1020.26 382.00 948.65 514.06 1106.53 521.01
00001148 00000033 856.24 67.91 395.00 620.88 939.39 265.61 1144.13 272.29 1017.31 389.21 950.32 521.17 1106.69 526.98
00001149 00000034 850.83 67.34 400.43 627.44 937.90 274.93 1144.04 279.77 1020.04 398.15 950.95 530.33 1109.92 534.45
00001150 00000035 850.41 75.06 396.64 615.43 937.56 281.42 1142.44 285.26 1018.10 409.00 950.13 532.63 1109.78 535.73
00001151 00000036 847.68 72.68 403.33 619.62 936.50 290.23 1140.25 293.59 1016.89 416.76 949.64 537.21 1109.81 540.06
00001152 00000037 841.67 64.04 410.92 646.41 936.72 294.38 1138.38 299.22 1017.60 425.00 951.31 545.31 1108.81 548.62
00001153 00000038 839.90 60.04 415.21 666.51 939.00 296.35 1135.43 302.03 1015.61 432.44 954.33 551.75 1107.09 555.45
00001154 00000039 840.08 54.57 413.41 672.45 939.44 297.90 1136.21 303.18 1016.51 433.89 955.95 552.93 1110.14 556.00
00001155 DELETE   842.48 52.84 412.23 674.40 941.06 300.30 1135.10 304.89 1016.05 435.72 957.79 554.12 1111.11 556.47
00001156 00000041 844.13 52.90 409.91 671.59 943.25 303.43 1136.74 307.82 1018.20 437.06 959.92 554.60 1112.58 556.83
00001157 00000042 845.75 50.99 406.96 667.61 944.19 303.95 1139.60 310.41 1021.47 437.52 958.26 551.73 1113.24 555.79
00001158 00000043 847.24 52.32 405.67 668.45 947.19 303.35 1143.59 311.51 1024.94 436.57 958.83 550.92 1115.58 556.26
00001159 00000044 847.66 56.50 409.13 665.60 948.50 303.15 1146.49 311.43 1026.13 436.87 959.83 550.40 1119.39 555.69
00001160 00000045 849.55 49.27 410.38 675.97 950.72 306.38 1143.82 315.79 1025.25 438.86 961.88 552.49 1119.50 558.50
00001161 DELETE   851.63 44.34 412.86 680.44 954.58 311.71 1142.05 321.09 1026.18 439.28 964.77 553.66 1120.14 559.63
00001162 00000047 849.26 46.33 410.89 678.80 951.90 309.88 1141.44 318.66 1026.03 436.19 964.07 553.36 1119.12 558.99
00001163 00000048 847.90 47.24 407.74 680.55 948.21 308.12 1138.00 314.07 1022.65 435.20 962.84 555.54 1116.29 559.06
00001164 00000049 848.18 49.39 407.05 681.49 946.18 304.78 1138.11 310.33 1021.04 435.89 962.28 557.01 1116.41 560.21
00001165 00000050 844.34 52.70 410.71 681.35 944.50 304.33 1138.38 310.19 1022.43 438.95 960.54 557.74 1116.61 561.12
00001166 00000051 842.64 49.44 413.77 687.27 944.14 304.38 1139.12 310.87 1021.32 439.51 958.48 557.83 1116.83 561.70
00001167 00000052 843.42 53.94 412.94 683.81 943.40 302.33 1139.72 308.17 1019.80 438.68 958.60 558.98 1116.59 562.29
00001168 00000053 844.17 51.37 412.13 690.49 944.88 301.63 1139.98 308.28 1020.61 438.76 959.26 561.28 1116.04 565.22
00001169 00000054 844.60 53.11 410.53 690.25 945.20 301.45 1140.82 309.11 1020.53 438.39 957.82 562.36 1113.86 567.46
00001170 00000055 845.01 53.46 409.58 689.07 944.64 301.63 1140.50 309.62 1019.97 438.11 956.07 561.14 1113.43 566.46
00001171 00000056 845.40 53.78 410.27 682.34 943.42 301.18 1140.75 307.32 1020.86 436.49 958.46 559.44 1115.02 563.07
00001172 00000057 845.94 53.52 411.57 677.37 944.09 300.76 1142.69 306.40 1023.64 435.32 960.76 557.69 1116.30 560.95
00001173 00000058 846.68 49.12 411.16 680.14 945.26 301.74 1143.88 308.08 1024.59 434.74 961.49 557.18 1117.20 560.91
00001174 00000059 847.82 48.97 410.64 676.17 945.85 302.15 1144.14 308.18 1025.25 434.52 963.25 557.11 1116.57 560.73
00001175 00000060 849.77 49.37 410.73 674.39 946.72 301.50 1145.34 307.55 1025.96 434.45 963.97 556.57 1117.33 560.18
00001176 00000061 851.75 48.90 409.71 673.96 947.92 302.08 1144.54 309.03 1024.50 434.79 963.08 555.24 1117.70 559.58
00001177 00000062 850.81 51.88 411.34 672.90 948.97 304.45 1143.90 312.17 1024.66 437.73 962.43 556.32 1115.79 561.26
00001178 00000063 848.73 52.20 413.27 673.59 948.99 305.12 1144.30 313.84 1024.31 439.52 960.99 555.69 1114.87 561.52
00001179 00000064 847.94 51.05 413.98 674.59 948.84 305.68 1144.67 314.08 1024.58 439.63 961.01 555.88 1115.05 561.51
00001180 00000065 848.39 53.69 412.43 670.61 948.35 305.27 1144.44 313.10 1024.44 439.35 960.86 555.14 1115.33 560.27
00001181 00000066 848.83 52.94 410.23 672.21 948.35 306.06 1144.08 315.11 1023.58 439.65 959.15 554.55 1115.13 560.70
00001182 00000067 848.31 57.29 410.38 669.09 947.17 305.57 1142.91 313.86 1022.45 439.96 958.90 555.53 1114.63 561.16
00001183 00000068 845.72 59.66 412.52 667.13 945.16 305.09 1142.02 312.86 1021.73 439.31 958.38 555.45 1114.01 560.67
00001184 00000069 847.05 56.22 412.18 665.41 945.42 305.81 1143.93 313.18 1023.76 438.19 959.83 553.83 1117.01 558.65
00001185 00000070 847.64 60.25 410.62 662.88 945.04 305.20 1143.11 312.72 1021.45 438.16 957.81 554.35 1115.52 559.34
00001186 00000071 846.73 62.11 410.98 659.27 944.39 305.81 1143.13 313.56 1022.00 438.58 956.50 554.15 1114.99 559.53
00001187 00000072 847.72 59.42 411.36 661.06 944.88 304.66 1143.63 313.03 1022.15 436.90 956.90 552.65 1116.15 558.40
00001188 00000073 850.00 57.10 409.29 663.02 946.95 304.65 1145.13 313.34 1024.26 437.46 958.76 553.47 1116.40 559.42
00001189 00000074 852.40 55.99 410.91 663.17 947.67 306.06 1145.37 315.13 1022.50 439.33 959.80 554.62 1117.97 560.81
00001190 00000075 852.07 55.30 410.42 665.01 947.47 306.75 1145.40 315.42 1022.96 440.10 959.78 555.44 1118.50 561.23
00001191 00000076 852.83 54.82 411.36 664.67 948.32 306.53 1146.56 313.38 1024.76 438.66 963.01 556.13 1119.42 560.50
00001192 00000077 855.38 54.32 408.45 662.17 950.20 306.09 1148.13 313.57 1026.89 439.11 965.06 555.05 1122.28 559.84
00001193 00000078 859.18 51.24 406.62 670.62 955.70 308.64 1149.33 316.82 1030.62 441.80 967.83 555.28 1124.57 560.58
00001194 00000079 864.50 52.42 406.91 672.06 964.63 312.48 1152.91 322.93 1035.25 445.16 971.83 556.35 1127.85 563.28
00001195 DELETE   869.16 56.03 404.24 668.48 967.52 312.21 1156.46 321.34 1040.02 443.42 976.00 556.61 1131.24 562.67
00001196 DELETE   871.15 49.87 404.76 673.14 970.93 311.30 1161.69 319.06 1046.61 442.17 982.31 557.33 1135.77 562.00
00001197 00000082 873.86 53.19 408.48 672.79 977.91 309.12 1171.80 315.07 1057.86 444.13 991.33 561.01 1142.28 564.32
00001198 00000083 877.74 57.94 406.96 668.09 982.32 304.82 1178.50 310.56 1065.76 436.17 995.34 557.95 1150.44 561.13
00001199 00000084 879.76 53.99 411.11 670.82 987.81 299.40 1184.90 302.98 1075.12 427.69 1002.54 553.89 1157.42 555.20
00001200 DELETE   876.63 66.13 408.43 638.66 983.81 296.20 1184.62 297.47 1076.81 420.92 1002.99 546.14 1158.10 545.75
00001201 00000086 878.29 63.59 402.99 627.74 983.00 292.33 1184.94 291.92 1075.54 414.65 1003.87 538.35 1160.15 536.66
00001202 00000087 878.28 65.08 401.96 633.05 980.37 288.49 1184.52 287.91 1072.51 411.31 1001.59 538.40 1161.26 536.23
00001203 00000088 877.04 63.74 401.58 638.82 979.58 290.13 1181.35 286.85 1072.08 408.77 1001.36 539.93 1161.38 535.42
00001204 00000089 876.63 69.28 405.62 649.00 978.88 285.95 1178.49 280.58 1070.24 407.28 1004.02 544.18 1162.83 537.53
00001205 00000090 873.89 71.07 406.37 654.86 973.55 283.29 1176.65 275.81 1064.55 405.18 998.18 546.00 1162.72 537.40
00001206 00000091 868.50 70.52 408.79 659.35 966.62 282.37 1169.26 271.28 1059.32 404.99 993.28 547.33 1159.35 535.99
00001207 00000092 860.45 70.71 415.34 660.89 960.06 280.79 1162.09 268.61 1052.10 408.66 989.21 547.37 1152.35 535.15
00001208 00000093 862.49 69.10 413.03 660.20 958.69 282.30 1160.01 270.15 1048.86 410.19 987.69 547.28 1151.09 535.01
00001209 00000094 857.31 68.63 418.09 658.10 954.63 285.50 1156.99 272.18 1046.04 413.95 987.65 548.51 1149.24 535.22
00001210 00000095 855.09 69.09 418.89 647.67 950.54 286.37 1153.64 273.04 1041.98 411.65 985.14 543.36 1148.11 530.15
00001211 00000096 853.79 69.95 419.93 643.71 949.16 286.44 1151.68 273.01 1041.36 412.44 986.03 542.50 1147.39 529.14
00001212 00000097 852.59 77.86 418.70 629.66 945.18 286.99 1147.06 272.02 1036.22 413.07 985.39 541.76 1144.73 527.17
00001213 00000098 844.85 82.80 424.69 623.05 938.34 288.68 1141.80 273.41 1030.90 415.41 983.63 543.51 1140.71 528.82
00001214 00000099 843.72 82.77 424.73 617.23 936.10 292.04 1139.82 274.92 1029.42 416.05 984.56 544.38 1140.55 528.14
00001215 00000100 844.72 85.68 422.22 610.61 935.77 292.73 1139.47 275.15 1029.10 415.59 985.60 544.19 1140.28 527.68
00001216 00000101 845.42 83.79 423.74 612.21 937.01 293.88 1140.56 276.54 1030.27 415.88 986.21 544.80 1141.39 528.45
00001217 00000102 848.95 80.71 423.65 617.01 940.79 293.65 1142.36 277.08 1031.73 416.00 987.72 545.76 1140.43 530.15
00001218 00000103 852.15 74.31 420.61 630.15 943.21 293.79 1143.40 278.11 1032.48 417.49 986.56 549.02 1140.02 534.34
00001219 00000104 854.39 77.06 419.18 628.41 944.29 293.92 1143.67 278.13 1032.84 418.22 988.69 550.09 1140.73 535.19
00001220 00000105 855.37 73.94 418.19 630.96 946.71 292.76 1144.89 277.07 1037.07 418.67 992.98 549.73 1142.92 534.79
00001221 00000106 856.59 73.59 418.37 638.21 949.34 290.89 1148.97 276.15 1040.90 418.46 993.66 552.00 1142.87 537.98
00001222 00000107 859.22 72.66 412.69 623.88 950.90 290.01 1151.66 274.56 1042.19 409.79 994.86 546.66 1141.70 532.78
00001223 00000108 865.79 70.71 405.05 617.92 954.57 284.16 1154.54 269.97 1042.73 402.06 992.82 542.15 1138.29 529.86
00001224 00000109 866.76 75.77 404.89 611.12 952.90 280.33 1155.43 266.14 1042.61 398.62 989.47 538.26 1138.84 526.35
00001225 00000110 867.51 71.45 403.82 618.28 952.84 277.49 1156.36 264.84 1043.11 398.31 987.58 537.02 1140.05 526.32
00001226 00000111 866.58 73.41 406.09 622.83 953.36 276.63 1154.94 263.84 1042.79 397.95 989.63 537.46 1140.08 526.17
00001227 00000112 866.31 70.27 409.46 635.73 955.71 279.11 1156.43 264.34 1044.82 399.37 994.00 539.65 1146.62 526.79
00001228 00000113 865.49 71.18 410.57 639.73 954.22 280.43 1156.24 264.88 1043.48 401.17 991.07 541.30 1148.78 527.50
00001229 00000114 868.03 72.92 412.58 645.06 956.53 284.70 1159.37 268.06 1044.60 404.68 993.53 546.35 1153.28 531.55
00001230 00000115 863.15 73.45 417.69 648.46 956.60 287.39 1157.22 272.37 1045.81 413.60 994.03 547.72 1152.20 533.32
00001231 00000116 863.24 73.57 419.10 650.49 958.49 291.27 1156.47 276.50 1046.16 417.65 994.27 549.07 1153.05 534.59
00001232 00000117 865.15 72.51 421.04 653.15 959.91 294.54 1158.32 277.79 1047.76 418.87 996.50 549.98 1157.08 533.79
00001233 00000118 867.34 72.09 419.80 654.91 962.43 297.51 1160.20 279.63 1050.54 419.92 998.99 552.30 1160.08 534.98
00001234 00000119 872.68 70.67 414.90 657.65 964.03 300.09 1161.22 280.52 1051.33 420.88 1002.14 555.67 1162.46 536.99
00001235 00000120 875.06 72.06 414.93 655.94 967.26 301.65 1163.12 282.82 1054.15 423.04 1006.94 558.41 1164.11 539.88
00001236 00000121 877.56 69.07 416.30 659.88 971.14 305.93 1168.25 285.86 1058.83 426.63 1011.91 561.43 1169.74 541.85
00001237 00000122 884.31 60.82 419.54 665.48 970.65 302.63 1172.14 285.91 1056.72 429.74 1010.68 555.67 1171.99 541.08
00001238 00000123 887.75 59.82 418.17 659.20 971.18 306.13 1175.55 289.79 1060.03 432.51 1011.86 557.85 1173.98 544.07
00001239 00000124 887.50 60.94 420.71 657.11 971.95 306.59 1176.25 291.01 1061.41 433.17 1013.77 558.88 1173.24 545.91
00001240 00000125 887.55 62.72 423.27 660.73 973.95 305.50 1177.23 290.09 1061.78 433.35 1015.73 560.23 1173.17 547.15
00001241 00000126 888.09 61.97 423.15 662.72 974.00 305.31 1176.54 289.56 1060.78 433.21 1015.72 559.98 1173.69 546.47
00001242 00000127 888.85 62.12 423.65 663.54 974.09 303.66 1176.10 287.40 1060.29 432.50 1015.99 559.50 1174.53 545.47
00001243 00000128 889.55 62.56 421.17 662.63 973.91 302.14 1176.51 285.94 1059.87 431.07 1015.28 559.06 1173.28 545.06
00001244 00000129 890.96 65.26 420.49 660.30 973.53 300.11 1175.95 283.42 1058.34 429.17 1016.03 558.95 1173.38 544.46
00001245 00000130 891.17 64.30 421.14 661.77 974.98 299.67 1176.74 283.64 1059.63 428.40 1016.63 559.46 1171.16 545.67
CROP_BBOX: 588 0 1567 883
