Video ID: 	s5cF_dg6plo
H: 	1080
W: 	1920
FPS: 	29.97002997002997

FRAME INDEX X0 Y0 W H [Landmarks (5 Points)]

00001543 00000000 757.63 91.22 390.97 644.25 928.68 329.38 1088.55 350.29 1047.04 479.39 925.87 568.32 1052.47 585.73
00001544 00000001 762.86 102.08 392.18 626.55 938.03 331.69 1097.92 355.97 1052.56 481.04 931.12 561.79 1057.49 584.09
00001545 00000002 766.90 103.13 395.49 638.72 941.32 330.55 1104.76 357.32 1054.85 486.35 926.85 571.61 1047.98 593.61
00001546 00000003 770.21 104.64 396.39 640.31 944.20 332.69 1108.05 357.47 1057.49 487.91 930.36 572.50 1054.49 592.66
00001547 DELETE   773.45 104.11 395.78 639.57 944.83 332.84 1109.79 359.27 1058.53 486.58 930.70 572.70 1054.44 594.39
00001548 00000005 777.75 104.41 394.13 633.15 945.71 332.20 1111.72 358.64 1058.35 485.93 932.08 569.71 1057.17 591.79
00001549 DELETE   785.30 104.71 388.83 630.77 947.10 332.58 1113.65 358.79 1058.47 483.02 937.47 568.47 1062.96 590.50
00001550 00000007 789.62 108.55 388.39 624.12 950.84 332.96 1118.95 357.32 1064.51 483.01 943.71 570.74 1067.72 591.18
00001551 00000008 793.57 109.38 386.70 619.25 958.12 331.35 1125.19 356.45 1074.72 482.90 951.20 569.86 1074.70 591.22
00001552 00000009 800.85 108.14 382.31 608.99 962.56 333.60 1131.22 356.78 1082.99 480.22 960.10 567.88 1086.17 588.14
00001553 00000010 805.02 107.88 381.44 608.47 965.14 332.39 1132.14 354.32 1083.96 479.17 961.75 566.70 1087.09 586.08
00001554 00000011 805.04 106.95 382.04 608.31 962.89 330.86 1131.61 353.65 1079.30 478.45 960.18 565.64 1084.21 585.52
00001555 00000012 804.93 110.52 379.78 602.44 958.40 329.09 1128.08 355.48 1073.36 477.63 954.26 561.58 1078.65 584.48
00001556 00000013 803.08 113.74 380.44 599.42 956.28 328.41 1125.34 355.18 1068.70 476.50 949.51 559.35 1074.79 582.26
00001557 00000014 803.70 114.58 378.70 597.50 955.88 326.99 1123.55 353.90 1066.76 474.96 948.15 557.49 1071.99 580.65
00001558 00000015 804.83 115.21 376.48 597.91 956.83 327.72 1123.61 355.52 1068.08 473.19 950.70 557.99 1072.90 581.91
00001559 00000016 806.98 117.92 372.90 593.70 958.76 329.65 1122.85 356.65 1071.41 473.31 951.31 559.49 1071.71 583.13
00001560 00000017 807.99 120.84 370.34 585.07 959.88 333.19 1124.39 356.61 1075.62 473.89 955.63 560.25 1076.11 581.08
00001561 00000018 807.70 122.84 367.45 581.53 962.26 332.12 1120.59 357.01 1075.14 471.87 954.32 557.52 1070.00 579.82
00001562 00000019 807.24 126.46 366.57 577.59 960.80 332.66 1119.33 358.13 1072.74 471.89 951.89 556.59 1069.00 579.21
00001563 00000020 808.16 130.36 366.01 572.66 959.48 335.22 1118.76 360.91 1070.89 472.56 951.34 556.87 1070.63 579.55
00001564 00000021 807.89 133.91 365.47 569.76 959.41 337.04 1117.85 362.02 1070.83 472.17 952.20 557.61 1070.43 579.63
00001565 00000022 808.95 136.00 363.19 566.07 959.79 339.46 1117.44 364.15 1071.20 473.42 953.48 557.80 1071.14 579.64
00001566 00000023 810.64 140.17 360.22 561.31 961.29 339.75 1117.07 364.39 1071.90 472.68 954.11 556.89 1071.05 578.85
00001567 00000024 810.85 142.24 357.95 561.09 962.08 339.62 1116.43 364.62 1072.69 472.65 954.54 557.13 1070.32 579.29
00001568 00000025 811.72 142.72 355.46 558.57 962.68 340.40 1114.67 365.33 1073.24 470.24 953.84 554.76 1069.45 576.99
00001569 00000026 812.76 144.65 352.03 549.82 961.56 338.71 1112.18 363.26 1070.83 467.64 952.35 552.44 1066.11 574.75
00001570 00000027 811.29 144.26 352.56 548.37 960.46 337.38 1110.26 362.88 1068.67 465.83 950.86 548.90 1065.21 571.96
00001571 00000028 811.53 144.92 350.06 540.81 959.43 336.28 1109.09 361.32 1066.33 464.59 951.56 546.77 1062.93 569.63
00001572 00000029 811.18 145.14 348.58 538.60 959.59 336.45 1108.64 360.70 1064.51 464.60 952.56 545.88 1061.43 567.94
00001573 00000030 809.42 145.71 348.70 533.99 957.76 337.31 1107.14 361.01 1060.91 464.65 951.30 545.37 1059.11 566.85
00001574 00000031 807.45 146.99 347.44 531.04 953.57 339.98 1104.45 362.32 1057.28 465.15 949.02 545.95 1058.97 566.14
00001575 00000032 806.05 147.37 345.23 530.40 950.65 340.83 1101.66 361.12 1054.21 465.79 947.60 546.50 1057.58 564.85
00001576 00000033 804.73 148.58 343.94 528.92 949.71 340.99 1099.85 360.37 1052.98 465.87 946.85 546.73 1055.87 564.23
00001577 00000034 804.51 149.55 343.77 530.34 951.55 341.96 1098.57 361.60 1053.83 466.91 947.50 548.44 1053.95 566.05
00001578 00000035 803.72 150.05 346.93 540.72 955.09 342.19 1096.72 364.41 1053.14 471.53 947.03 550.85 1050.13 570.43
00001579 00000036 803.19 152.40 344.52 542.83 956.34 340.00 1089.90 365.44 1047.14 475.97 942.07 551.67 1037.04 574.02
00001580 00000037 803.34 152.88 343.51 543.61 955.43 339.91 1087.20 363.44 1045.30 478.52 937.94 554.21 1030.09 575.40
00001581 00000038 802.89 151.25 344.71 545.38 951.24 344.10 1091.33 366.38 1045.44 477.02 939.64 555.19 1040.17 574.92
00001582 00000039 802.01 153.09 343.37 540.01 951.31 347.05 1092.06 367.32 1047.13 477.01 941.21 555.14 1043.21 573.43
00001583 00000040 801.07 153.71 341.06 534.27 949.94 348.74 1091.44 366.78 1045.85 476.25 941.58 553.83 1045.55 570.16
00001584 00000041 799.17 153.54 337.14 533.18 947.04 348.23 1088.76 366.11 1044.69 474.54 938.58 552.67 1043.78 568.86
00001585 00000042 796.30 150.47 334.14 536.12 941.75 347.15 1086.26 364.41 1040.70 472.87 935.39 552.63 1042.40 568.03
00001586 00000043 791.54 152.37 332.89 530.35 935.85 347.71 1080.93 364.13 1033.33 475.29 927.53 552.45 1035.45 567.00
00001587 00000044 782.01 153.44 339.88 533.15 928.67 346.00 1074.56 363.15 1026.39 477.11 917.40 552.75 1026.32 567.80
00001588 00000045 780.88 159.78 341.03 527.99 920.32 351.30 1071.52 374.05 1017.64 474.26 913.20 554.02 1034.79 574.46
00001589 00000046 773.14 159.23 344.06 530.99 910.10 351.94 1065.00 372.97 1010.04 474.31 906.44 557.34 1029.05 576.33
00001590 00000047 769.88 157.62 343.87 533.62 904.64 349.55 1060.90 371.85 1003.81 474.09 900.95 557.79 1020.52 577.89
00001591 00000048 766.55 157.14 344.90 536.40 903.33 347.16 1057.96 369.07 1002.55 474.22 898.39 557.34 1015.84 577.35
00001592 00000049 765.23 154.13 343.28 539.61 904.83 346.40 1056.08 369.75 1002.34 475.58 898.04 555.91 1011.79 577.09
00001593 00000050 762.07 153.28 344.16 543.39 903.28 346.12 1054.77 368.88 1002.80 474.67 896.96 555.58 1012.68 576.44
00001594 00000051 760.67 151.51 343.45 545.83 900.37 344.67 1052.20 366.66 1000.77 473.68 894.56 554.63 1011.41 574.89
00001595 00000052 757.17 149.47 344.06 546.10 897.19 342.62 1047.58 367.21 995.81 473.05 888.03 552.26 1001.77 574.55
00001596 00000053 755.79 147.30 346.41 549.25 891.83 344.77 1047.84 367.80 993.75 473.42 888.01 554.93 1007.12 575.70
00001597 00000054 755.02 145.91 347.29 546.57 890.08 345.09 1048.27 367.38 992.95 472.73 887.62 553.20 1009.51 573.14
00001598 00000055 756.66 144.38 348.47 547.95 891.55 345.68 1051.55 367.30 995.01 472.65 890.43 554.24 1013.63 573.52
00001599 00000056 759.43 145.37 347.86 546.88 896.60 346.19 1055.33 368.40 999.29 472.42 894.61 554.36 1016.84 574.15
00001600 00000057 762.05 148.02 349.38 543.98 903.03 344.37 1059.89 368.44 1003.89 474.15 897.40 554.72 1016.72 576.16
00001601 00000058 765.26 149.73 348.22 555.00 913.96 343.87 1058.95 370.86 1010.14 477.27 899.38 555.94 1012.15 580.36
00001602 00000059 770.85 152.15 347.61 553.56 922.47 341.62 1063.71 369.63 1015.89 477.45 905.12 555.18 1015.82 580.36
00001603 00000060 777.05 151.61 346.32 551.63 928.81 344.79 1072.97 369.25 1024.57 475.86 915.04 558.34 1029.04 580.60
00001604 00000061 782.45 153.59 344.53 550.19 935.63 349.54 1079.85 371.58 1034.72 477.66 920.57 556.35 1042.32 576.76
00001605 00000062 786.09 152.72 342.49 548.15 939.44 350.90 1082.63 372.28 1038.06 479.16 924.23 556.67 1044.57 576.68
00001606 00000063 782.24 148.55 341.57 549.00 940.99 347.32 1083.68 366.61 1038.53 485.01 925.88 559.33 1029.74 576.19
00001607 00000064 785.57 147.68 341.60 547.85 944.44 348.33 1086.31 367.60 1041.56 485.55 928.53 558.55 1033.44 575.47
00001608 00000065 786.84 149.27 345.05 549.23 947.60 348.16 1088.90 368.98 1043.94 485.31 930.51 559.01 1035.28 577.07
00001609 00000066 791.03 150.48 347.41 552.19 952.17 346.96 1092.40 370.24 1048.03 486.32 934.38 558.79 1038.30 578.88
00001610 00000067 794.40 150.77 349.31 552.02 958.87 345.29 1095.09 370.11 1053.39 487.33 938.57 558.89 1038.70 580.45
00001611 00000068 798.36 152.00 350.33 553.29 965.71 343.67 1096.91 371.93 1057.87 487.65 943.21 559.23 1037.21 583.58
00001612 00000069 801.53 152.39 354.69 555.52 971.92 346.03 1105.59 373.94 1069.27 486.85 951.28 560.35 1049.60 584.54
00001613 00000070 809.26 158.24 350.50 542.81 982.22 345.09 1112.67 376.24 1080.50 483.21 960.41 556.08 1056.19 583.52
00001614 00000071 818.77 161.01 342.51 538.64 988.76 344.63 1120.97 377.28 1087.80 482.24 965.42 555.07 1065.02 584.64
00001615 DELETE   822.64 162.75 344.12 532.92 996.36 344.71 1123.77 377.36 1090.85 479.94 972.76 553.48 1067.18 582.96
00001616 DELETE   831.83 160.21 342.09 532.77 1005.35 342.94 1132.48 374.36 1101.43 475.90 982.34 553.25 1077.33 582.07
00001617 DELETE   840.66 159.91 340.22 527.19 1014.93 341.09 1141.73 370.74 1113.66 472.07 994.05 550.94 1089.55 578.39
00001618 00000075 838.97 152.26 340.06 523.59 1021.80 340.91 1144.55 360.75 1123.21 477.52 1003.84 544.73 1091.59 566.94
00001619 DELETE   843.12 146.48 339.57 533.33 1031.42 340.59 1148.95 359.88 1131.06 475.56 1015.27 543.51 1098.01 564.81
00001620 DELETE   845.15 146.46 336.27 525.79 1034.78 339.25 1148.71 359.37 1136.76 465.69 1022.66 537.74 1106.11 559.61
00001621 00000078 845.77 141.14 332.70 535.13 1040.36 337.05 1155.40 357.53 1152.64 456.49 1031.39 536.61 1114.01 553.41
00001622 00000079 852.64 143.12 330.67 532.28 1041.79 337.89 1158.61 357.84 1154.89 453.13 1034.51 536.22 1118.07 552.47
00001623 00000080 856.44 143.84 336.94 530.98 1037.15 332.76 1159.34 351.40 1144.00 457.88 1029.64 541.11 1118.69 557.13
00001624 00000081 861.94 143.94 328.34 528.71 1049.73 334.78 1164.99 353.60 1162.57 455.71 1035.71 534.48 1127.76 552.07
00001625 00000082 864.42 137.54 326.50 537.57 1040.54 341.08 1162.62 356.48 1153.94 445.27 1038.16 533.33 1128.45 546.67
00001626 DELETE   865.94 130.86 328.35 538.87 1038.05 340.05 1165.64 356.95 1153.36 442.58 1036.13 530.42 1131.58 545.52
00001627 DELETE   866.50 129.18 323.31 543.64 1038.68 333.10 1158.71 348.86 1153.86 437.88 1035.82 530.66 1123.78 545.00
00001628 00000085 869.66 122.85 332.22 548.22 1037.90 328.12 1164.48 345.97 1151.74 429.91 1034.90 524.13 1130.95 540.22
00001629 00000086 872.32 117.22 335.52 553.94 1039.88 317.03 1165.72 339.78 1149.52 420.29 1030.33 514.03 1130.83 534.38
00001630 00000087 873.21 113.86 343.01 542.82 1035.01 307.99 1174.42 330.90 1144.60 411.57 1029.42 503.40 1139.24 523.71
00001631 00000088 877.65 107.73 342.13 529.39 1029.65 302.74 1179.95 327.41 1141.82 401.83 1031.75 496.52 1146.97 518.03
00001632 00000089 879.16 100.12 342.78 536.12 1027.56 298.35 1176.24 320.48 1137.75 397.09 1030.18 491.39 1146.45 510.85
00001633 00000090 879.36 95.71 343.55 539.27 1026.65 292.39 1174.93 315.30 1138.72 392.19 1031.22 489.85 1145.38 509.85
00001634 00000091 879.10 99.40 343.18 544.82 1031.13 286.95 1170.86 316.48 1139.38 390.86 1027.24 487.81 1136.07 513.29
00001635 00000092 878.93 101.68 342.78 548.90 1034.96 286.50 1171.88 316.29 1141.00 391.51 1027.31 486.15 1138.53 512.12
00001636 00000093 879.23 104.19 344.37 549.95 1033.64 289.07 1175.95 319.67 1141.65 394.11 1021.11 486.38 1141.18 513.35
00001637 00000094 878.09 106.64 345.33 548.82 1031.86 290.74 1175.28 320.35 1139.52 395.87 1018.50 487.32 1140.98 513.50
00001638 00000095 874.46 107.34 344.86 548.04 1030.23 290.88 1173.05 322.39 1137.52 396.18 1015.52 487.22 1136.21 514.88
00001639 00000096 872.65 106.20 344.42 542.59 1024.68 293.39 1171.86 323.44 1130.91 395.86 1013.96 488.19 1133.90 514.57
00001640 00000097 871.63 104.44 341.79 537.56 1020.45 294.53 1168.48 323.79 1124.97 394.93 1012.54 488.20 1130.06 513.73
00001641 00000098 868.27 102.89 339.86 537.83 1016.38 292.65 1162.05 323.64 1115.92 394.09 1009.11 488.52 1121.02 514.99
00001642 00000099 862.85 102.50 339.86 535.73 1009.64 293.74 1157.91 322.76 1110.98 391.81 1006.53 488.38 1122.42 512.81
00001643 00000100 853.93 106.64 339.27 528.06 1001.40 295.03 1151.32 322.37 1105.30 393.70 999.55 487.92 1118.13 511.07
00001644 00000101 850.75 112.49 340.33 524.46 999.88 301.01 1147.16 325.15 1104.01 393.84 991.63 489.57 1118.56 512.65
00001645 00000102 845.12 112.56 337.38 522.82 990.91 299.08 1138.21 320.91 1095.54 395.73 984.32 490.32 1108.84 511.35
00001646 00000103 835.30 113.03 341.74 524.96 980.69 299.91 1129.03 323.44 1087.13 399.89 975.01 490.66 1100.39 512.94
00001647 00000104 831.06 114.23 337.56 527.77 973.42 299.76 1123.21 328.66 1077.59 403.46 966.97 490.38 1091.33 516.55
00001648 00000105 821.42 114.53 342.22 527.96 967.43 300.62 1116.59 333.77 1070.72 407.28 958.98 489.96 1081.48 519.08
00001649 00000106 815.07 115.12 341.99 530.77 962.03 306.87 1109.51 339.56 1062.42 411.17 950.97 491.60 1073.02 520.56
00001650 00000107 810.78 118.08 339.34 523.50 953.55 308.58 1101.98 337.13 1052.58 412.36 945.90 491.94 1067.08 517.21
00001651 00000108 803.72 114.98 341.02 529.62 948.59 309.89 1097.13 337.51 1046.08 416.56 940.62 496.25 1059.03 520.50
00001652 00000109 798.24 114.06 340.87 532.83 944.89 310.08 1094.49 340.79 1042.55 413.87 936.87 496.99 1054.80 523.38
00001653 00000110 793.77 114.79 338.82 532.88 942.20 308.65 1086.98 340.39 1037.48 412.19 933.12 497.39 1046.82 524.32
00001654 00000111 789.64 113.37 342.20 540.10 941.76 304.93 1080.39 335.66 1030.40 418.43 929.05 501.21 1033.53 527.17
00001655 00000112 784.61 115.32 339.27 536.24 935.82 307.58 1075.24 338.33 1026.19 422.52 924.58 504.15 1028.06 530.01
00001656 00000113 787.81 130.79 335.83 523.45 930.06 309.93 1072.49 336.02 1020.13 419.48 917.41 506.23 1036.77 530.65
00001657 00000114 783.74 128.59 338.08 520.91 926.33 309.95 1072.37 334.25 1020.50 419.45 917.43 504.53 1040.42 527.14
00001658 00000115 778.95 127.81 337.98 522.42 922.35 309.44 1069.21 333.94 1019.46 418.40 914.53 503.35 1038.89 526.14
00001659 00000116 776.53 126.42 339.26 516.42 918.04 309.39 1068.32 333.24 1017.30 418.44 912.68 502.63 1036.95 524.93
00001660 00000117 772.64 126.73 340.98 520.01 917.18 309.73 1065.59 333.27 1016.31 418.24 910.53 501.79 1035.15 523.63
00001661 00000118 771.20 127.94 341.11 520.13 914.68 310.79 1064.01 333.63 1015.37 418.63 910.09 503.43 1034.02 524.69
00001662 00000119 768.11 130.11 341.65 521.38 914.03 311.95 1061.78 336.08 1015.52 419.25 908.23 504.01 1031.15 526.21
00001663 00000120 768.42 130.88 341.68 521.95 914.32 313.96 1059.74 337.55 1015.39 421.18 909.05 506.22 1028.95 528.11
00001664 00000121 766.77 135.22 343.55 521.49 912.98 316.52 1058.88 339.20 1014.93 424.92 908.96 509.82 1028.38 530.50
00001665 00000122 765.31 135.90 343.83 526.53 910.29 317.98 1056.44 340.70 1011.87 428.94 906.90 514.40 1025.58 534.81
00001666 00000123 763.29 137.69 342.13 525.01 904.27 320.61 1049.88 344.75 1004.07 435.07 901.48 516.88 1017.39 538.65
00001667 00000124 757.32 135.66 341.17 527.88 899.44 322.78 1042.26 348.25 997.29 441.08 892.83 518.53 1005.59 541.68
00001668 00000125 755.65 136.34 342.26 526.88 894.91 322.57 1041.05 348.06 994.01 444.47 889.62 519.81 1003.38 542.97
00001669 00000126 754.44 135.68 343.44 529.60 893.01 323.20 1040.60 349.02 992.20 447.54 887.84 522.24 1002.09 545.55
00001670 00000127 754.71 137.58 343.02 533.26 893.56 325.18 1040.45 349.52 993.49 449.18 889.67 526.29 1003.18 548.14
00001671 00000128 756.10 137.34 342.80 536.81 896.07 326.35 1043.86 349.72 997.62 452.10 892.94 530.01 1007.68 550.80
00001672 00000129 757.85 138.62 342.72 536.48 899.80 328.35 1045.48 351.34 999.97 454.25 896.43 531.93 1009.68 552.17
00001673 00000130 758.11 139.05 344.44 536.52 898.90 329.09 1047.99 352.81 1000.00 456.99 896.53 535.16 1009.86 556.10
00001674 00000131 757.88 140.19 345.81 536.11 899.98 328.93 1049.01 352.51 1001.29 456.42 897.23 534.05 1012.55 554.71
00001675 00000132 759.82 141.19 346.88 531.53 902.42 329.36 1051.55 353.27 1003.23 456.22 899.17 533.52 1013.18 554.55
00001676 00000133 761.50 142.34 347.55 532.28 906.19 328.58 1054.19 353.20 1005.98 456.56 900.97 533.83 1014.72 555.38
00001677 00000134 763.39 143.28 347.89 534.46 912.52 328.64 1058.45 353.40 1013.33 458.79 906.13 535.85 1019.54 557.23
00001678 00000135 764.78 144.22 351.34 535.65 917.96 329.41 1062.02 354.37 1017.81 459.49 908.37 536.43 1021.90 558.12
00001679 00000136 764.29 144.63 353.82 535.63 920.52 327.79 1063.51 355.35 1017.98 461.41 907.92 536.12 1019.95 560.02
00001680 00000137 764.19 143.84 354.35 536.53 919.80 327.73 1064.44 356.09 1017.62 461.12 907.00 536.37 1020.39 560.96
00001681 00000138 764.22 142.09 355.86 538.95 916.51 329.01 1063.95 357.88 1013.84 461.83 905.46 538.08 1020.22 563.11
00001682 00000139 763.91 141.40 355.44 540.61 914.97 328.29 1064.06 356.32 1012.96 462.42 905.22 538.39 1021.96 562.57
00001683 00000140 764.09 140.14 356.06 539.44 913.99 327.54 1064.04 354.50 1012.21 462.05 905.55 538.08 1022.02 561.25
00001684 00000141 763.33 137.54 357.62 540.73 913.57 327.07 1064.77 353.60 1012.74 461.52 906.27 537.46 1023.64 560.15
00001685 00000142 761.67 135.67 358.11 545.04 913.31 325.85 1063.58 352.50 1011.52 461.31 904.42 537.84 1021.47 560.57
00001686 00000143 759.47 132.08 355.58 553.46 910.88 323.50 1057.11 350.49 1006.67 456.86 901.49 535.99 1016.76 559.03
00001687 00000144 754.44 130.49 357.60 557.15 899.86 324.16 1054.11 352.96 997.59 457.41 887.10 535.50 1007.45 561.42
00001688 00000145 749.22 124.99 358.93 564.30 896.20 321.04 1051.06 350.50 994.36 458.21 880.17 535.26 999.14 562.21
00001689 00000146 748.57 119.15 355.60 563.91 891.56 320.98 1048.28 345.71 994.15 453.98 882.93 534.36 1007.28 556.33
00001690 00000147 746.30 113.59 357.73 563.48 890.11 317.76 1046.85 341.17 993.01 450.45 883.45 530.97 1006.32 551.74
00001691 00000148 745.54 109.29 358.77 568.05 891.03 317.06 1048.49 340.50 995.19 447.66 884.90 529.25 1010.50 549.89
00001692 00000149 747.28 104.40 359.25 571.81 892.06 313.78 1050.58 337.47 995.77 442.00 887.67 525.85 1015.08 546.45
00001693 00000150 751.21 102.08 358.54 570.18 896.01 311.96 1055.87 334.06 1001.64 437.89 894.30 524.94 1021.18 544.43
00001694 00000151 751.05 96.51 362.49 579.24 898.79 307.80 1060.68 330.46 1006.17 434.53 895.68 524.12 1025.58 543.96
00001695 00000152 751.46 92.14 365.21 583.60 900.03 305.20 1062.82 326.66 1007.86 431.16 896.65 521.79 1029.06 540.52
00001696 00000153 752.29 88.33 365.53 585.26 899.61 303.34 1063.19 323.51 1007.05 430.25 897.03 521.47 1030.48 538.92
00001697 00000154 753.89 85.57 365.65 587.67 899.47 302.03 1064.90 321.85 1007.26 428.88 897.72 521.18 1033.08 538.19
00001698 00000155 755.20 84.31 365.31 588.44 899.92 301.64 1066.27 321.02 1008.77 427.77 898.76 521.06 1035.57 537.69
00001699 00000156 757.71 84.99 364.95 584.53 901.16 301.37 1068.49 319.91 1009.33 427.48 900.65 519.84 1038.53 535.65
00001700 00000157 760.88 85.42 364.27 581.16 904.94 300.76 1071.60 318.69 1011.63 425.24 903.81 517.24 1042.54 532.75
00001701 00000158 762.95 85.31 364.38 580.48 909.02 299.56 1074.18 318.35 1014.46 425.12 906.82 515.85 1044.30 532.06
00001702 00000159 764.74 87.66 363.13 577.41 910.57 298.54 1075.63 318.26 1015.82 423.99 907.77 515.22 1044.58 532.46
00001703 00000160 765.06 90.97 362.12 575.80 912.33 299.31 1074.61 319.35 1016.91 423.68 908.53 514.35 1044.12 531.89
00001704 00000161 766.46 93.99 361.75 573.48 913.49 301.07 1076.82 320.99 1018.87 423.45 909.34 515.16 1045.87 532.72
00001705 00000162 767.69 95.73 360.95 570.62 913.74 301.62 1077.07 322.29 1018.87 423.28 909.48 515.85 1045.23 534.10
00001706 00000163 769.76 98.44 360.82 568.06 915.12 301.89 1079.33 324.15 1020.32 423.15 909.37 516.35 1044.73 536.12
00001707 00000164 771.79 100.99 361.33 567.99 918.41 301.95 1080.26 324.45 1022.40 421.75 912.67 516.39 1046.35 536.54
00001708 00000165 772.60 102.65 361.91 566.35 923.03 302.95 1082.47 325.54 1027.53 421.97 915.98 515.94 1048.57 536.42
