Video ID: 	rIcZumjxg1o
H: 	1080
W: 	1920
FPS: 	23.976023976023978

FRAME INDEX X0 Y0 W H [Landmarks (5 Points)]

00029802 00000000 676.61 250.43 423.39 612.33 905.57 481.43 1063.36 481.23 1055.22 617.07 913.13 711.29 1039.40 714.28
00029803 DELETE   664.71 251.75 426.98 608.22 884.40 477.09 1052.66 486.77 1028.90 614.44 890.81 705.70 1024.94 716.21
00029804 00000002 661.38 252.90 427.42 606.55 877.13 473.38 1049.08 488.05 1017.99 614.98 882.75 703.05 1020.97 717.17
00029805 00000003 664.09 248.06 419.02 605.88 868.09 476.04 1038.40 480.01 1006.29 612.78 883.36 707.14 1015.18 710.67
00029806 00000004 664.01 245.54 416.53 606.61 866.81 474.87 1036.48 478.81 1004.68 612.23 883.91 706.47 1014.49 709.76
00029807 00000005 663.56 244.62 414.82 607.76 866.73 474.63 1034.86 477.76 1006.05 611.78 883.89 706.53 1013.77 709.20
00029808 00000006 662.49 245.54 414.38 607.30 865.42 474.60 1033.83 477.60 1005.92 611.08 883.69 706.61 1014.14 709.11
00029809 00000007 662.86 244.02 414.25 608.77 865.27 475.66 1033.23 477.49 1005.79 610.66 883.96 707.20 1013.76 708.79
00029810 00000008 661.07 245.58 414.28 607.45 864.01 475.61 1031.24 476.86 1003.46 611.08 883.29 707.58 1012.00 708.75
00029811 00000009 658.11 241.68 416.08 611.91 862.48 473.97 1029.34 476.44 1002.06 610.15 880.63 706.54 1009.04 708.77
00029812 00000010 657.17 239.16 415.32 614.55 860.21 471.13 1028.17 474.21 999.77 608.94 878.74 706.37 1006.32 709.06
00029813 00000011 655.65 239.42 415.93 617.57 859.46 472.02 1027.16 474.56 1000.22 609.19 878.30 709.12 1005.28 711.50
00029814 00000012 658.64 235.64 414.19 618.78 863.93 469.92 1028.23 472.59 1003.35 607.92 881.23 706.69 1005.70 709.05
00029815 00000013 661.18 239.95 413.44 615.68 870.32 470.43 1031.13 474.68 1008.54 606.89 885.93 706.86 1007.09 710.48
00029816 00000014 660.07 241.17 421.71 615.70 882.83 463.61 1041.04 478.24 1023.29 603.85 891.28 697.95 1016.65 711.51
00029817 00000015 669.67 248.13 418.64 608.65 888.28 464.13 1052.01 469.79 1033.01 597.73 904.18 706.60 1019.81 710.93
00029818 00000016 671.92 236.64 417.73 618.08 899.27 461.56 1048.78 469.67 1046.17 600.29 903.61 698.33 1024.27 707.05
00029819 00000017 682.04 238.99 414.47 611.14 906.86 462.74 1055.78 469.93 1054.36 599.00 914.42 697.03 1034.04 704.95
00029820 00000018 689.35 234.24 411.89 604.52 912.76 463.83 1069.67 470.87 1063.22 591.99 926.70 697.48 1041.49 704.30
00029821 00000019 693.24 227.64 413.34 616.50 923.61 467.42 1072.92 471.75 1071.51 591.17 939.57 699.40 1050.28 702.14
00029822 00000020 697.96 227.76 410.58 615.71 927.61 464.26 1077.45 469.65 1076.32 591.66 944.11 699.88 1053.66 703.49
00029823 00000021 700.35 227.97 410.66 611.59 930.97 463.12 1081.35 470.32 1080.62 591.69 946.88 697.67 1056.93 702.89
00029824 00000022 701.78 228.05 409.56 608.61 931.02 460.88 1082.40 468.83 1082.06 589.71 947.91 695.53 1058.69 701.47
00029825 00000023 702.59 225.34 409.21 610.89 935.58 459.56 1084.16 471.16 1085.66 588.76 951.05 694.12 1059.45 703.11
00029826 00000024 704.33 225.42 409.33 612.32 939.14 457.96 1084.58 470.79 1088.88 587.05 951.85 692.52 1058.76 702.73
00029827 00000025 705.56 218.49 409.51 625.08 943.54 456.63 1082.66 469.15 1093.15 586.09 952.32 693.84 1053.78 704.42
00029828 00000026 706.89 219.89 409.34 623.18 945.44 455.01 1082.83 468.14 1095.82 584.74 951.90 692.26 1052.73 703.63
00029829 00000027 708.53 219.12 408.45 622.28 947.17 454.20 1085.73 468.62 1097.73 582.81 952.64 690.70 1055.96 703.23
00029830 00000028 711.26 217.56 405.80 622.35 950.12 452.83 1088.78 465.89 1102.23 580.92 956.42 689.74 1060.87 701.11
00029831 00000029 712.78 213.74 405.20 624.91 952.09 449.65 1089.16 460.01 1105.52 577.45 958.78 687.22 1063.28 696.64
00029832 00000030 713.31 208.71 404.91 626.56 952.80 448.04 1089.90 455.79 1107.65 574.64 961.80 685.61 1065.61 692.99
00029833 00000031 713.76 206.09 403.72 626.98 952.09 446.11 1089.34 453.49 1107.10 572.19 963.96 684.31 1067.16 691.29
00029834 00000032 712.49 209.43 402.86 621.92 949.77 445.92 1087.30 453.24 1104.29 572.48 961.87 684.04 1064.68 690.95
00029835 00000033 712.04 206.05 400.44 620.96 947.16 441.03 1083.23 445.75 1103.22 567.21 958.56 678.77 1062.04 684.00
00029836 00000034 711.39 207.66 398.89 617.02 945.69 439.69 1082.43 445.61 1100.97 565.17 957.68 677.16 1060.37 683.30
00029837 00000035 710.16 208.63 400.18 610.08 941.44 433.37 1082.59 438.78 1098.27 561.27 953.50 672.19 1058.75 677.92
00029838 00000036 710.47 207.70 400.96 606.70 939.31 428.58 1084.33 434.31 1097.93 556.71 952.71 668.42 1061.29 674.36
00029839 00000037 709.71 207.09 401.93 605.10 938.37 426.92 1083.04 432.02 1096.91 554.99 950.16 665.53 1059.21 671.25
00029840 00000038 710.46 209.03 401.37 603.97 936.47 427.33 1083.61 431.58 1095.94 554.94 949.81 666.67 1061.21 671.54
00029841 00000039 710.68 206.59 401.10 604.82 939.12 426.56 1084.70 432.80 1097.26 554.23 951.66 665.97 1060.60 672.44
00029842 00000040 710.79 205.73 401.82 607.39 940.18 427.54 1084.01 431.90 1099.48 554.64 953.67 667.49 1062.12 672.45
00029843 00000041 711.28 207.15 401.97 605.53 942.74 427.99 1084.71 433.85 1100.65 554.10 953.75 665.53 1061.44 671.75
00029844 00000042 711.19 206.21 402.76 606.82 942.51 426.68 1083.76 432.91 1100.06 553.29 952.71 664.52 1060.14 671.24
00029845 00000043 711.91 205.72 402.98 612.08 940.89 424.91 1082.10 430.14 1098.73 551.46 952.61 666.27 1059.77 672.09
00029846 00000044 709.95 204.23 405.20 621.46 941.30 422.56 1076.05 430.19 1095.29 548.91 949.97 667.05 1052.59 674.80
00029847 00000045 710.41 205.05 402.86 624.45 938.95 421.18 1072.93 430.99 1091.22 549.27 941.40 665.86 1044.80 676.19
00029848 00000046 708.79 200.99 399.63 625.93 934.68 420.57 1071.15 432.93 1085.67 547.16 939.83 664.18 1043.46 676.25
00029849 00000047 705.17 199.87 398.90 625.21 928.32 416.88 1065.69 426.76 1080.58 542.03 937.27 661.58 1041.72 671.51
00029850 00000048 699.98 206.28 401.94 618.71 920.65 416.56 1062.01 425.50 1074.25 541.21 931.31 659.99 1039.97 668.58
00029851 00000049 693.02 205.33 404.66 618.53 913.21 417.30 1056.08 424.38 1067.31 539.81 926.42 658.85 1035.92 665.81
00029852 00000050 690.61 204.04 402.47 619.04 914.14 421.18 1051.61 430.09 1063.39 540.43 924.26 657.38 1030.63 665.84
00029853 00000051 685.80 201.57 405.48 619.13 912.97 431.39 1051.44 438.75 1064.10 542.74 921.50 654.89 1029.26 661.85
00029854 00000052 684.51 203.41 405.86 616.65 911.63 423.51 1048.24 430.28 1060.51 542.12 919.63 655.60 1024.90 662.10
00029855 00000053 682.09 203.48 408.99 614.71 907.96 419.93 1045.81 423.81 1058.72 540.22 917.64 654.73 1025.18 658.79
00029856 00000054 680.87 204.59 410.65 613.78 904.24 417.32 1045.44 421.24 1058.40 538.43 915.66 654.15 1026.01 658.13
00029857 00000055 681.16 206.75 410.70 611.42 903.47 417.26 1046.53 420.92 1057.50 538.46 915.37 654.20 1027.39 657.88
00029858 00000056 682.11 204.60 409.60 613.20 903.74 416.99 1046.61 420.46 1057.89 538.26 916.17 653.92 1027.69 657.47
00029859 00000057 681.27 204.38 410.72 613.46 904.67 419.69 1048.52 425.31 1058.04 539.92 914.67 653.56 1027.56 658.90
00029860 00000058 679.26 203.73 411.61 610.08 904.39 419.50 1048.83 428.34 1054.87 540.72 913.59 650.51 1026.06 658.19
00029861 00000059 677.38 209.09 411.11 605.22 899.22 420.65 1048.99 432.82 1049.51 543.41 908.00 650.24 1023.66 660.49
00029862 00000060 676.40 209.02 412.10 610.08 899.18 421.28 1048.54 435.54 1048.85 546.50 903.76 653.13 1019.71 665.31
00029863 00000061 678.25 210.55 413.17 617.57 904.35 424.06 1050.12 438.91 1054.05 548.61 906.74 656.37 1021.68 669.08
00029864 00000062 689.47 215.94 407.82 617.20 922.20 432.98 1061.84 451.43 1067.79 553.22 917.23 659.80 1030.62 675.89
00029865 00000063 699.79 219.56 405.43 617.37 942.77 439.88 1072.66 460.16 1085.50 563.47 930.15 666.86 1033.47 685.19
00029866 00000064 708.54 222.29 406.26 616.84 955.33 445.42 1081.92 462.37 1098.90 571.36 944.19 674.28 1045.46 689.90
00029867 00000065 709.17 231.39 413.67 610.60 970.43 449.40 1072.35 466.05 1107.45 584.99 955.82 675.86 1035.56 692.54
00029868 00000066 726.39 231.80 416.51 604.86 985.91 454.99 1095.95 463.61 1124.69 591.89 972.98 686.37 1063.45 696.88
00029869 00000067 727.90 243.38 420.39 596.85 990.17 465.93 1101.03 467.93 1134.25 598.84 984.19 694.97 1071.32 700.29
00029870 00000068 728.69 245.46 423.40 603.69 991.78 477.66 1106.31 476.83 1136.66 608.54 986.36 704.94 1078.87 707.59
00029871 00000069 729.90 246.54 427.71 614.16 991.13 485.94 1109.97 481.75 1135.66 619.94 982.31 715.56 1078.91 716.35
00029872 00000070 730.86 248.39 425.55 618.76 990.93 492.56 1107.94 491.44 1134.65 624.85 985.58 722.16 1076.89 725.35
00029873 00000071 729.69 253.49 426.21 621.25 985.30 494.23 1108.82 493.78 1129.06 628.20 974.87 724.43 1072.45 729.02
00029874 00000072 729.22 260.31 422.90 624.49 977.82 497.45 1110.83 501.42 1121.20 636.50 965.58 731.19 1068.80 739.35
00029875 00000073 726.46 264.01 420.86 620.69 970.86 494.94 1110.49 502.87 1111.82 639.86 956.53 730.20 1065.20 741.35
00029876 00000074 720.61 271.75 419.91 619.69 967.30 500.79 1096.46 511.26 1100.83 637.74 951.28 728.91 1047.12 739.63
00029877 00000075 716.37 267.48 419.67 619.82 963.27 496.80 1092.40 508.62 1093.70 633.73 947.64 725.51 1044.28 737.27
00029878 00000076 718.64 269.60 409.36 614.62 958.63 503.66 1098.53 507.04 1102.20 636.01 948.94 732.63 1059.79 736.83
00029879 00000077 712.91 264.93 412.37 618.74 952.41 499.82 1093.71 503.16 1096.34 634.11 942.27 729.54 1055.24 733.83
00029880 00000078 708.78 261.22 411.44 625.99 940.17 498.70 1089.15 503.23 1081.54 632.46 929.51 728.53 1050.57 733.86
00029881 00000079 699.74 259.48 414.99 629.41 929.25 492.49 1081.54 499.07 1070.24 627.35 919.88 724.33 1042.81 730.99
00029882 00000080 699.26 252.50 415.38 636.27 928.14 491.04 1080.27 496.20 1069.43 624.98 920.97 723.93 1043.30 729.38
00029883 00000081 700.49 244.04 417.24 643.31 929.81 485.72 1082.69 488.36 1076.72 621.16 923.72 723.99 1045.38 727.83
00029884 00000082 702.73 243.47 414.07 650.85 931.32 486.05 1080.58 488.30 1079.15 619.16 923.60 724.84 1043.74 728.66
00029885 00000083 701.15 241.79 415.85 653.97 928.18 484.96 1078.03 488.62 1073.58 619.39 916.10 722.33 1038.54 727.60
00029886 00000084 696.77 243.13 417.91 653.09 923.06 484.01 1073.60 484.38 1070.39 617.05 913.64 720.31 1037.60 722.62
00029887 00000085 698.59 239.03 419.20 653.47 925.35 482.46 1076.05 480.44 1072.33 617.72 915.51 719.21 1039.78 719.84
00029888 00000086 702.88 242.40 414.94 641.47 927.59 482.43 1079.23 480.57 1076.38 619.37 915.74 716.43 1042.10 717.59
00029889 00000087 698.24 242.98 417.64 633.16 925.73 482.88 1077.69 483.28 1073.25 619.37 913.95 713.47 1037.99 716.52
00029890 00000088 695.44 245.57 418.42 627.22 921.79 484.95 1081.53 485.46 1072.07 620.05 914.32 713.16 1044.49 715.64
00029891 00000089 699.54 243.66 414.27 623.83 926.43 486.19 1083.99 486.95 1074.89 621.16 921.04 714.74 1046.69 717.55
00029892 00000090 702.10 238.14 413.46 627.22 934.23 487.21 1088.79 491.17 1082.87 620.06 927.03 712.34 1051.07 717.44
00029893 00000091 707.50 238.56 413.36 631.13 938.01 487.18 1092.06 489.72 1087.52 623.09 930.75 716.76 1054.94 720.63
00029894 00000092 701.68 238.30 416.29 632.27 933.74 484.80 1087.60 488.71 1084.18 623.00 922.76 716.06 1045.49 721.75
00029895 00000093 698.40 238.16 419.74 639.63 931.07 482.25 1083.90 482.11 1081.02 623.44 918.11 716.04 1042.99 718.68
00029896 00000094 698.32 238.55 419.43 635.05 932.19 479.56 1083.60 480.93 1081.94 619.21 922.15 711.65 1045.86 715.43
00029897 00000095 697.54 233.58 420.82 634.70 937.03 477.85 1084.80 484.34 1082.04 614.75 926.77 705.33 1046.51 712.54
00029898 00000096 702.05 229.79 418.37 635.13 938.99 477.02 1087.00 486.00 1083.03 612.07 927.97 701.95 1049.00 711.31
00029899 00000097 702.89 234.41 415.60 631.91 941.93 484.89 1086.75 489.37 1084.59 616.07 928.67 704.56 1049.74 710.44
00029900 00000098 699.65 235.20 417.42 630.16 939.38 488.84 1086.97 494.81 1084.78 616.40 927.69 704.23 1051.90 711.10
00029901 00000099 702.12 239.64 414.96 628.08 937.09 485.90 1087.89 491.32 1082.06 615.90 928.35 706.72 1054.23 712.78
00029902 00000100 702.68 234.62 414.66 629.66 935.10 481.06 1088.22 488.42 1082.02 614.90 928.65 705.30 1054.19 713.34
00029903 00000101 701.91 236.30 416.02 627.09 935.83 480.76 1088.23 486.82 1085.49 614.49 930.90 706.25 1054.68 713.47
00029904 00000102 703.08 240.57 417.05 629.60 934.02 476.08 1087.83 482.97 1085.54 611.87 930.24 708.48 1054.74 716.16
00029905 00000103 704.91 236.32 417.50 639.27 939.07 473.60 1084.87 483.53 1086.64 612.10 930.24 710.52 1047.15 720.90
00029906 00000104 705.86 237.97 416.20 634.97 941.32 473.61 1085.67 484.07 1088.27 611.73 931.24 709.65 1046.61 720.70
00029907 00000105 706.89 231.46 414.73 636.47 941.51 476.04 1088.44 483.98 1092.33 612.26 935.91 708.93 1052.51 717.79
00029908 00000106 708.25 232.55 411.25 630.68 941.69 478.03 1089.91 485.19 1093.01 611.23 938.65 708.00 1055.45 716.32
00029909 00000107 706.12 230.11 412.07 630.25 940.22 476.10 1089.53 482.74 1093.59 609.17 939.84 707.27 1055.51 715.15
00029910 00000108 704.64 230.00 413.37 630.93 938.10 475.45 1088.42 483.00 1090.74 608.43 940.81 708.54 1055.62 716.85
00029911 00000109 700.64 235.07 416.05 625.41 932.19 472.35 1087.06 479.02 1085.93 605.76 938.19 708.45 1054.32 715.51
00029912 00000110 696.42 238.44 416.81 621.28 926.96 470.16 1084.06 476.48 1081.01 603.75 934.67 707.16 1052.45 713.54
00029913 00000111 692.08 243.55 418.71 614.09 917.84 470.09 1079.84 472.90 1069.40 602.22 927.34 705.33 1049.75 708.33
00029914 00000112 689.43 249.34 414.46 607.75 905.90 469.99 1069.34 472.56 1053.26 599.38 918.01 703.01 1041.95 705.30
00029915 00000113 680.82 253.42 411.53 600.76 893.54 472.39 1059.38 472.49 1043.07 598.58 906.40 700.47 1033.30 701.06
00029916 00000114 670.85 251.84 418.59 601.31 879.46 470.36 1051.44 474.94 1024.44 602.95 894.53 701.29 1023.89 704.78
00029917 00000115 662.18 245.32 416.04 603.21 864.61 471.02 1032.27 471.12 1006.73 607.25 879.09 700.90 1013.02 701.18
00029918 00000116 659.55 240.52 416.36 608.24 861.43 469.44 1030.38 469.89 1005.00 606.80 875.34 700.33 1010.85 700.93
00029919 00000117 660.89 238.09 414.59 611.29 862.35 469.94 1029.42 469.47 1005.82 606.11 878.36 701.23 1011.66 700.91
00029920 00000118 662.40 238.08 413.42 610.04 862.42 469.92 1029.86 467.48 1007.28 604.39 880.19 701.54 1012.85 699.63
00029921 00000119 660.35 237.49 413.87 611.67 861.42 469.04 1028.11 467.97 1005.40 605.02 877.76 700.39 1011.01 699.51
00029922 00000120 658.67 237.32 414.70 611.02 860.35 467.15 1027.61 468.18 1003.04 604.43 874.94 698.43 1008.45 699.30
00029923 00000121 660.53 236.39 414.60 610.32 862.65 465.78 1028.42 467.74 1004.51 601.95 877.23 696.37 1009.44 697.88
00029924 00000122 663.27 237.45 416.16 606.49 868.40 466.75 1034.68 470.06 1009.72 601.88 884.63 696.49 1015.43 699.05
00029925 00000123 670.27 232.04 411.58 610.84 876.12 462.97 1040.94 466.33 1018.69 595.96 891.35 693.98 1019.86 696.58
00029926 00000124 674.29 232.48 412.17 611.97 881.75 461.69 1046.22 465.53 1025.65 592.34 895.83 693.15 1024.20 696.23
00029927 00000125 675.41 228.54 414.38 616.79 885.84 464.67 1048.59 466.05 1030.93 592.62 898.45 694.49 1026.42 695.73
00029928 00000126 677.47 232.92 414.09 614.00 887.49 465.71 1050.89 468.17 1032.68 593.96 899.66 695.44 1027.83 697.54
00029929 00000127 683.96 243.13 411.16 603.35 892.38 463.69 1058.76 470.40 1037.10 595.02 902.17 693.05 1029.50 699.19
00029930 00000128 685.11 246.12 412.67 602.67 895.02 464.05 1062.76 470.58 1040.22 597.33 903.72 695.29 1031.78 701.35
00029931 00000129 686.44 243.89 412.00 606.72 895.59 465.75 1063.59 472.15 1040.77 598.19 904.29 695.91 1033.52 701.87
00029932 00000130 682.07 243.16 416.22 611.02 894.28 463.71 1058.84 474.66 1042.31 605.52 901.52 697.08 1037.19 707.79
00029933 00000131 675.60 244.01 418.87 609.62 890.08 465.19 1054.72 475.17 1038.19 606.30 895.98 697.77 1032.71 708.17
00029934 00000132 672.82 244.53 419.96 609.47 885.86 464.40 1053.17 476.17 1032.69 606.45 890.21 697.08 1030.08 708.91
00029935 00000133 671.01 243.32 419.50 607.47 883.80 463.28 1051.99 475.79 1029.35 605.73 887.14 694.98 1027.81 707.33
00029936 00000134 670.92 240.79 416.35 608.16 879.89 470.10 1047.71 470.04 1025.34 603.11 889.09 699.36 1023.16 699.69
00029937 00000135 671.79 238.30 415.28 607.45 880.75 469.27 1046.63 469.40 1024.64 602.09 889.59 696.54 1023.21 696.99
00029938 00000136 670.97 235.92 418.53 607.18 882.37 467.55 1048.62 467.29 1026.75 600.29 888.54 692.00 1024.92 692.37
00029939 00000137 672.63 235.58 417.80 604.98 884.33 467.40 1050.12 466.37 1029.21 598.37 889.78 689.34 1026.80 689.25
00029940 00000138 672.95 234.50 419.62 601.81 889.03 465.85 1051.81 465.38 1033.93 595.37 894.05 684.18 1028.72 684.63
00029941 00000139 677.22 232.10 417.27 605.04 894.27 466.66 1054.58 465.63 1038.86 594.40 900.42 685.85 1032.03 685.72
00029942 00000140 680.98 226.51 417.77 611.82 899.01 466.31 1061.11 466.97 1044.13 591.47 906.58 686.08 1038.34 686.84
00029943 00000141 683.54 226.95 417.91 610.92 900.79 466.20 1064.36 467.03 1046.64 590.00 907.83 686.17 1039.95 686.98
00029944 00000142 686.20 223.21 418.53 614.05 904.11 465.43 1068.06 467.45 1049.07 588.87 909.46 685.29 1041.55 687.25
00029945 00000143 689.25 220.85 418.83 616.58 907.08 465.14 1072.67 467.86 1051.07 589.26 913.39 686.65 1045.86 688.91
00029946 00000144 692.71 218.21 418.77 620.11 910.00 464.44 1076.64 468.64 1054.33 588.75 913.61 685.32 1049.27 688.78
00029947 00000145 694.27 220.81 419.30 617.22 912.34 463.97 1078.33 470.00 1055.59 589.50 913.36 684.09 1049.36 689.23
00029948 00000146 694.76 229.27 418.18 606.93 919.85 470.01 1080.01 472.56 1062.31 592.99 916.68 685.24 1047.50 688.20
00029949 00000147 697.98 230.01 417.30 603.32 926.41 471.87 1090.25 476.76 1073.89 591.27 922.42 685.16 1053.31 690.43
00029950 00000148 700.72 228.09 416.92 606.36 932.52 471.93 1092.82 479.63 1079.64 591.46 924.47 682.69 1055.11 690.62
00029951 00000149 706.33 228.21 414.41 606.86 940.39 466.75 1098.65 478.92 1087.19 591.22 930.48 681.75 1059.29 692.98
00029952 00000150 712.34 232.52 412.05 600.17 952.27 465.51 1106.96 482.95 1095.93 593.35 941.47 680.22 1064.66 695.33
00029953 00000151 710.39 238.49 415.84 593.88 960.70 467.32 1094.31 480.53 1094.95 597.71 950.54 676.35 1058.36 688.83
00029954 00000152 725.02 245.17 413.42 579.56 972.67 460.42 1112.12 478.23 1110.33 601.84 955.00 674.90 1076.49 692.72
00029955 00000153 734.48 254.95 413.90 570.42 986.27 466.22 1117.66 479.25 1124.39 607.39 970.00 681.73 1080.33 695.44
00029956 00000154 743.53 254.41 413.51 573.70 1000.91 465.39 1124.79 477.87 1135.06 609.69 982.15 684.10 1085.45 697.73
00029957 00000155 758.97 244.18 416.40 594.57 1012.47 468.35 1139.25 483.47 1145.74 614.70 989.47 688.93 1094.69 705.01
00029958 00000156 762.05 238.39 417.05 600.23 1018.46 466.71 1143.53 484.02 1153.87 612.08 992.79 686.06 1097.44 703.61
00029959 00000157 765.52 236.25 421.04 608.46 1024.06 469.36 1146.26 486.95 1159.26 613.76 996.42 687.36 1098.54 705.47
00029960 00000158 766.91 236.47 422.93 603.94 1027.54 468.88 1149.36 484.45 1164.06 611.73 1003.32 687.10 1102.65 703.30
00029961 00000159 771.87 245.07 421.95 587.76 1030.98 470.88 1154.19 481.78 1169.98 609.21 1011.64 687.34 1109.10 699.21
00029962 00000160 784.48 244.39 415.90 577.71 1043.07 460.03 1167.04 487.62 1177.15 604.73 1014.89 681.73 1115.15 706.29
00029963 00000161 793.61 250.40 418.81 585.74 1043.28 468.96 1176.50 490.58 1189.50 608.00 1035.69 695.87 1140.97 716.18
00029964 00000162 791.97 255.43 431.84 581.98 1064.49 471.09 1170.53 489.68 1201.77 613.17 1045.58 701.39 1122.33 719.73
00029965 00000163 814.32 243.75 418.52 602.47 1089.75 475.29 1174.72 511.46 1210.98 617.49 1067.67 698.39 1126.84 729.30
00029966 00000164 836.89 260.86 408.00 593.32 1097.22 491.34 1186.46 518.12 1219.78 623.83 1094.15 709.76 1155.40 734.73
00029967 00000165 837.15 270.81 409.39 581.27 1102.37 502.77 1187.10 521.52 1225.51 627.60 1105.09 716.98 1163.02 735.32
