Video ID: 	vFfbbADgxwo
H: 	1080
W: 	1920
FPS: 	29.97002997002997

FRAME INDEX X0 Y0 W H [Landmarks (5 Points)]

00013809 00000000 585.41 114.63 349.83 551.55 686.00 344.76 838.34 376.86 753.20 455.84 681.49 532.92 795.34 561.52
00013810 DELETE   595.20 123.25 345.86 538.27 693.54 348.54 843.88 379.82 761.50 459.05 689.89 533.20 802.24 560.82
00013811 00000002 599.04 127.81 343.42 533.98 694.47 352.79 845.97 382.16 763.56 463.03 694.89 536.40 807.20 562.34
00013812 00000003 599.18 128.77 343.02 531.93 694.71 353.34 845.86 382.28 763.89 463.03 695.14 536.23 806.84 561.87
00013813 00000004 598.53 125.80 343.58 538.98 693.00 356.00 844.53 385.11 762.40 464.87 695.92 538.59 808.66 563.98
00013814 00000005 596.06 122.62 346.15 548.55 690.57 354.81 843.17 382.34 759.67 463.63 694.27 542.08 807.32 566.54
00013815 00000006 592.22 119.36 348.56 553.94 689.30 352.68 841.81 379.50 757.89 462.31 692.10 542.02 805.42 566.06
00013816 00000007 586.66 116.23 351.79 553.19 687.05 351.97 839.27 377.94 755.63 459.59 691.14 539.62 803.74 562.82
00013817 00000008 586.90 114.95 351.74 554.46 686.50 351.57 839.36 377.75 754.89 459.51 691.33 539.92 804.09 563.20
00013818 00000009 588.67 117.13 351.05 546.48 687.20 351.05 838.94 376.07 755.98 456.83 693.22 535.92 806.18 558.19
00013819 00000010 592.14 119.89 349.39 542.34 691.39 352.38 842.89 375.64 763.45 457.75 698.30 535.46 812.43 556.15
00013820 00000011 599.00 118.70 346.79 543.14 698.16 355.52 850.30 376.87 771.80 460.34 705.95 535.42 823.99 554.11
00013821 00000012 602.01 120.50 347.18 542.96 704.68 358.60 858.53 379.12 783.57 461.67 715.78 535.66 836.87 553.41
00013822 DELETE   601.46 119.81 347.57 544.27 704.39 358.56 858.58 378.81 783.63 461.60 715.87 535.95 837.49 553.42
00013823 00000014 601.01 118.75 349.16 547.81 706.67 360.93 860.21 379.85 788.65 462.26 721.01 539.73 840.46 556.02
00013824 00000015 598.68 118.57 354.21 548.60 707.27 359.20 862.36 377.51 791.04 462.85 722.19 541.09 842.11 556.90
00013825 00000016 596.29 116.18 354.70 552.01 705.30 356.89 861.11 373.10 789.94 459.77 722.77 541.88 842.73 555.96
00013826 00000017 595.45 117.50 354.15 543.52 703.81 352.66 860.20 367.99 788.58 455.20 722.67 536.53 841.80 549.85
00013827 00000018 595.25 117.54 353.96 543.14 703.79 352.64 860.40 367.68 788.83 454.88 722.89 536.42 842.08 549.51
00013828 00000019 596.20 116.96 355.16 542.22 704.50 350.74 862.56 365.23 790.52 453.31 723.77 534.55 844.49 547.32
00013829 00000020 597.98 119.67 356.04 544.92 706.13 352.19 863.59 366.18 792.27 454.71 725.37 538.42 845.54 550.88
00013830 00000021 601.73 119.84 356.23 544.89 708.45 353.87 867.26 366.93 794.85 456.90 728.26 540.38 849.46 552.12
00013831 00000022 605.58 120.52 354.78 546.86 711.56 358.18 870.24 370.31 798.37 460.33 732.44 544.08 854.06 554.71
00013832 00000023 606.30 118.47 354.33 548.90 711.96 358.70 871.00 371.27 798.35 460.63 732.30 544.08 854.52 555.02
00013833 00000024 608.39 118.19 352.65 552.83 713.37 363.46 872.70 375.70 799.38 465.99 733.98 548.80 856.62 559.05
00013834 00000025 610.75 123.29 351.78 552.06 714.27 367.51 873.78 377.88 800.18 469.78 736.38 554.19 859.18 562.78
00013835 00000026 612.53 124.69 351.75 552.54 715.66 369.16 875.82 378.61 801.26 471.08 738.31 556.57 861.13 564.46
00013836 00000027 613.93 124.27 351.81 553.42 716.71 369.02 877.66 377.53 802.51 471.43 739.71 557.56 863.16 564.75
00013837 00000028 614.24 122.53 351.37 555.46 717.16 369.10 878.31 377.41 803.24 471.65 740.12 557.73 863.88 564.68
00013838 00000029 614.42 122.23 351.41 558.16 716.97 369.69 877.19 377.30 803.04 472.63 740.14 558.67 864.10 565.05
00013839 00000030 614.25 122.09 351.80 559.55 717.08 370.05 877.46 377.37 803.67 473.73 740.29 559.46 864.73 565.55
00013840 00000031 613.44 123.64 352.80 557.93 715.49 369.45 875.79 376.07 801.45 473.41 739.73 559.79 863.12 565.38
00013841 00000032 612.86 125.22 351.41 555.54 713.45 371.17 872.89 379.16 798.35 476.90 736.61 560.48 858.19 567.23
00013842 00000033 612.74 125.56 351.89 555.38 713.72 371.33 872.82 379.31 798.42 477.17 736.56 560.46 857.85 567.23
00013843 00000034 610.13 125.80 352.03 555.10 711.75 371.88 869.26 382.81 794.28 478.63 731.42 558.58 853.02 567.84
00013844 00000035 602.70 129.16 354.48 549.87 703.76 372.38 860.44 384.19 785.76 480.81 724.97 557.21 845.03 567.33
00013845 00000036 594.28 127.56 353.96 552.09 695.50 371.32 849.22 383.63 776.09 479.86 717.57 556.55 835.26 567.03
00013846 00000037 588.88 125.38 353.25 553.39 691.12 370.39 843.69 385.04 770.04 479.59 711.95 555.30 828.14 567.69
00013847 00000038 589.23 125.86 352.61 552.63 691.00 369.96 843.35 384.85 769.85 479.43 711.62 554.89 827.38 567.56
00013848 00000039 582.83 125.99 353.36 554.46 686.73 369.35 839.64 383.58 767.84 477.97 707.83 554.64 823.57 567.01
00013849 00000040 580.02 126.30 353.61 557.10 682.62 369.87 834.79 384.54 762.14 479.81 702.99 557.76 816.31 570.85
00013850 00000041 577.39 129.56 354.42 556.91 679.78 372.10 832.44 386.72 758.27 482.70 699.45 559.41 813.80 572.52
00013851 00000042 576.04 131.23 354.46 552.50 676.94 373.23 830.71 388.52 755.16 483.51 698.24 558.85 811.66 572.41
00013852 00000043 575.90 132.13 354.11 551.16 676.92 373.19 830.65 388.43 755.32 483.10 698.03 558.59 811.14 572.15
00013853 00000044 572.17 133.94 356.82 547.97 675.13 372.77 830.12 388.51 752.92 483.93 697.80 558.89 809.98 572.92
00013854 00000045 571.58 135.92 357.15 546.62 674.50 373.48 829.96 389.07 753.11 485.08 698.44 559.25 810.77 573.14
00013855 00000046 570.61 138.75 357.19 543.71 673.77 375.73 829.75 389.25 753.75 486.39 699.65 560.72 812.15 572.86
00013856 00000047 572.05 137.06 356.68 554.17 674.96 378.05 830.88 391.24 754.88 488.38 699.42 563.25 815.75 575.14
00013857 00000048 572.34 136.98 356.36 553.92 675.20 378.05 831.02 391.39 755.10 488.57 699.37 562.96 815.86 574.94
00013858 00000049 572.62 135.66 356.55 554.25 677.59 378.53 832.81 391.67 758.88 488.46 701.81 563.02 817.94 574.77
00013859 00000050 572.89 134.56 357.16 551.84 679.02 378.93 834.18 391.34 761.62 488.04 705.25 562.86 820.85 573.73
00013860 00000051 572.67 135.44 357.83 547.46 679.23 378.31 834.81 390.16 762.11 487.32 706.02 561.25 821.84 571.59
00013861 00000052 572.48 135.49 357.55 547.83 678.75 378.97 835.94 389.09 762.88 486.48 705.72 560.19 824.62 568.94
00013862 00000053 572.62 133.92 357.72 549.65 678.64 379.01 835.57 389.45 762.78 485.76 705.20 559.88 824.29 568.88
00013863 00000054 573.01 130.44 358.15 552.41 677.92 377.20 834.60 388.61 760.38 482.93 703.06 557.16 823.37 566.96
00013864 00000055 571.82 127.59 358.68 556.52 677.39 373.65 831.76 384.41 758.28 478.41 702.80 558.21 817.88 567.98
00013865 00000056 567.44 120.52 360.81 562.93 670.82 366.96 824.37 376.57 752.18 469.56 696.59 556.34 808.98 565.46
00013866 00000057 563.55 120.02 359.60 564.31 665.15 362.71 818.04 371.61 746.85 463.49 691.29 555.67 802.59 564.49
00013867 00000058 563.78 120.09 359.35 564.29 665.23 362.68 818.20 371.76 746.57 463.48 690.99 555.48 802.49 564.44
00013868 00000059 562.66 116.01 358.38 565.61 658.04 358.65 811.20 369.55 736.62 460.08 683.59 552.14 795.75 562.50
00013869 00000060 560.35 115.29 358.65 565.50 650.90 357.18 803.83 368.74 725.65 458.36 675.62 551.63 788.87 562.25
00013870 00000061 559.76 113.48 354.80 566.47 646.16 355.75 797.50 367.58 716.86 455.04 668.94 550.49 782.07 561.31
00013871 00000062 560.56 125.05 350.10 543.72 635.64 362.88 794.89 359.90 704.62 461.26 661.08 551.70 783.75 550.48
00013872 00000063 559.46 112.28 350.24 555.86 638.97 354.18 790.42 365.89 706.26 453.01 661.70 546.78 775.15 557.02
00013873 00000064 557.99 122.69 349.11 543.04 627.33 362.81 785.47 361.48 688.14 459.58 647.53 547.99 771.42 548.61
00013874 00000065 556.81 121.07 347.64 547.19 622.73 362.08 779.08 361.69 678.13 458.03 639.62 546.85 763.23 548.53
00013875 00000066 556.17 124.82 344.47 549.44 621.63 363.50 776.24 362.34 675.81 458.10 638.15 549.35 759.85 550.65
00013876 00000067 554.84 126.97 344.15 547.38 620.02 365.46 773.58 363.54 674.87 459.07 638.91 550.77 758.35 551.56
00013877 00000068 554.51 126.00 344.56 548.36 620.04 365.55 773.81 363.61 675.22 459.54 639.46 551.32 758.98 552.04
00013878 00000069 552.32 124.44 346.02 553.02 618.91 366.56 774.33 362.10 676.72 459.27 641.15 553.82 761.79 552.46
00013879 00000070 548.23 127.47 348.47 543.68 620.19 367.75 777.14 359.79 685.83 460.09 649.83 553.59 770.90 549.04
00013880 00000071 544.19 126.43 353.28 549.16 625.30 371.63 781.48 360.30 698.64 463.42 661.58 559.57 781.54 551.52
00013881 00000072 538.97 127.70 359.16 551.55 628.42 373.88 786.05 360.03 708.98 464.23 669.75 563.40 791.23 552.39
00013882 00000073 538.93 127.63 358.57 550.82 628.53 374.09 786.02 360.27 709.25 464.42 669.74 563.10 791.20 552.09
00013883 00000074 536.07 130.26 359.11 551.17 629.53 380.88 788.22 363.05 718.13 470.12 677.09 568.46 800.87 553.18
00013884 00000075 530.88 134.80 357.30 546.77 626.83 386.71 782.01 368.15 718.70 474.53 679.54 572.76 798.17 556.61
00013885 00000076 522.42 140.62 358.41 546.42 619.99 390.77 772.43 371.56 712.39 480.23 675.61 576.73 790.91 560.45
00013886 00000077 513.10 144.19 359.81 542.52 609.94 391.79 762.23 375.91 698.24 486.57 664.85 579.03 776.12 566.52
00013887 00000078 513.20 144.68 359.61 542.73 610.02 391.78 762.42 375.68 698.28 486.37 664.65 578.93 776.53 566.23
00013888 00000079 504.64 145.20 358.82 547.84 594.09 397.43 749.72 386.32 678.88 494.66 646.26 582.52 760.24 574.27
00013889 00000080 498.13 163.28 356.01 543.72 583.67 401.66 731.43 391.56 662.79 502.93 634.15 595.38 736.06 587.67
00013890 00000081 491.01 162.27 360.35 543.55 570.29 407.43 727.43 394.25 653.07 509.30 625.23 591.79 740.49 580.75
00013891 00000082 486.36 161.68 359.56 545.75 561.17 415.74 713.86 395.25 636.31 506.48 616.83 600.46 728.63 582.76
00013892 00000083 486.44 161.85 358.83 545.49 561.26 415.91 713.92 395.47 636.27 506.44 616.83 600.35 728.57 582.68
00013893 00000084 483.39 163.22 360.01 543.37 559.13 416.46 712.46 399.11 631.67 508.38 613.97 604.28 719.76 589.06
00013894 00000085 484.51 167.24 359.52 538.10 561.00 411.93 719.09 406.50 638.87 511.57 608.02 596.17 719.22 592.07
00013895 00000086 488.38 164.75 361.25 538.43 565.60 407.16 721.51 399.80 643.53 510.65 615.79 592.46 726.32 586.44
00013896 00000087 494.95 161.39 359.19 538.48 572.31 402.51 727.42 395.37 650.08 507.36 622.06 587.71 734.44 582.05
00013897 00000088 494.23 161.28 359.66 535.09 573.96 402.39 728.32 395.49 651.97 506.68 624.26 587.42 733.06 582.10
00013898 00000089 501.12 155.10 359.37 538.49 580.51 397.82 736.09 390.07 657.40 500.77 629.43 582.52 742.72 576.58
00013899 00000090 509.25 147.36 353.67 543.88 588.62 392.68 742.62 385.96 661.69 493.86 633.09 576.13 749.59 571.37
00013900 00000091 514.19 143.39 355.59 549.12 597.48 388.62 751.84 379.69 670.94 486.61 640.37 574.76 758.56 568.51
00013901 00000092 520.56 136.70 355.02 549.33 606.00 384.84 762.75 373.79 684.27 482.02 648.00 570.69 769.27 562.42
00013902 00000093 520.54 136.62 355.08 549.59 605.86 384.86 762.81 373.87 684.19 482.15 648.11 570.99 769.51 562.77
00013903 00000094 528.47 132.84 356.37 554.37 614.90 382.84 770.84 371.42 693.60 479.08 655.63 570.65 776.65 562.01
00013904 00000095 533.15 131.98 355.85 553.95 619.98 382.79 777.23 370.36 699.46 475.04 659.65 570.13 782.47 560.30
00013905 00000096 535.66 132.17 355.96 552.50 621.24 381.69 778.67 370.42 698.54 475.25 659.19 568.77 781.72 560.11
00013906 00000097 536.31 131.14 355.11 550.47 618.42 380.69 773.30 371.41 690.50 475.58 653.94 566.32 773.27 559.82
00013907 00000098 536.10 131.68 354.87 549.87 618.11 380.68 773.33 371.90 690.78 475.88 653.84 566.28 773.37 560.18
00013908 00000099 533.93 127.92 357.07 557.65 611.16 377.99 768.69 371.81 676.92 474.30 640.35 562.85 764.44 559.48
00013909 00000100 533.24 125.62 351.95 559.58 604.70 374.25 762.12 372.57 664.88 471.00 628.95 558.59 753.84 559.42
00013910 00000101 534.97 128.44 344.29 562.32 599.49 373.09 754.67 373.21 653.71 467.54 616.75 557.67 743.05 560.68
00013911 00000102 535.39 128.92 340.28 558.19 596.37 369.91 748.80 371.64 645.01 464.01 611.01 555.16 732.95 559.69
00013912 00000103 535.61 130.56 340.47 556.50 596.39 370.22 748.31 371.75 644.74 464.22 610.89 554.97 732.41 559.34
CROP_BBOX: 302 0 1147 828
