Video ID: 	XZZiWYbyAUM
H: 	1080
W: 	1920
FPS: 	25.0

FRAME INDEX X0 Y0 W H [Landmarks (5 Points)]

00000306 00000000 663.76 173.14 482.86 691.73 845.41 402.88 1077.72 401.14 1007.77 548.15 886.64 687.26 1065.71 683.74
00000307 00000001 664.16 171.81 481.62 690.63 845.11 400.82 1077.00 400.31 1007.01 545.91 885.72 685.98 1064.44 683.51
00000308 00000002 662.10 170.73 483.90 690.93 844.94 399.70 1077.94 398.86 1008.19 544.86 884.98 682.85 1068.47 680.07
00000309 00000003 660.03 168.95 485.75 692.04 845.25 397.65 1078.31 397.68 1009.52 542.04 884.56 679.61 1069.82 677.30
00000310 00000004 658.44 167.94 488.18 690.10 844.74 397.19 1077.52 395.82 1009.14 540.14 885.14 678.06 1070.10 674.50
00000311 00000005 658.95 167.45 486.83 688.59 841.86 398.73 1074.11 394.86 1005.62 538.78 883.82 678.08 1067.64 672.39
00000312 00000006 652.80 166.06 489.00 692.05 838.38 399.78 1068.38 395.98 1001.57 537.60 882.27 680.61 1063.06 674.72
00000313 00000007 650.69 166.94 489.33 694.11 833.24 402.13 1061.37 396.15 995.42 537.62 881.56 685.88 1055.69 678.38
00000314 00000008 647.01 162.39 492.40 705.51 831.35 402.88 1058.50 395.65 992.90 538.80 881.08 689.92 1051.81 681.49
00000315 00000009 644.88 161.94 493.81 712.36 831.76 401.87 1056.35 393.45 993.37 534.99 881.97 691.71 1052.82 682.43
00000316 00000010 644.39 162.05 493.19 712.91 833.01 400.04 1055.97 391.58 994.80 532.82 883.08 691.65 1053.71 682.28
00000317 00000011 644.92 160.99 492.81 708.89 833.12 399.02 1058.07 391.75 995.98 532.71 883.06 689.63 1055.66 681.11
00000318 00000012 646.68 159.36 490.26 703.38 833.39 401.90 1059.69 394.57 997.11 535.83 883.02 687.05 1057.49 678.26
00000319 00000013 647.82 168.69 486.40 690.38 838.13 415.48 1058.32 410.31 996.15 544.99 879.80 686.49 1053.81 679.70
00000320 DELETE   645.57 165.81 489.47 692.61 832.35 418.76 1056.57 412.75 990.47 552.61 873.13 689.12 1050.51 681.70
00000321 00000015 644.22 162.80 490.33 697.69 823.38 416.44 1055.34 408.80 984.70 558.11 864.49 692.78 1048.78 684.04
00000322 00000016 642.38 164.60 491.41 695.14 817.44 415.49 1053.86 405.32 980.89 558.46 863.37 691.59 1049.14 680.45
00000323 00000017 641.41 166.35 490.87 692.94 814.15 416.49 1050.79 403.65 979.19 560.40 863.70 692.59 1049.02 679.17
00000324 00000018 637.97 164.69 493.94 695.90 810.67 417.67 1047.61 403.76 976.42 561.50 860.31 694.27 1047.53 679.88
00000325 00000019 636.45 165.48 494.42 695.04 808.00 417.71 1044.99 404.06 973.08 562.63 857.76 694.07 1044.67 679.79
00000326 00000020 634.54 170.33 493.96 687.97 806.16 417.57 1042.56 404.82 969.69 562.04 856.31 692.18 1040.81 678.48
00000327 00000021 630.17 184.39 497.14 676.09 799.83 415.71 1042.73 404.62 965.10 558.57 853.14 693.19 1040.63 680.94
00000328 DELETE   325.18 63.80 340.71 450.10
00000329 DELETE   324.20 65.13 340.69 449.37
00000330 00000024 548.51 194.55 504.85 694.47 693.21 446.92 936.97 420.59 847.29 581.07 763.91 727.41 943.35 704.26
00000331 00000025 550.41 179.32 506.02 716.51 695.01 446.68 936.55 417.65 850.04 573.68 764.98 729.69 946.62 704.46
00000332 00000026 553.40 176.27 505.61 719.34 696.64 445.88 938.26 416.19 851.90 570.65 767.82 731.34 947.07 705.64
00000333 00000027 552.66 178.71 506.67 718.68 696.97 445.45 937.94 415.84 851.78 570.24 768.66 732.15 945.67 706.66
00000334 00000028 551.28 180.31 506.13 720.61 697.23 445.52 934.65 417.39 849.50 569.55 767.90 734.90 937.88 710.96
00000335 00000029 549.27 180.70 505.65 727.58 697.63 445.55 934.45 418.29 849.94 570.01 765.49 736.52 936.73 713.52
00000336 00000030 547.07 179.12 507.53 730.12 697.16 445.08 933.85 418.23 849.34 569.21 763.60 736.22 935.60 713.56
00000337 00000031 549.46 178.43 504.92 729.61 698.40 442.26 935.23 417.79 849.56 568.46 762.62 734.21 934.14 713.46
00000338 00000032 553.30 182.49 501.48 724.40 701.95 437.49 939.02 416.85 853.04 566.68 763.49 731.33 935.25 713.74
00000339 00000033 556.75 179.70 500.07 725.53 708.66 434.44 946.14 417.47 861.92 566.35 767.75 730.35 939.82 715.75
00000340 00000034 560.71 180.33 497.61 721.46 716.26 432.05 953.50 419.27 869.87 569.19 770.69 728.51 943.20 717.31
00000341 00000035 559.30 179.78 499.25 722.91 717.78 433.19 954.80 423.24 870.34 571.67 768.66 729.44 940.58 720.59
00000342 00000036 556.87 181.14 500.27 724.79 715.94 434.69 952.90 425.92 866.76 574.69 764.92 730.78 937.64 722.98
00000343 00000037 552.27 182.01 503.07 725.02 709.53 436.01 947.18 425.42 859.20 576.03 759.25 732.08 932.62 722.96
00000344 00000038 545.61 182.23 506.92 723.15 703.12 436.25 942.13 424.02 853.38 575.83 755.20 731.58 927.89 720.95
00000345 00000039 542.91 180.51 507.80 718.69 697.49 435.95 938.76 423.02 847.86 575.18 749.90 728.28 923.94 717.00
00000346 00000040 541.02 179.12 508.55 719.71 692.90 435.86 935.88 422.17 843.52 575.10 746.61 727.16 921.73 715.16
00000347 00000041 539.37 180.26 509.97 719.97 691.35 436.00 933.77 421.98 840.66 575.61 745.10 727.90 918.72 715.71
00000348 00000042 538.25 179.50 509.74 723.26 690.15 437.51 930.81 422.60 837.52 579.62 744.25 730.78 916.60 717.87
00000349 00000043 536.95 177.92 510.87 727.63 688.93 441.01 928.94 424.58 835.79 583.46 743.22 734.59 916.03 720.54
00000350 00000044 535.07 178.35 511.55 731.47 686.80 442.33 925.75 425.05 831.49 585.90 740.66 737.38 912.28 722.80
00000351 00000045 534.34 172.54 513.05 735.67 684.22 444.98 923.63 428.09 827.96 586.89 737.44 736.94 910.89 722.72
00000352 00000046 534.82 173.67 511.84 731.30 680.20 447.05 921.49 429.87 821.97 588.01 733.76 736.08 909.59 721.79
00000353 00000047 539.24 178.72 510.75 729.55 679.54 446.65 920.17 431.04 819.03 588.68 735.07 735.98 911.39 724.43
00000354 00000048 537.35 175.56 511.94 734.76 674.69 447.35 917.70 430.86 814.49 590.37 732.23 738.74 908.93 726.40
00000355 00000049 530.29 170.08 514.60 741.72 668.21 451.95 908.56 431.43 805.10 592.85 726.44 740.80 901.16 724.22
00000356 00000050 533.42 173.40 515.22 741.34 667.58 452.60 912.09 437.37 804.39 596.72 721.67 741.76 901.04 730.02
00000357 00000051 534.21 172.12 515.78 739.65 666.32 454.83 911.55 440.28 800.52 600.41 716.44 739.80 900.24 728.44
00000358 00000052 536.79 170.68 515.97 740.11 668.14 454.69 913.99 440.61 801.63 601.27 716.09 738.42 903.20 727.58
00000359 00000053 540.97 170.27 515.22 740.02 671.43 455.59 916.28 440.98 804.73 601.41 721.15 739.97 907.30 728.74
00000360 00000054 543.34 173.26 515.61 735.96 673.53 456.84 918.22 443.71 806.09 602.84 723.29 741.97 906.89 731.97
00000361 00000055 544.93 173.28 514.54 737.75 675.43 458.72 918.87 446.17 807.49 603.94 724.82 744.15 906.58 734.67
00000362 00000056 546.40 174.60 515.14 732.40 676.40 461.20 921.16 447.73 809.51 607.50 726.54 744.64 910.08 734.39
00000363 00000057 546.18 174.54 517.57 731.24 677.85 462.78 924.21 448.09 812.21 610.15 727.38 743.76 916.53 732.35
00000364 00000058 548.54 173.26 517.23 730.27 679.65 465.47 926.03 450.16 813.93 612.53 727.90 740.61 921.79 728.52
00000365 00000059 550.77 175.47 517.11 727.50 680.55 467.43 927.21 451.37 815.05 616.04 729.84 741.06 924.64 728.28
00000366 00000060 553.16 179.55 516.95 724.65 682.95 471.23 928.26 454.35 815.94 620.10 732.77 744.48 924.86 731.10
00000367 00000061 555.89 184.54 515.30 722.42 688.69 473.99 930.91 457.91 822.11 621.48 738.22 745.70 926.25 732.93
00000368 00000062 558.86 193.28 510.87 712.98 696.19 474.94 944.50 460.19 840.05 625.59 745.07 751.80 933.83 739.61
00000369 00000063 567.64 196.34 509.88 710.67 705.30 475.01 954.22 461.31 849.44 627.38 753.07 753.67 939.88 742.20
00000370 00000064 577.15 195.74 508.44 714.03 719.81 474.53 964.22 463.64 860.42 627.71 762.43 753.92 946.48 744.79
00000371 00000065 581.69 196.48 509.42 715.61 730.17 474.79 971.25 466.45 871.10 627.91 771.43 755.81 949.81 749.09
00000372 00000066 588.48 200.25 504.38 712.41 737.86 477.26 981.65 470.40 880.41 630.98 777.65 757.44 958.47 752.15
00000373 00000067 592.91 201.47 500.75 712.40 742.76 477.19 982.88 471.43 883.73 629.29 780.44 754.42 960.56 750.01
00000374 00000068 594.93 198.10 499.97 715.25 744.39 475.30 983.80 468.88 885.00 626.88 783.34 753.40 962.12 748.47
00000375 00000069 594.74 197.19 501.70 720.47 742.96 473.56 981.60 467.27 882.91 624.36 784.66 755.24 960.36 750.42
00000376 00000070 594.76 200.14 501.48 717.68 741.55 473.80 980.26 467.67 880.41 622.78 783.84 757.08 956.34 752.62
00000377 00000071 594.19 197.42 504.52 717.83 736.41 472.78 980.17 468.84 874.74 630.69 776.52 752.14 957.23 749.79
00000378 00000072 594.02 193.71 504.75 721.71 733.10 471.98 979.32 467.81 871.93 630.19 771.34 751.56 958.69 748.99
00000379 00000073 593.33 192.76 504.21 721.67 731.32 470.74 977.27 466.12 869.55 628.31 770.52 752.09 955.74 749.12
00000380 00000074 595.59 191.26 502.63 722.87 728.38 467.98 975.17 462.60 864.67 624.74 770.07 752.52 952.33 749.02
00000381 00000075 595.37 191.18 504.77 720.21 729.33 462.13 974.34 451.13 866.41 612.66 775.01 753.23 950.07 743.91
00000382 00000076 598.38 178.92 504.54 735.05 728.84 457.62 975.59 452.09 864.47 609.85 769.25 745.25 952.83 741.02
00000383 00000077 594.96 175.55 505.79 725.83 730.19 450.19 974.59 437.12 869.46 598.78 774.73 739.76 952.81 728.35
00000384 00000078 593.88 170.01 505.86 725.00 729.27 446.36 974.79 432.47 869.50 596.14 773.67 734.87 955.67 722.61
00000385 00000079 589.96 169.25 504.83 719.64 726.49 442.69 974.07 431.52 868.01 596.88 767.42 729.18 953.99 719.03
00000386 00000080 583.13 164.53 510.06 726.15 723.08 444.39 971.56 435.20 863.83 599.62 761.99 729.71 950.97 721.30
00000387 00000081 575.67 163.60 516.46 733.10 718.79 450.03 967.86 440.26 859.43 603.18 758.87 735.33 949.18 726.66
00000388 00000082 570.05 164.77 519.18 738.59 712.66 454.46 964.49 444.39 855.19 608.10 753.90 740.13 948.31 731.22
00000389 00000083 567.24 169.90 520.84 737.90 709.34 460.64 962.81 450.03 854.03 617.59 754.42 745.86 948.13 736.50
00000390 00000084 566.95 178.33 518.48 736.30 712.10 469.09 961.45 459.52 854.79 625.25 755.81 752.16 945.34 743.77
00000391 00000085 569.60 181.28 516.23 738.94 713.60 470.77 960.87 461.37 853.97 629.46 757.27 759.87 941.54 752.12
00000392 00000086 568.95 181.11 517.27 737.41 713.04 469.36 961.14 460.94 853.62 628.09 757.05 758.26 940.24 751.19
00000393 00000087 569.94 175.38 518.04 737.98 711.22 462.18 961.63 453.78 851.96 620.98 757.48 753.40 940.72 746.16
00000394 00000088 568.45 169.32 518.91 741.86 710.45 457.21 960.98 448.21 852.39 614.91 756.56 750.27 940.42 742.60
00000395 00000089 567.26 168.41 516.70 741.23 706.94 456.45 959.05 446.42 850.55 613.35 754.21 748.85 940.52 740.23
00000396 00000090 564.96 171.65 514.81 738.23 703.39 458.23 955.04 448.03 847.10 616.21 750.82 750.07 937.83 741.28
00000397 00000091 560.61 173.12 514.94 737.41 698.24 465.25 949.17 454.98 840.46 620.91 744.83 751.86 932.46 743.12
00000398 00000092 556.02 181.14 514.45 730.31 690.08 470.97 943.42 460.09 831.08 628.68 735.87 754.43 926.82 745.64
00000399 00000093 553.75 186.70 521.63 724.54 684.32 475.48 931.10 461.88 816.27 629.55 731.92 752.66 920.91 741.82
00000400 00000094 550.02 189.52 517.33 726.20 678.07 480.41 932.74 469.03 815.37 635.59 724.44 758.22 921.74 749.34
00000401 00000095 550.62 190.19 515.81 728.55 677.21 482.64 930.85 471.89 813.44 638.86 722.35 760.28 920.16 752.18
00000402 00000096 553.59 193.12 514.65 728.75 678.13 483.18 932.40 471.46 813.41 639.68 723.47 763.00 920.68 754.14
00000403 00000097 557.17 190.60 514.49 732.18 680.33 482.19 935.13 471.10 815.04 639.01 725.20 764.44 920.90 756.23
00000404 00000098 561.79 192.88 511.63 726.46 683.27 481.46 937.46 469.64 817.59 638.77 729.65 764.61 922.62 755.66
00000405 00000099 564.37 190.04 511.66 729.09 687.93 478.77 941.10 465.90 824.36 635.76 735.56 764.67 925.68 754.74
00000406 00000100 567.59 189.68 511.42 725.87 693.51 476.96 945.86 464.83 830.31 634.75 740.60 763.67 926.74 754.17
00000407 00000101 571.53 190.57 510.23 721.72 697.24 474.84 948.74 464.99 832.09 632.83 744.57 764.35 922.45 756.89
00000408 00000102 575.77 191.15 506.77 721.58 699.38 472.17 950.14 463.94 832.17 633.65 746.05 765.29 919.20 759.26
00000409 00000103 576.82 189.02 509.84 725.15 701.38 470.40 951.47 463.75 832.61 632.56 746.25 764.57 918.66 759.79
00000410 00000104 577.88 186.55 510.28 731.09 702.29 468.83 955.13 463.75 835.51 631.41 743.39 763.34 924.16 759.77
00000411 00000105 579.45 185.80 511.02 735.71 705.24 467.99 959.09 461.97 841.10 628.22 747.06 763.38 930.12 758.83
00000412 00000106 581.50 184.95 510.24 735.92 708.94 468.54 959.89 461.75 843.89 624.22 751.15 763.33 932.61 758.11
00000413 00000107 582.78 186.51 508.71 734.11 714.03 469.57 961.95 462.10 847.30 626.81 754.08 762.13 935.63 757.09
00000414 00000108 585.51 186.65 506.37 732.28 716.76 469.26 964.34 461.13 850.94 626.06 759.74 761.96 940.04 756.36
00000415 00000109 589.03 185.78 506.01 731.48 721.66 467.99 970.65 462.93 857.32 628.41 763.32 759.00 943.70 755.98
00000416 00000110 593.82 184.48 508.23 732.18 727.82 464.56 976.71 461.59 865.33 628.35 768.19 756.24 946.45 755.11
00000417 00000111 601.10 182.34 508.05 736.30 735.69 463.06 983.39 462.09 870.66 627.38 771.05 753.42 952.14 753.95
00000418 00000112 604.28 178.69 506.60 738.80 739.74 463.36 987.02 463.83 875.75 628.94 771.27 751.26 957.67 752.65
00000419 00000113 604.61 181.02 510.22 733.49 739.66 463.37 987.88 463.38 874.11 623.55 771.78 749.69 957.06 750.27
00000420 00000114 604.52 179.58 507.43 737.89 738.85 460.08 986.27 459.75 873.92 623.66 772.64 749.92 956.58 750.59
00000421 00000115 601.54 182.32 509.13 735.76 735.93 459.19 982.51 457.35 870.25 620.85 773.81 750.59 953.16 750.10
00000422 00000116 599.31 180.56 510.13 742.52 731.99 459.06 976.01 455.81 861.94 618.47 770.52 751.36 947.13 749.86
00000423 00000117 596.93 180.47 513.12 746.67 724.33 459.26 973.80 459.64 856.44 617.56 763.30 758.24 940.12 759.20
00000424 00000118 593.50 182.39 512.10 738.42 717.90 463.92 968.78 463.15 849.84 622.48 756.94 758.32 937.23 758.32
00000425 00000119 591.93 184.77 510.18 731.89 715.90 469.21 965.60 465.70 847.11 627.13 754.58 757.87 937.12 755.52
00000426 00000120 592.08 183.95 509.37 729.09 716.70 471.84 965.22 468.37 846.37 628.70 753.34 756.26 937.38 753.86
00000427 00000121 593.07 185.56 508.80 724.51 717.04 472.68 966.65 469.95 846.16 630.62 750.92 753.74 938.70 751.85
00000428 00000122 596.22 183.08 507.97 726.96 719.64 471.79 969.78 470.31 848.00 630.05 751.14 750.96 941.63 750.03
00000429 00000123 597.03 183.30 508.15 729.94 721.58 468.88 971.08 467.85 850.39 626.67 753.25 749.26 943.41 748.60
00000430 00000124 597.17 182.21 508.12 734.59 721.94 466.42 970.80 465.78 851.53 623.89 755.26 750.65 941.99 750.41
00000431 00000125 596.29 182.00 508.30 736.63 721.60 464.24 969.70 464.26 851.14 622.08 756.23 752.22 938.56 752.70
00000432 00000126 593.75 180.58 510.33 736.88 719.83 464.21 969.27 463.45 849.98 621.04 753.46 748.97 940.00 748.64
00000433 00000127 593.10 179.30 507.11 727.82 718.21 462.03 968.82 454.86 851.19 616.17 758.77 747.26 945.38 740.98
00000434 00000128 596.18 177.31 509.43 742.06 722.19 461.78 971.44 461.59 851.63 619.24 754.59 745.95 943.93 745.88
00000435 00000129 597.49 177.80 509.40 743.10 723.86 460.91 971.97 461.26 853.74 618.59 758.08 748.86 942.05 749.43
00000436 00000130 597.04 180.88 507.31 736.52 725.01 458.93 969.43 457.92 850.77 620.67 763.68 744.80 943.87 744.94
00000437 00000131 598.43 179.51 509.20 741.85 725.24 458.95 972.47 460.29 854.63 617.30 760.46 750.24 940.47 751.80
00000438 00000132 598.09 177.89 510.02 742.26 724.97 459.12 972.76 459.79 854.93 616.65 760.74 750.21 940.42 751.22
00000439 00000133 599.17 177.80 509.57 742.36 726.21 458.88 973.45 458.53 856.69 616.00 762.83 749.81 943.17 749.91
00000440 00000134 601.40 178.32 509.33 737.00 729.65 459.61 976.51 458.44 860.37 617.28 766.63 748.23 946.87 747.77
00000441 00000135 604.85 177.37 509.81 733.88 735.79 459.92 982.67 458.48 867.89 617.29 771.72 746.13 954.12 745.45
00000442 00000136 606.17 180.37 509.93 729.15 742.40 460.78 989.22 459.45 875.18 621.70 773.93 742.48 962.75 741.83
00000443 00000137 607.18 178.43 511.44 730.68 745.67 461.65 992.94 460.37 877.81 623.20 775.29 741.54 967.02 740.92
00000444 00000138 607.69 179.91 511.70 725.74 744.42 461.39 992.68 459.43 877.05 624.94 775.52 742.21 967.21 741.10
00000445 00000139 608.51 176.91 509.82 728.28 742.75 463.22 990.88 459.88 875.94 624.70 775.05 743.18 965.88 740.95
00000446 00000140 607.43 177.55 510.70 729.95 741.19 463.89 990.46 459.68 875.26 625.36 775.06 744.67 967.20 741.53
00000447 00000141 606.27 177.97 511.69 730.13 741.05 464.77 990.30 459.65 875.74 626.32 776.67 745.03 968.82 741.07
00000448 00000142 607.31 179.35 511.07 727.11 742.58 467.76 990.88 462.14 877.28 628.57 777.66 744.92 970.29 740.45
00000449 00000143 608.21 181.04 510.31 728.55 743.83 470.99 990.23 465.24 876.94 630.09 778.71 746.36 970.81 741.67
00000450 00000144 607.42 183.78 509.44 725.92 743.00 473.68 989.24 466.96 876.67 631.50 778.92 747.51 970.85 741.97
00000451 00000145 609.28 184.32 511.25 723.90 746.38 473.96 991.77 467.35 879.09 631.38 781.76 747.49 973.01 742.14
00000452 00000146 614.19 185.22 512.00 720.60 754.17 468.37 1000.25 464.38 887.41 627.09 788.07 744.16 978.06 741.35
00000453 00000147 618.89 185.18 508.80 720.73 771.73 461.33 1019.64 465.19 912.38 624.00 795.91 740.94 985.65 744.55
00000454 00000148 635.23 181.21 509.21 713.07 786.86 453.01 1031.60 460.94 919.84 615.10 806.56 730.92 991.22 739.13
00000455 00000149 638.23 179.72 511.82 713.63 792.90 450.43 1035.16 459.49 923.52 609.44 809.33 726.30 994.52 735.52
00000456 00000150 639.34 179.46 509.74 715.23 789.70 450.56 1033.13 459.59 920.12 609.95 807.09 727.36 993.23 736.56
00000457 00000151 636.81 177.08 512.43 718.83 786.39 453.05 1032.56 462.13 918.10 617.52 805.49 732.25 991.79 741.51
00000458 00000152 631.82 174.78 507.38 732.62 788.68 461.14 1033.56 468.13 925.71 626.18 809.29 745.00 993.38 750.87
00000459 00000153 632.65 177.44 508.32 742.25 790.80 462.71 1032.68 470.16 925.17 627.56 811.44 751.96 990.34 758.78
00000460 00000154 633.56 181.58 508.63 745.28 791.00 464.58 1030.10 471.36 923.07 627.88 813.46 756.09 988.16 762.45
00000461 00000155 631.50 184.26 506.43 741.77 787.13 463.73 1024.71 470.38 917.11 627.43 809.85 754.98 983.23 761.28
00000462 00000156 628.22 185.44 506.89 737.95 780.50 463.07 1022.63 468.04 914.15 624.91 804.68 752.82 983.59 757.77
00000463 00000157 626.48 185.96 504.47 725.90 777.26 463.74 1020.84 467.41 912.83 624.41 802.84 747.30 983.85 751.00
00000464 00000158 623.23 186.01 505.60 722.08 770.53 463.52 1017.66 465.43 908.35 624.28 798.11 743.08 985.62 745.22
00000465 00000159 622.51 189.47 507.16 713.92 764.54 464.61 1005.77 460.86 896.00 620.35 795.62 735.25 983.57 732.91
00000466 00000160 616.74 185.02 510.21 721.88 756.67 459.73 998.86 455.18 887.51 612.55 788.30 734.00 979.20 730.79
00000467 00000161 612.44 184.36 505.80 722.66 750.29 456.36 993.38 451.33 882.09 609.26 782.09 732.20 974.63 728.62
00000468 00000162 609.60 181.20 501.99 723.26 745.10 454.92 988.11 449.74 876.91 605.98 777.66 730.14 968.63 726.52
00000469 00000163 606.40 177.76 502.04 723.34 740.68 454.69 983.69 449.93 872.13 605.08 773.74 728.69 963.65 725.25
00000470 00000164 599.55 178.86 500.82 712.98 734.53 450.76 977.50 438.63 872.77 598.88 774.56 733.00 958.09 721.90
00000471 00000165 592.48 178.08 502.70 714.60 729.96 449.54 975.45 437.57 870.28 598.88 770.48 732.48 957.24 721.61
00000472 00000166 591.30 177.25 502.41 713.19 729.28 447.55 973.95 436.43 868.71 596.82 769.05 729.60 955.39 719.50
00000473 00000167 594.53 178.32 496.42 703.56 734.90 441.77 977.12 432.80 874.15 591.13 774.04 723.74 958.09 715.14
00000474 00000168 601.82 172.55 491.89 696.46 746.86 434.07 986.05 431.43 886.17 580.29 779.06 709.44 964.04 706.18
00000475 00000169 608.52 172.06 485.78 694.88 753.74 430.02 994.60 431.18 890.24 572.88 776.62 694.63 970.88 696.69
00000476 00000170 610.14 170.20 485.31 691.74 755.73 424.04 997.01 425.55 893.64 568.98 778.99 689.24 973.14 691.58
00000477 00000171 608.40 169.66 484.29 692.20 754.10 423.76 996.12 424.89 892.98 568.70 778.61 689.50 973.83 691.41
