Video ID: 	NfOuP1_AEZc
H: 	1080
W: 	1920
FPS: 	25.571

FRAME INDEX X0 Y0 W H [Landmarks (5 Points)]

00023196 00000000 375.28 127.34 511.40 700.81 588.77 400.48 814.88 401.10 756.46 529.51 629.77 667.75 804.22 666.44
00023197 00000001 383.84 132.61 506.69 697.45 594.49 406.26 816.09 404.71 760.38 533.31 636.19 673.57 805.56 670.71
00023198 00000002 388.16 124.68 506.23 700.72 599.50 401.03 820.47 400.94 764.59 525.82 640.84 666.96 808.14 665.07
00023199 00000003 389.08 134.96 503.66 687.99 597.00 391.03 815.67 387.41 762.85 512.19 646.11 661.80 809.89 657.00
00023200 00000004 388.45 131.96 505.27 703.58 596.99 389.49 813.21 388.26 763.14 506.74 649.34 666.75 810.77 663.84
00023201 00000005 389.58 135.84 506.34 695.54 595.90 390.01 818.57 389.70 764.55 509.56 645.30 666.59 813.65 664.44
00023202 00000006 390.89 135.63 509.78 694.52 598.61 389.44 824.41 390.62 767.49 511.48 636.10 659.45 816.05 658.95
00023203 00000007 391.94 135.82 509.81 689.44 600.25 390.00 825.77 391.59 768.26 511.48 634.66 655.20 816.56 655.22
00023204 00000008 391.33 132.67 510.97 690.83 601.36 389.06 825.30 390.70 767.71 509.56 634.75 652.53 815.87 652.49
00023205 00000009 388.98 130.61 510.27 693.56 600.95 387.95 821.49 390.13 765.93 506.99 637.32 652.98 813.49 653.25
00023206 00000010 384.91 120.98 511.80 702.07 601.98 390.95 819.21 392.80 765.58 503.20 640.94 653.72 812.00 653.92
00023207 00000011 382.80 118.46 509.88 707.37 596.05 386.43 812.37 387.19 759.24 498.36 640.02 653.60 807.84 652.76
00023208 00000012 380.04 111.81 504.24 711.80 589.25 383.93 804.63 383.20 751.95 493.71 636.09 650.60 803.85 648.33
00023209 00000013 375.65 104.12 498.60 711.24 578.33 374.94 797.70 372.55 742.92 485.60 625.78 644.75 795.11 640.95
00023210 DELETE   370.47 108.13 497.70 699.94 570.49 377.85 787.82 371.31 733.27 485.66 621.64 643.66 786.00 636.49
00023211 00000015 366.25 118.10 493.01 691.90 558.25 383.82 785.87 366.69 731.51 490.67 618.24 651.02 787.50 636.18
00023212 00000016 365.67 121.72 488.59 690.59 555.01 389.22 779.44 374.65 722.88 497.09 612.02 655.05 779.93 642.43
00023213 00000017 360.37 121.96 488.30 690.54 547.06 393.52 772.11 375.73 715.41 502.54 607.94 659.61 775.25 644.21
00023214 00000018 358.05 121.58 486.57 688.33 541.56 395.19 765.01 375.57 708.14 501.96 606.61 660.36 771.02 643.08
00023215 00000019 355.85 130.15 487.61 678.70 539.13 395.56 761.90 373.81 707.14 500.86 606.61 660.04 770.62 641.14
00023216 00000020 357.97 132.43 486.69 674.65 539.29 397.50 763.04 375.33 707.03 500.80 609.16 659.80 772.30 640.53
00023217 00000021 360.66 136.03 485.37 670.24 537.83 397.13 765.08 373.01 706.75 503.25 608.80 659.44 773.97 638.63
00023218 00000022 364.11 139.88 486.08 666.64 537.84 401.13 767.95 376.06 706.47 508.50 605.97 657.01 778.20 635.14
00023219 00000023 367.13 144.28 490.74 659.39 539.46 402.34 770.89 375.73 709.59 508.17 608.39 655.29 784.04 632.03
00023220 00000024 368.51 142.55 494.04 662.56 542.48 403.83 773.13 377.42 712.04 505.88 609.08 654.73 785.89 631.77
00023221 00000025 372.22 142.73 494.07 663.72 545.33 405.32 776.88 378.18 715.46 505.71 611.85 657.00 789.20 633.63
00023222 00000026 377.60 145.28 491.26 660.42 548.25 406.30 778.73 378.89 715.79 505.13 614.52 657.50 790.27 634.22
00023223 00000027 368.98 149.18 501.07 662.78 551.84 404.85 779.26 388.18 713.77 506.04 613.21 658.84 783.59 643.85
00023224 00000028 377.83 158.26 492.95 643.84 555.34 409.17 788.96 388.42 719.46 509.35 614.68 661.06 789.52 640.55
00023225 00000029 377.85 154.73 492.45 647.92 555.05 408.37 788.16 388.89 719.42 505.12 612.52 657.88 790.18 638.36
00023226 00000030 371.43 146.92 500.20 664.21 554.43 401.86 777.60 387.25 713.19 500.29 614.70 655.64 780.86 642.57
00023227 00000031 369.57 147.72 499.41 667.03 550.70 403.08 777.50 388.14 711.86 503.71 609.49 660.09 780.00 646.50
00023228 00000032 372.53 154.52 491.53 650.41 541.83 406.29 775.57 386.44 706.03 502.02 604.90 659.41 778.75 638.87
00023229 00000033 368.92 157.54 491.34 648.40 537.96 406.62 772.41 390.41 701.30 501.36 597.90 655.71 776.00 637.90
00023230 00000034 363.30 161.62 492.67 650.04 537.26 405.90 767.76 389.83 700.84 500.17 598.20 656.46 773.25 638.83
00023231 00000035 363.55 161.62 491.54 654.44 536.40 406.06 767.69 386.33 702.12 503.13 602.60 662.20 777.27 641.33
00023232 00000036 368.86 150.94 488.02 659.48 534.92 406.88 766.38 381.88 702.44 507.34 604.67 662.15 779.20 640.66
00023233 00000037 369.89 147.21 487.03 663.14 537.38 408.39 767.57 383.18 703.38 508.95 609.46 664.18 779.80 642.50
00023234 00000038 371.45 146.47 488.33 666.05 538.71 408.03 768.64 381.79 704.39 508.27 612.61 666.48 780.86 644.16
00023235 00000039 371.75 145.36 488.34 667.90 539.23 407.47 770.51 381.94 705.46 509.26 612.97 667.33 781.50 645.53
00023236 00000040 371.09 146.89 488.02 667.31 539.22 407.41 769.84 382.39 705.28 510.01 613.73 668.75 780.45 647.32
00023237 00000041 370.82 146.39 487.29 668.25 539.13 408.71 769.21 383.75 705.52 511.04 614.17 670.55 779.61 649.22
00023238 00000042 370.05 145.97 487.19 670.91 538.98 409.32 768.54 385.03 705.60 511.72 614.70 672.97 778.44 652.21
00023239 00000043 370.89 149.32 486.06 668.56 538.85 409.86 768.87 385.55 705.45 513.18 615.29 674.45 778.43 653.82
00023240 00000044 370.89 149.32 486.06 668.56 538.85 409.86 768.87 385.55 705.45 513.18 615.29 674.45 778.43 653.82
00023241 00000045 370.74 150.50 486.93 670.87 538.35 411.41 769.28 386.64 705.30 515.47 614.46 676.60 778.34 655.68
00023242 00000046 369.70 152.74 487.93 673.00 537.26 411.87 769.00 387.27 704.23 517.25 612.28 677.64 777.95 656.81
00023243 00000047 369.01 152.44 485.76 675.84 536.80 415.01 766.16 390.82 702.18 518.90 610.69 679.70 775.07 659.18
00023244 00000048 368.29 153.02 485.88 674.52 536.35 415.01 765.53 390.30 701.80 519.26 610.72 679.93 774.28 658.90
00023245 00000049 368.26 152.18 485.12 672.92 535.95 414.60 765.45 389.80 701.72 519.00 610.03 678.65 774.21 657.54
00023246 00000050 368.73 151.99 484.40 672.93 536.94 416.19 766.73 391.32 703.02 520.33 611.04 679.55 775.54 658.42
00023247 00000051 369.78 152.33 483.44 669.41 536.57 416.39 767.82 390.77 703.24 520.39 611.72 679.53 776.90 657.85
00023248 00000052 369.54 151.63 485.77 668.17 537.23 414.24 768.96 387.09 704.67 518.16 614.29 676.00 780.94 652.77
00023249 00000053 370.11 150.18 486.54 667.13 538.39 412.39 770.57 384.69 707.59 515.61 614.91 672.42 785.24 648.65
00023250 00000054 370.22 148.76 487.68 665.63 538.93 411.10 771.89 383.63 708.26 514.65 612.89 668.94 785.95 645.17
00023251 00000055 371.05 148.51 486.43 661.65 539.03 410.91 771.92 384.02 708.34 514.66 612.66 666.96 785.98 643.73
00023252 00000056 370.92 148.95 484.98 658.56 538.90 410.44 770.76 384.18 707.50 514.02 611.51 665.26 783.70 642.56
00023253 00000057 367.88 146.25 487.64 661.28 539.40 407.62 769.88 383.13 707.45 510.85 603.97 657.68 782.50 636.47
00023254 00000058 366.74 143.00 489.06 666.81 539.21 404.43 768.73 383.29 704.51 507.06 596.82 652.19 778.88 633.89
00023255 00000059 364.19 142.27 491.85 675.78 538.19 404.00 766.80 384.11 703.45 505.70 597.66 657.21 776.45 640.12
00023256 00000060 364.89 144.26 490.12 674.51 537.20 405.11 765.49 382.89 704.16 507.72 601.66 663.22 775.80 644.34
00023257 00000061 364.94 147.29 489.68 665.59 536.05 404.35 764.24 381.78 702.47 506.58 604.41 660.72 775.36 641.46
00023258 00000062 364.95 149.78 489.89 659.24 536.23 403.68 765.58 381.13 703.44 504.68 603.82 657.29 777.00 638.05
00023259 00000063 365.64 149.42 487.78 658.33 536.59 404.37 765.53 382.20 703.25 504.53 604.54 657.65 776.79 638.67
00023260 00000064 362.58 149.98 488.01 657.24 535.72 406.20 763.00 384.12 703.64 505.74 604.50 659.39 774.75 640.37
00023261 00000065 357.66 149.79 488.97 661.77 532.48 406.49 759.25 385.59 702.18 504.82 598.30 659.14 772.91 641.04
00023262 00000066 353.81 148.34 489.85 669.42 531.35 404.30 756.76 384.89 702.25 504.18 593.99 660.66 769.54 643.91
00023263 00000067 352.75 147.55 488.33 671.85 529.60 402.87 755.02 384.50 700.51 504.83 590.71 660.57 767.01 644.55
00023264 00000068 353.07 149.55 488.89 668.35 530.32 403.51 755.13 384.01 701.36 504.02 593.85 661.31 768.05 644.40
00023265 00000069 354.50 150.58 487.67 664.42 531.15 403.21 754.06 383.26 701.53 500.85 597.11 660.18 768.70 642.93
00023266 00000070 355.30 150.84 488.20 665.10 531.38 403.46 755.78 382.71 702.60 501.82 598.87 661.54 770.91 643.62
00023267 00000071 356.11 149.71 487.97 667.59 531.88 406.42 756.95 385.49 702.68 504.63 599.01 664.21 771.14 646.17
00023268 00000072 355.81 150.47 487.71 671.78 531.68 407.93 757.05 387.20 701.81 508.28 598.15 667.61 769.97 649.71
00023269 00000073 356.32 149.85 487.89 673.05 532.48 409.33 759.05 388.00 703.34 509.70 599.42 669.62 771.83 651.26
00023270 00000074 357.84 149.06 486.79 674.75 532.38 410.59 760.35 388.69 702.87 511.87 599.55 671.36 772.69 652.50
00023271 00000075 358.40 148.86 488.08 676.12 532.93 410.80 761.38 388.31 703.66 512.52 601.81 672.91 773.87 653.57
00023272 00000076 361.24 151.65 486.50 673.60 533.41 410.13 762.11 387.30 704.52 512.15 603.68 673.10 775.56 653.45
00023273 00000077 363.49 151.64 487.44 673.44 534.90 410.47 763.65 387.12 705.14 510.97 606.07 673.66 776.76 653.59
00023274 00000078 364.68 151.34 486.02 673.06 535.50 411.24 764.19 387.98 705.27 511.42 606.10 673.73 776.87 653.81
00023275 00000079 364.72 152.95 486.07 670.32 535.36 413.35 764.06 389.69 704.49 512.94 605.51 674.22 776.13 654.15
00023276 00000080 364.65 153.07 485.45 670.27 534.49 412.83 763.68 388.91 704.14 513.66 604.98 674.41 775.91 654.04
00023277 00000081 363.61 153.30 484.60 669.48 533.95 412.09 763.01 388.40 704.02 514.24 604.86 674.02 775.43 653.82
00023278 00000082 362.94 152.15 484.66 667.78 533.79 411.79 762.85 388.26 704.23 513.18 605.61 672.97 775.24 652.82
00023279 00000083 361.18 151.38 485.18 668.75 533.22 410.49 762.27 387.87 703.99 512.55 603.74 672.01 774.31 652.63
00023280 00000084 361.29 152.17 485.10 668.15 533.05 410.81 762.38 388.31 703.37 513.68 603.24 672.31 773.95 653.07
00023281 00000085 363.62 151.82 483.97 666.37 534.41 411.45 763.53 388.67 704.59 513.56 605.22 671.98 775.03 652.47
00023282 00000086 365.22 151.57 484.91 663.60 535.60 411.85 765.69 388.98 704.76 513.26 606.28 669.97 777.50 650.17
00023283 00000087 364.70 148.15 486.17 666.24 536.59 409.37 766.70 389.65 705.21 511.89 598.78 661.90 778.24 644.63
00023284 00000088 363.88 145.93 489.35 668.98 537.69 405.88 767.78 386.87 704.85 509.07 595.89 658.71 777.09 642.25
00023285 00000089 363.89 145.41 489.29 669.64 537.61 405.89 767.60 386.74 704.90 509.07 595.78 658.75 777.00 642.18
00023286 00000090 362.48 143.62 489.68 666.57 538.21 404.92 765.64 385.38 704.50 504.40 598.15 655.24 775.33 638.49
00023287 00000091 365.62 142.90 487.20 661.86 541.49 403.00 767.88 382.32 709.12 502.90 603.52 652.90 778.50 635.24
00023288 00000092 366.42 140.64 486.59 661.05 543.56 402.27 768.49 380.13 711.97 501.11 606.64 650.87 781.02 632.02
00023289 00000093 367.20 137.41 486.71 664.71 545.12 402.66 769.14 379.39 715.24 498.90 610.27 651.95 783.06 632.27
00023290 00000094 368.31 135.77 486.10 662.41 547.47 402.46 771.94 379.54 718.10 496.92 612.82 650.31 785.30 630.99
00023291 00000095 367.61 134.80 484.76 660.42 547.32 401.82 771.09 379.84 717.53 496.16 612.23 648.93 783.82 630.30
00023292 00000096 365.75 134.96 483.22 656.76 545.95 401.43 768.70 379.48 715.96 494.96 610.06 646.74 780.69 628.10
00023293 00000097 364.26 137.49 482.93 649.25 546.62 400.12 769.54 380.53 715.37 490.42 607.05 640.83 779.42 624.20
00023294 00000098 363.47 136.85 484.57 648.36 545.42 397.15 772.06 377.63 713.83 487.74 605.94 637.39 779.60 620.54
00023295 00000099 361.28 136.44 485.08 648.09 543.73 393.87 773.19 375.00 713.41 484.84 603.20 635.81 779.74 619.40
00023296 00000100 358.07 137.41 485.33 648.31 541.22 392.60 769.63 374.95 710.97 484.03 600.40 633.49 778.13 617.81
00023297 00000101 355.30 137.48 485.28 646.80 538.50 389.77 767.26 372.92 709.14 479.19 596.47 631.92 775.89 616.70
00023298 00000102 352.68 133.82 488.48 651.31 537.33 388.97 765.50 373.07 708.04 476.42 593.74 630.49 774.11 615.80
00023299 00000103 350.31 131.52 489.94 662.40 534.82 386.83 760.70 373.20 705.39 476.31 588.53 632.13 768.66 619.69
00023300 00000104 347.91 132.00 491.11 660.82 532.80 386.25 760.65 376.40 704.02 475.02 582.37 628.91 767.76 619.44
00023301 00000105 343.90 136.17 493.69 655.70 528.84 385.59 757.70 375.49 701.01 476.38 576.08 627.18 765.72 617.37
00023302 00000106 340.72 132.52 494.58 660.41 529.42 387.97 752.92 376.61 697.80 481.24 580.83 630.84 763.06 619.85
00023303 00000107 337.08 127.96 496.47 667.59 529.84 394.76 748.49 378.94 697.73 488.96 586.65 639.32 760.31 624.69
00023304 00000108 335.96 132.18 495.03 664.59 528.99 398.11 744.97 380.90 695.82 493.72 587.68 643.22 758.37 627.66
00023305 00000109 334.17 138.67 495.46 659.27 524.53 399.19 743.94 383.48 691.71 497.75 580.31 644.65 755.64 630.32
00023306 00000110 335.94 140.82 493.41 656.48 523.12 401.47 744.00 385.36 690.00 500.20 582.22 647.48 756.03 632.70
00023307 00000111 337.04 140.98 494.39 660.08 524.18 401.32 742.18 385.59 687.99 499.40 583.40 648.82 753.33 634.73
00023308 00000112 336.09 140.43 494.39 662.70 523.53 400.76 742.30 384.66 688.91 499.05 581.69 648.91 753.81 634.37
00023309 00000113 338.00 141.20 493.25 659.86 524.72 400.23 745.20 383.93 691.44 498.17 582.63 647.07 756.98 632.36
00023310 00000114 337.64 141.73 494.10 658.03 525.86 399.02 747.12 387.60 690.67 499.72 575.03 641.20 753.70 630.74
00023311 00000115 336.96 143.29 495.85 662.03 525.65 398.12 746.12 386.80 691.03 499.86 574.16 642.87 753.42 632.58
00023312 00000116 337.19 143.24 495.39 665.64 526.73 399.64 745.06 385.91 692.49 499.97 580.82 650.25 754.05 637.87
00023313 00000117 339.52 143.90 493.49 659.55 527.92 400.17 745.98 385.39 693.55 501.37 584.12 648.93 754.65 635.58
00023314 00000118 341.98 144.41 491.93 653.70 529.94 399.66 749.68 385.15 697.45 499.70 584.04 642.06 759.77 628.79
00023315 00000119 346.47 142.80 489.93 655.97 532.04 399.01 751.12 382.96 699.16 495.75 592.11 644.85 762.73 630.55
00023316 00000120 348.12 143.63 488.74 660.51 532.15 400.18 749.85 383.74 699.37 494.93 598.26 651.36 763.18 636.75
00023317 00000121 347.77 144.81 488.05 664.68 531.73 397.79 749.94 382.36 699.65 495.48 595.41 653.15 762.42 639.45
00023318 00000122 342.96 141.47 492.61 673.42 530.15 396.10 746.40 381.26 698.33 494.51 595.50 656.58 759.44 643.29
00023319 00000123 341.40 144.82 494.30 671.69 528.50 398.38 744.98 383.45 696.65 496.09 594.66 658.76 758.43 645.32
00023320 00000124 340.11 143.48 494.87 671.55 526.49 399.06 743.77 384.88 694.36 497.05 588.18 656.77 755.95 643.97
00023321 00000125 340.25 146.05 494.07 660.61 524.23 399.47 746.15 387.15 692.16 497.41 578.12 647.26 755.33 635.98
00023322 00000126 339.83 146.12 494.97 661.38 525.31 399.44 747.44 388.41 692.70 497.77 576.54 646.24 754.90 636.28
00023323 00000127 339.63 145.70 495.25 659.72 526.90 400.80 745.35 387.28 692.02 497.71 582.98 648.08 754.12 636.18
00023324 00000128 339.57 145.16 494.59 658.17 527.17 401.45 745.98 387.58 692.58 499.80 582.91 647.31 754.16 634.89
00023325 00000129 340.04 144.51 493.83 655.27 527.46 401.57 748.05 389.39 692.43 500.51 580.37 643.52 754.46 632.41
00023326 00000130 338.17 145.46 496.25 659.48 524.90 400.78 746.37 389.35 689.57 500.99 575.43 644.96 752.53 634.54
00023327 00000131 337.68 145.50 496.85 663.96 523.83 399.02 745.35 387.07 688.86 497.95 575.96 646.82 753.20 635.99
00023328 00000132 337.53 144.53 496.75 667.73 525.13 398.85 743.11 384.41 690.99 494.43 582.10 650.01 754.50 637.27
00023329 00000133 337.52 144.77 496.74 667.47 525.10 398.82 743.12 384.39 691.00 494.41 582.13 649.98 754.55 637.24
00023330 00000134 338.62 146.43 494.77 668.65 525.97 397.60 743.44 384.04 693.84 496.60 583.03 651.43 756.48 639.14
00023331 00000135 340.86 148.78 494.99 667.18 529.53 398.87 750.00 387.24 696.74 500.86 584.65 654.14 758.75 643.62
00023332 00000136 352.20 147.30 487.23 671.19 533.91 403.95 756.56 392.81 701.02 501.59 586.48 656.96 763.82 647.50
00023333 00000137 353.85 150.47 487.85 666.55 533.38 402.70 756.02 387.61 701.96 501.36 589.14 656.92 764.97 644.12
00023334 00000138 350.26 140.80 491.64 671.18 534.46 398.98 756.65 383.83 704.17 496.57 593.49 653.72 765.69 640.48
00023335 00000139 350.28 138.21 491.69 671.29 535.11 396.77 757.06 381.67 704.97 493.64 593.74 650.81 766.22 637.65
00023336 00000140 349.82 139.70 491.89 669.43 535.04 397.28 756.97 381.54 705.24 495.03 595.46 651.10 767.18 637.34
00023337 00000141 353.48 146.61 488.46 658.48 533.52 401.03 756.47 381.59 703.56 497.24 599.75 652.82 769.93 635.91
00023338 00000142 355.33 146.48 487.79 653.89 534.20 402.24 756.61 381.96 702.96 497.67 602.94 651.85 770.37 634.24
00023339 00000143 355.94 141.24 488.09 651.03 537.53 400.51 761.73 380.75 707.95 494.71 604.43 646.04 775.82 628.39
00023340 00000144 356.80 136.33 488.09 656.60 538.23 396.58 762.45 372.63 709.64 489.40 606.72 644.49 778.57 623.44
00023341 00000145 359.59 132.13 487.17 664.60 541.61 392.39 762.28 368.26 712.67 481.90 613.18 644.43 777.45 624.03
00023342 00000146 359.64 129.57 486.08 671.22 541.17 392.54 761.84 370.21 710.94 481.57 612.76 646.88 775.14 627.98
00023343 00000147 358.08 132.47 491.48 669.64 541.01 393.47 765.94 374.12 710.35 485.04 604.69 646.33 775.58 630.03
00023344 00000148 359.40 135.86 487.50 661.70 540.74 396.60 768.44 382.90 710.20 488.54 590.69 639.51 774.86 628.26
00023345 00000149 360.28 137.79 488.23 658.27 540.33 395.44 768.49 379.61 709.83 490.00 592.21 639.34 776.60 626.19
00023346 00000150 360.86 133.20 492.20 660.84 543.67 398.85 769.19 376.62 712.36 488.95 603.50 642.92 777.51 624.28
00023347 00000151 365.09 131.84 487.69 656.16 546.23 397.87 772.48 376.38 715.62 488.02 610.55 642.21 781.49 623.74
00023348 00000152 365.65 139.22 486.36 647.72 545.25 397.68 774.57 379.46 713.97 491.28 604.78 640.61 781.60 624.95
00023349 00000153 363.82 135.96 487.61 655.52 542.60 396.94 772.48 378.61 710.64 491.55 599.24 640.35 779.65 624.62
00023350 00000154 360.92 134.21 491.59 660.64 541.26 393.93 771.11 375.61 709.23 486.58 595.74 638.81 776.84 623.20
00023351 00000155 358.78 132.12 491.32 664.09 540.94 391.22 769.63 372.60 709.93 484.44 597.42 638.38 775.83 622.30
00023352 00000156 358.26 129.51 491.56 673.71 541.98 389.29 768.20 370.05 711.83 481.23 600.78 641.63 775.81 625.13
00023353 DELETE   361.25 128.03 492.72 683.14 546.13 386.96 772.61 371.12 717.74 480.73 605.47 645.38 778.65 632.01
00023354 00000158 366.75 136.14 494.66 674.46 556.76 385.21 784.57 381.69 728.76 480.87 608.61 645.26 782.97 642.41
00023355 DELETE   376.19 140.61 494.99 662.33 567.79 380.34 800.63 389.37 734.34 483.60 607.60 637.47 786.68 644.96
00023356 DELETE   372.02 145.03 518.39 659.27 584.42 380.22 812.01 414.71 741.99 488.12 605.69 630.29 786.55 657.59
00023357 DELETE   388.43 147.73 509.69 658.08 596.75 375.72 818.11 410.24 752.84 482.96 618.32 629.31 792.17 657.20
00023358 00000162 391.55 142.18 510.48 657.23 600.57 372.60 824.86 405.92 757.79 478.25 624.36 625.05 798.27 651.89
00023359 00000163 395.20 134.42 506.87 653.93 600.22 366.37 829.34 396.46 760.28 471.55 627.50 618.42 804.44 641.78
00023360 DELETE   395.66 135.45 503.80 650.27 594.85 363.52 824.34 389.50 755.05 463.56 625.40 615.35 803.31 635.35
00023361 DELETE   389.47 129.62 509.25 656.77 585.21 362.80 818.85 387.58 743.48 463.80 614.65 613.18 800.39 631.63
00023362 00000166 388.72 131.01 507.83 654.40 582.63 364.01 817.75 387.17 741.27 466.35 611.85 612.66 801.46 629.46
00023363 DELETE   393.32 133.14 507.81 655.76 593.54 368.58 824.39 387.76 757.04 470.58 624.67 617.28 811.33 631.21
00023364 00000168 401.60 130.80 501.93 667.37 601.20 365.48 827.77 379.39 772.48 464.90 643.89 624.27 823.42 634.15
00023365 00000169 404.77 126.83 496.29 667.58 603.51 363.99 827.04 370.19 776.38 459.23 653.63 621.22 829.93 624.68
00023366 DELETE   402.94 122.90 496.32 666.04 600.03 358.38 827.38 364.18 774.06 449.00 651.15 614.70 831.08 617.15
