Video ID: 	q_KSiya49N8
H: 	1080
W: 	1920
FPS: 	25.0

FRAME INDEX X0 Y0 W H [Landmarks (5 Points)]

00022285 00000000 386.80 120.11 509.79 712.86 602.77 406.02 803.01 376.93 783.51 492.71 653.51 650.03 836.21 625.85
00022286 DELETE   384.70 127.67 520.54 722.16 610.31 408.98 811.02 373.80 803.08 503.98 682.36 674.60 846.23 645.56
00022287 00000002 390.44 130.67 522.15 722.17 613.17 413.25 814.20 378.38 806.38 497.96 687.32 669.98 855.72 640.71
00022288 00000003 402.04 133.04 522.51 719.47 624.14 413.76 820.31 383.60 809.42 496.70 693.46 668.01 857.09 642.71
00022289 00000004 399.12 132.16 521.89 738.94 624.68 426.84 827.37 383.37 819.92 507.48 698.10 682.95 868.34 646.40
00022290 00000005 400.57 132.16 526.96 753.40 630.62 426.20 830.53 385.23 825.18 507.64 708.16 689.78 871.38 654.28
00022291 00000006 400.31 135.21 527.18 753.34 628.64 426.89 829.78 385.93 823.54 508.80 707.90 691.54 871.96 655.93
00022292 00000007 397.15 137.68 524.82 738.55 621.94 423.83 828.33 383.74 819.02 506.08 688.57 679.20 867.94 644.71
00022293 00000008 398.85 136.23 520.93 728.93 619.12 412.48 821.25 376.97 815.26 509.29 677.78 674.21 851.99 644.34
00022294 00000009 393.97 136.44 516.19 726.47 611.78 412.29 811.71 375.31 807.82 503.49 675.68 673.53 845.77 642.60
00022295 00000010 384.40 137.89 512.48 722.15 600.92 408.00 800.31 371.43 799.43 499.54 668.59 672.49 838.45 642.06
00022296 00000011 375.79 129.35 513.80 725.15 592.41 400.34 795.18 369.44 788.94 492.82 663.59 669.65 833.68 643.26
00022297 00000012 379.33 118.52 490.24 718.17 580.53 399.02 781.75 368.38 769.61 494.00 652.33 652.72 821.68 626.89
00022298 00000013 377.08 116.64 496.13 703.98 580.36 394.62 781.52 368.98 767.78 479.41 665.43 649.08 827.23 627.42
00022299 00000014 393.99 111.49 495.24 664.18 606.76 384.07 800.56 360.80 786.18 465.43 677.47 612.24 839.59 593.63
00022300 DELETE   405.25 117.17 489.81 646.24 636.49 367.81 834.27 370.62 810.64 447.47 683.73 594.67 851.31 595.34
00022301 DELETE   423.02 124.69 482.68 645.41 655.68 362.93 848.80 379.35 823.48 455.76 691.51 596.38 855.47 609.65
00022302 00000017 426.12 131.23 478.98 645.32 656.70 370.78 850.22 387.61 821.05 470.83 683.12 597.30 852.29 610.92
00022303 DELETE   425.01 137.30 474.65 633.84 648.05 380.71 846.06 394.07 813.63 481.18 678.75 600.89 849.10 610.83
00022304 00000019 425.40 145.46 470.31 620.27 643.46 390.65 846.73 401.07 810.86 487.02 673.67 601.42 847.90 608.83
00022305 00000020 419.79 149.91 472.05 620.26 641.41 390.91 842.87 403.76 806.99 488.45 670.96 603.31 842.18 612.37
00022306 00000021 414.32 147.07 473.36 635.31 635.04 387.90 830.15 400.60 795.63 490.65 660.82 608.09 829.78 617.49
00022307 DELETE   401.66 141.51 478.60 645.39 626.81 382.03 822.26 400.39 788.53 490.35 643.34 607.00 817.63 621.46
00022308 00000023 398.09 136.69 473.87 648.12 606.42 388.66 808.60 400.86 774.64 491.40 632.00 609.84 809.74 619.87
00022309 00000024 381.62 135.11 471.84 652.22 589.28 390.54 788.65 397.06 757.28 495.21 610.80 609.42 794.09 614.53
00022310 00000025 363.15 148.34 477.59 634.65 566.15 392.05 772.07 399.14 723.51 502.01 586.19 606.74 776.46 612.70
00022311 00000026 349.50 146.65 477.40 632.74 552.94 391.19 755.98 394.87 709.02 503.35 574.09 606.90 760.65 609.79
00022312 00000027 339.72 143.93 474.92 637.09 540.68 385.15 741.83 391.48 693.02 494.89 562.87 606.19 746.40 610.75
00022313 00000028 334.90 142.65 471.66 639.72 530.44 381.03 732.97 387.85 680.53 490.19 549.51 604.37 735.38 609.07
00022314 00000029 329.82 133.47 470.25 644.38 516.99 382.32 721.01 383.39 673.30 490.69 542.45 601.71 726.85 603.11
00022315 00000030 321.30 134.43 471.01 649.72 511.05 386.61 713.87 388.95 666.16 491.22 534.71 602.57 723.43 604.50
00022316 00000031 312.44 146.11 474.22 639.58 503.91 388.81 710.65 389.48 657.85 495.05 524.46 608.94 716.98 610.23
00022317 00000032 307.82 146.87 475.96 641.14 499.86 391.48 707.88 391.48 654.21 499.45 523.70 614.73 713.00 615.18
00022318 00000033 307.29 148.71 477.54 643.07 499.78 394.04 708.38 391.37 655.97 502.11 527.80 619.95 715.90 618.06
00022319 00000034 308.15 156.63 481.13 634.89 502.19 397.84 708.62 396.76 656.55 505.95 530.87 624.49 711.31 623.05
00022320 00000035 317.87 146.81 474.63 649.50 509.45 388.70 714.09 395.31 658.83 498.33 534.55 616.36 720.09 620.90
00022321 00000036 321.78 151.42 472.42 641.31 513.68 390.30 716.58 397.28 662.19 498.65 535.53 613.11 720.70 618.28
00022322 00000037 324.01 160.01 474.55 632.10 515.72 393.18 720.50 399.02 665.16 501.88 536.29 613.48 723.51 618.17
00022323 00000038 322.22 165.02 479.48 635.61 515.85 401.84 720.98 406.23 665.48 506.73 540.48 621.88 725.19 625.74
00022324 00000039 328.13 165.48 477.61 645.28 521.56 412.01 726.28 413.81 673.62 519.16 547.69 636.49 727.11 639.08
00022325 00000040 330.71 173.99 480.31 651.12 525.22 425.49 734.59 427.46 680.47 534.77 559.09 656.16 734.08 658.55
00022326 00000041 338.80 181.91 478.05 656.03 529.95 436.40 738.58 434.38 685.27 554.63 565.02 670.39 738.98 669.49
00022327 00000042 345.86 185.44 473.55 665.40 538.01 444.67 743.50 444.50 692.64 564.62 570.02 680.00 743.14 680.36
00022328 00000043 347.77 191.23 477.23 671.59 540.10 450.99 748.39 451.97 695.48 572.53 572.48 687.73 749.41 688.39
00022329 00000044 355.78 191.37 475.34 684.15 554.74 451.13 756.08 458.39 702.75 573.94 582.34 695.09 748.08 698.58
00022330 00000045 349.94 192.62 489.18 700.25 555.45 455.92 759.48 459.53 709.90 575.24 579.52 702.44 753.28 703.68
00022331 00000046 346.85 196.40 500.07 707.40 556.21 470.77 765.21 464.42 716.44 594.12 575.44 717.21 761.01 711.37
00022332 00000047 349.40 208.02 504.84 698.22 551.22 494.69 767.89 476.62 713.67 616.22 565.78 727.01 762.99 712.47
00022333 00000048 367.06 216.05 495.81 692.36 556.06 502.39 776.21 489.06 710.88 633.07 561.48 722.77 774.18 712.16
00022334 00000049 367.84 218.03 502.72 695.48 557.62 505.39 783.16 489.50 716.84 634.81 560.89 721.03 785.74 708.68
00022335 00000050 379.20 210.65 500.02 698.22 565.08 497.81 791.09 480.88 724.87 627.41 566.90 713.67 797.17 700.58
00022336 00000051 392.41 204.10 493.56 693.25 575.60 488.75 795.59 469.72 734.82 616.08 575.30 702.11 801.52 687.22
00022337 00000052 396.30 192.91 503.67 687.75 586.16 482.21 806.37 467.00 740.33 607.06 589.38 685.52 807.00 673.79
00022338 00000053 385.68 186.11 516.81 691.16 583.64 465.98 807.95 452.43 744.50 593.34 584.61 676.79 808.26 666.31
00022339 00000054 390.68 174.11 506.63 697.01 579.42 455.30 802.93 443.71 737.45 577.35 582.60 665.35 810.28 655.89
00022340 00000055 385.09 170.59 506.69 697.61 574.67 449.70 797.21 437.81 733.48 569.86 576.10 659.73 806.59 649.86
00022341 00000056 377.42 168.43 508.89 700.35 570.96 446.67 793.46 435.21 730.88 564.47 571.76 657.30 803.48 647.49
00022342 00000057 367.86 165.74 511.11 704.52 567.14 450.34 787.86 438.13 729.68 562.84 566.94 657.46 799.05 646.78
00022343 00000058 362.56 165.04 513.77 699.33 566.42 452.98 784.77 437.28 730.38 564.50 568.38 656.00 797.17 642.84
00022344 00000059 367.85 163.34 512.56 696.41 570.01 449.92 789.98 430.16 736.63 563.04 575.41 654.46 804.11 638.07
00022345 00000060 366.17 159.43 517.07 694.63 573.70 447.46 794.18 423.90 744.37 562.29 584.51 654.65 808.76 635.04
00022346 00000061 366.12 157.70 516.15 700.59 573.91 441.37 795.00 414.20 750.14 560.06 586.49 654.30 814.85 631.87
00022347 00000062 363.87 155.77 518.47 703.81 574.21 443.19 790.92 414.40 749.08 561.28 586.06 653.80 814.25 629.83
00022348 00000063 360.23 157.54 519.84 691.37 567.62 447.89 786.20 415.76 743.17 562.23 582.98 652.23 811.64 625.64
00022349 00000064 362.06 154.60 513.16 686.20 564.00 447.14 779.96 412.26 739.01 560.86 581.47 649.76 808.64 621.12
00022350 00000065 351.70 149.90 521.08 690.93 561.03 443.26 775.77 407.89 737.37 554.73 578.70 648.53 803.67 619.44
00022351 00000066 353.47 143.40 518.62 695.73 561.60 435.32 771.40 400.09 736.18 541.93 580.60 643.31 801.92 614.25
00022352 00000067 353.77 133.00 519.49 699.28 561.48 429.22 771.10 392.65 735.03 539.03 582.23 639.47 802.27 609.32
00022353 00000068 352.67 122.58 525.99 700.57 559.98 422.09 771.06 381.81 732.68 534.86 578.94 629.24 803.89 596.20
00022354 00000069 355.94 114.56 524.25 690.34 561.60 418.38 776.11 375.20 736.33 521.97 582.87 615.31 809.69 578.87
00022355 00000070 362.88 94.12 517.05 694.61 566.25 397.19 779.77 360.73 739.40 503.89 587.35 595.02 813.86 564.49
00022356 00000071 371.03 82.79 514.25 683.38 567.65 376.97 788.70 344.12 741.00 487.03 589.83 580.96 814.59 554.23
00022357 00000072 379.21 76.51 504.86 685.63 570.99 366.65 786.48 334.75 741.72 469.59 596.63 575.64 815.42 549.22
00022358 00000073 392.39 74.75 489.66 673.51 576.96 360.89 787.05 328.67 743.48 463.19 602.75 569.86 812.15 543.98
00022359 00000074 403.18 70.11 480.69 675.05 580.63 357.99 789.57 325.68 741.93 459.02 602.96 566.71 811.08 540.90
00022360 00000075 403.24 68.91 482.21 670.80 581.34 352.17 791.84 322.39 741.75 453.84 604.55 564.96 810.03 541.11
00022361 00000076 403.44 69.60 483.18 673.56 582.42 346.24 788.88 323.12 737.17 448.70 607.04 561.64 808.60 542.71
00022362 00000077 402.13 72.88 485.28 673.49 578.65 338.38 783.50 321.36 728.25 437.67 605.65 560.66 803.03 546.45
00022363 00000078 402.25 71.18 485.52 664.03 574.29 334.07 781.45 319.05 720.21 432.69 601.76 552.58 799.56 539.52
00022364 00000079 401.51 68.65 486.16 659.37 571.13 328.57 781.42 315.00 716.26 427.56 598.16 547.42 797.63 535.05
00022365 00000080 403.08 71.24 486.34 654.78 569.05 326.00 784.11 312.46 715.32 425.37 598.28 546.88 801.16 534.31
00022366 00000081 407.53 71.28 485.25 655.76 572.93 321.56 784.80 311.41 716.28 422.95 605.42 546.43 802.57 536.89
00022367 00000082 406.75 70.69 490.95 669.08 577.10 317.57 783.68 311.18 718.55 419.29 606.77 547.01 802.30 540.36
00022368 00000083 413.03 70.56 487.19 664.07 581.53 316.26 788.10 310.65 721.31 418.16 610.42 544.72 803.26 538.62
00022369 00000084 419.75 70.19 492.19 658.67 590.69 317.32 799.07 316.26 728.21 418.52 614.96 538.51 808.20 535.82
00022370 00000085 425.64 72.98 496.01 652.81 596.73 320.31 808.90 319.19 737.02 421.31 620.39 537.56 817.55 535.44
00022371 00000086 436.94 74.35 495.84 655.87 603.96 320.93 816.72 322.21 741.69 422.37 626.12 543.13 819.86 543.53
00022372 00000087 446.69 78.37 503.21 667.63 611.88 326.83 828.51 324.36 755.45 427.56 641.43 555.08 834.42 550.52
00022373 00000088 465.89 81.51 485.05 657.28 630.83 320.64 840.41 325.00 760.39 422.73 646.27 547.68 841.55 550.39
00022374 00000089 478.31 83.55 484.40 643.90 639.79 320.94 853.98 327.40 768.59 424.52 656.13 542.18 851.81 546.56
00022375 00000090 485.64 87.06 484.29 634.28 650.00 321.43 866.52 332.19 781.49 422.71 662.14 539.67 860.67 547.60
00022376 00000091 491.56 89.21 491.42 637.51 659.77 320.89 876.83 334.48 791.76 423.37 670.19 540.45 869.93 550.71
00022377 00000092 495.16 95.13 491.43 633.11 667.94 320.74 882.45 337.40 800.80 425.53 676.85 540.95 875.17 554.43
00022378 00000093 501.63 100.01 488.90 628.79 668.80 322.36 886.74 337.95 802.22 428.00 678.55 542.67 879.78 555.57
00022379 00000094 498.93 104.16 491.58 625.49 668.48 323.88 885.80 339.57 802.37 426.66 678.26 542.31 879.56 555.43
00022380 00000095 496.72 103.89 490.49 624.49 665.83 324.16 885.06 339.39 801.80 424.01 674.77 541.68 879.68 554.24
00022381 00000096 486.70 101.02 495.95 625.16 663.65 322.17 882.74 340.16 801.56 419.04 671.24 537.87 876.09 552.22
00022382 00000097 481.70 99.80 494.58 628.20 656.35 321.63 873.94 337.45 792.76 416.13 662.41 534.31 871.33 546.76
00022383 00000098 477.07 99.42 490.39 632.47 650.69 319.79 866.58 336.09 786.26 415.15 653.66 533.80 864.46 546.57
00022384 00000099 473.30 97.75 489.83 641.87 646.95 318.67 861.95 335.35 781.21 416.23 648.13 535.78 860.57 548.77
00022385 00000100 471.35 96.40 489.35 649.15 644.65 319.82 859.79 336.80 779.91 416.99 646.10 540.04 858.90 553.24
00022386 00000101 471.19 98.06 490.54 661.43 643.42 322.45 860.98 339.14 778.53 419.78 644.28 545.63 860.37 558.56
00022387 00000102 468.97 102.63 491.51 660.56 641.93 330.72 857.51 344.52 776.78 427.44 642.87 550.82 858.31 561.68
00022388 00000103 473.15 105.43 490.61 654.19 645.25 338.55 859.50 349.36 781.27 436.77 649.76 554.62 862.62 563.62
00022389 00000104 476.89 117.03 491.08 657.01 648.87 341.85 866.50 355.43 787.40 445.23 654.82 565.03 868.77 576.39
00022390 00000105 470.69 126.55 493.38 660.04 653.23 347.75 872.39 371.26 798.05 444.93 649.62 566.78 868.41 584.07
00022391 00000106 469.78 134.08 499.96 662.59 654.64 355.46 872.22 378.48 797.27 453.54 652.05 576.67 868.38 593.56
00022392 00000107 470.44 138.57 500.96 664.87 652.25 359.17 868.92 380.25 794.49 459.33 649.86 583.82 866.47 599.46
00022393 00000108 468.32 138.54 502.76 667.64 648.43 362.06 866.00 382.31 786.28 467.06 645.29 585.29 862.87 599.91
00022394 00000109 464.16 136.98 505.03 675.27 643.28 365.10 859.58 384.22 776.60 473.18 636.69 586.92 854.80 600.51
00022395 00000110 460.64 138.94 506.87 672.53 638.45 365.86 855.96 382.89 770.17 476.20 629.25 586.86 850.04 598.89
00022396 00000111 458.31 140.95 504.72 667.24 632.88 365.03 849.50 381.33 760.87 475.89 623.89 586.17 842.38 597.60
00022397 00000112 454.29 140.59 507.06 660.40 628.21 361.29 845.88 380.05 753.12 475.52 622.25 584.48 838.21 597.52
00022398 00000113 455.00 130.42 505.30 670.52 623.22 362.52 843.29 376.50 750.15 474.84 618.69 587.59 833.19 598.42
00022399 00000114 448.34 139.43 505.06 660.82 621.18 357.29 834.01 376.21 742.13 466.33 616.99 581.84 828.62 595.13
00022400 00000115 445.64 145.61 505.90 657.54 620.06 354.44 832.18 374.44 740.60 463.25 615.26 582.77 825.70 597.04
00022401 00000116 446.32 146.06 503.06 657.54 619.63 352.75 830.77 373.67 740.39 456.17 615.75 582.06 824.51 597.22
00022402 DELETE   445.96 144.54 501.44 653.63 619.88 351.01 829.74 372.81 741.39 453.62 616.71 579.56 822.75 595.65
00022403 00000118 449.69 147.36 499.82 640.15 618.39 356.66 834.53 377.11 743.07 465.45 615.06 579.21 823.82 596.53
00022404 00000119 449.63 147.56 498.79 628.25 621.92 357.26 837.31 380.80 746.52 464.43 619.42 576.58 821.38 596.47
CROP_BBOX: 57 0 1240 1080
