Video ID: 	ELm_U3dl9yc
H: 	1440
W: 	2560
FPS: 	25.0

FRAME INDEX X0 Y0 W H [Landmarks (5 Points)]

00007685 00000000 1047.94 163.06 661.17 993.70 1230.45 504.92 1535.85 529.23 1374.11 721.03 1236.25 874.81 1482.21 893.26
00007686 00000001 1045.07 158.12 662.78 990.78 1224.61 492.08 1529.85 513.32 1368.17 708.30 1233.16 860.23 1481.85 876.41
00007687 00000002 1030.87 148.60 675.60 1004.55 1217.96 491.83 1525.00 507.37 1372.31 695.47 1224.85 853.79 1488.55 864.92
00007688 00000003 1015.38 147.25 683.80 1001.06 1208.37 485.59 1518.56 503.37 1364.97 690.54 1214.12 846.94 1482.05 859.26
00007689 00000004 1004.51 142.90 682.04 1002.94 1203.77 478.66 1508.68 489.42 1360.42 689.95 1216.28 844.00 1475.50 852.01
00007690 00000005 992.52 132.10 693.42 1025.49 1196.52 490.55 1505.20 498.87 1362.79 692.88 1212.20 850.91 1486.05 854.41
00007691 00000006 987.60 138.13 694.97 1024.62 1193.69 502.32 1502.58 500.61 1370.22 703.52 1215.64 861.54 1492.52 856.74
00007692 00000007 982.63 133.98 687.30 1021.51 1186.58 501.62 1497.04 492.71 1368.64 700.46 1216.44 863.58 1491.59 852.05
00007693 00000008 974.60 133.24 682.55 1014.71 1180.89 487.13 1489.72 475.37 1359.60 678.90 1213.79 851.59 1485.06 839.11
00007694 00000009 960.40 115.75 682.00 1028.98 1169.18 477.27 1476.36 462.18 1351.63 656.14 1207.49 843.78 1475.73 828.63
00007695 00000010 945.79 120.61 688.52 1042.25 1156.13 486.99 1468.25 464.65 1345.71 654.82 1202.07 863.78 1463.93 841.53
00007696 00000011 938.89 120.59 688.57 1063.71 1150.04 487.17 1459.47 461.55 1337.67 660.31 1206.42 882.03 1452.99 856.51
00007697 00000012 930.24 119.69 683.29 1060.48 1138.66 482.82 1448.73 457.82 1323.69 658.87 1200.79 884.44 1441.49 859.77
00007698 00000013 930.11 127.61 678.27 1048.52 1128.50 505.32 1429.54 478.78 1311.58 665.70 1181.69 886.59 1425.25 860.60
00007699 DELETE   914.97 127.71 679.32 1075.74 1117.83 526.11 1425.90 502.72 1302.29 705.56 1166.09 911.14 1417.93 889.37
00007700 DELETE   901.27 141.72 684.70 1071.42 1097.14 543.69 1412.39 525.39 1279.02 729.91 1140.20 918.48 1406.96 900.78
00007701 00000016 889.44 147.72 682.49 1067.27 1080.38 545.51 1395.86 531.65 1256.56 730.14 1119.73 916.45 1390.05 902.28
00007702 00000017 884.37 147.75 681.51 1067.73 1078.24 542.95 1389.23 535.37 1251.97 728.75 1107.81 907.94 1383.42 899.42
00007703 00000018 882.25 152.53 672.75 1062.67 1078.86 541.90 1384.28 538.13 1250.40 729.88 1099.30 901.05 1377.40 895.88
00007704 00000019 874.79 159.32 661.76 1049.22 1066.91 534.50 1371.36 536.70 1237.53 729.91 1089.28 898.83 1358.03 899.51
00007705 00000020 858.01 152.93 654.48 1055.59 1052.72 531.24 1353.18 525.79 1225.80 720.02 1070.80 900.11 1332.60 893.66
00007706 00000021 850.90 154.80 657.92 1041.38 1049.57 525.33 1347.94 520.35 1220.23 711.85 1063.18 885.76 1325.94 879.72
00007707 00000022 851.07 154.17 657.60 1041.83 1049.67 525.25 1347.88 520.65 1220.09 712.05 1063.50 885.66 1325.75 879.94
00007708 00000023 851.27 153.93 657.47 1042.05 1049.55 525.42 1348.03 520.78 1220.03 712.12 1063.07 885.65 1325.78 879.90
00007709 00000024 866.01 170.50 648.80 983.89 1062.39 510.35 1352.05 511.57 1225.62 701.86 1070.83 858.33 1325.69 856.47
00007710 00000025 871.78 171.72 645.09 978.52 1064.30 509.46 1354.03 508.93 1226.79 697.99 1073.87 855.26 1330.67 851.78
00007711 00000026 879.74 171.63 638.45 972.63 1068.33 508.23 1359.18 507.14 1230.97 694.65 1080.81 851.94 1338.80 847.61
00007712 00000027 887.07 170.09 636.75 967.14 1073.64 511.04 1366.45 508.04 1236.03 694.15 1090.15 849.21 1349.19 842.97
00007713 00000028 894.95 171.53 631.96 966.53 1080.48 518.19 1372.43 515.82 1243.17 697.16 1092.17 852.18 1354.42 846.94
00007714 00000029 900.42 182.27 621.75 961.23 1082.41 525.77 1371.15 523.43 1246.26 700.31 1089.75 858.56 1353.98 853.58
00007715 00000030 904.25 199.06 615.16 953.46 1085.71 533.09 1371.19 535.65 1247.24 707.98 1086.85 864.00 1353.18 863.16
00007716 00000031 904.21 198.45 615.22 954.10 1085.71 533.19 1371.08 535.82 1247.41 708.15 1086.77 863.95 1353.09 863.19
00007717 00000032 904.13 198.43 615.16 954.11 1085.66 533.21 1371.06 535.79 1247.40 708.18 1086.77 863.97 1353.12 863.17
00007718 00000033 904.13 198.41 615.18 954.17 1085.67 533.21 1371.05 535.79 1247.40 708.16 1086.78 863.97 1353.12 863.17
00007719 00000034 930.61 210.55 603.36 976.97 1111.91 548.72 1392.82 565.29 1255.12 730.35 1124.84 891.54 1355.39 905.02
00007720 00000035 935.76 218.90 607.06 970.30 1119.89 553.78 1395.73 566.24 1263.65 732.67 1134.70 893.41 1363.10 903.69
00007721 00000036 949.65 229.58 597.38 964.30 1129.65 558.70 1399.73 563.83 1276.64 732.87 1142.49 896.09 1375.65 900.24
00007722 00000037 957.30 234.62 593.09 959.45 1138.20 565.15 1406.19 565.38 1288.37 740.51 1151.94 900.54 1385.12 900.53
00007723 00000038 960.57 238.73 595.64 948.27 1142.15 569.48 1409.02 563.70 1295.96 744.46 1165.31 903.19 1395.10 897.44
00007724 00000039 966.92 231.47 594.71 949.24 1143.45 565.99 1415.58 559.32 1302.41 741.22 1177.19 908.31 1400.83 901.44
00007725 00000040 974.34 237.36 591.22 935.32 1148.61 566.78 1420.97 562.42 1307.92 742.67 1186.46 910.48 1402.88 905.31
00007726 00000041 974.21 237.18 591.32 935.41 1148.67 566.77 1420.96 562.35 1307.96 742.83 1186.37 910.41 1402.84 905.20
00007727 00000042 974.08 237.26 591.47 935.39 1148.75 566.71 1421.06 562.33 1308.14 742.73 1186.35 910.43 1402.90 905.27
00007728 00000043 980.73 234.99 589.07 907.45 1150.15 569.58 1422.41 564.68 1308.47 746.18 1187.73 897.95 1405.52 891.73
00007729 00000044 986.31 234.21 586.66 900.66 1155.55 567.19 1425.48 561.86 1311.27 741.66 1193.24 892.70 1406.89 886.24
00007730 00000045 997.66 235.77 575.45 894.32 1160.89 556.56 1429.88 553.38 1320.46 727.13 1193.74 891.62 1414.19 886.03
00007731 00000046 997.43 234.42 577.79 893.90 1160.08 554.10 1428.64 550.36 1318.30 721.27 1191.59 886.42 1413.76 880.48
00007732 00000047 994.63 232.05 579.81 889.74 1158.89 551.03 1424.59 545.71 1317.36 714.64 1190.99 876.76 1415.13 869.59
00007733 00000048 994.68 232.07 579.74 889.81 1158.73 551.03 1424.40 545.45 1317.22 714.53 1191.18 877.05 1415.19 869.67
00007734 00000049 994.75 232.06 579.77 889.80 1158.74 551.11 1424.44 545.47 1317.17 714.52 1191.22 877.03 1415.32 869.61
00007735 00000050 994.74 232.22 579.82 889.63 1158.78 551.12 1424.48 545.48 1317.19 714.51 1191.24 877.02 1415.37 869.59
00007736 00000051 997.92 210.23 584.46 913.76 1159.64 529.94 1436.28 506.11 1328.30 689.16 1212.88 873.18 1439.85 849.85
00007737 00000052 988.25 204.62 588.23 914.39 1154.13 523.78 1426.93 495.08 1321.85 676.17 1217.44 870.95 1430.62 843.43
00007738 00000053 978.22 195.56 589.53 918.91 1143.92 522.56 1412.70 491.87 1310.38 671.67 1209.21 866.22 1418.66 837.63
00007739 00000054 972.43 190.89 591.37 919.83 1134.90 522.10 1404.70 488.36 1299.69 667.93 1201.75 862.52 1413.55 831.81
00007740 00000055 977.31 179.40 587.36 928.89 1137.76 518.89 1407.78 484.50 1302.28 666.11 1204.79 862.78 1415.79 831.39
00007741 00000056 973.68 183.27 586.29 930.25 1131.95 524.41 1402.95 488.34 1295.16 671.53 1200.65 870.30 1408.22 837.59
00007742 00000057 962.30 220.67 591.49 907.90 1119.19 535.36 1395.20 504.13 1283.30 695.31 1188.06 884.38 1401.31 856.32
00007743 DELETE   962.78 217.67 589.36 936.65 1113.86 561.23 1387.85 536.68 1271.04 727.60 1178.20 909.98 1395.29 886.27
00007744 DELETE   954.41 225.50 599.56 948.46 1116.23 592.84 1383.00 567.35 1270.03 762.00 1183.14 928.35 1397.48 903.42
00007745 00000060 956.80 240.32 598.73 929.40 1118.71 605.20 1389.33 580.65 1275.48 774.50 1185.48 932.97 1399.45 908.70
00007746 00000061 957.00 232.97 601.19 928.58 1119.60 594.11 1387.56 568.68 1275.64 762.33 1188.72 925.43 1397.34 900.67
00007747 00000062 959.82 217.10 608.40 933.28 1118.70 579.18 1394.24 553.09 1278.01 753.82 1187.06 918.01 1398.89 893.25
00007748 00000063 959.64 216.94 608.55 933.63 1118.82 579.20 1394.06 553.08 1278.12 753.76 1187.06 918.07 1398.86 893.27
00007749 00000064 959.62 217.60 608.48 932.88 1118.75 579.23 1394.12 553.07 1278.20 753.71 1187.00 918.23 1398.90 893.40
00007750 00000065 976.92 229.37 611.01 954.51 1146.04 574.69 1424.57 548.58 1317.31 759.36 1219.10 952.43 1424.39 928.05
00007751 00000066 986.55 235.08 617.30 960.87 1160.06 581.03 1444.01 551.43 1340.82 772.28 1240.29 965.54 1448.07 938.11
00007752 00000067 998.46 233.18 622.46 969.72 1168.77 592.13 1456.34 559.24 1356.66 774.61 1254.44 969.52 1465.63 938.73
00007753 00000068 996.47 238.66 632.02 972.55 1168.93 602.67 1461.24 567.19 1361.41 784.98 1254.28 975.35 1474.42 942.66
00007754 00000069 995.52 243.25 636.12 971.37 1169.67 610.70 1462.44 571.52 1363.97 798.06 1255.56 981.34 1478.57 945.75
00007755 00000070 995.17 245.95 639.41 969.23 1170.37 615.39 1463.22 575.12 1365.46 805.48 1257.63 984.37 1479.74 947.72
00007756 00000071 996.84 254.61 640.10 956.49 1171.86 621.56 1463.99 578.81 1365.18 810.76 1260.95 985.95 1484.14 947.00
00007757 00000072 996.62 253.93 640.21 957.49 1171.70 621.56 1464.14 578.93 1365.09 810.85 1260.37 985.96 1484.32 947.11
00007758 00000073 996.63 253.84 640.20 957.54 1171.78 621.53 1464.09 578.87 1365.12 810.86 1260.59 985.91 1484.35 947.03
00007759 00000074 996.61 253.89 640.22 957.45 1171.71 621.56 1464.07 578.88 1365.11 810.86 1260.55 985.91 1484.35 947.03
00007760 00000075 980.31 251.26 633.87 961.61 1153.30 615.59 1445.04 574.99 1349.32 810.87 1248.31 991.91 1462.61 955.94
00007761 00000076 978.13 251.42 623.04 956.05 1149.58 607.45 1434.96 570.07 1336.18 804.03 1240.31 985.43 1451.35 951.84
00007762 00000077 974.58 245.17 621.02 954.58 1143.87 600.84 1430.65 564.37 1328.80 790.15 1230.31 977.78 1441.76 945.89
00007763 00000078 970.41 232.72 616.76 947.23 1138.23 589.04 1419.60 557.75 1313.25 770.78 1218.68 958.61 1426.82 930.25
00007764 00000079 972.79 223.27 613.48 955.81 1141.20 581.19 1421.98 560.65 1308.66 763.56 1207.33 935.67 1417.71 915.29
00007765 00000080 976.00 227.14 609.55 943.95 1144.22 566.07 1424.67 554.72 1307.88 755.90 1196.35 916.98 1414.21 904.89
00007766 00000081 977.46 223.73 607.04 939.34 1146.72 557.98 1427.22 551.44 1309.06 753.56 1192.29 907.66 1411.27 899.90
00007767 00000082 978.99 224.66 607.08 943.06 1152.69 549.93 1430.46 548.77 1310.49 750.02 1193.06 905.73 1406.15 902.85
00007768 00000083 979.16 218.92 605.93 949.30 1153.46 545.87 1430.38 547.73 1307.62 745.48 1194.85 909.09 1399.55 909.48
00007769 00000084 982.25 218.00 606.05 939.69 1157.09 543.29 1436.76 544.84 1313.75 740.39 1198.78 904.28 1405.12 904.03
00007770 00000085 988.99 217.29 599.55 926.13 1163.07 528.68 1444.87 531.46 1320.57 725.30 1196.58 900.04 1404.83 900.07
00007771 00000086 990.39 208.20 601.98 923.63 1161.05 522.83 1446.39 527.55 1319.38 721.04 1192.49 891.75 1401.47 893.89
00007772 00000087 990.07 206.60 599.88 921.83 1159.65 518.33 1446.73 527.91 1314.14 719.40 1184.93 884.87 1396.49 891.04
00007773 00000088 992.74 201.15 600.76 932.62 1163.49 516.70 1448.94 527.42 1314.91 717.63 1184.71 884.39 1397.93 891.68
00007774 00000089 1005.44 207.86 597.02 926.54 1167.60 522.97 1455.26 531.99 1320.54 723.73 1190.74 888.97 1407.70 894.71
00007775 00000090 1012.64 214.58 598.08 917.38 1176.46 534.31 1459.83 542.01 1327.10 733.96 1199.66 892.46 1419.09 896.31
00007776 00000091 1023.98 218.57 599.15 912.73 1186.32 545.33 1467.01 548.24 1337.53 744.05 1213.53 894.82 1433.22 893.85
00007777 00000092 1027.41 220.11 607.96 904.80 1190.20 549.59 1470.60 540.76 1344.97 741.29 1233.53 895.01 1449.69 883.33
00007778 00000093 1024.35 208.85 615.52 904.41 1182.24 545.90 1469.95 521.10 1344.56 721.93 1242.76 887.56 1465.25 861.87
00007779 00000094 1018.26 199.83 622.02 907.41 1172.71 539.48 1460.27 501.46 1337.64 707.79 1251.75 885.09 1468.38 848.21
00007780 00000095 1015.47 189.36 625.55 914.28 1168.82 533.27 1456.39 489.55 1334.28 691.75 1260.24 882.02 1471.17 840.58
00007781 00000096 1013.67 187.07 622.87 909.81 1163.86 527.02 1444.91 476.58 1330.93 673.72 1261.53 874.53 1475.35 829.05
00007782 00000097 1012.62 180.51 621.27 904.16 1164.77 524.18 1443.85 467.42 1333.47 658.05 1266.89 868.14 1477.54 818.03
00007783 00000098 1002.97 185.39 622.14 894.41 1157.69 521.63 1433.54 463.49 1327.63 654.86 1263.07 863.84 1472.42 813.46
00007784 00000099 997.90 190.39 624.21 884.87 1151.47 524.17 1422.24 464.07 1319.93 654.75 1259.99 860.39 1466.71 808.78
00007785 00000100 987.69 191.82 624.98 882.45 1141.12 527.88 1408.30 463.99 1310.36 656.53 1252.89 857.98 1461.60 803.73
00007786 00000101 973.00 193.11 631.14 884.31 1125.95 529.07 1393.33 460.84 1293.16 655.08 1243.15 859.63 1452.83 801.85
00007787 00000102 950.46 190.55 644.89 895.23 1109.99 537.35 1375.78 461.86 1277.74 655.05 1234.67 864.79 1444.15 801.86
00007788 00000103 932.89 196.36 654.69 903.67 1097.86 547.00 1358.33 467.27 1263.68 659.34 1225.82 871.98 1433.22 806.12
00007789 00000104 921.89 198.20 657.81 908.76 1086.28 552.99 1347.99 474.54 1251.67 667.21 1210.26 878.00 1418.00 813.24
00007790 00000105 922.78 198.09 651.62 901.59 1083.66 557.26 1345.97 481.21 1248.70 678.35 1202.95 877.99 1411.52 816.08
00007791 00000106 925.18 200.74 650.59 896.72 1082.30 562.24 1346.52 489.17 1248.27 689.01 1199.23 877.76 1410.53 819.15
00007792 00000107 929.05 205.74 649.59 898.65 1082.36 571.72 1349.63 499.64 1251.98 703.26 1197.37 887.94 1414.87 830.14
00007793 00000108 933.92 206.42 650.38 909.88 1084.65 579.53 1354.96 508.97 1255.18 712.77 1201.59 902.53 1417.85 845.23
00007794 00000109 942.00 217.15 652.16 917.65 1091.71 585.00 1359.27 516.80 1260.09 725.89 1212.47 915.63 1425.25 860.03
00007795 00000110 950.02 229.77 647.08 911.30 1104.21 593.67 1367.97 519.25 1263.57 724.93 1226.76 927.85 1431.92 862.42
00007796 00000111 954.07 227.90 651.04 919.30 1107.85 595.89 1375.61 518.61 1265.49 730.06 1233.67 933.18 1438.76 865.14
00007797 00000112 960.87 224.70 652.02 929.40 1113.75 599.44 1380.33 518.48 1269.42 731.44 1242.33 940.71 1443.07 870.00
00007798 00000113 971.44 234.03 646.12 921.84 1123.29 606.23 1383.83 529.72 1274.21 734.29 1244.96 941.82 1444.59 874.92
00007799 00000114 982.02 240.33 643.88 916.22 1133.48 612.92 1398.11 542.68 1286.30 741.98 1246.17 944.21 1450.36 883.12
00007800 00000115 986.10 237.30 646.42 918.93 1137.13 610.54 1407.59 543.68 1293.90 745.28 1247.65 945.28 1456.34 886.76
00007801 00000116 992.68 227.99 648.27 925.40 1139.75 604.66 1415.69 541.36 1297.46 746.56 1248.59 944.06 1460.99 888.09
00007802 00000117 1000.06 228.03 643.33 919.89 1142.39 595.93 1426.25 538.88 1299.73 747.86 1244.88 938.36 1464.24 887.04
00007803 00000118 1004.88 227.92 639.29 911.03 1142.43 587.79 1432.04 533.65 1300.79 743.05 1239.39 930.38 1465.40 881.73
00007804 00000119 1012.29 224.85 636.43 910.58 1145.46 579.83 1438.28 529.67 1301.29 738.62 1237.27 926.47 1462.29 881.86
00007805 00000120 1017.47 216.46 632.72 922.98 1148.98 575.65 1440.00 531.47 1303.25 733.04 1230.61 913.38 1462.42 877.97
00007806 00000121 1025.65 212.39 630.91 930.16 1154.63 567.27 1447.93 527.62 1308.70 726.26 1231.81 910.47 1465.46 878.93
00007807 00000122 1033.45 211.11 628.00 933.19 1163.36 560.11 1460.05 527.74 1318.49 726.63 1234.10 908.60 1470.25 882.82
00007808 00000123 1049.92 216.31 622.77 954.97 1191.76 556.57 1472.37 530.45 1326.95 720.16 1252.60 912.35 1471.86 887.49
00007809 00000124 1054.78 214.72 621.30 962.84 1196.97 552.55 1481.30 532.59 1330.58 722.00 1250.91 913.18 1471.91 894.01
00007810 00000125 1066.37 212.26 617.82 959.79 1202.44 552.21 1490.91 537.44 1337.06 726.10 1248.72 908.76 1477.91 894.49
00007811 00000126 1074.05 207.72 615.67 965.73 1213.05 556.04 1501.98 546.98 1349.14 734.86 1252.91 911.03 1483.87 902.06
00007812 00000127 1079.48 209.00 619.36 969.70 1221.99 555.75 1510.87 550.91 1357.59 740.62 1257.54 911.87 1488.91 906.37
00007813 00000128 1081.94 225.21 621.35 965.08 1229.36 553.59 1518.35 554.38 1363.28 741.42 1261.21 913.43 1487.18 912.58
00007814 00000129 1085.96 230.55 620.85 970.08 1237.25 550.37 1525.97 559.60 1367.74 741.87 1259.31 914.20 1484.60 920.50
00007815 00000130 1089.49 231.82 619.72 974.39 1245.03 549.29 1536.75 568.95 1373.17 748.27 1257.62 918.84 1482.93 934.07
00007816 00000131 1090.05 232.78 626.40 980.20 1255.47 554.07 1546.43 580.05 1382.11 756.14 1263.47 926.41 1482.30 946.37
00007817 00000132 1094.28 228.11 633.37 981.83 1266.33 558.68 1558.23 591.91 1393.12 764.93 1270.03 929.61 1484.38 955.29
00007818 00000133 1100.42 227.88 630.13 974.51 1272.71 564.71 1565.57 594.78 1406.53 765.04 1277.57 929.06 1497.92 951.98
00007819 DELETE   1110.05 232.51 618.56 954.59 1283.32 562.51 1568.49 586.73 1415.43 755.19 1284.66 926.50 1508.89 944.50
00007820 00000135 1118.94 238.03 630.56 955.66 1290.99 557.02 1587.11 575.97 1428.37 759.24 1304.47 915.53 1525.35 932.34
00007821 00000136 1130.31 235.45 625.94 960.22 1302.44 553.50 1595.51 575.65 1439.67 754.83 1309.14 907.74 1536.39 927.24
00007822 00000137 1133.09 229.08 630.37 964.22 1314.79 549.19 1603.18 576.96 1449.80 751.04 1315.49 899.07 1540.21 923.87
00007823 00000138 1132.88 228.14 645.84 965.39 1336.69 541.33 1624.05 581.89 1469.50 742.95 1320.21 892.59 1543.43 928.19
00007824 00000139 1132.22 224.77 655.29 978.49 1360.21 538.88 1643.70 593.75 1496.15 743.32 1330.61 898.69 1550.11 946.36
00007825 00000140 1129.45 216.75 656.46 984.96 1368.06 538.62 1651.51 603.62 1507.40 743.36 1331.01 898.92 1550.72 955.19
00007826 00000141 1119.27 215.59 659.76 973.52 1362.83 534.65 1648.30 602.87 1508.22 743.46 1321.74 886.41 1550.43 945.80
00007827 00000142 1111.33 210.25 654.76 959.81 1347.82 523.86 1641.10 594.48 1499.28 738.94 1308.31 875.25 1543.82 937.16
00007828 00000143 1096.46 202.49 657.67 966.15 1329.54 528.49 1624.62 591.38 1482.47 739.83 1294.80 873.74 1533.40 929.40
00007829 00000144 1088.06 219.46 655.59 963.70 1315.52 536.46 1608.28 593.48 1461.38 747.95 1282.78 885.64 1518.42 936.92
00007830 00000145 1077.65 233.86 658.60 972.69 1302.59 546.25 1587.86 603.73 1443.10 773.67 1266.70 910.44 1508.19 960.33
00007831 00000146 1068.37 221.16 661.62 1016.06 1301.17 556.77 1584.44 620.60 1435.61 779.90 1256.96 925.12 1485.45 978.10
00007832 00000147 1063.44 235.81 655.56 1002.73 1286.83 564.42 1574.54 628.17 1423.82 793.72 1246.58 932.73 1480.59 985.62
00007833 00000148 1058.75 233.40 650.57 1001.63 1277.99 568.57 1565.02 627.74 1416.57 795.62 1240.65 932.05 1476.14 981.15
00007834 00000149 1050.55 230.66 651.21 998.49 1269.13 569.09 1556.76 619.67 1412.09 795.69 1238.96 928.95 1474.96 970.81
00007835 00000150 1049.75 233.17 647.93 989.24 1261.82 569.91 1551.43 614.97 1408.52 796.38 1237.33 928.68 1474.44 966.34
00007836 00000151 1047.76 238.50 645.81 978.73 1257.48 569.06 1547.27 612.15 1403.85 795.18 1237.56 926.66 1472.94 962.65
00007837 00000152 1044.68 232.34 645.93 984.00 1249.07 567.09 1539.75 607.13 1393.68 789.87 1232.13 924.46 1468.21 957.83
00007838 00000153 1036.96 226.17 650.64 987.21 1240.40 565.59 1529.75 601.46 1382.62 783.97 1228.56 922.09 1461.33 952.18
00007839 00000154 1030.97 219.79 651.04 992.24 1231.60 563.05 1519.35 593.36 1371.51 777.22 1224.21 921.31 1456.89 947.36
00007840 00000155 1023.64 225.22 647.59 989.29 1220.15 558.14 1510.69 579.86 1364.36 767.45 1221.69 923.02 1453.72 942.35
00007841 00000156 1019.70 218.97 643.53 991.14 1210.38 554.43 1505.12 571.98 1358.38 764.08 1223.38 921.71 1451.24 937.18
00007842 00000157 1015.29 209.99 636.71 993.76 1203.51 550.57 1499.57 563.32 1355.56 756.77 1224.54 917.77 1452.07 928.73
00007843 00000158 1013.02 206.15 633.13 992.74 1196.95 548.52 1494.50 556.80 1354.52 746.94 1221.38 912.05 1455.70 919.03
00007844 00000159 1009.81 210.94 630.37 980.97 1189.99 548.23 1488.89 553.89 1351.37 738.10 1216.72 907.08 1457.34 911.44
00007845 00000160 1006.26 215.87 620.68 966.09 1184.92 553.04 1478.89 553.66 1351.06 732.79 1206.15 911.15 1457.27 907.77
00007846 00000161 1004.71 218.28 619.59 955.18 1180.57 561.79 1471.68 558.26 1349.64 740.15 1204.01 909.19 1459.52 902.83
00007847 00000162 1001.36 221.53 616.11 948.77 1179.72 570.24 1467.21 564.74 1351.12 744.86 1203.09 907.80 1462.58 900.17
