Video ID: 	QUWsalAbmFc
H: 	1080
W: 	1920
FPS: 	25.0

FRAME INDEX X0 Y0 W H [Landmarks (5 Points)]

00000614 00000000 683.20 281.15 508.36 661.91 866.19 566.59 1110.22 574.58 1007.82 746.85 871.08 830.81 1039.57 838.84
00000615 00000001 685.01 274.23 511.30 670.82 868.87 566.93 1112.61 572.30 1015.78 749.33 872.10 833.47 1044.82 839.04
00000616 00000002 682.03 275.92 511.11 689.01 866.00 568.20 1108.27 576.07 1013.32 751.98 870.80 837.89 1045.89 845.53
00000617 00000003 679.84 280.15 512.38 688.03 865.66 570.36 1109.24 577.59 1015.57 753.22 871.82 839.13 1048.58 846.26
00000618 00000004 678.51 284.86 511.49 688.56 864.24 572.88 1107.42 578.77 1014.70 753.45 871.50 840.78 1048.86 847.08
00000619 00000005 677.44 282.96 511.75 690.63 861.54 574.60 1106.22 579.09 1014.27 755.79 871.06 843.17 1050.06 848.35
00000620 00000006 675.58 284.97 513.68 684.81 861.10 575.47 1106.34 578.65 1013.87 755.84 870.59 841.00 1050.60 845.22
00000621 00000007 675.44 280.89 514.14 686.39 859.18 574.70 1106.59 578.28 1012.56 754.96 868.90 840.28 1049.66 844.75
00000622 00000008 675.45 279.68 513.40 686.70 858.48 572.80 1106.43 576.76 1011.64 754.89 868.10 838.66 1049.55 843.32
00000623 00000009 676.05 277.30 512.36 687.00 857.96 572.62 1106.40 576.65 1011.14 754.58 866.74 837.46 1049.00 841.98
00000624 00000010 678.75 277.70 510.57 684.36 860.63 569.12 1106.32 575.74 1012.03 753.21 867.46 834.94 1046.59 841.60
00000625 00000011 680.10 272.33 510.96 687.64 862.48 565.53 1107.81 573.74 1012.50 750.28 866.48 833.81 1044.93 841.60
00000626 00000012 681.00 272.15 512.69 684.21 865.52 563.53 1110.02 572.10 1013.03 748.92 867.14 832.07 1043.35 840.20
00000627 00000013 679.05 271.34 515.39 683.85 870.63 564.16 1109.22 577.69 1013.29 744.07 867.09 827.86 1040.07 839.89
00000628 DELETE   678.43 266.26 511.42 727.68 872.11 571.39 1100.72 580.43 1012.48 735.17 871.25 832.44 1056.83 840.64
00000629 00000015 676.89 264.23 514.07 729.50 871.66 568.47 1101.99 580.56 1012.36 729.70 870.96 829.50 1058.07 839.89
00000630 00000016 676.49 265.12 518.22 727.52 871.62 565.04 1102.94 578.80 1011.89 726.61 870.24 825.04 1059.99 836.53
00000631 DELETE   678.42 263.18 517.14 732.59 871.29 554.64 1104.07 569.78 1011.76 722.51 868.56 822.08 1061.18 834.37
00000632 00000018 680.03 261.66 516.87 730.12 868.82 547.37 1103.48 564.06 1008.81 721.87 866.21 819.43 1057.63 833.16
00000633 00000019 678.59 261.98 518.42 725.15 866.83 543.54 1103.58 559.40 1007.53 721.10 865.58 817.77 1057.42 830.79
00000634 00000020 678.99 260.04 515.67 725.17 866.59 539.91 1102.39 557.69 1006.93 717.30 863.66 814.32 1055.86 828.82
00000635 00000021 678.30 257.60 513.37 727.41 862.24 536.62 1099.42 552.40 1004.41 715.74 863.11 814.45 1055.38 827.39
00000636 00000022 677.34 256.98 509.35 728.57 860.18 533.39 1095.97 549.09 1003.29 711.81 863.19 814.66 1052.19 827.63
00000637 00000023 675.39 253.32 508.79 737.10 858.28 530.99 1093.85 545.41 1001.28 709.70 866.58 816.00 1049.33 828.02
00000638 00000024 672.49 255.43 507.57 737.27 854.00 527.46 1088.78 543.05 996.38 706.32 863.45 815.01 1043.54 828.20
00000639 00000025 669.53 251.78 507.41 736.74 848.58 523.09 1083.58 538.81 990.69 701.87 860.27 811.54 1039.23 824.82
00000640 00000026 665.56 246.69 510.10 737.92 845.52 517.69 1080.40 534.34 987.66 696.36 858.05 806.44 1037.82 820.36
00000641 00000027 663.41 241.89 512.09 743.15 844.16 514.31 1078.76 529.24 984.77 693.80 857.23 805.06 1035.62 817.49
00000642 00000028 659.88 236.50 515.39 747.86 842.23 512.36 1076.29 526.48 982.19 690.71 855.62 802.60 1034.09 814.25
00000643 00000029 658.19 236.87 517.16 749.01 841.41 511.01 1075.27 524.90 981.92 688.25 855.74 802.12 1034.14 813.48
00000644 00000030 658.16 233.19 519.47 752.72 840.19 510.95 1075.34 524.50 981.07 687.92 854.23 800.77 1035.49 811.82
00000645 00000031 659.89 234.48 516.82 749.45 842.22 506.30 1074.10 519.49 980.86 686.46 855.94 798.19 1033.79 809.02
00000646 00000032 660.50 232.18 516.74 750.50 841.29 505.30 1073.90 516.30 980.83 682.90 857.12 797.32 1034.92 806.28
00000647 00000033 661.33 232.21 515.78 749.39 841.31 503.58 1074.16 513.75 981.30 681.57 858.05 795.85 1036.05 804.05
00000648 00000034 661.64 230.02 516.65 750.77 841.57 502.44 1074.57 512.55 981.43 680.23 858.87 794.53 1036.34 802.63
00000649 00000035 661.64 228.86 515.80 748.99 841.67 501.44 1074.96 510.78 982.58 677.87 860.00 793.35 1036.96 800.82
00000650 00000036 661.38 227.22 516.62 751.04 841.57 500.40 1075.37 510.64 981.95 677.08 858.96 792.01 1037.08 800.12
00000651 00000037 661.50 229.60 516.37 746.80 839.91 499.42 1074.48 509.14 980.79 676.69 859.18 791.18 1036.45 798.99
00000652 00000038 661.16 228.58 516.15 747.15 838.96 498.18 1073.01 507.80 979.09 675.96 858.46 790.65 1034.69 798.52
00000653 00000039 660.70 228.76 515.84 746.50 839.42 498.01 1071.96 508.08 978.34 674.08 858.42 789.57 1032.89 797.80
00000654 00000040 659.35 228.41 517.36 746.90 838.95 496.77 1070.33 507.54 976.71 673.22 857.69 788.71 1030.74 797.52
00000655 00000041 659.78 228.86 515.03 745.01 837.33 496.17 1069.57 506.67 976.05 673.38 856.19 789.89 1030.26 798.53
00000656 00000042 659.31 227.93 514.36 746.51 836.11 496.62 1069.13 506.76 975.34 673.35 854.85 791.83 1029.56 800.17
00000657 00000043 659.80 229.27 513.83 745.50 836.55 495.67 1069.97 506.67 975.89 673.66 853.26 792.40 1028.98 801.54
00000658 00000044 659.45 227.30 514.41 749.28 836.65 494.89 1070.20 506.36 976.09 673.92 851.75 792.75 1029.10 802.29
00000659 00000045 661.96 227.85 512.85 748.78 837.02 494.90 1070.23 506.09 976.30 672.91 850.91 792.52 1029.83 801.91
00000660 00000046 669.27 229.44 500.38 701.62 828.10 505.12 1072.35 505.47 976.09 673.81 851.15 791.02 1029.64 792.73
00000661 00000047 668.94 226.94 501.23 705.37 829.18 503.93 1073.17 504.66 977.54 673.48 852.35 791.15 1030.40 793.06
00000662 00000048 669.66 226.05 501.66 708.59 831.75 503.16 1074.40 504.64 979.33 672.81 853.96 791.37 1032.48 793.78
00000663 00000049 670.33 228.58 500.72 705.26 831.57 503.50 1074.48 504.93 979.64 673.34 854.07 791.14 1032.51 793.58
00000664 00000050 670.35 228.43 500.81 702.49 831.65 504.00 1074.74 505.05 980.34 673.45 854.71 790.71 1032.99 792.82
00000665 00000051 669.73 226.97 501.99 703.71 832.08 503.66 1076.65 504.78 981.80 672.91 854.50 789.22 1034.84 791.35
00000666 00000052 669.60 227.21 501.43 702.28 832.22 501.04 1077.05 503.10 982.80 671.72 854.16 787.59 1035.35 790.44
00000667 00000053 669.79 226.01 501.32 705.75 832.67 499.56 1077.07 502.20 982.60 669.30 853.28 785.35 1036.19 788.64
00000668 00000054 670.34 226.39 500.53 700.31 832.91 499.37 1077.56 501.41 983.63 669.44 854.05 783.76 1037.72 786.58
00000669 00000055 671.90 224.72 499.26 698.67 832.85 499.74 1077.89 501.08 983.63 669.47 854.05 782.31 1038.48 784.68
00000670 00000056 671.74 225.36 499.17 697.27 832.94 499.25 1077.79 500.63 983.51 668.75 854.12 781.98 1037.78 784.43
00000671 00000057 672.29 225.40 499.19 697.72 833.45 498.79 1077.34 500.28 983.34 668.53 855.30 781.70 1037.60 784.26
00000672 00000058 673.88 226.14 498.29 699.73 833.89 498.55 1076.87 501.03 982.71 668.65 855.59 783.51 1035.92 786.79
00000673 00000059 672.52 227.30 499.30 704.54 834.95 500.22 1075.08 504.19 980.88 669.41 853.91 785.51 1032.64 789.91
00000674 00000060 672.71 228.14 499.02 705.45 834.61 499.42 1074.85 503.84 980.49 669.06 853.40 785.73 1032.68 790.43
00000675 00000061 673.03 224.69 499.55 712.35 835.61 497.83 1075.40 503.55 980.42 667.90 851.61 784.09 1033.56 789.70
00000676 00000062 672.83 223.68 498.02 704.03 834.42 497.92 1077.14 502.23 981.51 667.64 849.70 778.59 1035.88 783.25
00000677 00000063 673.33 223.83 498.22 688.96 834.61 499.62 1079.34 501.81 984.90 669.21 851.86 775.44 1037.60 778.63
00000678 00000064 673.70 222.98 497.52 681.54 835.49 500.28 1080.60 501.22 987.30 666.95 852.91 771.90 1039.31 774.06
00000679 00000065 673.44 225.49 496.11 682.34 835.15 496.99 1081.23 498.49 987.77 664.64 853.95 772.34 1039.73 774.98
00000680 00000066 674.56 223.61 497.71 690.26 836.48 495.65 1082.17 498.53 988.33 663.03 856.13 773.83 1040.09 777.52
00000681 00000067 675.36 220.89 496.87 706.59 837.71 495.43 1078.83 500.09 986.01 662.10 853.11 775.71 1038.40 780.74
00000682 00000068 675.51 218.97 496.57 708.04 837.54 495.54 1078.85 500.09 986.48 663.08 853.84 777.69 1039.11 782.52
00000683 00000069 674.94 220.41 496.62 705.10 837.27 495.86 1079.05 499.82 987.29 660.72 854.84 777.74 1040.46 782.05
00000684 00000070 673.93 220.53 496.36 702.37 836.25 495.52 1079.31 499.10 987.58 661.39 854.07 776.86 1041.62 780.78
00000685 00000071 672.66 219.21 496.56 703.48 837.01 494.86 1078.55 498.77 987.66 659.63 853.04 773.67 1041.10 777.94
00000686 00000072 670.99 220.13 498.60 702.99 838.54 494.24 1079.25 499.17 988.52 658.28 852.10 771.06 1041.34 776.11
00000687 00000073 672.64 221.06 497.81 696.21 841.73 497.00 1081.22 501.69 991.15 656.54 854.20 769.13 1044.33 774.01
00000688 00000074 670.49 221.78 499.01 712.49 843.15 494.98 1081.62 503.78 991.27 654.33 850.88 774.44 1044.18 782.13
00000689 00000075 672.38 225.05 499.63 720.07 844.33 494.63 1081.97 504.19 991.01 656.14 855.75 781.45 1039.78 790.03
00000690 00000076 670.94 225.62 497.88 699.59 841.72 498.97 1081.77 503.98 991.48 662.79 859.44 779.92 1040.24 785.28
00000691 00000077 673.85 226.66 496.07 688.67 842.15 502.60 1083.70 503.57 994.27 666.21 866.27 780.66 1044.71 782.94
00000692 00000078 674.94 227.25 495.65 692.48 844.65 500.97 1084.84 504.83 995.02 663.99 863.79 779.75 1042.68 784.34
00000693 00000079 677.07 224.95 496.61 707.12 848.37 501.23 1087.25 506.59 997.05 665.85 866.15 781.50 1044.93 787.33
00000694 00000080 678.79 227.80 496.99 699.96 848.84 502.33 1089.62 508.92 998.60 668.17 864.15 781.77 1046.77 788.54
00000695 00000081 681.02 230.14 497.10 700.41 852.46 501.50 1092.51 509.92 1001.46 666.39 864.77 781.12 1047.33 789.28
00000696 00000082 683.31 229.82 496.41 697.28 856.77 502.03 1095.89 511.08 1005.52 666.95 866.60 780.70 1048.76 789.36
00000697 00000083 683.91 230.11 497.61 701.80 859.11 500.39 1098.08 511.87 1006.97 667.15 865.58 779.84 1050.89 790.34
00000698 00000084 684.95 230.55 496.28 706.38 859.98 499.43 1098.47 511.35 1008.58 666.21 865.03 778.49 1054.33 789.21
00000699 00000085 685.18 231.33 495.90 701.50 860.81 500.55 1098.45 511.01 1009.43 665.84 868.09 778.09 1054.78 787.71
00000700 00000086 683.76 230.09 495.00 696.76 859.19 501.77 1098.46 511.51 1009.71 666.22 866.57 776.07 1055.04 785.11
00000701 00000087 682.96 228.84 493.93 696.50 858.36 502.77 1096.45 511.00 1008.85 665.85 866.46 774.10 1055.88 781.82
00000702 00000088 682.26 229.26 494.27 690.19 855.83 503.97 1093.88 509.59 1006.85 665.33 866.72 770.70 1056.20 776.37
00000703 00000089 679.54 225.59 494.94 691.52 852.99 504.86 1092.26 508.76 1006.25 664.90 865.17 769.63 1058.72 773.68
00000704 00000090 679.39 225.44 495.09 687.28 851.30 506.19 1091.40 508.69 1004.78 664.43 864.43 768.98 1058.77 771.87
00000705 00000091 677.93 224.37 498.48 684.02 850.35 507.60 1092.73 508.52 1004.45 665.44 865.51 769.28 1058.26 770.94
00000706 00000092 677.87 223.20 500.43 687.23 850.12 507.44 1093.37 508.61 1005.00 666.54 864.19 770.86 1060.18 772.37
00000707 00000093 681.02 224.91 498.82 689.17 850.55 506.92 1095.25 509.23 1004.71 667.79 863.13 773.38 1060.21 776.03
00000708 00000094 682.71 228.95 497.85 681.00 850.33 509.67 1096.98 510.37 1006.96 671.11 867.21 777.91 1058.27 779.73
00000709 00000095 684.48 235.06 497.81 680.43 851.58 510.26 1099.24 512.25 1007.60 676.56 869.61 782.94 1056.47 786.12
00000710 00000096 683.67 236.76 498.04 689.65 853.98 510.79 1099.13 515.62 1006.40 676.02 867.56 783.43 1055.49 788.83
00000711 00000097 683.98 238.30 497.20 687.34 855.48 512.61 1098.47 517.35 1007.10 676.80 868.19 783.35 1055.45 788.61
00000712 00000098 687.29 237.88 493.78 683.55 857.81 516.42 1097.53 516.94 1008.95 680.09 879.25 791.17 1054.57 793.27
00000713 00000099 690.55 238.99 490.54 674.41 855.77 518.17 1095.64 515.96 1007.56 684.64 885.12 797.36 1052.58 797.35
00000714 00000100 692.80 245.86 488.75 669.56 854.53 520.28 1095.29 517.26 1005.47 687.73 887.11 803.17 1053.05 802.39
00000715 00000101 690.96 243.20 491.77 673.93 857.69 521.59 1098.02 519.32 1009.69 684.51 887.54 801.16 1054.69 801.03
00000716 00000102 691.44 244.96 493.49 672.23 861.84 522.18 1101.51 521.38 1014.54 684.29 887.89 798.86 1055.79 799.93
00000717 00000103 689.65 241.18 498.80 681.29 867.41 519.32 1107.61 521.58 1020.83 686.07 885.67 793.57 1059.33 797.02
00000718 00000104 689.74 238.93 499.69 678.62 872.91 518.64 1113.79 522.37 1028.35 687.33 888.69 791.72 1063.22 796.24
00000719 00000105 695.01 240.08 496.62 673.76 879.15 518.92 1116.58 523.30 1032.21 685.49 895.73 792.79 1064.57 797.60
00000720 00000106 695.63 239.38 497.45 679.35 880.30 518.43 1117.46 524.38 1032.89 683.51 897.19 794.48 1064.91 800.39
00000721 00000107 697.20 239.51 494.19 677.76 879.19 520.01 1116.83 524.76 1032.43 685.43 898.86 795.79 1066.11 800.64
00000722 00000108 697.06 241.54 493.57 674.92 877.83 520.40 1117.16 525.99 1032.15 686.26 897.38 799.56 1064.89 805.13
00000723 00000109 695.61 242.53 494.10 681.77 877.43 518.90 1115.81 527.56 1029.68 686.06 890.98 795.96 1062.50 804.06
00000724 00000110 693.32 246.56 492.82 681.69 875.31 518.07 1113.76 527.64 1028.63 685.40 888.79 796.52 1061.38 805.48
00000725 00000111 692.84 250.46 491.69 672.38 874.32 519.26 1111.08 526.57 1027.47 687.22 891.07 796.04 1060.18 803.30
00000726 00000112 690.47 249.58 494.17 682.90 872.87 517.61 1108.73 525.42 1024.63 684.18 888.82 795.49 1061.49 802.93
00000727 00000113 688.12 250.01 494.94 684.03 870.46 518.72 1106.30 527.47 1021.44 686.52 884.85 795.49 1058.67 803.81
00000728 00000114 687.66 247.16 495.67 688.94 867.15 520.47 1103.97 527.73 1017.56 690.26 881.77 795.95 1058.10 803.25
00000729 00000115 688.64 251.17 492.01 681.33 865.90 522.84 1103.19 530.41 1015.30 692.64 879.07 797.41 1055.00 805.13
00000730 00000116 684.31 254.55 495.31 671.64 867.03 535.84 1102.00 539.45 1014.94 697.20 878.73 799.77 1050.86 804.57
00000731 DELETE   684.18 257.84 496.73 668.01 867.42 540.70 1102.57 544.47 1015.76 697.60 879.86 801.07 1052.04 805.92
00000732 00000118 684.96 257.43 497.55 673.82 869.81 538.20 1104.54 542.17 1016.80 700.36 880.15 802.07 1051.96 807.22
00000733 00000119 689.58 257.93 496.59 676.14 872.06 535.49 1109.12 539.52 1019.52 701.93 882.39 803.33 1054.47 808.49
00000734 00000120 692.85 256.46 494.33 674.39 871.10 533.11 1110.23 536.85 1020.58 702.77 882.30 803.71 1054.82 808.82
00000735 00000121 693.62 254.89 494.33 675.44 869.91 530.70 1110.20 534.33 1019.93 701.52 884.38 804.48 1057.16 809.32
00000736 00000122 693.22 253.33 494.34 679.40 869.72 529.31 1109.00 532.86 1019.36 700.55 884.42 804.41 1057.81 809.01
00000737 00000123 692.43 256.15 495.40 676.99 868.29 529.20 1108.28 532.22 1018.35 701.40 882.91 803.15 1058.01 807.37
00000738 00000124 693.37 255.84 491.96 666.18 868.84 531.90 1108.78 532.19 1020.28 701.60 887.60 802.22 1059.40 804.27
00000739 00000125 693.01 255.71 492.00 658.47 869.14 533.42 1109.58 532.33 1021.39 704.27 886.72 801.03 1058.20 802.10
00000740 00000126 693.46 252.71 493.62 664.10 870.02 531.77 1111.11 531.18 1022.46 703.20 886.79 798.73 1061.63 800.10
00000741 00000127 693.53 254.91 492.50 661.67 870.62 531.92 1110.97 531.75 1023.25 702.35 888.93 799.25 1061.88 800.82
00000742 00000128 692.82 254.52 493.48 667.92 870.45 531.48 1110.88 532.49 1023.37 701.44 888.71 801.76 1061.72 804.17
00000743 00000129 693.06 255.17 494.43 666.01 871.03 532.51 1111.73 533.97 1023.86 702.23 888.85 802.26 1061.00 805.05
00000744 00000130 694.19 252.78 493.93 668.66 870.90 532.65 1111.44 533.17 1023.70 702.75 889.73 803.48 1062.16 805.48
00000745 00000131 695.54 253.72 491.71 666.13 869.51 533.42 1110.48 532.42 1023.13 702.22 891.81 805.05 1063.15 805.79
00000746 00000132 695.26 252.07 491.51 666.28 868.46 533.77 1109.17 530.98 1022.70 703.86 892.33 805.80 1063.05 805.13
00000747 00000133 695.34 255.61 491.41 663.34 869.62 533.13 1109.49 531.94 1022.10 702.83 892.49 805.69 1060.82 806.36
00000748 00000134 695.42 254.74 491.94 667.80 869.58 531.98 1109.89 532.23 1021.62 701.77 890.57 805.70 1060.61 807.48
00000749 00000135 695.90 254.61 491.74 662.28 870.17 532.96 1110.83 532.11 1022.23 703.25 891.98 805.01 1061.08 806.04
00000750 00000136 695.53 254.16 493.45 662.67 870.58 532.30 1113.05 532.58 1023.59 702.55 890.24 803.04 1061.59 805.00
00000751 00000137 694.80 252.79 494.62 663.75 871.29 531.61 1113.63 532.18 1023.89 702.76 890.23 802.27 1061.52 804.50
00000752 00000138 695.45 254.00 494.67 663.19 871.52 532.23 1114.02 532.87 1023.92 703.39 890.62 803.43 1061.31 805.75
00000753 00000139 697.10 252.26 493.66 668.75 871.99 530.85 1113.74 532.95 1023.38 701.32 889.57 802.81 1061.55 806.21
00000754 00000140 697.03 253.56 494.28 666.47 872.55 532.41 1114.29 533.86 1023.74 703.33 890.23 802.95 1062.03 805.80
00000755 00000141 697.83 257.27 494.01 664.73 873.96 532.57 1115.02 534.31 1023.62 704.18 890.81 803.11 1061.79 806.22
00000756 00000142 697.27 257.18 495.29 665.89 873.44 534.45 1115.36 536.42 1023.06 706.41 889.19 805.44 1060.31 808.67
00000757 00000143 695.99 258.87 497.73 665.23 872.95 537.23 1114.63 538.63 1021.64 711.60 887.14 807.52 1057.43 810.48
00000758 00000144 692.83 265.86 501.67 679.17 871.30 538.22 1112.73 545.73 1016.58 714.69 878.35 813.92 1053.51 821.02
00000759 00000145 691.00 273.77 502.70 660.03 870.52 545.45 1111.79 552.83 1015.50 721.49 880.46 814.61 1049.58 821.76
00000760 00000146 690.09 269.21 503.73 670.29 868.96 542.21 1110.80 548.70 1014.93 717.85 877.89 812.55 1051.84 818.92
00000761 00000147 693.83 265.77 501.80 676.84 869.64 536.82 1111.03 543.39 1014.87 713.67 875.96 810.96 1052.68 817.62
00000762 00000148 694.00 262.63 503.21 677.94 869.72 535.98 1112.94 542.21 1016.68 714.66 876.79 809.78 1054.94 816.33
00000763 00000149 694.40 266.85 502.89 673.57 868.60 537.73 1112.45 544.69 1014.93 717.64 873.69 810.25 1052.55 817.44
00000764 00000150 692.70 270.68 504.27 672.63 867.91 538.45 1111.64 546.61 1013.75 719.74 871.70 811.27 1050.11 819.43
00000765 00000151 693.47 266.51 503.48 669.94 868.71 535.41 1112.14 544.70 1013.97 715.34 874.33 809.18 1047.74 818.56
00000766 00000152 693.70 257.45 502.50 665.25 869.75 534.78 1113.60 541.62 1016.29 716.15 878.56 810.69 1046.41 818.38
00000767 00000153 693.92 251.41 496.51 667.51 867.22 528.64 1110.14 533.19 1016.71 705.04 880.89 801.85 1053.74 807.58
00000768 00000154 691.13 241.36 494.16 686.89 870.73 519.89 1106.67 525.97 1021.37 689.64 886.83 796.50 1058.68 802.70
00000769 00000155 690.99 243.51 496.03 690.81 872.42 510.31 1107.95 522.45 1020.00 682.24 880.80 787.47 1059.00 798.55
00000770 00000156 695.08 239.31 494.77 688.59 876.89 502.49 1110.93 519.72 1022.33 673.89 879.27 777.07 1059.49 792.27
00000771 00000157 697.55 238.42 492.56 680.90 879.30 497.64 1112.86 516.04 1023.72 667.15 882.06 773.01 1059.76 788.95
00000772 00000158 698.50 232.95 493.26 683.17 883.23 490.74 1113.15 510.47 1024.40 655.28 883.44 762.36 1064.16 778.92
00000773 00000159 698.96 223.78 498.51 696.42 885.66 480.61 1114.34 504.65 1023.12 645.67 880.87 752.14 1066.67 771.70
00000774 00000160 700.82 221.15 497.90 696.36 889.92 476.91 1114.67 502.99 1024.85 641.44 883.73 747.67 1066.62 768.94
00000775 00000161 703.91 222.10 495.95 690.32 892.34 475.59 1116.08 502.83 1025.95 639.06 886.27 745.63 1066.33 768.02
00000776 00000162 703.84 220.95 498.31 691.23 894.18 473.50 1118.17 502.42 1026.63 637.43 885.44 743.42 1066.77 767.00
00000777 00000163 704.97 218.92 499.74 690.96 896.06 473.60 1119.86 503.03 1028.82 637.15 887.42 742.68 1069.15 766.59
00000778 00000164 703.68 220.32 501.74 688.10 899.21 474.95 1122.64 505.32 1031.91 639.69 889.05 742.24 1070.88 766.98
00000779 00000165 704.95 218.73 499.79 687.28 899.87 475.09 1122.82 505.76 1033.07 639.64 888.06 741.40 1071.13 766.40
00000780 00000166 703.93 217.34 502.05 695.02 901.29 474.31 1122.91 506.42 1033.83 640.54 887.10 742.44 1069.53 768.59
