Video ID: 	yoeq3pGwdb4
H: 	1080
W: 	1920
FPS: 	29.97002997002997

FRAME INDEX X0 Y0 W H [Landmarks (5 Points)]

00007013 00000000 734.69 142.14 360.65 538.92 902.45 409.34 1047.85 362.99 1038.66 487.88 915.66 563.85 1047.33 528.78
00007014 00000001 734.60 141.78 360.82 538.38 902.41 408.34 1048.14 363.00 1039.20 486.03 916.67 562.66 1048.79 528.21
00007015 00000002 734.76 142.82 360.81 537.60 903.20 407.56 1048.46 362.99 1039.79 485.21 917.26 562.43 1048.74 528.54
00007016 00000003 735.81 142.16 360.36 537.84 903.71 407.85 1048.61 362.73 1040.23 485.36 917.81 562.58 1049.10 528.23
00007017 00000004 735.90 141.74 360.19 538.56 903.67 408.11 1048.48 362.40 1039.97 485.52 918.12 562.54 1049.97 527.61
00007018 00000005 735.84 141.57 360.01 538.20 903.69 408.64 1048.64 362.47 1040.08 486.30 918.56 563.11 1049.98 527.85
00007019 00000006 735.98 140.32 359.69 538.83 904.20 408.28 1047.87 360.64 1040.78 485.03 918.73 562.43 1049.34 526.03
00007020 00000007 735.21 138.56 360.06 539.58 902.30 405.90 1048.28 361.45 1038.09 481.84 918.73 562.54 1048.56 528.39
00007021 00000008 732.35 134.25 358.39 546.62 900.75 400.22 1041.63 360.90 1031.71 476.62 919.82 563.64 1041.14 532.61
00007022 00000009 727.01 129.44 360.95 551.19 896.14 390.18 1036.78 353.61 1025.39 471.75 914.01 559.16 1033.71 530.42
00007023 00000010 726.56 129.49 361.11 551.06 895.66 390.19 1036.44 353.92 1024.74 471.44 913.80 558.98 1033.80 530.47
00007024 00000011 721.28 124.58 363.48 553.50 883.52 379.33 1031.63 351.48 1011.11 462.84 904.77 552.60 1030.33 530.45
00007025 00000012 714.90 118.64 367.84 556.35 873.13 366.41 1022.92 346.58 994.39 453.81 895.51 542.16 1024.85 526.17
00007026 DELETE   707.96 116.61 371.59 549.26 866.49 352.31 1017.79 337.94 985.09 443.23 886.00 528.94 1018.12 517.87
00007027 00000014 704.62 104.75 374.77 554.12 860.28 335.02 1012.74 327.16 975.75 428.53 878.11 513.09 1010.31 507.11
00007028 00000015 704.64 105.14 374.69 553.60 860.43 334.76 1012.55 326.75 975.77 428.69 878.24 513.08 1010.20 506.99
00007029 00000016 700.09 94.52 375.91 557.14 854.63 318.23 1007.31 315.73 967.50 410.21 873.13 501.56 1002.46 499.79
00007030 00000017 698.84 92.56 377.90 547.40 857.86 302.13 1005.98 305.56 964.85 397.65 873.73 487.49 999.52 490.62
00007031 DELETE   701.78 88.88 374.97 537.19 859.29 291.82 1007.47 297.21 965.77 385.29 873.35 475.65 998.57 480.48
00007032 00000019 701.12 81.17 379.40 537.15 859.27 282.12 1012.03 289.62 967.95 378.81 873.01 466.59 1002.42 472.98
00007033 00000020 702.09 79.63 377.86 538.83 859.62 281.57 1011.82 288.99 968.11 379.84 872.97 466.91 1001.87 473.48
00007034 00000021 706.11 75.66 376.77 536.67 858.10 274.10 1013.90 282.92 968.36 366.05 875.37 461.17 1004.42 468.72
00007035 00000022 707.65 62.59 373.84 537.52 861.58 275.74 1023.61 288.65 976.39 362.25 877.45 454.57 1013.40 464.60
00007036 00000023 710.38 53.68 371.75 535.27 863.60 277.96 1026.31 291.56 977.56 356.01 879.36 449.73 1014.50 460.46
00007037 00000024 712.58 51.58 370.69 529.54 867.92 278.35 1031.53 293.06 983.91 352.06 883.43 445.89 1018.94 457.57
00007038 00000025 712.75 51.52 370.66 529.55 867.59 278.10 1031.82 293.07 984.04 351.34 883.40 445.57 1019.47 457.47
00007039 00000026 713.82 50.65 372.44 529.17 866.93 271.76 1033.86 286.47 985.11 348.24 884.64 443.16 1022.35 454.89
00007040 00000027 717.47 51.25 367.88 527.47 868.90 270.53 1032.87 283.28 987.08 349.12 887.11 442.80 1022.73 453.28
00007041 00000028 717.31 52.70 369.05 525.75 869.26 272.68 1034.60 283.44 990.89 350.74 890.41 445.38 1026.62 454.05
00007042 00000029 716.74 56.53 369.20 526.84 867.29 276.07 1032.79 284.50 989.96 356.83 889.39 449.84 1026.07 456.67
00007043 00000030 716.35 56.36 369.37 526.97 867.26 276.05 1032.97 284.72 989.87 356.40 889.35 449.72 1026.18 456.71
00007044 00000031 710.69 61.45 372.89 526.38 866.29 283.10 1029.48 288.96 988.81 362.97 890.10 455.46 1024.73 459.66
00007045 00000032 707.12 65.84 372.20 526.81 863.06 289.10 1024.70 289.47 986.33 371.27 890.07 461.52 1022.64 461.11
00007046 00000033 702.63 71.21 372.67 526.05 859.05 292.94 1020.11 292.31 982.12 377.11 888.31 465.39 1020.52 464.06
00007047 00000034 699.41 80.16 374.88 523.90 863.35 292.59 1011.31 286.66 984.72 379.44 887.70 468.63 1013.81 465.64
00007048 00000035 699.64 78.80 374.80 525.80 863.48 291.93 1012.05 287.19 984.45 378.88 887.51 468.38 1013.77 466.30
00007049 00000036 697.08 80.90 375.14 525.13 864.31 296.53 1010.58 289.09 987.34 381.82 889.13 471.81 1013.57 467.57
00007050 00000037 697.16 81.59 373.22 526.31 866.77 301.47 1008.42 290.10 990.38 385.22 892.14 475.55 1012.20 468.38
00007051 00000038 698.22 83.65 369.80 524.44 868.71 305.12 1008.38 292.09 992.61 387.02 893.74 476.92 1012.23 468.55
00007052 00000039 701.61 84.13 365.04 523.11 870.30 310.36 1007.63 293.68 993.69 391.78 895.32 479.79 1012.58 468.79
00007053 00000040 701.68 84.61 365.19 522.67 870.11 310.43 1007.95 293.69 993.71 391.89 895.01 479.68 1013.05 468.64
00007054 00000041 703.82 84.69 363.08 525.88 870.34 314.23 1008.81 294.72 994.34 395.11 894.91 483.27 1013.63 470.12
00007055 00000042 704.35 83.19 363.08 531.37 869.11 318.19 1008.68 296.97 992.56 399.39 894.82 487.29 1014.35 472.58
00007056 00000043 706.42 81.81 360.90 536.41 866.84 322.86 1008.74 300.89 991.60 404.66 894.60 491.78 1014.62 476.20
00007057 00000044 709.00 88.48 361.35 535.55 868.16 330.56 1010.26 308.34 991.59 411.08 896.16 497.61 1016.67 481.71
00007058 00000045 709.02 87.84 361.09 536.39 867.67 330.91 1009.34 309.23 991.38 410.29 895.32 497.22 1016.51 481.88
00007059 00000046 708.84 98.27 366.28 537.59 868.99 344.28 1014.18 319.91 993.11 421.73 899.28 508.40 1022.95 490.04
00007060 DELETE   711.54 111.06 363.03 536.36 872.20 363.86 1023.66 336.19 1001.23 442.14 906.65 532.87 1028.38 511.11
00007061 DELETE   718.30 131.16 354.56 537.98 882.63 395.33 1027.34 363.99 1008.20 473.61 912.75 560.17 1027.50 534.66
00007062 00000049 717.27 152.45 359.70 538.31 891.51 409.14 1030.04 374.87 1015.32 497.91 913.29 579.44 1023.73 553.84
00007063 DELETE   717.19 152.59 359.47 538.29 891.42 408.98 1030.00 374.97 1015.32 497.56 913.35 579.33 1023.66 553.87
00007064 00000051 720.18 167.18 359.42 532.77 894.86 422.67 1038.02 383.63 1020.88 512.10 910.28 591.52 1029.19 562.21
00007065 00000052 722.20 165.85 358.21 531.93 897.96 421.82 1040.31 384.31 1023.04 511.21 910.30 589.76 1028.32 561.94
00007066 00000053 722.31 162.25 356.79 532.63 899.92 419.94 1037.98 382.55 1025.04 508.69 908.71 583.49 1025.27 555.93
00007067 00000054 719.84 161.29 358.48 530.34 898.15 415.31 1035.47 381.95 1020.92 507.01 901.80 573.94 1020.99 549.95
00007068 00000055 720.17 161.17 358.41 530.80 898.02 415.35 1035.71 381.77 1020.87 507.64 901.52 574.04 1021.31 549.93
00007069 00000056 712.50 159.07 359.97 532.02 892.18 411.58 1028.49 381.92 1013.30 503.96 897.44 570.70 1015.79 548.59
00007070 00000057 707.03 150.19 354.80 527.17 891.26 406.04 1030.11 375.15 1007.96 501.66 892.28 559.16 1022.09 539.04
00007071 DELETE   698.16 145.97 356.42 527.25 882.70 393.58 1022.65 364.96 1001.68 490.06 893.29 558.10 1015.24 539.17
00007072 DELETE   684.91 132.29 367.00 535.38 867.52 378.30 1015.89 361.68 992.04 476.40 887.39 547.58 998.44 535.12
00007073 DELETE   685.81 132.03 366.96 535.06 867.19 379.87 1015.64 362.13 991.76 475.85 887.27 547.94 998.94 534.48
00007074 00000061 683.84 124.29 360.47 529.19 862.58 363.29 1010.16 345.98 985.49 462.58 884.98 536.41 995.85 523.03
00007075 DELETE   686.42 113.22 358.99 536.40 861.84 348.68 1008.92 332.92 989.37 445.80 869.85 525.19 998.41 514.53
00007076 00000063 681.98 104.45 355.12 536.93 855.84 342.20 1001.41 323.20 983.89 434.15 866.78 516.92 993.04 503.58
00007077 00000064 681.85 91.24 349.18 534.94 850.01 335.21 993.69 316.75 975.55 420.65 864.20 505.79 988.43 493.12
00007078 DELETE   681.73 91.21 349.33 535.24 849.91 335.38 993.66 316.80 975.59 420.56 863.90 505.87 988.48 493.14
00007079 00000066 679.71 86.47 347.40 528.14 839.65 328.51 985.54 312.25 964.69 404.56 858.74 499.06 981.96 488.22
00007080 00000067 672.78 81.07 352.65 530.05 835.71 320.06 979.54 305.32 961.95 396.00 855.66 491.32 979.07 481.94
00007081 00000068 665.55 79.86 356.43 528.41 827.88 312.26 971.82 296.88 954.37 385.54 850.08 484.32 973.59 474.17
00007082 00000069 659.25 75.60 364.29 534.20 817.57 299.45 967.61 292.13 941.21 378.62 839.13 477.70 966.08 473.41
00007083 00000070 659.22 75.28 364.36 534.60 817.60 299.30 967.77 291.95 941.53 378.62 839.21 477.75 966.28 473.44
00007084 00000071 653.44 71.43 371.26 545.17 807.18 288.91 961.46 289.33 931.06 372.37 825.51 468.18 963.84 469.85
00007085 00000072 648.19 68.98 370.59 550.61 795.65 283.76 949.86 285.17 916.16 363.58 816.42 462.39 955.53 464.08
00007086 00000073 642.42 70.78 371.72 548.74 788.33 277.83 940.97 280.38 901.57 357.57 809.65 457.98 943.89 459.96
00007087 00000074 637.15 57.49 373.00 561.17 780.81 280.65 941.92 282.65 895.16 360.45 800.91 459.03 948.48 459.45
00007088 00000075 636.95 58.27 373.01 560.52 781.23 280.52 942.12 282.77 895.37 360.46 800.81 459.19 947.72 459.82
00007089 00000076 633.82 57.40 373.31 557.34 776.82 275.05 938.64 279.38 889.39 357.06 796.42 455.12 942.10 457.67
00007090 00000077 631.95 56.66 371.80 554.90 772.62 270.97 933.60 275.50 885.09 352.00 793.72 451.23 938.41 453.99
00007091 00000078 630.10 52.58 371.95 553.69 766.57 268.59 927.77 268.71 881.09 347.41 792.38 448.86 937.25 448.08
00007092 00000079 629.10 55.03 370.83 546.01 762.16 266.24 920.68 262.02 876.76 343.32 792.13 445.71 934.45 441.68
00007093 00000080 629.22 55.21 370.78 545.61 761.98 266.22 920.49 261.82 876.66 343.45 792.29 445.72 934.55 441.55
00007094 00000081 625.86 59.46 371.60 537.66 757.32 262.03 913.75 255.15 871.46 338.22 792.40 440.80 932.29 434.91
00007095 00000082 624.44 57.85 371.62 534.23 753.09 257.26 909.47 249.73 866.54 334.54 790.81 437.30 931.37 430.98
00007096 00000083 621.55 57.52 371.64 531.82 750.55 260.43 907.14 251.09 863.55 333.57 788.94 436.10 929.38 428.54
00007097 00000084 617.57 57.56 374.18 529.31 748.33 264.35 905.51 252.56 861.86 333.73 789.20 437.53 929.23 428.04
00007098 00000085 616.92 56.54 374.89 530.01 748.48 264.05 905.48 252.88 861.80 332.93 788.85 436.63 928.70 427.64
00007099 00000086 615.58 57.27 371.93 528.00 747.16 260.65 901.72 247.80 861.17 331.80 790.35 436.19 927.76 426.04
00007100 00000087 612.33 58.77 373.78 523.18 745.67 263.97 900.32 248.33 861.39 332.93 792.49 438.11 928.70 425.62
00007101 00000088 605.84 60.77 379.57 520.19 742.36 274.14 902.41 247.75 871.26 329.37 783.21 444.29 927.90 422.54
00007102 00000089 605.78 59.67 376.13 515.42 742.10 279.53 902.73 251.17 870.66 331.92 785.31 447.48 927.68 423.89
00007103 00000090 605.57 59.72 376.22 515.32 742.10 279.60 902.91 251.15 870.83 331.80 785.24 447.33 928.02 423.66
00007104 00000091 604.34 63.15 377.01 510.92 739.39 284.40 903.66 253.45 869.57 337.28 785.66 452.14 928.81 425.88
00007105 00000092 603.13 65.10 378.24 510.44 737.43 290.26 903.96 255.83 869.36 341.84 786.26 458.01 930.15 428.69
00007106 00000093 602.59 69.12 380.94 510.79 736.98 296.45 902.78 258.81 869.78 348.23 789.03 463.86 932.27 431.92
00007107 00000094 605.38 68.40 375.47 522.06 736.49 296.51 897.03 263.48 860.81 363.26 797.71 470.42 934.53 443.37
00007108 00000095 605.41 68.56 375.38 522.24 736.35 296.59 896.93 263.44 860.63 363.40 797.46 470.50 934.38 443.37
00007109 00000096 606.60 80.71 379.28 515.17 743.65 307.00 890.76 270.63 859.43 369.80 794.23 471.33 924.12 440.27
00007110 00000097 608.78 82.10 377.94 514.80 747.45 313.57 894.06 276.01 862.00 374.19 798.10 476.51 926.17 444.78
00007111 00000098 609.97 82.25 377.46 518.53 748.64 318.92 895.62 280.63 864.73 380.05 799.93 481.16 928.85 448.96
00007112 00000099 612.06 81.08 376.06 524.71 751.24 322.11 898.23 284.02 867.87 384.63 801.55 484.69 931.29 452.70
00007113 00000100 611.69 81.42 375.91 524.61 751.11 321.96 898.13 284.11 867.99 384.42 801.09 484.84 930.97 453.11
00007114 00000101 607.81 82.82 377.55 528.31 746.05 323.62 906.69 289.16 870.62 393.62 799.90 491.27 936.38 462.93
00007115 00000102 608.61 84.88 378.87 528.39 747.87 326.11 909.39 291.02 872.90 397.09 800.72 493.26 939.00 464.13
00007116 00000103 614.43 90.12 379.29 526.77 753.40 324.26 908.27 286.61 878.22 393.00 802.75 497.82 933.77 467.90
00007117 00000104 615.55 90.44 379.96 529.05 755.96 325.81 909.59 288.94 881.07 394.73 804.94 498.89 935.45 469.77
00007118 00000105 615.45 90.31 380.23 529.61 755.68 325.75 909.63 288.91 880.90 394.68 804.74 499.03 935.42 469.91
00007119 00000106 617.67 89.52 380.54 530.99 759.00 326.88 911.25 291.07 883.08 396.58 809.16 500.30 935.94 471.96
00007120 00000107 620.53 91.40 378.50 529.13 761.22 327.58 914.76 292.33 886.67 400.28 811.53 502.43 937.65 474.55
00007121 00000108 623.26 93.10 377.60 529.22 764.90 328.68 916.94 295.23 890.17 403.41 816.02 503.42 939.54 476.99
00007122 00000109 627.85 93.81 374.50 529.53 768.59 331.66 920.44 298.59 893.56 406.25 820.19 506.02 942.15 479.99
00007123 00000110 628.05 94.11 374.27 528.89 768.72 331.96 920.25 298.50 893.66 406.43 820.42 506.15 942.16 479.77
00007124 00000111 632.95 99.00 373.09 526.47 773.92 338.00 922.83 305.89 895.22 411.83 823.57 506.49 945.71 480.97
00007125 00000112 636.00 100.75 372.43 532.02 779.51 346.70 930.56 310.33 903.25 422.59 831.95 516.95 952.28 487.13
00007126 00000113 638.50 104.81 373.79 538.75 782.29 359.12 935.87 322.78 906.84 434.30 830.06 525.64 958.67 495.91
CROP_BBOX: 373 0 1329 869
