Video ID: 	m89wBdYrCWA
H: 	1080
W: 	1920
FPS: 	23.976023976023978

FRAME INDEX X0 Y0 W H [Landmarks (5 Points)]

00004403 00000000 904.03 124.31 473.61 693.10 978.99 399.86 1202.99 405.54 1050.53 519.77 993.73 645.85 1173.79 651.46
00004404 00000001 904.61 124.72 475.61 699.15 981.76 401.35 1206.67 404.62 1055.18 520.27 996.95 648.20 1181.09 651.35
00004405 00000002 906.18 125.19 477.81 699.12 985.53 401.12 1209.95 404.96 1059.34 519.65 999.44 646.20 1184.15 649.82
00004406 00000003 906.99 129.05 478.31 682.54 987.40 402.02 1212.28 406.12 1063.45 521.04 1002.23 640.79 1187.49 644.33
00004407 00000004 909.77 130.79 475.81 670.61 988.90 400.84 1215.22 406.73 1067.70 521.28 1003.28 636.66 1186.49 641.95
00004408 00000005 909.95 133.38 474.65 661.83 989.59 401.52 1216.96 407.21 1071.48 522.05 1003.88 633.69 1187.96 638.75
00004409 00000006 911.19 133.04 473.91 659.79 991.86 402.54 1217.43 407.20 1074.24 523.79 1007.25 632.68 1191.26 636.70
00004410 DELETE   909.72 127.93 471.43 677.85 994.52 405.83 1213.64 408.14 1078.46 526.35 1006.67 638.71 1194.70 640.31
00004411 DELETE   912.04 124.16 470.74 685.33 997.43 417.20 1216.98 416.31 1079.91 527.73 1009.48 642.91 1199.68 641.70
00004412 00000009 916.20 137.77 476.09 671.56 999.92 423.35 1225.06 417.19 1085.71 529.41 1021.68 651.21 1207.38 645.60
00004413 00000010 916.57 136.66 477.30 679.12 998.26 424.91 1223.37 413.17 1083.86 530.99 1024.58 656.69 1210.95 646.28
00004414 DELETE   915.08 138.34 476.89 671.98 997.24 425.19 1221.17 409.99 1084.01 529.95 1027.38 656.55 1209.68 643.32
00004415 00000012 913.60 130.25 471.71 684.98 994.84 421.89 1213.47 405.56 1081.57 528.87 1018.72 659.02 1200.07 645.18
00004416 DELETE   910.84 135.80 477.30 670.12 991.21 422.81 1212.43 406.65 1075.91 525.92 1023.75 656.93 1195.68 643.66
00004417 00000014 909.46 127.52 474.03 689.73 990.00 425.96 1204.20 405.35 1073.43 527.56 1017.29 663.52 1191.10 646.56
00004418 00000015 908.98 123.57 471.60 693.09 987.20 426.27 1200.62 403.64 1072.03 525.58 1016.34 663.09 1189.41 644.58
00004419 00000016 907.10 124.07 470.73 688.15 984.14 424.69 1197.03 403.45 1069.22 523.59 1013.72 659.02 1184.88 641.74
00004420 00000017 906.53 123.38 468.60 684.49 979.73 422.82 1192.69 401.50 1065.86 524.18 1012.25 657.34 1182.08 640.05
00004421 00000018 905.92 120.92 466.78 685.72 975.72 422.06 1189.03 400.81 1061.04 526.24 1009.36 657.21 1179.53 640.05
00004422 DELETE   903.15 122.62 467.85 687.63 973.29 425.17 1188.38 401.67 1059.70 528.07 1009.22 662.40 1178.99 643.37
00004423 00000020 900.96 127.20 469.28 684.82 972.11 426.64 1186.77 402.36 1056.15 527.15 1008.22 664.88 1175.09 645.35
00004424 DELETE   899.12 126.88 469.34 687.03 971.94 430.36 1183.58 404.76 1052.95 525.20 1008.87 666.66 1172.38 646.03
00004425 00000022 894.30 129.04 472.31 686.70 971.55 435.31 1184.04 408.43 1053.67 526.08 1010.97 669.79 1173.92 647.68
00004426 00000023 893.97 128.60 472.09 680.16 969.74 438.56 1182.41 409.22 1053.88 529.44 1011.24 668.09 1175.91 643.63
00004427 00000024 893.17 131.01 471.51 676.61 968.26 439.51 1183.42 409.93 1054.96 530.11 1008.98 667.79 1177.04 642.96
00004428 DELETE   891.52 131.38 470.91 675.81 968.63 440.24 1183.96 410.32 1057.95 530.71 1009.44 667.52 1178.19 642.35
00004429 DELETE   890.75 134.86 470.07 674.06 968.65 441.71 1183.40 412.02 1058.03 530.94 1008.84 669.67 1175.11 644.79
00004430 DELETE   886.22 137.95 472.67 677.50 966.24 445.17 1182.75 414.54 1056.37 532.77 1005.27 671.31 1176.65 645.42
00004431 00000028 881.66 139.54 476.31 686.22 963.31 445.44 1181.06 415.15 1052.38 534.38 1002.28 678.16 1174.87 652.59
00004432 00000029 880.59 139.70 473.44 695.97 958.18 440.84 1177.09 413.43 1053.36 541.35 997.89 681.83 1181.41 659.54
00004433 00000030 878.25 138.47 474.99 709.32 953.98 437.79 1173.49 410.89 1046.37 542.11 993.68 685.28 1178.97 663.55
00004434 DELETE   879.46 138.51 474.04 708.05 949.77 443.95 1163.05 412.41 1032.93 542.06 989.57 689.88 1166.35 664.26
00004435 00000032 878.85 137.75 472.94 711.77 950.61 442.05 1157.35 412.16 1024.07 534.12 985.13 685.91 1158.34 661.52
00004436 00000033 875.89 135.35 477.58 709.15 950.61 437.36 1153.23 410.99 1019.48 528.64 981.09 678.03 1148.01 656.74
00004437 00000034 877.92 135.60 477.46 698.88 950.12 429.01 1148.66 406.39 1013.77 524.55 977.20 668.46 1135.82 651.08
00004438 00000035 880.43 134.40 472.53 686.84 944.04 417.52 1154.62 399.45 1016.46 522.71 973.25 658.81 1138.54 644.39
00004439 00000036 890.91 127.55 469.59 677.83 955.46 412.60 1146.99 395.76 1009.77 508.93 974.16 644.39 1120.84 632.40
00004440 00000037 892.83 123.46 470.56 678.18 957.05 400.28 1149.34 390.11 1007.89 500.22 970.76 635.34 1117.24 629.12
00004441 00000038 894.96 117.24 469.46 686.43 958.80 392.13 1151.50 385.44 1007.07 494.14 967.32 632.26 1112.28 629.43
00004442 00000039 897.12 115.74 466.81 691.65 958.79 387.94 1151.13 386.09 1002.99 492.99 961.85 632.67 1104.48 634.40
00004443 00000040 896.07 115.93 466.04 693.80 958.60 384.04 1151.35 387.46 999.81 491.85 956.03 630.62 1097.74 637.00
00004444 00000041 894.46 114.80 465.53 695.76 956.96 381.35 1150.69 387.66 997.50 490.67 951.34 629.30 1092.61 638.32
00004445 00000042 891.67 115.14 466.23 694.82 955.46 380.07 1150.40 388.48 997.19 490.28 948.49 628.60 1089.44 639.42
00004446 DELETE   888.40 115.93 467.05 691.31 953.80 379.07 1150.87 388.48 997.40 489.62 946.57 627.37 1088.90 638.91
00004447 00000044 882.68 113.86 470.79 681.50 951.24 380.35 1150.16 388.95 998.09 490.75 945.88 623.98 1091.74 634.41
00004448 00000045 870.66 110.15 480.74 676.94 947.88 382.64 1150.26 399.95 993.52 484.93 937.85 615.37 1091.40 631.91
00004449 00000046 863.63 110.41 481.42 673.99 939.35 384.27 1148.06 397.72 990.13 484.61 932.32 616.26 1091.82 629.60
00004450 00000047 859.43 114.13 476.81 665.55 933.92 383.73 1142.09 395.41 984.82 487.00 929.50 615.54 1085.98 627.46
00004451 00000048 856.69 112.38 473.79 659.02 926.77 381.47 1135.84 392.58 977.27 486.64 923.08 611.23 1081.06 622.65
00004452 00000049 856.02 109.87 471.43 658.17 923.00 376.84 1132.11 389.70 973.43 485.49 919.30 605.13 1080.53 617.91
00004453 00000050 855.62 109.55 472.29 658.76 923.04 376.00 1131.80 388.73 973.91 485.16 920.49 604.65 1080.24 617.30
00004454 00000051 856.45 110.32 471.96 659.89 924.46 379.11 1136.13 388.68 980.15 488.67 924.47 608.77 1085.43 618.91
00004455 00000052 857.55 112.20 474.15 675.84 930.71 382.49 1140.08 388.53 986.19 489.39 933.00 620.64 1088.25 628.21
00004456 00000053 860.35 116.11 475.60 676.67 933.28 382.75 1144.05 388.48 990.95 491.76 937.77 623.14 1096.09 630.36
00004457 00000054 860.89 114.96 481.82 673.86 938.64 383.89 1145.75 386.22 1001.75 496.74 943.52 622.60 1105.13 626.88
00004458 00000055 867.22 113.30 479.94 672.67 942.45 382.21 1150.68 384.93 1006.46 495.86 947.92 620.96 1111.98 625.53
00004459 00000056 874.68 113.41 476.26 668.25 949.45 384.32 1157.94 385.12 1014.79 495.38 955.11 620.49 1120.23 623.31
00004460 00000057 884.10 113.50 474.54 657.45 953.23 385.53 1172.69 392.93 1021.94 493.18 959.11 618.65 1132.21 626.18
00004461 00000058 892.32 113.90 470.35 660.90 961.33 387.48 1181.66 393.92 1035.03 496.94 967.63 618.07 1146.57 624.75
00004462 00000059 898.05 114.62 473.23 669.52 971.13 388.79 1192.63 391.19 1047.86 500.81 979.39 622.32 1163.25 625.10
00004463 00000060 903.28 118.01 476.00 658.81 980.93 389.44 1207.05 389.87 1061.52 500.14 997.18 620.24 1179.29 621.69
00004464 00000061 910.84 118.65 476.03 655.27 992.27 391.20 1219.75 390.07 1077.64 498.94 1008.57 618.11 1193.08 618.24
00004465 00000062 914.48 108.18 472.83 674.07 1003.93 399.74 1231.62 394.45 1100.61 496.59 1017.90 624.05 1210.32 619.77
00004466 00000063 915.57 110.20 474.69 684.10 1012.50 396.93 1236.63 389.96 1109.22 496.59 1031.66 630.58 1212.76 625.07
00004467 00000064 918.13 116.46 480.27 707.02 1010.06 393.81 1224.44 384.18 1084.74 490.70 1034.78 646.75 1191.84 640.58
00004468 00000065 913.74 110.76 480.27 723.78 997.18 395.02 1205.13 384.33 1061.32 487.45 1018.93 653.96 1169.86 646.96
00004469 00000066 910.63 116.60 471.01 716.26 977.40 397.76 1176.66 377.77 1034.69 484.57 999.65 650.95 1136.95 636.69
00004470 00000067 896.56 116.45 486.69 705.72 966.47 402.79 1163.86 377.31 1010.53 490.31 989.37 658.06 1125.17 641.49
00004471 00000068 902.06 111.47 480.53 705.47 954.56 403.17 1145.19 376.01 990.42 487.17 973.86 654.75 1102.41 635.03
00004472 DELETE   901.44 110.09 482.93 687.77 951.11 402.53 1143.30 378.04 989.23 489.12 969.04 642.46 1106.59 624.83
00004473 00000070 900.06 115.79 482.37 665.25 950.86 400.32 1157.62 383.80 997.38 493.57 973.84 637.01 1124.10 624.82
00004474 00000071 905.89 115.42 482.42 667.27 961.96 405.07 1175.17 386.77 1023.14 494.36 991.34 638.87 1148.28 624.95
00004475 00000072 908.77 110.22 487.48 672.73 978.17 400.76 1197.07 386.55 1051.63 492.76 1005.54 634.07 1172.76 623.27
00004476 00000073 916.35 109.49 479.37 682.92 994.77 401.74 1214.94 381.56 1080.35 491.84 1017.95 629.76 1204.78 613.16
00004477 00000074 922.19 108.20 484.40 669.48 1008.21 401.65 1227.94 384.16 1096.09 491.69 1039.57 625.14 1217.60 610.69
00004478 00000075 927.82 104.14 477.83 683.76 1017.06 402.39 1241.91 384.62 1113.08 490.33 1040.20 626.37 1230.74 611.65
00004479 00000076 929.35 105.14 479.04 690.21 1017.45 402.71 1245.18 386.62 1113.69 494.40 1039.93 632.15 1232.39 618.88
00004480 00000077 930.17 113.64 480.84 674.97 1011.08 406.44 1234.37 389.93 1100.45 503.16 1042.45 635.73 1222.73 622.31
00004481 00000078 928.16 119.81 483.73 667.12 1003.85 401.04 1226.67 386.78 1088.37 511.97 1036.48 636.91 1211.54 625.89
00004482 00000079 926.77 127.62 482.62 663.67 997.30 398.18 1218.80 389.62 1074.51 515.85 1024.92 635.43 1198.74 629.38
00004483 00000080 926.32 125.29 479.32 665.61 991.06 398.97 1210.34 394.65 1061.23 514.52 1013.24 633.20 1187.45 630.74
00004484 00000081 923.90 124.51 481.41 666.04 985.24 396.08 1202.59 397.27 1048.57 518.71 1005.86 633.20 1178.05 635.13
00004485 00000082 922.32 126.69 480.37 669.34 984.55 397.71 1200.71 402.35 1045.43 521.94 1002.60 634.32 1176.25 638.81
00004486 00000083 919.98 134.32 484.42 677.75 986.32 402.63 1205.54 405.47 1052.69 528.34 1006.33 644.80 1183.32 647.38
00004487 00000084 921.30 128.65 488.85 705.36 991.29 411.52 1211.09 402.45 1063.87 534.95 1008.85 660.83 1194.05 654.84
00004488 00000085 923.67 134.46 487.88 698.28 997.53 417.49 1215.45 406.44 1072.12 539.12 1018.35 663.05 1199.63 655.50
00004489 00000086 923.90 136.68 488.60 688.95 999.12 417.99 1218.36 407.84 1076.47 542.85 1023.31 662.32 1200.42 655.48
00004490 00000087 922.14 137.43 490.43 686.86 999.99 418.07 1218.42 406.64 1077.57 542.03 1026.15 662.68 1198.08 654.76
00004491 00000088 917.96 137.18 493.21 685.12 997.45 418.32 1214.23 403.72 1074.14 539.22 1026.70 667.20 1191.24 656.49
00004492 00000089 917.58 145.93 487.99 670.71 993.63 415.01 1215.87 404.56 1071.25 534.03 1025.00 669.47 1182.44 661.50
00004493 00000090 914.02 146.26 489.15 672.53 989.90 412.34 1209.75 405.55 1062.55 533.74 1017.17 668.50 1173.16 663.52
00004494 00000091 912.57 144.94 488.26 677.99 987.82 410.46 1206.71 405.62 1056.64 533.58 1011.45 669.38 1166.35 666.33
00004495 00000092 912.51 146.51 486.95 677.08 988.04 411.77 1209.43 409.23 1056.95 536.16 1008.08 669.68 1165.70 668.75
00004496 00000093 911.22 146.34 490.23 690.86 990.89 423.86 1212.05 421.10 1060.68 541.15 1009.06 675.85 1175.30 674.40
00004497 00000094 913.60 146.16 489.08 701.01 995.57 431.58 1216.27 427.30 1068.56 542.00 1015.34 682.73 1182.35 680.17
00004498 00000095 912.28 145.57 487.09 698.77 991.68 433.98 1217.93 428.92 1070.32 548.15 1012.56 682.50 1188.26 678.95
00004499 00000096 904.40 145.73 492.71 694.62 981.90 427.78 1210.69 423.82 1059.88 553.06 1006.67 676.29 1186.08 673.17
00004500 00000097 904.94 143.81 488.49 692.51 974.67 421.37 1203.29 420.63 1048.16 553.05 999.99 671.32 1177.65 671.21
00004501 00000098 903.28 143.86 484.88 683.75 970.21 420.62 1194.95 419.07 1039.92 550.05 995.09 672.49 1164.51 672.04
00004502 00000099 902.79 141.81 482.70 680.31 967.23 418.72 1190.98 419.00 1034.58 547.30 989.59 668.47 1157.48 669.79
00004503 00000100 902.98 143.76 483.76 675.19 967.37 415.68 1193.41 418.34 1037.50 549.12 990.00 665.83 1158.88 669.15
00004504 00000101 903.48 141.85 486.90 685.73 971.26 416.96 1198.63 416.95 1042.27 548.68 995.53 667.94 1168.69 668.59
00004505 00000102 903.93 144.89 488.42 693.14 975.93 417.51 1203.63 417.05 1046.37 548.76 999.60 675.09 1170.76 675.40
00004506 00000103 904.37 144.54 487.74 695.03 975.60 419.49 1205.29 417.68 1048.35 551.26 1001.03 676.23 1176.58 675.19
00004507 00000104 903.81 145.27 487.39 690.31 974.03 419.72 1202.50 419.43 1045.90 552.32 998.98 674.52 1173.32 674.77
00004508 00000105 902.50 147.37 483.18 679.83 969.32 419.58 1195.34 420.68 1038.55 550.43 991.64 672.39 1161.44 674.30
00004509 00000106 901.87 148.28 479.56 672.76 966.59 417.72 1189.06 421.93 1031.44 549.39 985.08 669.33 1151.40 673.95
00004510 00000107 901.20 148.98 479.73 669.89 965.80 417.80 1187.96 422.12 1030.26 549.62 984.26 669.13 1149.53 673.84
00004511 00000108 901.39 149.98 479.48 668.82 967.36 420.26 1190.45 424.63 1033.93 549.57 986.03 670.05 1151.96 674.85
00004512 00000109 899.89 145.23 485.70 677.40 969.49 432.13 1193.88 432.52 1037.44 546.64 986.85 673.52 1157.53 675.10
00004513 00000110 902.43 147.99 486.58 672.35 974.13 423.01 1200.18 426.66 1044.57 547.81 993.35 669.23 1162.90 673.15
00004514 00000111 904.63 147.35 485.58 668.69 976.82 415.26 1204.45 419.46 1049.55 546.85 997.65 664.96 1166.89 669.03
00004515 00000112 906.58 142.22 484.97 671.03 978.91 411.64 1207.93 414.78 1054.15 543.48 1000.92 662.10 1171.37 665.20
00004516 00000113 908.54 142.26 484.10 669.24 981.63 408.71 1209.85 411.74 1055.98 537.32 1001.98 660.64 1170.78 663.80
00004517 00000114 908.25 142.35 486.32 675.49 982.52 415.47 1208.05 417.51 1054.77 533.88 1001.09 660.48 1176.27 662.53
00004518 00000115 908.87 140.81 486.76 678.72 981.70 417.03 1207.92 417.99 1053.27 532.18 999.15 657.71 1181.81 658.54
00004519 00000116 910.35 139.76 486.50 676.39 983.02 411.16 1207.27 415.14 1053.15 532.50 999.60 650.92 1183.20 654.01
00004520 00000117 910.84 132.66 489.17 682.53 985.06 409.01 1206.10 416.16 1049.96 528.02 997.30 642.63 1183.93 648.24
00004521 00000118 909.22 124.31 495.42 691.78 984.99 417.38 1205.27 421.67 1047.79 519.84 990.65 639.16 1185.97 642.23
00004522 00000119 910.44 123.77 495.48 692.97 986.78 408.30 1206.43 420.74 1043.60 516.51 987.59 632.52 1183.85 642.53
00004523 00000120 914.97 123.30 490.93 698.29 990.32 394.94 1210.83 414.81 1043.29 510.98 985.10 627.76 1179.04 644.75
00004524 00000121 920.37 114.21 486.57 706.44 995.10 386.99 1210.56 407.98 1040.96 500.45 985.71 627.70 1163.55 647.08
00004525 00000122 923.40 115.92 484.91 698.21 998.46 383.42 1211.48 404.66 1039.86 497.24 986.51 629.83 1150.84 649.78
00004526 00000123 923.41 112.64 485.07 698.21 1000.07 382.19 1211.41 404.06 1041.05 496.34 987.64 627.70 1149.26 648.20
00004527 00000124 924.12 114.39 483.79 693.16 1000.97 380.17 1216.37 402.43 1047.54 494.73 987.79 625.87 1153.50 646.74
00004528 00000125 921.50 113.61 488.42 709.06 1006.21 377.11 1223.40 399.72 1057.87 493.43 991.86 627.71 1161.77 649.00
00004529 00000126 922.95 111.01 487.42 704.84 1006.31 374.98 1227.05 399.25 1063.37 493.64 993.21 623.38 1166.90 645.99
00004530 00000127 924.84 109.21 486.13 688.94 1005.77 375.75 1229.01 399.23 1066.94 494.34 995.43 619.46 1170.50 641.14
00004531 00000128 928.66 110.85 485.24 674.22 1010.27 374.85 1233.81 400.81 1074.92 495.31 1000.07 614.87 1174.77 638.30
00004532 00000129 935.17 112.07 484.87 671.83 1023.24 374.80 1249.75 404.36 1095.84 495.10 1010.28 612.81 1189.20 639.10
00004533 00000130 938.72 110.24 487.96 679.34 1031.74 376.72 1260.05 402.89 1108.92 495.01 1023.03 618.55 1201.11 641.82
00004534 00000131 942.13 111.01 486.21 671.05 1032.38 375.85 1260.42 402.52 1109.55 494.99 1024.79 616.48 1200.02 640.09
00004535 00000132 943.11 109.11 482.38 671.21 1029.56 372.74 1252.62 402.64 1098.97 493.61 1016.31 610.93 1187.53 637.46
00004536 00000133 940.33 107.63 483.24 673.30 1024.51 372.35 1245.21 397.14 1091.20 494.67 1010.74 613.76 1178.34 636.90
00004537 00000134 934.97 108.90 483.76 673.72 1016.85 370.97 1235.69 404.25 1074.48 491.83 998.72 609.90 1164.73 639.48
00004538 00000135 930.36 111.05 487.38 674.63 1013.81 369.67 1231.77 406.39 1067.62 492.32 993.47 608.66 1160.01 641.11
00004539 00000136 925.77 117.01 492.80 672.72 1016.15 372.18 1233.08 411.30 1068.51 495.13 991.39 611.29 1156.84 645.72
00004540 00000137 923.54 125.31 495.74 671.68 1019.31 376.21 1235.98 416.50 1072.16 499.16 994.54 617.49 1158.80 652.87
00004541 00000138 919.55 131.76 500.46 690.04 1021.66 378.87 1238.25 417.09 1072.13 501.34 995.00 632.83 1155.16 666.68
00004542 00000139 914.84 135.99 497.96 693.29 1018.19 384.71 1230.95 418.95 1074.85 501.07 994.62 639.60 1148.76 672.04
00004543 00000140 906.63 131.16 505.41 704.47 1009.53 394.24 1222.68 424.98 1052.30 502.63 980.53 642.65 1141.98 670.13
00004544 00000141 900.14 130.34 497.64 705.75 996.43 392.75 1211.30 428.51 1034.77 505.04 962.00 639.04 1128.71 671.14
00004545 00000142 889.91 135.22 493.46 706.27 982.71 395.14 1201.26 427.51 1021.61 511.98 951.10 646.39 1121.42 675.62
00004546 00000143 889.50 139.59 489.46 699.86 974.06 397.20 1190.91 426.93 1011.34 523.87 950.27 651.32 1118.49 678.14
00004547 00000144 890.51 142.16 487.01 703.15 960.24 403.28 1182.41 429.68 1014.50 536.70 950.39 664.34 1119.09 689.31
00004548 00000145 884.52 143.00 492.34 705.95 959.53 403.10 1181.39 430.56 1015.25 538.85 948.12 662.29 1117.27 688.25
00004549 00000146 883.78 143.77 491.58 689.19 957.31 405.50 1182.33 434.08 1018.52 542.36 945.04 656.07 1121.78 682.48
00004550 00000147 884.96 148.24 486.53 671.34 965.99 405.87 1189.22 435.39 1017.51 538.47 952.76 647.18 1129.04 672.59
00004551 00000148 884.93 148.79 485.46 673.99 965.54 409.84 1189.60 436.69 1021.71 543.11 955.96 650.68 1133.65 674.06
00004552 00000149 885.37 149.32 486.55 679.62 955.71 420.30 1183.51 442.44 1027.63 554.35 950.05 660.00 1133.13 680.61
00004553 00000150 882.07 147.15 488.65 687.25 953.14 421.31 1180.52 442.70 1024.53 557.38 949.80 665.50 1131.20 685.66
00004554 00000151 879.38 146.07 488.83 689.67 947.00 420.36 1175.62 442.12 1015.98 559.14 944.95 669.28 1127.44 689.70
00004555 00000152 873.74 149.29 491.29 689.24 943.30 422.28 1171.82 443.66 1013.01 561.45 941.12 671.24 1125.64 691.29
00004556 00000153 872.30 151.25 489.98 684.69 940.02 424.24 1168.53 443.84 1010.72 563.38 939.34 670.72 1125.00 689.18
00004557 00000154 872.35 154.16 488.21 677.79 938.70 426.27 1166.02 443.25 1010.08 562.71 940.16 670.01 1124.86 686.15
00004558 00000155 864.32 149.30 498.39 679.56 940.36 430.89 1170.16 452.34 1008.51 553.74 939.03 667.32 1127.50 685.16
00004559 00000156 866.94 141.35 491.05 689.11 933.00 430.96 1156.52 442.88 1002.62 553.04 936.98 669.10 1119.42 681.09
00004560 00000157 868.23 135.84 485.67 691.84 931.19 424.09 1151.87 431.46 1000.13 552.21 938.65 668.47 1116.58 677.05
00004561 00000158 867.73 131.56 488.46 698.55 933.20 416.50 1151.10 422.72 999.30 548.66 939.75 666.50 1115.61 674.35
00004562 00000159 869.11 131.22 488.56 704.91 936.60 412.82 1151.37 418.86 1000.29 544.22 943.39 667.10 1114.32 674.90
00004563 00000160 871.27 129.35 488.17 707.84 939.71 410.90 1152.65 415.96 1002.84 541.04 946.21 666.00 1114.56 673.07
00004564 00000161 872.01 129.06 488.77 705.20 941.21 409.97 1153.61 414.84 1003.34 537.35 947.28 663.89 1114.82 670.76
00004565 00000162 872.06 127.07 489.69 704.41 940.81 411.68 1153.03 415.94 1002.26 535.50 947.02 662.29 1114.95 668.67
00004566 00000163 873.91 123.15 490.11 704.60 943.09 418.01 1150.45 422.64 1001.13 530.57 946.91 659.17 1113.14 665.51
00004567 00000164 870.90 119.89 491.33 702.67 936.30 418.67 1145.20 420.89 993.95 530.07 941.53 658.10 1109.29 662.47
00004568 00000165 866.93 120.25 495.72 693.74 928.95 415.75 1136.93 416.65 983.71 527.89 934.63 654.02 1102.29 657.15
