Video ID: 	KUSZu5fiOMQ
H: 	1080
W: 	1920
FPS: 	59.94006309148265

FRAME INDEX X0 Y0 W H [Landmarks (5 Points)]

00020108 00000000 761.63 160.52 501.30 763.43 834.36 460.96 1051.00 422.12 916.00 595.61 898.52 747.83 1064.42 716.16
00020109 00000001 397.44 63.16 335.12 480.97
00020110 00000002 397.19 62.96 335.13 480.68
00020111 DELETE   396.95 62.76 335.13 480.39
00020112 00000004 396.70 62.56 335.14 480.10
00020113 00000005 396.46 62.36 335.15 479.81
00020114 00000006 396.21 62.16 335.16 479.52
00020115 00000007 395.96 61.96 335.17 479.23
00020116 00000008 395.72 61.77 335.18 478.94
00020117 00000009 395.47 61.57 335.18 478.65
00020118 00000010 395.23 61.37 335.19 478.36
00020119 00000011 394.98 61.17 335.20 478.07
00020120 00000012 394.74 60.97 335.21 477.78
00020121 00000013 394.29 60.91 335.22 477.56
00020122 00000014 393.70 60.96 335.23 477.40
00020123 00000015 393.10 61.00 335.24 477.23
00020124 00000016 392.51 61.04 335.25 477.07
00020125 00000017 391.92 61.08 335.26 476.90
00020126 00000018 391.33 61.12 335.27 476.74
00020127 00000019 390.74 61.17 335.28 476.57
00020128 00000020 390.15 61.21 335.29 476.41
00020129 00000021 389.55 61.25 335.30 476.25
00020130 00000022 388.96 61.29 335.31 476.08
00020131 00000023 388.37 61.33 335.32 475.92
00020132 00000024 387.78 61.38 335.33 475.75
00020133 00000025 387.03 61.65 335.23 475.60
00020134 00000026 386.18 62.07 335.05 475.44
00020135 00000027 735.68 177.98 493.99 737.22 802.41 474.36 1010.79 430.43 870.86 586.07 858.15 748.99 1021.10 711.62
00020136 00000028 732.15 179.95 493.19 731.10 798.16 477.01 1008.08 432.09 868.84 588.31 855.82 750.99 1019.45 713.17
00020137 00000029 730.61 177.36 492.89 738.96 793.66 480.08 1002.01 434.37 862.15 591.15 851.95 754.07 1015.23 715.72
00020138 00000030 729.66 181.75 491.14 733.28 790.52 481.71 998.62 435.21 859.05 592.66 849.12 755.45 1011.43 716.71
00020139 00000031 729.61 183.89 491.14 733.26 788.46 481.55 996.43 436.25 855.81 594.07 845.99 755.41 1009.98 717.62
00020140 00000032 728.42 185.35 492.92 730.83 785.75 481.04 993.10 435.94 852.21 594.35 843.25 756.00 1006.84 718.30
00020141 00000033 728.02 186.65 490.35 731.55 783.76 479.50 991.42 436.01 850.02 594.96 840.65 756.45 1003.59 720.22
00020142 00000034 727.18 187.27 489.35 729.67 783.30 479.64 989.92 436.20 848.99 594.86 840.36 757.20 1001.95 721.08
00020143 00000035 725.41 185.08 488.94 730.04 782.42 479.15 987.04 436.46 847.24 593.90 838.96 756.29 998.00 720.93
00020144 00000036 724.48 184.83 484.98 730.96 782.46 478.96 986.35 437.17 847.74 593.52 838.52 754.54 996.19 720.08
00020145 00000037 723.76 185.54 485.21 729.18 782.98 479.35 986.44 436.67 848.57 593.79 840.13 752.05 999.07 716.74
00020146 00000038 722.20 185.23 486.39 729.74 783.52 479.76 986.17 436.53 848.51 593.49 840.86 750.49 1000.56 714.70
00020147 00000039 718.06 185.66 488.93 723.85 783.02 477.68 987.28 435.86 850.64 593.63 841.85 747.32 1001.97 712.69
00020148 00000040 716.18 185.47 488.35 724.41 781.78 477.33 987.03 435.90 850.63 592.57 839.84 746.44 1001.60 712.08
00020149 00000041 713.41 185.37 489.81 723.69 780.76 476.23 986.16 435.79 849.54 592.03 838.26 744.13 999.99 710.69
00020150 00000042 709.74 184.16 492.21 723.35 778.73 473.42 985.54 435.84 848.36 591.97 834.83 743.11 995.86 712.25
00020151 00000043 707.46 182.28 493.70 723.73 776.83 473.52 984.75 436.66 846.84 592.38 833.28 743.85 992.17 713.80
00020152 00000044 706.98 181.45 494.57 723.32 776.16 473.36 983.11 435.96 845.17 592.21 831.66 743.04 991.69 712.49
00020153 00000045 705.54 180.29 494.86 723.54 773.89 472.47 983.25 434.55 844.28 591.69 829.85 743.98 991.57 712.97
00020154 00000046 704.09 180.59 494.04 725.06 772.78 472.82 984.00 434.87 842.99 590.55 827.66 744.56 990.51 713.58
00020155 00000047 704.31 180.10 491.74 722.62 773.17 472.38 983.28 434.75 842.19 588.99 826.93 742.57 988.83 711.87
00020156 00000048 703.00 179.18 493.82 723.22 773.04 471.94 982.81 434.57 842.20 588.10 826.98 741.33 988.52 710.90
00020157 00000049 702.02 178.47 494.30 721.22 772.68 470.40 983.25 434.37 843.79 588.50 826.13 739.69 987.91 710.43
00020158 00000050 697.45 179.14 499.41 725.28 770.40 470.24 983.53 434.70 842.95 587.64 822.68 739.55 987.65 710.76
00020159 00000051 693.90 178.93 502.33 725.89 767.27 470.41 982.75 434.08 842.00 587.81 819.90 740.21 986.74 710.70
00020160 00000052 693.41 178.45 501.69 727.23 766.20 469.93 981.61 434.34 840.35 587.81 818.16 740.17 984.56 711.23
00020161 00000053 691.69 178.06 503.05 727.18 763.45 468.70 980.51 434.70 837.21 587.70 813.93 740.57 982.33 712.95
00020162 00000054 690.13 183.54 501.00 725.39 760.29 469.27 974.31 431.82 831.55 588.92 808.71 740.83 982.20 710.81
00020163 00000055 689.28 181.70 500.17 726.94 759.43 468.94 972.80 431.53 830.89 588.46 807.00 741.61 981.40 711.68
00020164 00000056 361.05 64.26 330.69 466.76
00020165 00000057 360.16 64.35 330.60 466.45
00020166 00000058 359.27 64.44 330.52 466.13
00020167 00000059 358.39 64.53 330.44 465.82
00020168 00000060 357.50 64.62 330.36 465.51
00020169 00000061 356.84 64.70 330.29 465.23
00020170 00000062 356.31 64.77 330.22 464.96
00020171 00000063 355.78 64.84 330.16 464.69
00020172 00000064 355.25 64.91 330.10 464.42
00020173 00000065 354.72 64.98 330.03 464.16
00020174 00000066 354.19 65.05 329.97 463.89
00020175 00000067 353.66 65.12 329.91 463.62
00020176 00000068 353.13 65.20 329.84 463.35
00020177 00000069 352.60 65.27 329.78 463.09
00020178 00000070 352.07 65.34 329.71 462.82
00020179 00000071 351.54 65.41 329.65 462.55
00020180 00000072 351.01 65.48 329.59 462.28
00020181 00000073 350.63 65.49 329.50 462.06
00020182 00000074 350.33 65.48 329.40 461.85
00020183 00000075 350.03 65.47 329.31 461.64
00020184 00000076 349.73 65.46 329.21 461.43
00020185 00000077 349.43 65.44 329.11 461.22
00020186 00000078 349.13 65.43 329.02 461.01
00020187 00000079 348.83 65.42 328.92 460.81
00020188 00000080 348.53 65.41 328.82 460.60
00020189 00000081 348.23 65.39 328.72 460.39
00020190 00000082 347.93 65.38 328.63 460.18
00020191 00000083 347.63 65.37 328.53 459.97
00020192 00000084 347.33 65.36 328.43 459.76
00020193 00000085 347.15 65.29 328.36 459.59
00020194 00000086 347.05 65.20 328.29 459.44
00020195 00000087 346.94 65.11 328.23 459.28
00020196 00000088 346.83 65.02 328.17 459.13
00020197 00000089 346.72 64.93 328.11 458.97
00020198 00000090 668.89 173.59 493.49 727.11 745.37 462.20 953.56 424.84 818.41 576.42 797.86 734.46 960.90 703.06
00020199 00000091 346.51 64.76 327.98 458.67
00020200 00000092 668.37 174.70 490.49 723.30 744.37 461.21 952.23 423.44 817.67 575.52 798.47 733.28 961.09 701.48
00020201 00000093 346.29 64.58 327.86 458.36
00020202 00000094 346.18 64.49 327.79 458.20
00020203 00000095 670.45 169.51 494.72 725.29 744.74 462.90 951.72 424.42 816.12 577.45 802.40 735.80 954.11 704.41
00020204 00000096 670.62 168.98 495.18 725.67 745.58 461.86 950.84 423.80 815.60 577.00 803.27 734.46 953.38 703.41
00020205 00000097 670.52 168.18 495.78 725.59 746.99 461.97 951.39 424.41 815.72 576.26 803.35 732.60 953.15 702.01
00020206 00000098 669.21 169.42 497.47 723.72 748.17 459.50 952.66 424.59 817.47 575.56 803.04 729.59 952.57 701.27
00020207 00000099 669.14 168.25 499.30 726.14 749.17 458.22 955.17 422.85 820.18 574.79 805.09 729.28 956.80 700.52
00020208 00000100 671.83 163.89 497.43 727.07 750.74 456.04 956.33 422.90 820.32 575.25 804.90 726.91 956.55 700.08
00020209 00000101 672.11 164.26 499.12 728.41 751.26 456.31 958.64 422.47 822.32 575.81 805.65 726.73 961.30 699.15
00020210 00000102 671.49 163.75 501.00 727.62 751.24 455.01 960.42 421.31 823.73 576.68 805.88 724.75 964.75 697.14
00020211 00000103 670.29 162.04 503.17 731.66 752.50 453.02 962.30 419.58 826.43 575.28 807.18 723.35 967.48 695.88
00020212 00000104 347.50 61.31 328.03 457.74
00020213 00000105 347.70 60.92 328.08 457.72
00020214 00000106 347.90 60.53 328.13 457.71
00020215 00000107 348.11 60.15 328.18 457.70
00020216 00000108 348.31 59.76 328.23 457.68
00020217 00000109 349.00 59.32 328.26 457.80
00020218 00000110 349.92 58.85 328.29 457.98
00020219 00000111 350.83 58.39 328.32 458.15
00020220 00000112 351.74 57.93 328.35 458.33
00020221 00000113 352.66 57.46 328.38 458.51
00020222 00000114 353.57 57.00 328.41 458.68
00020223 00000115 354.49 56.53 328.44 458.86
00020224 00000116 355.40 56.07 328.47 459.04
00020225 00000117 356.32 55.60 328.50 459.21
00020226 00000118 357.23 55.14 328.53 459.39
00020227 00000119 358.15 54.67 328.56 459.57
00020228 00000120 359.06 54.21 328.59 459.74
00020229 00000121 692.24 153.33 508.24 727.68 776.70 441.45 991.33 406.12 860.54 561.54 838.36 710.00 1004.66 681.05
00020230 00000122 693.86 154.02 510.25 727.24 777.99 443.51 991.85 406.21 860.81 561.95 841.23 710.43 1009.22 679.70
00020231 00000123 697.51 149.06 506.45 735.28 779.27 444.76 994.02 406.53 860.55 563.75 841.95 713.36 1013.60 681.36
00020232 00000124 698.76 152.84 505.79 731.55 780.93 446.26 994.26 408.06 861.41 565.44 845.45 715.37 1014.67 683.14
00020233 00000125 701.02 154.53 504.97 729.35 783.94 446.83 995.32 408.54 863.31 568.08 849.67 716.72 1016.95 684.24
00020234 00000126 702.06 155.37 506.01 730.62 784.99 448.00 996.50 409.02 865.49 569.77 852.42 718.66 1019.44 685.47
00020235 00000127 705.46 158.07 503.28 726.68 786.97 448.81 1000.33 409.03 868.68 569.31 853.56 719.75 1021.30 685.99
00020236 00000128 716.29 155.88 500.97 720.79 792.55 449.73 998.64 409.16 866.40 569.05 857.84 718.20 1013.48 684.99
00020237 00000129 711.07 158.56 502.44 726.42 790.58 450.54 1003.47 410.08 872.01 568.77 856.12 720.85 1023.72 686.63
00020238 00000130 713.43 157.18 502.08 729.48 792.30 450.09 1005.79 410.07 872.75 568.67 855.51 721.02 1024.97 687.27
00020239 00000131 723.55 152.98 500.29 722.96 798.78 455.03 1004.21 413.69 869.51 570.65 858.49 719.65 1016.03 685.82
00020240 00000132 728.89 157.06 495.28 713.77 804.82 461.16 1003.59 421.78 871.01 572.33 861.92 719.29 1016.30 686.65
00020241 00000133 726.86 156.14 500.93 715.55 807.73 468.88 1007.14 429.65 875.40 573.41 862.89 722.09 1018.66 689.27
00020242 00000134 724.79 159.58 504.84 715.01 808.41 472.62 1006.99 433.13 876.74 574.43 863.51 725.12 1018.90 692.08
00020243 00000135 725.93 160.21 504.89 719.08 807.93 475.16 1004.85 434.80 874.53 577.19 862.36 728.79 1019.22 694.83
00020244 00000136 726.69 161.87 507.89 721.48 807.68 478.84 1004.54 436.92 872.99 578.87 863.12 731.49 1020.83 696.19
00020245 00000137 728.29 160.39 510.47 729.71 808.10 480.51 1004.95 439.18 870.69 580.76 862.16 734.81 1018.66 699.88
00020246 00000138 734.24 164.00 508.21 726.69 808.80 479.90 1006.40 441.02 869.85 586.51 862.63 736.73 1018.06 703.89
00020247 00000139 734.28 166.18 507.19 730.72 806.90 483.92 1006.41 442.55 868.60 589.54 861.66 741.58 1018.25 706.79
00020248 00000140 736.02 164.04 507.25 737.42 808.11 484.08 1006.38 444.10 866.31 594.51 861.94 743.13 1018.55 709.46
00020249 00000141 738.04 164.37 505.10 734.31 808.27 485.67 1005.03 447.62 865.21 597.38 862.28 743.25 1016.77 711.05
00020250 00000142 736.75 163.73 508.75 741.56 808.54 486.34 1005.77 449.78 865.60 599.85 862.48 745.36 1017.00 714.57
00020251 00000143 737.00 163.12 509.30 749.72 809.20 489.03 1005.90 451.19 865.01 602.49 863.16 748.95 1019.52 717.04
00020252 00000144 740.52 163.37 501.11 751.62 804.30 489.14 1006.41 446.97 864.17 597.35 855.85 749.92 1021.69 714.52
00020253 00000145 734.56 168.25 514.03 749.81 810.59 490.37 1008.46 454.85 869.51 609.53 866.20 753.50 1021.75 723.53
00020254 00000146 736.84 165.76 514.32 751.35 812.81 491.55 1012.24 456.45 873.53 612.40 868.75 757.36 1023.45 727.97
00020255 00000147 739.13 166.80 515.69 749.86 814.27 491.91 1015.79 458.29 877.18 614.42 871.03 759.28 1025.37 731.11
00020256 00000148 740.61 166.95 520.67 751.29 816.86 492.90 1020.05 459.04 878.41 615.08 873.43 761.10 1029.31 732.48
00020257 00000149 740.99 170.95 523.17 742.16 813.63 488.87 1031.14 453.54 886.16 605.98 866.49 757.64 1040.00 728.62
00020258 00000150 745.78 169.75 517.73 745.35 816.24 483.90 1029.05 456.50 881.86 611.84 875.70 751.78 1042.28 727.80
00020259 00000151 751.00 169.56 513.96 744.27 821.14 483.08 1034.58 455.46 887.49 610.17 879.40 748.39 1047.31 724.23
00020260 00000152 761.65 167.66 505.91 745.94 826.84 482.97 1038.88 446.56 894.99 600.01 869.92 745.18 1052.44 715.73
00020261 00000153 393.40 56.24 330.80 468.54
00020262 00000154 765.37 165.84 505.14 740.46 834.42 473.32 1051.68 441.66 907.08 589.66 882.00 739.69 1056.44 714.01
00020263 00000155 771.69 164.09 499.68 738.86 838.93 471.56 1055.77 438.85 911.86 586.27 885.97 738.57 1058.85 712.22
00020264 00000156 397.04 55.72 330.82 468.86
00020265 00000157 397.65 55.93 330.96 469.03
00020266 00000158 398.04 56.27 331.14 469.21
00020267 00000159 398.43 56.62 331.33 469.40
00020268 00000160 398.81 56.96 331.51 469.58
00020269 00000161 399.20 57.31 331.70 469.77
00020270 00000162 768.93 172.36 509.39 773.88 837.23 491.33 1064.98 451.06 918.74 611.16 892.72 774.98 1077.52 742.00
00020271 00000163 399.97 58.00 332.06 470.14
00020272 00000164 400.36 58.35 332.25 470.33
00020273 00000165 400.75 58.69 332.43 470.51
00020274 00000166 401.13 59.04 332.61 470.70
00020275 00000167 401.52 59.38 332.80 470.88
00020276 00000168 401.91 59.73 332.98 471.07
00020277 00000169 402.19 59.85 333.11 471.29
00020278 00000170 402.44 59.90 333.23 471.53
00020279 00000171 781.34 174.35 500.17 739.47 840.14 486.14 1057.23 447.81 913.68 597.91 893.51 759.34 1057.47 728.57
00020280 00000172 782.26 173.81 500.77 746.44 840.69 485.12 1057.89 447.40 913.33 598.78 893.97 759.66 1059.98 729.36
00020281 00000173 782.83 170.74 501.71 750.00 841.10 485.40 1057.89 446.93 911.92 597.62 893.94 760.09 1059.22 729.29
00020282 00000174 782.85 173.00 500.56 741.76 838.23 485.56 1057.49 445.93 910.78 598.31 891.81 760.36 1061.00 728.43
00020283 00000175 782.74 172.83 501.35 745.21 837.25 483.89 1058.00 445.17 908.87 598.23 889.73 760.67 1063.53 729.31
00020284 00000176 783.29 172.39 502.13 745.81 836.86 484.32 1058.12 444.32 907.34 597.42 889.37 759.81 1067.18 727.13
00020285 00000177 782.74 172.88 500.48 744.15 837.17 483.87 1057.79 443.97 908.05 597.02 890.16 758.82 1068.09 726.08
00020286 00000178 781.39 170.53 505.23 750.39 838.85 483.56 1059.48 443.90 907.86 594.17 891.30 759.65 1068.84 727.09
00020287 00000179 781.05 168.44 507.63 749.03 839.80 486.60 1058.14 446.83 907.62 593.41 892.06 761.58 1063.44 729.31
00020288 00000180 779.39 168.57 507.24 753.42 840.47 487.91 1060.53 444.79 914.83 594.27 892.66 761.26 1065.31 726.78
00020289 00000181 779.35 170.48 508.10 757.58 841.46 485.87 1061.98 443.77 916.76 596.38 895.64 764.23 1066.53 730.43
00020290 00000182 776.81 173.94 507.53 756.74 840.33 483.76 1062.74 441.02 917.57 597.67 898.54 766.24 1073.39 731.82
00020291 00000183 772.41 174.56 509.32 763.23 838.24 478.24 1061.39 435.18 916.50 598.19 902.03 765.75 1073.95 730.75
00020292 00000184 770.14 173.62 509.59 767.35 836.84 475.87 1060.87 431.70 916.22 598.24 901.92 766.34 1074.78 730.24
00020293 00000185 769.08 170.27 509.18 768.61 834.14 474.26 1059.07 429.64 914.14 599.95 899.78 766.79 1074.68 730.47
00020294 00000186 770.24 172.46 507.07 761.59 831.40 474.66 1058.02 429.49 913.51 600.82 896.93 766.90 1073.36 730.32
00020295 00000187 772.92 173.91 505.69 757.17 830.47 474.34 1057.87 428.97 912.57 600.63 894.16 766.24 1072.37 729.53
00020296 00000188 773.09 171.30 507.82 762.00 831.83 474.24 1058.10 429.40 912.38 600.72 892.78 763.79 1072.05 727.49
00020297 00000189 771.67 170.84 509.98 763.72 832.65 474.03 1058.84 429.90 913.10 600.51 892.37 762.38 1073.30 726.54
00020298 00000190 773.91 177.03 507.11 752.71 835.23 473.20 1060.10 430.57 915.81 602.12 894.50 761.04 1074.30 726.45
00020299 00000191 775.44 177.59 506.56 749.69 836.65 473.72 1061.87 432.23 918.68 602.51 895.87 760.74 1074.54 727.29
00020300 00000192 775.06 174.24 506.26 749.93 839.91 474.22 1065.84 433.66 924.37 603.19 899.06 761.35 1076.63 728.94
00020301 00000193 776.60 172.19 511.82 759.05 843.90 474.48 1065.47 436.31 921.60 601.82 902.47 761.31 1075.26 730.15
00020302 00000194 779.90 185.73 505.24 746.91 846.87 475.95 1072.94 438.67 932.31 606.86 903.26 762.97 1084.45 732.94
00020303 00000195 784.90 188.97 503.20 747.53 848.02 475.87 1075.09 438.53 933.99 609.66 905.03 764.36 1088.15 734.04
00020304 00000196 785.84 186.79 501.93 750.14 848.92 472.70 1078.24 436.83 936.92 610.03 906.57 763.09 1091.78 733.78
00020305 00000197 786.59 185.75 501.52 752.56 850.58 471.96 1080.08 436.42 939.49 610.16 908.63 763.17 1093.86 734.07
00020306 00000198 785.64 187.04 503.48 752.10 851.25 472.10 1081.61 436.42 941.37 609.16 909.30 763.17 1095.34 733.78
00020307 00000199 784.87 185.46 504.59 755.63 852.27 472.61 1081.92 436.29 942.23 609.00 910.82 764.20 1096.12 734.17
00020308 00000200 784.25 187.69 503.93 753.21 851.28 472.45 1081.51 436.02 941.82 609.75 911.51 763.95 1095.88 733.76
00020309 00000201 784.35 186.42 502.22 751.89 851.99 471.70 1080.94 436.14 941.31 609.02 910.70 762.35 1093.42 733.14
00020310 00000202 783.75 186.57 503.88 760.83 853.04 472.27 1081.32 437.31 941.33 609.47 910.58 763.03 1093.43 734.25
00020311 00000203 782.09 186.76 506.91 766.29 853.45 472.70 1082.08 437.15 941.87 610.71 912.43 765.26 1095.89 735.78
00020312 00000204 782.25 187.08 507.45 767.67 852.70 473.53 1081.59 436.64 941.23 611.09 912.34 766.13 1097.13 735.49
00020313 00000205 779.97 187.67 508.53 765.83 852.27 473.85 1081.53 436.65 942.03 611.44 913.64 766.26 1097.87 735.33
00020314 00000206 778.51 186.56 509.00 765.92 851.90 474.42 1081.69 436.52 943.24 610.74 914.57 765.94 1099.39 734.26
00020315 00000207 777.85 185.79 508.57 764.68 851.94 474.71 1081.66 436.70 943.92 610.45 914.38 766.06 1099.10 734.29
00020316 00000208 776.54 184.70 508.80 762.22 852.40 475.05 1082.31 437.37 945.54 610.78 915.71 766.25 1099.93 734.83
00020317 00000209 774.20 184.64 510.48 763.01 850.97 475.65 1082.30 437.26 944.52 611.80 915.17 767.17 1099.71 735.18
00020318 00000210 772.44 183.76 511.75 762.87 850.65 478.24 1081.79 438.77 944.76 611.95 915.42 768.98 1099.88 736.18
00020319 00000211 771.50 185.10 510.96 760.62 849.93 478.79 1081.24 439.69 944.39 612.06 914.62 769.24 1099.50 736.78
00020320 00000212 771.35 186.79 510.06 757.56 849.20 479.66 1079.71 439.93 942.55 612.11 913.45 769.28 1098.88 736.39
00020321 00000213 769.47 186.90 511.92 756.70 848.78 478.61 1079.35 439.97 942.40 612.53 912.99 769.00 1098.11 737.06
00020322 00000214 768.98 188.80 511.87 753.50 847.68 479.33 1078.48 439.58 941.68 612.32 912.65 769.76 1097.33 736.97
00020323 00000215 768.66 186.69 511.79 757.58 847.59 479.09 1077.85 439.45 941.06 612.74 912.45 770.03 1096.89 737.22
00020324 00000216 767.85 186.64 512.64 757.23 846.66 478.76 1077.02 438.71 940.23 612.61 912.52 770.23 1096.80 737.05
00020325 00000217 767.29 186.53 512.33 755.64 846.22 479.00 1076.53 438.38 940.71 612.35 912.97 770.06 1097.65 736.33
00020326 00000218 766.91 187.04 512.35 751.43 845.24 479.20 1075.68 438.09 940.06 612.66 912.82 769.31 1095.73 735.33
00020327 00000219 766.48 185.25 513.03 752.07 845.33 479.58 1075.65 438.32 939.34 612.71 912.48 769.12 1095.47 735.03
00020328 00000220 766.31 185.51 513.89 753.18 843.72 478.80 1074.65 437.03 938.02 612.00 910.58 769.53 1094.06 735.08
00020329 00000221 765.39 179.89 519.96 751.02 844.63 479.83 1069.04 438.16 931.72 605.54 908.87 762.59 1085.76 728.14
00020330 00000222 767.29 188.08 521.27 735.55 845.26 476.15 1071.93 439.44 933.56 612.45 916.02 759.91 1085.77 728.53
00020331 00000223 766.80 187.10 521.94 737.55 845.28 475.81 1071.46 439.38 933.24 612.84 915.68 760.10 1085.09 729.04
00020332 00000224 767.23 186.10 521.07 738.81 845.08 476.01 1071.62 439.29 932.79 612.99 915.41 760.24 1085.04 728.90
00020333 00000225 767.00 185.88 522.16 738.43 845.38 475.93 1071.64 439.59 933.15 612.48 915.38 760.17 1084.43 729.20
00020334 00000226 767.04 186.01 522.42 739.75 845.28 476.34 1071.17 439.47 932.54 612.60 915.80 760.97 1084.71 729.51
