Video ID: 	8NPlUPXJy1A
H: 	1080
W: 	1920
FPS: 	23.976036165379742

FRAME INDEX X0 Y0 W H [Landmarks (5 Points)]

00001531 00000000 287.31 155.75 446.18 591.03 356.20 394.52 547.05 374.14 420.45 478.67 392.97 608.93 532.91 592.55
00001532 00000001 288.52 156.38 446.37 589.48 355.50 397.22 545.06 374.94 418.97 480.22 393.34 609.76 533.26 591.78
00001533 00000002 288.04 158.63 447.69 587.67 354.61 398.73 541.55 375.72 415.38 480.61 392.73 610.82 530.32 592.23
00001534 00000003 287.70 159.35 447.92 587.42 353.92 399.95 539.86 377.09 413.31 481.11 391.49 610.86 528.63 592.36
00001535 00000004 288.96 165.29 438.72 587.14 358.74 400.28 542.79 380.89 416.53 483.67 391.28 604.35 544.88 587.13
00001536 00000005 285.92 161.11 449.05 596.62 359.63 395.41 551.00 377.83 424.67 485.29 393.31 606.97 540.22 591.72
00001537 00000006 288.92 161.83 450.00 593.56 362.79 396.77 556.22 376.77 431.04 483.62 397.08 606.28 545.08 589.12
00001538 00000007 295.98 156.74 450.16 596.61 361.44 400.37 554.03 372.97 427.14 479.38 401.57 607.69 552.84 585.55
00001539 00000008 293.88 156.11 449.93 596.78 358.79 401.94 549.30 373.87 420.76 480.00 398.28 607.72 547.53 584.96
00001540 00000009 290.01 157.92 449.41 597.70 355.66 402.97 540.75 377.31 412.15 481.94 393.99 610.78 536.82 589.85
00001541 00000010 285.41 164.42 443.40 600.81 354.90 403.47 531.82 382.15 408.79 489.92 393.59 612.78 538.36 593.38
00001542 00000011 281.70 169.29 445.88 603.87 349.68 406.66 527.41 384.52 403.68 495.67 390.81 619.87 535.33 599.94
00001543 00000012 277.62 172.59 445.83 601.12 344.67 410.16 522.07 387.61 398.12 498.75 386.10 623.04 530.67 602.88
00001544 00000013 274.00 175.68 445.75 596.09 337.12 413.50 515.13 387.95 389.05 500.06 379.67 625.80 524.77 603.21
00001545 00000014 270.78 176.54 444.92 592.98 331.10 414.96 507.13 391.21 380.07 503.46 372.62 626.25 517.17 605.06
00001546 DELETE   271.03 180.26 441.12 594.04 329.53 426.52 502.90 402.53 374.37 504.72 366.93 627.75 512.72 606.30
00001547 00000016 269.05 178.11 442.65 603.43 327.62 423.16 500.52 401.10 371.16 508.57 364.63 631.74 509.62 612.07
00001548 00000017 267.67 180.26 444.78 602.66 326.85 416.79 500.75 398.28 370.72 513.03 363.29 631.44 509.44 614.80
00001549 00000018 267.82 183.78 443.69 596.94 326.21 415.67 498.06 398.03 368.89 513.82 364.26 631.41 504.01 615.73
00001550 00000019 270.50 177.10 444.81 603.75 325.13 417.18 495.97 396.95 363.05 509.32 367.86 630.75 491.91 613.83
00001551 00000020 265.98 173.81 441.65 610.51 316.81 419.48 480.75 396.75 347.10 508.38 359.24 633.90 482.24 615.00
00001552 00000021 260.79 173.28 435.64 609.53 308.31 418.82 469.05 396.22 333.60 504.74 345.98 633.14 466.51 614.92
00001553 00000022 257.16 168.85 435.12 613.03 304.25 414.95 463.56 393.36 325.00 503.11 340.31 632.53 458.21 615.15
00001554 00000023 254.81 165.58 437.37 615.40 301.05 414.66 461.29 393.39 320.52 502.10 334.55 631.73 454.87 614.84
00001555 00000024 253.28 165.71 438.89 612.81 299.82 415.42 460.37 395.92 319.23 502.76 332.18 629.60 454.84 614.13
00001556 00000025 251.50 166.91 438.61 610.63 299.47 415.46 460.46 398.38 319.49 504.30 330.59 628.87 453.75 615.42
00001557 00000026 250.41 170.06 439.16 607.72 299.58 417.88 459.61 401.72 319.98 506.43 331.14 629.36 453.77 616.56
00001558 00000027 250.79 171.96 438.98 606.14 300.55 419.24 458.80 403.83 319.59 508.18 331.27 629.24 454.34 617.04
00001559 00000028 250.56 174.59 438.82 604.88 301.42 420.09 459.11 405.96 320.85 510.48 332.59 629.02 456.70 617.72
00001560 00000029 250.43 174.87 440.27 610.41 301.98 421.46 459.33 406.57 320.88 510.99 334.12 630.18 459.51 618.06
00001561 00000030 253.69 178.17 439.12 617.65 307.97 423.79 465.68 407.03 329.09 510.67 344.30 634.65 470.41 620.59
00001562 00000031 252.34 187.49 438.37 611.85 314.60 419.72 479.36 405.26 348.05 519.27 342.53 633.83 489.36 620.56
00001563 00000032 261.62 200.97 437.52 594.03 323.11 425.78 502.80 408.47 373.28 521.78 360.19 633.54 512.64 616.61
00001564 00000033 266.80 201.46 446.97 593.96 331.47 436.81 519.48 414.38 394.22 529.62 373.13 640.45 536.94 619.11
00001565 00000034 274.40 194.97 453.25 604.77 343.25 434.28 527.59 409.18 404.96 529.28 383.94 637.05 545.74 614.28
00001566 00000035 278.07 198.24 453.33 608.83 345.11 441.26 522.10 408.00 402.09 531.06 391.94 645.55 548.59 615.84
00001567 00000036 273.68 212.91 445.60 602.20 335.95 455.53 515.52 419.72 394.70 537.54 387.96 659.14 550.10 627.37
00001568 00000037 273.09 217.27 447.80 607.09 329.73 458.94 509.33 424.41 380.47 545.71 381.10 667.79 544.19 636.59
00001569 00000038 273.68 220.04 445.55 609.52 329.05 464.72 507.64 431.87 377.67 553.34 380.27 675.44 542.83 645.00
00001570 00000039 273.52 226.39 446.39 604.60 332.28 470.32 509.18 440.33 382.78 562.45 383.09 678.62 543.39 650.25
00001571 00000040 275.38 232.85 448.79 599.60 335.32 476.16 513.95 444.81 389.77 566.58 386.71 681.60 548.06 652.08
00001572 00000041 279.79 237.87 447.94 596.65 341.28 478.75 517.57 448.61 395.41 568.41 390.84 681.70 551.67 653.44
00001573 00000042 282.51 229.89 453.62 612.40 345.70 482.34 518.97 452.38 395.41 570.22 398.74 687.43 548.98 661.75
00001574 00000043 284.08 227.75 454.37 618.29 346.60 482.42 517.87 452.06 393.21 573.45 403.57 690.51 550.39 664.49
00001575 00000044 286.46 230.64 451.39 615.12 348.02 482.79 517.43 452.95 392.26 574.75 405.37 691.32 551.55 665.76
00001576 00000045 288.14 228.81 450.45 616.27 348.91 482.41 517.63 453.14 391.57 574.21 405.21 690.62 551.31 665.52
00001577 00000046 288.12 228.54 450.63 613.03 349.28 481.99 519.06 454.46 393.06 575.20 403.76 689.53 550.09 665.98
00001578 00000047 287.55 227.48 452.31 607.63 349.23 481.25 519.20 455.14 393.03 572.87 401.13 687.08 546.22 664.78
00001579 00000048 287.54 225.93 452.77 602.60 347.72 479.51 518.83 453.60 391.24 569.77 398.62 683.78 541.28 661.64
00001580 00000049 287.62 225.24 453.07 604.60 347.99 478.36 517.54 452.30 389.55 567.34 398.52 682.86 539.00 660.60
00001581 00000050 285.82 228.37 453.77 609.19 348.25 471.31 515.53 450.30 389.82 575.80 392.63 683.10 532.69 662.84
00001582 00000051 281.31 226.58 457.57 615.50 345.42 470.97 514.29 449.61 387.03 577.65 390.72 683.06 535.91 662.19
00001583 00000052 278.88 229.69 456.82 612.24 341.11 471.29 509.69 450.65 382.11 579.11 387.19 682.46 532.37 662.38
00001584 00000053 277.41 237.46 447.79 603.47 331.51 470.45 500.47 447.99 371.89 579.04 382.63 686.73 532.84 664.92
00001585 00000054 273.94 239.34 442.51 594.99 328.39 468.46 494.83 451.34 367.19 578.11 375.11 685.79 516.38 669.31
00001586 00000055 271.54 236.95 440.80 592.85 324.12 468.21 491.58 452.34 362.51 578.91 368.97 686.23 510.49 671.01
00001587 00000056 269.76 238.24 439.10 585.80 322.10 467.50 490.87 452.53 362.12 579.05 365.45 684.76 505.33 670.49
00001588 00000057 270.29 235.91 437.71 586.56 321.19 466.05 490.90 450.06 362.54 577.05 364.72 684.29 504.85 669.39
00001589 00000058 271.19 229.16 438.68 596.94 322.28 463.43 494.32 445.54 366.01 571.75 368.50 684.73 508.07 668.58
00001590 00000059 274.31 225.66 440.49 604.57 326.89 459.57 498.34 440.00 368.71 564.20 374.20 679.95 517.23 661.78
00001591 00000060 276.16 222.67 441.00 607.61 329.62 457.06 503.58 436.21 372.02 560.02 376.00 673.35 529.48 653.46
00001592 00000061 279.00 223.44 436.85 604.59 333.77 455.43 507.33 435.21 377.87 557.02 376.24 668.94 533.45 649.60
00001593 00000062 280.97 222.80 439.48 601.86 339.83 455.46 515.78 435.76 388.49 556.33 380.91 664.00 541.22 644.94
00001594 00000063 287.44 222.44 437.22 598.87 348.90 457.97 526.48 439.77 403.33 560.15 388.13 661.39 550.61 644.24
00001595 00000064 289.84 213.58 449.63 602.26 352.68 451.95 535.64 434.14 408.54 558.68 398.03 662.68 547.22 647.16
00001596 00000065 296.30 219.92 451.66 591.33 359.79 455.34 548.36 434.59 425.82 562.28 409.00 665.12 557.69 648.04
00001597 00000066 303.28 221.29 450.43 588.45 366.95 457.94 551.70 435.86 433.31 565.93 420.48 667.75 563.33 649.72
00001598 00000067 305.49 221.63 450.30 585.44 368.13 458.14 551.79 436.11 433.81 567.51 423.01 667.86 563.58 649.86
00001599 00000068 305.79 222.10 448.30 585.01 367.14 458.40 551.19 436.56 432.49 567.07 420.46 668.56 560.70 650.81
00001600 00000069 304.24 225.62 446.22 586.89 371.55 454.37 555.43 434.35 430.36 557.19 413.58 668.53 559.75 651.50
00001601 00000070 300.31 226.66 446.30 588.91 366.05 457.77 551.82 438.55 431.36 565.59 416.18 677.33 555.09 660.21
00001602 00000071 300.04 229.08 446.76 587.13 365.63 459.52 552.02 442.76 430.99 569.44 413.92 678.70 553.00 663.72
00001603 00000072 301.80 226.59 448.13 594.86 367.49 457.25 554.61 441.78 431.72 568.45 414.90 679.94 555.55 665.91
00001604 00000073 307.30 225.08 450.58 603.86 374.71 451.19 560.58 437.40 436.64 562.84 421.76 676.00 568.63 662.76
00001605 00000074 313.86 222.51 447.14 612.93 381.41 449.47 566.16 436.78 442.98 563.02 426.84 675.34 576.66 662.89
00001606 00000075 319.48 224.64 443.71 606.86 385.91 452.10 570.61 436.23 451.30 563.58 434.04 677.82 582.05 663.09
00001607 00000076 323.34 227.94 440.54 593.62 390.51 450.94 581.05 437.47 461.50 564.75 434.72 674.36 586.51 662.16
00001608 00000077 323.79 228.78 447.20 586.20 399.02 448.60 590.89 436.19 478.13 563.73 445.23 671.11 591.94 659.74
00001609 00000078 325.63 227.70 450.56 586.30 407.81 446.92 601.22 435.42 492.75 561.43 456.44 669.69 600.30 658.73
00001610 00000079 327.76 225.21 453.45 588.09 413.91 446.63 609.60 434.84 502.39 562.38 464.01 670.75 608.65 659.31
00001611 00000080 330.88 224.81 452.04 588.84 420.54 446.46 615.51 435.25 511.15 561.61 470.37 670.05 612.84 658.86
00001612 00000081 332.14 223.03 452.53 590.01 426.69 445.29 623.07 433.91 522.17 560.10 475.75 669.58 618.13 658.10
00001613 00000082 333.53 222.79 453.06 589.00 430.53 444.12 628.51 433.11 528.79 559.37 479.08 667.89 623.93 656.41
00001614 00000083 333.96 223.67 453.19 584.94 432.42 445.12 631.97 434.54 532.95 558.68 479.04 665.05 628.38 653.89
00001615 00000084 335.20 222.27 453.15 588.20 436.71 441.17 637.79 431.19 539.05 555.89 481.67 663.57 632.20 652.43
00001616 00000085 335.41 220.43 453.55 599.24 441.09 435.40 644.46 424.02 546.92 551.12 488.57 665.07 640.98 652.58
00001617 00000086 337.21 220.30 453.97 603.19 448.68 434.47 651.45 422.61 556.12 551.45 495.47 665.02 648.87 651.65
00001618 00000087 340.20 221.08 452.73 596.72 453.70 440.30 655.27 424.59 565.26 554.92 502.63 667.20 655.27 650.39
00001619 00000088 341.69 221.38 452.67 593.31 454.40 447.37 655.53 427.87 568.68 560.73 508.31 671.78 660.44 651.80
00001620 00000089 342.15 225.69 452.88 590.55 456.41 456.36 656.14 432.96 572.69 567.74 514.59 676.55 667.19 653.19
00001621 00000090 342.43 233.27 453.83 584.99 459.51 467.99 659.70 437.65 579.54 580.63 520.89 681.53 678.76 652.88
00001622 00000091 340.51 245.79 456.33 576.72 455.38 477.82 655.29 442.47 575.60 587.15 519.05 688.57 678.19 656.39
00001623 00000092 333.02 249.10 457.93 577.24 447.18 481.08 642.64 449.16 561.31 593.39 510.09 692.70 662.95 664.10
00001624 00000093 327.09 253.45 456.38 579.24 438.16 480.97 631.48 452.86 546.47 599.34 507.63 702.93 645.21 677.91
00001625 00000094 322.60 255.36 459.01 581.47 429.87 483.45 625.63 455.54 537.22 603.48 499.49 706.00 640.44 681.39
00001626 00000095 319.15 259.27 459.42 578.03 420.71 489.17 617.55 461.46 524.74 611.23 489.57 708.62 633.86 684.61
00001627 00000096 314.31 266.05 457.21 574.36 408.65 491.98 603.55 467.72 506.35 619.67 476.78 710.71 620.79 690.25
00001628 00000097 308.85 268.48 456.35 578.73 399.98 491.28 595.34 470.63 495.29 623.00 462.95 711.94 610.97 694.79
00001629 00000098 305.00 265.61 454.39 577.11 391.30 487.61 587.47 469.20 483.48 619.96 453.35 709.66 598.78 694.18
00001630 00000099 302.21 263.78 451.34 569.67 385.37 483.40 582.69 467.17 475.61 613.57 446.18 705.80 586.79 691.83
00001631 00000100 301.99 263.27 446.86 560.89 382.70 477.84 578.11 464.86 468.77 606.78 440.40 697.95 574.39 686.81
00001632 00000101 302.19 258.67 445.68 561.63 382.60 470.02 574.92 460.20 465.71 599.93 437.65 691.44 567.36 682.96
00001633 00000102 302.13 252.68 444.12 561.29 378.41 464.88 571.34 454.73 459.93 591.69 432.41 685.46 563.77 676.75
00001634 00000103 303.95 244.11 442.56 567.18 377.37 460.93 569.07 449.03 457.20 583.40 428.40 681.15 563.07 670.97
00001635 00000104 305.29 240.87 441.27 568.46 377.97 458.40 568.32 446.55 455.95 577.07 425.15 674.99 562.97 664.91
00001636 00000105 303.63 234.72 441.28 570.45 376.91 453.56 569.69 443.86 455.09 571.59 419.39 669.15 560.83 660.91
00001637 00000106 304.28 233.18 440.53 570.38 377.43 447.44 572.25 439.14 455.75 561.43 416.05 660.75 562.44 653.46
00001638 00000107 304.64 232.24 438.20 567.23 377.68 438.37 573.73 429.40 457.21 553.28 417.38 653.90 564.23 646.01
00001639 00000108 301.65 214.80 444.08 584.17 375.77 429.44 575.61 421.76 452.35 546.19 413.74 645.24 563.80 639.47
00001640 DELETE   300.69 203.78 443.16 593.90 374.25 435.99 564.70 427.41 443.01 538.13 412.20 640.66 563.60 633.38
00001641 DELETE   298.73 198.54 442.69 596.43 372.36 433.42 559.62 426.14 437.24 532.31 409.15 635.80 558.89 629.35
00001642 00000111 295.74 190.31 445.63 601.45 371.82 419.89 561.95 418.75 434.57 528.68 405.62 628.82 553.78 627.83
00001643 00000112 294.22 189.48 445.09 595.67 369.96 412.79 561.03 410.41 431.23 520.24 401.38 625.82 546.02 623.99
00001644 00000113 292.76 181.55 444.87 598.72 368.01 409.30 559.56 403.36 428.72 508.36 397.96 622.71 542.39 617.87
00001645 00000114 293.91 176.96 442.85 601.31 368.82 405.96 558.96 399.40 426.70 503.18 396.82 620.90 539.43 615.48
00001646 00000115 293.46 171.66 443.81 606.15 368.00 404.03 559.70 396.96 425.99 502.40 396.47 621.79 539.10 615.97
00001647 00000116 296.27 169.53 441.71 607.10 368.53 405.92 558.35 398.27 424.39 501.12 397.13 622.47 537.42 616.16
00001648 00000117 296.85 173.05 438.42 597.37 369.28 404.67 558.99 398.40 431.81 505.44 395.14 619.22 535.31 614.20
00001649 00000118 299.54 174.44 436.39 597.00 371.46 408.47 557.22 401.23 432.27 506.28 398.66 620.96 535.91 615.11
00001650 00000119 302.30 175.81 434.65 596.95 373.84 409.10 557.09 400.77 433.49 506.95 402.03 622.34 537.82 615.70
00001651 00000120 304.42 175.78 434.63 597.26 376.10 409.82 558.32 400.34 435.25 506.98 405.84 623.04 541.82 615.38
00001652 00000121 306.07 175.04 434.98 598.50 376.86 411.18 558.24 400.15 436.03 508.01 408.21 624.39 545.10 615.37
00001653 00000122 306.28 174.79 436.07 599.09 377.44 411.70 559.87 398.60 437.94 507.91 410.15 625.51 548.80 614.77
00001654 00000123 308.47 173.04 435.25 601.13 378.62 411.93 559.90 397.46 439.10 507.24 412.81 626.57 550.09 614.71
00001655 00000124 308.69 174.34 436.06 598.84 379.09 413.09 560.71 397.60 440.96 507.67 414.65 627.00 551.80 614.31
00001656 00000125 308.69 174.78 435.62 597.95 379.30 413.21 559.75 398.01 441.45 508.93 415.79 626.60 552.17 614.06
00001657 00000126 308.50 177.03 434.74 595.66 378.93 414.73 558.63 400.12 441.73 511.24 416.30 626.71 552.92 614.54
00001658 00000127 307.99 178.30 434.27 594.30 378.18 416.32 557.50 402.12 440.89 513.12 415.48 627.75 552.11 615.93
00001659 00000128 305.96 179.79 434.07 594.34 377.53 417.76 556.13 404.27 440.31 514.68 414.31 628.79 549.60 617.59
00001660 00000129 302.82 181.11 435.22 595.56 374.69 419.17 555.50 405.61 438.59 516.83 411.31 630.51 547.63 619.28
00001661 00000130 299.40 180.42 437.63 597.79 372.36 419.75 554.08 406.11 436.88 517.67 408.62 631.58 544.04 620.35
00001662 00000131 297.49 181.52 437.13 596.65 371.27 420.76 554.33 407.02 438.07 519.10 409.53 632.97 542.90 621.79
00001663 00000132 296.53 183.32 436.93 594.29 368.01 423.33 552.97 411.04 434.29 524.17 403.49 632.36 541.45 622.08
00001664 00000133 293.49 183.83 439.59 596.28 367.36 425.13 552.95 411.95 435.22 526.10 404.45 634.39 542.28 623.33
00001665 00000134 290.46 179.71 442.43 603.18 366.82 425.54 554.18 410.57 436.58 526.21 404.95 636.17 544.03 623.74
00001666 00000135 287.10 178.17 445.29 607.64 366.68 424.74 553.26 408.36 438.01 524.71 407.59 639.06 541.32 625.64
00001667 00000136 282.19 178.14 448.85 607.48 367.97 423.48 552.66 406.33 440.41 517.58 413.17 638.65 535.86 624.71
00001668 00000137 280.54 172.28 450.26 613.46 365.35 423.52 551.46 402.83 437.60 512.31 409.16 638.86 533.66 621.96
00001669 00000138 279.02 173.01 449.26 613.10 363.99 424.37 548.88 402.13 436.03 508.87 407.60 637.33 532.60 618.96
00001670 00000139 277.65 180.39 441.89 604.46 359.78 431.21 536.00 405.80 428.76 516.28 407.95 638.51 546.22 617.42
00001671 00000140 276.95 175.70 450.39 617.12 359.62 431.15 543.52 404.63 429.27 513.84 401.22 639.84 541.06 617.20
00001672 00000141 277.05 178.36 450.97 617.95 359.61 433.11 544.24 405.97 429.20 516.40 399.33 639.73 546.48 616.37
00001673 00000142 279.61 179.72 451.25 618.31 360.42 434.11 546.35 405.56 430.93 519.18 399.49 639.20 555.30 614.23
00001674 00000143 283.28 176.65 447.86 621.61 364.64 433.34 550.87 406.06 436.71 520.29 402.48 638.44 559.50 614.66
00001675 00000144 286.97 177.16 446.54 617.29 366.72 431.83 552.80 407.28 437.25 521.60 403.65 635.73 560.24 614.34
00001676 00000145 288.50 179.16 446.89 608.29 368.64 427.56 556.24 407.24 438.14 518.00 402.82 629.97 555.81 612.23
00001677 00000146 290.91 182.04 446.62 601.04 370.13 425.95 559.12 408.82 439.62 518.58 402.94 627.62 554.69 612.66
00001678 00000147 293.94 183.05 445.33 598.86 372.17 424.68 561.14 409.29 441.78 518.83 404.25 628.61 553.06 615.45
00001679 00000148 296.79 182.29 443.25 598.62 374.53 424.85 561.66 409.05 443.83 521.20 409.81 630.25 557.75 616.75
00001680 00000149 297.79 180.84 443.58 601.17 375.24 423.19 562.94 407.43 446.37 522.80 411.78 630.77 560.23 617.48
00001681 00000150 298.45 183.52 444.01 603.22 377.12 421.89 564.86 406.20 448.26 522.58 414.27 633.35 562.33 620.42
00001682 00000151 298.32 184.81 444.98 611.65 380.10 421.26 565.27 405.46 450.00 521.21 418.09 636.95 563.99 624.18
00001683 00000152 298.42 186.80 444.74 614.40 379.29 421.31 565.05 405.28 447.94 522.74 415.15 638.34 567.09 625.14
00001684 00000153 297.73 187.26 445.08 616.07 377.98 422.02 563.28 406.12 446.01 524.23 413.53 638.87 567.05 625.56
00001685 00000154 297.14 188.12 443.90 614.03 376.70 423.15 561.72 407.77 444.63 526.57 411.48 638.60 565.88 625.60
00001686 00000155 297.82 189.34 442.75 609.36 374.93 425.99 561.79 410.69 443.94 529.61 408.65 637.95 566.77 624.81
00001687 00000156 296.80 193.51 444.18 603.50 373.42 429.24 561.53 413.69 443.16 532.19 407.48 637.39 566.86 623.83
00001688 00000157 296.56 191.82 444.50 604.56 372.53 430.75 561.62 415.38 442.50 534.39 406.27 638.22 567.53 624.75
00001689 00000158 295.78 192.99 445.23 607.19 372.19 431.64 560.13 415.85 441.22 535.54 406.96 639.80 568.67 625.93
00001690 00000159 293.20 187.87 452.00 613.90 368.67 434.96 556.87 417.02 433.48 528.52 410.02 638.33 567.61 623.23
00001691 00000160 290.35 184.33 448.46 612.44 367.21 430.20 553.37 407.74 436.30 526.16 403.83 635.86 565.50 616.01
00001692 00000161 284.80 177.72 450.79 612.15 361.19 426.91 550.30 402.09 431.20 517.11 398.17 632.70 554.39 610.91
00001693 00000162 282.74 169.19 449.03 604.70 355.20 422.35 549.27 396.72 426.17 510.93 390.91 625.51 546.92 602.92
00001694 00000163 281.22 172.69 445.40 591.84 356.14 420.85 539.87 395.97 422.06 504.73 396.85 618.11 551.47 595.59
00001695 00000164 278.91 168.96 446.70 594.50 352.85 417.46 537.67 388.28 421.08 498.71 396.83 616.21 552.29 590.65
00001696 00000165 277.59 164.72 446.50 597.74 351.70 415.11 533.90 381.86 421.30 493.01 400.90 616.98 550.46 588.67
00001697 00000166 276.90 160.84 449.58 601.18 350.22 414.86 533.53 378.41 422.26 492.83 403.52 615.79 555.84 584.64
CROP_BBOX: 0 0 1047 1040
