Video ID: 	spyMZX3_fNc
H: 	1080
W: 	1920
FPS: 	25.0

FRAME INDEX X0 Y0 W H [Landmarks (5 Points)]

00012815 00000000 856.15 131.45 502.77 740.95 936.04 396.88 1132.72 398.00 980.52 531.57 951.57 674.51 1112.72 676.62
00012816 00000001 850.08 125.02 501.55 737.03 927.73 393.13 1126.80 392.18 973.44 526.44 941.36 665.33 1111.14 665.73
00012817 00000002 854.40 127.02 497.81 733.37 933.92 394.10 1134.08 392.73 985.06 527.48 948.83 666.45 1113.54 666.75
00012818 00000003 861.90 122.80 496.50 740.66 939.47 402.31 1142.45 401.50 994.79 541.60 963.53 679.03 1122.42 679.36
00012819 00000004 868.66 113.04 489.08 761.17 948.84 411.83 1151.29 413.96 1004.93 551.48 972.63 685.69 1129.74 688.72
00012820 00000005 867.40 113.06 490.44 771.56 948.49 413.29 1149.77 414.54 1002.93 551.55 971.75 688.63 1128.30 690.93
00012821 DELETE   848.99 132.95 508.08 757.06 942.48 401.07 1144.74 399.78 998.11 537.36 960.54 680.62 1129.55 680.09
00012822 00000007 839.73 115.45 504.02 754.17 924.82 393.48 1130.30 387.15 982.86 523.45 948.73 668.50 1113.42 664.20
00012823 00000008 834.63 102.71 509.91 741.37 921.65 384.75 1119.47 378.77 970.04 507.98 943.96 654.95 1099.11 652.33
00012824 00000009 827.02 95.50 513.71 739.46 917.49 383.52 1116.81 377.49 973.08 508.43 943.40 651.31 1091.25 647.42
00012825 00000010 827.63 101.26 511.99 735.31 917.19 385.60 1116.71 381.23 972.89 513.82 943.03 653.89 1092.73 651.28
00012826 00000011 831.98 109.23 509.02 735.24 920.60 390.63 1122.79 386.07 980.90 520.44 947.27 661.06 1095.60 658.71
00012827 00000012 838.99 114.36 501.54 744.25 924.57 396.73 1131.03 391.60 989.63 529.33 951.66 674.54 1100.46 672.02
00012828 00000013 845.33 117.65 496.95 749.26 933.56 402.47 1134.38 399.06 996.23 536.00 962.37 680.64 1105.72 679.20
00012829 00000014 855.19 127.92 494.63 743.71 941.63 407.44 1141.92 405.90 1000.88 541.03 968.54 682.54 1112.50 682.61
00012830 00000015 862.27 111.74 493.88 766.21 951.15 400.05 1150.38 400.85 1007.51 540.33 974.96 683.19 1121.48 685.47
00012831 00000016 865.01 109.90 497.20 763.07 961.53 394.49 1162.92 394.29 1022.00 529.72 981.38 674.81 1131.91 676.44
00012832 00000017 872.85 103.79 497.19 762.30 968.23 391.30 1168.98 387.81 1029.69 521.69 992.96 668.39 1138.18 667.50
00012833 00000018 877.71 97.13 496.97 767.01 972.36 386.77 1174.43 385.20 1032.69 515.85 993.15 663.17 1138.97 664.16
00012834 00000019 883.02 91.32 498.02 773.62 977.52 383.57 1182.06 383.84 1039.68 513.90 999.93 664.41 1145.16 666.53
00012835 00000020 883.08 99.90 508.42 770.13 979.73 390.95 1191.39 388.63 1051.78 510.87 997.04 662.10 1166.08 663.64
00012836 00000021 881.82 109.59 517.90 757.30 991.79 390.49 1199.57 392.84 1053.95 519.81 1003.28 666.09 1162.32 669.84
00012837 00000022 886.37 117.10 518.24 755.79 999.92 391.09 1208.34 396.96 1061.79 520.39 1009.07 667.69 1167.97 674.09
00012838 00000023 892.99 121.15 514.40 759.13 1004.99 391.35 1214.09 400.87 1066.07 524.33 1011.03 668.84 1173.63 678.19
00012839 00000024 897.60 109.11 516.54 769.93 1011.40 387.36 1221.77 399.40 1073.46 522.22 1012.28 664.20 1179.51 675.91
00012840 00000025 909.83 99.32 508.36 770.39 1019.18 382.90 1227.15 394.06 1079.45 518.19 1020.26 659.57 1184.34 671.12
00012841 00000026 918.20 97.31 502.33 760.27 1025.22 379.06 1233.07 391.08 1088.31 510.56 1027.49 649.17 1190.90 661.98
00012842 00000027 924.79 89.88 500.84 762.82 1033.31 375.60 1240.37 387.70 1096.41 505.64 1036.21 644.38 1195.99 657.57
00012843 00000028 930.41 83.81 497.75 768.12 1039.17 375.18 1246.39 388.17 1103.63 505.14 1042.48 643.13 1199.81 657.24
00012844 00000029 936.07 81.51 495.42 770.48 1043.74 375.28 1253.11 388.69 1109.08 508.60 1046.78 643.29 1206.42 657.43
00012845 00000030 942.65 97.95 494.42 755.53 1048.31 377.71 1260.98 394.51 1114.82 514.46 1047.65 647.00 1209.06 663.78
00012846 00000031 947.35 100.34 492.16 756.53 1058.06 377.02 1268.57 392.68 1124.61 509.65 1058.21 651.30 1212.27 666.55
00012847 00000032 955.08 100.24 491.55 758.72 1068.28 377.64 1274.60 392.19 1135.12 507.46 1068.94 652.38 1219.02 666.69
00012848 00000033 952.32 96.21 506.08 771.88 1070.83 370.76 1283.75 392.48 1144.97 509.42 1075.11 645.59 1234.96 666.20
00012849 00000034 957.81 100.29 505.65 773.37 1077.64 371.97 1289.06 392.03 1150.96 506.85 1081.14 647.43 1240.47 666.51
00012850 00000035 962.40 103.99 508.35 770.20 1082.08 375.13 1296.49 390.99 1159.04 490.21 1076.52 643.43 1252.46 660.77
00012851 00000036 970.17 90.58 504.45 782.09 1090.92 366.17 1303.99 391.21 1163.32 501.28 1086.98 639.06 1255.94 661.69
00012852 00000037 967.49 95.35 511.58 758.69 1100.57 364.60 1307.66 392.41 1166.93 487.88 1086.46 629.25 1252.16 655.20
00012853 00000038 973.04 86.05 509.76 759.62 1103.26 363.89 1311.15 392.15 1170.27 485.31 1089.38 626.85 1252.15 653.84
00012854 00000039 978.76 85.26 509.01 759.41 1107.80 361.93 1316.69 391.39 1174.11 484.11 1092.81 624.84 1254.40 653.13
00012855 00000040 982.46 92.06 506.38 761.25 1113.63 365.58 1321.40 393.96 1180.18 490.41 1099.65 627.88 1262.61 654.96
00012856 00000041 988.00 98.84 500.74 768.31 1120.83 366.56 1329.17 398.49 1184.29 499.76 1095.42 627.23 1273.79 656.61
00012857 00000042 989.43 100.20 500.79 771.22 1125.66 366.85 1337.75 401.45 1193.78 500.05 1096.87 626.89 1281.59 658.28
00012858 00000043 993.08 97.88 498.15 769.02 1130.73 365.75 1342.56 401.38 1200.54 499.21 1103.31 625.53 1288.06 657.49
00012859 00000044 994.52 88.50 497.57 769.07 1133.55 371.22 1347.17 401.44 1209.36 491.49 1108.36 630.42 1282.68 657.93
00012860 00000045 996.14 86.46 496.22 767.67 1134.49 372.98 1347.68 401.51 1210.93 490.72 1111.04 630.59 1280.93 656.75
00012861 00000046 994.69 95.85 494.91 758.37 1134.45 373.37 1344.14 404.25 1207.76 492.18 1111.61 630.81 1279.52 658.70
00012862 00000047 990.72 92.19 497.98 767.09 1130.19 371.75 1341.11 401.89 1202.71 494.11 1109.30 633.22 1278.72 660.32
00012863 00000048 981.14 98.37 509.08 762.98 1126.30 369.69 1339.36 403.31 1202.74 495.55 1106.92 630.46 1278.44 660.99
00012864 00000049 979.45 100.65 508.20 761.20 1122.41 370.91 1334.87 403.19 1197.43 496.75 1103.48 630.34 1276.31 659.71
00012865 00000050 974.56 105.37 511.70 761.67 1118.71 372.69 1330.70 403.80 1194.61 500.17 1099.30 633.44 1273.40 661.91
00012866 00000051 973.69 100.61 511.78 767.55 1115.40 373.81 1329.26 404.44 1192.13 503.88 1097.05 638.47 1270.65 666.59
00012867 00000052 972.70 103.87 512.75 764.26 1114.67 375.71 1328.07 405.45 1190.66 505.95 1097.09 639.50 1269.54 666.88
00012868 00000053 972.51 104.13 513.14 763.77 1114.14 375.13 1326.53 404.42 1189.02 503.92 1096.44 637.27 1269.09 664.27
00012869 00000054 972.33 98.67 513.67 765.73 1115.97 372.75 1325.88 402.68 1189.48 499.76 1098.43 633.03 1268.75 660.63
00012870 00000055 981.10 86.75 501.97 770.10 1113.58 370.75 1325.70 397.23 1186.02 500.26 1098.80 633.72 1266.39 657.93
00012871 00000056 983.61 85.28 499.52 769.80 1112.97 365.10 1326.53 392.96 1184.77 494.22 1096.38 630.12 1266.69 655.46
00012872 00000057 986.26 85.34 498.96 765.11 1114.91 363.51 1329.06 389.92 1186.86 490.32 1098.59 628.05 1269.42 652.35
00012873 00000058 987.96 83.82 497.23 770.96 1118.59 362.69 1332.07 391.85 1188.76 488.86 1097.48 625.49 1273.44 652.03
00012874 00000059 990.05 89.33 496.10 766.00 1120.91 362.97 1333.99 394.06 1190.18 488.56 1098.65 624.94 1274.10 653.04
00012875 00000060 989.60 82.48 496.96 771.15 1122.10 363.98 1336.42 395.72 1192.53 490.63 1099.42 624.91 1275.71 653.61
00012876 00000061 991.75 78.12 496.57 771.81 1124.54 366.16 1337.90 396.99 1194.63 490.79 1103.54 626.94 1273.69 654.90
00012877 00000062 997.04 77.78 494.12 767.77 1126.29 368.46 1338.19 399.76 1194.73 491.60 1105.90 629.17 1268.78 657.68
00012878 00000063 1000.18 84.43 493.55 757.24 1130.20 369.52 1340.48 401.73 1197.39 493.30 1108.57 628.61 1268.28 658.06
00012879 00000064 1001.85 85.78 493.93 760.40 1133.71 369.17 1343.67 402.89 1200.32 492.37 1109.98 630.86 1270.04 661.44
00012880 00000065 1002.69 88.47 495.51 762.60 1138.90 369.11 1345.26 403.00 1204.50 491.85 1116.55 630.87 1271.28 661.66
00012881 00000066 1006.18 86.86 495.40 767.66 1139.55 368.08 1348.85 401.48 1205.83 490.14 1114.90 630.30 1275.12 660.86
00012882 00000067 1005.21 84.10 499.23 765.04 1140.60 367.94 1352.14 402.73 1208.97 490.26 1114.60 628.44 1275.69 660.23
00012883 00000068 1005.49 87.30 500.93 759.85 1143.42 368.36 1354.69 403.83 1212.29 490.79 1117.53 627.64 1277.15 659.96
00012884 00000069 1006.36 93.97 500.58 754.17 1143.86 369.76 1355.42 404.75 1212.26 491.74 1117.96 629.15 1279.66 660.98
00012885 00000070 1007.68 92.12 499.80 754.52 1142.15 371.09 1355.26 404.86 1210.88 493.50 1117.07 631.05 1278.20 662.02
00012886 00000071 1005.52 99.72 501.34 747.85 1139.26 372.31 1353.27 405.77 1207.14 493.57 1113.61 631.72 1277.27 662.26
00012887 00000072 1005.26 101.65 500.13 745.71 1136.42 373.93 1349.87 406.36 1204.64 496.11 1111.75 633.71 1273.72 663.63
00012888 00000073 1000.89 93.41 505.66 753.79 1136.94 377.84 1350.31 410.58 1205.34 497.15 1111.90 635.74 1272.07 665.70
00012889 00000074 998.53 100.47 505.70 752.05 1133.42 379.79 1346.75 411.40 1204.27 504.39 1110.82 640.97 1273.06 669.88
00012890 00000075 1000.36 100.75 502.69 756.84 1130.80 381.25 1343.66 412.72 1198.92 509.53 1108.80 643.88 1272.41 672.73
00012891 00000076 1000.03 101.12 500.14 758.79 1128.69 384.25 1341.99 415.35 1195.61 510.61 1106.86 646.88 1270.00 675.43
00012892 00000077 993.40 111.60 511.01 749.05 1126.62 381.46 1340.15 417.56 1197.41 511.30 1104.81 641.45 1272.62 674.47
00012893 00000078 989.43 109.15 511.13 751.52 1123.67 378.82 1337.62 415.13 1193.71 509.28 1100.24 638.69 1270.82 672.01
00012894 00000079 993.39 97.86 501.96 751.59 1119.42 379.46 1333.19 411.37 1185.24 508.22 1099.41 640.85 1258.68 670.15
00012895 00000080 993.26 99.46 498.82 750.08 1117.09 377.14 1330.79 406.25 1183.59 506.94 1101.49 642.49 1255.24 669.55
00012896 00000081 994.33 104.75 494.31 741.73 1119.32 371.11 1329.43 403.04 1183.74 500.52 1102.01 636.56 1250.80 666.10
00012897 00000082 996.64 96.53 494.91 747.27 1122.36 367.93 1334.03 401.42 1187.75 495.07 1102.64 632.05 1254.99 662.85
00012898 00000083 999.42 90.10 496.26 756.29 1130.17 365.24 1339.97 399.74 1195.07 490.45 1109.09 630.64 1262.31 661.99
00012899 00000084 1002.71 92.10 498.22 758.36 1137.87 366.35 1347.93 399.93 1205.33 489.65 1116.12 631.76 1268.27 662.46
00012900 00000085 1000.19 100.98 501.48 760.41 1137.78 364.77 1350.92 399.95 1210.13 496.34 1113.47 629.98 1280.24 662.33
00012901 00000086 999.39 102.06 505.04 767.77 1135.57 365.44 1349.76 401.55 1206.01 501.02 1107.99 630.88 1282.44 663.69
00012902 00000087 998.49 101.04 504.70 767.11 1134.73 365.07 1349.53 402.77 1204.76 500.24 1105.76 628.27 1283.40 662.36
00012903 00000088 998.74 92.70 501.93 763.60 1136.75 365.40 1350.46 402.42 1206.19 493.74 1108.22 626.62 1281.87 659.88
00012904 00000089 993.85 88.69 506.08 764.42 1134.36 359.42 1348.68 396.88 1206.71 487.74 1108.81 619.28 1282.43 653.33
00012905 00000090 995.85 84.34 499.24 763.76 1128.72 361.63 1340.96 393.54 1196.99 485.47 1108.20 625.45 1269.79 654.43
00012906 00000091 995.03 87.83 493.80 751.58 1123.36 364.80 1333.89 395.50 1190.93 488.18 1105.86 626.43 1261.05 654.64
00012907 00000092 996.01 91.78 492.18 745.49 1122.35 367.65 1332.01 396.66 1189.40 490.18 1107.00 629.27 1257.10 656.18
00012908 00000093 996.06 91.25 492.83 749.39 1123.47 369.67 1332.54 398.59 1190.03 490.87 1107.84 631.30 1257.33 658.11
00012909 00000094 996.73 86.32 493.75 752.95 1123.08 369.65 1334.43 400.89 1189.74 491.24 1103.66 629.74 1258.36 658.53
00012910 00000095 996.59 81.62 495.61 762.82 1126.71 369.10 1337.40 401.62 1193.18 492.43 1106.23 630.93 1259.84 660.77
00012911 00000096 998.64 83.41 494.38 763.42 1128.35 369.19 1340.12 400.17 1196.15 493.28 1110.76 636.17 1261.46 664.58
00012912 00000097 996.70 83.99 497.16 766.85 1127.89 369.72 1340.96 401.37 1196.38 493.90 1109.13 637.97 1261.62 666.92
00012913 00000098 995.45 87.40 497.34 765.48 1128.21 369.79 1339.36 401.84 1195.71 493.47 1107.61 635.22 1264.18 664.53
00012914 00000099 992.20 91.05 500.06 763.28 1126.76 368.97 1340.71 402.50 1195.88 494.39 1102.22 632.46 1270.29 662.91
00012915 00000100 993.62 89.86 500.75 765.31 1128.42 368.89 1341.66 403.11 1196.18 495.15 1103.27 632.62 1270.28 663.73
00012916 00000101 997.61 89.24 499.67 761.30 1132.64 369.92 1345.63 405.14 1201.28 496.26 1107.65 632.74 1270.07 664.72
00012917 00000102 1002.79 85.85 501.79 760.68 1138.43 371.11 1351.44 405.12 1206.94 497.11 1116.56 632.73 1271.47 663.88
00012918 00000103 1004.76 91.20 504.92 749.97 1143.10 372.21 1354.14 405.67 1212.48 500.00 1124.08 632.37 1272.17 663.08
00012919 00000104 1007.49 89.66 503.15 751.80 1146.49 373.63 1356.24 406.24 1216.09 502.42 1129.64 635.90 1273.39 665.71
00012920 00000105 1007.50 95.31 504.07 749.14 1146.55 374.31 1357.53 406.67 1216.46 505.33 1130.14 640.51 1272.59 670.22
00012921 00000106 1006.73 100.35 502.96 746.63 1146.98 375.14 1355.79 407.05 1215.50 504.11 1130.71 640.25 1269.93 669.64
00012922 00000107 1004.30 101.21 503.99 748.45 1144.54 376.29 1352.31 406.17 1212.96 502.57 1131.70 641.44 1267.03 669.16
00012923 00000108 1002.73 101.18 503.28 756.37 1139.93 374.59 1349.44 404.81 1206.97 499.91 1123.67 642.58 1265.65 670.65
00012924 00000109 1000.53 98.15 504.34 761.53 1137.41 372.42 1348.99 404.50 1205.08 498.20 1117.04 640.52 1267.49 670.09
00012925 00000110 1001.56 91.16 496.58 757.51 1134.91 370.60 1348.10 405.59 1204.94 498.61 1111.72 636.59 1268.37 668.48
00012926 00000111 1001.25 89.87 494.97 746.55 1133.71 368.74 1345.77 404.06 1204.74 496.26 1111.44 632.31 1265.12 664.53
00012927 00000112 1001.10 87.28 496.25 753.17 1134.04 367.94 1346.26 404.15 1203.78 493.35 1109.51 630.99 1264.36 664.09
00012928 00000113 999.85 85.04 499.19 762.23 1136.84 368.77 1348.59 403.11 1206.85 491.37 1113.52 632.01 1268.61 663.40
00012929 00000114 999.92 86.89 499.40 769.48 1139.33 367.51 1348.65 402.28 1207.31 489.39 1114.36 631.72 1269.61 663.51
00012930 00000115 1000.15 86.16 499.56 772.13 1138.49 367.06 1350.48 402.06 1208.04 490.20 1111.64 631.24 1274.22 663.23
00012931 00000116 1000.32 87.28 499.58 769.92 1139.80 367.20 1351.71 402.51 1209.20 490.84 1112.19 630.43 1276.77 662.46
00012932 00000117 1001.63 88.36 499.16 759.91 1140.64 368.08 1352.80 404.54 1210.97 492.55 1113.47 630.58 1271.87 663.80
00012933 00000118 1002.45 87.74 498.44 758.34 1140.85 368.08 1352.86 404.49 1211.05 491.94 1113.85 630.42 1270.58 663.65
00012934 00000119 1002.63 89.32 498.39 760.83 1143.56 367.80 1352.19 403.80 1212.46 489.67 1117.05 628.77 1271.49 661.64
00012935 00000120 1003.01 87.86 498.63 760.95 1142.92 368.10 1352.67 403.39 1212.62 489.69 1116.75 629.48 1271.21 661.73
00012936 00000121 1003.52 89.26 498.42 760.77 1143.42 366.53 1353.38 401.59 1213.76 490.29 1117.90 630.03 1273.71 662.09
00012937 00000122 1003.24 85.43 498.24 765.81 1142.81 365.52 1355.07 400.66 1214.29 489.81 1116.49 629.29 1278.53 661.33
00012938 00000123 1003.29 84.31 499.69 768.35 1143.52 365.62 1356.53 401.83 1215.03 490.16 1116.11 628.17 1281.42 661.05
00012939 00000124 1003.15 83.44 502.55 762.83 1146.54 366.50 1358.46 402.58 1218.93 492.20 1121.94 629.12 1278.64 661.92
00012940 00000125 1004.24 85.36 503.50 753.92 1146.93 366.53 1359.02 402.31 1219.23 493.61 1124.47 628.40 1277.52 660.93
00012941 00000126 1006.96 86.32 499.73 753.26 1149.63 366.52 1357.26 401.74 1219.77 491.84 1128.05 627.98 1273.17 660.24
00012942 00000127 1005.67 92.31 501.77 753.14 1150.98 365.08 1356.73 399.27 1219.06 489.76 1130.55 631.06 1270.95 662.41
00012943 00000128 1005.69 97.80 500.26 751.88 1149.18 364.58 1356.04 398.19 1218.43 490.08 1128.62 631.86 1273.61 662.68
00012944 00000129 1008.04 88.15 499.34 759.55 1149.14 367.65 1356.73 400.93 1217.36 488.12 1126.63 628.87 1280.64 659.27
00012945 00000130 1010.92 91.29 494.33 750.01 1153.13 369.35 1357.24 402.81 1223.37 488.20 1129.63 624.77 1283.03 655.39
00012946 00000131 1011.53 89.14 493.66 750.71 1153.97 369.52 1357.20 401.78 1224.07 487.23 1130.55 623.73 1285.06 653.34
00012947 00000132 1011.40 90.60 493.74 749.80 1152.56 367.40 1357.17 400.69 1222.46 489.03 1130.05 624.27 1285.80 654.59
00012948 00000133 1008.72 87.49 497.70 757.48 1149.40 365.82 1358.45 400.73 1222.17 492.58 1126.37 627.96 1285.07 659.68
00012949 00000134 1009.23 88.52 498.26 745.37 1149.14 365.59 1358.90 400.18 1221.73 492.35 1128.90 627.35 1278.30 658.86
00012950 00000135 1008.44 91.13 499.07 744.65 1148.60 364.84 1359.12 400.94 1220.95 493.05 1126.52 627.51 1276.09 660.40
00012951 00000136 1009.43 90.97 498.11 751.70 1150.95 365.72 1357.75 400.31 1220.66 491.22 1129.88 629.29 1273.20 661.14
00012952 00000137 1010.77 96.84 496.62 752.96 1153.56 366.16 1356.56 397.82 1221.56 489.55 1136.31 633.21 1272.41 662.54
00012953 00000138 1011.02 95.95 497.08 755.36 1153.90 367.13 1357.90 397.71 1223.01 490.26 1137.06 635.84 1274.18 664.27
00012954 00000139 1010.24 98.83 497.34 751.99 1153.76 367.16 1358.67 398.50 1223.74 490.92 1135.88 635.49 1275.69 664.44
00012955 00000140 1012.58 96.39 496.98 750.49 1154.56 367.63 1358.35 398.08 1223.99 491.04 1139.09 633.23 1277.21 661.42
00012956 00000141 1009.87 97.92 499.31 750.24 1152.20 366.66 1357.18 398.76 1220.38 490.20 1133.48 630.48 1277.79 660.05
00012957 00000142 1009.76 97.49 497.73 750.77 1151.95 365.69 1356.99 398.91 1220.10 489.62 1132.21 628.83 1280.72 659.16
00012958 00000143 1008.55 95.39 497.17 761.00 1151.09 366.85 1358.47 401.57 1220.98 491.67 1126.33 629.77 1289.33 661.18
00012959 00000144 1007.57 91.59 499.43 764.82 1147.78 366.89 1360.60 403.95 1220.56 494.83 1119.82 629.20 1293.79 662.44
00012960 00000145 1006.05 89.61 499.79 765.24 1147.07 366.91 1360.81 404.14 1220.40 494.93 1119.32 628.44 1294.34 661.76
00012961 00000146 1005.57 88.18 498.92 760.44 1145.75 365.72 1358.45 403.11 1217.82 491.57 1118.38 624.24 1288.94 657.78
00012962 00000147 1007.24 89.78 498.30 754.08 1146.07 365.47 1357.12 401.93 1216.22 490.15 1120.91 623.13 1286.32 655.92
00012963 00000148 1007.48 88.62 498.46 751.98 1145.91 364.55 1356.56 401.44 1214.79 488.82 1120.50 620.67 1285.34 653.73
00012964 00000149 1006.19 85.16 498.88 754.34 1144.21 364.03 1355.77 400.35 1212.86 487.35 1119.07 620.46 1284.61 652.95
00012965 00000150 1006.84 81.33 496.95 759.05 1143.25 364.78 1354.35 399.03 1212.16 487.39 1119.15 622.14 1283.65 653.06
00012966 00000151 1007.08 88.97 495.23 750.41 1144.44 367.72 1351.67 400.66 1213.29 486.52 1120.29 621.64 1280.39 651.59
00012967 00000152 1005.21 84.72 494.82 754.28 1142.87 365.62 1352.80 399.63 1214.61 485.96 1118.26 620.90 1280.68 651.69
00012968 00000153 1006.36 81.02 495.69 757.85 1142.00 364.03 1352.37 398.37 1211.80 486.33 1117.59 620.80 1279.25 652.09
00012969 00000154 1005.58 79.52 496.13 760.74 1140.14 362.62 1351.85 397.75 1209.44 485.92 1116.25 621.60 1278.51 653.44
00012970 00000155 1006.44 78.37 494.20 763.17 1140.62 360.04 1351.90 394.74 1210.49 487.01 1117.94 622.47 1278.78 654.03
00012971 00000156 1006.07 79.26 495.09 760.30 1140.01 359.34 1352.85 394.16 1210.29 486.13 1117.49 621.52 1279.42 653.11
00012972 00000157 1006.10 82.82 494.60 756.54 1139.95 358.24 1352.73 393.19 1210.81 485.00 1116.82 620.31 1279.78 652.06
00012973 00000158 1005.76 83.39 495.61 757.32 1140.36 358.40 1353.12 393.12 1211.18 485.25 1117.30 620.69 1280.17 652.26
00012974 00000159 1006.84 85.67 496.12 757.56 1142.24 359.85 1354.03 394.38 1212.39 485.75 1119.01 621.14 1280.95 652.56
00012975 00000160 1006.66 87.75 498.61 756.14 1145.18 360.73 1356.93 396.69 1215.56 488.86 1121.51 622.04 1283.12 654.64
00012976 00000161 1006.60 91.05 499.84 752.52 1146.10 361.55 1357.50 398.91 1215.61 489.11 1121.16 621.73 1283.25 655.33
00012977 00000162 1007.71 90.87 499.05 753.34 1148.38 364.58 1358.40 400.54 1219.53 490.17 1123.93 623.98 1286.15 656.37
00012978 00000163 1010.06 95.45 498.24 749.70 1151.55 367.38 1360.35 402.98 1223.09 492.39 1127.01 625.96 1290.38 658.06
00012979 00000164 1010.27 96.97 502.60 750.19 1154.52 367.74 1363.11 403.05 1225.86 493.35 1130.46 627.30 1291.92 659.17
