Video ID: 	OVo8Yd_tdPs
H: 	1080
W: 	1920
FPS: 	29.97002997002997

FRAME INDEX X0 Y0 W H [Landmarks (5 Points)]

00095532 00000000 873.77 78.85 411.16 568.87 970.94 317.56 1154.11 315.15 1054.47 399.62 990.58 512.14 1142.66 508.91
00095533 00000001 873.84 79.11 412.28 566.17 970.02 315.84 1152.51 313.36 1051.91 396.34 989.99 509.92 1139.24 506.50
00095534 00000002 873.80 79.12 412.56 565.96 969.90 316.07 1152.75 313.40 1051.86 396.42 990.21 510.34 1139.44 506.72
00095535 00000003 872.71 84.17 413.82 570.78 971.30 321.34 1152.39 320.78 1054.80 410.58 992.35 520.39 1139.16 518.64
00095536 00000004 869.37 95.83 416.09 571.41 971.75 333.35 1150.38 339.46 1050.57 426.63 987.58 532.30 1130.57 537.00
00095537 00000005 867.08 115.43 415.86 564.80 966.89 349.87 1147.68 356.92 1039.97 451.83 983.09 548.20 1126.56 554.19
00095538 00000006 864.68 122.24 417.70 579.85 951.39 368.11 1141.03 375.24 1027.76 479.61 962.50 574.40 1115.19 579.74
00095539 00000007 856.19 134.00 422.69 584.80 945.62 380.00 1128.52 392.25 1015.73 494.50 952.02 585.86 1096.10 595.14
00095540 00000008 856.09 134.27 422.49 584.60 945.52 379.84 1128.54 392.04 1015.87 494.61 952.45 586.02 1096.18 595.27
00095541 00000009 854.26 146.33 409.30 578.38 934.69 385.66 1106.53 406.74 985.28 503.22 931.44 584.61 1068.62 603.13
00095542 DELETE   826.54 143.78 418.10 589.58 896.22 383.68 1074.88 406.35 938.57 509.54 894.94 596.35 1026.43 616.18
00095543 00000011 811.21 154.76 403.90 576.18 855.94 380.24 1021.41 410.89 875.29 511.71 855.70 595.29 971.71 619.42
00095544 DELETE   791.81 143.65 393.38 588.11 824.88 378.92 978.32 407.81 840.30 514.97 819.69 595.05 931.24 620.62
00095545 00000013 778.48 141.41 387.62 587.19 809.15 381.48 954.11 408.96 817.43 505.66 803.59 594.22 908.98 617.62
00095546 00000014 778.53 142.08 387.78 586.56 809.09 381.50 954.00 409.10 817.19 505.33 803.44 593.97 908.69 617.48
00095547 00000015 770.49 140.12 388.71 589.25 801.31 382.84 946.30 409.99 805.37 505.74 797.29 593.89 902.91 616.40
00095548 00000016 765.01 132.91 387.77 597.83 789.36 377.78 944.71 411.24 790.77 508.25 792.54 591.26 910.15 620.90
00095549 00000017 758.85 137.11 397.62 594.23 790.86 375.66 948.75 403.18 794.64 505.12 796.98 595.26 909.38 619.32
00095550 00000018 756.18 139.74 398.11 598.30 790.68 376.21 944.06 405.46 791.03 505.80 797.46 595.41 907.92 620.14
00095551 00000019 756.35 148.51 397.32 590.10 790.96 380.24 943.22 411.44 790.44 509.35 797.92 597.99 906.94 624.10
00095552 00000020 756.47 148.97 397.14 589.38 790.75 380.29 943.09 411.48 790.40 509.65 798.08 598.09 907.05 624.24
00095553 00000021 760.41 155.52 393.90 581.25 796.25 389.01 941.08 418.74 794.99 513.32 792.84 594.92 902.10 619.03
00095554 00000022 761.93 155.99 394.15 581.64 797.88 389.68 942.62 419.42 797.30 515.28 795.59 595.35 905.59 619.45
00095555 00000023 764.03 154.48 392.76 584.26 798.88 388.44 943.19 415.69 799.00 512.22 797.63 596.55 906.48 618.55
00095556 00000024 763.70 142.95 392.80 590.36 797.24 386.71 945.53 409.72 801.55 504.33 795.11 595.34 904.99 614.34
00095557 00000025 764.55 130.93 387.06 591.44 790.21 374.37 947.95 400.11 794.38 489.88 789.37 584.62 907.07 608.74
00095558 00000026 767.09 121.42 382.21 583.48 801.61 362.86 935.78 389.51 806.50 473.34 799.08 565.61 894.85 585.92
00095559 00000027 767.05 121.58 382.12 583.64 801.59 363.09 935.71 389.62 806.68 473.47 799.12 565.75 894.85 585.98
00095560 00000028 756.92 112.71 392.98 584.68 790.85 355.57 938.95 381.35 797.09 465.38 789.34 563.68 890.96 584.79
00095561 00000029 757.50 104.44 390.95 589.37 792.66 351.11 937.05 374.25 798.86 460.81 792.22 560.29 890.16 579.64
00095562 00000030 760.34 102.83 392.62 588.67 793.70 350.58 937.75 373.42 800.14 461.84 794.86 558.71 894.59 577.76
00095563 00000031 764.02 108.30 391.45 588.29 794.75 353.40 938.52 376.51 802.56 468.28 798.15 564.01 897.34 583.13
00095564 00000032 769.69 118.86 389.39 583.41 808.48 363.69 945.42 382.91 816.92 469.71 810.76 564.71 910.72 578.89
00095565 00000033 769.83 118.29 389.06 583.88 808.36 363.83 945.21 383.25 816.92 469.68 810.57 564.71 910.44 579.05
00095566 00000034 771.25 124.77 389.70 586.50 811.90 371.22 945.71 391.82 817.89 476.53 811.39 572.13 910.53 587.45
00095567 00000035 770.96 129.76 393.77 593.80 806.58 379.22 955.87 396.89 815.08 491.40 802.26 587.49 908.90 603.15
00095568 00000036 773.63 133.62 395.70 596.26 808.02 381.64 957.22 397.33 817.25 492.11 805.46 591.70 911.85 605.90
00095569 00000037 777.35 133.70 395.04 601.70 811.94 380.50 961.23 396.04 821.56 491.91 810.05 594.34 916.35 608.57
00095570 00000038 781.67 131.96 397.30 598.55 815.87 379.84 971.13 398.00 831.11 497.46 813.34 591.73 927.19 608.38
00095571 00000039 781.68 132.10 397.35 598.62 815.93 379.86 971.16 398.04 831.05 497.34 813.18 591.79 927.16 608.47
00095572 00000040 792.85 135.84 393.18 591.12 831.93 378.68 988.54 401.34 853.85 503.02 824.75 587.30 943.21 608.22
00095573 00000041 802.90 143.77 399.77 582.13 853.00 382.84 1014.21 411.06 870.10 496.17 848.04 586.14 964.95 608.83
00095574 DELETE   806.13 147.73 404.97 586.86 859.75 388.12 1022.83 410.60 883.45 501.79 860.46 594.44 975.73 612.44
00095575 00000043 805.83 144.83 412.69 594.89 867.54 395.17 1030.12 404.75 896.54 502.97 873.93 599.84 994.64 607.72
00095576 00000044 810.91 146.14 413.55 591.09 867.40 389.38 1036.18 400.37 906.33 503.37 879.09 598.01 1001.86 607.24
00095577 00000045 810.91 145.77 413.49 591.75 867.38 389.29 1036.11 400.37 906.21 503.62 879.15 598.07 1001.86 607.38
00095578 00000046 813.45 140.84 414.77 595.82 871.48 388.12 1041.49 397.17 915.19 505.58 887.18 596.61 1013.52 604.28
00095579 00000047 815.83 138.89 418.96 597.99 875.23 388.19 1045.34 392.89 923.25 508.65 896.72 598.55 1023.06 602.81
00095580 00000048 819.62 142.94 412.89 588.52 887.61 395.41 1050.57 398.46 938.96 503.58 910.71 592.11 1036.05 595.32
00095581 00000049 819.82 149.68 415.23 582.39 893.02 404.27 1057.13 402.90 948.72 508.58 921.04 595.17 1046.95 594.83
00095582 00000050 816.34 155.11 416.27 579.60 891.69 410.27 1057.22 406.40 951.83 516.59 925.20 601.39 1049.30 598.93
00095583 00000051 816.43 154.62 415.66 579.97 891.71 409.98 1057.22 406.40 951.98 516.60 925.26 601.21 1049.40 598.98
00095584 00000052 805.51 151.28 425.94 587.14 874.23 411.33 1047.87 398.75 944.14 520.36 920.18 610.83 1050.42 599.36
00095585 00000053 797.99 150.24 428.62 592.06 864.44 407.85 1036.54 396.93 930.31 521.25 907.67 609.62 1038.76 600.06
00095586 00000054 799.19 155.70 418.05 586.66 865.43 402.22 1028.06 397.72 919.08 516.00 899.65 600.92 1027.30 597.10
00095587 00000055 800.71 154.10 414.49 586.85 866.43 399.23 1028.01 397.99 917.99 512.73 897.43 595.84 1025.08 594.47
00095588 00000056 804.94 145.32 421.34 600.04 869.18 396.10 1041.27 393.59 923.21 514.88 895.72 602.43 1030.61 600.65
00095589 00000057 803.99 152.67 413.69 588.50 868.33 397.16 1037.19 396.38 926.02 519.62 893.97 603.04 1025.63 602.53
00095590 00000058 809.63 149.82 417.09 595.56 877.15 402.96 1047.20 403.46 932.48 516.50 901.55 603.08 1034.84 602.84
00095591 00000059 815.47 155.04 413.97 593.39 882.27 405.56 1052.28 407.05 936.44 517.24 903.36 605.37 1036.71 606.27
00095592 00000060 817.16 154.83 413.58 594.68 883.19 404.74 1053.45 408.90 934.43 516.91 901.69 604.16 1036.36 607.37
00095593 00000061 817.07 154.09 414.79 593.50 882.63 402.70 1052.06 408.43 931.26 516.26 898.69 601.57 1033.23 606.12
00095594 00000062 818.96 152.62 413.83 592.74 884.51 399.99 1052.64 407.97 930.90 515.83 898.82 599.50 1031.33 605.94
00095595 00000063 819.09 152.74 413.39 592.79 884.57 400.26 1052.71 408.20 930.91 516.00 899.01 599.65 1031.56 606.03
00095596 00000064 821.91 155.78 412.36 590.82 885.60 401.51 1054.82 411.08 933.02 521.16 900.73 603.71 1031.52 611.65
00095597 00000065 824.48 157.98 409.68 589.67 886.82 404.41 1055.57 416.77 933.53 526.86 900.98 607.45 1029.91 617.73
00095598 00000066 824.78 159.61 410.63 588.36 885.01 406.17 1053.49 417.96 931.12 529.69 899.77 611.13 1026.77 621.06
00095599 00000067 824.11 157.08 410.11 590.29 883.43 404.22 1051.21 417.04 926.55 527.12 896.20 609.30 1023.70 619.93
00095600 00000068 823.56 157.87 410.79 589.03 883.22 404.51 1050.34 416.75 926.49 526.75 896.62 609.25 1022.98 619.34
00095601 00000069 823.62 158.21 410.82 588.80 883.39 404.63 1050.48 416.62 926.31 526.04 896.78 609.26 1023.46 619.13
00095602 00000070 825.37 158.39 410.23 590.06 884.30 406.50 1052.77 417.49 929.69 529.33 900.06 612.57 1027.68 621.68
00095603 00000071 827.35 160.42 410.39 590.22 886.03 409.05 1056.29 419.67 933.70 535.47 903.06 617.57 1032.04 626.72
00095604 00000072 830.53 161.38 410.29 591.11 888.33 410.48 1060.07 421.84 937.46 540.37 906.92 620.69 1038.03 630.52
00095605 00000073 832.40 162.49 408.43 590.34 891.10 412.59 1063.59 424.72 941.36 541.43 908.73 621.70 1040.14 632.15
00095606 00000074 835.34 161.60 406.72 590.24 895.84 413.48 1070.94 426.70 950.17 542.21 913.95 620.49 1047.02 631.76
00095607 00000075 835.38 161.47 406.78 590.08 895.75 413.31 1071.00 426.54 950.16 542.28 913.92 620.46 1047.09 631.74
00095608 00000076 838.56 168.36 407.51 582.75 913.18 418.45 1086.77 434.04 969.70 541.19 927.32 618.87 1064.52 630.52
00095609 00000077 841.49 168.77 408.51 585.33 924.99 421.90 1099.53 437.43 986.42 545.21 936.21 621.64 1077.65 633.50
00095610 00000078 844.14 167.33 413.76 589.67 934.42 425.02 1110.43 439.45 1001.28 548.82 947.29 623.96 1089.77 635.04
00095611 00000079 850.00 168.14 419.82 586.98 948.98 429.80 1131.35 437.79 1029.06 552.82 970.46 627.18 1118.47 632.58
00095612 00000080 862.79 168.12 414.52 586.17 978.53 435.46 1159.71 432.36 1073.83 557.85 1004.17 629.57 1155.67 626.70
00095613 00000081 862.81 167.96 414.42 585.95 978.62 435.45 1159.61 432.44 1073.93 557.66 1004.34 629.25 1155.63 626.44
00095614 00000082 876.74 162.99 416.12 592.59 1005.52 431.24 1188.55 422.57 1115.08 552.34 1036.92 629.89 1189.77 623.25
00095615 00000083 888.54 160.09 410.68 600.70 1022.28 428.35 1199.81 419.12 1136.20 545.45 1054.45 626.38 1205.11 619.09
00095616 00000084 892.86 160.41 407.26 601.89 1036.65 426.53 1207.38 413.16 1154.84 543.61 1068.21 627.22 1213.29 616.65
00095617 00000085 895.30 168.77 404.25 598.55 1042.60 436.89 1211.87 419.72 1162.65 554.07 1072.90 633.18 1219.12 619.48
00095618 00000086 896.98 177.75 402.78 594.24 1047.37 450.09 1217.94 431.48 1168.02 567.16 1074.61 641.22 1222.07 626.44
00095619 00000087 896.98 177.81 402.94 594.15 1047.28 449.95 1217.99 431.30 1167.99 566.86 1074.58 641.17 1222.06 626.37
00095620 00000088 897.49 184.54 403.50 587.76 1046.63 458.52 1221.53 438.08 1169.25 572.50 1074.96 645.89 1224.35 629.79
00095621 00000089 899.46 183.31 404.08 592.02 1047.37 461.57 1225.34 443.32 1169.36 575.66 1074.79 650.76 1224.26 636.52
00095622 00000090 901.71 186.24 404.84 591.84 1052.64 461.25 1230.29 445.58 1172.47 578.25 1078.79 653.72 1225.66 641.42
00095623 00000091 904.43 188.97 405.12 592.49 1059.20 463.61 1236.13 449.32 1178.12 582.10 1083.77 657.04 1228.35 645.68
00095624 00000092 906.98 190.66 403.59 594.83 1067.31 464.45 1240.36 451.50 1185.88 579.41 1088.24 657.31 1230.13 646.63
00095625 00000093 906.85 190.81 403.91 594.89 1067.42 464.37 1240.59 451.46 1186.08 579.66 1088.42 657.53 1230.17 646.88
00095626 00000094 908.50 190.95 403.26 597.71 1071.13 464.69 1242.94 451.79 1190.11 579.39 1091.24 658.48 1232.23 647.57
00095627 00000095 909.70 192.13 403.88 600.43 1073.96 465.06 1244.86 452.14 1194.35 578.50 1095.00 660.64 1234.62 649.64
00095628 00000096 911.62 194.79 405.49 602.75 1077.09 465.82 1247.69 454.42 1197.08 582.17 1096.60 663.14 1236.21 653.27
00095629 00000097 913.85 193.76 405.76 608.17 1078.84 468.43 1249.63 458.84 1197.39 588.55 1094.56 665.78 1235.42 657.21
00095630 00000098 916.27 196.14 406.21 611.00 1080.37 472.61 1248.77 463.43 1196.54 596.63 1093.62 669.46 1233.37 661.20
00095631 00000099 916.11 197.18 406.32 609.80 1080.33 472.57 1249.00 463.10 1196.80 596.57 1093.62 669.49 1233.42 661.05
00095632 00000100 919.84 202.70 405.53 605.26 1080.96 478.52 1249.73 470.25 1194.79 603.07 1089.75 671.54 1232.23 664.16
00095633 00000101 923.27 209.19 404.52 598.26 1082.21 482.85 1252.13 476.06 1193.87 607.78 1087.50 674.66 1230.17 668.76
00095634 00000102 929.81 209.97 403.18 599.99 1091.14 482.49 1260.69 474.12 1203.21 609.88 1095.15 677.07 1237.78 669.96
00095635 00000103 936.29 197.79 394.96 598.72 1107.19 471.66 1266.98 459.21 1222.19 590.63 1116.35 666.62 1248.98 655.95
00095636 00000104 939.13 176.12 393.13 593.80 1114.84 449.02 1282.20 425.65 1244.17 568.91 1129.14 646.51 1268.49 628.20
00095637 00000105 939.04 176.33 393.09 593.20 1114.78 449.14 1282.35 425.35 1244.38 568.77 1128.90 646.46 1268.32 627.87
00095638 00000106 934.46 151.57 392.30 600.05 1110.37 424.61 1278.46 402.62 1245.21 538.76 1136.39 629.39 1270.83 611.36
00095639 00000107 923.13 134.70 393.95 605.33 1104.45 405.30 1264.49 385.72 1239.05 512.61 1127.83 606.46 1259.39 590.62
00095640 00000108 915.30 121.35 396.82 604.36 1098.30 391.79 1256.62 371.77 1236.73 496.19 1120.99 589.65 1254.63 573.49
00095641 00000109 909.58 116.01 394.22 604.12 1093.30 390.46 1245.67 361.79 1232.73 490.64 1120.15 585.68 1248.34 562.77
00095642 00000110 902.28 124.61 383.14 594.04 1083.75 408.13 1235.37 367.15 1221.10 496.99 1117.64 591.69 1246.77 557.93
00095643 00000111 901.74 124.15 383.69 594.56 1083.22 408.06 1235.36 366.99 1220.95 496.90 1117.18 591.65 1246.62 557.84
00095644 00000112 892.99 125.35 381.04 592.92 1072.66 407.21 1228.48 364.26 1214.02 495.39 1109.01 588.47 1242.18 553.43
00095645 00000113 882.57 122.30 388.89 596.45 1069.80 402.66 1224.87 362.82 1218.64 496.15 1089.62 595.16 1226.76 565.03
00095646 00000114 876.58 129.45 392.99 595.13 1060.73 404.64 1219.72 368.63 1209.52 503.09 1081.88 599.80 1221.13 572.00
00095647 DELETE   865.55 128.23 393.78 599.99 1038.99 406.00 1203.95 380.59 1176.23 512.56 1065.31 602.88 1205.60 582.16
00095648 00000116 844.85 125.74 400.92 612.88 998.63 410.65 1170.61 387.02 1120.13 524.73 1024.91 601.95 1175.24 580.35
00095649 DELETE   844.83 126.30 401.02 612.45 998.44 410.70 1170.38 386.96 1120.00 524.70 1024.73 601.97 1175.17 580.31
00095650 DELETE   824.15 128.33 414.68 594.02 945.67 403.30 1130.79 394.89 1050.47 521.09 970.90 581.90 1133.84 574.96
00095651 DELETE   801.48 128.04 410.51 605.16 911.09 396.10 1088.72 392.74 1000.74 514.91 926.40 584.13 1086.85 580.09
00095652 00000120 798.00 127.02 405.92 606.29 897.89 389.73 1071.34 395.41 975.39 509.44 909.96 579.14 1067.32 582.61
00095653 00000121 799.85 128.88 406.08 611.01 900.18 392.56 1074.20 399.29 978.39 517.78 911.52 584.57 1069.48 588.74
00095654 00000122 808.30 131.82 404.55 611.87 909.21 403.63 1090.27 408.06 996.34 525.04 922.60 588.08 1082.83 592.56
00095655 00000123 808.16 131.76 404.77 612.12 909.20 403.45 1090.37 407.90 996.35 525.14 922.70 587.96 1083.06 592.44
00095656 00000124 813.17 139.76 404.62 601.98 915.12 410.81 1094.26 412.92 1002.72 525.99 933.17 591.07 1087.81 593.39
00095657 00000125 812.99 132.25 403.00 603.05 908.14 399.46 1087.31 404.44 990.94 519.77 924.72 587.37 1076.09 592.55
00095658 00000126 810.66 123.87 405.42 603.03 895.44 391.21 1072.27 397.14 970.61 504.75 914.30 584.00 1059.31 589.68
00095659 00000127 814.88 111.37 406.55 602.67 897.37 376.62 1074.57 382.50 969.19 490.80 914.54 570.52 1062.78 575.56
00095660 00000128 822.26 107.28 408.21 595.48 907.07 365.36 1085.13 372.31 981.20 482.96 926.27 563.13 1073.03 569.23
00095661 00000129 822.07 106.65 408.17 596.09 907.11 365.38 1085.33 372.45 981.28 482.81 926.18 563.10 1072.91 569.32
00095662 00000130 829.72 100.15 406.84 599.07 913.13 360.27 1090.31 366.42 987.28 477.16 932.75 558.76 1080.34 563.57
00095663 00000131 836.24 99.37 406.22 598.64 919.13 357.24 1096.50 366.08 992.17 474.04 933.91 554.55 1083.33 561.09
CROP_BBOX: 579 0 1664 1008
