Video ID: 	C3NI8QXP9LE
H: 	1080
W: 	1920
FPS: 	25.0

FRAME INDEX X0 Y0 W H [Landmarks (5 Points)]

00001061 00000000 739.93 194.96 511.87 694.93 838.54 485.54 1080.32 486.08 939.60 644.69 871.17 737.23 1063.34 737.33
00001062 00000001 739.58 194.36 510.75 695.90 837.69 482.31 1079.58 484.13 939.13 642.82 870.27 735.30 1062.35 736.56
00001063 00000002 740.76 193.01 508.46 697.75 837.32 479.69 1079.05 482.35 938.07 641.59 869.85 733.38 1062.11 735.42
00001064 00000003 745.17 198.82 511.61 688.55 839.80 477.22 1088.18 484.12 941.34 640.93 871.81 729.34 1064.64 734.71
00001065 00000004 747.59 203.97 500.91 684.48 837.81 481.99 1082.75 485.50 939.37 639.79 869.49 728.56 1066.84 731.28
00001066 00000005 747.54 200.46 502.55 686.52 839.31 481.34 1084.11 485.78 940.24 639.01 870.88 725.94 1069.55 729.32
00001067 00000006 746.47 188.80 506.43 700.20 844.33 477.22 1083.13 483.41 939.25 638.20 870.76 725.72 1067.91 730.35
00001068 00000007 743.23 187.03 506.56 697.90 839.82 478.29 1082.65 483.97 939.04 638.27 866.25 721.60 1072.20 725.57
00001069 00000008 742.64 184.57 503.17 696.42 835.54 474.20 1080.99 481.19 936.78 633.74 857.08 712.11 1075.09 716.84
00001070 00000009 737.64 173.31 503.66 698.25 833.51 466.24 1080.90 476.11 936.30 626.88 851.18 699.61 1075.29 706.66
00001071 00000010 733.78 164.34 504.69 701.23 831.36 459.93 1076.62 470.73 933.51 620.30 849.92 691.72 1071.57 699.59
00001072 00000011 728.11 163.55 508.72 689.42 825.45 454.64 1072.99 464.40 929.68 610.16 842.36 678.34 1074.76 684.65
00001073 00000012 724.91 150.77 511.48 693.77 822.24 441.78 1071.54 452.20 924.58 594.34 835.46 665.54 1071.28 672.15
00001074 00000013 723.29 143.01 513.19 695.01 820.56 428.77 1070.25 439.81 921.09 582.27 831.77 656.12 1067.12 663.21
00001075 00000014 723.18 130.59 510.74 700.04 818.51 419.99 1064.59 431.47 916.41 571.47 826.32 642.35 1065.74 649.73
00001076 DELETE   722.42 122.22 503.79 706.19 810.47 413.08 1053.14 416.17 907.25 551.06 818.37 634.80 1059.93 635.64
00001077 00000016 715.35 112.65 506.28 713.10 803.93 405.36 1046.56 405.26 901.00 541.75 811.21 625.40 1056.41 623.65
00001078 00000017 712.27 109.58 506.09 731.84 801.75 392.47 1039.10 392.29 893.23 530.50 811.05 623.11 1052.12 620.80
00001079 00000018 706.16 100.90 506.80 754.25 798.05 389.52 1036.73 387.07 888.30 523.90 806.72 628.17 1051.44 623.81
00001080 00000019 701.51 106.68 507.77 744.65 791.67 388.94 1028.84 385.90 880.47 523.65 802.50 626.02 1041.82 621.50
00001081 00000020 699.61 111.12 507.50 731.91 788.32 390.03 1027.21 387.67 881.72 528.27 800.24 621.69 1040.75 617.75
00001082 00000021 699.56 117.01 506.43 716.03 787.01 393.68 1023.61 390.55 880.83 536.28 802.95 621.16 1039.02 616.64
00001083 00000022 697.78 120.15 507.94 707.38 785.45 395.80 1022.02 392.84 879.43 537.91 801.44 620.43 1037.09 616.03
00001084 00000023 697.08 119.13 509.26 704.75 783.58 395.71 1021.53 392.04 877.43 537.18 799.89 619.91 1036.52 614.89
00001085 00000024 697.74 117.64 509.63 703.19 783.92 394.04 1023.10 391.51 876.78 534.12 798.51 618.34 1035.58 614.44
00001086 00000025 698.29 115.78 511.98 704.51 784.96 393.54 1025.03 390.00 878.24 531.46 799.45 618.46 1037.03 613.69
00001087 00000026 701.61 115.26 511.15 705.03 787.84 395.79 1029.56 392.23 882.46 531.47 800.82 619.49 1040.31 614.73
00001088 00000027 703.77 116.20 510.00 708.07 790.31 395.46 1031.70 394.80 884.60 534.99 800.78 619.73 1041.16 617.39
00001089 00000028 704.38 118.04 509.92 709.53 790.85 397.43 1032.98 396.93 886.13 535.98 800.07 621.15 1042.43 618.94
00001090 00000029 704.59 121.47 510.57 711.95 790.11 398.93 1032.77 400.24 885.54 541.84 799.10 624.88 1044.47 624.14
00001091 00000030 700.70 126.94 513.46 714.55 788.53 403.45 1030.66 407.62 882.42 547.52 794.87 630.60 1042.61 632.22
00001092 00000031 698.21 135.16 514.30 710.98 785.80 411.26 1028.64 417.44 879.03 554.67 791.91 638.01 1040.22 641.20
00001093 00000032 694.33 141.22 518.90 708.13 784.13 417.08 1028.68 425.84 877.52 564.30 791.87 644.13 1036.49 649.42
00001094 00000033 692.07 142.42 518.46 706.87 781.52 422.14 1025.69 431.38 874.67 570.97 793.01 650.20 1029.62 656.22
00001095 00000034 693.93 147.91 515.46 703.64 783.18 425.20 1025.33 435.84 876.03 577.73 794.47 653.66 1025.98 661.17
00001096 00000035 696.23 152.54 515.03 699.07 786.28 429.60 1029.57 439.94 881.16 580.04 798.04 657.12 1030.52 664.16
00001097 00000036 701.40 152.09 512.59 700.08 792.26 427.18 1036.04 437.88 887.82 578.15 804.05 656.09 1036.86 663.39
00001098 00000037 704.12 149.89 512.80 702.22 796.59 426.01 1045.06 437.02 895.52 577.08 806.85 655.04 1047.73 662.16
00001099 00000038 707.53 155.66 512.70 694.11 801.37 427.77 1051.23 438.52 902.22 578.19 811.82 654.26 1056.90 660.78
00001100 00000039 710.66 154.13 511.85 691.83 803.89 426.98 1053.25 437.58 904.69 578.65 814.91 652.08 1059.89 658.42
00001101 00000040 711.57 154.21 511.17 689.37 804.28 426.24 1053.14 436.04 904.70 574.33 814.53 649.69 1060.59 655.38
00001102 00000041 711.77 154.51 509.28 688.19 801.70 423.89 1052.05 433.35 902.79 569.47 810.61 647.39 1058.97 652.95
00001103 00000042 710.04 153.58 509.38 691.55 799.28 422.64 1048.71 431.78 899.41 566.98 805.93 645.97 1056.30 651.31
00001104 00000043 705.79 155.18 508.20 689.31 793.10 422.45 1041.00 432.25 891.51 564.93 797.79 644.76 1047.56 650.89
00001105 00000044 696.42 158.04 509.91 685.80 786.48 425.48 1031.38 434.61 884.09 563.03 791.78 643.44 1038.90 649.03
00001106 00000045 688.77 156.54 509.18 684.31 778.30 427.36 1021.99 434.62 874.58 561.76 785.22 644.53 1030.03 648.52
00001107 00000046 683.35 158.88 509.61 686.44 773.43 430.46 1016.67 437.40 869.28 565.49 782.08 648.63 1023.69 652.26
00001108 00000047 676.04 159.83 514.85 690.71 770.17 432.46 1013.67 439.64 866.75 569.52 779.32 652.81 1019.19 656.51
00001109 00000048 673.95 164.75 513.18 692.40 768.16 435.16 1011.39 443.44 864.51 574.69 779.12 659.20 1011.74 664.28
00001110 00000049 678.27 167.16 508.47 699.87 770.44 437.10 1012.10 448.76 863.13 579.68 785.09 672.21 999.82 681.09
00001111 00000050 685.38 170.71 500.74 709.04 784.42 437.68 1013.00 445.74 867.07 578.22 800.17 681.54 991.84 688.10
00001112 00000051 687.85 167.72 502.23 717.21 787.57 436.43 1015.00 443.10 869.18 576.41 804.85 683.67 994.70 688.76
00001113 00000052 681.60 168.90 515.98 714.04 783.84 440.77 1018.44 450.62 868.04 580.67 792.19 683.23 997.19 691.55
00001114 00000053 679.28 173.83 517.62 712.10 780.65 443.54 1016.46 455.99 864.42 586.18 786.36 684.52 995.49 694.88
00001115 00000054 676.36 180.10 517.78 707.19 776.57 444.01 1014.56 458.31 861.57 590.17 781.39 685.25 993.66 697.10
00001116 00000055 675.54 180.82 516.22 709.30 774.71 444.89 1012.56 459.37 859.77 593.32 778.30 684.29 995.46 696.06
00001117 00000056 668.35 179.93 521.31 719.36 767.27 444.53 1010.91 461.06 856.62 597.20 775.54 682.34 998.80 694.05
00001118 00000057 669.13 178.92 526.30 716.57 764.49 449.06 1011.34 466.06 857.06 600.56 775.57 684.40 1011.92 696.37
00001119 00000058 668.63 179.34 529.78 715.92 764.22 449.99 1013.29 467.24 857.21 601.42 774.67 681.70 1016.76 693.39
00001120 00000059 670.83 184.42 532.88 709.71 766.19 453.11 1016.72 470.72 859.28 603.82 777.27 682.89 1023.05 694.41
00001121 00000060 672.83 182.34 534.89 713.17 769.20 453.33 1022.65 471.22 864.08 602.23 777.86 682.98 1028.20 694.56
00001122 00000061 686.87 186.53 519.62 713.44 783.71 453.50 1027.15 470.22 872.99 604.39 779.58 681.50 1026.65 694.03
00001123 00000062 692.55 185.90 518.36 717.68 789.82 453.95 1034.54 471.77 881.00 608.37 785.39 682.56 1034.19 695.91
00001124 00000063 700.92 190.39 519.84 718.46 796.33 456.36 1043.28 471.50 890.16 610.01 793.64 686.72 1045.52 697.48
00001125 00000064 704.91 189.66 522.99 714.84 806.47 456.21 1052.31 475.74 898.82 611.83 803.17 685.15 1052.15 699.39
00001126 DELETE   704.27 190.86 531.35 714.04 811.91 457.10 1063.23 479.62 907.83 613.70 805.73 684.75 1060.53 701.10
00001127 00000066 713.04 186.97 525.67 718.98 817.30 459.19 1069.94 484.31 912.65 616.71 809.25 685.63 1064.47 704.21
00001128 00000067 721.26 194.45 521.19 714.45 819.88 459.43 1074.08 485.84 915.08 620.55 812.92 686.66 1068.87 706.23
00001129 00000068 726.10 198.57 518.48 711.91 821.50 460.99 1075.43 489.09 914.74 621.77 814.52 688.27 1068.96 709.25
00001130 00000069 727.69 202.56 516.27 708.69 823.20 461.82 1076.37 490.66 916.03 621.41 814.87 688.22 1069.50 709.83
00001131 00000070 729.07 201.31 515.81 711.26 824.64 462.90 1077.02 491.45 918.15 621.67 815.91 688.80 1071.64 710.12
00001132 00000071 733.87 209.71 512.47 702.76 827.18 464.46 1079.33 492.54 920.18 622.29 819.91 690.43 1074.04 711.45
00001133 00000072 735.92 215.00 512.42 698.18 830.03 468.69 1081.63 496.56 922.32 623.22 823.04 692.99 1076.26 713.67
00001134 00000073 738.70 227.10 512.41 686.80 835.82 476.02 1082.73 501.81 926.15 623.98 829.70 696.57 1079.56 715.40
00001135 00000074 739.85 226.77 511.21 686.22 839.37 475.93 1084.73 503.88 927.89 624.35 830.99 695.56 1079.90 716.15
00001136 00000075 742.84 234.24 507.20 675.55 841.65 476.32 1084.17 505.50 928.37 624.23 833.14 694.53 1079.02 716.34
00001137 00000076 743.55 234.92 508.48 671.66 844.38 472.31 1087.19 504.21 931.35 622.93 833.60 690.13 1079.74 714.15
00001138 00000077 742.34 227.88 514.22 676.22 848.75 469.24 1091.23 500.32 935.64 615.87 837.92 687.00 1082.18 710.05
00001139 00000078 753.08 225.20 509.38 681.07 858.02 471.61 1091.37 500.63 942.64 613.49 846.68 687.89 1084.96 710.91
00001140 00000079 765.11 229.02 499.71 676.77 861.79 471.53 1095.25 501.50 945.56 614.98 849.36 688.16 1087.08 712.27
00001141 00000080 767.42 226.93 499.89 676.26 865.61 469.43 1097.27 499.28 949.38 613.99 853.17 687.23 1088.51 711.36
00001142 00000081 767.87 225.54 499.26 675.17 866.89 467.46 1098.03 499.05 950.14 612.61 852.45 684.55 1088.28 710.18
00001143 00000082 766.75 226.64 497.32 671.03 865.86 464.89 1095.49 498.48 947.04 609.43 850.17 681.00 1084.68 708.27
00001144 00000083 763.80 226.06 496.64 668.56 863.56 464.69 1092.87 499.52 944.05 610.47 847.90 679.26 1080.89 707.61
00001145 00000084 762.60 224.42 493.79 666.32 862.10 464.62 1089.94 501.84 940.35 610.35 845.34 677.07 1075.68 707.59
00001146 00000085 760.64 225.46 492.80 660.55 860.04 462.80 1087.39 500.68 937.83 608.22 841.96 672.00 1071.16 703.04
00001147 00000086 751.33 224.07 491.82 659.82 855.57 459.63 1087.08 496.43 931.77 612.35 834.34 672.48 1070.79 701.55
00001148 00000087 747.41 222.90 491.52 651.58 853.10 449.34 1081.04 489.11 926.02 601.38 828.50 661.20 1060.88 692.74
00001149 DELETE   740.29 203.85 492.72 663.80 846.81 439.46 1076.38 483.20 922.11 595.01 821.28 653.01 1051.63 687.65
00001150 00000089 723.26 198.80 502.00 665.52 835.37 432.37 1069.08 477.87 910.00 585.73 807.70 649.21 1041.78 685.78
00001151 00000090 717.46 192.62 502.79 669.00 822.96 433.57 1057.80 477.78 905.58 580.92 804.34 650.96 1038.99 686.59
00001152 00000091 710.78 190.90 501.75 668.94 816.28 436.80 1050.02 479.56 899.79 581.22 800.00 650.42 1034.12 684.52
00001153 00000092 707.24 195.57 496.54 670.27 814.08 439.72 1044.09 481.70 886.96 593.44 795.29 649.43 1019.82 684.40
00001154 DELETE   698.75 200.33 496.80 659.58 802.77 436.45 1041.09 478.04 886.14 596.81 785.36 653.13 1022.02 686.72
00001155 00000094 686.84 193.52 499.65 666.15 791.74 440.11 1031.37 478.49 879.95 597.92 777.04 654.33 1017.06 684.75
00001156 00000095 676.99 188.93 502.62 668.24 783.32 437.11 1025.64 474.72 871.71 595.33 769.80 654.02 1010.75 683.65
00001157 00000096 673.06 188.87 499.40 662.49 778.12 434.56 1021.02 473.02 866.39 589.42 764.11 649.74 1004.34 680.20
00001158 00000097 669.10 185.85 498.91 661.46 774.44 430.97 1017.21 467.34 863.37 582.01 760.60 647.90 998.74 676.80
00001159 00000098 664.35 184.95 497.98 660.38 770.21 428.26 1012.27 463.36 862.19 578.79 756.19 645.50 995.58 673.40
00001160 00000099 659.75 177.57 498.82 665.61 763.52 424.56 1005.43 456.60 856.62 574.12 751.35 643.00 991.81 668.17
00001161 00000100 657.79 174.15 497.25 669.10 760.20 424.10 1002.31 455.19 852.59 571.14 748.39 642.81 989.76 667.08
00001162 00000101 651.54 170.73 502.17 673.08 754.58 423.60 996.80 454.40 846.36 567.62 743.57 641.49 986.71 665.29
00001163 00000102 650.22 168.91 502.86 674.48 751.22 422.60 992.38 453.16 841.08 564.75 740.53 640.28 983.39 663.90
00001164 00000103 645.32 166.43 506.46 679.00 746.40 422.78 988.77 451.25 837.24 563.57 738.07 643.11 979.98 664.96
00001165 00000104 643.26 165.31 504.47 680.81 744.86 423.79 984.32 450.79 835.19 564.87 739.92 647.83 971.02 668.78
00001166 00000105 642.65 169.32 499.56 679.04 748.90 422.67 981.50 450.71 831.39 571.27 740.82 658.29 949.61 680.98
00001167 00000106 642.30 167.34 503.23 689.71 749.99 426.67 979.45 450.42 832.38 575.28 748.73 662.98 939.17 683.33
00001168 00000107 641.60 169.34 500.45 687.61 747.44 426.58 976.52 449.67 828.70 574.94 747.99 665.97 934.93 686.10
00001169 00000108 638.48 165.07 498.67 691.45 740.38 422.98 975.71 448.58 827.34 575.04 740.07 672.22 936.88 693.54
00001170 00000109 633.04 160.79 503.98 691.70 733.27 425.05 971.94 451.38 821.97 568.42 735.75 667.14 935.43 690.16
00001171 00000110 629.38 159.37 505.68 693.84 728.58 424.10 969.18 450.07 817.28 567.35 731.52 666.63 933.80 689.27
00001172 00000111 625.31 159.55 508.94 699.23 732.59 423.69 968.27 446.75 816.49 571.34 735.84 666.27 928.50 686.14
00001173 00000112 624.82 157.81 507.73 701.99 732.20 420.38 966.69 443.81 815.57 570.91 736.29 666.24 925.95 686.47
00001174 00000113 626.32 158.10 504.54 697.84 722.84 421.60 963.72 445.85 810.88 567.83 729.56 670.08 929.31 691.44
00001175 00000114 625.56 157.96 506.20 702.98 723.12 422.77 965.50 445.80 811.68 567.41 730.65 675.09 929.49 695.47
00001176 00000115 626.72 157.05 511.61 714.53 735.43 419.50 970.28 441.36 819.53 563.39 739.28 675.46 927.23 694.44
00001177 00000116 628.26 171.49 513.20 696.82 734.07 425.94 970.96 442.96 820.08 564.13 737.34 681.27 928.17 696.41
00001178 00000117 628.77 172.64 514.30 699.34 734.36 425.62 972.99 440.27 822.42 560.40 739.35 684.86 929.25 698.10
00001179 00000118 631.04 177.38 514.83 692.59 736.40 420.88 974.43 434.47 824.03 554.64 743.46 681.16 930.70 693.40
00001180 00000119 630.98 171.50 514.46 695.06 737.82 417.43 974.84 432.17 823.18 548.01 742.68 673.95 928.83 687.28
00001181 00000120 628.35 163.74 517.26 702.66 731.86 413.34 969.61 426.68 815.87 542.87 736.96 672.76 924.46 685.14
00001182 00000121 620.98 152.00 524.39 710.97 722.82 410.05 966.12 420.81 808.51 536.20 730.29 670.07 923.46 680.52
00001183 00000122 616.14 152.72 525.28 709.02 716.37 405.53 959.88 417.25 800.90 534.71 724.80 666.99 919.82 678.12
00001184 00000123 610.81 143.54 531.36 718.58 713.05 405.23 958.22 415.69 797.74 530.00 722.01 666.10 920.98 676.19
00001185 00000124 606.54 132.99 535.87 728.76 707.65 405.44 955.22 413.64 793.29 526.37 717.42 664.95 921.58 673.11
00001186 00000125 602.07 132.47 537.81 730.20 703.16 409.31 952.95 415.25 790.97 526.94 713.48 666.58 923.10 672.62
00001187 00000126 601.02 124.75 536.73 738.31 700.69 410.19 951.33 410.53 791.87 528.88 712.29 672.97 924.82 673.96
00001188 00000127 606.34 130.92 539.05 729.42 707.21 410.37 958.73 415.09 796.92 531.05 717.68 670.09 927.37 675.22
00001189 00000128 617.75 124.55 531.40 721.28 710.55 411.31 963.35 413.84 802.20 534.23 722.84 669.98 927.06 673.32
00001190 00000129 628.88 127.29 528.21 712.89 719.73 413.60 974.92 417.82 813.82 538.86 733.47 671.05 939.15 675.47
00001191 00000130 635.01 135.14 533.22 715.14 728.14 419.27 978.85 425.05 817.63 544.73 740.56 675.38 942.97 680.97
00001192 00000131 638.70 154.49 536.44 713.72 731.73 431.04 976.30 436.29 815.06 557.94 740.64 685.75 935.92 691.78
00001193 00000132 639.53 161.78 536.78 711.69 728.14 439.85 971.45 447.39 806.40 569.16 737.37 696.79 925.83 705.07
00001194 00000133 647.00 172.91 529.78 708.16 724.09 445.03 964.25 454.52 791.85 578.97 734.62 704.47 919.78 714.34
00001195 00000134 652.65 176.40 524.39 711.71 719.56 450.83 959.53 462.26 781.21 591.02 728.66 714.51 918.54 725.71
00001196 00000135 654.51 172.92 526.80 718.20 720.61 451.30 962.99 464.91 781.15 592.89 729.45 716.95 920.86 729.95
00001197 00000136 656.39 175.29 528.73 718.76 728.80 452.08 970.99 463.26 793.07 589.67 740.06 717.64 927.39 728.78
00001198 00000137 657.01 173.79 528.39 710.41 730.35 448.42 978.51 458.25 803.78 586.93 744.85 716.16 932.49 726.18
00001199 00000138 653.58 164.92 532.24 710.57 732.88 447.56 984.09 458.93 810.55 582.15 743.25 709.36 936.70 720.60
00001200 00000139 648.37 156.30 533.92 710.11 731.49 444.75 984.66 460.47 809.19 578.39 741.43 707.55 937.08 721.87
00001201 00000140 645.20 167.50 532.29 702.93 733.80 450.76 985.76 459.83 821.94 581.66 745.97 709.34 943.87 718.20
00001202 00000141 642.99 174.33 530.49 706.29 734.90 453.96 982.49 457.60 822.17 581.54 750.27 715.09 943.44 719.55
00001203 00000142 643.36 176.28 528.37 705.55 734.74 458.58 979.06 460.58 820.02 579.09 746.80 712.89 947.06 715.72
00001204 00000143 643.45 179.04 529.96 704.42 736.26 464.58 979.60 466.92 823.15 582.04 746.40 711.20 957.80 713.68
00001205 00000144 648.06 182.02 534.29 702.37 742.12 466.54 989.76 470.20 830.19 584.47 751.48 711.43 971.92 714.38
00001206 00000145 663.76 183.46 539.19 702.89 753.83 461.05 1008.34 470.18 840.23 588.78 759.11 708.36 988.01 714.78
00001207 DELETE   681.68 177.83 542.70 698.46 776.11 447.37 1033.49 462.77 864.47 574.37 782.95 696.16 1005.06 707.47
00001208 DELETE   706.58 179.69 529.81 696.34 800.04 439.33 1042.19 455.74 879.48 566.36 798.93 682.74 1017.46 696.30
00001209 00000148 719.74 175.95 530.66 694.02 818.92 428.84 1062.22 449.21 897.39 554.98 813.84 670.89 1030.29 687.62
00001210 00000149 730.03 175.11 535.88 681.77 827.39 416.16 1077.85 438.53 905.20 539.17 825.95 663.30 1038.18 681.37
00001211 00000150 737.91 173.99 535.53 677.95 837.29 416.56 1086.94 439.34 916.99 537.94 835.22 661.62 1046.20 680.14
00001212 00000151 743.77 171.39 534.95 678.92 841.75 417.35 1092.29 438.55 922.05 535.09 839.16 662.01 1053.09 679.31
00001213 00000152 745.95 169.79 534.77 680.52 842.76 416.85 1094.93 436.73 924.80 534.09 840.48 661.75 1056.62 678.00
00001214 00000153 743.00 167.83 536.92 675.11 839.69 416.59 1091.84 433.66 922.92 531.92 839.79 659.98 1055.49 673.75
00001215 00000154 741.52 153.32 536.76 685.27 839.94 410.29 1087.86 428.31 920.15 529.15 838.55 652.56 1053.03 667.33
00001216 00000155 740.72 148.90 536.54 680.44 841.40 403.28 1086.10 423.93 919.67 524.94 838.47 644.57 1047.78 661.63
00001217 00000156 741.83 147.78 536.00 674.74 844.24 398.59 1089.48 420.00 923.87 519.53 839.89 641.59 1046.08 659.37
00001218 00000157 741.84 149.04 535.27 677.86 848.42 397.63 1094.75 420.69 927.61 519.10 841.40 645.67 1040.05 665.28
00001219 00000158 743.44 152.35 531.44 679.01 850.31 402.14 1093.81 423.48 927.75 522.31 844.07 651.92 1032.86 670.50
00001220 00000159 741.61 155.55 526.10 673.85 845.27 404.44 1087.57 427.68 922.19 526.96 842.26 652.71 1029.81 672.39
00001221 00000160 743.65 175.86 503.14 648.41 840.34 405.28 1078.13 425.33 914.54 527.20 834.49 651.59 1017.95 668.62
00001222 00000161 739.15 168.60 507.99 666.80 832.93 409.73 1070.81 428.85 912.68 530.38 835.99 658.41 1017.31 674.28
00001223 00000162 740.16 173.46 504.98 668.45 828.82 417.38 1064.74 430.39 905.81 532.53 832.48 662.31 1015.46 674.31
00001224 00000163 741.09 174.70 505.81 671.80 828.28 418.99 1065.09 429.16 906.21 529.71 834.96 667.57 1020.65 676.82
00001225 00000164 743.57 163.97 511.65 674.55 826.35 421.27 1065.98 422.44 903.02 530.20 836.26 673.16 1027.18 674.88
00001226 00000165 744.68 161.94 511.96 674.93 831.32 415.22 1069.15 419.47 907.08 524.48 838.20 666.46 1027.43 670.72
00001227 00000166 745.49 164.16 509.51 682.22 836.48 408.14 1071.96 420.45 912.89 518.10 839.61 658.89 1025.42 670.07
00001228 00000167 749.67 164.77 509.72 681.25 842.17 412.66 1075.52 424.27 915.73 526.40 847.36 660.48 1022.73 671.51
00001229 00000168 739.99 162.48 520.13 682.49 843.48 415.20 1080.88 431.17 920.42 537.78 848.07 666.10 1027.23 680.12
