Video ID: 	ze1TZ1BJeCE
H: 	1080
W: 	1920
FPS: 	59.94005994005994

FRAME INDEX X0 Y0 W H [Landmarks (5 Points)]

00019808 00000000 810.63 166.88 394.26 607.47 908.37 415.97 1096.91 416.76 993.24 528.38 925.79 629.69 1080.14 630.41
00019809 00000001 816.72 160.07 395.21 605.88 921.22 406.52 1112.00 409.36 1010.55 518.51 939.06 621.99 1093.48 624.45
00019810 00000002 825.27 156.33 394.92 605.95 936.77 401.24 1124.02 403.84 1033.17 513.26 956.53 616.50 1105.68 618.75
00019811 00000003 832.18 153.71 400.16 606.15 947.53 394.62 1137.43 406.26 1048.01 501.65 961.75 604.30 1112.29 613.06
00019812 DELETE   837.08 149.80 398.64 608.85 958.58 389.02 1147.26 401.97 1064.83 495.14 974.91 601.80 1124.94 611.19
00019813 00000005 840.93 149.12 402.23 609.91 972.54 384.32 1157.51 398.76 1082.95 490.23 988.12 597.75 1138.86 607.84
00019814 00000006 850.06 149.79 396.74 606.25 984.80 382.33 1167.08 397.74 1096.32 487.29 998.08 596.32 1143.73 607.62
00019815 00000007 854.29 148.43 397.00 606.68 991.68 380.51 1173.24 397.41 1104.13 486.66 1002.39 594.01 1148.70 606.76
00019816 00000008 856.56 148.32 397.32 606.92 996.02 379.80 1175.72 396.78 1108.28 484.88 1004.80 591.51 1151.52 604.54
00019817 00000009 858.09 148.45 396.77 606.39 998.89 379.04 1177.32 396.73 1110.65 483.55 1006.45 589.91 1152.52 603.63
00019818 00000010 858.79 149.04 396.55 605.25 1000.81 378.14 1177.34 396.41 1111.19 482.70 1007.01 588.53 1151.62 602.75
00019819 00000011 858.48 148.97 397.14 606.06 1000.27 378.26 1176.55 396.80 1110.67 483.82 1005.91 589.07 1151.24 603.60
00019820 00000012 859.00 149.54 396.60 606.15 998.71 378.50 1176.47 397.00 1109.24 484.73 1004.31 590.11 1151.04 604.68
00019821 00000013 859.40 151.12 395.43 603.71 997.25 379.27 1175.72 398.54 1107.42 485.21 1002.73 590.85 1149.20 606.18
00019822 00000014 858.72 152.27 396.28 601.31 995.50 381.06 1174.63 399.64 1105.03 486.13 1002.92 592.17 1148.42 606.89
00019823 00000015 858.49 153.47 397.21 597.66 994.31 382.89 1174.95 401.75 1103.87 487.37 1002.80 592.56 1149.73 607.29
00019824 00000016 859.31 153.40 396.40 594.51 994.06 384.45 1175.61 403.10 1103.73 488.12 1003.18 593.49 1150.03 608.04
00019825 00000017 859.79 153.65 396.74 593.62 995.03 385.13 1175.74 404.26 1104.24 488.82 1004.43 592.47 1150.55 607.38
00019826 00000018 860.44 154.88 396.28 588.21 994.50 386.48 1176.37 404.77 1104.30 489.38 1005.91 592.44 1151.97 606.68
00019827 00000019 861.44 154.74 396.10 588.28 994.70 386.72 1177.86 403.36 1106.08 489.78 1007.24 593.03 1154.72 605.97
00019828 00000020 863.35 153.62 395.68 589.03 995.24 387.49 1178.54 402.62 1107.29 490.01 1009.20 593.52 1157.28 605.13
00019829 00000021 864.38 154.27 397.43 588.21 995.77 388.55 1179.21 403.32 1107.83 490.91 1010.29 593.89 1158.67 605.25
00019830 00000022 866.84 153.94 394.87 588.86 997.63 390.28 1180.86 405.09 1110.51 492.94 1012.18 594.72 1161.10 606.14
00019831 00000023 869.90 154.55 395.02 586.81 999.12 391.89 1185.14 406.17 1111.30 495.38 1014.23 595.95 1165.36 606.83
00019832 00000024 872.13 156.28 400.32 583.12 999.38 394.15 1184.00 406.80 1109.43 497.12 1016.60 598.48 1162.68 608.29
00019833 00000025 875.33 156.10 397.42 577.55 1000.54 396.64 1187.16 409.18 1111.39 503.10 1020.53 601.35 1165.90 611.20
00019834 00000026 878.44 157.87 398.92 582.85 1003.69 399.47 1193.11 408.75 1115.50 505.64 1021.13 603.94 1175.66 611.85
00019835 00000027 883.06 157.27 398.56 591.72 1009.60 400.81 1196.85 407.72 1121.37 506.33 1027.77 606.26 1180.35 612.58
00019836 00000028 887.09 157.11 397.78 585.55 1012.46 400.75 1201.70 407.77 1123.81 507.34 1032.38 606.91 1183.72 612.99
00019837 00000029 887.50 155.73 400.38 591.62 1015.60 399.46 1203.85 407.22 1126.94 507.40 1033.79 606.74 1185.31 613.23
00019838 00000030 889.09 154.37 399.76 592.27 1016.97 397.66 1205.33 406.32 1127.64 505.88 1034.66 605.73 1185.99 613.04
00019839 00000031 888.80 153.58 400.82 594.42 1016.99 396.99 1205.37 405.26 1127.93 505.03 1034.61 605.93 1185.65 612.92
00019840 00000032 887.85 152.58 401.86 595.62 1015.70 396.41 1204.31 403.61 1126.83 504.11 1034.48 606.15 1184.86 612.28
00019841 00000033 885.94 151.19 403.20 597.17 1012.94 397.45 1202.62 403.92 1124.89 504.87 1032.10 606.72 1184.29 612.39
00019842 00000034 883.76 150.28 403.96 600.51 1009.78 397.53 1200.61 402.38 1122.55 507.90 1030.81 609.29 1182.97 613.47
00019843 00000035 879.85 150.28 405.49 602.65 1005.37 398.80 1197.22 402.55 1119.48 509.65 1028.42 612.48 1180.07 615.64
00019844 00000036 876.14 148.99 407.29 609.77 1001.58 400.62 1193.43 402.82 1116.25 513.02 1026.51 616.76 1177.96 618.57
00019845 00000037 870.70 147.63 410.99 612.99 996.13 403.60 1188.18 405.27 1110.52 514.57 1022.74 619.40 1174.34 620.30
00019846 00000038 866.20 145.16 414.29 619.88 991.46 405.63 1182.38 406.22 1104.56 515.67 1019.52 622.10 1170.33 621.71
00019847 00000039 862.77 145.70 416.39 626.88 986.43 407.02 1177.11 407.19 1097.45 516.62 1014.55 625.08 1166.87 623.99
00019848 00000040 858.86 148.13 417.81 626.67 979.69 408.42 1172.24 406.53 1089.12 518.30 1009.79 627.38 1162.49 624.41
00019849 00000041 855.98 150.38 418.09 626.26 974.98 409.97 1169.65 406.69 1083.32 522.75 1006.18 630.93 1159.28 626.70
00019850 00000042 852.67 149.71 419.81 628.45 971.50 411.26 1166.30 407.47 1079.23 525.20 1004.23 633.05 1155.73 628.38
00019851 00000043 848.64 149.23 421.69 631.75 968.33 410.97 1162.85 407.48 1076.15 526.93 1000.84 634.31 1151.80 629.91
00019852 00000044 845.67 151.31 422.70 631.90 965.72 411.13 1159.35 408.07 1073.30 527.47 998.67 635.27 1148.36 631.21
00019853 00000045 843.98 150.16 424.10 636.01 963.79 411.35 1157.47 408.68 1070.41 528.84 997.26 636.69 1146.77 632.94
00019854 00000046 842.05 150.06 425.86 639.47 961.61 411.29 1154.86 410.13 1065.81 531.06 994.28 637.23 1143.91 634.80
00019855 00000047 841.84 151.41 425.69 638.45 959.08 411.96 1153.20 410.89 1062.31 531.63 992.10 638.22 1141.97 636.04
00019856 00000048 840.62 151.32 426.38 639.96 957.87 412.54 1151.58 411.17 1060.36 533.03 991.64 639.27 1141.21 636.82
00019857 00000049 840.26 152.00 425.73 640.65 956.43 412.92 1150.41 411.91 1057.79 533.17 989.01 639.71 1139.22 637.71
00019858 00000050 839.36 151.89 427.45 642.18 954.97 412.47 1149.47 411.92 1055.59 534.21 987.53 640.37 1137.59 638.78
00019859 00000051 953.25 126.56 410.00 611.19 1117.88 377.82 1297.21 398.47 1229.81 482.97 1121.49 578.80 1260.94 598.13
00019860 00000052 951.20 122.99 408.55 611.10 1111.50 372.07 1293.03 390.91 1223.76 475.94 1119.07 576.26 1257.81 594.30
00019861 00000053 950.88 122.30 403.58 602.35 1107.79 361.96 1282.01 375.65 1224.27 466.94 1121.00 575.86 1253.78 586.75
00019862 00000054 948.64 121.74 401.90 601.92 1101.83 351.71 1277.11 365.39 1217.00 453.98 1117.51 571.99 1246.11 582.83
00019863 00000055 946.73 119.56 402.93 600.73 1095.29 348.48 1271.89 359.92 1208.07 448.35 1109.22 570.31 1238.36 579.70
00019864 00000056 943.92 114.16 405.93 602.54 1091.08 342.63 1269.65 355.03 1202.98 441.44 1104.29 566.36 1234.28 576.44
00019865 00000057 947.69 101.36 404.52 614.14 1089.72 336.10 1268.32 351.82 1197.44 435.34 1104.70 563.18 1238.24 576.59
00019866 00000058 945.05 94.26 404.56 613.87 1085.75 327.97 1266.53 345.49 1194.67 419.63 1099.79 553.62 1234.20 568.92
00019867 00000059 940.67 86.52 407.75 615.74 1081.38 319.06 1262.96 336.84 1191.02 412.39 1095.79 544.06 1231.10 559.22
00019868 00000060 938.22 82.29 409.30 614.65 1077.82 314.82 1258.44 331.06 1187.18 407.05 1093.74 537.81 1229.65 551.45
00019869 00000061 936.33 79.15 411.03 616.50 1076.34 310.41 1257.13 326.13 1186.17 403.52 1094.24 535.60 1229.29 548.57
00019870 00000062 935.56 77.05 410.27 620.39 1075.99 307.50 1254.59 323.80 1183.11 399.10 1092.65 535.03 1225.69 548.37
00019871 00000063 935.43 75.10 407.50 625.60 1074.59 306.47 1251.02 321.66 1181.83 395.20 1091.39 535.17 1223.39 547.48
00019872 00000064 933.92 75.14 409.28 628.54 1071.58 306.27 1250.78 320.49 1178.70 392.14 1087.50 535.33 1223.92 546.65
00019873 00000065 931.27 75.51 412.67 628.71 1068.34 306.22 1250.32 320.35 1175.61 393.37 1083.58 533.22 1226.68 544.12
00019874 00000066 930.66 76.37 414.43 631.30 1062.74 306.83 1251.06 320.05 1168.37 396.29 1075.78 533.98 1227.07 543.90
00019875 00000067 928.70 74.95 415.71 634.94 1059.17 308.91 1248.71 322.62 1163.31 399.92 1070.91 534.54 1226.23 544.84
00019876 00000068 928.20 75.13 416.37 638.70 1054.85 311.60 1248.52 325.69 1158.15 402.77 1064.26 536.22 1227.37 546.74
00019877 00000069 927.29 76.43 416.36 635.65 1052.51 313.88 1247.73 328.76 1155.54 403.32 1059.46 535.76 1225.36 547.01
00019878 00000070 925.14 77.31 417.62 635.05 1049.84 316.96 1245.61 332.41 1152.97 405.81 1056.16 535.59 1225.19 547.30
00019879 00000071 923.75 78.99 418.36 631.41 1047.49 319.45 1245.21 335.40 1151.25 407.85 1053.46 535.23 1225.53 547.11
00019880 00000072 922.25 81.24 419.30 627.36 1046.38 322.13 1245.59 338.71 1150.33 411.28 1051.47 535.05 1225.92 547.26
00019881 00000073 920.67 83.67 420.95 624.10 1044.84 325.38 1244.79 341.10 1148.47 416.67 1050.83 536.69 1225.84 548.10
00019882 00000074 919.92 85.41 423.06 622.42 1043.26 327.51 1246.02 343.35 1146.91 420.43 1049.31 538.20 1226.10 549.66
00019883 00000075 917.94 89.12 424.50 620.10 1040.77 330.07 1246.84 345.21 1145.53 425.07 1048.00 540.92 1227.33 551.97
00019884 00000076 916.92 91.68 424.44 619.55 1038.89 334.08 1245.51 348.02 1144.89 430.60 1047.81 544.99 1224.98 555.34
00019885 00000077 914.36 94.86 423.78 618.57 1036.29 338.63 1242.01 351.14 1143.08 436.47 1045.88 547.09 1223.12 556.38
00019886 00000078 911.94 98.09 421.07 617.37 1033.51 344.04 1237.47 355.09 1140.58 443.11 1044.89 551.08 1219.61 559.32
00019887 00000079 913.16 115.27 416.82 608.47 1033.10 350.90 1235.05 360.72 1143.64 447.85 1049.74 561.72 1215.66 567.57
00019888 00000080 910.69 119.66 414.40 608.48 1031.34 353.79 1231.55 365.11 1141.02 452.53 1047.07 565.31 1211.88 572.47
00019889 00000081 909.60 120.85 413.23 611.43 1028.38 357.68 1227.65 368.25 1138.29 459.08 1046.91 571.00 1208.01 577.55
00019890 00000082 907.66 123.07 414.04 616.34 1025.82 360.89 1227.53 372.27 1135.67 465.46 1043.54 578.38 1203.26 585.81
00019891 00000083 906.30 123.82 412.00 620.76 1024.48 362.98 1226.00 374.08 1135.43 471.99 1042.87 583.29 1199.19 590.73
00019892 00000084 903.76 125.74 412.08 621.95 1022.35 366.48 1223.59 375.06 1134.52 476.93 1043.46 589.01 1196.25 594.63
00019893 00000085 901.54 128.06 412.98 623.32 1019.82 370.23 1220.62 376.96 1132.47 481.90 1044.02 594.70 1192.87 599.17
00019894 00000086 897.84 130.72 412.10 621.47 1017.13 373.41 1218.53 379.23 1130.61 484.64 1042.70 596.95 1191.01 600.94
00019895 00000087 895.42 133.30 411.38 618.43 1014.73 376.21 1215.42 381.31 1128.29 487.09 1041.24 598.02 1188.36 601.67
00019896 00000088 893.42 134.74 411.03 616.54 1012.48 377.81 1212.70 382.33 1125.37 488.39 1039.29 599.23 1185.05 602.59
00019897 00000089 890.60 134.79 411.90 616.57 1009.43 378.34 1209.73 382.35 1122.42 488.40 1037.05 600.37 1182.15 603.43
00019898 00000090 888.28 135.06 411.50 616.13 1007.12 378.39 1207.14 381.99 1120.34 488.94 1035.60 600.91 1179.81 603.77
00019899 00000091 884.77 132.50 409.17 612.07 1005.66 381.29 1202.17 379.26 1117.42 492.48 1037.63 606.05 1182.75 604.02
00019900 00000092 883.19 133.15 407.14 610.37 1004.02 382.91 1198.84 380.58 1115.00 493.43 1035.20 605.45 1180.34 603.17
00019901 00000093 882.46 133.29 404.92 608.67 1002.34 384.62 1195.76 382.32 1112.93 494.13 1033.33 605.82 1177.96 603.80
00019902 00000094 880.65 133.15 405.44 609.53 1001.46 385.47 1193.82 383.54 1111.82 495.12 1032.86 607.18 1175.60 605.46
00019903 00000095 878.47 133.10 406.14 609.12 999.29 387.10 1190.02 385.63 1108.79 496.70 1030.99 607.81 1171.83 606.44
00019904 00000096 877.75 133.70 406.26 609.84 998.22 388.13 1187.31 387.41 1106.85 498.04 1030.18 608.32 1170.12 607.43
00019905 00000097 876.07 134.06 407.46 610.45 996.35 388.61 1184.59 388.07 1104.63 498.47 1028.86 609.37 1167.50 608.59
00019906 00000098 875.17 133.71 406.41 611.82 995.32 389.10 1182.54 388.56 1103.29 498.05 1028.35 610.72 1164.63 609.97
00019907 00000099 873.19 136.23 406.81 610.77 993.93 389.69 1179.95 389.19 1102.06 497.96 1028.24 612.30 1162.50 611.43
00019908 00000100 871.74 136.20 407.44 612.00 992.99 389.34 1178.87 389.04 1101.61 498.72 1027.01 612.85 1161.52 611.88
00019909 00000101 870.81 135.59 407.79 614.32 992.30 389.00 1177.78 388.91 1100.31 498.97 1026.21 613.86 1160.50 612.88
00019910 00000102 870.00 134.89 408.51 616.40 991.72 388.37 1177.43 388.62 1099.18 499.10 1025.30 614.39 1159.71 613.49
00019911 00000103 868.88 134.31 408.16 620.36 991.43 387.17 1176.49 387.63 1098.79 497.62 1024.51 615.19 1158.18 614.18
00019912 00000104 868.29 134.05 407.73 624.14 992.25 386.10 1175.87 386.82 1099.63 495.10 1024.04 614.92 1156.87 614.21
00019913 00000105 868.05 133.93 408.19 624.54 992.79 385.22 1176.50 385.82 1100.44 493.81 1022.92 612.09 1157.94 611.26
00019914 00000106 867.14 132.39 410.39 627.70 991.82 383.24 1177.67 384.39 1100.68 493.16 1018.65 608.11 1161.27 607.37
00019915 00000107 867.09 131.76 410.63 626.90 991.07 382.19 1177.88 384.43 1100.15 493.85 1014.98 604.23 1162.96 604.19
00019916 00000108 867.19 131.29 410.58 624.09 989.53 382.04 1177.18 384.97 1098.78 492.06 1012.47 601.07 1163.87 601.52
00019917 00000109 865.44 131.29 413.15 619.57 988.30 382.83 1175.66 386.55 1097.73 490.96 1009.24 595.67 1164.34 596.91
00019918 00000110 865.24 130.82 413.09 616.52 987.17 382.73 1173.73 386.39 1095.60 488.68 1007.81 592.41 1162.62 593.56
00019919 00000111 865.91 130.79 412.05 610.90 985.59 378.50 1173.90 384.18 1092.13 485.49 1003.96 587.40 1160.42 590.16
00019920 00000112 865.15 130.50 412.18 608.05 984.37 375.68 1173.28 381.51 1090.35 482.22 1001.03 583.65 1159.29 586.66
00019921 00000113 864.93 126.44 413.25 609.67 983.68 372.45 1172.58 378.16 1088.84 479.03 998.74 580.17 1157.10 583.14
00019922 00000114 864.95 124.44 413.25 608.91 982.59 371.02 1172.17 376.15 1087.59 476.99 997.23 577.74 1158.09 580.31
00019923 00000115 864.87 123.84 414.31 609.67 983.11 369.87 1172.44 375.22 1088.08 476.68 997.37 577.03 1157.74 579.72
00019924 00000116 865.80 123.83 414.72 611.10 983.85 369.98 1172.87 375.34 1088.54 477.35 998.68 578.26 1157.73 580.98
00019925 00000117 866.81 124.35 413.87 614.19 984.73 370.92 1173.71 375.53 1090.00 479.20 1000.26 580.57 1159.55 582.73
00019926 00000118 866.91 126.62 413.93 617.99 986.34 372.16 1175.03 376.26 1092.56 481.54 1002.55 584.05 1161.93 585.77
00019927 00000119 868.68 126.34 412.97 618.75 987.04 373.81 1176.32 376.91 1093.17 484.01 1005.60 586.93 1164.05 587.62
00019928 00000120 870.00 128.32 411.90 615.53 987.77 375.16 1177.85 378.39 1094.40 486.62 1006.75 588.49 1165.39 589.30
00019929 00000121 870.41 129.08 412.38 613.66 987.96 377.23 1178.67 380.29 1094.66 488.46 1007.42 589.54 1166.65 590.19
00019930 00000122 871.36 128.43 411.48 612.97 988.44 379.51 1179.23 382.57 1095.12 489.98 1008.57 591.24 1167.36 592.17
00019931 00000123 872.39 128.57 410.94 612.91 988.83 381.99 1180.64 384.65 1095.36 491.71 1008.14 593.00 1168.46 593.93
00019932 00000124 872.84 130.51 409.90 611.55 989.67 383.58 1180.59 386.28 1096.97 494.60 1010.39 595.36 1168.25 596.61
00019933 00000125 874.27 130.87 409.49 611.68 990.98 385.37 1181.79 388.09 1097.58 496.34 1011.63 597.32 1167.95 598.89
00019934 00000126 874.65 132.39 409.09 610.59 992.43 386.42 1182.92 389.18 1098.46 498.15 1013.09 599.07 1167.65 600.79
00019935 00000127 874.67 134.99 410.17 609.29 993.38 387.41 1184.17 390.64 1098.67 501.35 1013.59 600.94 1167.09 602.98
00019936 00000128 875.20 136.71 410.58 610.41 994.00 388.93 1185.48 391.80 1098.82 503.02 1016.01 604.13 1168.22 605.65
00019937 00000129 875.35 137.45 411.20 611.01 993.68 390.02 1186.94 393.27 1098.55 505.77 1015.29 606.19 1168.41 608.06
00019938 00000130 875.42 137.73 411.33 611.66 993.69 391.24 1187.02 393.92 1098.52 508.20 1017.10 609.05 1168.38 610.40
00019939 00000131 874.89 137.99 412.06 613.63 994.01 391.99 1186.38 394.56 1098.54 509.01 1018.27 610.65 1167.82 611.77
00019940 00000132 874.38 137.47 412.58 615.07 994.61 391.97 1185.34 395.13 1098.13 509.74 1019.27 611.51 1165.74 612.87
00019941 00000133 873.56 137.10 413.08 615.00 995.10 391.54 1184.65 395.51 1098.46 509.51 1019.74 611.07 1163.63 612.97
00019942 00000134 873.28 136.11 413.35 616.50 995.28 391.58 1184.78 395.24 1099.03 508.87 1020.35 611.69 1163.23 613.30
00019943 00000135 873.34 136.50 412.92 618.25 995.39 391.14 1184.70 394.02 1099.77 508.31 1021.76 613.41 1162.55 614.38
00019944 00000136 872.83 135.82 412.23 621.52 996.03 390.97 1184.46 394.15 1100.82 507.63 1023.09 615.26 1162.04 616.40
00019945 00000137 872.52 136.06 410.39 627.35 996.47 392.79 1181.94 395.46 1101.62 507.02 1024.43 617.13 1161.74 618.04
00019946 00000138 874.13 137.21 407.08 631.59 998.31 395.90 1180.55 398.88 1102.14 507.42 1024.87 618.03 1163.43 619.45
00019947 00000139 875.04 138.36 405.94 638.55 999.24 396.77 1181.08 398.16 1102.53 507.73 1023.76 619.76 1166.27 620.19
00019948 00000140 876.27 139.40 405.62 642.89 1000.64 398.73 1181.87 401.95 1102.36 509.58 1020.89 620.11 1167.82 622.03
00019949 00000141 876.95 139.32 403.42 647.37 999.99 401.56 1180.24 404.80 1101.13 509.62 1018.85 620.12 1169.85 622.37
00019950 00000142 875.44 140.71 404.43 650.09 999.88 402.72 1179.88 406.75 1100.97 510.38 1016.62 619.64 1171.67 622.35
00019951 00000143 872.94 141.78 405.79 650.78 999.07 404.16 1180.11 408.09 1101.85 511.02 1014.54 619.99 1172.31 622.64
00019952 00000144 871.13 143.34 406.16 650.04 999.17 407.37 1179.17 410.26 1102.73 512.87 1015.04 621.74 1172.85 623.42
00019953 00000145 870.38 146.14 406.33 647.27 999.73 409.72 1180.07 411.74 1105.73 514.32 1015.64 622.31 1174.65 623.21
00019954 00000146 869.51 147.89 406.55 641.19 1000.19 412.06 1180.98 413.50 1108.24 515.44 1016.24 620.82 1175.94 621.23
00019955 00000147 869.30 147.76 406.94 635.20 1001.41 413.92 1182.38 413.27 1112.24 516.41 1019.40 620.37 1177.74 619.26
00019956 00000148 869.71 147.87 406.68 628.04 1001.42 416.03 1183.97 413.57 1114.44 517.03 1022.52 620.07 1179.54 617.75
00019957 00000149 870.26 147.67 406.62 622.11 1001.42 417.63 1184.84 414.61 1115.61 517.64 1023.13 617.81 1180.80 615.05
00019958 00000150 869.70 148.12 407.12 615.98 1000.34 418.88 1185.30 415.64 1115.77 518.68 1023.24 617.21 1180.78 614.21
00019959 00000151 869.02 148.09 407.33 616.00 1000.30 420.93 1185.16 416.67 1116.33 520.15 1023.39 618.17 1180.96 614.12
00019960 00000152 868.70 150.65 407.04 615.97 1000.82 422.84 1184.04 417.37 1116.51 520.91 1024.14 619.15 1181.47 613.89
00019961 00000153 868.62 150.43 406.41 620.47 1002.71 423.83 1182.76 418.25 1116.66 521.43 1025.32 620.35 1180.60 614.79
00019962 00000154 868.71 150.24 405.38 623.47 1002.33 425.46 1182.29 418.95 1116.78 523.35 1025.59 622.90 1180.89 616.50
00019963 00000155 868.33 151.52 405.04 624.88 1001.91 426.87 1182.50 419.00 1116.88 524.95 1026.42 625.88 1181.74 618.15
00019964 00000156 869.74 152.37 402.49 625.74 1002.10 428.99 1181.75 420.15 1117.10 526.49 1026.91 627.82 1182.48 619.31
00019965 00000157 870.85 153.75 401.81 624.33 1003.54 431.27 1181.90 421.64 1118.37 527.94 1029.61 629.71 1183.67 620.36
00019966 00000158 872.58 156.37 401.99 621.19 1004.84 433.24 1183.24 422.70 1120.15 528.69 1031.92 631.22 1185.02 621.13
00019967 00000159 873.56 155.95 402.57 620.00 1006.67 435.02 1185.40 424.08 1122.58 529.74 1034.23 632.50 1186.52 622.28
00019968 00000160 874.62 158.30 401.97 616.28 1008.33 437.23 1185.79 425.77 1123.90 530.46 1037.46 634.42 1186.93 623.95
00019969 00000161 875.58 158.53 401.25 613.68 1010.59 437.63 1186.24 426.18 1125.90 530.65 1040.98 635.13 1186.72 624.89
00019970 00000162 876.05 159.03 401.90 610.01 1012.34 438.90 1187.66 427.10 1127.68 532.49 1044.01 636.70 1187.00 626.24
00019971 00000163 877.89 158.80 401.29 609.26 1013.41 439.48 1190.34 427.63 1129.10 535.07 1044.04 638.14 1188.13 627.72
00019972 00000164 885.85 160.72 399.25 605.83 1013.64 432.90 1198.18 426.92 1127.79 527.06 1040.65 624.94 1192.19 621.27
