Video ID: 	djfU6JNecy8
H: 	1080
W: 	1920
FPS: 	23.976023976023978

FRAME INDEX X0 Y0 W H [Landmarks (5 Points)]

00004096 00000000 683.00 238.35 429.63 622.58 828.38 467.13 1013.72 513.84 914.03 611.96 789.41 682.04 953.23 722.43
00004097 00000001 682.14 238.83 428.82 628.85 837.56 476.44 1022.42 516.32 932.80 621.29 809.86 702.22 960.67 737.55
00004098 00000002 708.14 235.08 403.14 635.49 849.14 482.43 1026.84 513.86 945.25 625.60 831.30 709.97 973.27 738.42
00004099 DELETE   710.04 231.83 398.78 640.94 853.03 486.73 1028.49 512.05 951.48 625.69 845.00 716.61 980.48 740.39
00004100 00000004 717.06 230.62 387.82 640.41 851.87 488.63 1027.73 506.43 951.99 625.95 856.76 723.39 986.85 739.99
00004101 00000005 725.14 222.50 377.82 649.19 850.75 489.60 1025.91 502.17 951.06 626.35 860.68 724.56 990.79 736.23
00004102 00000006 730.77 217.34 373.99 648.30 848.90 489.22 1025.14 496.66 952.63 623.41 866.57 724.05 994.62 731.77
00004103 00000007 739.55 212.56 369.25 650.10 850.81 487.92 1026.60 490.75 955.99 619.16 872.75 721.46 1001.28 725.48
00004104 00000008 735.90 208.55 374.20 652.92 852.03 484.93 1029.50 484.68 961.84 612.84 875.61 718.94 1007.79 720.07
00004105 00000009 723.14 205.01 386.60 660.40 854.48 481.04 1031.71 480.13 970.43 607.09 875.57 719.25 1006.97 719.97
00004106 00000010 725.97 207.22 385.49 652.19 855.91 481.94 1035.93 479.34 973.32 606.11 878.10 717.55 1011.98 716.84
00004107 00000011 729.38 204.96 383.17 654.93 856.72 479.93 1039.11 476.88 974.73 603.86 878.43 716.10 1016.14 714.61
00004108 00000012 730.45 203.21 382.42 660.76 856.39 480.40 1039.50 475.99 975.35 602.72 876.43 716.38 1017.73 713.53
00004109 00000013 724.98 201.06 387.84 663.49 855.22 478.95 1038.76 475.67 977.40 600.52 874.31 713.31 1018.68 711.37
00004110 00000014 723.39 199.54 388.72 662.71 854.20 479.50 1038.29 474.36 976.49 601.48 875.61 712.74 1019.85 709.34
00004111 00000015 720.14 198.90 389.71 664.24 852.80 479.40 1037.43 474.58 977.40 600.79 874.04 712.37 1019.54 709.56
00004112 00000016 714.32 199.78 394.74 668.85 852.91 479.53 1034.54 474.50 978.06 602.14 873.11 713.93 1018.21 710.62
00004113 00000017 714.62 200.11 392.73 672.08 850.78 480.21 1033.37 475.09 976.35 602.42 871.72 716.49 1017.99 713.24
00004114 00000018 717.23 202.62 389.42 671.83 850.93 480.15 1034.13 475.62 976.13 604.69 870.75 719.54 1016.25 716.87
00004115 00000019 718.04 203.16 388.08 669.16 852.17 479.42 1033.59 476.58 976.64 604.58 869.27 716.90 1013.86 715.67
00004116 00000020 714.76 204.81 390.27 666.05 851.99 480.48 1032.54 475.88 977.61 603.88 870.31 716.17 1014.63 713.42
00004117 00000021 718.43 204.45 385.32 665.45 852.37 480.76 1031.62 475.73 976.49 604.91 872.62 717.79 1013.89 714.64
00004118 00000022 714.09 204.10 387.65 664.02 851.60 480.87 1029.83 475.72 978.12 603.93 874.19 718.81 1012.08 715.87
00004119 00000023 712.99 203.15 387.86 666.02 851.28 480.60 1029.05 473.64 978.24 604.19 876.05 720.60 1012.05 715.92
00004120 DELETE   706.25 202.58 395.60 666.94 849.81 481.27 1029.45 472.40 980.13 605.65 877.72 721.58 1014.38 715.29
00004121 00000025 702.08 204.64 401.79 666.28 848.52 483.72 1029.56 474.80 979.60 606.89 878.27 722.15 1017.03 715.85
00004122 00000026 700.98 205.64 403.27 667.82 849.28 484.52 1029.98 474.53 981.01 607.86 879.31 723.75 1019.19 716.40
00004123 00000027 704.99 204.79 400.32 669.87 848.31 486.29 1030.66 474.75 981.42 608.18 880.22 723.98 1022.91 715.06
00004124 DELETE   705.17 203.03 401.13 663.34 848.03 485.29 1031.91 473.10 981.20 606.35 880.90 719.25 1023.98 709.94
00004125 00000029 707.29 201.42 399.35 662.65 847.67 483.24 1032.75 471.40 981.58 604.16 878.97 715.76 1024.98 707.03
00004126 DELETE   707.28 199.64 399.32 655.87 846.10 482.91 1032.52 471.06 981.09 600.82 880.19 711.17 1026.84 702.27
00004127 00000031 714.68 195.73 392.14 657.33 845.80 482.17 1031.76 470.22 976.00 598.64 878.84 708.23 1026.85 699.21
00004128 00000032 721.67 193.86 382.56 655.68 848.21 480.40 1028.99 467.16 972.59 595.46 880.56 703.31 1025.15 693.11
00004129 00000033 725.61 194.42 378.11 651.11 850.40 478.82 1031.39 466.92 975.83 591.27 880.13 699.50 1026.35 690.77
00004130 00000034 720.25 194.27 382.04 644.29 851.16 476.56 1027.02 465.55 980.70 580.85 881.56 690.48 1025.79 682.44
00004131 00000035 731.53 186.80 369.16 648.25 853.57 473.12 1025.39 461.09 976.89 574.84 882.41 686.11 1022.75 677.69
00004132 00000036 730.02 184.22 369.37 642.44 849.58 469.45 1023.99 455.23 973.17 568.93 885.47 682.63 1024.63 672.06
00004133 00000037 719.37 181.49 377.50 640.94 846.97 465.25 1023.22 450.35 977.21 562.56 888.69 679.99 1025.70 668.09
00004134 00000038 716.59 178.25 375.31 650.01 841.63 461.30 1018.03 441.36 972.60 555.96 886.42 680.11 1024.56 664.45
00004135 00000039 709.17 174.94 380.56 655.60 839.42 457.03 1019.59 440.62 967.76 556.23 878.23 674.31 1026.07 660.33
00004136 00000040 706.33 173.39 377.11 640.74 832.98 451.65 1012.68 430.81 965.03 547.22 878.27 666.84 1024.94 649.13
00004137 00000041 715.98 165.91 363.38 626.94 825.57 446.95 1004.55 417.41 955.36 539.77 879.79 657.92 1024.84 633.80
00004138 00000042 714.96 160.59 363.59 624.39 821.19 445.14 999.48 411.11 951.92 532.13 880.34 651.80 1025.28 624.53
00004139 00000043 709.41 158.84 368.66 624.74 818.85 445.11 995.84 409.00 950.32 529.74 879.70 650.52 1025.03 621.78
00004140 00000044 714.74 159.70 364.41 626.68 822.06 446.50 1000.29 413.90 950.52 534.17 880.84 654.09 1024.52 627.67
00004141 00000045 716.86 166.65 371.62 634.48 833.85 452.41 1011.80 427.13 961.59 545.93 884.54 664.07 1028.51 642.50
00004142 DELETE   727.37 174.20 372.02 643.01 846.42 465.72 1026.06 444.35 978.47 561.47 893.99 682.13 1033.01 666.04
00004143 00000047 727.41 191.06 382.81 652.19 854.01 483.43 1036.11 458.05 989.70 589.68 906.80 710.69 1042.64 691.50
00004144 00000048 749.43 208.29 368.12 649.67 862.15 498.01 1041.14 474.25 988.25 611.22 912.59 725.90 1047.75 706.14
00004145 00000049 758.93 213.97 367.09 638.88 867.91 501.99 1048.51 478.77 989.80 617.77 919.74 731.56 1052.34 711.32
00004146 00000050 756.45 209.18 368.79 644.84 870.52 497.00 1047.56 474.68 992.37 610.37 917.35 720.44 1053.75 701.04
00004147 00000051 757.84 202.37 367.02 641.92 865.90 489.54 1044.55 462.24 989.64 600.16 915.37 710.73 1056.53 687.46
00004148 00000052 752.13 191.55 366.92 636.79 861.78 481.65 1043.20 451.30 995.52 587.39 912.12 701.19 1053.73 677.86
00004149 00000053 755.60 181.81 361.55 637.56 862.74 476.97 1042.61 448.21 996.33 580.32 910.98 691.21 1052.63 669.75
00004150 00000054 756.12 181.40 361.71 640.99 864.23 477.85 1043.87 450.60 995.69 583.30 912.00 694.64 1051.54 674.08
00004151 00000055 756.34 196.14 369.74 639.54 865.47 485.57 1046.19 459.54 992.72 597.71 915.41 707.81 1053.55 686.81
00004152 00000056 755.09 206.26 375.76 649.58 872.28 494.47 1052.01 472.79 995.53 612.09 914.64 718.88 1057.09 700.13
00004153 00000057 743.74 198.58 394.14 663.49 874.23 493.93 1062.31 480.21 1007.68 608.05 913.87 714.20 1071.75 702.34
00004154 00000058 750.77 205.49 391.10 653.50 879.71 497.79 1070.21 480.62 1016.70 608.56 919.06 712.73 1082.38 698.42
00004155 00000059 769.40 208.15 375.29 648.05 887.04 505.08 1073.49 481.72 1020.48 608.17 926.27 712.30 1085.56 694.04
00004156 00000060 759.12 202.03 387.18 653.88 887.34 502.85 1075.44 479.08 1025.84 602.59 929.99 712.52 1087.39 694.08
00004157 00000061 772.68 198.97 374.05 657.64 892.56 503.44 1075.78 474.72 1027.57 598.92 939.62 715.67 1088.14 693.89
00004158 00000062 768.71 194.42 376.01 657.71 891.61 502.45 1077.89 475.40 1031.37 596.36 936.29 711.98 1088.62 691.55
00004159 00000063 766.24 198.84 379.72 661.89 887.98 501.23 1076.64 475.38 1028.93 599.76 931.38 714.80 1089.03 694.88
00004160 00000064 763.80 199.42 384.47 673.87 890.01 501.51 1076.88 482.82 1024.55 611.02 922.36 719.16 1078.96 706.21
00004161 00000065 756.85 209.12 392.29 664.82 892.48 509.88 1082.60 494.56 1026.92 619.11 918.93 722.37 1078.88 711.76
00004162 00000066 756.14 222.43 398.62 654.66 891.84 519.25 1087.86 502.37 1026.70 632.51 919.33 731.55 1084.46 717.96
00004163 00000067 749.37 230.40 406.32 653.70 888.07 523.42 1089.33 508.44 1025.19 637.05 916.16 737.47 1085.45 725.10
00004164 00000068 756.99 230.27 398.10 659.27 886.66 524.54 1084.79 509.27 1021.04 637.90 913.49 737.82 1082.42 725.36
00004165 00000069 763.92 230.86 388.83 662.91 884.35 520.22 1078.78 504.46 1015.60 635.56 911.34 737.51 1076.82 724.51
00004166 00000070 765.00 226.99 384.77 666.69 882.01 515.42 1073.96 500.19 1010.77 630.24 909.32 734.26 1073.71 721.56
00004167 00000071 761.10 228.29 386.45 661.26 876.10 512.82 1069.12 498.03 1005.45 630.69 907.72 732.56 1072.32 719.86
00004168 00000072 757.55 224.45 387.81 658.59 872.75 514.12 1067.52 499.78 1002.89 630.62 906.44 733.47 1069.28 721.08
00004169 00000073 755.97 225.76 390.00 656.42 872.29 514.32 1067.39 499.87 1003.29 631.64 906.59 734.93 1068.85 722.48
00004170 00000074 757.31 229.96 389.34 655.11 875.16 515.63 1068.32 500.68 1005.88 633.29 908.13 734.07 1070.44 721.28
00004171 00000075 758.05 231.14 389.51 660.86 878.59 517.73 1072.12 503.40 1010.15 635.24 907.75 735.73 1071.63 723.47
00004172 00000076 758.35 231.59 390.01 665.24 880.30 518.54 1073.42 504.55 1011.80 635.85 906.47 736.10 1072.95 724.18
00004173 00000077 756.41 231.52 391.67 663.60 879.30 519.11 1072.29 503.97 1011.41 635.13 908.19 735.12 1074.54 721.95
00004174 00000078 755.21 228.56 393.78 665.37 878.59 517.06 1072.30 501.64 1011.38 634.18 908.71 734.00 1075.22 720.53
00004175 00000079 752.23 228.68 395.86 663.28 876.10 515.26 1070.10 499.17 1008.93 633.16 907.97 733.05 1074.36 719.09
00004176 00000080 752.26 225.94 395.97 665.14 873.01 513.34 1068.36 495.98 1006.55 629.42 907.33 733.21 1074.83 718.12
00004177 00000081 753.20 225.22 395.10 665.77 871.56 511.32 1067.45 493.89 1004.24 628.22 906.55 732.08 1075.13 716.75
00004178 00000082 750.17 224.08 396.89 666.58 869.38 509.04 1065.84 491.36 1003.25 626.27 906.82 731.47 1075.06 715.77
00004179 00000083 749.07 225.23 395.59 663.54 867.42 505.38 1062.47 487.94 1000.62 621.61 906.31 729.45 1073.03 713.91
00004180 00000084 745.71 222.45 395.74 666.42 865.09 503.84 1059.20 486.47 999.78 620.08 903.36 728.97 1070.57 713.52
00004181 00000085 747.93 219.74 390.67 668.26 863.76 502.73 1058.01 486.12 996.70 617.86 900.09 727.74 1068.32 712.78
00004182 00000086 747.12 222.52 385.62 662.81 857.55 508.10 1047.09 485.43 984.21 625.18 894.24 736.37 1051.67 717.02
00004183 00000087 733.05 218.19 396.00 661.68 852.13 504.35 1041.84 482.03 981.88 621.77 891.03 733.65 1047.67 714.57
00004184 00000088 728.58 209.90 394.26 667.30 848.39 500.46 1037.71 477.44 980.23 618.11 887.66 731.30 1043.49 712.00
00004185 00000089 725.35 208.02 390.87 668.35 843.27 499.35 1032.18 474.18 974.93 617.43 884.66 731.65 1037.27 711.17
00004186 00000090 719.93 203.33 390.29 665.20 834.81 502.01 1025.82 476.92 965.89 615.64 879.59 729.86 1029.77 710.34
00004187 00000091 711.55 202.55 394.60 662.53 829.34 501.34 1019.90 475.26 961.35 611.89 875.89 728.36 1024.08 708.36
00004188 00000092 699.63 204.34 402.74 662.30 819.27 498.48 1011.76 470.87 954.96 604.84 869.19 725.87 1020.60 704.30
00004189 00000093 697.94 202.20 400.32 663.96 813.66 496.87 1005.93 470.10 947.05 603.49 865.76 724.38 1016.89 703.21
00004190 00000094 686.75 196.81 405.73 661.46 806.15 495.58 998.96 466.69 942.68 601.56 863.40 721.56 1014.39 697.91
00004191 00000095 686.62 197.72 402.15 654.78 801.46 493.44 995.72 464.82 936.90 600.13 862.41 719.25 1013.07 695.63
00004192 00000096 677.68 192.80 405.06 653.28 796.34 488.98 991.85 461.83 933.91 597.61 858.07 714.76 1010.73 691.94
00004193 00000097 677.73 197.51 400.97 643.65 794.06 491.84 991.00 463.20 928.09 596.64 851.82 708.10 1004.97 683.56
00004194 00000098 674.28 201.34 397.97 634.34 791.44 490.90 986.78 464.42 925.02 595.26 847.87 703.95 999.59 681.40
00004195 00000099 668.98 200.47 396.98 624.47 785.52 497.19 978.86 471.13 917.91 596.41 839.31 710.94 987.98 689.30
00004196 00000100 661.67 196.25 399.69 626.67 782.28 500.71 972.63 471.42 916.50 597.84 836.89 709.81 985.68 685.50
00004197 00000101 661.44 193.67 395.23 628.64 781.83 497.25 972.98 467.17 916.12 596.34 833.57 706.33 984.99 682.00
00004198 00000102 662.77 191.42 390.49 631.48 781.10 494.21 971.17 464.56 914.97 596.35 828.69 703.30 981.92 680.02
00004199 DELETE   667.77 200.36 376.89 627.29 783.12 491.45 972.34 459.58 913.26 595.63 827.23 701.45 985.85 674.25
00004200 00000104 664.58 201.13 377.45 625.52 781.60 490.26 970.03 458.47 911.52 595.18 824.66 699.65 983.40 672.65
00004201 00000105 661.33 200.64 376.09 622.89 779.49 489.08 966.18 457.08 908.97 593.91 823.05 697.08 979.39 670.16
00004202 00000106 659.87 190.82 380.21 629.71 773.35 487.52 958.73 461.26 903.16 592.98 818.25 697.09 969.74 676.71
00004203 00000107 655.89 190.22 382.15 638.55 771.36 484.44 953.97 459.82 898.23 591.98 816.06 699.24 960.06 680.11
00004204 00000108 656.51 192.83 378.48 638.07 770.87 483.20 948.07 457.93 893.23 588.32 814.94 695.55 956.84 675.88
00004205 DELETE   655.58 192.05 378.42 641.23 767.18 484.12 942.98 458.32 886.02 588.02 812.73 697.47 952.47 677.09
CROP_BBOX: 260 0 1413 1064
