Video ID: 	AaurAX_FCzk
H: 	1080
W: 	1920
FPS: 	25.0

FRAME INDEX X0 Y0 W H [Landmarks (5 Points)]

00056185 00000000 929.61 218.03 409.69 598.09 979.46 451.07 1114.67 480.79 954.45 576.77 976.61 670.81 1080.62 693.83
00056186 00000001 933.15 214.62 406.18 601.58 982.87 446.31 1118.25 477.50 956.93 573.79 979.34 669.09 1083.07 693.25
00056187 00000002 938.49 206.61 404.58 602.44 991.52 442.67 1120.32 479.32 958.58 568.69 981.11 661.44 1079.17 689.89
00056188 00000003 945.84 201.35 403.98 607.94 993.97 442.44 1129.98 479.83 970.32 568.78 986.86 662.15 1086.61 691.37
00056189 DELETE   961.74 204.76 398.03 610.44 1008.53 448.52 1137.73 493.39 993.56 569.15 995.44 657.25 1095.13 692.30
00056190 DELETE   967.88 209.20 404.14 615.04 1006.29 457.02 1163.87 494.03 1007.95 577.17 1003.74 672.18 1119.89 704.38
00056191 DELETE   978.55 218.14 417.81 612.38 1038.97 455.96 1195.27 492.65 1046.35 583.12 1031.90 674.55 1143.70 704.18
00056192 00000007 990.52 226.30 421.07 606.87 1060.47 460.34 1219.87 497.64 1076.06 586.34 1047.86 678.20 1161.85 708.44
00056193 DELETE   999.61 213.21 432.28 617.78 1073.17 451.46 1253.21 490.31 1096.26 574.05 1059.03 677.41 1183.21 709.82
00056194 00000009 1004.26 212.88 437.40 605.86 1083.72 447.99 1267.13 483.84 1117.59 569.81 1073.15 670.22 1200.76 699.94
00056195 00000010 1011.09 209.57 435.26 606.40 1091.20 444.88 1273.17 484.14 1125.99 573.00 1082.61 664.13 1212.44 696.43
00056196 00000011 1015.17 214.34 433.02 602.29 1096.55 445.26 1278.95 484.84 1134.48 577.53 1087.27 664.43 1216.82 697.18
00056197 00000012 1018.00 216.53 431.13 603.19 1101.91 449.28 1284.12 487.36 1143.73 584.45 1095.62 668.80 1223.75 700.33
00056198 00000013 1020.91 218.16 431.10 604.25 1106.34 450.97 1287.01 486.87 1149.35 586.71 1101.76 672.28 1227.71 702.29
00056199 00000014 1022.46 216.34 432.60 614.14 1110.70 451.23 1290.28 485.83 1151.82 585.64 1105.51 675.48 1229.30 704.64
00056200 00000015 1023.87 217.42 430.72 611.88 1112.24 451.19 1291.73 486.35 1153.25 583.28 1106.81 676.06 1228.74 705.68
00056201 00000016 1025.24 218.82 430.38 607.50 1113.29 450.23 1293.10 488.70 1154.46 585.57 1106.13 676.68 1226.01 709.02
00056202 00000017 1025.78 216.37 432.18 608.76 1112.03 449.39 1294.17 489.23 1153.31 589.01 1103.32 676.79 1226.81 710.35
00056203 00000018 1026.95 215.24 431.46 610.51 1112.12 447.99 1295.58 490.87 1153.28 592.21 1101.47 675.69 1227.90 711.82
00056204 00000019 1028.39 217.91 430.41 606.93 1112.42 448.87 1295.28 490.85 1154.48 591.89 1102.63 675.55 1229.15 710.99
00056205 00000020 1028.07 214.93 430.64 611.46 1112.45 450.43 1296.09 492.31 1154.07 594.04 1102.05 675.83 1229.38 711.35
00056206 00000021 1030.38 207.44 427.09 622.44 1111.39 455.71 1296.50 490.87 1158.16 592.68 1101.91 680.60 1233.21 710.77
00056207 00000022 1032.23 213.37 424.99 615.19 1112.16 461.91 1293.21 496.60 1158.08 594.24 1104.03 684.45 1230.82 714.03
00056208 00000023 1033.28 217.77 426.03 613.97 1113.85 469.02 1292.72 505.44 1157.19 595.63 1104.08 684.05 1230.34 715.13
00056209 00000024 1032.74 219.09 426.06 617.95 1115.53 468.04 1298.86 506.07 1162.85 599.06 1103.92 686.27 1235.10 718.79
00056210 00000025 1034.34 215.42 422.57 625.26 1117.70 465.02 1301.21 499.27 1167.14 601.86 1108.99 689.59 1239.90 719.10
00056211 00000026 1031.10 221.18 424.52 612.60 1122.74 464.48 1306.66 494.22 1179.70 601.73 1119.50 687.48 1246.69 712.12
00056212 00000027 1024.91 223.03 428.84 606.77 1113.41 463.55 1304.84 490.40 1174.03 603.40 1111.81 687.04 1247.18 709.13
00056213 00000028 1020.52 215.18 431.93 621.73 1101.84 462.20 1291.50 494.45 1153.75 603.73 1095.33 692.43 1229.76 719.94
00056214 00000029 1018.20 220.06 433.57 620.27 1099.52 462.04 1286.88 496.49 1145.06 602.47 1093.64 693.84 1221.01 722.86
00056215 00000030 1019.73 220.23 432.84 623.15 1101.44 463.80 1287.35 497.35 1145.76 603.25 1095.92 695.75 1221.27 724.16
00056216 00000031 1023.36 229.29 427.54 607.34 1106.15 464.02 1292.26 492.57 1156.43 605.79 1103.23 692.00 1224.75 716.07
00056217 00000032 1024.80 229.93 427.18 607.37 1107.49 464.24 1295.11 493.51 1158.18 607.32 1103.41 692.27 1228.97 716.80
00056218 00000033 1026.03 225.41 425.64 611.61 1108.67 463.40 1294.13 495.92 1156.54 606.44 1101.29 689.84 1226.18 716.98
00056219 00000034 1021.82 214.10 434.94 629.74 1106.56 461.26 1294.21 498.28 1152.01 602.78 1095.57 691.44 1225.64 723.30
00056220 00000035 1023.52 215.75 428.05 617.34 1112.23 460.90 1294.70 492.21 1161.12 599.13 1103.89 685.21 1224.66 711.25
00056221 00000036 1022.95 216.59 434.55 613.30 1109.78 455.64 1294.70 495.40 1154.96 599.03 1104.63 685.30 1225.69 718.63
00056222 00000037 1020.03 221.73 433.68 608.88 1106.42 455.41 1293.67 497.08 1152.95 602.12 1099.67 684.03 1223.94 719.27
00056223 00000038 1019.26 213.63 433.78 624.52 1101.66 460.82 1289.42 497.98 1149.35 604.36 1093.32 692.16 1222.70 723.77
00056224 00000039 1019.06 222.92 433.88 617.38 1098.38 465.70 1283.86 502.60 1143.88 607.31 1092.42 696.42 1217.44 727.63
00056225 00000040 1019.33 223.83 432.86 616.35 1099.28 465.18 1283.64 502.33 1143.80 606.91 1093.62 696.32 1215.51 727.81
00056226 00000041 1020.35 214.28 431.50 621.97 1102.97 460.29 1290.15 494.63 1151.29 599.41 1095.25 693.48 1219.22 723.08
00056227 00000042 1021.63 221.22 431.34 604.64 1105.47 451.12 1291.39 491.01 1149.99 594.87 1096.54 684.40 1215.89 718.39
00056228 00000043 1023.97 220.41 429.13 599.71 1108.43 451.10 1290.01 493.56 1149.62 589.96 1098.63 676.43 1215.99 712.25
00056229 00000044 1026.61 220.67 424.62 596.42 1106.62 462.56 1289.20 499.30 1149.16 589.41 1096.86 679.09 1220.30 711.87
00056230 00000045 1030.39 218.38 428.09 607.53 1111.14 464.66 1290.63 501.91 1156.14 597.78 1103.66 684.24 1226.64 715.74
00056231 00000046 1030.20 215.41 426.66 615.17 1108.89 461.89 1292.01 497.86 1155.51 599.25 1102.20 688.35 1226.35 718.91
00056232 00000047 1026.05 221.82 429.77 603.00 1109.75 452.52 1290.57 493.98 1150.60 593.62 1101.16 682.76 1215.73 717.91
00056233 00000048 1025.97 209.74 428.63 611.82 1107.10 446.98 1288.24 486.38 1147.47 584.70 1096.58 676.89 1215.08 710.41
00056234 00000049 1025.19 207.36 428.03 613.02 1105.21 444.25 1288.37 482.33 1147.26 581.86 1095.79 672.81 1220.65 705.01
00056235 00000050 1022.80 205.10 430.11 618.25 1103.60 447.18 1286.78 483.35 1146.76 582.61 1096.42 674.29 1221.76 705.00
00056236 00000051 1015.92 209.32 436.08 622.38 1102.16 452.23 1284.23 486.52 1145.06 587.00 1096.95 680.01 1219.76 709.17
00056237 00000052 1013.45 210.09 432.60 622.89 1096.21 456.43 1279.57 481.85 1147.91 595.88 1098.25 682.46 1220.23 704.33
00056238 00000053 1003.74 220.18 439.88 610.48 1091.06 457.44 1277.97 490.63 1136.83 592.95 1087.81 684.30 1215.83 712.16
00056239 00000054 1000.56 215.42 438.41 613.59 1086.81 456.30 1274.57 486.47 1134.19 586.99 1083.67 682.77 1212.70 708.03
00056240 00000055 996.04 209.46 438.13 611.09 1081.59 454.05 1267.94 483.25 1129.93 579.12 1080.58 677.12 1207.60 701.40
00056241 00000056 993.10 207.19 436.11 612.22 1079.17 453.88 1263.03 483.16 1126.56 577.27 1078.04 676.44 1201.63 700.87
00056242 00000057 987.81 215.68 436.85 607.43 1072.48 456.97 1260.18 484.54 1121.57 584.46 1073.30 683.99 1198.15 707.40
00056243 00000058 983.47 225.45 434.23 607.91 1069.40 466.94 1250.24 493.35 1115.40 595.13 1063.18 693.12 1191.84 714.29
00056244 00000059 981.47 230.75 432.43 604.94 1066.49 469.17 1247.53 495.83 1112.18 600.81 1061.41 694.38 1192.27 715.58
00056245 00000060 980.82 235.29 433.15 599.16 1064.44 469.55 1247.92 496.44 1110.42 603.09 1060.52 694.88 1196.00 716.15
00056246 00000061 980.05 233.50 434.15 600.30 1064.67 469.35 1247.97 495.80 1112.06 602.98 1061.97 694.03 1196.89 714.96
00056247 00000062 981.08 234.59 433.00 599.50 1065.76 469.02 1248.32 495.07 1112.52 600.86 1063.15 693.14 1196.38 713.99
00056248 00000063 982.14 230.12 434.05 605.53 1067.63 469.37 1249.92 496.02 1114.44 599.27 1063.02 691.99 1195.87 713.18
00056249 00000064 983.58 231.49 432.79 609.28 1069.29 470.54 1251.89 498.58 1115.60 600.56 1062.54 692.55 1197.69 714.97
00056250 00000065 984.33 231.43 433.80 614.08 1070.23 471.17 1251.81 499.91 1115.16 602.21 1062.91 693.61 1199.32 716.50
00056251 00000066 984.73 233.27 433.01 613.77 1070.38 471.99 1251.58 500.87 1114.30 603.83 1062.91 694.46 1200.10 717.42
00056252 00000067 984.72 235.00 432.64 610.99 1071.05 472.11 1252.09 500.87 1115.46 604.17 1063.56 693.96 1200.76 716.91
00056253 00000068 984.02 232.57 433.74 609.46 1070.32 470.78 1253.82 500.23 1116.33 603.10 1062.91 692.07 1201.82 715.42
00056254 00000069 983.42 235.50 433.72 605.39 1070.50 470.08 1253.77 499.07 1116.62 601.82 1063.36 691.15 1200.90 714.23
00056255 00000070 984.40 235.61 431.84 607.51 1071.13 471.58 1252.98 500.84 1115.85 604.10 1063.39 692.38 1201.27 715.69
00056256 00000071 984.56 236.70 432.18 611.13 1070.65 474.37 1250.51 503.24 1113.89 607.18 1063.10 696.24 1197.38 719.33
00056257 00000072 984.69 240.81 432.10 608.43 1069.38 475.72 1248.31 504.05 1110.46 608.98 1063.70 698.55 1196.20 721.47
00056258 00000073 985.01 245.57 431.50 604.92 1069.59 474.80 1248.76 502.28 1109.98 607.06 1063.23 698.83 1195.49 721.26
00056259 00000074 984.89 242.33 431.31 607.08 1071.08 471.73 1250.79 500.36 1112.57 605.12 1062.54 696.92 1195.08 720.28
00056260 00000075 984.98 235.94 431.73 611.81 1070.79 471.32 1251.37 499.23 1113.86 601.70 1063.76 695.73 1197.23 718.20
00056261 00000076 985.36 234.91 431.86 612.92 1071.22 471.21 1251.67 499.42 1114.22 601.65 1064.03 695.48 1197.54 718.21
00056262 00000077 986.15 236.09 431.57 610.77 1072.30 471.14 1252.18 499.74 1114.03 601.75 1063.71 694.99 1196.32 718.11
00056263 00000078 988.67 240.74 431.84 606.42 1072.02 471.62 1252.86 497.75 1113.69 600.81 1065.92 695.66 1199.95 716.97
00056264 00000079 988.65 230.12 435.79 614.06 1074.22 470.78 1254.75 497.07 1117.17 595.45 1067.41 692.43 1201.76 713.44
00056265 00000080 988.47 229.36 438.67 606.01 1069.64 462.42 1262.08 488.51 1118.16 593.51 1070.31 692.44 1201.18 714.32
00056266 00000081 992.27 239.51 434.61 600.01 1077.81 471.23 1258.50 496.73 1120.06 593.01 1071.45 690.49 1204.96 711.17
00056267 00000082 997.32 239.20 432.38 597.83 1084.64 478.82 1260.14 506.73 1123.92 593.97 1078.29 690.16 1209.62 712.73
00056268 00000083 996.74 237.50 432.39 600.84 1082.56 475.22 1260.02 503.87 1123.07 595.83 1075.36 690.88 1208.46 713.97
00056269 00000084 995.79 239.12 432.14 601.90 1080.34 473.56 1258.99 499.73 1122.02 597.04 1073.24 692.47 1208.52 713.79
00056270 00000085 994.52 236.63 433.61 604.55 1079.82 470.80 1259.65 497.42 1121.87 595.45 1071.68 691.87 1205.86 713.55
00056271 00000086 991.21 227.63 440.14 607.82 1073.26 462.71 1265.79 490.06 1121.73 594.07 1073.31 692.97 1203.76 715.86
00056272 00000087 991.48 226.13 439.19 607.71 1072.05 461.69 1264.86 489.06 1120.83 593.98 1072.67 692.91 1202.99 715.87
00056273 00000088 992.37 233.45 435.80 605.34 1076.74 468.87 1258.74 495.64 1119.72 594.57 1069.05 689.83 1205.75 711.29
00056274 00000089 992.92 231.47 435.72 610.40 1076.52 470.05 1257.69 497.27 1118.12 596.67 1068.34 691.01 1207.11 712.67
00056275 00000090 991.39 234.64 436.30 607.69 1075.57 470.18 1257.33 497.86 1117.26 597.18 1067.43 691.52 1206.32 713.54
00056276 00000091 990.20 234.94 436.91 605.93 1074.46 468.75 1256.88 496.83 1117.43 596.52 1065.97 689.30 1206.13 711.53
00056277 00000092 988.39 236.25 437.67 602.03 1072.69 467.20 1255.25 494.80 1115.50 594.30 1065.06 688.47 1203.85 710.26
00056278 00000093 987.48 235.51 436.47 601.59 1071.87 466.82 1253.58 493.90 1115.15 593.19 1065.69 686.66 1202.89 708.11
00056279 00000094 985.66 237.66 436.03 601.05 1070.15 466.72 1252.20 494.32 1113.58 595.49 1064.10 688.33 1200.39 710.28
00056280 00000095 987.13 237.26 433.09 601.74 1068.83 468.99 1250.10 495.47 1111.26 597.41 1063.74 691.42 1199.69 712.41
00056281 00000096 985.89 237.16 434.69 602.18 1069.04 469.03 1250.09 496.39 1112.18 598.32 1063.80 691.29 1199.04 713.00
00056282 00000097 986.61 228.87 437.71 603.47 1065.33 462.53 1256.65 490.26 1112.06 596.98 1066.40 691.25 1197.90 714.26
00056283 00000098 987.86 227.44 440.86 602.37 1067.97 461.25 1259.44 487.03 1115.63 592.37 1070.81 690.36 1201.50 711.78
00056284 00000099 989.76 227.46 440.66 603.08 1070.64 462.33 1259.64 487.98 1116.28 590.61 1072.47 689.46 1201.39 710.81
00056285 00000100 994.13 231.37 436.90 598.41 1074.25 470.96 1263.90 498.27 1120.02 593.87 1075.58 691.08 1203.16 713.61
00056286 00000101 997.77 236.16 431.66 599.62 1078.49 485.76 1249.33 511.31 1113.83 602.76 1077.56 696.05 1204.46 716.04
00056287 00000102 1000.48 243.40 428.46 595.09 1078.44 487.31 1249.56 515.89 1110.83 608.56 1075.43 699.03 1202.51 721.96
00056288 00000103 1002.39 243.87 428.00 597.62 1077.09 486.63 1248.92 515.33 1108.14 609.86 1074.00 703.80 1199.86 727.00
00056289 00000104 998.29 235.14 439.55 617.85 1076.80 483.28 1255.14 513.59 1114.70 608.16 1078.60 702.72 1201.78 727.02
00056290 00000105 996.19 232.48 442.54 618.33 1077.14 478.30 1254.14 506.92 1115.54 605.90 1079.49 699.08 1202.84 722.23
00056291 00000106 999.11 242.70 428.46 600.09 1077.53 477.38 1248.29 505.42 1109.35 604.82 1070.40 696.63 1196.99 719.52
00056292 00000107 996.61 245.78 431.25 599.65 1073.15 478.11 1247.14 505.96 1105.50 608.64 1066.71 699.24 1195.69 721.86
00056293 00000108 994.58 247.14 428.47 600.23 1072.57 481.60 1244.75 509.88 1102.63 611.01 1065.87 702.29 1192.94 725.43
00056294 00000109 991.40 244.45 436.19 610.12 1068.06 483.01 1248.83 510.88 1108.01 612.11 1072.26 706.42 1196.84 728.96
00056295 00000110 992.26 243.91 430.02 603.72 1069.86 479.74 1245.45 505.63 1105.64 610.73 1066.74 702.36 1198.47 723.22
00056296 00000111 991.29 237.18 430.90 604.98 1069.33 476.31 1246.27 502.85 1107.80 606.45 1065.51 697.78 1197.87 718.84
00056297 00000112 990.79 235.13 432.08 605.88 1069.98 475.54 1247.36 502.95 1108.05 604.94 1065.10 696.10 1197.26 717.72
00056298 00000113 991.38 236.25 432.26 607.68 1070.50 477.57 1246.74 505.80 1107.61 608.67 1065.68 698.88 1196.73 721.32
00056299 00000114 991.45 235.69 435.79 619.59 1068.31 484.75 1248.41 509.76 1109.02 611.87 1072.46 708.28 1195.17 728.66
00056300 00000115 993.33 247.70 430.25 601.41 1072.24 484.40 1245.89 511.29 1106.34 612.26 1069.85 706.57 1196.70 728.59
00056301 00000116 991.38 241.71 430.64 605.14 1070.16 480.18 1246.08 506.76 1107.18 609.98 1067.00 702.15 1196.38 723.76
00056302 00000117 991.23 243.71 431.40 602.79 1069.38 477.45 1245.95 503.92 1106.41 609.24 1066.09 699.41 1197.34 720.84
00056303 00000118 989.78 239.44 431.31 606.03 1067.63 480.34 1245.62 507.04 1105.26 612.24 1066.14 702.59 1197.86 724.04
00056304 00000119 986.48 245.79 428.99 601.58 1066.25 486.99 1239.35 516.78 1098.64 617.62 1065.03 706.38 1191.62 730.33
00056305 00000120 979.83 254.15 429.67 595.28 1063.50 493.98 1234.59 526.31 1096.19 625.99 1062.51 709.05 1187.74 735.33
00056306 00000121 977.40 256.85 429.95 594.50 1061.03 499.03 1232.04 530.48 1095.42 628.63 1061.74 714.77 1183.81 740.71
00056307 00000122 977.37 262.20 427.96 589.64 1060.39 501.65 1231.36 532.57 1095.80 630.44 1061.52 717.73 1182.24 743.43
00056308 00000123 976.13 260.88 429.71 591.07 1060.38 500.73 1231.22 531.30 1095.86 628.77 1061.22 716.36 1182.12 741.77
00056309 00000124 976.69 251.84 427.98 596.16 1059.91 495.80 1230.42 527.09 1094.52 626.74 1060.10 710.93 1182.38 736.50
CROP_BBOX: 736 0 1652 986
