Video ID: 	kXqShnKh8Os
H: 	1080
W: 	1920
FPS: 	29.97002997002997

FRAME INDEX X0 Y0 W H [Landmarks (5 Points)]

00001930 00000000 618.04 182.53 376.77 516.77 737.14 404.60 914.27 367.61 871.02 472.02 786.29 586.16 938.19 555.30
00001931 00000001 617.28 182.85 377.88 516.06 733.97 405.25 912.50 367.64 867.35 471.21 784.98 586.10 938.03 554.45
00001932 00000002 611.21 183.41 381.35 515.35 726.25 409.22 906.74 372.29 856.39 475.43 775.87 586.64 932.71 555.34
00001933 DELETE   604.96 185.24 384.25 513.02 716.80 413.21 898.75 382.85 840.93 477.85 761.05 585.33 921.50 559.76
00001934 DELETE   592.00 184.24 391.61 517.68 699.93 413.33 882.08 381.26 817.46 480.98 745.07 587.82 905.92 560.19
00001935 00000005 575.98 188.40 404.21 521.00 681.84 406.74 864.53 374.55 796.21 476.85 735.29 590.64 891.34 562.31
00001936 DELETE   565.91 189.73 405.98 523.23 665.53 405.75 849.48 377.08 774.52 481.29 716.43 586.89 878.00 562.40
00001937 DELETE   555.40 191.69 409.80 519.56 655.34 399.36 842.81 376.02 761.01 479.63 701.56 582.37 865.91 562.82
00001938 DELETE   550.11 190.72 409.71 517.86 644.07 395.76 831.95 373.60 742.97 473.86 688.19 579.33 853.74 560.37
00001939 00000009 545.80 188.20 408.55 518.26 635.12 392.90 819.73 370.57 728.90 472.93 678.15 577.56 841.10 558.48
00001940 00000010 542.56 183.55 409.04 517.46 631.59 387.50 813.44 365.94 722.81 465.78 672.71 570.43 833.57 552.02
00001941 00000011 543.43 179.47 408.11 518.12 629.25 383.42 810.69 361.71 719.13 459.82 669.68 565.60 830.88 546.96
00001942 00000012 544.11 176.76 408.25 519.00 629.12 380.82 810.05 359.26 718.32 457.25 669.30 562.93 831.38 544.31
00001943 00000013 545.47 175.51 407.62 519.66 631.40 379.03 812.00 358.21 720.88 455.27 669.89 560.58 834.04 542.44
00001944 00000014 547.27 174.22 406.84 521.52 633.91 377.01 814.13 356.88 722.98 453.90 671.72 559.65 836.01 542.02
00001945 00000015 548.34 172.54 406.45 522.86 635.91 376.17 815.57 356.58 724.69 453.28 673.70 559.55 837.03 542.41
00001946 00000016 550.04 171.35 406.44 521.04 638.77 374.53 819.32 356.57 726.74 451.29 675.73 558.04 837.85 542.03
00001947 00000017 552.43 169.53 406.18 521.55 641.89 372.94 822.61 356.29 729.08 450.78 677.01 556.30 839.20 541.28
00001948 00000018 555.45 167.89 405.47 521.60 644.19 372.76 824.93 355.54 730.37 449.17 678.26 556.99 839.59 541.63
00001949 00000019 557.28 166.74 405.66 520.57 645.43 372.06 827.14 355.02 730.70 448.94 678.81 558.56 839.51 543.32
00001950 00000020 557.94 165.23 406.32 517.71 645.68 371.41 828.69 354.03 732.05 448.39 680.02 558.28 840.01 542.56
00001951 00000021 560.40 164.74 405.49 516.91 648.66 371.31 830.97 353.26 735.48 448.25 682.90 558.02 842.13 541.73
00001952 00000022 563.66 162.93 404.71 517.17 651.74 371.07 833.79 351.86 739.42 448.56 687.59 559.19 843.44 541.67
00001953 00000023 564.74 163.24 405.52 516.70 654.23 369.66 836.71 350.22 743.75 448.44 690.92 558.44 846.21 540.49
00001954 00000024 566.09 163.43 405.25 517.68 656.38 369.52 838.05 349.77 746.34 449.04 693.44 559.11 847.59 540.85
00001955 00000025 567.65 163.93 404.84 520.01 658.38 368.86 839.62 350.47 747.57 449.31 695.06 560.20 848.33 543.03
00001956 00000026 570.07 162.58 403.61 522.76 659.39 367.94 840.95 350.24 747.58 449.06 695.44 561.65 847.08 545.05
00001957 00000027 570.50 162.80 403.68 523.56 659.98 366.40 840.58 348.88 748.14 449.41 696.60 561.95 842.77 545.87
00001958 00000028 569.86 161.96 404.42 525.49 659.35 365.69 838.76 347.74 747.49 449.50 697.78 562.75 839.50 546.65
00001959 00000029 569.45 160.58 404.46 528.05 658.48 364.42 837.61 346.00 747.13 448.89 697.80 562.81 837.48 546.57
00001960 00000030 569.27 160.44 405.17 529.91 658.48 363.05 836.45 344.64 746.31 447.54 698.52 562.70 833.31 546.80
00001961 00000031 569.28 159.97 405.29 530.00 657.83 363.33 835.01 345.31 744.53 447.00 697.90 563.07 830.04 547.67
00001962 00000032 568.84 161.08 405.68 529.74 656.78 362.94 832.83 345.29 742.29 446.89 696.11 562.26 826.68 547.34
00001963 00000033 568.87 162.11 404.14 527.91 655.02 362.28 829.09 345.79 737.86 446.38 693.00 561.60 821.56 547.93
00001964 00000034 567.76 162.63 403.82 527.91 653.05 362.11 826.70 346.00 735.06 445.63 691.31 561.29 820.04 548.05
00001965 00000035 568.37 163.26 402.03 531.74 651.63 363.38 826.15 345.95 732.82 444.38 689.92 563.17 821.35 549.08
00001966 00000036 569.29 164.26 401.41 535.41 652.31 365.37 827.32 347.10 731.68 443.68 689.58 562.62 828.38 547.62
00001967 00000037 570.20 163.87 402.26 531.51 653.34 366.89 829.86 347.61 733.18 444.35 689.50 561.31 833.89 545.05
00001968 00000038 570.35 162.12 404.82 528.17 653.56 367.84 831.17 347.78 734.32 445.27 690.28 559.79 834.79 542.47
00001969 00000039 568.33 160.37 408.84 525.70 654.65 364.36 832.43 344.73 738.46 444.26 693.24 557.13 831.24 539.92
00001970 00000040 566.57 158.68 409.61 521.99 652.95 362.04 830.51 344.15 735.23 442.40 690.50 556.26 823.88 540.77
00001971 00000041 561.02 157.92 411.05 519.75 640.69 360.64 819.98 345.56 718.57 443.13 677.30 556.82 808.36 544.05
00001972 DELETE   556.04 158.92 406.09 519.83 618.62 362.89 793.76 345.28 682.46 439.01 651.71 557.65 783.42 543.21
00001973 DELETE   547.88 155.56 402.88 537.53 592.04 365.22 761.75 348.38 632.54 439.83 624.74 562.40 751.48 547.85
00001974 DELETE   531.03 156.69 398.48 533.08 577.75 366.59 738.15 347.19 613.27 439.95 612.37 560.22 733.51 542.64
00001975 00000045 526.38 150.77 395.90 534.50 574.54 361.66 731.38 349.78 604.61 438.34 605.76 554.85 725.78 543.25
00001976 00000046 526.44 150.66 382.49 527.39 567.08 363.94 724.08 345.22 595.44 437.78 592.46 553.19 724.68 538.51
00001977 00000047 533.90 146.06 384.87 529.85 576.62 359.57 731.34 344.79 601.00 434.97 608.88 551.44 725.84 537.69
00001978 00000048 539.08 143.23 388.82 530.69 582.75 357.03 738.07 340.52 603.78 427.97 611.16 549.28 729.54 534.53
00001979 00000049 547.14 138.85 386.04 534.68 587.81 356.63 746.42 339.52 607.67 424.66 614.16 549.27 735.61 534.28
00001980 00000050 552.20 139.83 387.49 534.97 593.05 355.51 753.04 339.90 616.26 426.68 617.46 549.16 742.23 535.70
00001981 00000051 555.59 137.77 392.62 536.44 599.79 350.47 759.91 335.97 627.05 423.70 624.02 546.58 750.43 534.30
00001982 00000052 559.40 134.04 393.96 539.22 606.95 345.71 769.40 332.28 637.93 423.36 630.09 544.60 760.34 533.36
00001983 00000053 563.92 134.15 391.99 540.11 614.12 342.65 779.85 332.09 647.86 425.83 635.04 544.13 770.59 535.17
00001984 00000054 566.66 133.21 394.98 541.58 619.05 341.73 788.42 333.92 657.51 428.51 638.84 542.84 777.49 536.09
00001985 00000055 570.51 134.18 396.28 540.92 624.27 341.67 795.07 336.16 665.84 429.36 643.66 543.31 778.49 538.53
00001986 00000056 571.77 135.91 397.64 535.89 627.21 343.53 799.80 337.25 674.41 427.74 648.45 542.64 775.63 537.44
00001987 00000057 571.72 134.98 397.39 533.47 628.14 343.80 802.20 336.67 677.27 425.96 648.20 540.59 777.70 534.74
00001988 00000058 573.14 136.94 400.05 532.56 638.91 350.66 804.36 339.76 682.10 422.78 660.27 540.98 782.00 531.20
00001989 00000059 572.78 138.90 405.61 531.75 641.14 353.31 808.88 339.47 688.58 423.58 667.86 543.11 791.24 530.71
00001990 00000060 570.81 138.27 404.33 533.79 643.96 348.09 817.88 337.90 700.44 426.90 666.53 539.38 808.17 531.37
00001991 00000061 576.08 138.67 402.14 533.16 651.65 350.08 824.32 340.76 710.37 429.16 674.64 539.83 813.14 532.74
00001992 00000062 580.08 138.41 404.23 532.39 660.29 352.30 829.95 342.45 720.88 431.27 683.60 541.96 814.66 534.91
00001993 00000063 587.04 144.82 398.63 531.88 660.77 351.37 837.96 335.89 730.33 431.52 688.07 548.61 818.38 536.96
00001994 00000064 591.02 145.68 399.23 533.30 667.83 351.19 847.16 338.23 741.22 432.42 694.75 549.38 828.09 539.38
00001995 00000065 593.83 144.05 398.80 531.66 673.69 349.68 857.45 336.50 752.48 430.77 702.45 548.32 840.84 537.45
00001996 00000066 596.65 141.97 398.65 526.58 678.61 348.77 865.31 335.33 761.59 428.95 707.93 545.26 851.17 533.47
00001997 00000067 595.97 137.67 406.59 531.79 691.29 345.67 874.70 338.36 777.15 422.51 720.71 540.39 860.07 533.92
00001998 00000068 599.18 135.33 403.92 525.62 696.67 341.47 883.63 335.19 788.12 419.83 724.29 538.15 869.02 532.59
00001999 00000069 602.37 140.48 403.90 520.62 708.80 344.63 898.86 339.18 806.82 421.05 735.36 539.72 882.09 534.54
00002000 00000070 609.75 145.42 404.59 518.41 719.97 343.16 912.36 341.98 818.19 426.55 752.49 538.82 902.10 537.25
00002001 00000071 626.01 147.90 396.67 517.21 738.98 347.12 923.65 342.81 842.32 430.00 765.77 543.84 908.61 538.65
00002002 00000072 630.21 150.42 392.55 519.65 749.74 347.81 932.33 343.21 857.15 428.99 778.72 544.26 919.97 538.84
00002003 00000073 631.54 150.87 388.45 521.38 754.09 350.63 936.31 345.65 866.39 427.71 785.86 545.21 928.64 539.48
00002004 00000074 630.00 153.86 387.28 519.60 753.41 351.62 933.99 345.79 866.59 430.19 787.35 547.12 927.35 540.67
00002005 00000075 628.48 158.97 385.94 517.31 751.42 352.20 929.66 344.97 864.32 431.22 786.13 549.24 920.52 541.93
00002006 00000076 626.89 161.06 382.61 520.27 748.91 353.02 924.54 343.13 862.84 432.03 786.58 553.70 916.53 544.48
00002007 00000077 614.49 154.74 386.80 526.79 739.77 358.40 923.15 352.93 854.76 441.93 776.72 551.58 921.58 546.85
00002008 00000078 612.05 156.88 388.82 526.22 733.04 361.13 919.51 351.51 849.84 444.88 776.31 555.18 926.47 546.67
00002009 00000079 610.33 158.72 391.05 525.55 731.74 364.87 918.49 352.53 848.67 448.40 776.71 556.78 928.57 546.12
00002010 00000080 610.76 160.32 390.68 523.73 732.81 367.14 919.62 354.06 850.33 450.71 777.70 558.36 929.06 547.02
00002011 00000081 613.42 159.77 388.34 523.57 735.83 368.18 924.31 355.49 854.62 449.82 778.95 559.54 930.87 548.44
00002012 00000082 621.56 165.95 382.78 522.97 740.79 366.10 921.69 353.14 859.50 443.04 781.65 565.20 927.46 553.76
00002013 00000083 620.93 164.79 384.47 525.27 741.28 364.28 924.23 353.33 861.01 443.15 777.86 562.89 928.82 553.18
00002014 00000084 621.54 158.61 384.84 526.26 743.71 360.69 925.98 348.59 864.41 439.60 779.61 559.08 931.85 548.27
00002015 00000085 615.89 149.05 391.13 529.62 738.66 358.71 934.85 348.54 863.70 433.50 778.79 550.76 942.22 541.60
00002016 00000086 615.06 147.28 393.28 527.85 736.90 358.36 931.41 345.80 862.05 432.21 781.33 549.37 942.04 538.12
00002017 00000087 614.74 147.72 394.64 527.00 735.26 359.03 929.25 344.96 860.06 431.21 781.14 549.10 941.88 536.56
00002018 00000088 614.23 149.13 394.36 525.48 735.62 361.32 929.22 345.84 861.15 431.79 782.59 549.89 942.64 536.14
00002019 00000089 613.99 151.51 393.58 523.84 736.84 362.94 931.14 346.74 863.32 434.03 783.50 551.03 944.50 536.63
00002020 00000090 615.88 155.47 390.96 520.63 739.03 367.00 931.62 349.03 865.41 438.29 786.65 553.63 946.43 537.74
00002021 00000091 615.84 158.09 390.77 518.86 740.03 371.55 929.90 351.74 865.77 442.61 788.28 554.94 946.52 537.47
00002022 00000092 615.42 161.49 391.14 517.13 741.07 375.77 928.38 352.92 866.61 445.80 790.77 557.12 947.10 537.20
00002023 00000093 622.06 167.70 387.32 518.85 744.75 375.09 921.10 349.32 869.79 444.82 797.03 565.78 943.37 543.77
00002024 00000094 625.21 170.23 384.78 520.33 746.26 379.43 920.81 351.40 871.11 448.57 800.77 570.90 944.25 547.15
00002025 00000095 626.10 170.44 385.16 521.68 750.20 381.84 920.97 353.64 874.77 453.76 806.52 573.57 943.75 549.80
00002026 00000096 629.88 171.23 382.11 520.79 753.16 383.54 922.53 355.02 877.83 455.11 810.29 573.46 946.84 549.37
00002027 00000097 632.51 171.04 380.26 524.40 755.83 383.65 924.60 354.99 882.40 456.86 813.34 577.08 948.25 553.01
00002028 00000098 632.74 172.15 381.89 526.21 757.52 383.43 924.91 355.42 883.90 456.33 812.88 576.62 948.16 553.25
00002029 00000099 632.82 171.57 380.60 526.45 757.45 384.65 924.80 356.27 884.23 457.20 813.98 578.82 948.33 555.21
00002030 00000100 633.63 173.59 379.63 522.41 757.80 386.31 924.19 357.88 883.16 456.74 816.50 579.03 948.22 555.29
00002031 00000101 633.99 175.12 379.50 519.41 758.33 386.59 923.59 357.75 883.42 457.03 819.04 578.53 948.24 554.44
00002032 00000102 632.89 175.18 380.72 520.59 758.52 385.93 923.51 357.37 883.49 457.24 820.70 578.52 948.28 554.56
00002033 00000103 634.67 174.32 379.67 522.38 759.51 386.15 923.66 357.41 883.86 457.52 822.04 578.86 948.75 554.61
00002034 00000104 636.23 174.05 379.06 522.64 760.50 385.98 924.06 357.46 884.44 458.41 822.30 578.62 948.31 554.52
00002035 00000105 638.32 174.06 379.65 523.38 761.07 386.60 925.03 357.63 885.28 458.67 822.88 579.26 949.72 554.67
00002036 00000106 640.63 173.54 380.37 524.37 761.09 387.39 926.79 357.05 886.30 458.73 823.02 580.09 952.81 554.23
00002037 00000107 641.64 175.12 380.62 524.10 761.43 387.76 927.91 357.52 887.09 459.51 823.33 580.89 954.15 555.05
00002038 00000108 641.91 175.97 380.84 525.30 761.70 388.06 928.22 357.71 888.16 460.51 823.33 582.33 955.09 556.44
00002039 00000109 642.32 175.61 380.71 526.67 761.29 390.55 927.58 359.21 887.88 461.83 823.74 583.66 956.08 556.93
00002040 00000110 641.76 176.60 379.57 524.08 759.96 391.66 927.63 360.02 886.40 461.97 822.87 583.76 956.44 556.77
00002041 00000111 640.01 177.27 379.47 524.20 757.65 392.41 926.31 360.74 884.57 463.23 821.41 584.67 956.31 557.62
00002042 00000112 636.75 177.53 378.98 523.66 755.48 391.30 924.51 360.86 882.41 464.93 818.39 585.06 952.88 559.20
00002043 00000113 632.55 177.53 381.49 530.91 752.11 389.97 922.91 360.42 879.06 467.73 812.73 586.22 951.09 561.32
00002044 00000114 629.28 178.70 382.95 532.69 747.55 393.20 922.77 364.65 875.62 469.80 803.68 586.74 950.88 562.92
00002045 00000115 624.63 179.52 386.81 536.38 743.57 395.94 920.92 366.97 872.79 471.35 797.72 588.19 951.26 563.91
00002046 00000116 621.56 180.64 389.21 541.31 738.81 396.12 918.18 366.83 868.36 471.00 790.70 587.78 951.88 563.51
00002047 00000117 619.43 180.85 390.22 542.87 735.83 395.34 915.47 366.34 864.06 469.80 788.14 587.94 950.23 563.89
00002048 00000118 619.74 180.16 388.10 542.68 735.31 395.22 913.57 365.16 863.45 469.07 789.84 588.66 949.10 563.88
00002049 00000119 618.56 179.45 390.98 537.63 736.36 396.46 915.42 364.76 865.94 469.31 792.59 586.75 950.99 560.38
00002050 00000120 618.88 181.27 392.36 528.47 737.80 398.49 916.61 363.73 868.05 469.88 795.25 585.78 950.50 556.74
00002051 00000121 619.92 182.41 394.11 521.46 739.40 402.77 916.83 363.78 870.84 470.97 799.29 585.88 953.42 553.00
00002052 00000122 622.32 183.77 392.47 519.68 741.41 405.51 915.96 363.18 873.32 472.84 805.65 588.70 955.53 552.86
00002053 00000123 623.00 184.53 391.27 518.33 744.12 405.39 915.48 361.61 876.92 473.09 812.61 590.06 956.18 553.05
00002054 00000124 622.44 185.99 391.16 514.87 744.31 404.31 912.61 359.78 874.80 474.49 816.61 590.05 954.21 552.48
00002055 00000125 618.24 186.49 391.09 517.29 739.98 405.21 908.81 360.02 869.99 476.29 812.72 591.10 951.65 553.46
00002056 00000126 611.94 187.47 392.39 519.55 734.18 406.08 903.13 361.11 862.74 477.99 806.97 592.95 946.12 555.93
00002057 00000127 605.19 188.78 394.72 521.95 726.43 408.47 899.10 361.98 856.89 478.59 796.73 594.89 943.08 557.01
00002058 00000128 602.68 190.73 388.13 517.43 723.42 417.97 894.24 366.96 859.04 474.93 787.11 594.36 933.74 550.96
00002059 00000129 601.79 189.81 386.55 518.20 721.07 417.73 891.02 366.46 855.95 474.38 785.40 594.24 931.50 550.60
00002060 00000130 600.19 189.31 386.11 515.78 720.50 418.30 889.51 365.46 854.49 472.72 786.46 594.07 930.24 548.98
00002061 00000131 599.21 188.99 385.08 513.93 720.21 419.39 888.90 365.80 854.72 472.27 786.80 594.03 929.28 548.27
CROP_BBOX: 361 0 1188 841
