Video ID: 	5qlvTOv1Pps
H: 	1080
W: 	1920
FPS: 	25.0

FRAME INDEX X0 Y0 W H [Landmarks (5 Points)]

00000040 00000000 941.72 197.82 335.79 518.95 1078.21 430.61 1224.38 403.69 1194.38 544.61 1110.68 602.83 1232.46 581.20
00000041 00000001 947.96 199.94 338.39 518.30 1083.16 433.35 1231.90 405.04 1200.65 547.22 1114.92 604.46 1239.57 582.05
00000042 00000002 955.11 203.33 336.95 514.03 1083.75 434.81 1235.60 405.70 1202.23 549.16 1116.08 605.19 1243.32 582.32
00000043 00000003 961.17 202.42 337.38 513.60 1083.74 436.44 1239.44 405.99 1204.25 549.16 1117.29 605.02 1248.51 581.34
00000044 00000004 966.25 203.86 338.37 514.23 1089.50 437.57 1245.81 407.10 1210.96 552.00 1122.34 608.05 1253.78 584.42
00000045 00000005 968.79 202.18 339.85 517.70 1092.48 436.65 1249.05 407.30 1212.34 553.17 1123.13 607.29 1255.18 584.78
00000046 00000006 967.73 201.47 342.01 518.54 1094.01 434.10 1249.88 406.52 1212.58 554.09 1122.23 606.31 1253.05 585.44
00000047 00000007 963.84 199.55 341.25 518.74 1091.05 432.66 1246.91 405.29 1210.37 553.38 1118.31 605.11 1248.87 584.31
00000048 00000008 958.19 198.90 339.90 518.69 1089.11 430.16 1239.54 407.75 1203.41 551.51 1115.30 602.80 1239.16 585.67
00000049 00000009 949.96 194.85 338.97 522.26 1081.52 428.88 1233.64 408.88 1193.81 549.00 1107.90 603.64 1232.11 588.07
00000050 00000010 936.85 195.87 342.55 522.69 1073.00 424.48 1224.48 405.47 1183.96 552.35 1097.38 602.97 1221.86 587.47
00000051 00000011 923.41 199.14 340.71 520.11 1061.48 424.36 1209.43 404.79 1171.78 550.45 1084.30 601.43 1206.19 586.90
00000052 00000012 905.53 190.62 351.61 530.48 1043.26 426.62 1198.14 407.30 1161.45 546.73 1061.88 598.92 1197.74 585.44
00000053 00000013 896.41 196.18 345.82 520.41 1025.64 426.75 1182.09 405.11 1141.98 550.28 1046.62 598.92 1180.65 583.45
00000054 DELETE   882.38 194.77 339.06 521.12 1015.82 427.54 1166.63 407.24 1129.56 549.47 1037.57 599.40 1163.23 584.40
00000055 00000015 863.96 194.04 340.73 524.28 1004.51 425.61 1152.72 405.91 1115.23 548.78 1026.48 601.15 1150.01 585.35
00000056 00000016 848.23 197.98 342.45 520.13 989.14 422.04 1137.09 400.68 1100.65 545.95 1011.27 596.94 1137.22 581.14
00000057 DELETE   832.89 191.22 348.92 529.79 975.95 423.66 1125.33 400.62 1096.60 539.80 993.13 595.61 1125.69 579.77
00000058 00000018 825.22 194.19 343.61 521.39 959.07 421.28 1109.87 400.91 1074.82 539.73 980.75 593.69 1109.58 579.42
00000059 00000019 813.53 190.06 343.13 523.85 948.82 422.09 1100.63 397.78 1066.33 540.17 971.93 593.88 1101.40 576.16
00000060 00000020 803.73 188.38 339.55 524.83 941.61 423.35 1091.24 400.66 1057.44 540.47 968.50 597.96 1089.31 580.85
00000061 00000021 795.45 189.17 337.75 522.97 935.77 421.05 1082.10 399.85 1046.37 539.10 959.64 595.84 1078.57 579.60
00000062 00000022 787.11 192.97 339.40 519.53 927.02 418.18 1075.12 397.67 1038.36 537.39 951.47 594.88 1072.78 578.93
00000063 00000023 780.62 195.39 338.85 518.17 919.29 417.39 1066.56 395.88 1031.60 536.95 941.83 592.61 1066.74 576.69
00000064 00000024 773.57 199.63 341.89 513.81 913.32 418.02 1062.17 395.40 1026.60 540.13 935.42 591.56 1064.72 574.62
00000065 00000025 769.64 200.08 344.18 513.78 909.24 420.27 1060.34 397.37 1023.80 542.85 932.31 592.41 1064.49 575.04
00000066 00000026 767.43 191.12 349.90 531.10 908.25 421.45 1061.70 396.13 1030.92 541.38 924.33 593.24 1067.26 576.19
00000067 00000027 765.92 191.72 350.84 531.28 906.29 422.66 1061.30 397.47 1030.63 544.40 921.33 594.12 1066.35 577.17
00000068 00000028 766.23 192.97 350.90 530.73 906.37 423.31 1061.73 398.51 1030.99 545.29 921.85 594.98 1066.96 578.22
00000069 00000029 766.37 192.61 350.68 531.14 907.08 423.72 1061.55 398.90 1031.28 544.88 923.41 595.75 1067.36 578.87
00000070 00000030 766.04 193.06 351.08 531.07 907.36 423.95 1062.66 399.26 1032.28 546.73 923.93 597.41 1067.59 580.59
00000071 00000031 766.92 201.31 344.38 516.80 907.09 423.03 1061.38 399.23 1025.48 547.22 931.41 598.45 1065.23 580.53
00000072 00000032 767.33 201.63 345.15 517.46 907.98 423.02 1061.90 398.93 1027.07 547.63 932.58 598.75 1066.28 580.61
00000073 00000033 768.82 201.27 343.63 517.82 908.50 422.79 1063.00 398.44 1028.73 547.07 933.37 599.03 1066.97 580.95
00000074 00000034 768.95 201.77 344.04 517.54 909.56 423.27 1063.75 398.53 1029.83 547.57 934.84 599.28 1067.96 580.84
00000075 00000035 770.08 202.00 344.71 516.82 911.08 423.64 1063.99 398.83 1030.88 547.41 936.31 599.68 1067.76 581.09
00000076 00000036 771.12 202.28 345.53 517.13 912.71 425.08 1065.56 400.16 1032.40 548.27 937.50 600.63 1067.70 581.94
00000077 00000037 771.61 203.07 346.79 517.42 914.44 424.77 1067.11 400.14 1033.85 549.09 939.26 602.19 1067.39 583.59
00000078 00000038 772.67 202.38 346.72 519.68 915.41 425.83 1068.60 401.11 1035.82 548.86 941.16 604.12 1068.81 585.46
00000079 00000039 774.29 202.24 346.22 521.00 916.55 426.48 1070.47 402.16 1037.40 550.15 941.70 605.47 1068.77 587.14
00000080 00000040 775.39 201.35 345.87 522.59 918.13 427.18 1071.90 403.83 1038.30 551.03 943.01 606.57 1069.15 588.94
00000081 00000041 777.23 200.95 345.60 523.86 919.25 428.20 1073.12 404.56 1039.10 552.59 943.92 607.01 1070.78 589.24
00000082 00000042 779.08 201.09 345.44 524.10 919.98 428.96 1074.82 405.27 1040.63 552.82 944.34 607.43 1071.93 589.73
00000083 00000043 780.33 200.14 346.79 525.19 922.12 429.72 1076.13 405.98 1041.56 552.90 946.79 608.61 1073.55 590.53
00000084 00000044 781.25 200.40 347.49 525.10 924.54 430.15 1078.09 406.55 1043.51 554.33 949.34 609.75 1074.47 591.39
00000085 00000045 782.72 200.34 347.53 525.74 927.17 430.17 1079.05 407.17 1044.80 554.43 952.11 610.28 1075.27 591.89
00000086 00000046 785.00 200.07 347.37 526.36 928.50 431.41 1080.68 408.06 1046.03 554.20 953.03 610.44 1077.55 591.74
00000087 00000047 785.79 200.89 348.47 525.32 930.01 431.85 1082.61 408.71 1047.07 554.21 954.56 610.90 1078.08 592.37
00000088 00000048 787.42 200.88 348.14 525.31 930.80 432.36 1083.75 409.02 1048.22 553.74 955.42 611.29 1079.31 592.61
00000089 00000049 790.02 201.36 347.19 525.60 932.01 433.15 1085.14 409.82 1049.10 553.20 955.78 611.79 1079.83 593.29
00000090 00000050 790.88 203.15 347.08 523.63 933.41 433.48 1086.33 410.13 1050.23 553.67 956.66 611.51 1080.73 593.12
00000091 00000051 793.12 204.93 346.12 522.00 935.24 433.81 1088.16 410.21 1052.59 554.55 957.65 611.24 1082.09 592.94
00000092 00000052 795.51 206.29 345.71 521.24 937.20 435.10 1089.58 411.50 1054.33 556.03 959.01 611.46 1083.10 593.21
00000093 00000053 796.48 206.38 345.80 523.58 938.31 436.92 1090.28 413.19 1055.91 557.59 960.40 612.52 1085.34 594.22
00000094 00000054 798.51 207.68 346.00 521.68 940.12 437.61 1092.54 413.15 1058.10 557.73 964.42 613.39 1088.55 594.48
00000095 00000055 801.65 209.51 346.28 522.29 942.26 439.67 1095.21 414.71 1060.71 558.72 966.04 613.67 1092.90 594.57
00000096 00000056 805.67 209.99 346.26 523.02 944.26 441.70 1097.10 416.62 1062.94 558.97 966.48 612.24 1097.18 593.36
00000097 00000057 809.59 210.65 345.86 523.65 946.35 442.92 1098.56 417.56 1065.46 559.96 967.48 612.28 1100.22 593.38
00000098 00000058 812.57 211.41 345.43 524.88 947.90 444.11 1099.39 417.75 1067.12 561.11 967.93 612.75 1102.21 593.21
00000099 00000059 815.17 212.15 343.86 526.07 949.25 445.37 1099.30 419.94 1067.48 562.86 967.71 613.28 1102.19 594.62
00000100 00000060 816.04 213.05 344.07 525.59 950.61 447.13 1100.47 421.29 1068.72 563.93 968.81 614.20 1103.24 595.22
00000101 00000061 817.63 212.86 343.85 526.36 951.83 447.81 1100.59 422.12 1069.10 564.44 970.45 614.99 1103.53 596.02
00000102 00000062 820.06 213.16 343.96 525.84 952.91 448.48 1102.42 421.93 1070.38 564.62 972.19 616.74 1104.71 597.14
00000103 00000063 820.25 212.22 345.94 527.56 953.84 448.91 1103.63 422.46 1071.50 564.05 972.49 617.51 1105.08 598.09
00000104 00000064 821.12 212.83 346.13 527.81 954.98 450.06 1104.39 422.91 1072.93 564.70 973.29 618.37 1105.95 598.45
00000105 00000065 822.07 214.40 346.43 527.60 956.15 451.84 1104.74 424.51 1073.78 565.60 974.85 619.85 1106.89 599.66
00000106 00000066 822.45 215.73 347.35 528.23 957.80 453.34 1105.34 424.97 1074.91 566.73 975.58 620.06 1107.75 599.13
00000107 00000067 823.24 218.10 347.33 528.00 960.51 453.94 1106.81 425.44 1077.44 567.83 977.69 621.06 1108.54 600.04
00000108 00000068 823.79 218.38 347.20 529.42 961.39 454.63 1107.30 426.69 1078.34 568.46 978.38 621.57 1109.44 601.00
00000109 00000069 824.11 217.60 347.69 530.14 962.20 455.11 1109.62 427.33 1080.34 569.35 979.80 622.49 1111.83 601.95
00000110 00000070 825.73 219.01 348.71 530.37 965.10 454.84 1113.34 427.61 1084.57 569.78 982.35 623.60 1114.98 603.47
00000111 00000071 827.37 218.89 350.11 529.73 968.15 452.79 1118.02 425.03 1089.89 569.91 985.27 624.12 1118.13 603.59
00000112 00000072 829.73 218.63 343.13 522.70 974.35 433.86 1126.23 422.35 1085.46 569.01 989.29 620.27 1122.37 612.64
00000113 00000073 832.98 219.33 343.38 522.29 978.82 434.00 1128.28 420.63 1090.78 568.96 992.04 618.79 1124.94 609.79
00000114 00000074 836.72 220.31 342.32 522.18 982.47 434.68 1130.73 417.97 1096.87 569.98 995.77 620.19 1127.81 608.59
00000115 00000075 840.19 220.51 341.70 523.09 984.86 436.42 1132.46 418.24 1099.32 571.11 998.56 621.37 1130.29 608.67
00000116 00000076 844.40 221.00 340.18 523.45 987.41 439.02 1134.79 418.54 1104.22 573.19 1002.13 623.68 1134.21 609.26
00000117 00000077 847.50 219.77 339.97 524.53 989.63 440.58 1137.00 419.12 1107.60 573.92 1004.98 624.34 1137.08 609.14
00000118 00000078 841.92 217.68 349.59 526.13 987.10 447.82 1139.20 425.16 1104.81 569.61 1006.97 617.48 1136.51 599.75
00000119 00000079 843.28 217.77 350.02 528.01 988.92 448.58 1141.17 426.95 1106.11 569.31 1008.41 618.32 1138.28 601.32
00000120 00000080 845.16 216.89 350.97 528.85 991.53 449.53 1144.15 427.67 1108.64 570.52 1010.87 619.32 1141.56 602.05
00000121 00000081 846.34 215.94 352.05 529.54 995.20 449.25 1147.41 427.87 1111.39 570.04 1014.63 621.02 1142.59 604.13
00000122 00000082 848.04 216.05 352.59 529.95 997.23 450.64 1149.35 429.46 1112.97 570.68 1016.69 621.94 1144.10 605.09
00000123 00000083 848.96 217.45 353.87 530.74 1000.11 452.12 1151.42 430.50 1115.62 571.76 1020.26 623.61 1146.31 606.14
00000124 00000084 850.85 215.83 353.73 532.61 1000.50 453.33 1153.26 430.92 1116.90 572.46 1020.85 624.72 1148.29 606.59
00000125 00000085 853.43 216.00 352.08 533.10 1002.25 455.68 1155.31 432.90 1118.86 573.99 1023.28 626.36 1150.67 607.82
00000126 00000086 854.48 216.11 352.71 533.98 1002.64 456.59 1157.08 433.61 1120.09 574.76 1023.84 627.48 1152.38 608.74
00000127 00000087 856.21 217.42 352.39 534.29 1004.08 458.02 1158.98 433.96 1121.86 575.41 1025.10 628.27 1155.14 608.69
00000128 00000088 856.54 215.81 351.65 535.30 1006.17 459.70 1161.11 434.84 1125.12 574.67 1026.13 628.70 1156.38 608.60
00000129 00000089 857.65 217.32 351.43 535.33 1007.00 459.40 1162.27 433.93 1126.94 574.14 1027.27 629.05 1158.29 608.44
00000130 00000090 859.73 217.55 351.22 535.16 1009.16 459.49 1162.74 434.05 1127.85 573.25 1030.85 629.31 1160.09 608.59
00000131 00000091 862.55 217.87 350.93 534.41 1010.58 459.78 1165.46 433.07 1130.77 574.15 1034.02 630.80 1163.08 609.11
00000132 00000092 863.61 218.42 352.08 533.55 1011.96 459.29 1167.79 432.39 1132.89 574.03 1034.81 630.04 1166.24 608.46
00000133 00000093 867.59 220.85 351.62 532.29 1015.38 459.76 1170.43 431.23 1137.53 573.84 1037.99 630.92 1169.71 608.25
00000134 00000094 870.07 221.15 351.86 532.82 1018.27 459.74 1172.23 430.91 1140.31 574.58 1038.20 629.66 1171.80 607.17
00000135 00000095 874.55 223.15 351.10 531.39 1022.35 460.73 1173.51 431.92 1143.90 575.42 1040.61 628.96 1174.06 606.79
00000136 00000096 879.31 220.71 348.97 530.93 1024.27 460.33 1175.09 431.28 1145.69 573.20 1041.76 627.35 1176.48 605.49
00000137 00000097 881.90 221.08 348.45 530.16 1027.27 460.14 1176.79 430.59 1148.78 572.13 1044.74 627.17 1177.91 605.09
00000138 00000098 884.69 220.34 347.61 530.73 1029.87 460.27 1178.23 430.37 1151.09 572.14 1046.73 627.16 1178.99 604.91
00000139 00000099 888.24 219.42 347.78 532.61 1033.39 458.79 1182.18 428.43 1155.67 572.95 1048.58 627.04 1182.47 604.74
00000140 00000100 890.34 218.88 349.00 532.20 1037.45 457.76 1186.12 427.07 1160.35 572.98 1051.27 626.47 1185.05 604.07
00000141 00000101 892.20 218.31 350.32 531.88 1039.72 456.97 1190.47 426.15 1164.76 573.41 1053.15 627.38 1187.48 604.86
00000142 00000102 893.97 216.77 351.22 533.44 1043.40 454.27 1194.39 424.69 1168.83 573.88 1054.98 626.82 1190.00 605.33
00000143 00000103 899.88 217.64 345.46 525.89 1041.83 447.36 1199.53 423.41 1161.98 571.35 1064.00 620.27 1194.23 602.75
00000144 00000104 901.57 215.06 346.05 527.63 1043.47 446.91 1201.34 422.05 1164.19 570.03 1065.09 619.76 1196.37 601.33
00000145 00000105 903.97 215.35 347.19 527.37 1045.32 446.32 1202.59 420.08 1166.12 570.19 1066.45 617.92 1198.41 598.31
00000146 00000106 905.32 215.41 348.98 526.48 1048.81 445.90 1204.11 420.53 1167.60 569.69 1067.97 615.20 1200.68 596.30
00000147 00000107 912.86 217.71 339.15 521.58 1057.29 436.59 1204.02 417.20 1170.07 567.73 1066.39 615.30 1201.15 601.28
00000148 00000108 915.04 219.17 338.70 516.68 1058.62 437.75 1203.96 417.73 1170.47 564.78 1064.08 609.25 1202.29 594.66
00000149 00000109 910.35 218.44 353.54 516.06 1051.08 444.24 1207.94 420.64 1166.84 566.53 1058.31 601.27 1204.94 585.01
00000150 00000110 911.79 218.90 357.02 515.96 1054.06 444.25 1209.72 420.42 1168.43 566.73 1060.82 599.40 1209.29 582.73
00000151 00000111 916.96 217.15 355.10 517.24 1057.65 445.14 1210.48 421.52 1169.61 565.29 1063.22 597.46 1213.43 580.99
00000152 00000112 919.00 213.86 356.68 520.67 1060.47 443.99 1213.09 420.39 1171.46 562.52 1066.88 597.86 1216.89 581.36
00000153 00000113 922.30 213.86 356.16 521.64 1064.56 443.92 1215.57 420.63 1174.77 562.99 1069.60 597.10 1219.50 580.94
00000154 00000114 927.05 212.43 353.76 523.21 1070.17 444.54 1219.63 422.09 1179.24 562.87 1073.20 596.78 1221.66 581.42
00000155 00000115 930.78 211.54 352.92 524.36 1073.38 445.24 1223.89 421.71 1183.72 563.03 1075.15 596.88 1224.95 580.85
00000156 00000116 934.90 213.19 354.90 523.72 1074.94 444.59 1227.68 421.70 1185.78 561.32 1075.89 596.06 1229.01 580.70
00000157 00000117 938.50 215.26 357.33 523.32 1079.00 444.41 1231.86 420.74 1191.37 560.08 1080.01 595.33 1234.55 579.45
00000158 00000118 943.26 215.82 355.77 520.69 1082.34 443.15 1234.84 420.22 1194.34 558.77 1083.36 593.43 1238.55 578.15
00000159 00000119 948.72 217.60 355.65 518.91 1088.76 444.28 1238.94 421.85 1200.63 560.98 1087.11 591.68 1242.54 577.14
00000160 00000120 953.83 218.58 356.88 518.98 1094.54 444.85 1242.57 423.34 1205.35 562.90 1090.00 590.90 1245.18 577.36
00000161 00000121 958.75 218.41 357.77 520.08 1099.17 445.74 1246.57 423.81 1211.02 565.51 1094.95 592.19 1249.18 578.38
00000162 00000122 962.03 218.19 357.26 522.33 1104.18 446.23 1250.61 424.85 1216.67 565.59 1099.75 592.71 1253.69 579.36
00000163 00000123 968.59 216.87 352.81 515.49 1103.99 446.75 1257.27 422.94 1211.34 562.95 1111.52 593.87 1263.50 576.91
00000164 00000124 971.36 216.60 354.28 518.05 1107.27 446.27 1261.82 423.10 1215.83 564.22 1114.06 594.62 1267.49 578.43
00000165 00000125 973.78 219.96 356.26 514.78 1111.34 447.27 1264.34 424.47 1218.97 565.29 1118.93 595.46 1268.50 579.62
00000166 00000126 980.67 220.51 352.04 516.73 1118.48 446.86 1266.27 426.96 1220.10 561.95 1113.93 597.41 1266.97 582.07
00000167 00000127 984.95 219.74 347.77 518.81 1120.48 451.35 1267.55 430.95 1222.03 562.05 1114.82 598.14 1270.07 582.55
00000168 00000128 987.29 220.01 346.60 520.09 1119.02 454.34 1265.70 432.65 1220.70 561.52 1114.84 598.80 1272.12 581.94
00000169 00000129 987.44 219.47 346.98 522.08 1119.40 455.25 1263.74 434.16 1219.30 562.34 1115.87 598.94 1271.75 582.42
00000170 00000130 986.94 219.64 348.18 523.09 1116.14 454.75 1260.47 434.53 1215.68 561.48 1114.11 598.07 1269.84 581.96
00000171 00000131 985.10 221.88 350.72 521.90 1114.95 453.78 1258.93 436.45 1212.83 564.55 1113.09 597.64 1267.07 583.88
00000172 00000132 985.18 222.39 351.70 522.24 1112.88 454.09 1257.87 437.36 1210.51 563.94 1111.84 598.57 1266.51 585.13
00000173 00000133 985.17 222.58 349.48 523.43 1111.60 454.46 1255.78 439.57 1207.98 565.73 1110.20 599.81 1264.15 587.78
00000174 00000134 985.20 225.01 350.50 523.86 1110.10 454.52 1254.81 439.54 1205.44 570.14 1109.47 600.68 1263.27 588.39
00000175 00000135 985.38 225.11 350.34 523.01 1108.42 453.81 1253.91 440.00 1202.77 570.80 1108.99 600.77 1261.04 589.27
00000176 00000136 984.33 223.38 348.41 525.35 1105.89 454.70 1251.35 440.84 1200.39 572.72 1105.85 601.95 1257.43 590.54
00000177 00000137 978.11 223.36 354.44 523.96 1098.02 460.58 1251.65 445.57 1195.67 578.91 1107.77 603.54 1260.20 592.83
00000178 00000138 977.49 226.46 352.83 522.91 1095.56 462.17 1249.03 446.98 1193.07 583.34 1105.18 604.40 1258.55 593.89
00000179 00000139 974.63 230.13 354.02 521.28 1092.13 464.65 1244.79 449.14 1189.51 584.54 1103.02 605.39 1256.95 594.57
00000180 00000140 972.99 232.59 353.43 520.59 1090.19 467.94 1241.01 452.16 1186.97 586.32 1101.95 606.74 1254.12 595.72
00000181 00000141 970.45 233.73 351.99 519.03 1086.84 470.95 1238.64 452.49 1185.87 586.21 1099.72 608.63 1253.76 595.31
00000182 00000142 965.95 235.92 354.98 522.00 1081.65 467.72 1237.84 446.76 1187.64 583.64 1091.14 608.34 1251.03 593.15
00000183 00000143 960.48 235.41 355.27 524.94 1076.14 468.60 1231.83 446.95 1181.69 586.25 1085.15 609.15 1246.01 593.47
00000184 00000144 953.27 234.56 354.07 527.48 1070.83 470.25 1226.49 447.61 1176.39 588.48 1079.21 612.74 1238.91 596.20
00000185 00000145 944.35 234.23 351.34 529.32 1064.47 469.05 1219.12 449.54 1168.82 590.04 1073.43 614.49 1229.22 600.38
00000186 00000146 939.93 233.86 346.99 527.76 1058.12 466.86 1210.68 449.64 1161.75 587.74 1068.23 614.57 1220.43 602.12
00000187 DELETE   933.71 231.07 346.43 521.86 1049.79 463.17 1197.82 439.47 1150.85 579.63 1064.59 614.67 1215.08 595.73
00000188 00000148 923.27 222.47 345.23 528.04 1042.58 458.61 1187.62 439.01 1142.30 571.66 1059.73 613.16 1205.85 597.00
00000189 00000149 913.79 218.37 342.32 530.29 1038.56 451.99 1182.50 436.93 1136.10 561.73 1054.91 613.22 1191.59 600.85
00000190 00000150 903.44 222.05 348.84 532.69 1024.21 467.29 1172.40 441.29 1131.82 568.82 1042.16 618.25 1183.59 598.30
00000191 00000151 897.37 221.44 345.23 532.79 1018.34 465.39 1164.25 440.80 1123.72 567.35 1037.49 618.18 1176.54 599.04
00000192 00000152 886.34 216.20 345.06 536.31 1011.52 462.03 1157.49 440.18 1118.00 562.89 1033.40 619.65 1166.67 602.15
00000193 00000153 872.55 214.21 348.45 538.54 1008.46 454.57 1152.15 435.65 1115.40 559.03 1034.25 622.58 1156.86 606.90
00000194 00000154 861.60 209.27 343.30 539.89 1003.64 449.63 1142.51 434.25 1107.25 559.40 1029.64 622.66 1144.04 609.95
CROP_BBOX: 648 0 1454 878
