Video ID: 	ZswBiyVOAsk
H: 	1080
W: 	1920
FPS: 	25.0

FRAME INDEX X0 Y0 W H [Landmarks (5 Points)]

00000876 00000000 690.29 131.95 399.06 630.01 735.25 377.59 881.98 400.25 735.17 497.39 738.69 587.91 863.67 605.94
00000877 DELETE   687.40 138.01 401.17 624.45 730.53 379.70 879.91 402.16 731.07 506.10 738.17 596.02 865.63 613.26
00000878 DELETE   690.12 145.46 398.74 618.15 727.44 392.56 870.34 406.57 727.46 511.10 742.24 605.72 862.77 615.47
00000879 DELETE   689.82 148.40 397.24 618.76 724.26 395.93 870.63 410.20 727.56 519.50 742.39 609.87 864.01 619.68
00000880 00000004 685.75 146.20 401.49 621.43 721.87 392.84 874.75 407.16 726.14 519.16 739.45 608.41 869.56 618.15
00000881 00000005 688.23 137.72 403.64 627.56 727.52 390.01 883.95 402.84 735.20 513.37 743.37 607.84 873.71 617.13
00000882 00000006 689.29 135.81 411.25 630.48 732.25 388.07 893.91 395.39 747.01 509.04 747.25 610.96 881.19 616.41
00000883 00000007 688.56 137.34 409.54 628.25 732.23 387.63 896.61 390.90 748.55 503.89 746.72 610.62 882.76 612.70
00000884 00000008 685.24 132.82 413.52 632.44 729.54 386.66 893.12 394.25 739.01 501.19 741.62 604.16 880.27 610.34
00000885 00000009 684.08 137.10 404.35 630.27 726.08 385.23 882.99 398.16 734.07 508.64 739.21 602.95 876.41 612.09
00000886 DELETE   689.14 143.48 401.76 631.10 730.71 400.59 879.57 415.86 732.98 514.49 743.12 606.41 876.27 616.49
00000887 DELETE   693.59 151.37 397.62 629.43 732.47 405.65 882.29 422.16 733.97 522.45 747.16 611.55 884.96 622.12
00000888 DELETE   695.96 160.49 402.32 624.83 735.59 407.10 889.86 423.32 743.25 535.19 754.38 617.24 901.61 627.33
00000889 00000013 696.44 166.00 403.53 618.40 736.34 411.01 898.64 420.68 752.38 539.25 759.52 620.72 917.03 625.32
00000890 00000014 697.90 170.40 405.18 617.41 739.03 412.43 901.64 419.50 756.82 541.03 762.63 621.56 922.67 623.99
00000891 00000015 698.86 168.77 407.09 623.03 739.51 411.13 901.42 418.33 754.73 541.36 764.14 622.53 923.63 624.96
00000892 00000016 698.64 169.62 409.58 620.58 738.04 410.15 900.03 419.73 751.46 543.46 763.34 621.78 923.86 625.98
00000893 00000017 704.84 171.21 402.71 618.01 739.43 420.30 898.23 428.52 751.64 544.92 765.68 621.81 924.74 624.78
00000894 00000018 705.02 170.62 400.60 617.84 740.21 428.61 901.07 434.32 759.12 549.28 768.06 622.36 930.84 623.41
00000895 00000019 706.19 172.27 406.74 620.08 741.66 426.02 903.39 429.05 759.66 551.77 770.98 625.74 935.17 624.66
00000896 00000020 705.31 172.87 405.54 619.21 745.46 420.42 911.50 425.82 767.93 550.97 771.80 625.95 937.44 627.01
00000897 00000021 705.84 173.94 411.97 617.80 747.80 417.59 915.87 425.12 769.90 549.23 770.78 625.48 936.48 628.24
00000898 00000022 705.48 171.46 414.27 614.83 746.59 410.67 910.75 424.34 762.19 546.78 768.31 618.89 930.80 626.18
00000899 00000023 705.18 165.96 409.49 617.69 743.77 404.45 904.26 421.38 751.77 541.06 765.87 614.25 924.53 624.07
00000900 00000024 704.97 162.41 403.38 618.99 741.34 398.79 899.67 423.65 744.95 541.62 762.06 609.49 918.51 625.95
00000901 00000025 702.58 163.82 404.60 618.23 740.21 401.24 896.33 429.29 742.49 543.82 759.85 609.69 914.79 628.82
00000902 DELETE   702.84 165.00 401.80 616.25 736.80 413.04 896.34 438.96 742.72 546.54 757.39 614.33 914.93 631.87
00000903 00000027 686.10 165.90 406.29 619.74 730.33 422.40 892.81 450.07 733.00 550.07 740.73 615.05 898.82 632.69
00000904 00000028 693.87 170.32 402.77 607.42 733.42 405.74 890.10 443.11 735.26 547.39 750.96 607.20 905.36 633.97
00000905 00000029 691.22 168.24 399.82 606.15 732.23 401.48 885.05 441.30 729.68 542.21 744.78 602.10 897.04 630.74
00000906 00000030 689.90 165.86 402.36 609.85 729.89 399.79 882.33 439.46 723.80 539.58 741.43 603.10 892.63 631.49
00000907 00000031 688.27 165.05 399.62 612.18 728.81 399.13 880.48 440.11 720.82 539.86 740.14 603.22 890.31 632.76
00000908 00000032 687.11 164.08 401.58 614.26 727.68 398.53 880.07 441.09 719.05 541.19 738.30 603.25 889.54 634.01
00000909 00000033 685.81 165.08 403.26 615.68 727.42 397.77 881.16 443.71 718.50 543.52 737.09 603.24 890.10 636.75
00000910 00000034 685.48 166.33 403.83 615.96 727.76 398.85 882.54 445.70 719.85 544.45 736.10 603.74 890.35 638.13
00000911 00000035 686.51 169.04 402.65 615.79 728.63 399.99 883.66 446.02 720.89 544.73 737.93 606.56 890.59 640.58
00000912 00000036 686.52 170.88 401.07 614.80 729.41 399.48 885.43 446.33 722.45 544.50 737.17 606.38 890.87 641.22
00000913 00000037 686.83 168.25 403.09 617.58 730.10 398.97 886.30 446.48 723.23 543.66 737.17 606.59 889.80 642.09
00000914 00000038 686.90 168.93 402.12 616.21 730.45 398.58 886.80 446.83 724.09 544.27 737.25 606.44 889.65 642.61
00000915 00000039 686.17 168.07 403.45 618.47 730.02 399.51 886.34 447.90 722.90 544.52 735.94 608.23 887.58 644.60
00000916 00000040 686.52 170.52 403.15 616.80 729.72 399.75 886.79 449.96 721.89 546.94 735.73 608.58 888.06 646.27
00000917 00000041 686.74 171.20 403.16 616.57 730.55 400.76 888.34 451.16 723.50 547.93 736.31 609.78 888.46 647.76
00000918 00000042 686.40 172.58 403.79 614.97 730.27 400.74 887.36 450.73 722.42 547.51 736.08 609.83 887.58 647.39
00000919 00000043 686.50 171.99 403.20 615.33 730.74 400.51 886.72 450.70 722.72 546.63 735.26 609.26 885.80 647.10
00000920 00000044 686.48 170.71 402.35 616.70 730.86 400.10 887.12 451.10 723.14 547.23 734.74 609.50 884.73 648.00
00000921 00000045 687.09 170.36 403.93 615.96 732.70 399.74 888.99 451.88 724.43 546.88 734.41 609.58 882.23 649.26
00000922 00000046 688.47 171.87 403.07 613.10 733.97 400.16 890.77 451.18 727.75 547.03 735.05 610.95 880.68 650.01
00000923 00000047 688.87 173.44 402.56 610.42 734.78 400.38 891.35 451.33 729.57 546.46 733.46 612.65 874.63 652.05
00000924 00000048 682.93 168.56 403.37 619.44 729.42 401.28 893.08 453.67 724.86 546.50 722.40 615.73 862.58 655.63
00000925 00000049 683.60 171.10 402.36 616.66 729.20 402.72 894.31 454.65 726.24 547.48 722.37 617.49 860.92 657.48
00000926 00000050 685.18 170.28 401.66 617.99 729.52 403.60 894.14 455.30 725.32 546.59 722.54 620.20 856.58 660.43
00000927 00000051 685.83 171.18 401.64 617.05 730.65 404.97 894.72 455.19 726.33 545.49 723.81 621.75 855.33 661.30
00000928 00000052 685.46 170.23 401.90 617.91 730.18 404.51 894.26 454.90 725.85 544.24 722.72 621.75 852.76 661.57
00000929 00000053 692.12 172.98 398.55 609.17 736.26 404.89 891.17 452.96 735.52 544.91 731.40 618.66 857.98 657.03
00000930 00000054 684.65 165.98 401.42 620.10 729.85 401.98 893.18 454.31 724.44 541.85 720.07 619.38 848.68 661.07
00000931 00000055 684.36 164.56 400.59 620.36 728.47 400.30 892.98 452.53 723.66 539.93 718.09 618.79 846.95 660.47
00000932 00000056 683.44 162.81 400.23 621.63 727.42 399.93 892.37 450.85 723.09 538.06 717.03 619.27 845.63 659.98
00000933 00000057 682.00 163.76 402.48 619.99 725.77 398.99 891.14 449.61 721.73 535.86 715.26 617.85 844.61 658.49
00000934 00000058 679.52 163.15 404.06 619.58 724.73 398.37 890.80 449.53 721.90 534.65 713.17 616.72 842.60 657.99
00000935 00000059 678.54 162.69 405.11 619.95 724.27 398.17 890.55 449.25 721.59 533.74 712.12 616.44 841.36 657.74
00000936 00000060 685.11 166.97 398.63 608.46 732.05 397.89 887.93 447.66 733.10 536.66 722.46 612.40 846.00 652.33
00000937 00000061 677.83 161.50 404.49 621.08 724.08 397.12 891.24 449.66 722.44 533.33 709.96 615.71 839.68 658.22
00000938 00000062 683.97 165.60 401.04 608.86 732.06 397.60 886.67 447.92 732.35 533.87 720.73 610.92 842.51 651.42
00000939 00000063 682.95 166.29 400.23 607.66 730.97 395.90 885.04 448.63 729.94 532.91 717.94 608.77 839.28 651.32
00000940 00000064 670.55 159.16 409.00 620.42 719.23 393.96 886.73 450.42 717.50 528.62 702.44 611.27 829.72 657.27
00000941 00000065 669.31 159.11 410.36 619.36 717.76 392.46 884.38 448.66 714.91 524.83 700.83 607.97 828.70 653.73
00000942 00000066 668.76 159.87 405.08 617.04 715.88 390.90 883.22 447.48 714.74 524.86 699.79 606.52 828.20 652.79
00000943 00000067 668.71 158.96 404.51 616.12 716.21 391.77 881.64 448.24 713.21 523.27 699.85 605.22 826.23 651.44
00000944 00000068 679.28 162.08 400.06 608.45 728.15 389.96 876.91 448.06 718.68 526.59 709.42 598.91 828.48 645.92
00000945 00000069 679.50 161.21 397.27 608.99 728.47 389.75 875.89 447.65 717.90 525.48 709.27 598.98 826.50 645.94
00000946 00000070 679.01 161.02 400.28 607.88 727.72 388.56 874.38 445.75 715.96 523.75 708.89 598.72 825.78 644.93
00000947 00000071 678.92 160.62 397.66 608.04 727.21 386.99 872.64 445.51 713.98 524.30 708.53 598.04 823.15 645.47
00000948 00000072 677.38 159.23 396.55 608.69 725.26 385.55 870.76 445.05 712.94 524.43 706.79 597.01 821.17 645.36
00000949 00000073 672.96 156.85 400.25 611.21 722.79 381.29 867.54 444.87 707.87 523.95 702.75 592.75 818.63 644.56
00000950 00000074 670.73 159.39 400.72 609.45 719.58 381.62 865.73 444.60 706.38 524.44 698.65 593.89 814.57 645.45
00000951 00000075 656.27 165.54 414.51 602.47 715.26 385.59 865.12 438.68 699.43 521.26 690.02 599.81 811.89 641.03
00000952 00000076 654.55 165.30 415.39 601.88 710.93 384.41 861.44 434.94 696.17 518.33 686.91 600.54 809.35 639.50
00000953 00000077 647.02 155.03 415.47 610.66 704.48 384.59 859.90 435.63 693.76 514.71 677.67 598.22 804.45 640.18
00000954 00000078 641.89 149.05 421.18 616.60 701.41 380.75 856.98 432.51 689.23 512.02 674.87 595.63 802.06 638.13
00000955 00000079 639.40 147.12 421.99 614.95 695.78 379.12 852.62 428.33 687.69 507.21 671.30 591.84 799.59 632.13
00000956 00000080 647.20 147.09 414.60 612.17 689.27 376.56 851.04 417.24 686.80 508.99 672.27 597.18 805.23 629.37
00000957 00000081 644.87 141.83 418.55 616.61 685.32 373.54 850.49 412.68 684.70 508.91 671.79 597.45 806.15 628.44
00000958 00000082 634.90 135.99 423.85 622.44 684.72 373.41 845.62 412.62 682.48 500.96 670.15 591.90 801.47 623.52
00000959 00000083 632.87 133.33 424.50 626.45 682.46 372.49 844.28 411.50 680.21 501.73 667.75 591.60 800.82 623.02
00000960 00000084 631.64 132.45 426.00 628.04 681.99 373.58 843.66 413.24 679.23 502.98 667.71 591.85 800.49 623.87
00000961 00000085 632.21 136.27 425.64 625.35 681.87 376.42 843.68 415.31 679.19 504.34 666.81 593.81 799.51 625.47
00000962 00000086 641.60 142.50 420.37 620.81 680.16 376.00 846.76 411.53 680.82 509.71 670.05 601.60 805.43 629.74
00000963 00000087 643.07 144.58 418.77 618.95 681.52 377.88 848.30 411.68 683.86 510.38 671.88 603.64 806.35 630.32
00000964 00000088 644.67 146.64 420.07 614.72 684.47 378.85 850.90 413.39 686.90 510.91 674.09 602.93 808.98 629.91
00000965 00000089 637.68 137.48 421.10 623.47 685.22 383.23 851.79 423.61 685.62 504.36 675.17 596.80 808.75 629.21
00000966 00000090 649.52 148.98 420.28 609.74 690.56 384.51 856.21 416.12 692.85 511.77 680.91 604.62 815.43 628.69
00000967 00000091 647.58 143.75 418.82 616.24 695.07 388.32 857.38 421.36 694.94 509.53 683.66 603.54 814.57 630.24
00000968 00000092 649.85 142.80 418.16 618.13 697.96 387.26 860.44 422.79 697.03 509.14 685.36 602.53 816.97 631.20
00000969 00000093 650.71 143.73 415.03 617.55 699.55 387.57 861.30 425.18 698.91 510.44 686.51 601.39 817.92 631.91
00000970 00000094 652.51 144.62 414.43 617.42 701.36 385.12 862.77 423.28 699.42 509.95 687.17 601.19 817.97 632.07
00000971 00000095 651.98 144.26 416.97 617.55 702.42 383.28 864.19 422.69 698.91 508.99 687.41 599.94 818.89 631.79
00000972 00000096 652.77 145.15 415.55 616.04 704.30 381.92 865.18 422.14 699.72 508.32 688.23 598.61 820.25 631.18
00000973 00000097 654.10 144.19 414.92 616.13 705.44 380.50 866.94 422.45 701.27 508.81 689.51 596.95 822.64 630.90
00000974 00000098 656.32 144.10 412.33 615.25 706.07 381.02 868.59 422.10 703.14 509.19 692.21 597.39 825.95 630.74
00000975 00000099 659.37 147.27 410.28 611.20 708.23 382.96 871.06 423.44 706.66 510.57 694.17 597.83 826.35 630.90
00000976 00000100 660.83 147.86 416.51 607.12 711.70 380.97 870.49 419.73 706.06 511.25 695.58 593.97 829.23 623.40
00000977 00000101 656.93 150.12 413.51 609.82 707.11 383.44 871.50 425.21 706.84 508.90 696.06 600.27 822.77 633.61
00000978 00000102 657.21 150.90 412.64 609.71 707.73 383.98 871.57 426.17 707.25 510.33 696.73 600.32 823.93 633.89
00000979 00000103 662.89 152.01 412.39 602.86 714.18 385.17 871.21 421.23 709.07 511.64 698.57 595.09 831.04 622.57
00000980 00000104 663.61 151.96 410.58 602.56 713.77 386.78 870.63 421.67 710.00 511.67 699.37 595.97 831.91 622.52
00000981 00000105 663.66 152.63 410.91 601.22 713.34 387.01 870.80 421.91 709.82 512.01 699.73 596.59 831.84 623.26
00000982 00000106 664.66 154.67 409.85 599.43 714.38 387.60 870.76 422.60 709.73 512.31 700.92 596.22 832.61 623.05
00000983 00000107 665.07 155.03 408.14 599.19 715.47 387.57 871.26 423.35 710.32 512.61 701.70 595.50 833.84 623.00
00000984 00000108 664.89 153.41 410.72 599.47 715.44 385.97 872.37 422.35 710.15 511.94 701.25 593.67 835.31 621.43
00000985 00000109 665.48 149.20 412.66 602.14 714.86 382.91 873.32 419.23 709.45 510.95 701.55 593.12 835.40 620.84
00000986 00000110 665.79 147.36 413.18 603.27 714.53 381.64 873.49 417.78 708.63 510.30 701.75 592.49 836.70 619.94
00000987 00000111 665.50 148.47 413.17 602.29 715.01 381.20 873.25 417.67 708.77 510.48 702.87 591.90 837.28 619.75
00000988 00000112 661.05 148.76 412.08 608.99 710.03 382.72 872.44 424.52 707.93 509.17 701.20 596.45 829.64 629.37
00000989 00000113 660.53 149.17 413.19 609.57 709.72 382.99 872.30 425.00 707.81 509.50 700.82 596.80 829.22 629.93
00000990 00000114 659.91 150.60 413.89 609.95 709.54 385.18 872.51 426.46 707.90 510.96 700.38 598.95 829.29 631.56
00000991 00000115 658.37 154.42 413.41 607.23 708.18 388.40 871.85 429.23 708.63 514.45 699.53 602.31 827.63 634.50
00000992 00000116 656.68 155.87 411.83 607.82 706.16 392.64 870.51 432.93 707.25 516.95 698.29 605.19 827.57 636.92
00000993 00000117 656.84 156.20 412.50 607.90 705.14 394.28 869.69 434.50 706.38 518.69 698.01 607.15 827.21 638.85
00000994 00000118 657.80 158.13 410.96 606.35 705.31 395.17 869.58 434.97 706.20 519.21 698.19 607.56 828.00 638.81
00000995 00000119 659.50 158.07 410.45 605.86 706.56 394.61 870.87 435.16 707.74 520.28 699.40 607.57 828.73 639.40
00000996 00000120 672.38 148.53 401.60 613.92 715.63 387.80 870.24 430.03 716.47 518.77 709.89 597.75 834.26 632.14
00000997 00000121 665.45 154.55 407.00 605.37 713.41 401.87 870.49 433.54 713.33 519.95 704.29 604.51 839.68 628.47
00000998 00000122 673.80 146.79 400.49 615.60 719.63 392.94 872.86 433.82 721.82 517.48 713.84 597.01 839.98 629.95
00000999 00000123 675.48 146.53 403.96 618.98 723.56 391.83 877.56 431.02 725.43 515.95 717.51 598.10 843.54 629.64
00001000 00000124 677.81 148.56 404.28 617.90 726.76 388.94 881.61 426.41 729.36 513.77 721.63 598.01 846.84 628.38
00001001 00000125 678.24 145.96 407.62 619.79 728.11 389.21 885.24 424.19 731.79 511.40 724.01 600.21 849.42 628.46
00001002 00000126 680.02 147.23 407.98 623.84 731.01 388.47 887.71 421.69 733.79 512.21 727.88 603.24 852.38 630.09
00001003 00000127 681.03 146.16 406.23 630.91 733.24 384.60 892.87 418.39 736.94 511.52 727.62 605.14 855.12 633.01
00001004 00000128 680.55 146.80 408.13 631.69 733.08 382.68 895.35 415.75 737.91 510.01 725.51 605.17 854.04 632.78
00001005 00000129 680.57 142.67 409.43 638.50 733.04 382.27 896.47 413.84 738.19 507.62 725.56 606.83 854.88 633.34
00001006 00000130 680.18 140.75 407.30 643.53 733.74 382.14 897.30 413.41 738.87 505.66 725.36 607.35 855.45 633.67
00001007 00000131 680.56 138.26 405.92 650.33 734.00 381.94 897.77 412.52 739.42 503.99 725.61 609.48 854.47 635.39
00001008 00000132 680.75 140.14 403.16 653.90 734.75 380.15 896.97 411.62 738.62 501.82 726.16 610.88 853.81 637.56
00001009 00000133 681.68 138.87 401.51 661.17 734.73 378.20 898.13 410.30 738.38 500.40 726.57 613.75 854.95 641.11
00001010 00000134 682.32 138.53 399.72 666.58 734.21 377.11 899.05 408.90 738.07 498.96 726.87 616.91 856.59 644.25
00001011 00000135 681.85 139.44 399.48 673.98 733.66 376.61 898.47 408.76 737.71 498.12 727.83 620.33 856.66 648.47
00001012 00000136 680.37 142.55 398.37 678.72 733.30 379.32 894.63 409.74 736.22 496.40 729.08 624.51 853.79 651.76
00001013 00000137 677.02 136.83 392.00 690.80 732.41 395.26 885.68 410.13 724.48 502.82 719.73 636.85 853.84 647.92
00001014 00000138 676.04 134.78 392.68 691.90 731.03 390.77 884.56 407.53 722.09 504.11 718.10 635.53 854.00 647.88
00001015 00000139 677.10 138.75 394.10 684.71 731.14 385.86 887.29 403.81 723.60 508.51 721.66 634.84 859.13 647.77
00001016 00000140 676.10 137.92 393.94 684.83 732.03 383.83 885.76 405.97 722.23 510.82 721.04 631.05 857.75 646.73
00001017 00000141 675.55 139.56 391.15 678.28 730.07 382.90 884.64 407.86 720.11 511.51 718.91 629.59 854.68 648.05
00001018 00000142 674.96 141.98 388.25 672.32 727.53 384.63 883.86 408.38 719.78 512.60 717.86 631.88 853.00 649.89
00001019 00000143 673.94 142.85 389.54 668.19 726.12 385.25 882.47 408.56 718.25 513.63 717.10 630.71 851.89 648.36
00001020 00000144 670.45 144.04 394.89 662.64 723.73 385.11 883.35 410.34 720.85 515.35 714.58 627.08 853.54 646.28
00001021 00000145 666.98 143.67 399.93 654.18 720.85 385.96 881.44 412.18 720.83 514.68 712.00 622.49 850.12 642.78
00001022 00000146 665.00 142.96 404.24 647.75 719.05 386.12 880.90 413.59 720.64 514.00 708.55 618.23 845.45 639.76
00001023 00000147 662.35 144.00 405.47 643.10 715.19 387.18 879.27 413.64 719.32 513.14 706.06 617.32 844.09 638.13
00001024 00000148 660.93 145.87 406.49 638.95 713.41 387.02 878.11 414.21 718.59 513.91 704.39 616.11 843.39 637.42
00001025 00000149 660.52 146.58 407.24 636.78 712.57 387.85 877.14 413.60 718.50 513.50 705.17 616.25 843.85 636.35
00001026 00000150 659.60 145.91 406.64 636.34 711.80 388.85 875.01 414.92 717.18 515.53 705.32 615.73 844.16 635.88
00001027 00000151 657.72 149.17 408.08 633.59 709.86 389.97 874.21 416.72 716.66 517.05 703.98 615.93 844.06 636.45
00001028 00000152 655.68 151.85 408.43 630.47 708.75 389.96 873.10 417.02 715.98 516.94 702.07 614.77 842.95 635.48
00001029 00000153 655.17 153.23 408.21 627.61 707.58 390.51 872.84 417.36 716.23 517.46 702.07 614.34 842.94 634.93
00001030 00000154 651.82 154.17 411.00 625.68 705.44 391.93 871.81 419.55 716.34 518.30 698.35 612.08 844.05 632.95
00001031 00000155 651.52 153.94 411.84 633.47 704.40 394.91 870.26 418.33 716.09 516.60 699.31 615.38 849.13 632.56
00001032 00000156 650.82 157.32 410.79 642.33 704.46 393.32 868.01 418.23 711.08 521.91 704.92 614.30 863.27 632.16
00001033 00000157 649.94 157.93 408.39 648.02 705.20 393.63 867.89 420.14 709.44 523.13 704.15 613.42 866.45 632.32
00001034 00000158 650.24 158.67 405.69 648.97 705.04 393.99 867.21 419.98 709.15 524.18 705.22 612.79 869.96 631.01
00001035 00000159 649.55 158.48 407.70 645.11 705.77 392.60 867.07 419.65 709.95 522.76 705.90 609.48 869.92 628.44
00001036 00000160 648.27 160.60 412.69 627.10 708.25 389.37 868.74 421.21 714.66 519.86 703.16 598.06 866.64 620.67
00001037 00000161 649.22 162.48 416.03 608.93 711.78 384.63 871.49 423.04 719.05 516.52 700.43 586.34 861.66 614.52
00001038 00000162 649.15 160.64 416.73 604.48 713.78 383.04 873.79 423.16 719.66 511.17 697.50 582.92 852.45 612.60
00001039 00000163 651.55 155.63 413.34 609.95 710.89 395.21 873.21 427.61 720.83 513.92 700.47 596.34 848.14 619.99
00001040 DELETE   657.31 152.16 412.73 622.49 711.07 400.64 878.01 424.22 725.12 517.47 707.43 612.53 852.16 630.25
00001041 DELETE   663.11 153.30 413.60 629.80 715.97 403.33 890.17 422.34 736.22 524.22 713.24 620.06 865.32 634.48
00001042 DELETE   665.58 151.28 420.64 646.57 722.20 398.33 900.64 419.92 752.28 531.06 728.49 622.03 880.17 638.75
00001043 00000167 669.49 165.35 422.92 642.55 727.47 411.56 908.01 426.39 764.59 540.27 738.49 630.21 901.94 640.41
00001044 DELETE   670.00 181.43 423.29 641.38 727.07 438.32 912.83 446.49 766.53 561.21 739.44 645.33 910.96 651.94
00001045 DELETE   673.05 199.38 419.27 629.49 729.42 442.17 916.21 458.58 777.31 588.04 748.52 647.02 931.54 659.43
00001046 00000170 675.28 221.27 418.09 614.52 731.36 458.01 914.56 475.99 777.43 608.25 753.94 659.27 932.16 673.81
