Video ID: 	N04wLLBmdoY
H: 	1080
W: 	1920
FPS: 	29.97002997002997

FRAME INDEX X0 Y0 W H [Landmarks (5 Points)]

00003481 00000000 720.91 92.02 382.01 577.81 881.81 355.15 1056.17 353.20 1022.83 420.53 920.56 545.10 1062.04 542.83
00003482 DELETE   722.69 96.90 382.39 577.12 890.41 357.55 1060.76 356.36 1028.51 424.62 926.82 548.25 1065.30 546.57
00003483 DELETE   728.50 101.52 383.49 578.40 894.37 362.62 1068.53 356.75 1035.00 430.68 931.89 554.70 1073.52 549.31
00003484 00000003 731.61 103.13 382.64 584.70 897.08 368.91 1071.00 359.38 1038.14 436.39 935.66 562.86 1075.50 554.15
00003485 DELETE   739.56 105.79 380.70 591.01 901.18 367.87 1070.87 362.15 1045.45 442.65 936.21 566.99 1074.51 562.18
00003486 DELETE   745.13 110.59 379.53 593.35 910.50 369.44 1074.48 364.32 1053.84 446.62 938.96 568.97 1075.22 565.39
00003487 00000006 740.55 109.40 387.35 597.83 909.38 371.05 1084.92 365.45 1050.89 448.05 942.70 565.30 1084.16 560.82
00003488 DELETE   743.63 109.10 388.96 587.59 917.76 371.73 1091.07 366.71 1059.48 447.52 953.01 561.86 1090.15 557.36
00003489 DELETE   748.60 109.30 385.74 585.79 923.95 371.52 1095.66 364.93 1067.74 443.50 958.85 557.92 1096.69 551.84
00003490 DELETE   751.17 110.97 384.18 579.73 929.88 371.12 1098.21 365.94 1074.50 442.45 964.03 556.89 1097.63 551.95
00003491 00000010 754.33 105.53 381.64 587.17 933.11 370.57 1098.97 364.63 1078.29 439.90 967.43 556.98 1100.41 551.11
00003492 00000011 757.08 103.77 379.64 585.61 935.48 371.10 1097.70 364.42 1079.32 438.16 972.48 555.89 1101.48 549.23
00003493 00000012 757.27 106.08 378.22 582.28 937.19 370.21 1097.95 362.74 1081.42 437.77 974.56 555.15 1103.27 547.80
00003494 00000013 755.89 105.84 378.48 579.31 935.40 369.40 1096.68 361.16 1080.67 436.32 975.02 553.02 1103.07 544.96
00003495 00000014 755.64 106.86 378.44 577.55 931.63 369.40 1093.40 357.77 1076.87 437.14 973.38 553.50 1101.80 542.99
00003496 00000015 752.91 107.25 378.92 576.58 928.19 367.41 1092.81 358.01 1072.66 435.25 968.64 551.50 1097.92 543.22
00003497 00000016 747.93 110.94 383.35 574.29 920.90 364.53 1088.23 356.15 1063.30 433.31 961.50 551.68 1091.60 544.81
00003498 00000017 743.62 105.14 384.76 585.36 912.71 365.32 1084.66 356.38 1054.21 433.06 952.92 553.05 1088.17 545.66
00003499 00000018 744.10 112.26 380.58 578.38 917.81 366.26 1084.93 360.05 1059.39 437.82 951.96 561.42 1086.25 555.24
00003500 00000019 740.97 107.26 377.71 585.19 908.32 362.88 1072.46 359.46 1054.35 436.01 942.92 560.25 1076.00 557.48
00003501 00000020 735.07 104.03 381.90 600.43 903.23 362.62 1069.17 359.01 1052.37 435.62 940.02 564.70 1076.42 561.16
00003502 00000021 731.45 102.01 383.72 603.49 898.60 363.47 1065.39 357.73 1048.88 436.33 938.49 566.79 1073.97 561.43
00003503 00000022 727.14 103.45 383.76 601.78 900.43 364.82 1062.16 357.98 1048.19 438.46 939.66 566.95 1069.74 561.09
00003504 00000023 728.18 104.71 380.44 596.97 901.16 366.89 1062.56 359.46 1048.98 441.76 940.19 566.83 1069.58 560.53
00003505 00000024 725.01 105.42 383.03 596.68 901.02 370.45 1064.02 361.91 1050.52 446.52 937.62 568.88 1069.80 561.75
00003506 00000025 723.91 108.49 384.36 595.82 901.34 372.54 1064.27 363.51 1051.06 448.64 935.77 570.35 1069.82 562.88
00003507 00000026 723.75 111.80 384.80 595.42 902.52 372.15 1064.26 364.82 1052.51 448.88 934.35 570.17 1068.64 564.24
00003508 00000027 721.48 112.99 386.87 599.13 902.43 373.18 1063.05 366.02 1053.00 451.25 931.53 571.83 1066.20 566.23
00003509 00000028 719.40 116.19 388.17 600.10 901.40 372.58 1062.41 367.64 1051.10 452.25 926.31 571.63 1063.96 567.91
00003510 00000029 718.18 114.46 389.32 602.27 899.39 373.05 1060.94 367.28 1048.38 453.39 924.62 572.34 1062.66 567.76
00003511 00000030 717.65 114.95 389.72 605.02 899.54 373.21 1061.60 368.08 1048.31 453.19 923.74 573.11 1063.20 568.99
00003512 00000031 717.41 116.50 389.68 607.62 898.82 373.01 1061.38 369.10 1046.38 453.49 921.27 573.65 1061.85 570.53
00003513 00000032 716.74 115.46 389.86 613.40 896.30 373.31 1060.58 369.10 1044.67 452.80 918.61 574.87 1061.47 571.62
00003514 00000033 717.61 120.47 387.21 615.65 894.94 373.88 1058.60 371.76 1041.94 450.25 914.14 574.87 1059.58 573.75
00003515 DELETE   716.47 123.56 388.02 619.10 894.18 376.11 1056.45 376.25 1037.05 451.81 911.25 576.01 1057.08 576.55
00003516 DELETE   713.30 120.59 389.79 627.56 889.98 378.54 1053.35 377.78 1032.07 452.76 906.34 577.53 1054.50 577.22
00003517 DELETE   712.76 122.57 389.73 631.30 887.45 380.48 1051.89 380.90 1028.25 454.91 902.84 580.02 1052.79 580.56
00003518 00000037 715.85 128.69 387.63 628.46 881.60 381.54 1051.42 384.14 1020.70 455.98 898.84 583.33 1051.80 585.50
00003519 00000038 716.06 135.29 386.69 623.20 879.15 382.83 1051.32 386.40 1019.05 458.90 896.27 586.62 1049.65 589.73
00003520 00000039 715.67 134.72 386.43 627.96 877.78 381.39 1048.03 388.54 1015.22 459.98 893.71 588.27 1045.78 594.41
00003521 00000040 714.83 133.99 386.85 630.66 876.28 380.28 1047.77 387.51 1014.39 458.67 892.35 588.16 1045.46 594.40
00003522 00000041 712.20 128.44 389.83 632.50 874.21 380.31 1046.93 385.69 1012.82 458.98 890.58 585.15 1045.09 589.67
00003523 00000042 710.10 121.81 393.15 617.18 871.99 378.74 1045.98 381.84 1012.56 458.90 893.38 577.95 1043.59 579.90
00003524 00000043 713.01 117.64 390.57 601.61 870.68 376.20 1048.15 378.37 1010.88 457.92 895.66 571.70 1046.57 572.54
00003525 00000044 714.29 115.40 389.17 595.34 871.43 371.04 1049.37 374.54 1010.02 456.14 895.65 565.14 1047.05 567.30
00003526 00000045 713.53 114.14 389.00 596.33 869.08 367.87 1048.97 372.62 1007.68 453.97 893.88 563.94 1045.11 566.90
00003527 00000046 713.44 114.82 388.76 600.14 866.91 365.26 1047.45 370.24 1005.10 451.38 892.13 564.51 1043.20 567.60
00003528 00000047 709.62 114.05 392.41 600.22 862.75 365.08 1046.96 368.94 1002.11 449.94 890.27 566.62 1042.65 568.33
00003529 00000048 709.36 115.97 392.21 596.30 860.34 364.80 1045.72 368.29 997.88 448.04 889.91 566.60 1040.83 567.80
00003530 00000049 711.71 113.59 388.78 595.61 858.37 363.46 1044.44 367.14 994.33 447.31 890.50 569.07 1036.64 570.71
00003531 00000050 708.21 115.90 389.61 592.94 856.02 364.71 1039.33 368.64 989.98 445.56 893.89 571.80 1031.64 573.44
00003532 00000051 706.41 114.93 391.50 595.62 856.42 365.93 1036.57 369.47 989.37 444.10 896.19 572.05 1030.26 573.31
00003533 00000052 709.10 115.64 389.85 595.82 856.46 366.75 1038.16 370.62 988.64 446.20 895.80 574.85 1030.52 576.37
00003534 00000053 709.26 116.38 390.49 602.48 857.05 366.80 1038.96 373.16 988.99 449.79 891.68 578.73 1026.33 582.63
00003535 00000054 710.50 119.64 389.85 606.64 856.79 370.40 1037.73 374.26 987.32 453.56 890.03 583.38 1026.96 585.40
00003536 00000055 713.59 127.63 387.33 596.55 859.41 377.43 1043.68 383.31 992.02 462.43 888.63 584.46 1033.12 588.56
00003537 00000056 713.43 131.60 387.69 590.27 859.45 380.65 1045.73 388.23 992.24 468.39 888.18 587.04 1033.58 592.50
00003538 00000057 713.82 134.82 386.62 588.41 858.33 386.06 1045.98 393.31 990.74 473.29 887.04 591.41 1033.45 596.73
00003539 00000058 714.47 139.86 384.19 588.03 857.06 392.02 1044.49 399.56 988.19 479.10 884.21 596.14 1031.35 602.15
00003540 00000059 714.13 150.38 383.54 581.18 856.89 399.26 1045.04 407.08 988.35 482.67 881.16 599.09 1031.93 605.95
00003541 00000060 708.85 147.58 387.61 586.31 854.09 403.63 1044.54 410.97 986.38 484.99 878.57 601.25 1032.08 607.41
00003542 00000061 705.05 144.39 389.30 591.75 851.13 403.86 1043.15 410.12 985.01 485.50 876.76 601.59 1031.89 606.80
00003543 00000062 704.32 144.19 388.21 594.01 849.06 403.72 1042.15 409.85 983.27 488.19 874.34 602.58 1030.56 607.73
00003544 00000063 703.44 143.81 389.14 594.13 848.51 405.63 1043.03 412.74 982.56 488.59 872.98 603.35 1030.89 609.51
00003545 00000064 704.76 146.07 386.83 590.60 847.51 404.61 1041.56 411.98 980.60 489.83 872.02 603.18 1030.19 609.41
00003546 00000065 705.58 146.96 385.88 590.19 845.72 404.49 1039.86 412.81 977.84 490.29 870.59 602.71 1029.53 609.75
00003547 00000066 704.93 145.35 387.11 594.73 846.21 404.95 1039.38 412.40 978.14 489.83 871.73 604.27 1029.33 610.66
00003548 00000067 705.65 143.87 387.30 607.51 847.45 406.76 1038.06 412.99 978.67 490.69 872.19 607.21 1029.55 612.55
00003549 00000068 706.30 141.95 387.92 612.83 847.91 408.91 1036.26 414.76 978.82 492.75 873.46 609.29 1030.12 614.05
00003550 00000069 706.07 143.09 388.34 612.84 849.02 410.94 1035.77 415.87 980.06 493.80 875.42 611.02 1030.95 614.81
00003551 00000070 705.59 146.09 389.02 606.73 849.34 411.02 1036.20 415.78 981.47 493.55 877.38 610.54 1032.43 614.03
00003552 00000071 704.27 146.02 390.91 601.67 849.70 410.18 1039.37 415.05 983.69 491.88 879.37 610.23 1034.36 614.08
00003553 00000072 706.25 145.01 389.10 592.64 848.55 409.75 1041.24 414.55 983.35 492.34 878.83 609.76 1035.14 613.31
00003554 00000073 702.92 138.75 392.77 591.86 846.01 404.75 1041.17 407.88 983.50 491.62 878.50 608.19 1034.46 610.03
00003555 00000074 703.07 136.35 390.47 588.09 846.29 399.62 1039.08 402.87 983.61 488.63 879.52 605.07 1030.65 606.85
00003556 00000075 703.42 131.55 389.57 593.18 852.29 401.66 1037.64 395.90 982.94 485.88 880.40 599.21 1029.96 594.31
00003557 00000076 701.84 125.79 388.62 595.92 850.55 399.61 1034.91 393.24 981.99 482.35 880.97 596.05 1029.07 590.40
00003558 00000077 698.40 122.26 388.03 599.15 846.66 397.35 1031.90 390.63 979.08 476.61 877.87 592.75 1028.39 586.73
00003559 00000078 691.90 120.54 387.61 615.31 838.59 385.36 1020.78 383.53 973.68 468.57 875.58 595.05 1016.76 592.59
00003560 00000079 690.68 121.87 386.81 617.91 837.72 383.70 1016.34 383.37 969.03 464.64 874.62 594.60 1011.36 593.59
00003561 00000080 687.77 120.16 387.64 616.03 835.27 382.96 1013.73 383.99 964.93 465.02 870.37 592.36 1007.11 592.31
00003562 00000081 689.03 118.06 385.94 617.25 833.85 382.42 1013.04 383.46 962.42 464.31 868.77 591.42 1006.53 591.23
00003563 00000082 689.00 119.41 385.80 610.46 833.94 382.49 1013.43 383.43 962.53 465.19 867.05 588.39 1007.53 588.24
00003564 00000083 692.63 115.41 386.50 597.42 838.06 391.50 1022.02 387.47 967.56 469.25 866.04 580.65 1018.19 576.73
00003565 00000084 692.17 116.15 388.41 591.71 840.01 391.50 1025.61 386.35 970.86 468.65 867.73 579.89 1019.76 574.96
00003566 00000085 692.95 115.07 388.71 591.94 841.06 390.73 1026.46 386.35 971.73 468.32 868.79 579.92 1019.10 575.61
00003567 00000086 695.53 114.66 386.74 592.74 842.69 390.46 1027.27 387.01 972.07 467.93 869.62 579.76 1018.67 576.23
00003568 00000087 695.50 112.38 387.16 598.56 841.92 389.71 1026.23 387.17 971.02 466.62 867.73 579.23 1018.91 576.40
00003569 00000088 694.65 113.29 387.28 599.37 841.93 389.33 1025.12 386.92 971.28 466.00 867.79 579.17 1018.46 576.65
00003570 00000089 694.81 114.13 387.92 596.00 843.65 389.56 1026.29 386.83 973.12 467.51 870.18 579.80 1018.80 576.95
00003571 00000090 695.41 114.82 388.13 591.43 846.31 389.63 1027.52 387.11 975.03 467.78 875.03 580.14 1019.17 577.37
00003572 00000091 699.44 115.50 386.40 592.49 848.80 389.40 1030.33 387.79 977.60 467.69 878.00 581.63 1022.42 579.65
00003573 00000092 700.65 118.62 386.53 598.98 847.17 378.11 1030.90 380.34 980.01 465.24 877.67 582.72 1022.15 583.43
00003574 00000093 703.39 118.02 385.83 601.50 851.38 378.42 1033.64 381.38 983.96 467.80 879.11 583.25 1023.81 584.82
00003575 00000094 704.69 120.18 385.68 599.88 854.19 380.30 1037.74 383.36 987.85 470.62 880.84 585.02 1026.23 586.68
00003576 00000095 703.80 121.77 387.60 594.26 852.93 381.93 1040.08 385.31 988.23 474.22 881.27 587.12 1028.06 588.78
00003577 00000096 702.20 121.85 388.55 591.15 857.17 393.73 1041.69 391.62 989.68 479.61 879.20 586.01 1028.99 583.71
00003578 00000097 701.12 123.96 389.27 588.09 855.88 395.42 1040.41 392.86 988.26 480.60 878.02 585.83 1027.89 583.18
00003579 00000098 699.77 123.77 390.54 590.43 854.21 396.35 1039.50 392.50 986.86 481.69 877.84 587.18 1028.58 583.40
00003580 00000099 700.63 123.62 389.00 593.47 854.47 395.96 1038.02 392.41 986.51 479.73 878.90 588.54 1027.55 585.13
00003581 00000100 698.38 124.03 387.23 602.83 849.00 385.46 1030.18 385.68 983.30 473.18 879.56 591.87 1019.82 591.26
00003582 00000101 696.16 123.97 387.92 606.01 845.06 387.49 1026.90 386.95 979.89 472.65 878.25 594.35 1019.11 593.15
00003583 00000102 695.16 122.45 388.72 599.32 841.39 389.58 1026.21 388.98 975.69 475.33 875.62 592.13 1019.85 590.62
00003584 00000103 696.83 119.25 386.52 593.52 846.68 398.48 1030.83 392.61 978.70 476.44 873.83 586.19 1024.60 580.67
00003585 00000104 696.05 120.54 386.19 590.72 845.80 398.72 1029.56 393.17 977.10 476.89 871.63 584.40 1022.84 579.22
00003586 00000105 695.59 119.75 386.51 593.12 845.69 398.44 1029.37 393.82 976.94 475.98 871.82 585.01 1022.48 580.75
00003587 00000106 696.78 120.80 385.24 593.95 846.23 398.01 1029.59 393.83 977.80 476.01 871.91 585.70 1022.12 581.88
00003588 00000107 692.90 124.32 389.28 592.92 842.09 390.02 1025.93 389.27 976.55 476.19 874.46 589.67 1017.79 588.17
00003589 00000108 694.60 124.16 390.12 593.41 844.21 391.25 1030.03 391.07 980.56 478.93 876.55 591.34 1022.07 590.02
00003590 00000109 697.34 127.85 390.19 590.71 847.53 391.26 1033.59 391.60 983.66 480.55 879.38 592.61 1024.02 591.73
00003591 00000110 697.53 129.12 390.34 591.40 848.47 392.95 1034.32 393.54 984.92 481.98 880.41 594.33 1025.05 593.73
00003592 00000111 698.87 129.54 389.58 593.97 849.59 394.48 1035.49 396.25 986.17 483.86 880.93 596.65 1025.91 597.04
00003593 00000112 700.15 129.49 389.40 596.50 850.15 394.67 1036.84 396.51 986.99 485.13 881.87 599.77 1026.13 600.28
00003594 00000113 700.37 130.38 389.15 593.28 850.16 394.71 1037.43 396.83 986.91 485.83 882.60 600.90 1026.37 601.51
00003595 00000114 701.26 129.81 388.67 594.11 851.22 392.76 1037.59 395.60 987.24 484.50 883.43 599.12 1026.20 600.44
00003596 00000115 701.72 130.57 388.34 596.06 853.06 390.02 1037.59 392.16 988.12 480.90 884.73 597.39 1025.34 598.42
00003597 00000116 702.79 130.35 387.39 600.69 856.32 387.70 1037.28 390.61 990.29 477.03 885.83 595.75 1023.55 597.77
00003598 00000117 704.30 127.48 387.09 603.43 857.73 385.77 1037.93 388.78 992.77 476.41 887.13 595.74 1023.59 598.03
00003599 00000118 704.79 125.99 387.09 601.67 858.65 383.32 1039.14 387.03 994.96 474.62 889.38 594.95 1024.70 597.58
00003600 00000119 708.22 124.89 385.70 594.23 860.92 381.12 1040.72 384.74 996.40 475.00 893.01 591.64 1027.01 594.25
00003601 00000120 709.19 122.89 385.95 596.27 862.89 377.96 1042.09 384.54 997.91 472.84 889.90 588.36 1027.72 593.51
00003602 00000121 707.63 119.39 386.76 610.81 863.14 376.00 1040.30 381.37 998.84 466.55 886.89 584.62 1027.72 589.02
00003603 00000122 706.44 120.02 387.34 615.40 866.44 373.93 1040.43 381.85 1001.44 464.24 886.21 582.97 1026.34 589.01
00003604 00000123 707.95 110.78 383.38 619.48 871.84 377.47 1045.71 383.05 1008.62 463.34 889.68 576.11 1036.83 582.44
00003605 00000124 707.24 108.28 386.21 609.80 873.68 374.12 1048.09 377.09 1011.92 457.45 895.34 571.41 1042.33 575.39
00003606 00000125 703.18 108.21 390.84 611.99 868.15 364.41 1042.55 368.19 1008.20 451.92 896.12 570.02 1036.29 571.98
00003607 00000126 709.88 106.24 386.52 613.44 871.36 362.20 1042.94 364.64 1011.42 447.34 903.12 569.91 1039.13 571.27
00003608 00000127 709.17 104.28 387.07 614.82 874.54 358.83 1043.31 362.39 1014.83 444.70 909.70 570.86 1040.36 573.31
00003609 00000128 715.30 105.17 383.59 613.17 875.28 359.77 1045.95 362.40 1017.11 444.01 913.06 572.65 1044.26 574.35
00003610 00000129 717.42 106.02 381.90 605.46 877.45 362.48 1046.29 363.46 1018.79 447.05 918.34 574.10 1045.44 574.66
00003611 00000130 718.62 111.50 381.54 592.52 879.40 367.59 1050.58 366.91 1020.34 453.87 921.13 576.53 1047.95 575.38
00003612 00000131 718.39 110.91 382.53 594.90 880.97 372.02 1052.32 372.28 1020.63 459.69 919.14 579.87 1047.56 579.70
00003613 00000132 719.22 114.08 381.94 593.39 879.12 373.99 1050.97 374.70 1017.75 460.50 913.88 578.84 1045.65 579.18
00003614 00000133 718.46 112.51 382.32 592.12 877.53 371.99 1052.54 372.94 1017.76 460.82 909.98 576.24 1045.78 576.67
00003615 00000134 719.28 108.97 383.09 588.86 878.41 365.77 1054.61 366.30 1019.83 454.48 909.08 568.31 1048.72 568.34
00003616 00000135 720.16 106.14 383.19 584.01 879.24 360.53 1053.35 361.58 1019.94 447.63 910.62 560.41 1050.27 560.86
00003617 00000136 721.03 104.74 382.25 582.73 878.68 356.80 1052.74 357.35 1020.39 441.20 912.14 557.30 1051.01 557.28
00003618 00000137 715.24 100.18 385.66 588.09 876.59 359.34 1055.43 359.64 1016.18 433.30 911.56 559.04 1052.24 558.44
00003619 00000138 716.30 96.75 383.70 599.70 878.36 352.22 1050.25 352.85 1021.71 437.54 915.49 557.25 1051.05 556.62
00003620 00000139 715.10 97.85 384.92 606.02 876.87 353.95 1048.32 353.63 1020.63 438.79 914.09 560.27 1050.32 558.89
00003621 00000140 715.12 98.68 384.67 610.37 877.11 359.33 1047.57 358.89 1018.63 446.15 912.80 564.71 1047.95 563.22
00003622 00000141 717.55 104.70 384.13 599.78 875.58 363.87 1053.59 363.66 1018.99 455.76 907.21 571.09 1047.46 570.50
00003623 00000142 716.89 107.51 386.05 605.34 878.62 365.12 1053.30 365.77 1021.17 456.10 907.94 573.87 1046.65 573.83
00003624 00000143 716.32 105.68 386.60 606.40 879.92 361.91 1054.14 363.28 1024.23 453.18 907.47 570.13 1048.34 570.68
00003625 00000144 717.07 102.41 384.48 600.84 878.24 356.91 1052.28 358.66 1022.68 446.09 907.80 563.22 1049.68 564.16
00003626 00000145 715.09 98.48 386.34 593.79 875.43 350.17 1052.51 354.74 1021.49 436.23 907.99 554.39 1050.63 557.27
00003627 00000146 708.29 94.99 385.13 579.91 872.71 354.92 1049.94 355.32 1014.65 425.80 908.28 547.58 1047.99 546.81
00003628 00000147 705.33 93.71 385.15 576.49 869.23 350.28 1049.23 351.25 1013.70 420.22 906.29 545.03 1048.60 544.56
00003629 00000148 704.20 93.20 380.55 576.06 865.42 348.37 1044.68 349.37 1008.77 416.89 902.12 542.11 1044.20 541.71
00003630 00000149 699.93 89.59 383.43 584.00 860.72 348.13 1038.25 346.68 1003.23 418.69 899.42 542.50 1040.28 540.14
00003631 00000150 697.32 89.20 385.84 588.93 859.49 350.99 1033.72 348.80 999.82 424.88 897.62 546.46 1033.55 543.78
00003632 00000151 693.37 90.34 388.64 584.70 856.91 356.89 1033.25 354.27 998.40 432.60 899.50 553.74 1032.72 550.53
00003633 00000152 692.16 90.53 389.88 588.27 856.08 360.22 1033.84 357.44 996.55 436.72 898.28 557.24 1031.93 553.83
00003634 00000153 692.31 96.00 390.82 581.95 856.52 363.99 1036.52 360.89 998.17 439.67 898.15 560.57 1035.27 556.55
00003635 00000154 692.79 97.37 390.93 590.31 856.30 362.60 1035.87 359.90 998.09 441.08 896.56 561.83 1034.73 558.21
00003636 00000155 690.41 97.34 393.30 605.49 854.48 349.97 1034.21 351.18 999.33 443.08 890.72 561.25 1030.73 561.19
00003637 00000156 690.39 94.30 391.50 610.37 853.34 348.67 1032.83 350.12 998.02 441.08 890.11 560.03 1029.97 560.22
00003638 00000157 687.63 94.19 389.48 602.69 854.88 362.23 1032.54 357.08 999.53 438.49 891.38 560.21 1031.81 554.85
00003639 00000158 689.57 95.17 389.38 593.52 856.19 361.48 1033.83 355.94 1000.35 436.74 896.58 558.02 1034.28 552.25
00003640 00000159 691.33 94.86 387.99 591.42 857.26 361.44 1034.17 354.95 1001.48 435.53 897.83 556.90 1035.30 550.31
00003641 00000160 694.37 96.75 385.75 586.74 859.76 361.69 1034.86 356.15 1002.51 433.64 901.67 556.66 1035.22 551.04
00003642 00000161 693.33 97.54 388.39 590.79 860.44 361.56 1035.32 356.17 1003.67 435.86 900.93 558.62 1035.21 553.02
00003643 00000162 697.90 96.98 388.34 599.59 861.36 349.61 1036.66 348.30 1006.53 439.84 902.18 560.43 1037.06 558.30
00003644 00000163 700.64 95.82 386.61 609.26 863.88 348.48 1035.01 347.51 1007.43 436.12 904.69 560.59 1037.40 558.64
00003645 00000164 708.04 97.11 380.94 611.39 865.81 353.12 1037.66 349.70 1008.72 440.17 905.98 564.25 1041.03 560.47
00003646 00000165 710.21 97.54 381.81 602.51 869.02 357.90 1045.50 352.47 1014.29 447.58 909.97 567.72 1046.20 562.21
00003647 00000166 712.26 99.88 380.21 595.36 872.68 360.11 1045.95 352.40 1016.82 448.74 915.02 566.91 1047.81 559.41
00003648 00000167 712.38 99.48 381.96 595.00 875.98 361.99 1047.39 353.45 1019.38 448.73 917.50 566.18 1050.63 557.98
