Video ID: 	w90fhBFrOIY
H: 	1080
W: 	1920
FPS: 	24.0

FRAME INDEX X0 Y0 W H [Landmarks (5 Points)]

00004465 00000000 720.92 187.10 435.82 669.71 834.23 470.99 1046.61 472.96 941.78 643.46 851.98 701.56 1030.27 703.92
00004466 00000001 721.54 198.74 432.78 671.17 829.59 476.67 1040.69 479.30 934.12 647.15 849.69 711.81 1023.39 714.81
00004467 00000002 718.71 201.46 432.88 672.22 825.58 474.65 1038.13 481.20 927.06 647.97 845.53 713.71 1020.37 719.74
00004468 00000003 719.18 200.11 433.55 667.39 825.53 475.84 1037.68 479.62 928.87 648.49 845.98 711.62 1020.72 715.65
00004469 00000004 718.31 192.50 435.30 658.57 830.04 475.06 1042.57 472.05 940.91 636.35 850.80 699.90 1026.52 698.57
00004470 00000005 720.72 185.87 431.91 654.87 831.92 466.29 1046.32 464.24 944.27 624.32 848.60 691.92 1027.27 691.28
00004471 00000006 718.32 186.49 429.91 654.88 834.58 460.89 1044.98 458.81 945.06 618.01 854.91 687.05 1031.45 686.18
00004472 00000007 719.36 177.32 430.30 670.12 833.93 473.63 1047.01 468.50 946.64 627.01 853.40 690.38 1038.81 686.49
00004473 DELETE   718.23 192.09 428.57 661.15 833.32 480.49 1042.35 475.86 945.13 636.43 850.93 693.95 1036.73 690.64
00004474 00000009 709.96 201.45 436.39 646.30 828.90 479.61 1040.57 471.93 941.62 637.26 848.79 693.96 1033.01 689.06
00004475 DELETE   707.99 194.40 440.09 645.10 826.45 471.55 1039.33 461.51 939.40 629.06 849.60 688.57 1030.68 681.48
00004476 DELETE   703.75 181.96 437.09 649.55 820.91 460.18 1032.08 451.62 934.05 616.37 847.26 681.23 1028.78 674.95
00004477 00000012 702.48 173.00 434.87 654.15 818.84 452.93 1026.49 446.44 930.94 603.99 847.50 675.43 1026.68 670.62
00004478 00000013 696.98 173.93 428.19 647.57 817.32 448.97 1017.63 440.19 927.04 593.35 843.40 667.52 1016.69 659.85
00004479 00000014 695.95 171.02 429.10 655.53 817.03 450.39 1019.95 441.55 927.74 596.55 840.23 667.31 1020.57 659.82
00004480 00000015 695.99 175.56 429.14 652.16 816.04 451.13 1020.68 441.96 926.82 598.91 838.43 670.25 1018.84 662.54
00004481 00000016 696.46 173.92 431.78 654.37 819.24 450.19 1017.06 440.61 928.95 591.14 845.26 668.33 1018.18 659.85
00004482 00000017 693.69 178.26 436.72 649.87 814.85 445.28 1013.62 435.66 933.08 590.05 843.01 667.95 1024.45 658.43
00004483 00000018 695.23 167.61 431.75 659.62 816.31 437.29 1012.65 431.52 923.10 577.18 838.15 657.39 1015.33 651.92
00004484 00000019 693.21 166.74 432.22 655.62 815.30 437.76 1011.49 431.00 923.54 576.62 837.16 654.20 1014.71 648.00
00004485 00000020 693.52 171.53 430.45 648.98 816.36 440.11 1011.31 434.51 922.82 580.63 836.34 654.23 1012.64 649.17
00004486 00000021 693.46 172.89 428.84 648.51 814.96 442.64 1012.24 435.79 922.92 585.04 834.37 654.82 1014.21 648.99
00004487 00000022 692.83 169.62 431.57 650.06 813.26 439.56 1011.17 433.53 921.89 581.17 834.44 653.79 1013.54 648.43
00004488 00000023 694.02 163.60 430.89 653.10 813.70 439.00 1012.22 432.46 922.13 577.54 835.56 653.56 1013.39 647.76
00004489 00000024 693.98 165.18 431.26 654.76 815.42 439.93 1011.43 434.70 922.88 579.56 837.62 657.35 1010.51 652.55
00004490 00000025 692.89 170.49 432.29 649.04 814.15 445.09 1012.10 436.30 924.98 584.12 840.32 663.75 1010.82 656.27
00004491 00000026 691.27 169.18 433.80 649.33 812.60 447.76 1013.26 438.89 925.12 588.39 842.36 667.16 1013.11 659.38
00004492 00000027 689.98 170.40 433.92 650.64 810.70 447.92 1011.86 439.15 923.15 589.82 839.25 667.53 1011.13 660.03
00004493 00000028 689.61 173.09 435.05 649.29 805.93 450.98 1011.34 439.19 920.08 595.15 834.06 669.53 1011.88 659.89
00004494 00000029 690.44 178.60 436.35 657.31 805.85 460.81 1012.56 446.68 920.01 607.58 832.01 678.54 1015.48 666.52
00004495 00000030 681.88 185.74 445.85 668.89 807.77 470.55 1002.17 457.70 922.08 621.74 837.89 693.55 1014.27 682.57
00004496 00000031 685.25 193.86 443.63 659.02 801.82 470.76 1007.66 460.20 913.29 618.42 824.57 685.63 1013.95 676.55
00004497 DELETE   686.79 183.78 434.84 648.29 803.31 466.92 1008.10 454.92 914.19 611.47 822.21 670.88 1015.71 661.08
00004498 DELETE   692.82 183.42 439.99 636.90 811.49 460.00 1010.77 448.70 921.66 600.59 833.74 659.42 1022.98 650.57
00004499 DELETE   686.72 180.47 432.31 633.77 811.01 446.14 1008.12 435.24 922.64 583.03 828.34 648.79 1013.66 640.47
00004500 00000035 689.26 171.86 429.78 640.17 810.45 443.45 1007.21 431.94 920.66 573.46 831.19 649.92 1012.70 640.60
00004501 00000036 689.55 166.89 432.11 644.28 811.68 442.61 1010.50 430.76 923.50 570.35 835.06 650.57 1015.94 640.71
00004502 00000037 689.58 159.57 434.40 647.17 809.90 438.15 1014.25 426.36 922.86 564.40 835.67 647.97 1020.72 637.94
00004503 00000038 687.32 154.77 437.60 652.22 807.25 431.35 1012.98 421.15 921.30 559.13 833.66 649.31 1016.39 640.60
00004504 00000039 688.30 154.92 436.06 652.82 806.02 428.81 1011.34 418.47 920.36 557.79 833.53 650.06 1014.39 641.23
00004505 00000040 688.14 154.30 437.35 654.83 806.68 431.68 1012.53 421.89 920.95 559.51 835.76 653.24 1015.36 644.67
00004506 00000041 690.35 155.33 434.43 650.26 807.64 432.92 1012.55 422.43 920.75 559.29 837.64 652.56 1015.98 643.40
00004507 00000042 690.20 157.64 433.45 649.69 807.40 434.22 1012.93 423.46 920.59 560.89 835.00 650.22 1017.61 640.89
00004508 00000043 691.41 162.57 431.09 643.89 808.01 435.35 1013.11 424.48 920.73 561.45 834.89 649.22 1018.39 640.01
00004509 00000044 693.40 167.31 430.41 636.11 809.67 436.25 1013.23 426.62 919.51 562.43 838.06 651.68 1014.38 643.16
00004510 00000045 694.95 167.64 430.05 642.78 811.33 438.59 1010.04 430.57 918.44 567.04 841.48 657.58 1010.08 650.23
00004511 00000046 696.95 173.76 426.69 637.97 812.71 443.25 1009.46 434.06 918.88 573.86 843.03 661.70 1008.80 653.17
00004512 00000047 701.42 173.25 424.02 646.14 817.78 445.88 1012.77 437.08 923.05 582.87 845.10 665.90 1011.05 657.78
00004513 00000048 699.04 172.23 426.49 643.68 816.71 448.93 1016.47 437.55 927.79 588.16 845.62 665.87 1015.53 655.98
00004514 00000049 698.97 177.81 426.72 641.08 817.76 454.00 1016.73 440.88 928.30 592.96 846.34 669.65 1016.69 658.20
00004515 00000050 695.95 185.49 430.48 638.26 815.37 461.13 1018.29 449.15 924.55 606.40 840.62 677.12 1013.46 667.01
00004516 DELETE   696.46 190.20 434.90 644.16 815.05 474.55 1014.18 459.28 923.62 621.24 847.78 696.01 1008.83 682.69
00004517 00000052 693.22 198.54 435.36 638.29 814.98 481.45 1007.46 461.34 934.25 629.65 866.45 716.36 1010.35 698.22
00004518 DELETE   693.06 207.62 434.70 637.76 814.95 486.76 1009.54 469.08 932.79 636.91 860.86 720.44 1006.55 704.74
00004519 DELETE   696.14 221.87 431.64 630.93 817.87 494.52 1012.67 478.11 933.16 646.98 862.48 725.39 1010.54 710.90
00004520 00000055 694.97 229.25 436.61 626.50 815.99 506.59 1015.33 488.56 930.96 658.34 855.05 722.80 1018.74 707.46
00004521 00000056 693.72 234.53 434.06 630.88 814.20 515.25 1015.40 497.22 929.48 667.22 849.70 725.56 1023.62 710.52
00004522 00000057 690.05 244.67 433.08 618.65 810.83 518.29 1013.14 501.45 924.58 672.75 844.33 723.72 1021.98 709.93
00004523 00000058 690.36 244.94 429.72 613.85 810.89 518.69 1011.29 499.72 924.99 670.30 846.70 722.03 1022.32 706.45
00004524 00000059 688.66 243.47 429.36 610.32 808.81 517.32 1009.18 498.11 923.06 669.72 844.66 717.50 1023.12 701.69
00004525 00000060 685.70 246.89 431.86 606.23 806.32 513.94 1008.66 494.15 922.06 669.92 844.66 714.67 1024.98 698.29
00004526 00000061 681.88 241.17 432.60 608.44 806.99 511.54 1005.79 487.86 925.77 663.64 845.33 710.83 1022.01 691.59
00004527 DELETE   684.44 240.11 427.22 611.09 808.83 505.81 999.82 483.00 923.69 655.82 839.58 704.26 1015.03 686.21
00004528 00000063 686.26 239.52 422.92 612.46 808.40 496.51 995.68 478.26 921.31 649.64 833.58 701.32 1005.45 687.34
00004529 DELETE   686.54 227.50 421.09 618.83 805.53 487.54 995.44 469.02 920.55 641.47 834.29 697.52 1004.30 683.14
00004530 00000065 688.10 226.03 417.24 598.60 808.83 479.66 996.60 463.83 922.07 629.08 840.76 689.11 999.31 676.79
00004531 DELETE   684.63 221.30 417.38 587.41 804.35 476.75 998.38 463.51 913.26 616.47 830.68 673.82 991.15 663.55
00004532 00000067 682.33 214.68 421.79 591.51 803.19 473.60 998.28 459.26 913.73 611.63 834.02 671.09 993.90 659.89
00004533 00000068 683.50 206.62 421.70 608.11 799.70 471.18 994.83 456.70 908.94 610.21 835.15 674.32 995.42 662.52
00004534 00000069 681.68 205.46 422.20 603.58 798.14 469.22 993.40 454.09 908.09 604.19 834.25 672.05 993.75 659.88
00004535 00000070 682.29 200.94 418.36 602.93 794.96 466.58 990.95 450.66 905.07 599.93 832.02 669.03 995.75 656.03
00004536 00000071 681.49 199.31 418.10 602.75 794.72 465.51 992.86 447.58 907.00 597.61 830.86 665.22 1002.12 650.30
00004537 00000072 684.92 195.69 417.27 606.14 798.18 463.21 992.50 445.33 909.62 593.97 838.02 667.99 999.36 653.29
00004538 00000073 687.88 196.63 415.47 606.78 802.57 457.69 992.93 442.84 912.02 589.72 839.98 665.66 995.58 653.64
00004539 00000074 686.92 189.21 413.96 602.42 808.75 454.30 996.72 441.84 917.63 578.72 842.30 657.32 995.69 647.27
00004540 00000075 687.41 190.79 413.52 597.65 807.31 452.88 996.97 439.98 915.00 574.24 837.88 652.03 997.75 641.46
00004541 00000076 687.84 184.66 413.06 603.69 806.63 447.50 994.68 435.67 912.84 566.35 835.34 645.85 996.93 636.27
00004542 00000077 685.70 184.21 414.12 600.72 803.96 443.50 990.41 428.90 910.14 564.12 835.11 641.45 997.29 629.79
00004543 00000078 685.31 184.37 414.87 605.51 803.50 441.06 992.09 427.99 910.50 564.00 833.54 642.39 998.14 631.77
00004544 00000079 684.65 185.54 415.30 603.39 802.20 440.29 991.43 428.05 909.40 564.26 831.82 642.93 996.66 633.12
00004545 00000080 683.29 186.02 416.86 605.67 800.80 441.86 992.22 429.98 909.91 568.01 829.83 643.90 997.89 634.42
00004546 00000081 683.06 187.10 415.07 609.04 800.53 444.98 991.30 431.37 911.33 571.54 829.53 645.64 998.93 634.66
00004547 00000082 682.26 191.31 414.25 605.33 798.69 448.98 991.15 433.65 913.18 579.21 829.61 650.25 998.29 637.95
00004548 00000083 680.38 192.02 415.48 606.07 797.47 450.26 992.15 437.30 911.65 582.73 828.14 654.81 993.86 644.70
00004549 00000084 679.00 192.52 414.74 601.67 796.12 453.82 992.92 439.34 911.91 586.87 827.98 657.90 992.54 646.68
00004550 00000085 678.14 192.55 414.51 602.38 795.91 456.59 992.95 441.92 912.13 590.33 827.72 661.28 990.93 650.11
00004551 00000086 677.63 193.39 414.72 604.19 795.92 457.64 993.16 442.14 913.07 592.04 828.20 663.27 990.58 651.56
00004552 00000087 677.74 192.24 414.79 609.74 795.22 457.45 992.98 442.83 912.02 593.49 828.31 666.02 988.52 655.15
00004553 00000088 677.14 194.70 415.78 610.98 795.50 460.63 991.98 447.49 910.63 595.83 827.23 666.96 988.26 657.12
00004554 00000089 675.88 198.15 418.59 609.35 793.07 467.91 991.42 452.89 908.50 600.29 824.08 666.90 992.81 655.23
00004555 00000090 673.67 201.28 420.56 610.10 791.64 469.06 992.08 454.36 907.67 605.09 821.63 668.40 993.51 657.10
00004556 00000091 674.06 200.53 421.02 607.77 791.54 468.77 991.51 453.61 907.91 604.00 819.94 664.66 995.57 652.85
00004557 00000092 676.39 199.57 419.77 610.62 794.88 466.79 992.06 454.14 908.65 602.41 819.12 660.18 997.19 650.36
00004558 00000093 679.90 201.76 417.19 617.28 797.46 466.11 988.56 456.15 906.73 603.95 821.52 663.61 994.91 655.75
00004559 00000094 680.87 200.56 415.06 616.97 797.01 466.98 988.17 459.30 903.85 602.47 822.15 667.36 988.21 661.25
00004560 DELETE   679.63 200.60 420.99 612.01 803.72 471.27 996.24 458.84 913.54 608.30 825.45 670.67 988.13 661.58
00004561 DELETE   683.10 205.18 427.60 607.02 817.49 471.84 1010.55 456.01 933.27 601.31 843.08 673.75 1002.78 661.26
00004562 DELETE   694.45 203.36 427.30 618.66 840.91 472.56 1029.47 454.62 959.72 598.79 865.03 677.03 1027.78 661.26
00004563 00000098 704.87 206.96 422.37 607.19 850.12 471.87 1034.93 449.41 978.59 603.82 881.55 682.88 1042.60 663.17
00004564 DELETE   703.84 204.80 421.05 626.45 844.39 475.40 1034.39 451.47 967.71 606.56 867.58 681.58 1036.72 661.10
00004565 DELETE   701.86 208.65 420.96 621.92 836.17 478.46 1029.50 458.91 953.50 614.21 856.60 682.83 1027.37 666.40
00004566 DELETE   695.64 206.94 424.40 622.38 821.09 481.39 1017.49 464.17 935.40 620.51 844.39 686.51 1013.47 672.36
00004567 00000102 691.34 208.35 426.85 624.51 808.60 476.54 1003.58 466.16 914.25 623.28 828.82 684.24 996.54 675.89
00004568 00000103 688.26 202.21 429.27 635.37 806.76 472.31 995.39 464.67 915.53 618.21 833.59 688.46 997.98 681.86
00004569 00000104 688.42 200.83 434.04 634.82 812.52 473.80 1001.04 465.78 920.80 619.85 837.87 688.33 1000.76 681.89
00004570 00000105 697.02 200.55 434.25 632.76 823.21 477.50 1017.38 466.74 935.66 622.83 849.77 689.58 1017.35 680.95
00004571 00000106 709.19 204.05 425.47 634.76 837.96 476.36 1031.79 464.32 948.69 618.31 853.16 686.08 1023.56 675.71
00004572 DELETE   716.37 209.88 421.45 620.28 848.20 479.17 1040.50 459.94 966.59 610.16 869.90 684.26 1039.41 667.95
00004573 00000108 726.41 203.75 421.84 622.72 857.80 478.99 1055.91 462.44 984.01 607.34 885.78 676.95 1056.65 664.02
00004574 00000109 730.41 207.09 417.71 615.29 861.63 478.94 1056.97 460.70 987.52 604.17 889.10 673.77 1059.21 659.64
00004575 00000110 724.76 203.22 424.16 619.29 854.68 479.12 1054.05 462.46 977.78 606.28 879.45 673.24 1054.65 660.29
00004576 DELETE   716.50 205.49 426.58 618.31 846.47 477.77 1048.16 462.25 968.02 609.04 868.33 674.57 1045.13 662.87
00004577 00000112 707.73 201.96 423.56 630.92 836.65 474.69 1034.33 458.49 951.73 612.92 856.65 683.94 1031.18 670.30
00004578 DELETE   699.84 199.64 429.35 642.30 826.51 476.37 1028.18 461.84 940.51 619.82 846.39 689.11 1024.51 677.08
00004579 00000114 695.83 200.53 429.83 642.24 818.12 477.29 1019.49 463.96 930.52 623.16 838.81 688.90 1016.94 677.60
00004580 00000115 688.29 197.15 435.95 644.95 814.37 478.76 1011.78 463.52 931.25 621.80 843.13 693.36 1017.95 680.58
00004581 00000116 685.07 198.12 437.09 651.65 812.92 476.09 1005.05 463.23 925.87 623.46 836.38 689.18 1014.64 678.61
00004582 00000117 686.71 201.90 438.75 653.09 806.38 471.31 1007.76 466.00 911.95 624.55 818.61 676.42 1013.62 672.24
00004583 00000118 685.74 206.91 441.87 645.67 816.04 482.63 1009.74 471.92 929.36 631.32 827.55 678.86 1022.78 670.95
00004584 DELETE   698.53 202.30 447.06 642.65 826.17 484.05 1037.22 475.00 943.19 637.19 836.83 676.95 1043.20 670.58
00004585 DELETE   711.46 210.86 445.42 630.45 850.34 489.67 1056.42 475.81 974.90 629.44 853.59 672.59 1058.68 663.15
00004586 00000121 722.04 214.78 446.45 636.33 868.46 491.29 1070.15 472.77 998.17 628.60 875.65 678.93 1075.22 665.52
00004587 00000122 730.26 208.21 442.49 642.66 880.61 494.86 1080.29 469.00 1017.23 625.95 896.07 686.11 1089.25 665.76
CROP_BBOX: 371 0 1480 1076
