Video ID: 	dK90OM26uW8
H: 	1080
W: 	1920
FPS: 	25.0

FRAME INDEX X0 Y0 W H [Landmarks (5 Points)]

00003746 00000000 830.73 179.23 424.96 637.00 867.33 448.19 996.07 436.29 847.71 554.33 901.57 671.84 998.59 660.08
00003747 00000001 821.95 189.31 437.19 623.63 858.92 452.49 995.62 444.01 852.15 565.86 903.96 677.31 1004.41 668.75
00003748 00000002 818.86 191.59 439.44 621.85 855.04 453.19 996.47 442.70 853.23 566.56 900.59 678.51 1002.07 668.52
00003749 00000003 818.81 191.66 440.35 625.81 852.71 451.69 995.03 439.13 852.27 567.50 901.48 682.51 1002.11 670.76
00003750 00000004 815.35 189.45 441.03 627.01 848.28 452.63 992.87 438.68 849.31 567.91 898.01 682.18 1000.76 669.06
00003751 00000005 812.75 187.69 442.28 636.19 851.15 449.64 987.85 437.22 846.46 567.71 895.48 676.97 999.68 664.57
00003752 00000006 805.96 183.59 447.43 644.08 847.25 448.02 982.23 435.19 842.79 567.85 894.12 676.51 996.21 663.87
00003753 00000007 802.68 173.91 443.75 651.34 843.44 447.83 974.22 430.18 838.95 564.23 891.70 675.75 988.04 659.52
00003754 00000008 799.54 169.12 438.38 648.73 838.21 446.26 964.39 429.15 835.31 562.63 888.05 670.58 979.02 655.07
00003755 DELETE   794.94 172.09 433.82 639.16 830.94 444.35 956.80 428.64 829.46 564.25 880.43 670.22 968.18 656.56
00003756 00000010 786.28 168.32 439.74 643.22 821.68 444.72 948.12 428.88 823.42 567.76 874.89 671.69 961.41 658.10
00003757 00000011 778.29 175.16 447.21 636.40 816.25 445.18 943.66 432.10 817.68 572.74 872.68 672.05 962.94 660.39
00003758 00000012 772.58 172.40 451.44 637.30 809.70 446.23 940.18 432.47 810.17 571.31 865.38 671.65 960.36 659.63
00003759 00000013 767.66 175.86 455.97 633.08 806.34 446.73 938.50 430.96 807.07 571.18 862.39 673.31 958.23 659.88
00003760 00000014 765.60 173.96 455.77 636.53 805.81 445.92 936.22 429.99 804.60 570.16 861.62 673.49 955.92 660.08
00003761 00000015 764.49 172.64 457.25 640.64 804.30 445.68 934.53 428.10 802.46 568.26 859.89 675.62 953.44 660.88
00003762 00000016 762.66 169.86 459.69 643.12 803.63 443.87 933.59 426.54 802.32 566.47 859.23 674.54 951.60 660.12
00003763 00000017 762.68 169.07 459.20 643.96 803.22 443.18 932.81 425.55 801.36 565.70 859.16 673.87 951.24 659.17
00003764 00000018 761.95 169.44 460.88 644.23 802.84 443.30 933.27 425.70 801.39 566.33 859.27 674.04 951.94 659.33
00003765 00000019 761.70 170.05 462.48 645.26 803.00 443.32 932.96 426.76 801.00 567.96 860.22 673.85 953.41 659.87
00003766 00000020 762.75 170.97 464.74 646.33 804.87 444.05 933.81 425.66 802.61 567.54 864.32 674.78 957.36 659.30
00003767 00000021 766.28 174.14 464.80 647.46 809.55 444.62 936.37 423.85 806.28 569.41 873.78 676.86 966.54 658.92
00003768 00000022 768.71 171.61 465.18 645.99 810.91 446.03 940.97 423.85 811.80 573.92 879.62 678.56 974.25 659.07
00003769 00000023 768.43 170.21 462.51 640.82 809.44 444.87 940.75 424.40 812.72 573.21 876.16 674.59 971.49 656.63
00003770 00000024 769.91 167.16 458.07 643.54 814.19 446.66 942.67 429.67 817.05 570.52 876.46 670.53 971.26 655.26
00003771 00000025 771.60 167.46 456.47 645.73 815.60 447.32 941.53 430.95 816.09 568.65 874.87 670.89 968.40 656.26
00003772 00000026 772.92 162.56 453.72 650.28 814.66 443.36 940.94 427.70 815.62 564.30 870.80 667.54 963.62 653.87
00003773 00000027 775.55 155.37 449.32 656.42 811.51 441.70 938.33 422.40 811.61 559.81 866.22 667.54 960.59 651.41
00003774 00000028 777.47 153.72 447.86 652.19 809.45 435.52 939.80 416.68 812.17 555.93 862.92 664.20 959.01 648.64
00003775 00000029 779.78 150.57 445.20 649.84 809.00 434.21 943.56 407.54 815.32 549.92 863.43 663.08 965.73 641.09
00003776 00000030 777.76 151.17 444.02 650.47 811.40 432.98 943.15 405.34 816.46 550.29 872.34 658.35 976.16 634.83
00003777 00000031 774.92 151.44 446.64 651.72 812.48 434.53 939.33 407.40 814.02 550.21 874.27 654.28 978.88 630.80
00003778 00000032 771.70 150.54 450.99 654.83 809.07 434.65 937.25 409.58 810.81 554.72 871.38 656.48 975.45 634.80
00003779 00000033 768.60 155.86 451.64 646.52 807.25 435.99 935.72 415.25 807.94 558.67 869.16 655.06 973.19 636.66
00003780 00000034 764.33 162.45 454.34 636.34 805.18 436.90 935.28 418.46 808.19 560.70 867.76 654.79 971.29 638.44
00003781 00000035 763.16 163.40 451.14 631.90 802.33 438.66 932.81 418.99 804.12 559.15 862.38 654.05 967.10 636.93
00003782 00000036 761.92 161.43 449.64 631.80 800.26 438.01 931.00 417.57 801.60 557.00 859.79 653.11 964.62 635.60
00003783 00000037 761.16 160.61 451.38 631.96 800.17 435.98 931.25 415.00 801.03 553.18 857.80 651.52 963.10 633.78
00003784 00000038 759.56 160.09 446.76 629.90 797.55 433.79 929.10 415.38 797.68 552.63 854.12 648.15 960.85 632.47
00003785 00000039 756.16 162.70 445.92 626.02 794.17 432.30 926.14 416.96 794.82 553.98 851.03 645.56 958.50 632.29
00003786 00000040 754.36 165.20 446.28 623.93 792.86 434.08 924.52 419.42 793.55 554.30 849.38 644.79 958.11 631.97
00003787 00000041 753.83 169.21 445.54 619.56 791.44 436.23 922.71 421.64 792.27 556.87 848.55 645.98 957.22 633.05
00003788 00000042 752.79 174.17 446.12 615.51 791.08 439.00 922.11 423.27 793.12 558.43 849.32 648.26 957.02 634.28
00003789 00000043 751.79 172.42 447.02 619.25 790.94 440.17 921.24 424.78 792.82 558.99 848.83 649.42 955.55 635.57
00003790 00000044 752.26 175.81 445.37 616.12 790.94 442.22 919.78 426.86 792.27 561.35 848.57 650.17 954.88 636.17
00003791 00000045 750.71 178.16 446.35 615.15 790.77 443.19 918.41 429.18 790.94 563.34 847.43 650.86 952.91 637.80
00003792 00000046 750.50 181.99 446.85 612.35 790.35 443.19 916.56 430.48 788.79 565.40 847.28 651.05 951.39 638.88
00003793 00000047 748.83 184.50 447.30 610.29 788.51 443.64 914.60 430.82 787.43 566.62 846.53 651.64 951.05 639.14
00003794 00000048 747.66 186.75 446.22 607.40 787.70 442.57 913.30 431.60 786.54 566.57 845.51 650.37 949.64 639.16
00003795 00000049 749.38 186.89 445.76 606.80 787.52 442.16 913.55 430.96 785.24 566.72 844.80 651.81 948.81 640.58
00003796 00000050 749.11 187.62 445.47 606.91 786.86 441.63 913.72 430.56 784.83 566.79 843.96 652.42 948.24 641.33
00003797 00000051 749.20 183.90 444.47 610.85 787.10 441.21 912.38 430.51 784.45 566.26 843.82 652.82 945.57 642.08
00003798 00000052 747.19 183.55 444.42 616.22 789.83 441.44 914.11 431.93 783.59 560.47 843.60 653.49 941.56 642.64
00003799 00000053 744.71 183.82 442.87 617.85 788.44 442.64 910.92 431.93 783.30 561.21 842.82 652.99 939.83 641.19
00003800 00000054 746.75 183.58 441.57 615.12 789.39 440.95 912.48 431.42 783.92 560.76 844.00 652.75 940.96 641.86
00003801 00000055 748.45 182.72 443.58 607.59 787.66 438.72 913.72 429.22 787.06 563.55 844.17 651.27 942.94 641.82
00003802 00000056 750.30 176.75 442.92 611.42 789.48 436.64 915.35 427.98 788.17 561.18 844.16 649.07 942.48 640.54
00003803 00000057 750.49 176.23 442.30 610.48 789.07 435.14 915.30 427.29 787.61 560.74 843.32 647.41 942.75 639.57
00003804 00000058 750.67 174.12 442.67 613.15 789.99 435.25 915.75 427.25 788.80 560.33 843.82 647.43 942.15 639.53
00003805 00000059 749.15 177.86 442.17 609.41 791.46 437.63 917.83 431.58 793.59 561.61 846.78 647.55 944.41 640.93
00003806 00000060 752.08 180.48 438.74 606.29 797.07 437.88 918.25 436.12 794.72 562.62 851.63 647.60 946.60 644.18
00003807 00000061 754.45 178.58 437.84 608.65 799.03 436.02 919.81 435.02 796.17 561.95 853.74 647.02 947.94 644.26
00003808 00000062 756.26 174.51 436.83 611.09 796.16 438.78 921.63 429.44 798.28 559.93 852.39 649.24 949.83 640.31
00003809 00000063 756.17 171.37 433.96 610.48 794.34 436.47 923.63 425.27 797.81 556.25 850.28 646.56 950.75 636.25
00003810 00000064 755.38 165.30 435.73 616.58 793.37 433.93 922.57 421.37 794.23 550.96 846.61 644.97 946.08 633.87
00003811 00000065 756.57 161.88 433.91 618.16 793.39 430.18 922.22 417.31 791.66 546.92 845.57 643.29 944.63 632.06
00003812 00000066 760.79 162.81 431.53 616.89 796.71 429.60 923.62 415.56 793.93 546.35 848.93 643.88 946.14 631.81
00003813 00000067 764.82 165.32 430.11 613.47 800.92 429.88 925.58 416.12 796.64 546.22 852.31 643.29 948.66 631.43
00003814 00000068 767.71 167.71 429.36 611.19 804.41 429.72 927.85 417.14 799.76 546.96 854.43 642.50 950.44 631.71
00003815 00000069 767.54 167.07 428.37 611.64 803.57 429.85 927.13 417.66 798.89 547.95 854.65 642.47 951.09 631.85
00003816 00000070 767.72 166.59 427.82 612.65 803.02 429.77 925.88 418.15 797.71 548.76 854.47 642.34 950.95 632.05
00003817 00000071 769.02 169.35 426.26 608.99 805.63 428.88 927.74 419.21 799.71 548.55 854.53 640.39 951.28 631.84
00003818 00000072 768.44 170.56 426.12 607.88 806.19 429.12 929.49 422.06 802.57 551.03 854.87 639.08 953.23 632.52
00003819 00000073 768.61 176.91 431.01 603.05 808.72 433.48 929.52 427.27 806.83 557.76 860.81 640.75 959.75 634.43
00003820 00000074 767.24 185.31 433.03 600.21 806.61 435.88 929.83 432.45 805.73 566.05 861.74 645.85 962.03 641.50
00003821 00000075 768.52 187.57 432.29 598.33 808.20 437.86 930.86 433.74 806.27 566.57 861.05 647.15 961.53 642.33
00003822 00000076 772.32 179.66 429.88 601.37 811.09 431.73 933.99 430.32 810.19 560.51 859.84 640.69 959.79 638.32
00003823 00000077 780.16 168.41 428.97 611.42 817.86 425.43 940.19 422.32 814.86 550.88 863.82 637.97 959.98 634.54
00003824 00000078 789.86 163.88 420.25 613.90 825.55 423.97 948.44 419.91 820.45 544.80 867.23 636.61 961.39 632.68
00003825 00000079 795.31 162.44 416.03 615.03 829.65 423.92 953.64 419.72 825.27 544.23 869.94 637.30 964.90 633.20
00003826 00000080 794.33 163.17 420.24 620.31 830.80 422.30 955.23 423.41 825.27 550.95 873.91 637.61 968.67 637.60
00003827 00000081 790.76 167.67 425.28 624.25 826.78 429.40 953.97 431.67 827.51 563.48 875.97 648.18 971.44 649.05
00003828 00000082 793.48 173.34 429.40 625.81 828.19 434.07 956.38 434.33 828.88 568.81 879.49 656.79 972.76 655.70
00003829 00000083 792.88 170.49 429.51 624.79 829.36 428.69 958.44 431.16 829.19 564.27 878.42 650.91 973.95 651.78
00003830 00000084 800.31 155.92 423.88 629.42 834.60 417.73 965.71 419.89 832.80 548.59 877.29 640.57 971.94 641.47
00003831 DELETE   805.15 142.09 426.83 635.03 838.22 411.71 974.73 408.50 837.20 532.13 879.50 633.38 974.70 629.80
00003832 00000086 807.26 136.04 423.21 635.46 843.97 401.85 982.87 398.27 845.21 520.17 881.77 627.20 974.49 623.76
00003833 DELETE   809.90 135.32 423.50 634.81 845.73 397.63 985.53 395.75 845.17 515.59 881.00 624.41 974.56 622.29
00003834 00000088 810.23 140.19 424.37 632.74 845.31 399.79 985.73 397.77 845.32 518.45 882.71 626.91 977.56 624.22
00003835 00000089 809.96 144.71 426.72 635.17 845.64 409.92 983.48 407.92 843.63 526.96 886.04 630.23 983.54 626.93
00003836 00000090 809.10 148.59 426.70 637.49 843.41 423.26 977.11 418.31 838.60 537.96 887.28 639.04 986.04 632.96
00003837 00000091 805.15 155.18 428.13 631.76 841.56 422.16 974.37 420.43 837.51 541.21 885.04 638.42 986.22 634.95
00003838 DELETE   806.50 140.80 425.17 642.28 840.41 416.33 977.73 412.08 837.88 532.69 882.65 633.74 987.63 628.40
00003839 00000093 806.25 141.23 423.07 634.90 839.96 408.54 977.06 401.22 836.50 523.76 881.52 628.95 984.72 621.39
00003840 00000094 806.28 137.08 422.33 634.70 839.03 403.58 977.03 396.59 836.36 519.88 878.90 625.98 981.70 618.96
00003841 00000095 804.95 136.60 420.54 632.63 837.16 400.37 974.85 395.57 834.59 520.73 877.35 622.86 981.90 617.65
00003842 00000096 801.54 139.86 418.51 626.21 834.09 398.76 969.95 397.54 831.41 523.27 873.75 620.24 979.40 618.26
00003843 00000097 796.91 141.83 419.67 622.39 830.14 398.96 963.97 397.08 828.62 523.42 870.12 619.96 973.89 617.78
00003844 00000098 792.74 138.95 418.05 623.47 826.53 397.54 962.63 396.37 827.39 523.05 866.44 618.71 972.58 617.22
00003845 00000099 788.10 139.39 414.43 620.19 823.93 394.91 959.20 395.23 825.67 520.38 862.05 615.49 967.40 615.32
00003846 00000100 784.42 139.35 412.96 618.01 820.90 391.72 956.00 394.50 823.10 517.83 857.39 611.85 963.64 613.70
00003847 00000101 781.50 143.10 413.01 611.04 816.22 391.34 952.36 392.53 818.40 514.35 851.95 610.58 958.28 611.22
00003848 00000102 778.40 145.91 416.37 606.24 811.72 388.31 948.19 391.60 812.34 510.01 845.10 607.75 950.35 610.16
00003849 00000103 775.29 142.16 418.86 607.77 806.16 388.55 944.00 389.71 808.23 507.90 839.86 609.28 942.83 610.03
00003850 00000104 768.78 140.07 423.23 608.24 799.39 388.14 940.15 388.37 804.52 507.93 835.30 610.23 936.98 609.79
00003851 00000105 762.53 137.44 424.81 612.11 794.38 388.32 936.51 388.00 799.23 507.55 830.07 611.71 932.37 610.56
00003852 00000106 760.22 133.73 425.74 615.75 791.85 385.34 935.16 386.33 795.30 508.64 826.48 610.27 931.02 610.23
00003853 00000107 757.97 122.22 419.76 628.72 779.41 378.08 939.08 381.71 781.62 509.24 814.47 613.04 927.14 615.90
00003854 00000108 756.16 123.47 419.79 628.22 777.81 378.29 937.42 382.34 780.53 510.17 813.92 613.41 925.68 616.81
00003855 00000109 756.54 124.36 419.92 629.58 777.83 380.11 937.30 384.27 779.98 512.83 813.15 614.92 926.20 618.30
00003856 00000110 754.45 132.34 428.77 621.61 789.75 386.64 932.82 392.79 790.56 516.55 824.51 611.10 930.42 615.08
00003857 00000111 756.96 134.35 426.42 621.18 792.63 394.18 934.86 401.12 791.17 517.09 825.35 612.59 932.93 617.20
00003858 00000112 757.96 135.20 427.23 615.76 793.87 395.09 940.66 402.90 790.19 519.83 824.54 612.84 930.54 617.73
00003859 00000113 761.74 132.99 425.70 617.30 796.95 396.51 943.95 403.37 791.29 516.97 825.12 613.28 929.88 617.65
00003860 DELETE   767.64 134.87 426.36 612.82 803.08 391.53 953.17 399.53 796.96 513.26 829.44 612.25 932.35 618.22
00003861 DELETE   782.88 132.40 411.05 613.58 810.77 387.01 947.40 395.06 808.32 507.09 833.54 607.01 933.49 613.79
00003862 DELETE   780.68 124.69 417.72 622.83 816.76 386.23 957.86 391.85 809.33 499.23 836.82 604.09 943.54 607.92
00003863 00000117 785.21 121.59 416.57 622.80 822.26 380.64 965.26 386.00 811.12 496.63 840.09 605.14 947.57 608.77
00003864 00000118 791.57 116.48 419.67 621.66 825.31 374.86 977.10 378.92 816.44 492.26 850.61 607.06 950.65 608.76
00003865 00000119 793.05 112.56 418.86 625.50 827.77 375.00 978.95 376.76 819.34 488.68 853.24 606.02 952.57 606.05
00003866 00000120 795.06 113.47 420.91 626.31 830.37 375.33 981.90 376.67 823.83 490.04 857.21 607.26 955.79 607.06
00003867 00000121 797.45 117.38 423.39 619.29 831.19 374.87 984.15 376.89 826.63 491.16 859.32 606.97 958.37 607.39
00003868 00000122 799.18 120.31 424.08 618.16 831.36 375.88 985.24 378.88 828.03 494.77 861.17 608.44 961.14 609.58
00003869 00000123 798.79 120.67 426.36 622.24 831.09 377.14 985.10 378.98 828.41 496.18 861.54 610.37 962.34 610.55
00003870 00000124 803.52 121.00 418.22 628.36 833.49 377.11 974.32 380.49 831.92 503.70 866.09 610.44 965.15 612.02
00003871 00000125 801.22 122.34 419.76 637.25 832.80 379.49 973.25 384.56 830.56 509.23 865.85 616.58 963.76 619.96
00003872 00000126 804.62 126.62 416.94 633.88 837.54 382.90 972.09 388.17 827.25 507.00 866.47 613.38 958.92 617.72
00003873 00000127 804.08 131.14 415.87 627.42 835.96 387.01 974.34 391.30 831.54 511.36 865.86 615.88 960.55 619.53
00003874 00000128 803.87 129.61 417.79 628.95 838.45 391.55 976.44 394.60 835.41 515.34 868.40 618.91 963.39 621.68
00003875 00000129 806.33 135.85 419.97 623.65 839.93 394.21 981.81 398.01 840.24 519.35 873.71 622.38 972.73 624.94
00003876 00000130 808.97 145.56 419.31 609.08 841.79 396.12 984.62 401.34 843.10 523.23 880.62 621.15 978.92 624.23
00003877 00000131 811.50 145.73 420.15 610.13 844.76 396.61 987.07 400.68 844.87 522.73 883.19 622.72 980.40 624.73
00003878 00000132 812.16 143.90 420.72 611.71 846.16 394.19 991.10 398.90 847.29 523.85 885.40 622.89 984.82 625.29
00003879 00000133 812.65 142.37 422.50 615.35 848.39 391.50 996.25 397.74 850.23 524.04 888.50 623.06 989.17 626.55
00003880 00000134 814.90 140.11 421.22 620.20 851.02 390.89 999.40 396.54 853.41 523.49 890.52 624.99 990.97 627.98
00003881 00000135 815.79 142.27 422.45 619.44 852.39 390.38 1001.06 395.89 853.92 522.90 891.82 624.56 993.35 627.29
00003882 00000136 814.23 142.37 425.74 614.78 854.53 392.02 997.47 394.14 855.98 519.02 894.16 622.04 993.66 622.54
00003883 00000137 813.92 143.01 425.09 615.78 852.74 392.17 997.23 394.84 855.13 520.33 892.82 622.33 993.47 623.16
00003884 00000138 813.52 143.03 425.42 614.82 852.55 394.55 997.58 397.04 854.84 521.29 892.11 621.89 993.94 622.67
00003885 00000139 813.35 144.32 425.68 612.54 852.07 394.03 997.44 396.96 854.58 521.46 892.08 620.70 994.05 621.82
00003886 00000140 811.94 140.95 425.94 615.00 850.54 391.44 998.07 394.34 853.66 519.82 889.59 618.00 994.32 619.06
00003887 00000141 809.47 141.47 427.81 609.45 847.54 389.28 997.14 393.23 852.56 519.77 885.79 615.87 992.30 617.89
00003888 00000142 807.92 143.16 427.78 604.52 845.38 388.19 993.15 392.27 848.66 519.09 884.85 614.94 988.57 617.06
00003889 00000143 809.15 143.01 422.85 605.32 841.30 390.24 986.78 394.72 843.53 519.93 881.10 614.28 985.21 616.65
00003890 00000144 810.64 142.61 419.17 609.21 846.69 399.88 980.38 402.63 841.29 518.26 884.41 613.49 983.94 614.11
00003891 00000145 809.75 140.32 416.05 614.45 845.14 399.61 980.08 402.97 839.97 518.03 882.05 611.69 985.72 612.90
00003892 00000146 807.20 137.26 418.61 619.36 842.21 396.24 982.03 399.74 840.26 517.01 878.97 612.60 983.82 614.13
00003893 00000147 805.43 135.29 415.89 618.69 838.34 394.85 980.88 397.45 839.25 517.35 873.88 613.54 981.06 614.85
00003894 00000148 803.42 135.62 416.23 618.91 836.17 395.19 977.63 395.94 835.39 516.97 872.21 614.83 978.60 614.75
00003895 00000149 800.42 137.34 419.86 616.70 834.46 392.87 974.27 395.01 831.79 517.66 869.40 613.60 973.91 614.85
00003896 00000150 796.44 140.59 419.96 611.04 832.47 394.82 968.24 396.57 829.71 518.79 867.56 612.92 969.39 614.05
00003897 00000151 791.91 140.27 420.58 612.18 828.51 395.23 963.48 396.21 826.69 518.71 864.78 613.66 964.77 614.19
00003898 00000152 786.46 140.22 425.75 614.83 825.11 395.57 959.45 396.35 824.06 517.92 859.86 613.39 958.62 613.98
00003899 00000153 781.08 146.85 428.91 608.39 820.09 397.27 954.71 397.00 821.16 519.55 856.66 614.27 956.27 614.07
00003900 00000154 778.57 143.41 432.12 618.57 816.89 400.75 953.85 398.47 818.93 521.36 852.96 619.60 954.44 617.93
00003901 00000155 776.38 145.33 433.27 624.87 813.75 404.42 951.71 400.14 814.66 525.22 850.21 628.97 949.50 626.01
CROP_BBOX: 488 0 1594 1060
