Video ID: 	ql8LBb9iiYI
H: 	1080
W: 	1920
FPS: 	25.0

FRAME INDEX X0 Y0 W H [Landmarks (5 Points)]

00004643 00000000 604.50 82.74 420.69 636.24 742.59 335.89 932.91 329.44 869.50 427.79 786.95 564.72 936.85 558.45
00004644 00000001 607.10 83.00 420.00 636.31 746.51 337.26 937.26 328.53 876.26 430.30 790.26 564.67 941.45 556.41
00004645 00000002 609.08 83.12 419.94 636.03 747.88 337.66 939.53 327.33 877.79 428.17 792.42 563.93 944.80 554.30
00004646 00000003 610.53 81.76 422.07 639.09 747.76 333.85 941.36 322.57 880.09 425.71 791.49 562.38 949.35 551.81
00004647 00000004 611.06 80.74 420.85 637.28 751.21 337.09 946.54 327.68 883.61 425.73 790.67 560.68 951.65 551.62
00004648 00000005 612.27 80.77 420.86 636.45 755.88 332.81 948.60 324.91 886.77 420.88 792.52 556.44 952.39 548.63
00004649 00000006 616.84 73.79 420.56 641.34 759.37 334.18 954.89 324.06 892.28 421.18 799.06 556.86 960.59 546.94
00004650 DELETE   623.52 70.99 419.39 636.41 772.95 329.60 969.17 322.15 909.19 419.66 815.45 552.25 973.00 544.54
00004651 DELETE   628.96 73.44 418.91 627.11 801.91 324.58 990.76 320.07 953.05 414.02 843.44 546.82 995.06 541.50
00004652 00000009 639.04 83.98 425.76 618.88 824.78 327.83 997.52 321.37 979.34 413.39 878.11 550.93 1012.98 545.67
00004653 00000010 655.18 77.96 418.41 629.42 844.35 324.73 1017.69 320.71 1001.91 423.63 893.19 553.44 1026.38 549.09
00004654 00000011 657.42 76.79 422.76 630.52 849.43 328.55 1026.36 331.32 1008.54 414.58 902.38 553.33 1036.84 554.18
00004655 00000012 656.47 82.76 419.86 628.17 842.68 331.97 1018.32 325.76 1002.44 423.20 894.41 556.35 1031.14 550.42
00004656 00000013 655.24 87.54 420.36 623.29 836.50 329.22 1018.95 324.48 998.32 420.90 887.44 554.04 1031.01 549.25
00004657 00000014 656.58 86.15 416.24 616.77 837.81 331.15 1018.54 325.67 998.34 420.81 887.71 549.89 1029.43 544.64
00004658 00000015 657.31 80.30 418.11 618.79 847.47 327.85 1023.13 324.75 1010.38 418.28 898.26 547.54 1034.62 543.85
00004659 00000016 666.88 83.00 412.17 608.91 870.90 317.71 1033.82 321.42 1030.79 409.97 916.51 538.76 1044.41 540.25
00004660 00000017 671.26 78.41 407.36 612.02 873.92 310.58 1040.63 316.79 1038.62 407.27 921.99 538.02 1051.87 541.51
00004661 00000018 665.40 78.32 403.40 608.49 868.38 315.46 1033.61 318.69 1033.02 405.52 917.13 536.58 1045.23 537.61
00004662 00000019 660.74 78.97 407.54 613.68 858.30 313.89 1026.05 314.27 1020.48 411.34 908.13 541.79 1038.70 540.87
00004663 00000020 652.63 87.98 413.99 605.40 849.82 316.07 1019.25 315.95 1011.33 413.18 899.22 541.24 1032.01 540.43
00004664 00000021 657.67 71.74 407.55 618.03 858.04 316.08 1017.71 317.59 1013.27 413.38 903.97 540.23 1026.67 540.33
00004665 00000022 662.76 78.02 400.17 617.51 864.41 322.67 1027.55 326.48 1021.40 409.87 896.21 540.16 1032.27 542.19
00004666 00000023 657.98 77.14 401.73 616.97 859.55 319.42 1025.04 327.05 1014.11 407.79 888.45 537.19 1025.46 542.43
00004667 00000024 651.40 72.97 403.66 618.47 851.32 323.74 1018.93 326.63 1005.89 408.19 881.52 537.13 1021.46 538.92
00004668 00000025 645.35 70.77 407.42 621.92 846.33 322.23 1012.93 327.51 1000.95 402.50 878.54 535.47 1019.01 539.45
00004669 00000026 642.68 66.63 407.84 625.48 837.92 319.17 1007.26 321.02 993.31 399.41 873.98 533.28 1017.02 534.43
00004670 00000027 640.16 66.84 407.37 620.84 836.65 316.96 1004.78 319.24 991.56 396.60 872.64 530.52 1014.18 532.02
00004671 00000028 637.84 62.91 406.48 622.62 833.96 312.12 999.80 317.88 989.10 386.42 872.83 526.05 1012.08 530.42
00004672 00000029 634.65 62.33 410.00 620.62 830.31 309.95 996.32 312.88 984.03 385.07 870.76 524.88 1009.18 526.97
00004673 00000030 634.19 63.16 409.53 617.01 829.13 307.48 993.26 310.00 984.70 379.84 871.64 521.88 1008.83 523.82
00004674 00000031 632.51 56.83 408.39 624.23 825.88 307.45 988.15 307.64 982.73 378.64 871.14 521.61 1007.00 521.74
00004675 00000032 632.81 53.78 408.61 629.09 824.35 304.95 988.82 305.57 981.87 377.54 870.34 521.70 1007.73 521.91
00004676 00000033 631.67 54.97 409.39 625.54 823.51 307.31 988.19 307.21 980.27 380.20 867.26 521.48 1005.82 521.14
00004677 00000034 630.98 61.49 410.24 616.32 822.48 308.06 988.65 305.75 979.69 382.37 866.58 522.25 1005.92 520.14
00004678 00000035 628.78 64.35 411.08 606.60 823.24 312.14 989.39 306.22 980.05 388.23 867.09 523.70 1004.76 518.78
00004679 00000036 624.41 62.45 411.52 607.48 820.54 310.15 985.79 309.01 977.07 386.69 866.28 523.56 997.74 522.27
00004680 00000037 619.85 63.80 413.18 608.52 816.28 310.03 979.20 305.03 972.87 389.73 866.14 526.67 994.19 521.95
00004681 00000038 614.55 66.89 413.97 606.13 805.51 308.94 973.16 302.88 966.76 387.18 860.87 527.30 992.20 520.89
00004682 00000039 610.47 68.46 417.19 603.77 798.60 308.11 968.52 301.96 958.80 384.35 855.40 525.39 989.14 518.65
00004683 00000040 607.01 64.90 413.34 606.65 800.69 307.65 961.83 305.58 954.46 380.67 855.09 522.08 984.06 518.80
00004684 00000041 598.06 78.83 413.26 589.45 782.38 303.04 952.03 305.93 930.15 386.13 837.11 520.05 965.62 521.06
00004685 DELETE   579.21 89.66 412.45 566.51 757.23 297.04 935.49 303.39 907.52 386.72 811.18 518.54 948.46 523.19
00004686 DELETE   579.96 91.24 402.36 557.54 727.96 305.93 921.31 303.34 873.51 383.80 768.32 515.32 925.97 512.65
00004687 00000044 570.65 74.49 405.42 572.19 711.70 306.35 903.35 299.21 848.81 389.92 752.87 513.88 909.77 506.42
00004688 00000045 564.19 73.04 408.73 585.26 703.49 305.55 892.78 290.95 839.73 385.32 750.54 517.14 906.05 503.28
00004689 00000046 561.03 68.76 411.95 597.12 700.73 303.25 887.73 286.50 835.74 382.23 751.80 519.93 901.93 504.43
00004690 00000047 557.72 69.21 414.94 599.46 698.40 302.42 883.30 285.74 831.05 378.23 752.95 520.67 898.17 505.10
00004691 00000048 557.66 69.02 410.20 601.39 694.89 301.42 880.43 286.63 824.36 380.54 750.10 521.66 894.28 507.52
00004692 00000049 556.22 70.72 410.72 605.18 690.95 302.14 879.20 286.85 821.09 384.39 747.38 526.05 893.19 511.27
00004693 00000050 555.13 67.64 414.76 615.98 689.86 303.23 880.82 288.76 819.93 387.19 741.47 530.43 891.78 516.56
00004694 00000051 555.74 68.69 414.91 616.38 691.66 304.79 883.41 290.61 822.45 388.48 740.88 531.12 893.11 517.73
00004695 00000052 557.32 71.70 415.90 614.44 693.63 308.12 884.13 295.26 824.49 392.13 741.51 533.71 893.84 521.81
00004696 00000053 561.25 75.55 414.43 610.09 695.45 307.77 887.28 296.11 826.94 392.55 742.83 533.44 895.65 523.12
00004697 00000054 562.31 75.51 413.91 610.16 695.99 308.49 887.80 296.57 828.74 393.03 742.95 534.29 896.24 523.78
00004698 00000055 560.99 77.29 414.70 615.86 696.84 308.22 889.94 296.88 832.14 396.51 742.19 537.19 897.39 527.13
00004699 00000056 559.76 75.67 417.76 619.03 699.22 310.93 891.09 299.67 835.55 399.42 744.67 536.41 900.63 526.33
00004700 00000057 562.80 78.04 415.50 611.03 702.50 312.28 893.94 301.72 839.04 401.73 747.66 535.08 902.92 525.63
00004701 00000058 563.19 78.88 416.22 611.61 706.22 311.88 898.89 302.28 846.01 403.30 749.42 536.05 905.21 527.45
00004702 00000059 567.42 78.94 413.22 611.67 708.60 312.10 902.63 303.78 846.88 402.19 751.90 535.69 909.09 527.88
00004703 00000060 572.59 80.71 410.04 607.88 712.31 311.77 904.74 305.65 850.12 401.70 754.61 533.41 911.70 527.69
00004704 00000061 574.73 80.02 410.04 605.99 714.00 313.55 905.05 307.10 849.66 400.81 756.09 532.22 911.73 526.26
00004705 00000062 578.05 81.58 407.11 606.91 715.96 311.78 907.26 304.27 852.67 400.22 756.59 532.73 913.24 525.85
00004706 00000063 577.74 80.80 407.48 606.25 717.55 310.04 908.25 302.04 856.64 397.32 757.62 530.56 914.48 523.31
00004707 00000064 577.74 80.40 409.31 609.21 720.10 308.95 909.91 301.64 861.35 397.27 758.15 529.73 916.15 523.24
00004708 00000065 576.38 81.94 411.85 607.92 722.81 307.62 913.08 300.27 867.23 395.86 760.72 529.89 918.68 523.14
00004709 00000066 576.70 82.28 412.72 611.62 724.69 306.75 915.60 300.48 868.90 398.64 761.43 531.70 919.86 525.72
00004710 00000067 580.27 83.98 410.74 609.17 728.06 310.16 918.29 305.69 870.37 399.71 763.88 532.46 922.36 528.15
00004711 00000068 581.91 79.71 410.59 614.34 728.53 310.36 920.34 305.97 868.88 401.33 764.25 534.24 922.40 529.77
00004712 00000069 582.87 83.61 412.06 613.90 729.25 311.44 924.45 307.64 872.43 402.02 764.18 536.07 927.53 532.23
00004713 00000070 579.59 74.99 413.56 623.63 726.60 308.61 917.07 301.87 873.85 398.60 774.61 539.40 932.51 533.03
00004714 00000071 583.06 72.43 412.66 627.12 728.65 309.45 918.90 300.20 877.07 401.72 777.26 540.68 935.06 532.11
00004715 00000072 586.04 69.57 412.76 628.74 730.92 310.20 921.68 301.83 877.58 403.98 778.46 540.78 935.77 532.87
00004716 00000073 587.87 69.02 414.26 626.06 733.20 311.11 925.60 303.16 879.40 404.39 781.32 540.98 937.84 533.31
00004717 00000074 589.62 70.20 414.59 625.28 735.22 316.20 931.27 308.13 881.83 405.24 782.34 540.81 943.41 533.46
00004718 00000075 589.98 74.61 416.65 614.98 734.65 319.73 935.86 312.10 883.72 405.04 783.55 541.96 948.30 535.30
00004719 00000076 589.20 77.64 422.85 615.99 742.22 323.58 938.70 320.58 887.88 406.53 784.70 539.45 951.07 535.87
00004720 00000077 589.71 79.22 421.40 612.44 741.98 323.91 937.68 323.61 882.43 406.02 783.43 538.30 946.43 537.08
00004721 00000078 591.88 73.87 417.90 617.51 733.57 314.96 928.10 309.23 871.71 400.52 780.59 540.06 939.05 535.02
00004722 00000079 586.36 73.89 412.05 619.85 727.84 306.30 911.74 302.56 862.01 391.19 773.40 535.60 919.04 532.04
00004723 00000080 578.45 64.98 413.52 643.50 714.87 300.12 898.55 290.18 848.47 387.29 766.67 541.33 915.29 531.88
00004724 00000081 572.96 70.47 412.77 624.62 702.70 301.00 898.87 289.03 835.65 388.32 744.03 532.14 904.47 521.93
00004725 00000082 568.38 70.11 414.74 621.16 695.59 301.27 892.97 286.14 828.55 385.07 739.66 531.10 899.92 517.69
00004726 00000083 565.19 77.73 415.89 597.90 689.65 302.86 892.05 290.36 823.49 385.59 735.18 528.51 898.09 516.42
00004727 00000084 561.39 85.81 416.75 579.08 684.71 308.84 890.72 296.11 818.44 397.04 730.71 534.24 899.53 521.49
00004728 00000085 551.81 82.57 423.39 598.97 681.73 311.25 882.28 302.46 811.20 403.08 724.43 534.04 890.70 524.53
00004729 00000086 547.07 83.08 424.16 615.93 680.08 315.78 873.89 304.42 812.90 410.83 724.01 542.13 884.00 531.07
00004730 00000087 542.84 86.77 426.82 618.31 675.83 319.92 872.35 308.93 809.07 414.04 719.10 545.84 883.37 534.91
00004731 00000088 539.93 88.19 424.09 617.94 672.23 320.68 867.84 310.96 804.60 413.81 715.61 547.27 879.09 537.53
00004732 00000089 537.24 81.61 423.33 615.95 666.96 324.96 866.50 310.14 801.08 412.32 716.65 549.48 879.75 536.00
00004733 00000090 535.52 81.99 422.78 617.96 662.65 320.76 863.95 306.41 799.01 406.86 711.74 547.09 880.65 533.82
00004734 00000091 532.53 81.87 423.95 623.03 659.10 317.11 859.27 302.47 795.41 404.77 708.49 547.63 877.00 534.40
00004735 00000092 531.05 80.95 425.70 623.34 660.26 318.77 856.26 303.53 796.55 406.59 712.99 550.60 873.84 536.88
00004736 00000093 531.72 84.42 424.05 622.87 662.75 321.11 858.62 306.63 798.59 410.63 712.89 552.68 873.35 539.55
00004737 00000094 533.48 84.16 422.83 626.95 666.22 324.68 860.47 311.88 800.83 415.95 714.42 556.18 872.72 544.60
00004738 00000095 538.49 86.11 421.03 624.54 671.73 326.45 865.11 315.58 803.33 420.79 717.14 557.05 873.33 547.11
00004739 00000096 540.73 89.44 421.00 624.77 674.65 328.54 868.33 317.54 807.16 420.53 718.42 557.67 877.25 547.53
00004740 00000097 542.33 90.73 420.04 618.51 681.71 334.55 874.27 326.46 812.42 419.14 719.54 553.75 879.58 546.39
00004741 00000098 543.55 88.21 421.49 621.42 681.71 333.67 874.41 325.97 813.02 422.46 720.52 555.32 879.34 548.27
00004742 00000099 545.16 87.90 422.26 616.60 684.91 335.56 876.78 325.19 817.77 424.78 726.88 556.84 881.04 547.78
00004743 00000100 546.50 83.74 424.34 620.15 686.79 336.57 881.37 325.39 820.51 426.69 729.68 556.22 888.18 545.80
00004744 00000101 547.96 81.41 424.39 622.02 688.19 334.81 884.33 323.78 823.68 426.54 733.46 557.09 890.34 546.62
00004745 00000102 548.85 85.19 425.40 618.62 690.38 332.43 888.76 322.57 825.94 423.49 733.65 555.24 892.49 545.50
00004746 00000103 549.97 83.20 425.30 619.43 691.85 330.58 890.15 321.69 828.01 421.45 733.89 552.68 893.87 543.71
00004747 00000104 550.47 80.76 424.36 623.13 694.44 329.35 893.58 323.23 830.36 420.65 733.12 551.45 894.48 544.75
00004748 00000105 551.84 85.61 423.78 622.01 694.72 323.48 891.57 318.48 827.55 418.64 730.61 548.97 889.89 543.30
00004749 00000106 550.76 95.02 422.71 616.02 690.34 324.23 885.80 319.20 821.13 419.64 722.44 549.15 887.14 543.77
00004750 00000107 545.86 97.12 427.94 605.37 682.50 316.31 878.22 313.96 806.49 415.04 715.41 539.25 881.14 535.88
00004751 00000108 543.97 86.63 428.47 617.16 676.57 309.53 878.13 311.60 798.57 411.04 704.78 536.06 878.22 536.17
00004752 00000109 545.33 84.07 423.97 619.93 671.15 308.59 872.59 311.72 792.01 404.10 701.05 536.09 873.64 537.39
00004753 00000110 544.71 90.46 418.08 614.42 664.27 310.40 871.12 313.24 790.92 402.29 695.11 540.96 871.78 542.14
00004754 00000111 537.49 93.82 420.84 616.00 658.33 313.98 865.74 313.54 784.64 410.17 691.13 546.41 867.75 545.28
00004755 00000112 527.19 103.11 420.86 613.32 651.96 322.20 857.66 321.85 777.56 424.39 688.74 554.49 859.10 554.04
00004756 00000113 518.03 100.85 420.94 619.20 646.99 333.19 847.70 330.79 770.45 426.84 686.31 559.45 850.41 557.74
00004757 00000114 507.69 117.85 417.58 604.34 636.21 348.59 839.64 336.97 770.64 437.51 677.10 574.40 839.27 562.20
00004758 00000115 501.59 116.22 416.17 607.78 634.10 348.85 833.47 337.05 767.45 437.90 674.62 575.08 833.38 562.80
00004759 00000116 496.10 116.08 418.83 615.14 627.74 348.46 829.98 338.48 763.15 440.68 666.59 577.53 831.21 566.61
00004760 00000117 489.54 116.82 424.64 624.01 623.61 348.60 826.23 337.53 760.42 445.79 663.93 581.86 829.28 569.99
00004761 00000118 482.81 125.77 426.64 615.61 618.78 356.97 821.17 344.75 755.85 459.92 664.07 590.58 826.85 577.36
00004762 00000119 481.44 131.91 422.73 615.22 613.27 368.46 817.16 352.78 752.57 468.69 661.79 601.56 825.84 585.90
00004763 00000120 481.97 138.94 421.60 615.38 609.77 373.57 813.14 361.05 747.80 478.84 657.39 606.58 822.95 593.80
00004764 00000121 482.14 141.77 420.20 612.00 607.66 373.90 811.87 361.36 744.52 478.62 655.01 605.76 821.36 593.02
00004765 00000122 480.43 131.94 423.19 622.37 611.10 374.80 814.43 362.70 747.36 473.37 656.41 603.23 822.75 591.13
00004766 00000123 481.29 128.01 426.09 619.61 616.06 369.38 818.13 354.29 754.26 467.58 663.70 598.71 826.57 583.84
00004767 00000124 488.27 117.08 421.72 628.24 627.67 369.37 828.27 354.66 765.69 463.44 672.48 594.97 835.68 580.51
00004768 DELETE   500.98 112.88 431.72 630.17 641.08 358.93 835.84 345.08 776.27 453.70 688.26 587.99 851.04 577.75
00004769 DELETE   520.12 118.75 427.95 620.07 668.01 355.19 864.97 341.54 808.13 454.22 715.73 582.46 876.47 571.50
00004770 DELETE   536.45 123.07 425.93 601.11 697.81 344.91 895.59 341.46 846.90 452.99 742.88 578.32 900.37 572.45
00004771 00000128 551.81 119.19 418.98 597.02 723.69 340.64 915.24 333.38 874.75 437.53 765.07 573.17 918.08 564.33
00004772 00000129 558.18 128.90 416.81 579.40 726.34 342.92 918.95 338.77 874.62 427.47 764.48 564.64 918.76 558.57
00004773 00000130 557.44 112.46 417.49 596.99 723.40 341.85 914.01 332.30 867.81 432.13 762.35 564.41 914.56 553.53
00004774 00000131 558.33 114.45 416.84 597.65 715.22 339.72 909.07 330.56 854.14 433.93 752.38 566.65 907.91 555.93
00004775 00000132 556.57 119.92 419.85 595.69 708.47 335.34 904.46 327.66 848.39 429.26 745.34 562.93 902.69 553.52
00004776 00000133 553.83 96.14 422.72 624.26 699.09 327.30 895.50 319.10 838.09 423.76 735.90 555.36 900.90 547.06
00004777 00000134 549.35 93.89 424.03 613.42 691.71 326.64 886.41 317.28 827.35 419.86 730.61 547.33 894.98 538.28
00004778 00000135 546.78 82.13 427.69 621.60 683.99 319.66 881.59 309.01 818.07 412.65 724.84 542.58 892.86 532.27
00004779 00000136 544.44 76.59 423.95 623.82 675.74 315.23 871.99 300.69 808.97 403.36 723.42 539.79 890.43 525.90
00004780 00000137 543.00 77.14 420.94 621.72 669.93 314.44 864.43 296.39 805.42 400.10 722.73 542.98 885.80 526.36
00004781 00000138 540.79 78.48 419.40 616.91 666.85 317.53 862.04 298.29 804.38 403.90 721.80 544.72 883.96 527.16
00004782 00000139 534.85 79.02 421.28 611.50 663.60 321.15 862.55 303.30 801.43 408.34 718.65 544.85 882.79 528.81
00004783 00000140 527.72 77.80 423.58 617.63 657.69 324.73 856.66 306.75 794.08 412.97 709.32 544.50 875.83 529.46
00004784 00000141 518.71 79.93 422.29 620.78 651.15 329.29 842.80 310.20 783.44 422.05 703.41 550.90 864.08 535.34
00004785 00000142 510.98 76.25 422.42 634.10 642.90 333.04 836.69 312.54 776.65 424.99 695.65 558.80 856.49 542.38
00004786 00000143 506.14 83.69 419.49 633.12 639.70 339.59 842.14 323.25 775.20 433.22 682.50 566.13 851.48 551.83
00004787 00000144 498.24 82.65 419.72 641.12 630.85 338.60 833.87 322.87 766.56 430.32 672.82 570.10 840.42 556.33
00004788 00000145 483.71 83.76 431.55 640.22 623.23 342.42 824.06 326.61 757.04 430.67 667.24 570.00 829.21 556.02
00004789 00000146 476.29 87.94 433.17 630.66 618.69 349.10 816.64 332.19 753.02 444.25 665.54 573.25 822.55 558.51
00004790 00000147 471.42 105.14 433.32 629.34 609.05 353.55 808.81 330.55 746.65 442.87 668.65 589.63 821.63 566.84
00004791 00000148 468.82 113.81 432.15 629.93 601.30 357.93 802.42 331.67 737.10 445.79 665.97 595.97 820.81 570.48
00004792 00000149 465.56 116.93 431.70 625.62 600.40 357.67 802.71 333.81 736.16 448.56 663.22 596.04 818.75 572.71
00004793 00000150 464.23 114.83 433.07 625.82 599.20 356.57 801.65 332.25 736.10 446.51 663.06 594.45 819.56 570.50
00004794 00000151 465.68 112.54 437.07 624.23 604.34 358.28 807.03 336.29 741.55 443.20 664.93 590.91 824.07 568.83
CROP_BBOX: 245 0 1254 915
