Video ID: 	TTZqC-kRMrM
H: 	1188
W: 	1910
FPS: 	29.97002997002997

FRAME INDEX X0 Y0 W H [Landmarks (5 Points)]

00013297 00000000 711.37 184.99 465.63 597.06 766.86 445.12 946.94 380.67 797.04 475.62 802.87 636.78 967.51 582.63
00013298 00000001 708.22 186.04 465.07 601.74 763.93 439.62 938.63 382.18 787.29 474.79 800.13 634.78 960.22 585.91
00013299 DELETE   706.11 182.12 466.15 605.47 761.50 436.30 936.33 381.79 781.97 475.81 794.31 632.39 956.40 585.63
00013300 00000003 712.22 164.83 468.96 613.71 756.25 445.69 925.26 367.56 779.03 470.38 790.76 633.06 948.94 568.16
00013301 00000004 707.85 163.17 470.17 604.20 745.29 445.34 928.13 368.75 772.44 463.27 786.54 629.31 954.74 565.06
00013302 00000005 707.03 160.98 470.37 599.87 743.93 441.53 930.96 370.04 771.46 461.60 781.02 624.06 951.97 564.17
00013303 00000006 709.31 157.06 463.55 598.75 745.95 436.35 934.22 370.38 772.47 460.96 779.56 619.62 951.67 564.25
00013304 00000007 711.68 158.07 463.00 596.82 752.09 433.59 939.60 370.32 780.38 459.74 784.65 618.42 955.37 565.39
00013305 DELETE   716.33 157.89 457.95 602.64 752.00 430.51 945.74 367.62 782.59 463.48 787.80 623.21 967.57 571.60
00013306 DELETE   722.34 157.88 453.19 609.67 760.03 432.20 955.68 371.51 794.23 466.40 793.02 624.24 976.21 574.04
00013307 DELETE   722.05 166.24 452.40 603.92 770.81 438.38 962.78 382.26 806.48 480.53 799.98 630.01 978.88 583.30
00013308 00000011 727.24 171.61 449.17 600.28 774.17 445.01 966.16 386.59 812.39 485.37 802.73 634.36 982.14 585.88
00013309 00000012 728.81 176.40 446.55 596.66 775.46 448.38 967.63 390.13 815.22 487.51 803.52 636.20 982.96 587.92
00013310 00000013 733.18 178.32 444.86 595.99 779.32 449.78 968.99 392.95 816.89 489.22 804.88 637.63 981.79 590.70
00013311 00000014 735.64 180.63 446.07 593.49 780.74 452.32 970.70 394.74 817.63 490.41 804.50 640.79 979.59 593.62
00013312 00000015 738.59 162.66 453.45 617.30 773.24 451.15 972.37 392.52 811.28 489.86 803.89 643.95 973.21 595.95
00013313 00000016 739.88 163.75 451.81 619.41 777.06 454.34 972.52 397.23 811.52 492.72 804.71 645.49 970.18 598.72
00013314 00000017 742.99 171.11 448.26 613.56 771.67 456.90 969.54 399.24 817.60 499.41 802.54 655.06 969.89 611.55
00013315 00000018 747.78 170.35 447.03 617.77 774.46 460.01 973.48 401.65 817.83 503.45 805.20 660.52 971.18 616.18
00013316 00000019 749.92 171.09 447.80 619.84 778.65 462.12 977.99 404.85 820.41 505.80 808.43 663.25 973.92 619.54
00013317 00000020 751.47 172.61 454.28 619.72 784.41 460.92 983.35 407.12 823.17 508.25 812.13 662.07 978.46 620.77
00013318 00000021 752.01 170.83 460.74 622.53 789.18 456.81 988.52 409.14 828.21 509.95 815.51 658.64 982.47 622.15
00013319 00000022 757.51 181.89 471.41 612.82 809.70 452.47 1002.03 412.01 842.21 508.05 823.23 648.86 989.50 614.71
00013320 00000023 759.47 180.00 473.92 614.50 811.61 451.61 1006.73 411.71 843.39 508.44 824.94 649.30 994.28 615.46
00013321 00000024 760.68 179.42 473.31 617.60 813.01 451.97 1009.68 412.46 845.25 509.98 826.16 650.74 997.23 617.39
00013322 00000025 764.94 180.67 467.91 619.81 815.37 453.16 1011.44 412.94 847.25 511.48 829.07 652.49 999.76 618.71
00013323 00000026 768.59 180.20 466.46 622.79 818.59 452.83 1014.54 413.69 848.22 513.29 831.03 653.17 1003.16 620.27
00013324 00000027 770.71 179.17 464.56 625.76 820.90 453.44 1016.81 415.17 851.23 516.09 834.46 654.94 1007.54 622.73
00013325 00000028 771.89 178.51 465.10 628.33 822.31 452.42 1019.02 416.00 853.60 517.07 835.52 654.15 1010.43 623.64
00013326 00000029 773.94 180.98 462.42 626.58 823.69 453.36 1021.32 416.88 855.91 519.08 837.49 654.97 1014.62 624.37
00013327 00000030 775.68 181.65 463.68 626.82 825.50 454.66 1023.28 418.64 856.45 519.96 838.87 655.41 1017.50 625.10
00013328 00000031 778.35 181.92 463.51 628.03 827.02 455.95 1024.03 419.37 856.09 520.37 840.33 656.72 1019.10 625.89
00013329 00000032 779.28 182.69 458.96 627.30 827.96 456.03 1024.64 419.10 858.35 520.92 842.17 655.90 1021.62 624.90
00013330 00000033 781.59 183.48 462.61 626.17 829.86 455.08 1026.23 417.77 858.35 520.03 843.88 655.45 1023.80 623.88
00013331 00000034 783.67 185.74 462.33 623.19 831.04 454.79 1028.29 416.80 859.46 518.88 845.09 655.25 1025.88 623.06
00013332 00000035 785.67 184.75 458.66 623.09 833.69 452.53 1028.46 415.90 862.51 517.64 847.76 652.36 1028.31 621.56
00013333 00000036 787.98 181.80 450.82 624.07 836.38 453.18 1029.35 417.63 868.93 517.53 858.69 657.98 1039.07 626.54
00013334 00000037 790.22 181.76 449.96 625.54 838.33 451.26 1031.89 416.61 871.25 516.88 859.88 655.80 1042.06 625.29
00013335 00000038 792.34 179.40 452.25 628.97 840.41 451.12 1032.62 415.82 871.24 516.79 861.94 656.13 1043.03 625.13
00013336 00000039 794.10 181.76 451.05 626.23 843.44 450.73 1034.20 415.40 875.12 515.34 863.77 653.82 1044.17 622.92
00013337 00000040 796.61 179.43 448.82 627.52 845.55 449.38 1035.69 413.65 877.77 514.16 866.45 651.73 1047.28 620.33
00013338 00000041 797.65 179.01 451.26 627.72 847.41 448.45 1037.34 412.04 879.78 510.99 868.51 649.16 1048.94 617.20
00013339 00000042 799.25 176.43 447.65 628.86 848.90 447.20 1039.59 409.93 882.90 509.06 870.78 647.98 1051.92 615.42
00013340 00000043 800.80 177.90 444.30 625.83 850.00 448.93 1040.01 409.14 884.51 507.95 873.04 647.26 1054.34 612.67
00013341 00000044 809.16 163.96 449.90 642.50 856.17 446.02 1039.78 401.99 888.71 503.16 880.12 643.37 1050.01 605.83
00013342 00000045 805.76 177.66 442.37 623.46 852.92 448.64 1042.49 408.54 886.78 506.59 876.08 645.79 1057.10 611.37
00013343 00000046 807.47 176.55 438.65 623.01 855.11 447.91 1044.06 408.76 890.14 507.27 877.22 644.97 1058.05 611.71
00013344 00000047 808.52 177.13 442.67 622.11 857.43 448.23 1047.47 408.76 892.12 506.76 878.86 644.99 1060.13 611.42
00013345 00000048 810.37 175.85 435.70 622.12 858.20 446.16 1047.92 407.42 894.09 506.08 880.12 644.59 1061.59 612.14
00013346 00000049 812.90 174.43 438.73 624.86 860.32 446.64 1049.68 408.73 894.00 506.88 879.96 646.05 1059.87 614.62
00013347 00000050 815.87 173.97 433.87 624.20 862.50 445.61 1051.28 407.22 896.54 506.81 881.26 645.67 1060.74 614.47
00013348 00000051 817.82 172.63 431.64 625.39 864.56 445.16 1053.27 407.19 898.77 506.72 882.26 644.78 1062.00 614.25
00013349 00000052 819.37 171.28 434.78 627.88 866.13 445.17 1056.30 408.44 899.22 508.24 882.42 644.82 1062.83 615.16
00013350 00000053 819.92 170.34 433.61 630.04 866.84 445.17 1056.98 408.48 900.13 509.15 883.11 645.83 1063.50 616.17
00013351 00000054 819.46 170.98 435.89 630.55 867.20 446.10 1057.58 409.39 900.52 510.19 883.75 647.28 1063.66 617.51
00013352 00000055 818.26 172.25 435.24 630.41 867.10 449.95 1057.41 411.74 902.85 510.35 883.88 648.09 1063.07 617.57
00013353 00000056 818.26 172.36 435.22 630.09 867.12 449.93 1056.98 412.48 902.81 511.53 883.49 648.39 1062.51 618.40
00013354 00000057 818.04 174.22 437.77 628.57 866.04 447.35 1056.22 411.96 900.90 512.46 882.96 648.57 1061.25 620.17
00013355 00000058 817.92 174.33 435.03 628.65 864.24 444.90 1052.68 410.80 898.70 512.85 882.63 647.94 1060.95 620.42
00013356 00000059 814.68 178.30 436.71 625.68 862.45 445.56 1050.59 411.46 898.59 513.02 881.91 648.09 1060.31 620.28
00013357 00000060 812.41 177.75 440.19 627.04 860.25 444.56 1049.11 412.88 895.66 513.09 878.76 647.15 1058.04 621.00
00013358 00000061 810.61 178.99 438.10 626.06 858.53 444.61 1046.88 413.40 895.23 513.51 877.53 647.02 1056.79 621.42
00013359 00000062 808.36 180.24 438.08 624.48 857.17 445.74 1046.19 414.22 894.12 513.31 875.53 646.57 1055.97 620.38
00013360 00000063 806.55 180.37 435.80 624.70 855.65 445.48 1043.30 414.86 891.23 514.42 874.61 647.05 1054.52 621.15
00013361 00000064 805.15 180.24 434.01 624.25 854.74 447.70 1040.65 417.31 889.84 515.81 873.41 647.77 1050.69 621.88
00013362 00000065 802.34 180.73 435.29 624.26 852.93 452.85 1039.77 418.20 890.58 516.97 873.48 648.85 1051.42 619.17
00013363 00000066 800.36 180.59 437.24 625.43 851.33 452.55 1038.87 419.37 888.22 517.39 871.42 649.64 1048.98 621.06
00013364 00000067 799.40 180.90 438.01 624.84 851.62 449.22 1039.01 420.56 887.92 518.73 869.20 648.55 1046.45 623.68
00013365 00000068 798.87 181.40 439.25 625.71 850.09 448.73 1038.39 420.03 885.63 519.33 868.11 650.64 1045.28 625.78
00013366 00000069 797.30 181.52 435.83 626.60 848.86 447.83 1037.77 420.70 885.12 520.78 866.14 651.05 1044.36 627.56
00013367 00000070 796.12 180.93 437.93 626.84 847.73 446.09 1036.73 420.22 883.57 520.32 865.28 651.01 1043.22 628.51
00013368 00000071 795.63 181.54 437.64 625.94 847.53 444.82 1036.53 420.26 883.72 520.09 864.64 650.83 1042.54 629.53
00013369 00000072 794.97 180.40 438.61 627.39 847.00 445.38 1036.66 420.94 883.62 520.92 864.05 652.00 1042.87 630.72
00013370 00000073 794.78 180.73 441.59 626.64 846.50 446.04 1036.68 421.22 883.70 521.64 864.30 653.14 1043.29 631.37
00013371 00000074 794.98 179.38 443.08 628.10 845.89 447.32 1037.43 422.25 883.52 522.19 863.83 654.07 1043.79 632.09
00013372 00000075 795.16 178.32 442.46 629.38 845.67 447.20 1037.79 422.39 883.96 523.12 863.85 654.79 1044.41 633.08
00013373 00000076 795.04 179.90 441.25 629.30 846.15 447.54 1038.32 422.54 885.46 523.22 864.35 655.93 1044.28 634.27
00013374 00000077 795.98 179.61 440.81 630.31 847.39 447.35 1038.97 423.73 887.02 524.85 865.70 656.81 1043.91 636.27
00013375 00000078 796.10 182.52 437.77 628.30 848.07 449.57 1039.11 425.78 888.69 526.22 866.94 657.85 1044.11 637.31
00013376 00000079 796.23 183.75 437.36 628.73 848.55 450.67 1039.11 426.24 889.03 527.07 868.33 658.44 1044.93 637.40
00013377 00000080 794.82 185.07 438.22 626.81 847.94 451.50 1038.83 426.55 890.25 528.68 869.09 658.91 1046.01 637.35
00013378 00000081 794.38 185.15 437.41 626.99 847.95 451.66 1039.23 426.12 890.79 528.40 869.73 659.27 1046.30 637.27
00013379 00000082 794.35 185.54 438.01 626.74 848.26 451.59 1039.12 425.95 891.12 528.16 870.30 659.32 1046.14 637.35
00013380 00000083 793.73 184.65 437.24 627.78 847.93 451.29 1039.14 426.04 891.08 528.38 870.10 659.70 1046.00 638.01
00013381 00000084 794.25 183.20 436.73 629.40 848.36 450.52 1038.66 426.45 891.10 528.60 870.26 659.53 1045.86 638.79
00013382 00000085 794.11 183.10 437.41 629.17 848.72 451.12 1038.39 426.81 891.58 528.97 870.75 659.69 1045.49 638.73
00013383 00000086 792.95 183.04 436.43 629.19 848.11 450.65 1037.56 426.46 891.28 528.70 870.55 659.48 1045.00 638.65
00013384 00000087 792.41 182.12 437.31 630.02 847.90 450.62 1037.67 426.79 891.53 528.60 870.16 659.52 1044.53 638.97
00013385 00000088 792.29 181.66 437.00 630.03 848.23 450.22 1038.29 426.67 891.96 528.24 869.84 659.73 1043.71 639.48
00013386 00000089 791.53 182.05 438.06 629.68 847.71 450.78 1038.29 426.33 891.84 528.15 869.66 660.28 1043.99 639.28
00013387 00000090 791.39 181.84 439.72 629.63 847.19 450.62 1038.21 425.91 891.35 527.55 869.23 660.23 1043.89 638.87
00013388 00000091 790.78 183.12 438.11 628.20 847.76 450.15 1038.18 425.94 892.38 527.41 869.25 659.67 1043.14 638.84
00013389 00000092 790.13 181.76 442.33 629.70 847.25 449.41 1038.42 424.94 891.50 526.73 868.84 660.26 1043.07 639.10
00013390 00000093 789.09 181.77 443.51 629.27 846.20 450.01 1038.56 424.35 891.05 526.70 868.25 661.30 1043.01 639.11
00013391 00000094 788.53 182.58 444.23 628.02 845.88 450.62 1037.96 424.59 891.34 526.62 868.75 661.19 1043.07 638.74
00013392 00000095 789.92 182.43 439.92 627.50 846.48 452.45 1037.75 427.83 891.56 527.47 868.69 660.57 1042.35 639.31
00013393 00000096 787.60 185.90 440.99 623.85 845.47 461.20 1038.15 433.41 892.26 527.75 869.21 661.30 1042.53 637.39
00013394 00000097 787.60 187.95 437.78 623.21 845.53 462.48 1037.87 434.09 892.91 528.45 869.69 661.08 1043.54 636.78
00013395 00000098 788.00 186.00 438.11 625.39 844.48 457.22 1035.80 429.43 891.80 528.54 869.99 662.03 1043.86 638.31
00013396 00000099 787.22 183.29 440.41 628.23 843.78 454.26 1036.48 426.73 891.33 529.25 869.04 662.10 1045.37 638.42
00013397 00000100 785.96 182.83 441.93 629.09 843.08 452.67 1035.79 425.04 890.72 529.16 868.44 662.33 1044.76 638.47
00013398 00000101 783.54 183.07 444.02 629.48 841.80 452.50 1035.41 424.16 890.70 528.00 867.91 662.65 1044.59 638.09
00013399 00000102 781.72 183.45 442.03 628.63 841.04 452.61 1035.18 424.34 890.61 528.47 867.73 662.50 1044.59 637.96
00013400 00000103 781.58 183.35 443.61 629.02 840.07 451.17 1033.61 422.63 888.66 527.79 867.34 662.57 1043.81 637.77
00013401 00000104 779.22 183.74 440.39 628.27 838.76 451.78 1030.99 423.03 887.97 528.54 866.79 662.53 1042.06 637.42
00013402 00000105 778.37 184.19 447.84 628.88 837.69 452.41 1031.51 422.56 886.40 527.92 865.80 663.04 1042.84 636.74
00013403 00000106 777.20 182.59 449.07 630.09 836.45 451.90 1030.63 422.21 885.24 527.75 864.98 663.21 1042.46 636.78
00013404 00000107 776.54 183.14 445.34 629.82 835.54 452.05 1029.11 422.37 883.68 527.86 864.20 663.28 1040.92 636.91
00013405 00000108 775.48 182.92 446.40 628.91 834.53 452.65 1028.45 422.71 882.38 527.60 863.04 663.41 1040.28 636.74
00013406 00000109 775.02 181.89 450.04 629.40 833.90 452.05 1028.90 422.91 880.64 526.51 861.38 663.05 1038.68 636.94
00013407 00000110 774.49 180.68 449.29 629.87 833.13 452.59 1028.36 423.68 879.43 527.35 860.32 663.33 1037.91 637.37
00013408 00000111 774.50 184.69 456.94 626.66 832.18 451.92 1028.24 419.40 874.03 527.88 854.23 657.98 1029.87 631.24
00013409 00000112 773.52 184.39 454.85 628.34 831.29 452.04 1026.81 419.97 873.20 527.68 853.78 658.53 1028.15 632.24
00013410 00000113 772.29 184.30 455.19 628.56 830.05 452.73 1026.95 419.25 872.60 527.71 852.94 659.89 1027.63 632.48
00013411 00000114 771.38 184.15 455.84 629.65 829.30 452.27 1026.40 419.45 871.86 527.09 851.29 659.32 1025.93 632.68
00013412 00000115 768.99 183.07 454.10 630.72 828.61 453.26 1026.12 420.16 872.41 526.57 850.80 660.30 1024.01 633.55
00013413 00000116 764.21 170.24 450.21 650.43 820.49 457.29 1020.58 420.89 866.72 527.75 855.61 675.07 1021.38 644.87
00013414 00000117 764.14 171.61 454.65 647.70 820.07 457.85 1019.09 422.24 865.24 527.38 853.96 675.73 1017.48 646.54
00013415 00000118 763.18 171.25 451.77 647.75 820.22 458.27 1018.23 422.36 865.54 527.04 854.82 675.90 1017.39 646.34
00013416 00000119 761.57 170.51 454.99 648.77 818.90 458.21 1018.05 421.84 864.77 526.95 853.88 676.88 1016.00 647.05
00013417 00000120 759.29 167.48 451.47 653.56 817.59 457.52 1017.79 420.43 865.20 526.66 853.19 677.49 1016.32 646.84
00013418 00000121 757.56 168.23 454.14 653.05 815.25 458.22 1015.76 420.68 863.56 526.83 851.55 677.96 1014.11 646.99
00013419 00000122 756.76 168.98 451.85 652.91 813.99 459.45 1013.79 420.66 861.79 526.97 850.76 679.40 1013.23 647.32
00013420 00000123 754.55 167.44 451.73 654.79 811.00 459.77 1012.24 419.71 860.42 527.07 848.57 680.84 1011.70 647.69
00013421 00000124 752.91 168.20 451.60 654.11 808.56 460.72 1011.26 420.24 858.47 527.28 845.99 681.81 1008.99 648.28
00013422 00000125 751.53 169.29 455.37 652.85 806.43 461.58 1009.45 420.08 856.57 527.69 845.01 682.82 1007.29 648.63
00013423 00000126 749.97 169.79 451.62 653.42 803.45 464.07 1007.14 419.59 855.44 529.13 844.84 685.39 1008.66 648.40
00013424 00000127 748.32 171.70 448.35 650.75 803.15 471.66 1005.11 425.40 855.14 531.08 844.21 686.89 1007.39 648.29
00013425 00000128 745.29 177.59 446.13 648.22 797.20 486.57 1000.09 436.70 851.40 531.68 840.16 690.73 1007.83 648.56
00013426 00000129 743.71 179.06 443.11 646.56 795.02 484.64 999.04 435.32 850.82 531.26 838.56 690.11 1008.08 648.36
00013427 00000130 741.50 178.50 444.76 646.31 792.17 486.32 999.48 430.76 851.19 531.18 839.13 693.64 1007.95 646.97
00013428 00000131 741.30 179.62 446.56 644.25 794.82 483.58 1000.37 429.50 852.10 531.80 840.05 692.87 1006.74 647.55
00013429 00000132 741.88 178.47 444.99 644.95 795.75 479.00 999.82 426.84 851.24 532.58 840.90 690.95 1005.87 647.18
00013430 00000133 741.53 176.59 449.99 648.02 796.21 474.29 1001.62 425.30 851.02 531.99 839.73 689.86 1004.85 648.83
00013431 00000134 741.53 175.86 451.27 649.13 796.53 473.05 1002.31 424.41 851.38 532.14 840.00 689.87 1004.82 649.22
00013432 00000135 740.89 190.58 445.92 619.04 805.10 467.64 997.67 428.62 859.85 538.91 836.32 668.90 1003.70 636.80
00013433 00000136 740.61 190.46 445.56 618.77 804.40 467.09 997.16 428.30 859.27 539.25 835.85 668.80 1003.36 636.92
00013434 00000137 740.97 175.91 452.32 649.59 795.71 472.07 1001.80 423.74 851.10 531.88 838.60 689.61 1003.65 649.34
00013435 00000138 740.70 189.97 442.74 619.17 803.78 467.35 996.60 427.69 858.97 539.06 834.84 668.68 1003.67 636.21
00013436 00000139 740.17 190.28 441.38 619.18 803.87 467.56 996.21 427.64 859.93 538.81 835.14 668.91 1003.98 636.15
00013437 00000140 739.75 191.40 442.62 618.99 803.99 467.36 996.70 427.06 860.85 538.75 836.10 669.24 1004.87 636.20
00013438 00000141 739.44 191.00 442.25 619.81 803.55 467.88 996.37 426.21 861.55 539.11 837.18 669.88 1006.38 635.61
00013439 00000142 739.17 191.04 441.27 620.06 803.25 468.18 996.24 426.29 861.47 539.29 836.58 669.90 1006.57 635.41
00013440 00000143 738.70 191.03 439.68 620.25 802.77 468.12 995.69 425.99 862.46 539.95 837.91 670.32 1007.76 635.63
00013441 00000144 738.26 189.88 441.61 622.16 802.48 467.86 995.77 425.90 862.09 539.82 837.70 670.43 1007.91 635.77
00013442 00000145 737.99 189.75 439.57 622.11 802.35 467.61 995.23 425.70 862.28 539.90 838.05 670.50 1007.93 635.90
00013443 00000146 738.25 190.51 440.61 621.64 802.61 467.80 995.07 425.71 862.35 539.78 838.22 670.28 1007.71 635.51
00013444 00000147 738.25 190.31 440.13 622.00 802.47 467.57 994.78 425.16 862.35 539.50 838.42 670.52 1007.74 635.50
00013445 00000148 738.25 190.37 439.54 621.89 802.51 467.50 995.06 424.78 862.94 539.23 838.86 670.66 1008.63 635.35
00013446 00000149 738.45 190.44 437.79 620.71 802.58 467.66 995.04 424.55 863.26 539.31 839.49 670.52 1009.12 634.97
00013447 00000150 738.43 190.36 437.67 621.26 803.35 468.26 995.55 424.82 864.16 539.30 840.54 670.84 1009.68 635.05
00013448 00000151 738.58 190.49 441.16 621.72 803.73 468.43 997.09 424.96 864.45 538.19 840.30 670.45 1010.42 634.53
00013449 00000152 738.47 190.49 441.71 621.38 803.74 469.13 996.98 425.23 864.92 539.30 841.20 670.64 1011.36 634.39
00013450 00000153 738.65 190.85 440.54 620.98 804.32 469.12 997.05 425.13 865.46 538.88 841.67 670.71 1011.68 634.39
00013451 00000154 738.66 190.83 440.59 620.23 804.71 468.45 997.19 425.42 865.57 539.20 841.33 669.88 1011.09 634.50
00013452 00000155 738.52 191.19 441.86 620.38 804.84 468.94 997.55 425.53 865.98 539.00 842.56 670.39 1012.04 634.61
00013453 00000156 738.38 191.23 441.70 619.37 804.70 468.39 997.88 424.85 866.34 538.83 842.40 669.98 1012.43 634.17
00013454 00000157 738.62 190.89 441.39 619.77 805.03 468.73 998.24 424.73 866.72 538.74 842.76 670.22 1012.75 634.12
00013455 00000158 738.98 191.74 439.81 618.62 805.35 468.27 997.90 424.62 867.29 538.41 842.76 669.51 1012.73 633.84
00013456 00000159 739.39 192.39 438.70 618.06 805.58 468.18 998.07 424.53 867.82 538.58 843.04 669.44 1013.13 633.78
00013457 00000160 739.37 192.77 438.68 617.43 805.73 468.59 998.15 424.47 868.06 538.89 843.71 669.79 1013.71 633.71
00013458 00000161 739.58 192.00 439.13 618.45 805.85 469.41 998.66 424.60 868.35 538.87 844.32 670.13 1014.71 633.49
00013459 00000162 739.14 191.20 439.05 619.08 805.49 471.47 999.05 425.34 869.07 539.36 845.04 670.92 1016.32 633.42
00013460 00000163 741.36 193.25 436.30 618.83 807.32 478.36 997.17 428.89 867.79 539.89 847.04 673.00 1015.43 632.72
00013461 00000164 741.86 193.07 437.56 619.97 806.83 475.77 997.71 426.48 868.92 540.66 848.76 673.16 1017.50 633.01
00013462 00000165 739.75 193.08 440.08 620.82 806.57 472.24 998.47 423.18 870.92 539.47 849.74 672.39 1019.11 632.47
00013463 00000166 738.78 192.26 440.88 622.39 806.44 470.95 998.39 421.73 872.42 539.08 851.39 672.06 1020.99 631.97
00013464 00000167 738.72 193.33 439.33 620.88 806.47 472.00 998.24 421.51 874.01 538.51 852.91 672.48 1022.30 631.39
00013465 00000168 738.66 194.10 447.04 621.48 806.63 471.88 999.03 420.14 873.76 536.68 853.39 671.29 1023.43 628.83
