Video ID: 	VKJhK-bxF5E
H: 	2160
W: 	3840
FPS: 	25.0

FRAME INDEX X0 Y0 W H [Landmarks (5 Points)]

00001047 00000000 1348.76 482.35 607.60 826.51 1505.66 768.12 1784.90 773.12 1635.86 912.94 1533.52 1088.87 1733.22 1095.35
00001048 DELETE   1341.07 481.21 603.35 827.41 1493.17 757.21 1769.17 763.12 1613.15 886.62 1518.90 1076.36 1711.81 1083.78
00001049 00000002 1341.65 439.34 602.26 852.89 1483.27 730.56 1765.88 740.78 1598.75 863.88 1507.01 1058.45 1696.27 1070.39
00001050 00000003 1348.02 415.05 593.92 857.27 1491.11 725.06 1766.26 735.55 1607.70 841.91 1510.22 1040.25 1719.91 1052.04
00001051 DELETE   1358.77 413.30 594.51 865.47 1510.96 730.78 1784.84 742.96 1636.70 848.59 1526.58 1046.09 1737.62 1059.84
00001052 00000005 1357.02 419.68 607.75 869.60 1517.32 738.87 1793.39 747.19 1642.78 877.46 1531.74 1061.58 1736.94 1072.25
00001053 00000006 1356.99 427.30 613.30 862.96 1520.78 742.11 1797.41 751.37 1645.50 890.93 1534.75 1066.32 1740.68 1077.36
00001054 00000007 1359.54 429.23 617.36 859.63 1523.77 743.76 1801.77 754.20 1645.98 896.85 1535.89 1068.23 1744.66 1080.14
00001055 00000008 1362.51 430.40 618.49 857.91 1528.19 745.19 1806.03 756.85 1650.18 900.94 1539.15 1069.06 1750.36 1081.78
00001056 00000009 1369.43 438.10 616.59 856.17 1534.26 749.71 1815.65 765.35 1656.46 907.28 1545.60 1075.05 1756.86 1089.28
00001057 00000010 1373.81 441.40 614.16 854.83 1537.09 755.19 1818.99 771.32 1658.57 913.13 1548.20 1080.22 1761.94 1095.04
00001058 00000011 1379.03 448.24 612.45 843.42 1539.09 758.13 1822.69 773.37 1661.79 915.48 1551.84 1079.79 1767.06 1093.99
00001059 00000012 1384.27 437.85 611.16 848.65 1542.85 755.36 1822.64 764.98 1667.48 915.20 1557.03 1076.41 1776.18 1087.77
00001060 00000013 1389.36 426.23 606.93 856.26 1545.41 753.02 1823.47 761.81 1668.75 913.84 1558.12 1074.30 1778.95 1085.06
00001061 00000014 1393.79 435.07 604.90 850.02 1546.85 753.62 1829.81 766.32 1667.67 912.85 1563.68 1073.91 1778.11 1085.93
00001062 00000015 1392.81 429.57 605.12 855.70 1546.60 757.04 1827.72 767.79 1667.96 919.51 1562.15 1075.32 1781.92 1085.51
00001063 00000016 1393.17 432.98 602.15 859.39 1544.49 762.63 1822.30 767.33 1668.69 934.84 1558.12 1082.57 1786.21 1089.70
00001064 00000017 1388.58 454.52 603.39 850.78 1541.41 773.65 1822.45 778.79 1672.19 957.49 1556.55 1094.15 1791.76 1100.96
00001065 00000018 1376.70 484.54 607.54 829.93 1529.08 786.56 1813.42 791.52 1660.28 975.40 1550.77 1106.72 1783.25 1112.66
00001066 00000019 1361.92 497.61 611.29 815.69 1517.97 792.75 1798.17 795.18 1648.93 976.53 1542.80 1109.54 1773.84 1112.64
00001067 DELETE   1350.97 480.52 608.86 820.38 1505.57 780.35 1783.81 787.14 1630.92 957.88 1515.17 1083.63 1763.79 1090.30
00001068 00000021 1348.03 459.60 608.76 835.31 1498.42 763.11 1778.79 770.58 1617.58 932.53 1494.05 1064.44 1761.99 1072.84
00001069 00000022 1355.05 493.64 618.15 809.91 1503.68 758.11 1795.35 760.92 1632.79 918.53 1516.17 1065.06 1770.32 1068.95
00001070 DELETE   1365.57 501.33 611.25 832.72 1513.35 773.50 1801.92 771.54 1645.85 936.44 1519.65 1085.37 1795.47 1085.16
00001071 00000024 1368.46 523.75 610.90 829.49 1514.96 782.47 1807.87 779.03 1650.58 959.42 1519.54 1098.91 1805.19 1097.54
00001072 00000025 1365.25 508.29 607.64 838.82 1512.99 773.69 1801.46 773.84 1645.17 940.55 1511.58 1088.26 1797.61 1090.60
00001073 00000026 1361.82 506.14 611.36 818.19 1511.62 763.52 1800.73 764.79 1641.35 920.95 1517.19 1073.26 1791.42 1075.36
00001074 00000027 1360.74 490.36 616.94 817.34 1512.14 763.29 1802.40 764.36 1642.57 926.75 1517.56 1065.82 1793.16 1066.97
00001075 00000028 1356.25 455.64 611.09 846.73 1520.29 765.50 1797.49 772.63 1643.23 940.35 1514.61 1058.82 1783.52 1064.72
00001076 00000029 1354.25 448.06 613.46 848.01 1518.26 760.27 1796.83 770.52 1640.79 937.69 1506.34 1054.08 1782.17 1062.81
00001077 00000030 1354.36 447.17 612.90 847.14 1517.68 754.87 1796.04 767.03 1638.34 932.04 1501.82 1051.57 1779.31 1062.18
00001078 00000031 1355.21 450.86 612.84 844.96 1518.84 756.58 1797.55 768.29 1640.27 933.88 1504.46 1054.35 1780.17 1064.43
00001079 00000032 1355.62 452.94 614.07 840.92 1523.03 756.57 1801.29 769.49 1646.49 934.17 1506.97 1055.31 1781.58 1066.56
00001080 00000033 1358.73 447.46 612.64 845.15 1527.10 754.26 1802.97 767.20 1648.93 929.39 1508.54 1052.86 1784.40 1064.13
00001081 00000034 1359.70 443.57 613.74 845.07 1526.93 752.15 1803.64 763.69 1649.76 924.71 1512.25 1049.95 1782.75 1060.29
00001082 00000035 1365.90 431.33 607.01 843.90 1526.84 747.75 1804.51 759.27 1650.22 915.54 1523.44 1043.04 1776.73 1055.64
00001083 00000036 1367.92 419.33 601.91 840.11 1526.15 739.17 1807.04 751.30 1652.96 897.50 1525.65 1035.89 1774.51 1049.17
00001084 00000037 1366.08 400.55 599.95 837.14 1525.06 727.03 1803.61 739.92 1651.31 886.21 1525.49 1021.67 1771.95 1035.56
00001085 00000038 1367.92 394.81 600.17 836.90 1529.14 721.31 1805.31 731.07 1656.68 878.14 1531.80 1016.14 1776.02 1027.11
00001086 00000039 1371.68 394.01 598.85 836.14 1533.11 719.46 1809.82 727.53 1662.62 875.78 1538.10 1017.41 1779.92 1027.05
00001087 00000040 1374.99 394.75 598.25 839.36 1536.27 723.61 1814.06 730.63 1670.41 883.85 1544.22 1024.18 1784.71 1032.96
00001088 00000041 1380.57 408.13 594.60 835.60 1537.22 736.19 1821.57 743.40 1673.86 897.92 1549.69 1042.56 1784.49 1051.59
00001089 DELETE   1381.46 432.00 591.73 838.56 1541.50 763.47 1816.41 768.71 1672.36 932.26 1553.83 1065.46 1785.65 1072.40
00001090 00000043 1377.32 457.88 594.08 821.11 1539.09 771.81 1813.76 777.01 1670.80 949.48 1546.49 1081.33 1783.51 1085.40
00001091 00000044 1371.78 447.52 599.93 829.33 1537.57 769.08 1811.15 778.98 1669.11 941.58 1543.63 1070.47 1777.17 1080.45
00001092 00000045 1372.23 426.49 597.94 837.43 1539.30 753.02 1810.53 768.01 1667.14 915.52 1539.60 1053.33 1765.70 1068.13
00001093 00000046 1374.09 398.05 588.08 844.23 1534.17 724.97 1810.62 753.12 1656.95 891.03 1527.15 1022.33 1754.44 1048.46
00001094 00000047 1371.94 392.09 596.52 835.26 1533.12 701.83 1808.32 730.81 1649.90 877.20 1516.96 1009.30 1750.79 1034.90
00001095 00000048 1371.79 391.66 594.26 832.35 1532.21 703.85 1804.62 733.50 1646.54 883.43 1510.05 1004.55 1752.23 1031.20
00001096 00000049 1367.33 400.39 590.70 827.19 1525.94 711.10 1803.39 736.65 1649.51 895.82 1513.95 1005.18 1762.50 1028.31
00001097 00000050 1365.31 408.44 590.21 822.14 1524.26 715.76 1800.30 743.48 1646.70 903.30 1510.31 1008.28 1758.84 1033.16
00001098 00000051 1358.12 420.91 598.60 817.37 1523.02 719.90 1795.96 745.07 1643.00 903.35 1511.52 1013.58 1755.36 1036.36
00001099 00000052 1353.70 421.76 601.98 817.09 1519.55 721.64 1794.53 747.06 1639.39 902.16 1505.57 1009.24 1758.27 1032.08
00001100 00000053 1352.86 428.79 602.73 808.26 1518.27 722.76 1794.37 747.39 1640.24 904.25 1504.40 1003.83 1764.67 1025.05
00001101 00000054 1353.65 428.79 602.48 808.57 1519.36 726.39 1797.15 748.89 1644.57 905.13 1507.73 1005.17 1769.70 1024.56
00001102 00000055 1354.43 434.53 600.64 805.00 1519.50 728.38 1797.02 748.13 1648.02 909.41 1509.03 1008.48 1773.50 1025.13
00001103 00000056 1350.29 443.01 601.67 795.34 1514.03 730.70 1792.08 749.52 1643.33 911.12 1502.93 1007.10 1773.77 1022.22
00001104 00000057 1349.16 450.52 604.64 787.59 1511.48 729.05 1785.92 745.44 1639.44 909.77 1489.07 1007.41 1775.14 1023.37
00001105 00000058 1348.21 442.86 603.27 795.30 1508.58 728.28 1782.99 744.35 1635.81 908.31 1484.77 1006.92 1774.52 1022.67
00001106 00000059 1351.39 446.73 601.02 815.58 1501.63 721.27 1787.88 737.83 1631.58 901.41 1491.62 1010.81 1772.75 1025.76
00001107 00000060 1353.56 440.89 602.01 848.59 1501.90 719.03 1789.34 732.43 1630.34 894.29 1498.53 1021.79 1769.23 1035.12
00001108 00000061 1346.54 471.00 606.00 819.61 1503.40 735.85 1782.68 748.19 1630.83 901.75 1503.61 1029.99 1773.47 1039.59
00001109 00000062 1349.68 449.42 599.10 830.27 1505.36 753.75 1777.68 757.73 1632.44 917.63 1493.53 1031.96 1781.75 1036.84
00001110 00000063 1350.85 456.51 600.80 810.58 1509.05 756.84 1785.03 762.71 1640.93 922.37 1495.45 1029.13 1788.62 1035.04
00001111 00000064 1353.63 447.16 601.24 802.53 1513.83 748.57 1791.40 753.99 1649.92 915.05 1498.87 1020.08 1794.67 1025.43
00001112 00000065 1350.54 437.91 602.43 802.77 1515.11 745.78 1797.53 754.53 1651.75 907.88 1506.46 1009.52 1792.04 1015.79
00001113 00000066 1354.75 433.64 596.41 794.04 1511.33 734.06 1794.53 744.06 1649.40 892.38 1498.25 1005.82 1794.79 1015.98
00001114 00000067 1354.09 424.37 593.77 797.02 1509.48 725.25 1789.44 736.77 1645.13 888.43 1494.28 997.23 1792.20 1008.12
00001115 00000068 1354.22 423.91 593.14 798.44 1509.22 724.04 1789.32 736.78 1644.33 889.29 1493.29 996.79 1790.58 1008.80
00001116 00000069 1356.03 421.90 594.78 807.08 1511.78 723.79 1792.71 737.85 1646.98 891.57 1494.67 998.45 1792.53 1011.62
00001117 00000070 1357.12 415.39 597.78 816.96 1515.34 720.53 1795.79 735.26 1649.96 889.70 1498.07 999.00 1793.42 1012.83
00001118 00000071 1355.79 411.10 600.15 831.40 1516.93 720.54 1795.33 731.97 1646.51 893.36 1500.49 999.08 1793.23 1007.84
00001119 00000072 1358.49 424.67 600.58 830.71 1519.20 711.49 1799.10 724.91 1648.70 883.10 1498.28 1004.87 1790.24 1018.09
00001120 00000073 1359.70 426.56 601.44 844.26 1518.60 707.72 1805.91 725.01 1649.50 882.05 1501.98 1011.41 1783.67 1028.85
00001121 00000074 1362.68 437.51 598.88 843.89 1521.75 704.80 1813.13 726.84 1653.25 878.24 1503.56 1018.06 1777.39 1039.99
00001122 00000075 1364.51 426.02 600.61 868.19 1526.98 702.45 1821.02 731.25 1657.71 870.19 1503.04 1022.27 1773.81 1049.93
00001123 00000076 1365.67 428.42 602.00 866.23 1529.89 705.84 1823.61 735.60 1661.96 865.04 1503.50 1023.23 1778.27 1051.36
00001124 00000077 1367.40 425.73 602.79 859.81 1533.34 704.58 1828.07 735.13 1667.26 867.29 1510.09 1021.09 1779.65 1049.48
00001125 00000078 1368.33 434.29 603.92 836.39 1534.66 705.41 1831.53 735.81 1668.71 874.91 1514.66 1018.46 1783.63 1045.96
00001126 00000079 1364.44 410.83 601.13 839.98 1534.51 722.15 1817.43 744.74 1667.49 895.06 1517.82 1014.31 1785.35 1035.69
00001127 00000080 1366.61 407.73 594.86 829.99 1532.60 722.42 1813.14 742.99 1661.11 897.67 1522.33 1012.18 1780.41 1031.19
00001128 00000081 1361.78 411.28 594.97 821.21 1524.15 718.82 1800.78 740.34 1649.10 897.87 1512.66 1008.68 1770.27 1028.27
00001129 00000082 1358.73 412.39 594.37 812.88 1515.20 715.43 1792.41 741.32 1633.32 890.68 1502.35 1005.81 1753.98 1029.15
00001130 00000083 1358.79 416.49 592.90 808.94 1510.61 709.61 1782.59 739.60 1618.71 879.38 1503.37 1010.27 1718.34 1036.50
00001131 00000084 1357.15 410.22 594.16 824.23 1497.78 704.75 1777.72 735.50 1599.93 880.86 1495.27 1024.67 1695.80 1052.02
00001132 00000085 1353.78 403.15 592.97 835.80 1490.43 705.08 1767.41 735.00 1585.60 879.80 1488.26 1030.60 1682.10 1057.22
00001133 00000086 1354.95 401.97 588.32 840.93 1487.94 707.70 1761.34 735.71 1580.60 881.79 1485.87 1038.36 1675.48 1063.37
00001134 00000087 1355.12 405.12 592.20 849.48 1493.98 711.99 1769.47 740.09 1588.02 885.45 1492.82 1044.67 1680.64 1069.58
00001135 00000088 1358.21 421.40 592.09 851.33 1506.52 720.32 1784.59 748.28 1613.05 896.32 1507.21 1054.42 1703.62 1078.48
00001136 00000089 1353.93 437.48 593.76 835.03 1515.68 731.40 1784.25 751.22 1632.98 912.11 1513.34 1059.09 1737.65 1076.82
00001137 00000090 1350.14 435.05 603.99 833.22 1517.88 737.26 1790.29 752.83 1642.78 918.22 1511.13 1055.57 1757.28 1070.07
00001138 00000091 1347.05 429.16 608.47 831.66 1520.09 737.40 1793.14 752.58 1648.45 916.36 1520.51 1040.34 1760.69 1054.66
00001139 00000092 1351.63 447.53 603.32 794.81 1509.20 721.65 1801.05 741.50 1648.85 897.51 1511.40 1031.06 1761.86 1048.59
00001140 00000093 1347.68 430.72 599.19 802.19 1507.20 720.93 1783.59 737.65 1634.68 891.33 1490.85 1019.91 1757.78 1036.62
00001141 00000094 1345.45 417.83 596.68 811.74 1503.69 713.82 1775.56 729.58 1625.73 882.28 1490.14 1009.32 1749.54 1025.08
00001142 00000095 1346.06 411.73 595.68 815.16 1502.02 708.69 1773.35 723.31 1622.70 877.14 1489.67 1005.42 1747.40 1020.36
00001143 00000096 1346.68 412.67 594.47 812.13 1501.74 706.70 1772.80 722.09 1620.75 874.44 1489.63 1003.52 1744.86 1019.12
00001144 00000097 1350.55 414.10 591.60 804.04 1500.83 706.38 1773.42 721.23 1619.24 873.48 1496.00 1006.94 1741.48 1021.45
00001145 00000098 1355.04 412.30 589.41 804.93 1506.60 707.88 1779.47 720.80 1626.43 868.94 1514.28 1011.23 1738.32 1023.43
00001146 00000099 1359.73 401.78 591.61 827.15 1514.04 707.88 1791.04 715.42 1643.78 865.84 1534.05 1025.58 1747.49 1032.68
00001147 00000100 1361.30 395.95 602.59 844.23 1527.44 706.60 1803.04 709.25 1666.98 860.41 1559.43 1034.57 1760.34 1037.62
00001148 00000101 1365.75 400.51 607.61 850.27 1544.15 707.13 1822.69 705.93 1693.86 857.50 1584.26 1038.79 1782.60 1037.43
00001149 00000102 1376.93 409.87 600.31 846.56 1558.95 707.46 1835.27 701.62 1713.13 854.19 1608.21 1044.34 1801.37 1037.55
00001150 00000103 1385.79 413.61 599.47 842.71 1563.59 706.46 1850.25 697.49 1724.00 858.39 1624.08 1050.35 1813.63 1039.64
00001151 00000104 1385.78 407.88 598.42 857.40 1562.33 710.72 1849.27 704.62 1719.48 858.33 1619.13 1052.64 1809.29 1044.59
00001152 DELETE   1378.07 405.32 603.73 883.86 1556.13 729.35 1836.32 728.04 1704.29 866.79 1597.43 1055.81 1785.90 1054.28
00001153 DELETE   1368.70 428.74 597.83 886.30 1533.91 738.45 1818.68 745.55 1673.24 886.24 1551.30 1067.49 1767.66 1073.78
00001154 DELETE   1352.64 475.70 605.87 848.45 1509.73 741.71 1791.75 754.99 1636.88 902.21 1513.20 1061.20 1754.48 1075.85
00001155 00000108 1349.54 476.17 602.83 855.38 1494.50 748.27 1779.40 763.47 1615.94 924.79 1491.72 1063.58 1752.35 1079.57
00001156 00000109 1350.40 477.49 599.56 850.28 1489.92 758.44 1777.12 778.18 1607.60 939.68 1481.12 1063.57 1752.99 1082.94
00001157 00000110 1349.89 481.96 598.16 833.27 1488.89 769.23 1774.01 788.14 1606.07 959.46 1479.85 1061.58 1752.49 1079.47
00001158 00000111 1345.96 474.80 600.79 829.87 1499.54 772.09 1774.47 793.45 1615.77 980.98 1486.84 1054.40 1758.83 1071.32
00001159 00000112 1351.32 477.59 604.43 820.35 1510.09 770.46 1786.22 790.87 1631.24 983.95 1497.36 1053.38 1775.03 1068.41
00001160 00000113 1356.49 467.28 608.80 827.91 1520.55 768.38 1800.11 784.93 1649.42 979.45 1507.38 1055.72 1789.74 1067.22
00001161 00000114 1358.17 457.61 612.92 834.69 1529.33 763.90 1808.41 780.01 1663.33 971.65 1514.51 1055.08 1797.28 1066.38
00001162 00000115 1356.40 457.21 614.91 834.95 1528.96 762.62 1807.78 777.24 1662.25 965.26 1513.88 1053.77 1797.04 1063.98
00001163 00000116 1355.00 470.54 610.76 812.77 1515.92 757.45 1794.33 773.20 1647.60 952.89 1500.69 1044.13 1788.21 1058.06
00001164 00000117 1350.15 463.27 606.68 822.29 1504.14 754.99 1782.85 768.81 1632.86 951.94 1488.44 1041.66 1779.50 1054.15
00001165 00000118 1347.38 446.00 606.82 851.94 1498.08 757.06 1775.51 771.20 1619.26 953.17 1485.88 1042.82 1773.05 1054.95
00001166 00000119 1346.77 460.99 603.97 854.88 1502.19 764.59 1781.90 777.74 1625.14 970.48 1488.36 1050.52 1776.61 1060.28
00001167 00000120 1349.93 474.15 609.45 839.12 1513.05 773.92 1794.08 786.51 1641.19 983.09 1499.52 1056.70 1791.21 1064.52
00001168 00000121 1353.99 473.62 613.41 833.85 1516.87 777.81 1802.79 789.65 1653.44 986.71 1505.35 1057.80 1801.03 1064.46
00001169 00000122 1351.45 483.84 615.55 822.78 1514.16 781.22 1800.40 792.78 1650.60 988.61 1502.86 1059.04 1800.34 1065.26
00001170 00000123 1347.90 486.86 614.83 820.43 1507.20 784.04 1793.55 797.69 1639.93 993.21 1495.81 1058.03 1794.19 1065.57
00001171 00000124 1346.89 487.47 614.36 819.89 1504.60 786.97 1790.78 801.39 1635.54 995.49 1494.05 1059.41 1791.93 1067.39
00001172 00000125 1349.34 490.17 615.41 820.91 1508.70 789.68 1796.92 804.28 1643.11 996.71 1497.26 1062.87 1796.43 1071.37
00001173 00000126 1353.40 484.51 616.23 825.29 1513.82 789.21 1802.23 802.89 1649.92 997.12 1501.63 1064.11 1800.90 1072.35
00001174 00000127 1351.56 487.89 617.05 820.64 1509.48 786.66 1797.91 802.46 1640.78 994.56 1497.18 1059.80 1797.85 1069.34
00001175 00000128 1346.09 489.60 616.49 818.24 1502.53 784.79 1788.87 803.06 1629.01 996.12 1490.14 1056.12 1786.83 1067.22
00001176 00000129 1344.61 491.30 617.82 816.14 1501.46 785.05 1788.36 806.98 1625.87 997.62 1488.47 1056.51 1782.25 1070.84
00001177 00000130 1347.18 491.64 619.53 817.56 1507.31 789.16 1795.74 809.38 1637.31 993.84 1492.29 1061.63 1789.35 1075.23
00001178 00000131 1351.94 485.10 618.37 825.53 1512.98 789.02 1802.89 811.13 1644.75 996.85 1495.88 1063.31 1793.99 1078.88
00001179 00000132 1351.37 486.39 618.43 827.07 1513.20 789.87 1802.02 812.97 1643.22 998.42 1497.62 1065.00 1790.42 1081.51
00001180 00000133 1350.11 485.97 617.72 833.41 1508.51 795.40 1797.88 820.37 1636.73 1011.69 1496.58 1072.64 1785.03 1089.60
00001181 00000134 1355.25 499.99 611.61 825.54 1511.71 802.26 1797.52 831.75 1634.10 1025.50 1499.00 1084.65 1782.18 1105.83
00001182 00000135 1361.97 501.29 606.00 825.12 1515.55 818.31 1801.62 847.20 1641.69 1024.33 1505.09 1089.88 1782.61 1110.22
00001183 00000136 1366.27 487.26 603.90 838.70 1520.37 822.33 1804.00 849.85 1645.39 1025.44 1511.59 1091.36 1784.00 1110.91
00001184 00000137 1366.00 494.39 602.96 826.20 1517.79 812.65 1802.00 840.87 1640.80 1023.24 1509.84 1089.44 1782.07 1109.48
00001185 00000138 1363.59 491.91 607.35 825.73 1515.02 801.33 1801.92 829.99 1637.95 1015.26 1507.26 1083.55 1781.05 1104.32
00001186 00000139 1362.84 486.50 609.19 831.16 1516.84 794.22 1802.43 822.03 1639.26 1010.60 1508.97 1081.21 1781.77 1101.87
00001187 00000140 1362.54 477.25 609.85 838.78 1519.90 791.31 1800.69 815.71 1643.52 1006.71 1515.51 1081.43 1779.68 1099.75
00001188 00000141 1358.82 474.40 611.06 842.73 1518.18 785.71 1801.36 810.53 1644.00 1005.13 1510.28 1076.38 1781.58 1095.14
00001189 00000142 1357.36 469.03 608.16 843.01 1515.33 776.26 1800.18 804.53 1639.85 1004.47 1501.09 1064.03 1781.21 1085.18
00001190 00000143 1358.16 468.30 607.67 837.28 1514.23 771.84 1798.93 799.83 1637.55 1004.49 1496.91 1056.64 1784.72 1077.13
00001191 00000144 1357.79 466.50 607.22 834.21 1514.66 771.91 1800.73 799.46 1640.65 998.99 1499.02 1059.36 1781.51 1079.96
00001192 00000145 1354.44 465.44 608.99 832.56 1512.96 773.36 1796.41 798.77 1639.41 990.65 1500.92 1062.89 1775.88 1082.26
00001193 00000146 1353.75 459.68 607.28 837.14 1512.87 769.72 1793.88 795.82 1636.74 989.80 1498.76 1056.14 1772.98 1076.21
00001194 00000147 1354.28 459.49 607.52 839.22 1513.44 768.31 1794.66 792.16 1637.06 989.44 1498.98 1053.87 1777.91 1071.75
00001195 00000148 1352.76 462.77 607.90 836.64 1512.38 768.03 1794.04 789.56 1636.94 987.38 1497.89 1053.26 1780.04 1069.29
00001196 00000149 1349.68 458.19 605.54 838.96 1509.51 767.48 1791.20 789.30 1634.65 985.96 1495.11 1053.64 1775.39 1070.18
00001197 00000150 1351.02 465.79 603.80 830.55 1510.28 768.55 1788.68 788.65 1634.33 985.23 1499.79 1054.82 1773.37 1070.03
00001198 00000151 1352.92 469.15 602.35 827.01 1513.56 769.71 1789.88 789.99 1637.05 982.72 1504.62 1059.07 1771.37 1074.72
00001199 00000152 1356.15 462.93 601.72 840.38 1516.60 770.27 1792.35 790.23 1640.23 982.63 1509.97 1065.97 1770.75 1081.87
00001200 00000153 1355.50 467.93 597.47 834.52 1512.34 768.96 1789.09 791.21 1633.56 987.22 1503.22 1062.40 1768.35 1080.14
00001201 00000154 1359.35 469.68 590.66 819.26 1507.29 767.40 1782.72 791.75 1626.74 979.09 1495.39 1053.93 1765.63 1074.15
00001202 00000155 1354.96 451.92 594.23 839.00 1507.21 779.72 1786.77 800.76 1630.38 977.88 1495.81 1055.39 1769.16 1071.06
00001203 00000156 1357.92 446.19 601.20 837.98 1519.28 776.80 1793.66 790.68 1644.15 955.06 1514.08 1058.01 1772.91 1070.42
00001204 00000157 1360.87 444.42 604.12 834.57 1526.49 757.92 1800.26 771.04 1650.39 935.03 1518.33 1049.79 1776.56 1061.46
00001205 00000158 1367.86 438.36 598.11 830.43 1528.43 747.28 1804.33 762.79 1650.88 924.67 1521.32 1030.97 1781.80 1044.47
00001206 00000159 1365.27 428.51 597.53 833.75 1525.05 735.95 1801.02 751.97 1647.81 916.51 1515.46 1019.80 1783.58 1033.19
