Video ID: 	C-W1QdY0HVQ
H: 	1080
W: 	1920
FPS: 	29.97002997002997

FRAME INDEX X0 Y0 W H [Landmarks (5 Points)]

00023142 00000000 811.65 160.07 477.29 725.82 921.56 523.78 1106.60 482.65 1020.91 647.43 989.83 729.05 1153.61 693.00
00023143 00000001 812.28 176.14 476.56 702.66 922.48 520.36 1107.44 486.99 1024.06 638.64 990.79 725.35 1149.87 695.86
00023144 00000002 814.15 191.00 475.43 688.37 920.52 521.32 1105.52 486.56 1021.49 639.34 988.16 725.44 1149.30 695.07
00023145 00000003 814.18 192.39 474.08 687.09 913.89 523.97 1099.66 489.33 1012.16 640.96 981.14 725.38 1144.99 694.86
00023146 DELETE   816.61 190.71 470.29 688.51 908.83 522.14 1093.65 492.09 1000.34 640.03 971.39 723.84 1136.60 697.12
00023147 00000005 822.04 179.09 465.19 702.06 909.10 523.80 1092.36 497.14 987.85 648.11 961.06 723.21 1125.62 699.15
00023148 00000006 816.76 181.93 469.21 700.99 904.88 523.65 1086.44 498.10 981.14 648.81 959.75 724.12 1121.36 700.96
00023149 00000007 814.38 178.16 473.77 706.38 901.24 524.38 1079.98 499.28 974.12 651.74 959.76 727.20 1117.08 704.32
00023150 00000008 812.06 185.23 472.00 700.06 900.03 526.40 1075.68 500.91 972.51 652.36 958.93 726.56 1114.42 703.36
00023151 00000009 811.43 178.98 472.40 707.21 899.80 527.48 1071.94 500.80 970.23 651.59 959.67 726.86 1113.70 702.49
00023152 00000010 809.49 177.70 475.15 707.20 899.10 527.55 1070.92 500.04 969.96 650.49 960.58 725.73 1114.27 700.65
00023153 00000011 806.10 181.41 479.28 703.36 897.50 527.91 1070.81 498.79 970.40 649.65 961.11 726.18 1115.39 699.79
00023154 00000012 804.11 177.59 479.04 708.34 895.89 528.78 1067.51 497.30 969.61 650.13 963.28 728.63 1115.77 700.21
00023155 00000013 801.55 178.00 480.52 708.70 893.00 529.49 1065.21 496.13 968.05 649.57 962.03 729.55 1116.30 699.44
00023156 00000014 798.03 176.97 481.69 711.86 891.58 531.07 1061.13 495.25 966.38 646.19 962.32 730.16 1114.69 697.88
00023157 00000015 795.90 177.02 480.97 712.04 890.63 531.02 1057.58 494.26 965.16 643.80 963.76 731.44 1112.38 698.35
00023158 00000016 792.59 178.89 480.76 711.49 888.48 533.55 1053.43 494.62 963.57 642.83 963.73 733.98 1109.93 699.17
00023159 00000017 789.03 177.05 483.60 713.20 885.93 533.95 1050.62 494.33 961.02 642.00 961.45 732.95 1107.35 697.64
00023160 00000018 788.26 165.51 478.40 731.62 881.31 540.05 1052.95 495.99 961.93 638.51 960.12 740.94 1100.73 702.03
00023161 00000019 787.21 166.94 475.30 723.47 876.26 539.37 1046.77 495.99 955.07 638.39 954.74 737.13 1095.48 698.93
00023162 00000020 787.64 164.73 468.51 714.44 870.37 537.80 1044.06 495.30 948.19 639.94 946.32 735.04 1089.39 697.95
00023163 00000021 786.06 164.25 468.42 713.87 868.35 536.53 1041.89 493.52 945.62 638.94 943.88 733.84 1087.11 696.47
00023164 00000022 785.21 166.86 471.44 715.69 869.67 537.13 1042.83 493.84 948.01 638.57 946.64 734.94 1089.48 697.15
00023165 00000023 785.55 167.33 474.57 719.89 872.69 537.18 1045.90 494.00 952.19 637.13 949.17 737.02 1090.27 699.35
00023166 00000024 785.67 167.90 473.78 722.48 874.70 536.78 1047.20 493.01 955.20 636.00 952.51 737.92 1093.21 699.69
00023167 00000025 785.78 168.18 474.56 721.85 875.60 536.94 1048.53 493.45 956.56 637.28 953.50 738.07 1094.45 700.01
00023168 00000026 785.90 169.51 474.75 717.88 875.36 536.66 1048.38 494.17 955.65 637.54 953.27 736.95 1093.16 699.77
00023169 00000027 785.97 169.54 473.78 715.31 874.09 537.91 1046.28 495.47 953.20 638.23 951.70 736.43 1091.08 699.27
00023170 00000028 785.52 168.30 473.95 714.57 872.26 537.65 1045.11 495.55 951.12 638.46 949.25 735.52 1089.34 698.64
00023171 00000029 785.21 168.20 473.38 711.94 870.53 537.20 1044.65 495.06 949.37 639.97 947.68 735.66 1088.53 698.83
00023172 00000030 785.31 168.86 474.06 709.25 870.39 536.78 1044.03 495.21 948.56 639.98 947.18 734.35 1087.48 698.08
00023173 00000031 785.82 169.46 473.15 705.91 869.93 536.12 1044.70 494.99 948.24 639.27 945.00 731.95 1087.37 696.17
00023174 00000032 787.25 167.59 471.62 706.40 870.45 534.89 1046.04 493.43 949.92 637.52 945.17 730.67 1088.69 694.77
00023175 00000033 788.31 169.88 470.61 702.75 870.29 532.87 1046.61 491.55 949.66 636.47 945.50 729.05 1089.97 693.34
00023176 00000034 788.09 164.47 469.98 707.92 868.83 530.21 1045.69 487.88 949.95 635.33 945.96 728.21 1091.84 691.72
00023177 00000035 790.66 168.97 470.77 704.29 869.57 518.36 1047.46 478.73 950.08 628.66 945.45 722.12 1095.05 687.80
00023178 00000036 789.80 152.72 473.11 719.22 868.06 502.78 1051.80 463.54 953.42 620.20 941.59 717.85 1096.58 684.43
00023179 00000037 779.08 155.80 492.02 711.92 869.55 487.26 1048.56 451.18 946.29 615.20 943.88 712.05 1094.89 680.05
00023180 00000038 777.64 160.21 495.86 702.52 867.06 475.33 1045.18 441.62 940.71 609.67 943.79 707.06 1089.99 677.44
00023181 00000039 777.33 162.58 496.70 694.74 863.55 467.08 1043.06 433.32 937.05 603.42 941.87 702.66 1085.02 673.28
00023182 00000040 774.82 160.04 496.53 692.11 860.34 463.28 1038.10 430.67 932.07 600.61 940.05 694.76 1083.89 666.40
00023183 00000041 774.95 153.25 494.60 693.48 858.12 461.28 1033.38 428.96 926.74 594.70 936.32 690.16 1078.53 661.89
00023184 00000042 776.81 153.39 490.65 688.80 856.82 458.76 1030.69 427.13 923.45 588.82 933.20 686.38 1073.62 658.56
00023185 00000043 779.38 149.99 488.37 686.89 856.78 456.48 1031.80 426.19 923.04 586.36 930.84 682.44 1072.31 655.87
00023186 00000044 779.50 149.87 488.21 683.62 856.52 456.31 1031.98 425.78 923.39 585.40 929.36 680.37 1073.01 653.58
00023187 00000045 779.90 149.95 488.10 682.92 857.72 456.92 1032.07 425.30 925.23 584.57 931.24 679.34 1074.79 651.64
00023188 00000046 779.82 150.18 487.54 683.35 857.95 457.24 1034.28 424.60 928.18 584.83 932.46 679.68 1077.95 651.12
00023189 00000047 779.10 151.89 489.38 681.39 859.97 457.82 1035.03 424.78 931.64 585.30 935.71 678.47 1080.11 649.57
00023190 00000048 779.55 151.32 488.02 682.73 860.96 458.77 1035.68 423.16 934.34 585.56 938.13 679.08 1083.41 647.95
00023191 00000049 777.81 152.31 490.41 682.34 861.05 457.62 1037.32 422.59 935.71 585.18 938.69 679.84 1084.02 649.26
00023192 00000050 777.73 152.61 491.66 681.02 862.86 458.29 1039.51 421.69 939.34 584.44 940.03 678.36 1087.19 646.52
00023193 00000051 776.46 153.65 492.55 679.53 862.30 459.19 1040.94 421.30 941.53 584.93 941.27 680.08 1087.45 647.26
00023194 00000052 776.41 151.49 491.61 682.07 863.39 459.83 1041.99 421.25 943.83 584.99 942.28 679.60 1089.05 646.20
00023195 00000053 773.46 154.44 496.24 680.60 862.31 459.67 1043.98 421.74 944.26 584.61 941.28 683.59 1086.45 650.99
00023196 00000054 772.61 149.97 496.34 689.42 862.47 460.59 1044.10 421.47 944.35 585.03 943.50 690.51 1084.37 656.85
00023197 00000055 772.16 152.34 496.18 688.97 861.07 461.30 1043.84 422.24 942.59 586.15 943.46 696.91 1080.16 663.57
00023198 00000056 776.81 150.31 481.18 700.22 864.97 461.53 1049.48 421.89 949.50 581.74 940.61 700.53 1083.03 667.46
00023199 00000057 772.68 155.11 495.47 691.08 858.18 463.47 1039.55 421.78 937.77 584.80 942.49 701.95 1076.15 666.58
00023200 00000058 772.95 159.56 497.63 686.26 857.23 464.41 1037.96 423.19 934.82 585.71 943.07 701.65 1076.87 666.60
00023201 00000059 773.24 154.63 497.26 693.16 855.92 465.82 1034.96 422.97 931.51 585.78 941.63 701.11 1077.60 664.39
00023202 00000060 772.32 155.08 498.22 692.55 856.61 465.95 1033.50 422.68 932.14 584.60 942.73 696.01 1080.38 658.79
00023203 00000061 773.32 153.81 496.86 691.81 857.90 465.91 1033.04 423.04 932.70 584.56 942.33 692.34 1082.08 655.19
00023204 00000062 773.08 156.16 497.87 687.76 859.23 464.46 1035.00 423.07 935.36 584.59 943.44 690.29 1083.46 654.48
00023205 00000063 773.17 153.95 497.62 690.17 859.91 463.73 1036.89 422.82 937.36 586.23 944.20 690.63 1084.43 655.31
00023206 00000064 774.02 158.42 496.66 685.52 860.71 463.81 1037.01 422.83 938.32 586.16 946.89 691.19 1085.36 655.85
00023207 00000065 774.50 156.56 496.55 687.93 862.24 462.61 1037.75 423.09 939.17 586.53 947.61 690.39 1084.72 656.29
00023208 00000066 774.65 154.91 497.78 683.91 862.96 460.24 1040.63 422.56 940.54 586.46 945.48 687.18 1085.72 654.66
00023209 00000067 775.55 152.09 496.42 679.15 862.75 459.07 1042.04 421.00 941.73 584.09 943.52 684.38 1084.39 651.81
00023210 00000068 776.93 150.99 494.57 678.00 865.02 458.95 1044.41 420.71 944.90 581.56 943.97 682.23 1086.50 649.52
00023211 00000069 778.27 151.53 494.44 686.37 867.44 458.04 1046.21 420.59 946.79 581.80 947.35 683.63 1088.52 651.43
00023212 00000070 778.93 153.35 493.00 697.03 871.39 457.71 1045.01 420.74 948.32 580.52 953.42 686.40 1091.02 654.31
00023213 00000071 780.87 153.57 491.44 695.87 871.71 458.05 1044.88 421.13 947.70 580.72 953.56 687.09 1090.34 655.11
00023214 00000072 780.77 150.66 493.30 689.91 869.54 455.29 1044.60 420.13 944.89 580.55 951.01 686.66 1084.73 656.52
00023215 00000073 780.76 148.37 492.34 686.78 866.04 453.16 1043.90 420.29 939.84 580.44 944.90 685.44 1078.92 657.43
00023216 00000074 780.77 146.89 490.86 687.51 862.97 451.69 1041.10 420.71 934.81 581.47 940.88 686.14 1073.91 659.82
00023217 00000075 781.77 143.66 488.90 693.38 862.28 454.06 1038.37 422.15 931.63 580.52 938.91 688.44 1070.42 661.26
00023218 00000076 780.91 141.15 489.40 697.32 859.38 456.34 1035.55 424.41 927.60 585.94 934.27 692.10 1066.81 665.06
00023219 00000077 781.61 146.40 489.68 693.36 856.34 459.04 1033.23 427.97 921.79 591.95 931.80 694.36 1066.68 667.78
00023220 00000078 780.21 147.80 489.23 697.32 856.52 461.17 1032.77 430.45 921.03 596.72 931.94 696.75 1069.45 670.05
00023221 00000079 781.55 150.15 491.36 707.45 861.43 464.46 1030.92 433.39 921.69 599.53 938.82 694.73 1078.39 666.91
00023222 00000080 782.74 156.09 491.27 701.93 864.39 464.63 1035.33 432.24 928.12 600.69 944.85 694.66 1083.63 665.81
00023223 00000081 784.36 156.59 491.20 693.23 866.28 461.75 1042.73 429.49 935.93 600.00 945.27 691.59 1087.06 663.38
00023224 00000082 785.03 154.22 490.70 690.01 869.89 459.17 1048.84 428.07 943.61 597.65 946.86 691.55 1086.77 664.74
00023225 00000083 787.98 156.30 488.11 688.78 873.76 459.22 1050.94 428.78 948.17 596.87 952.71 691.07 1090.25 664.76
00023226 00000084 788.57 155.60 488.76 695.45 875.36 460.79 1051.00 429.56 949.50 599.11 955.90 693.26 1092.88 666.22
00023227 00000085 785.28 160.67 487.88 697.69 875.48 458.92 1055.45 423.03 954.70 584.07 960.11 696.84 1096.30 664.91
00023228 00000086 785.72 159.69 489.66 699.97 875.43 459.42 1055.95 423.50 953.45 583.44 958.70 697.08 1096.84 665.07
00023229 00000087 791.87 150.43 488.42 702.73 877.75 461.43 1053.81 430.93 949.30 598.73 955.58 696.92 1091.51 670.66
00023230 00000088 790.46 152.99 489.34 696.17 875.86 460.91 1053.02 431.35 948.54 597.89 952.11 692.02 1091.78 666.42
00023231 00000089 791.73 153.63 487.79 692.59 876.92 460.50 1053.47 430.58 949.40 596.51 953.86 690.64 1092.68 664.72
00023232 00000090 793.09 155.49 486.46 685.85 877.17 459.69 1053.39 429.82 949.86 595.64 953.21 685.73 1093.81 659.84
00023233 00000091 793.49 157.56 486.67 680.91 877.16 459.26 1054.11 429.80 950.50 596.73 952.39 682.20 1095.86 656.52
00023234 00000092 794.31 153.12 485.92 684.20 878.60 460.31 1056.36 429.37 952.76 595.57 952.47 681.92 1097.42 655.10
00023235 00000093 793.57 156.66 486.08 682.83 879.62 460.49 1057.44 429.84 956.16 597.18 954.67 683.91 1097.95 657.35
00023236 00000094 793.90 155.36 485.62 689.13 881.13 459.96 1058.58 430.15 958.03 597.20 957.50 689.29 1096.51 663.57
00023237 00000095 793.79 154.23 485.54 694.43 881.95 459.98 1059.54 429.86 959.34 597.37 958.28 691.20 1096.90 665.29
00023238 00000096 794.89 153.81 485.21 692.66 883.48 459.74 1059.89 430.32 959.64 596.16 959.01 689.74 1096.69 664.40
00023239 00000097 792.78 151.46 488.62 691.26 881.90 459.59 1060.53 429.12 959.09 594.82 955.89 686.70 1097.87 660.43
00023240 00000098 793.66 151.84 489.72 687.67 881.22 458.61 1060.54 427.40 958.51 592.68 954.59 682.48 1101.31 655.42
00023241 00000099 796.24 149.63 488.84 688.92 883.95 459.61 1061.23 425.69 961.09 589.07 956.60 681.16 1103.09 651.82
00023242 00000100 798.37 147.84 488.23 700.63 890.27 459.58 1065.86 423.94 968.94 587.34 965.79 685.67 1109.89 654.69
00023243 00000101 799.24 148.07 491.38 699.62 894.40 459.75 1072.00 424.82 975.98 590.44 970.73 686.99 1116.25 656.50
00023244 00000102 800.46 146.70 489.10 694.95 896.34 462.25 1076.47 426.46 981.32 593.92 973.64 687.94 1119.50 656.78
00023245 00000103 797.77 149.29 493.27 687.78 895.59 462.71 1076.48 426.80 982.66 596.94 976.81 688.50 1119.60 657.32
00023246 00000104 797.05 149.96 493.40 689.27 894.37 465.12 1074.24 426.45 981.10 596.73 976.60 691.66 1118.02 658.30
00023247 00000105 795.27 159.93 492.52 683.51 890.67 464.41 1066.59 426.07 975.82 598.21 976.94 694.34 1112.34 661.31
00023248 00000106 789.53 154.95 492.64 694.13 886.84 465.42 1058.96 426.39 970.10 599.00 977.16 699.51 1105.62 666.05
00023249 00000107 786.41 157.57 494.50 690.87 882.49 465.72 1052.35 426.78 961.73 596.57 975.31 699.96 1097.48 666.79
00023250 00000108 783.54 153.61 494.66 694.46 878.20 466.02 1048.31 426.59 956.45 596.77 968.95 699.83 1095.62 666.17
00023251 00000109 780.65 156.52 496.41 691.70 871.32 466.38 1040.08 426.77 945.02 596.73 962.11 700.36 1089.31 666.38
00023252 00000110 779.01 157.39 499.34 684.30 863.18 466.42 1033.04 426.81 933.05 597.20 953.33 697.93 1082.03 663.81
00023253 00000111 775.26 156.42 499.19 685.30 858.41 465.49 1030.34 429.97 928.58 599.83 946.05 697.81 1075.67 667.23
00023254 00000112 774.51 158.57 497.40 684.49 857.58 466.33 1029.45 430.01 928.98 598.77 947.06 701.11 1073.36 669.95
00023255 00000113 774.78 155.13 497.56 688.00 859.41 465.78 1029.43 428.17 930.80 596.05 950.70 701.51 1074.24 669.24
00023256 00000114 779.05 146.38 487.85 696.02 868.61 463.05 1040.62 425.02 942.76 588.42 951.30 696.15 1081.50 663.81
00023257 00000115 778.67 137.79 489.92 700.22 871.06 460.73 1047.70 423.87 949.26 586.09 951.83 691.38 1087.94 660.12
00023258 00000116 778.23 144.68 491.21 692.03 873.96 459.28 1052.78 422.76 954.27 582.73 953.59 688.46 1092.75 657.51
00023259 00000117 778.75 151.06 493.85 689.22 875.42 457.27 1054.81 421.25 956.37 581.85 956.41 688.22 1096.91 657.70
00023260 00000118 778.73 152.58 494.77 687.84 876.14 456.65 1056.00 420.78 957.73 581.12 957.53 687.22 1098.87 656.77
00023261 00000119 779.11 147.89 495.07 690.97 875.76 456.44 1056.54 419.72 957.86 579.60 956.28 684.73 1100.22 653.57
00023262 00000120 780.52 149.01 492.04 686.63 874.35 455.82 1052.28 419.57 953.24 577.02 951.11 680.55 1095.56 649.70
00023263 00000121 780.36 151.59 496.78 673.11 866.01 456.94 1039.43 420.76 939.95 582.31 948.07 674.44 1087.90 643.08
00023264 00000122 780.25 149.87 494.37 670.97 863.02 454.60 1034.57 419.36 934.19 578.03 942.59 669.86 1083.86 639.28
00023265 00000123 779.64 146.60 494.23 674.31 859.81 454.75 1029.36 418.12 928.31 576.53 938.98 669.68 1081.06 637.90
00023266 00000124 778.84 146.68 494.08 677.96 857.44 455.25 1026.28 419.49 924.09 579.86 938.20 673.46 1077.70 642.36
00023267 00000125 776.19 148.88 495.19 678.19 856.09 456.30 1023.72 421.56 921.77 582.82 939.46 677.53 1075.00 647.18
00023268 00000126 776.76 148.56 495.46 681.83 857.17 458.71 1022.76 423.05 922.21 584.14 943.70 682.62 1073.40 651.64
00023269 00000127 778.31 149.93 495.35 682.67 859.21 459.62 1023.09 422.83 924.27 585.26 949.64 685.74 1075.46 653.83
00023270 00000128 780.43 148.42 494.95 690.34 864.94 460.94 1026.76 422.27 930.56 583.93 955.16 684.52 1083.22 650.73
00023271 00000129 786.09 147.43 489.61 701.11 873.56 461.25 1036.17 420.19 942.08 582.72 962.56 689.03 1093.61 653.19
00023272 00000130 785.65 150.16 493.24 698.89 878.03 461.04 1045.26 422.62 952.90 588.21 967.42 687.52 1103.66 653.68
00023273 00000131 787.07 150.97 494.38 691.06 883.90 464.29 1051.74 421.93 964.85 589.96 972.70 686.42 1109.35 649.55
00023274 00000132 792.06 153.14 493.73 678.53 888.19 465.57 1059.48 421.28 973.91 589.70 975.44 683.02 1114.86 644.71
00023275 00000133 793.01 160.03 491.18 674.75 892.86 463.91 1077.11 417.24 989.77 581.96 977.90 683.55 1132.16 643.66
00023276 00000134 797.63 162.62 488.23 675.71 896.52 468.25 1081.23 419.65 995.89 584.62 983.72 687.73 1137.73 646.22
00023277 00000135 792.33 183.89 496.29 657.11 898.05 476.49 1081.85 424.64 998.64 588.43 989.15 693.21 1141.69 646.74
00023278 00000136 799.29 169.31 489.31 673.11 899.28 475.30 1086.92 424.48 1002.91 590.93 989.81 694.56 1143.90 651.29
00023279 00000137 789.26 192.46 500.03 647.84 898.96 479.33 1084.64 429.32 1000.41 591.93 987.70 693.59 1141.28 648.94
00023280 00000138 782.43 185.34 505.04 657.25 894.58 479.76 1079.76 431.45 994.65 596.00 984.05 695.53 1134.98 652.27
00023281 00000139 786.74 170.34 495.68 686.70 888.79 479.58 1074.73 433.07 987.69 599.39 979.06 703.66 1128.46 664.09
00023282 00000140 777.66 178.68 499.46 679.70 887.07 481.51 1059.48 438.57 973.25 597.51 976.81 699.20 1115.85 660.49
00023283 00000141 783.24 166.05 498.78 698.70 881.69 482.57 1051.86 440.40 964.84 610.18 971.34 708.11 1107.24 671.72
00023284 00000142 780.55 169.83 497.63 690.45 874.27 479.90 1045.70 443.16 952.74 616.16 962.76 706.00 1100.26 674.10
00023285 00000143 778.66 170.38 498.19 685.14 866.05 479.95 1041.99 443.56 941.78 618.28 951.67 706.95 1095.20 675.00
00023286 00000144 774.38 167.75 499.36 687.43 860.95 480.87 1037.45 445.39 935.53 619.68 946.34 707.54 1090.54 676.21
00023287 00000145 778.30 159.42 490.70 704.38 864.09 486.96 1037.63 449.34 936.50 618.49 947.29 711.67 1088.41 679.12
00023288 00000146 776.52 158.91 491.27 709.00 864.01 487.40 1037.74 449.08 937.82 618.08 947.87 713.75 1088.20 680.72
00023289 00000147 775.97 157.32 491.33 711.97 864.69 487.48 1040.00 448.83 941.44 617.80 948.33 715.75 1088.70 682.48
00023290 00000148 776.87 162.56 492.07 706.68 866.15 486.48 1045.40 448.08 945.67 617.00 949.19 715.54 1092.64 682.62
00023291 00000149 778.98 159.31 489.65 708.76 867.72 486.79 1047.59 448.82 948.09 616.71 949.55 715.82 1093.26 683.34
00023292 00000150 775.31 164.29 498.12 698.60 866.70 482.39 1042.61 447.28 944.18 622.72 953.26 712.66 1093.77 681.85
00023293 00000151 776.45 161.84 497.41 700.38 867.05 482.61 1042.95 446.90 944.49 621.98 952.80 712.38 1094.20 681.08
00023294 00000152 776.66 164.12 497.24 694.98 866.86 479.98 1043.53 445.15 944.73 620.82 952.87 709.41 1094.02 678.95
00023295 00000153 777.96 163.17 495.89 693.09 866.41 478.61 1043.74 444.17 943.67 619.54 950.99 708.51 1091.90 678.53
00023296 00000154 778.19 163.20 495.93 692.04 866.79 476.47 1044.69 442.62 944.65 617.03 951.27 707.21 1091.33 677.87
00023297 00000155 779.68 165.97 495.27 688.14 868.84 475.93 1046.15 442.77 946.71 615.90 953.22 706.03 1092.52 677.38
00023298 00000156 779.53 169.46 495.54 682.69 869.54 475.83 1046.44 442.48 947.89 616.03 953.17 703.40 1094.55 674.31
00023299 00000157 780.27 169.28 493.44 684.51 870.66 477.05 1048.49 441.83 950.71 614.43 952.95 702.20 1098.42 671.31
00023300 00000158 780.07 165.55 494.70 690.87 872.52 476.79 1048.66 441.13 952.05 612.35 952.79 699.64 1100.94 668.23
00023301 00000159 779.75 163.33 495.09 692.81 874.60 475.97 1050.29 439.79 955.32 609.50 955.08 699.12 1102.80 667.45
00023302 00000160 780.93 163.96 495.74 693.25 877.66 474.32 1051.69 437.96 958.12 605.33 959.62 701.45 1101.34 669.97
00023303 00000161 779.45 164.66 498.75 695.60 880.42 472.27 1052.89 434.96 963.55 600.93 964.57 700.63 1101.63 668.42
00023304 00000162 779.87 178.93 493.29 677.94 883.93 468.06 1061.63 429.19 971.24 584.55 967.13 693.84 1108.00 658.39
00023305 00000163 786.58 170.38 490.46 685.76 889.03 466.16 1070.16 423.43 980.37 580.23 971.47 693.84 1117.08 655.19
00023306 00000164 797.38 149.09 485.47 697.98 898.88 461.71 1072.95 422.55 986.01 587.68 980.49 691.45 1117.04 657.49
00023307 00000165 801.58 143.33 485.20 696.83 905.09 457.47 1080.39 417.15 994.66 581.82 985.90 685.13 1127.14 649.75
00023308 00000166 805.68 137.67 483.25 701.86 913.76 452.75 1091.62 410.91 1007.87 576.80 994.42 682.30 1140.24 645.30
00023309 00000167 806.77 145.71 482.02 686.78 913.66 449.15 1101.95 406.84 1020.14 569.69 995.91 680.09 1150.51 643.95
