Video ID: 	umsLjlHpTPQ
H: 	1080
W: 	1920
FPS: 	25.0

FRAME INDEX X0 Y0 W H [Landmarks (5 Points)]

00002292 00000000 845.26 246.78 388.54 613.84 923.96 464.29 1105.13 470.15 993.04 601.66 943.76 692.20 1082.81 696.74
00002293 00000001 845.90 251.08 388.57 609.73 925.06 465.79 1106.05 470.97 994.97 602.14 945.44 692.76 1086.38 696.58
00002294 00000002 844.21 253.02 388.91 607.08 924.94 467.28 1106.69 471.17 998.76 601.92 947.57 694.19 1085.95 697.12
00002295 00000003 833.23 247.15 401.11 601.25 920.30 468.66 1107.48 471.35 996.76 605.19 943.06 697.11 1090.83 699.86
00002296 00000004 843.71 256.68 388.60 607.86 923.14 472.08 1106.06 474.77 997.48 604.43 947.27 701.67 1086.20 703.56
00002297 00000005 835.16 247.50 397.52 616.20 917.77 469.80 1102.41 471.40 989.62 602.91 940.04 702.93 1088.02 704.55
00002298 00000006 833.51 249.50 394.68 600.92 911.86 468.55 1100.00 468.99 984.54 603.07 936.68 699.31 1086.44 699.85
00002299 00000007 830.86 243.53 392.67 603.89 906.67 466.94 1097.95 466.62 980.10 597.46 930.11 696.11 1082.44 696.14
00002300 00000008 829.33 235.18 390.59 613.65 901.85 466.84 1093.61 465.22 976.61 595.65 923.99 696.22 1077.23 695.37
00002301 00000009 827.98 239.06 385.89 608.12 895.41 464.48 1082.57 461.64 965.79 595.21 919.98 694.76 1065.90 692.95
00002302 DELETE   817.66 245.84 388.33 596.54 887.12 470.22 1070.32 460.45 956.73 596.54 918.51 699.18 1059.13 689.72
00002303 00000011 814.63 244.42 387.65 593.08 883.26 464.88 1053.39 454.15 944.09 589.29 914.51 691.77 1051.60 682.39
00002304 00000012 813.09 243.09 386.93 595.58 876.85 466.41 1046.43 453.73 935.80 588.69 907.91 692.14 1047.38 681.21
00002305 DELETE   808.78 241.87 388.40 599.54 871.96 468.23 1041.13 454.63 928.87 588.83 902.13 694.29 1042.32 682.58
00002306 00000014 804.79 249.22 387.32 594.44 868.17 469.61 1035.56 456.52 923.00 589.53 897.18 695.86 1035.89 684.70
00002307 00000015 803.17 254.09 390.25 592.87 863.49 475.46 1038.31 462.13 921.88 593.11 894.87 699.66 1030.18 688.97
00002308 00000016 799.48 258.23 389.89 591.85 858.76 474.59 1033.53 463.67 917.88 597.94 892.72 699.68 1026.27 690.88
00002309 00000017 794.00 259.51 391.67 587.60 851.75 476.89 1024.57 465.43 909.98 598.25 889.81 700.11 1019.55 690.91
00002310 00000018 786.82 256.60 396.89 597.78 847.30 475.90 1020.83 464.63 906.97 596.92 886.49 700.87 1017.65 691.17
00002311 00000019 780.72 261.14 397.93 592.20 841.00 475.51 1016.68 465.68 899.55 596.36 880.06 699.44 1012.24 690.97
00002312 00000020 770.92 262.76 400.43 589.92 836.29 474.74 1010.06 461.53 891.81 592.81 872.44 702.43 1009.86 691.89
00002313 00000021 768.60 258.40 401.27 590.07 831.58 474.41 1005.20 459.40 887.24 590.98 870.08 700.47 1007.52 688.18
00002314 00000022 769.96 253.83 402.34 591.46 828.70 475.65 1008.32 460.74 884.12 590.76 868.73 700.37 999.22 688.34
00002315 00000023 769.08 252.28 403.01 594.10 828.00 474.68 1005.72 459.64 882.53 589.73 868.77 698.85 998.07 686.69
00002316 00000024 770.17 253.86 400.94 594.54 829.06 474.38 1002.72 458.48 879.62 587.13 870.43 696.38 1000.82 683.33
00002317 00000025 768.22 250.99 399.12 594.34 827.38 470.93 993.38 453.49 878.62 587.19 868.68 695.17 1006.23 680.05
00002318 00000026 768.35 249.92 400.48 592.96 827.38 470.62 995.34 453.04 880.17 586.70 868.92 694.41 1008.62 679.12
00002319 00000027 768.13 249.35 401.25 595.10 828.50 469.57 999.35 451.91 883.54 586.64 870.50 695.44 1011.67 680.12
00002320 00000028 767.68 250.31 404.50 597.02 831.18 469.63 1003.93 452.79 887.43 587.01 872.95 697.15 1013.53 682.66
00002321 00000029 769.75 252.05 403.43 590.37 834.41 470.96 1008.20 455.60 893.13 589.20 876.09 696.04 1017.00 682.90
00002322 00000030 772.12 252.58 402.48 587.63 837.60 470.72 1010.00 456.42 895.41 589.75 877.26 695.55 1017.14 683.37
00002323 00000031 774.94 253.11 402.33 587.90 840.36 471.73 1010.06 457.61 897.53 590.37 879.64 696.56 1018.32 684.48
00002324 00000032 777.51 253.09 400.46 592.81 843.37 472.07 1010.91 457.22 900.62 591.32 882.82 699.16 1019.81 686.38
00002325 00000033 778.25 252.35 401.12 594.20 845.82 472.11 1012.58 458.33 902.76 591.32 884.25 698.85 1020.02 686.95
00002326 00000034 780.41 253.68 399.97 591.81 846.60 471.93 1012.55 459.67 901.90 593.36 884.46 698.21 1019.53 687.53
00002327 00000035 780.23 253.51 401.34 593.55 847.72 472.50 1013.80 459.64 903.87 593.70 886.94 699.70 1020.22 688.68
00002328 00000036 784.76 259.71 399.50 589.99 844.99 477.99 1018.05 463.24 905.73 596.45 889.67 701.47 1020.79 688.95
00002329 00000037 785.24 260.31 397.79 589.80 844.63 479.56 1018.16 464.59 905.60 598.10 889.32 702.37 1022.96 689.54
00002330 00000038 787.33 261.28 396.05 589.87 846.70 480.45 1020.00 466.12 906.86 598.90 889.57 701.34 1024.81 689.02
00002331 00000039 787.96 263.53 394.76 586.61 847.63 482.03 1020.19 467.62 907.46 599.16 889.13 701.26 1026.71 688.88
00002332 00000040 789.17 261.48 394.34 586.61 848.78 482.45 1020.90 467.76 908.33 598.25 889.16 699.91 1026.84 687.41
00002333 00000041 789.95 261.24 394.95 588.53 850.08 481.96 1021.98 467.51 909.67 598.08 889.39 697.74 1029.10 685.18
00002334 00000042 785.94 249.49 397.52 595.76 850.41 474.19 1015.91 461.06 905.54 595.58 889.14 696.54 1031.41 684.19
00002335 00000043 786.35 247.54 397.36 592.74 850.24 473.40 1015.65 459.74 905.83 594.71 889.96 694.58 1032.37 681.81
00002336 00000044 784.71 245.68 399.26 594.12 848.70 473.03 1015.93 458.80 905.30 592.68 888.42 694.42 1033.02 681.28
00002337 00000045 783.07 244.73 399.82 595.17 847.63 472.57 1016.48 458.76 905.59 591.68 886.29 694.29 1032.20 681.59
00002338 00000046 782.86 245.39 399.51 594.61 847.88 472.39 1016.12 458.63 905.62 591.30 886.20 694.19 1031.44 681.51
00002339 00000047 782.24 244.79 400.40 598.96 847.91 472.24 1016.23 458.30 905.91 591.50 886.31 695.61 1031.37 682.81
00002340 00000048 783.26 246.84 400.08 601.94 848.66 472.09 1016.14 458.28 905.38 592.48 887.02 697.41 1031.14 684.69
00002341 00000049 782.83 247.86 399.63 601.23 848.17 472.79 1016.31 459.49 905.14 593.37 885.98 697.60 1030.41 685.38
00002342 00000050 782.42 247.30 400.10 603.20 847.91 473.23 1016.42 459.64 904.73 593.07 885.79 697.74 1031.06 685.26
00002343 00000051 782.88 249.04 398.64 598.17 847.80 473.34 1015.48 460.31 903.84 593.13 886.06 697.09 1029.29 685.12
00002344 00000052 778.38 254.26 400.91 597.98 841.76 474.22 1011.55 459.84 897.33 593.55 879.13 697.59 1026.81 684.43
00002345 00000053 777.37 254.01 400.01 595.61 838.06 472.34 1006.52 460.43 889.17 592.34 873.56 695.76 1019.09 684.78
00002346 00000054 779.17 267.47 395.11 579.74 834.42 476.15 1004.37 466.73 881.89 592.03 872.39 691.06 1012.35 681.76
00002347 00000055 777.92 258.75 390.41 583.85 829.11 473.62 997.30 464.63 870.19 593.04 864.42 696.09 997.08 688.71
00002348 00000056 777.94 261.32 389.40 583.93 827.00 475.72 994.55 468.51 865.02 593.93 858.61 697.09 991.67 691.23
00002349 00000057 780.48 263.27 386.66 581.04 826.92 476.17 991.62 470.36 862.14 594.62 856.91 697.72 987.42 692.88
00002350 00000058 782.45 271.12 385.07 573.93 828.54 473.93 993.44 472.66 861.42 597.61 855.73 696.34 987.76 695.06
00002351 00000059 786.42 277.29 383.52 568.14 830.65 471.43 994.82 473.61 861.96 599.14 856.11 694.97 987.70 696.50
00002352 00000060 790.43 281.22 383.39 562.14 835.86 474.96 994.64 475.51 865.94 592.08 862.50 689.36 995.76 689.65
00002353 00000061 792.00 279.07 386.83 562.27 838.76 474.74 999.92 475.92 871.39 591.93 865.86 687.81 998.95 688.83
00002354 00000062 794.73 272.72 384.33 566.10 843.09 473.30 1003.89 475.73 876.94 591.43 868.24 684.69 1000.46 686.88
00002355 00000063 796.09 265.61 384.21 571.11 844.47 470.17 1007.28 474.93 878.46 590.50 866.90 682.92 998.84 687.36
00002356 00000064 800.49 263.54 383.00 576.42 848.22 467.51 1012.08 473.59 880.86 589.18 869.44 683.25 1000.11 689.18
00002357 00000065 801.75 251.24 383.99 585.98 853.39 467.35 1024.17 471.17 893.04 592.58 873.94 692.48 1002.47 696.57
00002358 00000066 802.64 251.48 385.98 584.27 856.60 467.38 1015.30 468.05 889.25 587.74 876.21 690.47 1006.44 691.12
00002359 00000067 802.39 251.24 387.78 585.48 857.14 466.89 1016.14 467.36 890.21 587.51 876.80 690.69 1007.07 691.24
00002360 00000068 803.16 249.35 388.27 590.00 855.94 468.10 1028.33 471.52 896.52 592.07 876.70 692.14 1003.23 695.97
00002361 00000069 806.09 249.09 383.94 591.95 857.06 468.76 1024.20 471.19 893.78 590.91 879.01 694.18 1000.66 697.16
00002362 00000070 802.83 264.36 382.77 575.15 850.50 468.26 1010.03 471.22 880.57 587.72 874.49 687.38 995.73 691.41
00002363 00000071 797.82 254.29 383.36 579.66 845.36 465.52 1015.48 471.91 883.25 595.34 868.45 693.22 994.32 699.14
00002364 00000072 795.22 255.26 385.20 581.62 841.86 468.73 1011.67 474.75 880.64 598.02 866.36 694.69 991.21 700.35
00002365 00000073 795.45 264.50 384.15 579.71 841.45 470.26 1007.64 479.05 875.67 601.91 867.48 698.69 988.48 706.19
00002366 00000074 792.62 269.02 387.86 579.23 836.41 472.68 1003.68 478.76 870.16 602.73 862.58 703.61 984.56 709.08
00002367 00000075 791.29 269.45 388.83 580.68 833.41 474.77 1000.35 478.77 866.42 603.03 859.03 706.80 981.67 710.76
00002368 00000076 790.81 269.39 390.03 584.76 833.11 474.28 999.25 479.91 863.88 604.74 856.69 707.29 978.02 712.72
00002369 00000077 791.36 269.15 389.34 584.09 831.29 474.87 996.48 479.40 861.66 605.04 854.33 708.41 975.85 713.13
00002370 00000078 791.97 266.75 387.16 587.62 832.19 475.41 996.33 480.59 859.13 604.85 852.24 709.03 974.14 714.43
00002371 00000079 790.93 267.20 387.07 589.30 831.08 475.65 995.49 480.76 858.14 604.95 850.66 709.47 973.31 714.81
00002372 00000080 791.28 266.43 386.43 588.48 831.96 475.47 999.36 480.82 862.22 605.70 852.80 709.11 977.14 714.54
00002373 00000081 789.27 262.89 389.88 589.52 833.87 478.00 1006.19 481.68 870.44 607.18 857.88 709.87 984.49 713.91
00002374 00000082 788.09 262.16 391.63 590.49 837.92 479.43 1014.75 481.62 881.29 608.61 864.82 710.67 993.75 713.42
00002375 00000083 791.06 256.19 390.41 605.71 848.09 485.69 1013.58 482.65 894.13 602.94 876.75 708.59 1003.43 706.49
00002376 DELETE   796.37 261.55 387.62 597.25 854.46 490.89 1017.51 486.56 903.21 603.84 882.74 708.31 1012.09 705.04
00002377 DELETE   801.52 269.81 387.67 591.99 861.95 490.54 1026.65 481.85 912.42 601.54 889.54 709.06 1023.05 702.58
00002378 00000086 802.49 261.14 390.83 590.20 864.05 488.07 1038.68 475.31 924.79 602.27 897.08 710.77 1030.87 701.84
00002379 00000087 801.58 257.46 394.26 594.49 864.80 484.98 1042.11 470.40 930.12 601.92 900.99 711.17 1036.03 700.42
00002380 00000088 801.00 256.25 396.13 594.31 865.86 482.70 1044.80 465.75 935.07 599.91 905.20 711.00 1038.89 698.16
00002381 00000089 800.89 254.85 396.48 601.21 866.57 479.52 1045.93 461.31 935.54 595.33 904.58 711.25 1040.00 697.43
00002382 00000090 799.63 253.65 397.15 604.59 865.68 478.11 1045.13 458.51 935.74 591.76 905.14 711.79 1039.44 696.98
00002383 00000091 793.50 247.98 397.62 608.96 864.06 476.81 1034.35 457.21 927.20 590.68 904.67 711.55 1035.27 695.44
00002384 00000092 789.55 250.51 398.79 604.78 861.28 473.82 1032.51 455.10 924.60 589.07 903.15 711.12 1030.06 696.14
00002385 00000093 790.53 249.95 396.77 603.86 860.62 473.19 1031.06 454.09 922.23 585.84 901.00 710.42 1027.24 695.21
00002386 00000094 790.33 248.91 396.89 601.35 861.33 472.56 1032.46 453.92 922.39 582.93 898.00 706.54 1026.73 691.72
00002387 00000095 790.30 244.70 398.31 601.91 861.87 470.21 1034.39 451.15 924.12 579.58 898.30 700.38 1031.66 684.86
00002388 00000096 795.33 241.38 395.72 602.41 864.06 471.46 1036.55 450.58 925.29 576.36 898.29 698.90 1034.64 681.92
00002389 00000097 795.14 247.75 397.70 601.33 865.54 474.81 1037.64 453.92 926.74 580.60 899.15 702.32 1033.65 685.63
00002390 00000098 795.75 254.93 397.23 593.44 864.66 476.74 1037.12 459.55 923.86 584.21 895.85 705.55 1029.04 692.15
00002391 00000099 795.25 259.96 398.04 592.88 858.43 481.14 1039.56 467.46 925.02 596.58 892.08 708.28 1029.36 698.04
00002392 00000100 792.82 273.50 396.22 587.32 856.87 486.70 1036.99 474.51 923.88 602.81 889.06 714.67 1026.92 706.15
00002393 00000101 791.12 275.24 396.62 594.31 855.85 489.10 1035.62 474.95 924.86 605.17 889.06 717.90 1030.98 707.46
00002394 00000102 788.85 269.71 396.24 591.71 852.69 486.85 1034.23 473.49 922.86 603.88 886.38 713.78 1028.50 704.10
00002395 00000103 787.13 263.22 394.87 578.62 847.88 484.11 1033.18 469.84 916.99 601.96 882.82 705.74 1028.07 694.97
00002396 00000104 789.20 256.21 395.62 591.19 849.76 479.53 1032.67 463.70 916.42 595.51 884.38 700.82 1033.53 687.86
00002397 00000105 791.23 260.19 395.90 592.65 853.16 473.90 1031.82 460.36 916.99 593.19 889.21 696.02 1032.11 684.04
00002398 00000106 794.87 260.41 391.50 583.93 853.89 475.90 1030.95 462.21 915.00 594.27 888.61 694.02 1032.22 682.37
00002399 00000107 796.59 262.54 388.63 585.71 855.44 474.85 1030.99 463.85 914.08 593.91 887.78 694.04 1029.50 684.79
00002400 00000108 795.51 262.81 388.23 591.00 855.69 473.61 1029.79 465.94 912.56 592.48 884.08 695.29 1022.61 689.27
00002401 00000109 793.14 264.26 388.27 590.87 853.44 474.70 1028.40 469.11 909.80 594.66 881.52 698.08 1018.71 693.87
00002402 00000110 792.16 267.31 385.50 587.26 852.86 475.99 1028.39 471.48 910.68 597.09 879.79 700.86 1016.66 697.61
00002403 00000111 793.29 268.64 384.36 588.51 854.73 477.24 1029.37 472.60 912.79 598.36 879.78 702.76 1017.24 699.70
00002404 00000112 794.57 267.66 385.45 592.17 856.80 478.05 1030.88 473.06 915.41 598.05 882.03 703.65 1019.43 700.40
00002405 00000113 795.03 266.78 387.06 589.77 857.60 479.39 1031.20 472.99 917.84 598.18 885.41 703.20 1020.30 698.98
00002406 00000114 794.60 263.96 386.64 582.88 856.41 479.27 1030.19 472.22 916.82 598.49 886.62 699.01 1019.97 694.21
00002407 00000115 795.79 262.50 386.56 588.32 856.22 478.87 1030.19 469.76 916.32 597.44 888.59 700.91 1023.03 693.97
00002408 00000116 794.38 250.69 387.44 594.07 858.56 470.44 1029.47 461.57 913.16 589.71 885.48 698.17 1025.70 690.72
00002409 00000117 799.04 246.67 383.24 581.87 861.17 466.57 1032.38 455.64 917.33 581.64 887.11 689.82 1026.70 681.05
00002410 00000118 800.23 235.70 384.12 589.84 862.20 461.20 1033.67 449.26 918.65 573.18 886.13 685.14 1028.90 675.19
00002411 00000119 802.25 235.06 384.17 586.42 866.25 458.24 1038.58 445.32 923.60 566.48 891.72 680.92 1031.91 670.56
00002412 00000120 805.42 236.82 382.49 580.70 867.37 457.41 1040.22 444.32 924.66 565.39 893.08 678.37 1033.92 667.73
00002413 00000121 807.27 234.96 381.62 587.66 867.64 457.84 1038.76 445.22 921.48 568.09 890.56 678.54 1034.34 668.09
00002414 00000122 806.80 240.13 381.56 591.40 866.00 460.82 1033.33 448.43 917.63 573.86 886.92 681.96 1031.66 671.48
00002415 00000123 806.50 240.65 383.28 597.53 866.62 462.22 1031.79 454.24 913.87 580.68 885.40 685.03 1029.47 677.77
00002416 00000124 808.27 253.46 386.44 594.27 867.20 468.56 1037.58 462.59 916.05 588.69 888.22 684.83 1031.28 679.93
00002417 00000125 809.19 250.74 388.60 600.31 868.07 469.34 1038.37 464.24 914.38 588.16 886.85 690.14 1028.95 686.24
00002418 00000126 809.14 246.00 387.11 588.01 867.72 463.30 1030.37 461.27 908.41 584.88 883.54 686.31 1021.14 684.87
00002419 00000127 809.97 242.03 387.77 589.26 868.94 461.96 1032.16 459.02 909.73 582.21 884.05 683.62 1021.88 681.41
00002420 00000128 813.98 236.62 383.31 595.52 870.18 458.36 1032.41 455.22 908.63 578.92 883.56 683.24 1021.63 680.90
00002421 00000129 818.32 238.94 380.81 596.57 875.24 454.02 1038.40 451.12 913.78 573.34 884.49 681.26 1022.14 679.57
00002422 00000130 819.05 230.43 381.58 599.19 878.14 453.77 1040.79 451.68 916.29 569.69 885.38 677.64 1022.34 676.53
00002423 00000131 820.49 229.40 382.05 589.90 880.71 455.06 1042.66 454.30 920.19 571.40 890.31 674.38 1022.79 674.42
00002424 00000132 822.57 232.36 384.96 587.91 882.66 456.73 1046.12 456.71 922.27 572.63 891.76 674.75 1026.04 675.29
00002425 00000133 822.34 231.02 388.87 597.29 886.77 460.05 1060.69 467.31 932.19 574.84 895.00 681.74 1019.49 687.72
00002426 00000134 831.97 233.18 382.45 601.11 887.95 460.31 1057.28 464.30 931.48 577.12 896.93 683.68 1023.86 688.03
00002427 00000135 831.98 232.64 384.32 610.22 888.27 460.86 1057.91 464.25 931.16 578.73 898.21 687.54 1027.17 691.23
00002428 00000136 831.25 231.22 386.19 612.86 887.27 461.75 1058.26 465.96 930.90 581.66 896.77 689.06 1025.86 693.36
00002429 00000137 825.58 222.61 390.08 607.92 888.19 466.51 1059.90 475.70 932.67 586.75 899.42 687.88 1026.07 695.43
00002430 00000138 821.46 219.77 395.44 622.44 886.79 467.91 1062.50 478.01 935.12 590.30 897.36 690.10 1032.19 698.30
00002431 DELETE   830.66 222.74 388.24 622.75 891.27 468.12 1059.15 473.63 943.57 592.75 908.88 690.85 1040.91 695.15
00002432 00000140 827.16 224.86 389.93 617.09 892.24 469.60 1068.17 476.72 944.98 597.40 908.03 690.58 1044.84 696.49
00002433 00000141 833.03 227.21 386.47 613.45 894.59 465.40 1069.58 469.36 953.74 599.01 913.79 688.78 1053.67 691.97
00002434 00000142 831.78 231.16 388.24 618.68 894.26 463.47 1071.94 464.07 955.97 597.08 915.40 692.30 1059.70 692.83
00002435 00000143 829.03 228.68 389.23 622.16 891.03 463.72 1070.37 461.97 956.33 596.46 914.66 696.30 1057.19 695.18
00002436 00000144 825.94 229.65 388.71 612.02 887.30 465.08 1066.92 461.34 954.40 598.46 915.55 696.55 1055.14 693.70
00002437 00000145 818.91 236.31 387.25 599.78 886.61 468.08 1056.65 459.37 947.20 596.81 919.57 692.70 1057.63 684.76
00002438 00000146 816.02 238.83 390.49 605.89 881.19 477.57 1060.74 464.28 946.68 598.81 913.00 701.19 1057.70 689.71
00002439 00000147 814.60 237.95 390.07 612.09 878.86 478.19 1058.03 464.97 943.14 598.71 908.59 700.16 1056.50 689.04
00002440 00000148 811.65 240.44 390.51 610.84 874.59 478.94 1053.67 463.86 939.93 598.48 906.28 699.89 1055.75 687.31
00002441 00000149 810.26 242.71 388.88 605.34 870.87 482.44 1050.72 466.34 937.53 601.04 903.21 701.44 1053.28 688.59
00002442 00000150 808.93 249.78 388.04 596.77 869.12 484.21 1048.46 468.60 935.66 602.84 900.86 700.54 1050.36 688.18
00002443 00000151 807.41 251.93 387.97 594.80 866.94 483.72 1044.99 468.24 932.41 602.54 899.29 699.78 1048.48 687.42
00002444 00000152 806.53 255.82 387.81 589.32 866.06 485.51 1043.17 469.90 931.13 603.27 898.22 700.38 1045.65 688.41
00002445 00000153 804.86 252.44 389.50 595.44 864.97 485.19 1042.58 469.46 930.16 603.32 897.40 700.65 1045.63 688.29
00002446 00000154 804.35 254.15 389.22 594.51 864.01 485.26 1041.70 469.73 928.13 603.07 897.20 702.80 1044.34 690.67
00002447 00000155 803.28 252.58 390.38 600.34 863.22 483.78 1040.33 468.27 926.19 602.77 895.55 703.23 1043.34 690.87
00002448 00000156 803.23 254.69 389.24 602.03 863.57 483.35 1041.24 468.51 925.71 602.09 894.72 704.28 1042.70 692.48
00002449 00000157 801.67 256.67 390.20 598.03 861.18 485.21 1037.65 471.31 922.72 602.13 892.07 703.59 1039.36 692.80
00002450 00000158 801.58 266.00 386.97 593.07 860.37 484.25 1035.88 473.13 919.18 602.61 888.46 703.62 1035.29 694.99
00002451 00000159 801.24 268.41 385.02 592.93 859.94 482.72 1033.91 474.04 918.02 602.88 886.02 702.69 1031.43 696.16
00002452 00000160 799.78 264.56 385.28 597.46 858.52 480.44 1031.72 473.29 914.93 601.56 884.63 702.37 1027.85 696.89
00002453 00000161 801.10 263.59 384.70 596.54 859.22 480.27 1031.28 473.20 914.24 600.76 884.95 701.75 1027.49 696.45
00002454 00000162 802.13 266.73 385.95 593.15 858.87 480.16 1032.30 473.70 913.29 601.24 883.83 701.67 1028.53 696.70
00002455 00000163 803.42 267.21 385.70 598.78 861.38 479.27 1032.49 473.29 913.55 600.67 884.06 701.41 1029.35 696.60
00002456 00000164 805.01 266.35 383.53 597.81 861.21 481.19 1029.65 476.00 909.12 601.36 883.78 702.43 1027.40 698.46
00002457 00000165 804.91 275.70 382.04 596.02 861.23 481.83 1025.92 478.52 903.65 600.14 881.68 703.41 1024.03 700.80
00002458 00000166 804.28 274.98 382.94 599.87 858.79 481.06 1022.94 479.68 898.79 601.27 879.40 705.16 1020.04 704.20
00002459 00000167 802.48 275.49 382.39 602.39 856.04 482.79 1018.75 482.67 893.81 602.81 876.73 707.47 1016.50 707.43
