Video ID: 	Gufi7Ht38Qw
H: 	1080
W: 	1920
FPS: 	29.97002997002997

FRAME INDEX X0 Y0 W H [Landmarks (5 Points)]

00017510 00000000 643.34 110.80 345.80 521.22 773.99 316.54 932.33 335.74 874.97 414.77 789.13 507.04 906.31 523.18
00017511 00000001 645.79 111.72 342.98 521.44 776.92 317.77 935.42 338.61 878.27 416.28 788.51 507.05 908.02 524.87
00017512 00000002 648.43 114.81 341.43 519.03 779.93 320.99 937.28 341.39 881.65 418.86 790.64 509.86 908.42 527.76
00017513 00000003 650.23 117.60 342.34 517.20 781.68 322.08 939.08 339.36 884.58 421.06 794.00 513.00 909.87 528.59
00017514 00000004 649.82 118.30 342.76 515.15 780.88 322.14 939.12 338.01 884.40 421.68 796.13 512.06 912.20 526.33
00017515 00000005 650.06 118.05 342.91 515.23 781.08 321.57 939.38 337.77 884.92 422.06 795.48 510.98 912.11 525.59
00017516 00000006 651.82 117.78 344.08 514.39 787.02 321.10 944.14 336.52 891.85 420.21 800.80 510.80 915.31 524.62
00017517 00000007 655.16 118.52 349.59 515.39 796.15 320.19 953.56 335.31 902.52 418.93 810.00 511.94 923.05 525.41
00017518 00000008 659.76 119.47 350.48 514.31 800.56 320.78 959.16 334.92 907.40 419.31 817.49 514.25 929.66 526.63
00017519 00000009 661.08 120.52 350.39 512.47 799.64 322.94 959.80 335.20 907.55 420.63 819.23 516.89 931.53 527.81
00017520 00000010 658.28 122.88 351.70 512.70 796.14 324.86 953.91 336.10 902.20 421.39 815.39 519.61 925.36 529.97
00017521 00000011 655.78 123.80 346.87 520.13 788.68 325.58 944.55 334.81 892.34 426.21 807.04 525.84 914.06 535.08
00017522 00000012 651.92 126.34 347.07 518.38 779.16 327.86 939.59 338.45 882.04 429.92 797.09 524.13 910.21 534.48
00017523 00000013 652.51 127.98 346.18 515.81 778.37 329.06 940.34 340.25 882.06 429.17 796.43 523.94 911.56 534.80
00017524 00000014 656.64 128.21 346.82 517.85 784.92 327.66 946.14 339.69 889.39 428.14 800.03 521.99 917.62 533.91
00017525 00000015 659.29 129.50 349.51 520.00 791.80 328.32 951.58 339.18 897.87 429.36 805.66 523.06 924.20 534.09
00017526 00000016 661.17 131.22 350.16 520.76 794.21 329.39 954.31 339.77 901.57 430.05 809.75 526.66 927.20 537.19
00017527 00000017 659.28 129.69 350.74 520.67 791.46 335.26 952.38 344.97 897.33 434.08 808.00 525.99 926.90 536.03
00017528 DELETE   656.77 128.35 353.27 518.37 788.32 342.96 949.74 355.63 889.68 434.33 804.37 522.22 926.42 534.29
00017529 DELETE   658.15 128.61 350.16 512.51 788.95 339.28 951.48 352.20 892.27 432.91 804.72 517.86 928.59 530.20
00017530 00000020 660.55 130.82 349.71 505.81 790.38 334.24 953.24 343.91 895.95 431.63 809.06 515.51 931.73 524.91
00017531 00000021 661.27 130.21 351.28 505.49 793.78 330.65 955.95 340.18 899.20 430.77 811.83 514.52 932.68 523.63
00017532 00000022 661.43 128.59 349.14 505.52 793.98 328.82 953.12 338.01 897.98 428.45 814.79 518.18 927.28 527.01
00017533 00000023 658.73 127.14 348.22 512.72 792.84 329.15 948.94 337.77 896.35 429.57 814.58 525.37 920.65 533.77
00017534 00000024 656.42 126.41 348.21 516.70 790.86 329.60 946.82 338.20 894.03 429.94 811.71 527.75 917.10 536.18
00017535 00000025 656.66 126.29 347.30 515.61 790.25 329.23 945.82 337.68 893.33 429.20 811.60 527.11 916.45 535.38
00017536 00000026 658.16 125.43 346.47 512.47 791.55 326.91 946.55 335.32 894.42 426.71 813.74 523.34 918.83 531.47
00017537 00000027 658.23 123.62 347.28 510.31 791.75 324.73 948.05 333.13 895.00 424.59 813.49 518.47 921.73 526.52
00017538 00000028 658.45 123.68 345.48 507.82 788.69 325.40 946.46 334.06 892.07 425.34 810.64 515.86 921.69 524.27
00017539 00000029 656.73 124.88 342.86 505.98 784.89 326.72 942.88 336.02 887.60 426.64 807.09 514.29 919.47 523.34
00017540 00000030 655.36 125.35 343.20 505.50 783.19 327.18 940.94 335.89 885.47 427.17 805.07 512.31 919.44 520.96
00017541 00000031 654.69 124.30 343.86 506.84 784.93 326.10 941.40 334.20 887.92 425.90 806.38 511.38 920.49 519.48
00017542 00000032 654.89 121.51 344.85 508.09 784.53 324.21 942.07 331.31 889.13 421.66 808.47 509.78 923.91 516.82
00017543 00000033 650.81 118.42 345.27 511.44 781.69 323.12 938.53 328.55 887.19 420.77 807.31 509.27 922.89 514.76
00017544 00000034 645.98 117.76 345.65 513.27 775.42 323.32 931.94 327.24 880.48 420.80 802.03 509.43 918.30 513.81
00017545 00000035 639.87 118.63 345.26 514.40 768.62 323.62 925.87 327.71 873.82 419.82 796.55 511.98 911.57 516.39
00017546 00000036 635.72 117.98 345.89 517.99 763.32 323.05 921.72 327.62 868.39 418.49 792.23 514.73 906.88 519.41
00017547 00000037 637.99 117.65 346.08 519.45 759.61 322.72 925.55 325.67 867.32 412.42 780.36 514.58 911.32 518.67
00017548 00000038 636.67 115.72 346.36 519.28 758.30 321.93 924.89 325.95 866.71 411.95 777.82 511.96 910.80 517.06
00017549 00000039 634.62 116.00 347.08 517.53 756.88 321.69 923.90 325.65 866.08 411.04 776.06 510.11 910.37 515.14
00017550 00000040 634.33 114.49 347.23 516.85 755.32 321.79 922.87 325.61 864.93 410.49 774.91 508.53 910.48 513.37
00017551 00000041 633.11 114.16 348.52 516.25 753.91 322.11 922.32 325.30 864.01 410.52 774.12 508.18 910.76 512.40
00017552 00000042 633.10 113.48 348.17 514.69 753.40 322.50 921.35 325.32 863.20 410.35 774.05 507.61 909.77 511.58
00017553 00000043 632.76 114.43 347.91 512.43 752.50 323.65 920.87 326.09 862.10 410.88 773.44 507.60 909.52 511.20
00017554 00000044 632.63 114.89 347.33 512.02 752.28 326.27 920.23 328.44 861.72 411.80 773.72 508.51 909.65 511.86
00017555 DELETE   633.35 116.44 348.07 511.34 752.03 334.61 919.04 338.48 858.74 415.42 772.30 510.31 908.67 515.13
00017556 00000046 634.31 117.85 347.63 512.27 753.79 332.19 919.57 335.39 860.58 415.33 775.17 512.98 907.40 517.28
00017557 00000047 633.71 117.58 348.84 513.56 754.90 329.04 921.23 333.43 862.10 415.00 775.97 514.46 906.41 519.72
00017558 00000048 633.53 118.11 349.01 513.71 755.57 328.06 922.61 331.89 863.80 415.36 777.54 516.36 906.77 521.21
00017559 00000049 634.64 118.51 347.75 514.05 756.53 327.57 922.72 331.96 864.56 414.45 778.17 516.29 906.66 521.67
00017560 00000050 631.99 120.98 347.46 513.61 760.46 328.22 918.98 335.04 865.08 419.29 787.98 516.83 903.51 523.17
00017561 00000051 633.14 121.80 347.25 514.14 761.04 328.13 919.63 334.83 865.67 420.58 788.20 517.34 904.04 523.66
00017562 00000052 632.84 122.33 347.76 515.50 761.79 328.43 920.40 336.18 866.82 421.39 787.18 517.44 903.86 524.68
00017563 00000053 632.84 124.02 348.83 514.96 762.08 328.28 922.87 337.21 867.73 423.04 785.62 517.12 905.06 525.45
00017564 00000054 633.23 121.63 349.04 517.75 762.96 327.34 924.32 337.63 868.86 423.69 783.95 516.29 905.23 525.86
00017565 00000055 633.70 122.23 349.32 515.07 763.94 327.15 926.23 338.43 869.19 424.22 782.85 514.56 906.30 525.00
00017566 00000056 634.04 123.85 349.07 511.88 763.76 327.78 926.76 339.23 868.51 424.77 781.22 512.53 906.98 523.15
00017567 00000057 634.97 125.19 348.17 508.61 763.35 329.15 925.96 339.93 867.22 425.27 781.81 512.82 906.93 522.83
00017568 00000058 634.16 125.64 348.31 508.34 763.05 329.00 923.36 339.49 865.51 425.29 782.97 513.26 904.48 522.92
00017569 00000059 633.26 123.71 349.55 512.57 762.53 327.84 921.78 339.69 863.54 425.48 782.98 512.17 903.03 522.87
00017570 00000060 636.81 123.70 349.09 512.21 759.78 325.52 927.01 333.87 865.27 421.85 775.16 512.42 909.64 520.63
00017571 00000061 635.55 124.17 350.20 513.84 760.70 326.07 928.41 334.45 867.92 423.10 775.51 511.81 912.72 519.96
00017572 00000062 634.37 130.15 350.88 509.29 759.67 328.11 928.70 335.27 868.48 424.53 776.05 514.16 913.44 521.24
00017573 00000063 634.15 130.30 350.65 509.93 758.39 328.90 926.70 335.89 866.71 426.80 776.40 517.82 909.82 524.66
00017574 00000064 634.23 132.17 349.93 509.18 757.94 328.65 924.51 335.82 865.07 426.96 776.68 521.44 905.24 528.51
00017575 00000065 630.00 129.33 349.64 512.88 759.08 330.00 921.02 339.93 863.64 431.14 782.73 521.76 900.82 530.65
00017576 00000066 629.55 129.53 350.64 510.26 757.42 330.23 919.41 341.23 860.80 429.10 780.39 519.93 899.41 529.66
00017577 00000067 631.98 130.86 352.82 504.99 750.88 328.32 920.61 335.97 856.82 426.28 772.83 521.24 900.71 528.70
00017578 00000068 632.02 130.26 352.20 506.86 750.23 329.61 918.10 335.65 855.34 425.84 772.93 519.58 901.69 525.52
00017579 00000069 631.12 131.40 351.80 508.65 749.42 333.15 916.31 339.83 853.54 429.02 772.36 520.85 901.76 527.15
00017580 DELETE   631.46 129.22 349.62 513.17 748.25 340.41 912.29 346.67 851.14 431.72 770.32 521.68 900.89 527.74
00017581 DELETE   631.88 132.50 349.13 511.21 749.43 339.81 915.07 346.37 852.91 434.16 770.38 522.01 902.76 528.26
00017582 DELETE   633.06 134.17 349.72 506.94 751.55 336.85 918.07 343.33 855.26 435.22 771.64 521.44 902.93 527.58
00017583 00000073 631.16 131.60 348.99 508.96 755.75 335.23 920.44 346.36 857.52 436.07 776.84 519.08 902.66 528.90
00017584 00000074 631.38 132.49 349.09 508.67 755.68 334.53 920.54 345.80 857.17 435.69 775.54 518.16 902.70 528.21
00017585 00000075 630.68 132.15 350.36 510.13 754.78 333.92 918.64 345.37 854.63 435.64 774.03 517.15 900.38 527.37
00017586 00000076 634.67 135.75 350.14 509.19 751.88 333.13 915.49 340.87 852.62 432.36 769.10 517.61 901.50 524.65
00017587 00000077 633.78 134.22 350.86 512.30 752.11 331.92 916.01 340.22 853.72 430.26 767.59 514.00 903.87 521.68
00017588 00000078 633.56 134.15 352.00 514.03 752.47 331.04 916.73 340.05 853.86 428.12 767.60 513.98 904.18 522.27
00017589 00000079 634.71 131.74 350.90 514.85 753.55 330.08 919.02 338.94 855.23 429.34 769.63 516.92 903.83 525.19
00017590 00000080 632.97 128.65 349.47 515.99 758.40 331.41 920.28 346.35 856.29 436.60 774.17 516.83 897.56 529.95
00017591 00000081 633.90 130.77 348.81 512.49 760.24 332.47 923.13 346.20 859.37 439.08 774.07 517.03 899.50 529.25
00017592 00000082 635.17 131.11 348.02 509.81 760.59 332.33 923.70 346.60 859.37 438.46 773.56 515.97 899.57 528.70
00017593 00000083 634.86 130.54 348.24 507.82 759.64 331.36 923.31 346.40 857.31 437.36 771.70 514.54 898.65 527.86
00017594 00000084 634.15 130.11 348.65 507.32 758.19 331.31 922.12 346.67 854.92 435.75 770.43 513.69 897.89 527.22
00017595 00000085 635.02 130.86 348.96 506.51 758.82 331.81 922.12 346.64 854.72 436.49 771.61 513.92 897.96 527.03
00017596 00000086 636.79 130.99 347.73 506.69 760.01 332.71 922.36 347.33 854.94 437.98 773.21 514.65 898.27 527.55
00017597 00000087 638.13 134.31 346.68 508.01 760.58 335.80 922.30 348.91 855.38 441.97 775.66 519.19 897.92 530.93
00017598 00000088 638.24 135.40 347.02 512.80 760.43 337.23 922.17 348.92 856.07 444.43 776.64 524.34 896.91 534.96
00017599 00000089 634.19 136.17 349.96 518.02 757.21 337.18 917.92 350.24 852.31 446.51 771.57 525.98 891.86 537.85
00017600 00000090 630.32 134.40 351.42 520.85 752.03 338.16 913.75 351.99 846.09 446.88 766.35 526.97 887.86 539.36
00017601 DELETE   634.01 140.13 349.86 511.15 745.49 344.52 906.15 353.25 839.12 439.83 761.13 527.01 888.02 535.43
00017602 DELETE   632.71 133.08 351.84 510.16 746.04 341.90 908.29 348.62 841.80 433.31 765.20 524.78 890.82 531.55
00017603 DELETE   632.54 127.72 348.05 516.86 754.67 338.95 915.78 348.42 852.71 435.54 778.63 526.21 895.03 534.56
00017604 00000094 635.50 129.05 346.41 510.08 757.37 336.01 919.77 344.27 857.99 433.88 783.82 525.60 899.75 532.89
00017605 00000095 636.10 127.45 346.16 506.44 758.07 332.08 919.91 340.78 859.07 428.86 784.12 521.08 901.43 528.73
00017606 00000096 636.19 124.34 346.86 505.24 759.11 329.46 920.17 338.97 858.76 424.87 783.02 515.44 902.19 523.73
00017607 00000097 636.25 122.82 347.71 504.35 759.16 328.46 919.77 338.63 858.03 421.14 780.46 510.52 903.01 519.54
00017608 00000098 636.71 123.34 348.47 503.85 759.43 327.97 920.05 338.00 858.07 420.28 780.08 509.37 903.55 518.34
00017609 00000099 637.88 125.67 347.50 504.19 760.08 329.50 920.55 339.18 858.43 423.84 780.99 510.50 904.78 519.30
00017610 00000100 639.30 127.90 346.02 503.87 760.83 330.46 921.80 339.77 859.49 426.96 782.13 511.15 906.64 519.69
00017611 00000101 640.31 129.87 345.35 502.21 762.39 330.56 924.11 339.99 861.91 428.19 783.71 511.10 908.61 519.74
00017612 00000102 640.97 129.60 345.15 502.17 763.25 330.17 925.56 339.24 863.73 429.39 784.89 512.19 909.21 520.56
00017613 00000103 642.31 129.28 344.33 502.86 764.43 331.07 926.37 339.79 865.43 430.46 786.34 513.85 909.56 522.09
00017614 00000104 642.99 129.80 344.57 503.78 765.63 331.74 927.77 339.75 867.82 431.72 787.47 514.95 910.20 522.69
00017615 00000105 643.94 130.64 345.94 504.42 767.70 331.32 930.35 338.91 870.90 432.65 789.63 516.28 911.13 523.60
00017616 00000106 643.68 127.86 346.47 510.23 769.34 330.79 931.31 338.29 873.71 433.18 791.47 518.18 911.42 525.49
00017617 00000107 644.59 127.59 347.43 512.49 773.04 329.62 933.90 337.92 878.25 434.09 794.70 518.71 912.87 526.78
00017618 00000108 646.94 128.19 347.39 513.52 777.76 329.18 937.08 337.64 883.68 433.82 798.95 518.95 915.57 527.37
00017619 00000109 647.70 129.03 348.90 515.91 783.03 329.58 940.70 338.15 890.12 434.14 802.44 519.60 919.06 528.29
00017620 00000110 649.95 130.07 350.54 516.05 787.91 331.30 945.55 338.11 896.94 435.15 807.12 520.65 924.35 528.01
CROP_BBOX: 445 0 1231 782
