Video ID: 	VdelvBODyng
H: 	1080
W: 	1920
FPS: 	25.0

FRAME INDEX X0 Y0 W H [Landmarks (5 Points)]

00018865 00000000 329.03 83.32 274.01 382.17
00018866 00000001 329.20 82.92 273.85 381.12
00018867 00000002 329.37 82.52 273.69 380.06
00018868 00000003 329.53 82.12 273.53 379.00
00018869 00000004 329.70 81.73 273.37 377.94
00018870 00000005 329.94 82.37 273.06 377.23
00018871 00000006 330.18 83.02 272.74 376.53
00018872 00000007 330.42 83.67 272.42 375.82
00018873 00000008 330.66 84.32 272.11 375.12
00018874 DELETE   330.90 84.97 271.79 374.41
00018875 DELETE   331.91 85.08 271.59 372.87
00018876 DELETE   332.92 85.20 271.38 371.32
00018877 00000012 333.93 85.31 271.18 369.78
00018878 00000013 640.79 180.90 384.62 585.50 804.26 429.45 968.09 382.45 964.96 511.58 852.44 635.69 982.65 598.03
00018879 00000014 635.23 182.74 386.88 595.42 803.99 429.43 965.53 386.45 960.97 512.22 851.28 639.70 981.55 604.35
00018880 00000015 644.40 186.68 378.07 588.35 813.95 431.58 970.52 388.09 972.90 517.46 856.49 640.70 983.34 606.02
00018881 00000016 652.44 192.12 376.40 575.72 829.51 441.74 981.29 392.27 988.62 523.02 874.44 643.72 997.66 605.91
00018882 00000017 338.12 87.63 270.81 364.71
00018883 00000018 338.85 88.32 270.82 364.05
00018884 00000019 651.22 180.80 381.76 574.34 816.37 423.20 980.75 384.31 978.12 507.64 872.90 633.84 996.92 602.34
00018885 00000020 339.51 88.74 270.31 362.68
00018886 00000021 652.70 185.81 374.99 570.84 817.74 425.36 977.23 382.37 977.10 505.43 868.43 630.25 994.36 595.90
00018887 00000022 645.12 182.41 382.68 578.11 815.22 433.31 971.50 385.88 971.37 512.47 858.52 631.86 987.68 593.97
00018888 00000023 639.14 192.84 387.22 569.98 814.86 438.94 971.62 390.29 974.26 512.44 854.54 632.75 987.09 595.03
00018889 00000024 637.60 196.28 388.22 571.65 813.85 438.67 970.51 388.76 976.18 511.39 853.15 634.48 985.64 596.01
00018890 00000025 636.43 195.66 388.53 574.04 811.02 435.14 971.45 384.13 976.67 510.17 851.00 635.93 985.05 596.45
00018891 00000026 637.41 194.68 388.53 573.84 815.19 436.10 974.02 385.20 979.68 514.94 851.81 637.40 984.97 598.43
00018892 00000027 638.15 192.39 386.22 577.29 813.69 433.72 972.24 383.34 980.14 513.57 854.54 638.55 985.83 599.71
00018893 00000028 638.37 190.03 386.17 575.76 812.67 433.33 971.15 383.29 979.70 511.89 859.60 639.48 987.38 600.37
00018894 00000029 637.79 190.08 389.41 578.09 812.42 432.92 971.23 379.76 981.47 511.27 859.23 638.77 990.72 596.78
00018895 00000030 640.29 188.61 385.90 576.70 814.14 433.37 970.43 378.94 981.80 509.15 863.60 637.81 992.05 594.73
00018896 00000031 638.78 189.53 387.75 576.29 813.31 432.79 969.60 379.43 980.21 508.80 861.89 637.28 991.24 595.20
00018897 00000032 640.68 188.98 384.27 578.41 811.54 432.38 970.76 379.15 980.49 509.82 857.80 638.05 989.89 596.34
00018898 00000033 639.06 192.17 386.60 577.22 812.68 432.81 972.79 379.87 982.65 510.85 853.08 638.38 987.95 597.44
00018899 00000034 638.84 194.38 387.28 575.09 812.95 432.63 973.76 380.72 980.99 511.85 852.49 639.58 986.01 599.28
00018900 00000035 640.59 195.15 387.74 575.22 812.08 433.88 973.01 379.72 980.77 510.86 854.45 640.82 989.29 598.47
00018901 00000036 639.79 192.24 385.85 575.84 812.91 432.97 974.11 379.77 981.94 510.73 855.51 639.53 989.15 598.07
00018902 00000037 642.33 189.56 384.13 579.20 813.08 432.96 973.30 379.44 981.84 509.90 855.21 638.34 989.79 596.68
00018903 00000038 643.84 187.27 380.49 578.62 813.17 432.07 971.63 379.61 980.01 509.45 853.84 635.31 987.27 594.71
00018904 00000039 639.60 186.14 383.60 581.52 813.60 430.33 971.28 376.23 982.44 508.69 851.57 633.38 986.62 591.63
00018905 00000040 636.75 187.45 385.00 577.86 814.23 429.03 971.41 375.53 982.69 508.67 852.01 632.54 984.86 591.31
00018906 00000041 633.60 183.96 386.95 583.63 814.21 427.78 969.66 374.51 984.15 506.93 849.93 631.36 982.78 590.53
00018907 00000042 629.18 186.40 390.98 583.08 812.78 425.72 968.11 373.69 982.53 505.36 849.37 630.72 982.53 590.45
00018908 00000043 628.71 188.02 388.98 579.27 811.53 425.21 967.58 373.46 982.02 505.12 848.84 629.90 981.65 589.92
00018909 00000044 629.84 188.46 387.97 580.17 810.12 426.34 966.38 373.62 980.74 505.71 847.66 629.24 983.18 588.49
00018910 00000045 625.33 187.33 392.09 586.92 809.06 426.81 963.02 371.01 981.86 504.81 845.02 630.88 982.64 587.71
00018911 00000046 623.00 185.99 394.10 591.38 806.99 426.16 960.95 371.71 979.82 504.51 842.70 630.97 981.86 588.58
00018912 00000047 620.11 183.38 396.63 596.18 806.56 427.80 959.95 371.33 978.95 505.72 841.28 632.36 981.29 588.26
00018913 00000048 619.29 183.15 397.03 594.26 806.86 427.66 960.44 371.29 979.19 506.19 842.60 632.70 980.90 588.72
00018914 00000049 618.37 182.32 399.20 598.18 806.29 427.92 960.66 370.70 980.10 505.89 840.90 633.04 981.97 588.33
00018915 00000050 619.68 183.54 397.92 596.24 807.15 428.34 961.00 370.87 980.73 506.12 839.49 631.13 982.41 586.40
00018916 00000051 619.16 181.87 397.19 592.59 808.38 427.53 960.70 371.83 979.62 506.51 840.07 628.56 979.21 585.54
00018917 00000052 616.99 181.30 398.45 591.62 808.81 425.82 960.35 371.50 980.11 506.82 837.68 625.60 977.62 583.84
00018918 00000053 620.77 183.64 392.74 588.72 810.28 424.83 959.90 370.83 981.97 508.03 833.44 623.19 972.71 582.11
00018919 00000054 329.76 91.30 268.99 361.32
00018920 00000055 330.55 91.32 268.56 361.17
00018921 00000056 640.78 185.57 375.77 576.01 814.02 430.46 967.96 382.09 983.15 515.55 829.42 618.26 981.84 581.64
00018922 00000057 621.30 184.60 396.87 587.92 812.45 427.37 962.30 372.09 985.88 510.24 828.44 618.27 974.18 576.68
00018923 00000058 618.20 185.57 400.11 587.82 812.24 427.59 963.09 371.16 987.79 510.83 827.35 618.41 974.86 575.95
00018924 00000059 620.21 186.34 397.04 585.90 812.97 427.47 962.46 371.67 987.05 510.00 830.11 618.89 974.56 576.91
00018925 00000060 620.09 186.59 396.73 586.84 812.23 427.36 961.67 371.36 986.06 510.50 828.88 618.18 974.38 575.97
00018926 00000061 620.15 185.18 396.07 588.14 810.90 426.93 962.04 371.58 985.27 510.07 828.22 618.30 975.24 576.47
00018927 00000062 621.17 185.08 394.38 590.66 809.55 427.63 961.97 371.28 985.78 509.65 828.01 620.62 975.62 577.83
00018928 00000063 622.40 184.36 395.54 594.83 809.02 428.89 964.28 371.74 985.32 508.41 830.59 623.68 979.98 579.99
00018929 00000064 624.64 187.55 394.03 592.00 809.18 428.67 963.90 371.67 985.89 505.44 837.20 627.69 981.83 583.84
00018930 00000065 626.39 187.86 392.95 593.08 809.18 429.47 964.61 371.39 986.80 504.83 837.58 628.55 983.15 583.85
00018931 00000066 627.67 189.38 391.06 586.83 810.55 429.48 963.65 371.87 985.99 505.06 838.56 626.85 980.81 582.79
00018932 00000067 624.47 186.98 392.75 588.84 809.71 427.65 960.96 371.47 983.40 504.29 838.95 626.75 978.54 583.60
00018933 00000068 618.68 183.68 397.90 595.12 808.74 426.97 959.44 369.95 982.70 505.64 835.82 626.24 977.70 582.25
00018934 00000069 616.23 181.76 399.12 595.55 808.09 427.55 959.10 370.71 980.88 506.86 835.43 625.53 977.35 581.57
00018935 00000070 615.58 181.65 398.75 597.73 807.33 427.19 958.64 371.05 981.72 506.84 833.94 625.84 977.28 582.36
00018936 00000071 616.39 182.28 397.78 596.67 807.04 428.38 958.28 370.33 981.31 507.00 834.80 626.31 978.16 581.30
00018937 00000072 613.77 181.51 400.38 598.74 806.13 428.62 958.21 369.92 981.25 507.27 834.07 626.62 979.35 581.01
00018938 00000073 616.55 181.03 396.94 596.76 806.65 428.71 957.77 370.90 979.36 507.61 834.39 625.43 977.65 580.56
00018939 00000074 617.49 183.42 395.71 593.16 805.46 427.74 956.70 370.83 978.63 507.93 832.12 623.74 977.03 579.66
00018940 00000075 619.91 183.61 391.36 592.14 805.35 427.09 954.59 371.11 978.68 506.40 832.73 623.09 975.15 579.81
00018941 00000076 330.29 92.00 266.93 362.23
00018942 00000077 629.36 187.03 371.27 583.29 797.03 435.60 947.57 382.40 970.42 504.91 826.87 627.49 966.60 586.72
00018943 00000078 628.08 186.26 372.06 584.15 797.35 436.37 948.38 382.05 972.11 506.05 827.06 628.73 966.49 587.14
00018944 00000079 622.35 182.72 388.68 596.92 802.35 427.44 952.52 372.18 975.17 502.97 839.50 629.51 977.46 585.97
00018945 00000080 631.29 183.65 377.85 586.39 802.29 425.22 953.37 373.73 971.49 502.06 852.06 636.38 974.50 595.56
00018946 00000081 327.95 91.19 267.71 363.17
00018947 00000082 638.93 185.44 375.12 577.17 802.75 424.63 959.24 378.69 969.36 503.83 863.71 639.09 980.65 602.05
00018948 00000083 327.15 90.68 268.30 363.66
00018949 00000084 326.75 90.42 268.59 363.90
00018950 00000085 328.14 89.97 268.53 363.58
00018951 00000086 329.53 89.52 268.46 363.26
00018952 00000087 330.92 89.07 268.40 362.94
00018953 00000088 332.31 88.62 268.34 362.61
00018954 00000089 333.70 88.16 268.27 362.29
00018955 00000090 334.43 88.14 268.34 362.24
00018956 00000091 335.16 88.11 268.40 362.19
00018957 00000092 335.89 88.09 268.46 362.14
00018958 00000093 336.62 88.06 268.53 362.09
00018959 00000094 337.35 88.03 268.59 362.04
00018960 00000095 337.60 86.78 268.73 361.90
00018961 00000096 663.07 186.70 374.48 575.17 853.94 416.40 992.42 383.07 1018.87 496.15 892.93 620.61 1014.25 593.95
00018962 00000097 656.62 182.31 379.33 580.99 854.20 417.07 992.52 380.13 1018.57 496.47 894.22 622.38 1011.85 592.62
00018963 00000098 338.35 83.04 269.15 361.51
00018964 00000099 650.62 175.02 384.37 594.55 849.53 416.33 989.00 379.88 1006.51 500.39 890.58 626.26 1010.59 597.80
00018965 00000100 661.82 177.59 382.86 584.05 855.59 414.19 998.72 376.69 1017.78 494.40 896.89 621.55 1020.99 590.71
00018966 00000101 669.37 172.79 380.32 586.55 860.98 412.21 1002.72 376.76 1022.05 491.21 903.65 618.76 1028.03 589.29
00018967 00000102 670.22 169.85 383.72 588.49 863.73 411.01 1008.57 374.68 1026.16 490.65 908.33 619.42 1033.38 589.18
00018968 00000103 671.95 169.44 377.63 582.28 858.74 413.36 995.18 377.53 1014.60 491.63 913.36 613.10 1022.83 585.07
00018969 00000104 670.19 172.58 382.39 581.76 860.44 412.34 996.28 377.42 1018.43 491.73 912.45 613.38 1023.03 586.20
00018970 00000105 671.49 175.15 381.63 582.09 859.87 410.65 997.00 377.41 1020.46 492.18 908.10 613.70 1020.90 588.01
00018971 00000106 672.32 175.36 380.82 581.33 859.34 410.35 997.80 377.28 1020.89 492.25 906.94 613.24 1021.58 587.67
00018972 00000107 671.24 173.98 382.37 581.53 859.71 409.82 998.31 376.76 1020.77 491.95 906.84 612.13 1021.52 586.52
00018973 00000108 670.24 174.68 383.68 579.52 860.17 410.17 998.90 376.97 1021.79 491.66 908.18 611.66 1022.22 585.96
00018974 00000109 674.28 175.34 382.18 577.13 860.62 410.59 998.71 376.71 1020.74 490.49 910.85 611.00 1023.60 584.60
00018975 00000110 674.13 171.77 383.82 581.42 863.74 412.52 999.63 375.74 1026.12 487.85 916.15 609.82 1028.41 580.89
00018976 00000111 677.10 162.17 384.96 590.51 868.96 411.04 1004.39 374.87 1028.50 482.72 924.68 607.27 1037.30 578.03
00018977 00000112 688.82 158.25 382.77 589.14 876.76 406.86 1017.51 369.49 1038.30 475.25 935.33 606.07 1052.33 575.64
00018978 00000113 703.39 161.47 387.42 578.16 890.04 406.79 1030.93 363.57 1051.53 467.48 951.74 603.20 1071.20 568.13
00018979 00000114 716.19 157.98 386.61 586.35 913.89 403.46 1051.89 366.53 1074.58 469.14 965.27 603.01 1084.27 573.74
00018980 00000115 732.70 168.58 384.76 574.29 934.02 406.76 1071.27 376.89 1095.98 478.52 983.40 605.19 1099.90 580.27
00018981 00000116 737.55 169.63 387.82 574.95 945.19 406.97 1082.46 383.52 1108.49 483.14 990.27 607.55 1104.92 587.45
00018982 DELETE   735.37 171.50 393.64 577.76 942.32 412.03 1070.89 383.95 1105.19 488.12 991.65 610.76 1090.86 589.73
00018983 00000118 747.25 178.66 385.07 574.95 944.91 419.36 1076.03 384.81 1105.23 493.91 989.12 615.45 1093.63 589.49
00018984 00000119 748.29 177.47 388.54 580.87 945.31 423.29 1080.66 386.80 1105.74 496.93 989.69 619.34 1099.64 591.30
00018985 00000120 745.50 181.16 391.20 583.59 945.70 423.77 1080.68 386.01 1108.43 502.06 987.97 625.55 1097.39 596.98
00018986 00000121 741.47 186.79 391.00 582.27 943.40 427.15 1080.76 389.14 1108.40 507.90 987.44 631.73 1095.08 603.42
00018987 00000122 740.76 202.06 394.82 575.69 946.38 430.66 1090.38 400.49 1111.37 516.72 988.07 640.95 1104.88 617.57
00018988 00000123 738.81 203.97 393.12 580.09 943.09 437.16 1086.44 406.64 1108.86 522.20 978.49 645.69 1096.79 622.56
00018989 00000124 729.40 207.79 392.92 577.69 939.38 440.87 1081.67 409.71 1105.41 524.15 977.14 649.34 1094.74 625.36
00018990 00000125 731.58 210.82 388.01 575.34 934.13 443.89 1077.69 409.19 1098.07 524.88 975.05 651.29 1095.04 624.33
00018991 00000126 730.50 204.99 385.80 581.25 928.07 445.13 1071.70 404.36 1093.03 522.74 976.18 652.21 1097.65 620.09
00018992 00000127 714.84 202.99 395.04 579.44 919.49 445.01 1060.39 400.66 1084.26 520.26 969.66 650.99 1087.42 615.78
00018993 00000128 710.18 202.77 391.30 574.32 908.82 442.39 1051.28 397.75 1072.18 517.02 962.21 649.35 1076.45 614.13
00018994 00000129 704.56 200.57 394.41 579.88 900.64 437.06 1043.15 392.02 1064.67 511.98 956.53 649.43 1070.16 613.60
00018995 00000130 700.33 199.09 392.94 582.30 894.90 435.13 1038.56 387.50 1058.09 510.34 950.31 649.46 1062.93 611.24
00018996 00000131 697.42 199.35 391.11 583.40 889.92 433.19 1036.31 387.62 1055.42 510.62 946.51 649.94 1059.38 612.98
00018997 00000132 691.77 199.01 394.18 585.55 888.12 431.31 1033.99 386.29 1053.90 510.41 944.56 649.52 1056.78 612.71
00018998 00000133 693.00 201.17 391.41 583.32 886.50 429.87 1031.92 386.62 1052.29 508.92 941.02 647.35 1054.04 612.06
00018999 00000134 692.90 202.37 391.72 580.50 888.49 430.27 1032.77 385.80 1054.10 508.67 936.33 643.38 1051.80 607.66
00019000 00000135 692.61 201.05 391.57 579.13 887.74 428.32 1032.83 384.17 1054.55 506.51 932.44 639.10 1050.73 604.08
00019001 00000136 689.76 199.27 394.48 579.68 887.56 426.94 1031.42 381.59 1055.14 504.16 928.44 634.65 1049.12 598.98
00019002 00000137 688.13 197.76 397.48 578.74 887.76 425.72 1033.45 381.25 1055.11 503.26 927.35 633.07 1049.63 598.30
00019003 00000138 685.70 190.14 400.43 583.08 889.68 425.29 1035.45 380.85 1056.84 503.09 926.94 630.19 1050.07 595.70
00019004 00000139 689.83 186.44 400.16 584.07 898.78 422.63 1037.12 381.09 1061.66 501.23 932.96 626.98 1052.14 595.17
00019005 00000140 696.52 183.86 396.97 580.50 907.83 422.22 1042.42 383.85 1065.46 502.72 940.44 622.44 1057.39 593.51
00019006 00000141 368.57 92.21 273.29 365.02
00019007 00000142 369.35 91.01 273.48 364.73
00019008 00000143 719.21 196.06 403.34 564.82 948.18 419.81 1069.15 393.66 1105.51 500.35 976.39 614.35 1084.47 595.27
00019009 00000144 724.04 197.94 401.54 563.91 949.04 423.70 1073.91 397.03 1107.69 505.12 976.38 616.48 1088.16 596.99
00019010 00000145 723.27 198.12 402.39 565.48 947.41 424.99 1075.39 398.23 1106.63 507.63 971.56 617.11 1088.09 597.68
00019011 00000146 722.77 196.49 401.55 568.60 945.57 423.44 1073.94 396.01 1104.22 508.28 967.93 617.67 1084.38 597.91
00019012 00000147 719.15 193.14 399.73 574.10 941.26 422.86 1069.95 396.56 1097.77 509.06 958.64 616.63 1077.70 598.09
00019013 00000148 714.69 194.28 400.17 572.90 936.71 424.60 1065.50 395.08 1094.75 511.20 953.04 618.06 1073.75 597.22
00019014 00000149 712.50 193.01 397.54 575.48 931.37 424.90 1063.68 393.89 1089.68 512.88 946.52 619.90 1069.49 598.11
00019015 00000150 702.48 194.39 402.93 574.55 923.13 428.10 1059.37 389.87 1083.77 515.07 938.86 621.30 1064.57 593.70
00019016 00000151 695.07 194.84 405.50 576.54 917.15 427.35 1055.52 386.75 1079.89 515.05 931.71 621.30 1059.73 592.11
00019017 00000152 692.80 197.76 404.24 572.26 908.73 426.65 1047.91 386.33 1070.20 512.97 922.37 618.76 1051.12 589.94
00019018 00000153 683.69 188.81 408.39 582.25 901.14 423.79 1041.32 383.60 1064.00 510.34 915.04 616.48 1046.92 587.39
00019019 00000154 675.09 187.97 411.65 580.54 897.77 422.74 1038.02 382.54 1062.39 507.27 916.34 615.51 1045.88 586.12
00019020 00000155 678.62 195.89 401.90 563.43 886.36 429.42 1040.11 384.05 1054.29 513.49 903.69 619.63 1047.80 586.04
00019021 00000156 672.34 191.29 404.16 569.04 883.29 430.74 1035.01 382.19 1053.51 512.31 898.28 618.79 1043.99 582.55
00019022 00000157 660.94 183.90 408.69 575.99 880.24 430.70 1017.52 381.63 1052.71 506.07 901.05 614.96 1027.98 578.43
00019023 00000158 657.87 183.84 405.55 577.74 874.61 432.44 1011.48 383.61 1045.24 507.11 898.26 617.20 1024.04 580.46
00019024 00000159 654.36 180.01 403.72 583.20 869.37 431.82 1008.02 385.57 1038.67 508.00 896.53 618.19 1021.44 583.16
00019025 DELETE   660.97 177.92 395.86 585.50 863.74 433.64 1003.03 384.35 1034.04 508.13 894.43 622.72 1020.41 585.09
00019026 DELETE   658.64 181.61 397.67 582.50 861.22 436.76 1002.10 383.73 1034.25 511.65 893.62 625.83 1019.75 585.43
00019027 00000162 656.37 184.80 400.19 582.39 860.49 439.35 1002.04 384.66 1034.59 515.47 893.83 629.72 1019.04 587.92
00019028 00000163 656.46 185.05 399.40 581.35 861.19 442.06 1002.31 386.59 1034.05 517.42 895.62 631.20 1017.93 588.95
00019029 00000164 655.59 186.84 400.63 581.63 862.66 441.22 1003.91 387.45 1036.08 517.81 897.78 632.53 1019.33 591.61
00019030 00000165 667.17 191.37 386.77 573.51 867.55 439.91 1015.39 388.29 1038.05 514.50 900.34 630.05 1031.91 591.91
00019031 00000166 665.18 184.31 392.87 579.49 866.79 440.77 1008.08 386.97 1039.25 515.82 899.85 630.18 1021.28 589.14
00019032 00000167 663.73 182.38 396.24 582.42 869.06 441.09 1009.56 386.14 1042.21 516.66 901.37 630.90 1022.54 588.84
00019033 00000168 665.03 187.55 395.75 577.88 869.86 439.24 1022.12 385.65 1043.14 515.59 898.51 630.77 1035.29 590.86
00019034 00000169 666.75 184.72 395.85 581.30 871.43 439.68 1022.98 384.92 1044.31 518.03 893.89 630.71 1033.90 590.23
CROP_BBOX: 435 0 1315 911
