Video ID: 	PH-TvmVYrRU
H: 	1080
W: 	1920
FPS: 	25.0

FRAME INDEX X0 Y0 W H [Landmarks (5 Points)]

00001394 00000000 923.47 178.54 429.38 684.27 963.08 452.55 1142.06 470.53 997.98 594.05 967.18 698.04 1096.34 716.48
00001395 00000001 924.67 178.17 428.10 680.62 965.50 450.90 1145.19 466.94 1001.92 591.07 971.04 696.25 1097.91 713.12
00001396 00000002 925.29 178.91 428.63 679.68 966.12 450.42 1145.42 465.90 1003.25 592.21 973.67 695.85 1100.11 712.10
00001397 00000003 924.28 178.52 429.95 681.34 965.83 449.73 1146.04 464.79 1003.69 592.41 973.83 696.36 1100.89 712.32
00001398 00000004 924.94 178.60 430.33 678.62 966.00 448.18 1146.66 462.07 1005.45 592.18 976.69 695.66 1102.14 710.56
00001399 00000005 926.52 177.59 430.68 681.76 966.01 448.26 1146.55 461.22 1004.57 592.12 978.23 697.17 1104.81 711.06
00001400 00000006 928.48 178.72 429.80 682.28 967.21 449.56 1148.68 462.34 1006.89 593.44 980.49 698.19 1108.37 711.78
00001401 00000007 931.19 178.10 428.53 683.89 969.08 450.16 1150.05 462.83 1008.28 592.75 982.79 699.40 1109.70 712.81
00001402 00000008 932.35 179.66 429.10 685.50 971.91 449.01 1151.51 463.16 1007.65 591.64 984.08 699.14 1108.65 713.72
00001403 00000009 930.65 178.87 430.75 690.61 972.55 448.37 1150.76 463.31 1005.32 590.93 982.60 699.05 1106.08 714.39
00001404 00000010 930.49 177.27 431.29 695.06 972.24 448.12 1150.04 462.71 1003.90 588.41 981.89 701.89 1103.73 717.03
00001405 00000011 931.15 177.30 426.63 688.70 968.51 449.62 1146.80 466.19 1000.94 593.07 977.49 700.29 1100.56 717.25
00001406 00000012 932.08 178.79 425.19 684.53 968.06 450.69 1145.74 468.10 999.93 592.74 975.61 700.02 1098.19 717.71
00001407 00000013 931.93 180.56 426.98 683.99 970.70 449.40 1148.00 468.00 1001.74 592.24 977.76 697.80 1099.24 716.44
00001408 DELETE   933.71 182.36 429.41 686.80 975.74 450.37 1152.69 469.48 1006.44 591.80 981.98 697.63 1104.24 716.34
00001409 DELETE   938.39 185.31 432.09 688.53 980.79 451.65 1161.35 473.73 1012.66 596.15 986.15 698.58 1114.63 719.15
00001410 00000016 942.03 189.30 433.77 683.62 986.81 451.94 1169.15 473.43 1020.84 598.31 996.11 699.98 1123.67 719.49
00001411 00000017 944.56 187.77 433.52 683.81 990.53 454.24 1175.05 473.68 1027.88 599.89 1001.76 701.04 1131.10 718.63
00001412 00000018 946.40 187.42 433.32 682.65 992.41 453.93 1177.77 474.36 1029.37 599.81 1002.83 698.93 1134.54 717.20
00001413 00000019 947.98 186.58 433.12 684.99 994.12 454.66 1178.65 474.55 1029.70 598.76 1003.21 700.14 1134.17 717.98
00001414 00000020 949.04 188.62 433.58 683.87 995.21 454.40 1178.38 474.60 1029.47 598.98 1004.59 700.32 1134.48 718.26
00001415 00000021 949.52 188.03 434.42 687.54 995.67 454.72 1178.45 474.69 1029.01 598.46 1003.86 700.63 1135.85 718.27
00001416 00000022 950.14 186.32 435.50 688.84 997.37 454.24 1179.32 474.47 1029.64 596.99 1004.73 698.74 1137.88 716.30
00001417 00000023 952.04 185.16 433.16 687.66 996.68 456.12 1180.49 475.31 1032.37 598.68 1004.99 701.71 1137.44 718.56
00001418 00000024 953.35 182.51 439.43 689.17 997.56 458.67 1180.86 483.20 1021.61 598.83 1003.65 705.34 1135.11 727.24
00001419 00000025 953.66 178.47 437.00 701.52 1003.15 460.91 1179.72 482.78 1025.80 600.42 1006.03 705.46 1138.61 725.26
00001420 00000026 955.66 178.39 439.32 709.97 1005.32 465.57 1180.07 482.56 1025.84 598.05 1009.38 712.45 1139.84 728.40
00001421 00000027 955.98 181.57 441.50 710.99 1005.78 466.22 1180.42 483.26 1025.68 599.17 1008.77 713.86 1143.71 729.92
00001422 00000028 959.77 183.03 439.36 708.68 1004.99 466.02 1180.57 483.73 1024.52 600.73 1007.36 713.26 1145.31 729.90
00001423 00000029 960.75 185.87 437.37 703.92 1006.48 465.09 1180.79 485.12 1025.62 600.28 1007.57 711.73 1143.07 730.32
00001424 00000030 962.91 187.89 436.32 699.77 1007.93 466.90 1180.91 485.42 1025.88 601.98 1009.61 711.78 1144.29 729.25
00001425 00000031 964.00 188.23 435.00 700.53 1008.11 467.39 1181.59 487.00 1026.78 603.47 1009.14 712.88 1143.07 731.38
00001426 00000032 964.35 190.34 433.62 694.35 1007.80 463.09 1185.67 481.77 1033.04 602.00 1013.90 710.25 1146.44 725.78
00001427 00000033 964.10 188.74 432.72 695.64 1006.89 461.73 1186.27 481.30 1032.60 601.48 1012.78 709.25 1146.19 725.60
00001428 00000034 964.34 189.45 432.91 695.37 1006.25 460.78 1186.89 480.92 1032.62 602.95 1011.99 710.66 1146.19 727.55
00001429 00000035 965.06 187.20 432.13 698.20 1006.01 461.10 1182.89 482.99 1026.76 604.09 1008.48 712.73 1142.58 732.85
00001430 00000036 964.83 187.21 433.11 702.02 1006.99 460.98 1183.64 482.52 1027.93 603.72 1009.94 714.15 1142.83 733.97
00001431 00000037 965.40 187.14 433.15 705.80 1006.88 461.47 1182.99 483.43 1027.64 604.91 1010.24 715.80 1141.30 736.03
00001432 00000038 965.11 186.73 433.89 707.64 1006.14 461.08 1183.12 483.54 1025.87 603.94 1008.39 716.06 1140.22 736.79
00001433 00000039 963.52 185.20 433.44 707.23 1005.38 459.00 1182.37 482.41 1025.65 603.27 1008.24 714.25 1138.32 735.59
00001434 00000040 962.97 185.43 431.58 705.41 1004.51 457.66 1180.96 480.99 1023.97 600.60 1006.98 713.51 1135.91 734.64
00001435 00000041 961.64 186.80 429.56 702.49 1004.21 456.89 1178.78 481.42 1023.69 598.83 1005.73 710.89 1133.23 732.78
00001436 00000042 960.84 186.71 429.63 700.63 1004.97 455.40 1178.28 481.03 1023.17 595.79 1005.48 707.55 1132.16 730.33
00001437 00000043 961.58 188.57 425.75 692.91 1004.56 456.07 1176.27 479.75 1027.43 593.20 1007.00 701.47 1130.53 721.69
00001438 00000044 960.25 187.35 426.16 692.94 1003.27 455.26 1175.40 480.02 1026.13 592.05 1003.50 699.61 1127.79 721.06
00001439 00000045 960.43 187.42 424.76 692.56 1002.78 453.90 1173.12 479.66 1022.85 590.65 1002.14 698.26 1125.90 720.59
00001440 00000046 959.44 186.16 424.35 690.34 1002.40 452.99 1171.38 478.92 1021.45 588.14 1000.65 694.67 1123.98 717.29
00001441 00000047 957.49 184.74 423.80 688.68 1000.33 449.36 1170.74 477.48 1018.66 586.22 997.80 691.56 1121.37 716.26
00001442 00000048 957.69 184.52 422.82 688.43 1000.25 448.19 1169.82 477.25 1016.84 585.19 997.24 690.77 1119.80 716.37
00001443 00000049 957.84 184.26 421.91 689.35 999.42 448.67 1168.84 477.35 1016.52 585.37 996.18 691.84 1118.68 717.26
00001444 00000050 957.58 184.88 421.80 688.68 999.39 448.79 1167.20 477.76 1016.41 585.47 996.49 691.27 1117.99 716.90
00001445 00000051 955.57 183.39 423.27 689.76 998.15 446.52 1166.82 476.60 1014.68 584.03 994.36 689.91 1115.86 716.76
00001446 00000052 955.36 181.78 423.03 690.01 998.23 446.17 1166.82 476.74 1015.40 583.48 994.33 688.96 1116.50 716.24
00001447 00000053 954.93 182.14 422.92 689.02 997.92 444.72 1166.40 476.36 1013.85 582.68 993.39 687.88 1116.17 715.98
00001448 00000054 952.66 180.88 426.17 691.67 995.75 443.50 1165.29 476.04 1011.99 583.92 991.27 688.72 1115.36 717.54
00001449 00000055 951.99 179.68 427.41 694.10 995.39 443.63 1164.41 475.38 1009.88 582.94 990.65 689.65 1113.68 717.80
00001450 00000056 952.89 179.13 427.61 696.36 995.37 444.22 1164.61 475.31 1009.90 582.55 990.60 690.66 1114.91 718.18
00001451 00000057 953.10 179.05 426.36 697.39 996.07 444.48 1164.27 475.20 1009.64 581.77 991.09 691.01 1114.05 718.26
00001452 00000058 952.80 179.31 427.41 697.56 996.75 443.72 1164.77 474.97 1009.34 581.43 991.30 690.03 1114.43 717.69
00001453 00000059 953.27 179.70 426.92 697.30 998.20 443.24 1164.24 474.83 1008.43 580.45 992.54 688.47 1115.06 716.24
00001454 00000060 953.38 178.77 427.23 694.93 997.08 443.53 1163.48 474.60 1007.68 580.39 991.63 687.46 1113.72 714.92
00001455 00000061 953.48 178.06 428.26 692.37 995.59 442.67 1163.15 473.50 1007.47 580.66 990.47 687.39 1113.58 714.73
00001456 00000062 953.28 178.41 428.19 685.50 992.30 443.99 1160.98 472.42 1007.10 580.65 988.81 687.13 1109.91 712.81
00001457 00000063 955.00 178.84 425.30 679.93 993.25 444.58 1161.11 473.18 1007.89 579.46 989.51 685.10 1109.37 710.98
00001458 00000064 956.05 178.71 424.43 678.75 995.17 443.78 1163.98 472.39 1011.11 578.49 991.04 684.24 1110.59 710.17
00001459 00000065 958.05 177.22 423.05 678.27 998.33 445.38 1164.12 473.45 1012.09 576.38 993.57 681.72 1111.79 707.12
00001460 00000066 959.62 174.94 424.26 679.92 1000.04 446.99 1166.29 473.93 1014.05 574.46 995.05 680.91 1112.64 705.39
00001461 00000067 960.77 174.87 423.65 677.83 1002.11 446.22 1168.22 474.36 1016.72 574.12 997.19 679.08 1114.01 704.43
00001462 00000068 960.81 174.42 425.85 678.83 1002.50 446.19 1170.60 474.33 1018.57 574.83 997.37 680.17 1115.23 705.54
00001463 00000069 961.48 174.68 426.42 678.45 1003.62 445.36 1172.79 473.98 1021.03 575.23 998.68 680.25 1116.32 706.04
00001464 00000070 964.50 179.70 420.33 669.76 1003.22 441.67 1176.08 476.88 999.37 576.44 991.66 687.36 1113.74 717.65
00001465 00000071 964.06 177.90 425.31 673.40 1006.72 445.71 1177.80 474.01 1025.29 579.25 1002.86 683.05 1120.76 708.32
00001466 00000072 965.38 178.12 424.31 672.87 1009.48 445.16 1179.88 474.50 1027.22 579.70 1004.40 682.40 1121.75 708.64
00001467 00000073 966.27 177.75 425.56 675.04 1010.60 445.55 1182.07 473.40 1028.30 578.96 1005.18 683.78 1123.43 708.77
00001468 00000074 968.46 177.68 427.22 677.43 1013.15 445.12 1185.39 473.32 1030.30 579.16 1007.01 685.74 1126.46 710.98
00001469 00000075 969.88 177.19 428.44 678.86 1015.00 445.24 1187.13 473.49 1031.61 578.45 1008.04 685.60 1128.12 710.84
00001470 00000076 970.32 179.68 428.93 676.64 1016.27 445.53 1188.12 474.10 1034.04 579.12 1008.99 686.61 1127.64 712.17
00001471 00000077 972.10 180.77 427.59 677.14 1016.63 446.45 1188.27 474.39 1034.35 580.07 1010.00 688.64 1128.48 713.67
00001472 00000078 972.90 180.41 429.22 677.63 1017.98 445.88 1189.43 474.55 1034.45 580.68 1010.50 688.03 1129.92 713.47
00001473 00000079 973.14 177.99 429.69 679.87 1013.88 445.59 1186.63 476.92 1030.04 585.60 1005.84 692.49 1124.92 721.37
00001474 00000080 975.70 181.21 429.56 677.93 1021.55 448.04 1191.38 477.09 1036.14 584.72 1014.15 688.19 1135.00 713.43
00001475 DELETE   977.83 182.91 429.73 676.73 1023.51 448.76 1195.13 478.33 1039.18 585.76 1015.17 690.03 1137.67 715.55
00001476 DELETE   977.36 188.20 430.46 672.99 1025.40 448.56 1198.04 478.74 1043.12 587.82 1015.94 690.64 1138.32 716.46
00001477 00000083 980.08 181.03 428.94 680.50 1019.08 446.25 1195.33 477.05 1040.88 589.02 1011.44 695.39 1132.89 724.19
00001478 00000084 981.61 182.58 428.16 678.30 1018.96 448.34 1196.32 477.24 1041.99 589.65 1011.85 696.87 1135.14 724.11
00001479 00000085 983.45 182.90 426.25 677.09 1020.79 449.79 1198.35 477.92 1045.87 591.08 1013.93 697.18 1136.31 723.86
00001480 00000086 984.18 182.87 426.09 677.01 1022.10 450.47 1200.20 478.24 1048.99 592.81 1015.56 698.07 1139.77 724.49
00001481 00000087 983.60 184.71 428.11 677.49 1022.47 452.21 1201.46 479.30 1050.33 594.88 1016.61 698.91 1141.03 724.90
00001482 00000088 985.05 185.15 428.78 677.31 1025.24 452.39 1203.76 480.63 1052.22 595.24 1018.27 698.62 1142.40 725.68
00001483 00000089 986.95 184.54 432.27 678.16 1025.35 453.21 1204.07 479.91 1052.99 596.19 1019.92 699.89 1144.16 725.78
00001484 00000090 988.37 184.67 430.96 679.02 1026.16 456.64 1203.94 482.38 1054.06 598.35 1021.52 701.93 1145.20 726.98
00001485 00000091 990.62 185.24 430.34 679.10 1028.42 456.37 1204.84 482.07 1056.89 598.38 1024.26 701.73 1146.29 726.82
00001486 00000092 991.78 185.56 429.92 678.82 1029.10 456.43 1206.81 483.11 1057.77 600.00 1024.61 702.15 1148.50 728.04
00001487 00000093 992.97 185.16 429.71 678.83 1029.14 457.37 1207.01 483.10 1059.22 600.85 1026.22 703.08 1149.81 728.08
00001488 00000094 993.85 185.97 429.57 678.18 1030.13 456.90 1208.31 483.04 1060.17 600.89 1027.23 703.13 1150.79 728.47
00001489 00000095 994.03 186.85 429.56 679.26 1030.55 457.62 1208.48 483.62 1060.24 601.91 1027.79 704.11 1151.09 729.31
00001490 00000096 995.10 186.74 429.27 679.54 1031.49 457.52 1209.95 483.82 1061.49 602.31 1028.80 703.95 1152.89 729.38
00001491 00000097 995.33 187.06 428.96 679.45 1032.37 457.26 1210.16 483.07 1061.76 601.83 1029.34 704.43 1152.38 729.51
00001492 00000098 996.06 187.88 428.60 679.81 1033.94 456.84 1212.21 482.98 1064.41 603.66 1031.03 705.19 1154.28 730.59
00001493 00000099 996.01 187.12 428.34 680.18 1033.77 457.04 1211.95 483.17 1064.11 603.28 1030.57 705.26 1153.99 730.66
00001494 00000100 995.66 186.32 428.10 679.31 1033.05 457.15 1211.91 482.06 1065.26 602.13 1030.67 705.17 1153.59 729.58
00001495 00000101 995.74 186.53 429.28 681.57 1033.97 456.86 1212.49 482.57 1065.61 602.97 1031.19 705.51 1153.45 730.64
00001496 00000102 996.13 185.56 430.00 683.52 1033.91 457.47 1212.80 483.08 1065.04 603.23 1030.92 706.37 1153.65 731.41
00001497 00000103 996.19 187.86 429.78 681.76 1035.08 457.63 1213.36 484.03 1065.16 603.21 1031.46 706.01 1153.18 731.62
00001498 00000104 994.42 188.35 431.18 680.55 1034.98 457.67 1212.95 483.50 1065.05 603.50 1031.83 706.04 1152.96 731.18
00001499 00000105 995.35 187.66 430.74 682.94 1035.49 457.79 1213.16 483.83 1064.41 602.97 1031.96 706.23 1153.14 731.55
00001500 00000106 996.32 189.53 429.34 682.17 1036.60 457.52 1216.14 483.69 1067.94 605.47 1032.76 707.76 1155.00 733.20
00001501 00000107 997.72 188.83 429.09 682.80 1037.46 457.40 1217.14 482.81 1069.40 604.34 1033.69 707.82 1155.67 732.67
00001502 00000108 998.19 188.51 429.01 684.28 1038.45 457.21 1218.00 482.73 1071.08 605.60 1034.83 707.80 1156.90 732.80
00001503 00000109 999.83 190.42 428.08 683.81 1040.26 457.69 1219.32 482.95 1074.12 607.02 1037.91 708.79 1159.06 733.53
00001504 00000110 1000.76 191.03 427.91 683.02 1040.03 457.82 1219.71 483.49 1073.46 607.39 1037.75 709.14 1159.78 734.13
00001505 00000111 1000.36 191.27 428.12 683.40 1041.17 457.44 1219.87 484.48 1074.16 608.57 1038.84 707.56 1160.54 733.64
00001506 00000112 1000.12 189.95 428.91 684.79 1040.19 457.67 1219.30 483.14 1072.98 607.60 1038.63 708.28 1160.88 733.13
00001507 00000113 1000.15 189.61 429.90 684.42 1040.79 458.22 1219.50 483.32 1073.53 607.47 1040.00 707.98 1162.32 732.46
00001508 00000114 1000.54 189.65 429.92 685.95 1040.40 458.28 1220.79 482.61 1074.23 608.31 1040.84 709.43 1164.25 733.29
00001509 00000115 1000.16 190.59 429.60 686.89 1040.26 458.45 1220.42 483.00 1073.47 608.79 1040.82 709.83 1164.44 733.77
00001510 00000116 1000.14 188.88 429.46 688.09 1039.49 457.79 1219.79 481.87 1072.46 607.55 1040.19 710.16 1164.28 733.75
00001511 00000117 998.68 183.84 430.62 689.72 1037.09 457.50 1216.87 478.40 1071.14 603.88 1038.60 708.73 1162.24 729.82
00001512 00000118 998.88 179.56 428.65 687.67 1038.12 450.72 1217.11 473.39 1071.47 597.42 1040.55 701.70 1163.87 724.21
00001513 00000119 1000.04 178.66 425.67 683.82 1038.74 447.05 1217.23 468.86 1073.95 595.65 1043.63 699.13 1165.53 720.78
00001514 00000120 1001.09 179.20 425.68 684.09 1039.01 446.47 1217.65 468.82 1075.15 596.50 1044.55 697.50 1167.13 719.58
00001515 00000121 1001.29 177.59 425.77 687.23 1037.66 448.61 1217.53 469.93 1074.17 598.80 1044.52 700.17 1168.37 721.42
00001516 DELETE   1004.46 179.47 423.86 688.52 1038.92 457.63 1218.06 477.01 1075.72 602.78 1046.46 704.63 1172.39 723.97
00001517 00000123 1006.45 187.71 428.18 688.47 1042.23 461.38 1224.76 481.76 1080.06 609.74 1050.34 711.18 1177.46 731.03
00001518 DELETE   1007.99 194.06 431.65 684.88 1045.59 462.84 1230.28 484.66 1083.96 611.82 1054.21 714.43 1180.84 735.05
00001519 DELETE   1008.67 196.74 433.36 682.79 1048.22 463.18 1234.97 485.81 1087.93 613.18 1056.91 715.43 1184.53 736.44
00001520 00000126 1012.45 195.49 432.77 679.72 1052.35 462.23 1239.96 485.68 1094.43 613.08 1061.54 711.83 1192.09 733.40
00001521 00000127 1008.39 194.28 445.17 675.41 1059.95 461.45 1249.82 485.39 1088.17 603.44 1065.62 713.37 1198.05 734.10
00001522 00000128 1012.54 189.96 443.70 673.52 1062.06 458.50 1252.37 482.37 1092.42 599.74 1067.68 708.00 1200.89 728.87
00001523 00000129 1013.27 184.76 441.88 674.88 1063.87 455.14 1253.00 478.44 1093.93 595.16 1069.85 703.27 1203.65 723.67
00001524 DELETE   1012.12 182.96 443.04 674.27 1062.85 454.08 1252.72 477.48 1093.28 595.89 1069.56 700.13 1206.32 720.60
00001525 00000131 1010.88 183.10 445.52 674.86 1062.07 456.91 1253.08 477.56 1094.55 597.19 1071.77 703.19 1208.67 721.30
00001526 00000132 1011.89 185.50 444.81 676.80 1062.61 458.43 1253.90 479.22 1096.85 601.48 1073.70 706.43 1209.85 724.73
00001527 DELETE   1012.30 188.23 446.91 680.31 1062.96 460.02 1256.61 482.64 1100.44 607.17 1075.46 710.40 1212.42 730.40
00001528 00000134 1015.59 190.08 446.96 679.88 1065.41 462.02 1258.35 483.10 1103.20 608.96 1080.00 714.29 1214.94 733.09
00001529 00000135 1019.41 187.58 449.25 683.33 1067.19 462.31 1260.70 482.87 1105.54 609.15 1082.95 715.00 1218.00 733.61
00001530 00000136 1022.63 188.16 444.37 684.26 1075.46 466.40 1263.30 480.71 1115.58 608.53 1087.60 713.94 1222.46 727.57
00001531 00000137 1031.63 191.78 438.74 682.84 1080.79 467.22 1266.43 484.95 1120.22 611.61 1087.80 712.48 1223.50 729.53
00001532 DELETE   1036.89 192.74 438.71 685.20 1085.35 470.92 1270.28 487.55 1124.84 617.67 1091.19 718.19 1227.05 734.87
00001533 00000139 1039.31 193.46 438.80 682.38 1088.23 471.18 1272.90 488.81 1127.00 615.95 1092.84 716.55 1229.26 734.09
00001534 00000140 1041.07 192.42 436.84 682.41 1090.43 470.54 1275.10 488.37 1129.49 613.15 1094.60 714.21 1232.19 731.85
00001535 00000141 1043.64 192.49 436.53 683.40 1093.69 470.94 1277.52 488.04 1132.61 613.01 1096.67 716.73 1231.65 733.92
00001536 DELETE   1045.11 198.88 436.93 679.78 1095.97 472.46 1280.39 490.83 1136.66 620.79 1098.30 720.27 1232.81 738.57
00001537 DELETE   1047.74 202.86 440.07 678.28 1099.80 473.22 1283.33 492.75 1140.15 623.38 1104.24 721.71 1236.63 740.85
00001538 00000144 1051.26 207.37 440.45 677.00 1103.05 473.88 1287.48 494.10 1145.06 627.50 1111.74 724.59 1242.70 744.08
00001539 00000145 1055.68 209.22 437.94 675.41 1106.39 474.81 1291.69 494.88 1150.12 630.09 1116.88 725.46 1247.39 744.71
00001540 00000146 1057.15 208.28 438.57 677.89 1109.43 475.18 1295.73 495.56 1153.97 630.86 1120.45 725.26 1251.60 744.68
00001541 00000147 1058.88 210.16 438.68 678.29 1113.48 475.02 1301.56 495.21 1160.27 630.94 1123.62 725.23 1257.77 744.36
00001542 00000148 1060.82 213.53 439.52 675.70 1116.45 475.45 1305.76 495.61 1164.07 631.04 1126.58 725.38 1261.85 744.29
00001543 00000149 1062.37 214.26 438.68 676.32 1117.08 475.14 1308.76 496.38 1165.78 632.98 1127.32 726.39 1264.20 746.10
00001544 00000150 1063.57 215.09 437.67 675.45 1118.68 475.92 1311.07 497.91 1168.50 634.76 1128.97 726.49 1266.72 746.75
00001545 00000151 1067.59 214.72 437.58 673.94 1121.01 475.36 1314.20 497.12 1173.02 633.69 1131.23 724.84 1269.31 745.01
00001546 00000152 1068.97 215.89 437.18 673.84 1123.99 474.64 1317.54 495.81 1177.59 633.46 1134.32 723.77 1273.49 743.34
00001547 00000153 1072.01 214.90 437.84 674.13 1125.66 473.49 1320.57 492.90 1181.67 631.92 1137.10 724.41 1276.09 742.50
00001548 00000154 1073.58 214.25 439.43 674.08 1128.99 472.41 1325.54 492.90 1185.96 631.98 1140.92 722.61 1282.02 741.32
00001549 00000155 1075.56 214.52 440.73 677.51 1131.04 471.49 1329.57 493.49 1186.77 633.22 1144.20 725.38 1288.19 744.97
00001550 00000156 1076.84 214.34 442.84 678.32 1134.60 474.13 1332.98 496.01 1190.95 636.48 1149.15 727.37 1292.94 746.55
00001551 00000157 1076.79 218.37 450.62 683.05 1143.42 487.16 1342.49 503.92 1193.48 637.28 1152.14 737.47 1300.32 752.36
00001552 DELETE   1079.35 221.96 450.38 681.39 1145.83 492.45 1343.74 510.07 1195.35 641.98 1155.07 738.90 1302.91 754.63
00001553 00000159 1082.28 224.88 449.38 679.68 1148.34 496.33 1343.35 514.25 1197.40 645.53 1157.51 740.74 1303.41 756.91
00001554 00000160 1085.29 227.53 448.35 678.68 1148.03 501.37 1345.76 517.93 1200.29 652.62 1159.90 746.42 1307.31 761.65
00001555 00000161 1088.13 228.71 446.69 678.05 1150.47 502.67 1347.04 520.18 1203.71 654.27 1162.46 747.45 1308.19 763.56
00001556 00000162 1090.85 228.14 444.90 677.21 1152.81 502.27 1349.94 520.13 1207.26 654.32 1163.97 746.35 1310.72 762.76
00001557 00000163 1092.19 225.71 443.85 677.97 1154.24 500.27 1350.96 518.25 1207.87 651.08 1164.91 744.77 1310.27 761.40
