Video ID: 	NUl-a3GZznQ
H: 	1080
W: 	1920
FPS: 	29.97002997002997

FRAME INDEX X0 Y0 W H [Landmarks (5 Points)]

00033276 00000000 791.28 124.95 572.59 724.18 922.67 430.07 1190.46 380.32 1075.38 548.72 998.15 689.98 1228.36 647.92
00033277 00000001 795.26 124.94 574.14 727.74 927.10 432.47 1194.52 387.10 1076.75 554.28 997.30 690.12 1229.94 651.65
00033278 00000002 795.49 123.29 575.65 735.40 927.71 438.74 1198.36 397.11 1077.79 563.42 994.35 694.94 1231.38 659.68
00033279 00000003 801.56 149.80 567.60 709.96 928.89 439.27 1197.74 401.58 1074.77 571.54 992.20 697.66 1225.91 665.67
00033280 00000004 797.08 139.38 571.38 732.95 927.69 438.32 1194.95 403.09 1072.30 569.51 987.69 699.20 1223.48 669.18
00033281 00000005 793.92 126.45 572.67 746.26 924.41 435.39 1191.60 398.48 1069.85 562.98 986.91 698.28 1222.54 666.91
00033282 DELETE   790.58 121.89 573.19 738.07 918.76 426.73 1190.54 387.85 1066.64 553.33 984.02 692.03 1217.98 659.17
00033283 DELETE   795.33 111.65 566.36 744.11 918.71 418.52 1185.85 381.01 1061.22 539.30 981.24 683.96 1212.35 652.00
00033284 00000008 793.00 113.22 569.18 739.29 913.59 414.90 1183.81 377.16 1057.39 538.75 978.00 681.45 1210.69 649.12
00033285 00000009 790.91 115.21 570.67 740.68 913.03 419.24 1180.53 382.11 1054.87 544.03 975.84 684.08 1207.64 652.42
00033286 00000010 786.32 117.76 572.07 745.07 909.26 423.28 1178.22 385.63 1052.55 550.88 973.08 688.65 1205.64 656.52
00033287 00000011 784.22 120.49 574.45 745.46 907.12 425.31 1176.81 388.87 1049.19 555.01 970.52 690.46 1202.09 659.23
00033288 00000012 783.99 123.77 574.54 743.84 905.70 425.47 1175.15 389.98 1045.47 555.97 967.50 689.70 1199.12 659.09
00033289 00000013 783.47 123.26 575.35 743.32 904.03 425.06 1175.36 389.23 1043.76 555.16 965.95 689.89 1197.88 658.95
00033290 00000014 781.79 121.49 576.78 747.64 902.89 425.16 1173.60 389.76 1041.30 554.94 964.29 690.95 1195.45 660.30
00033291 00000015 778.83 115.78 579.35 755.89 901.93 427.45 1171.14 391.45 1039.54 555.55 964.90 694.27 1193.57 663.08
00033292 00000016 777.63 114.39 581.87 762.11 901.15 429.05 1170.18 392.34 1038.13 556.08 965.56 698.31 1193.02 666.53
00033293 00000017 779.51 114.04 582.38 765.08 901.79 430.57 1170.98 393.44 1038.15 557.49 966.07 700.29 1193.92 668.26
00033294 00000018 781.42 116.90 582.19 762.94 903.44 431.67 1171.65 394.46 1039.42 557.85 968.43 701.09 1194.22 669.09
00033295 00000019 782.36 117.30 582.83 763.87 903.78 431.14 1172.54 394.32 1039.72 558.37 969.90 703.45 1193.74 671.91
00033296 00000020 783.37 119.13 581.95 762.13 905.52 431.93 1173.51 395.50 1041.11 558.57 971.12 703.52 1194.85 672.22
00033297 00000021 787.40 115.86 576.70 761.97 910.37 435.73 1176.08 400.47 1044.50 558.17 970.84 701.37 1196.88 671.00
00033298 00000022 791.25 123.67 569.70 748.47 910.62 436.58 1174.34 399.42 1043.50 557.64 971.16 699.88 1196.11 668.10
00033299 00000023 786.98 119.84 575.18 749.20 908.44 431.97 1174.98 397.55 1042.27 556.64 970.28 696.78 1194.25 667.26
00033300 00000024 784.56 114.34 576.90 752.95 905.27 432.52 1175.73 396.63 1041.51 556.01 967.39 697.20 1195.11 666.38
00033301 00000025 782.67 114.30 580.04 750.28 903.10 428.24 1174.35 392.69 1039.18 554.22 967.43 696.48 1192.06 666.11
00033302 00000026 780.98 114.90 581.10 749.55 902.73 425.15 1173.10 391.85 1037.44 554.66 965.73 693.56 1188.26 665.03
00033303 00000027 780.00 112.62 581.65 755.01 901.73 422.69 1173.26 390.49 1035.82 554.73 963.99 692.35 1186.11 664.71
00033304 00000028 775.19 112.34 584.55 756.37 904.13 426.28 1169.72 391.61 1036.12 550.30 961.62 697.53 1180.13 667.87
00033305 00000029 773.70 110.13 586.01 760.43 904.59 427.68 1167.04 392.31 1036.25 550.63 964.09 696.69 1181.57 666.09
00033306 00000030 775.83 109.61 587.20 764.23 902.33 423.34 1170.54 391.23 1033.96 554.07 965.01 689.09 1186.60 661.08
00033307 00000031 775.21 109.56 586.68 765.64 902.06 423.20 1169.81 392.36 1032.87 554.03 963.02 687.29 1185.60 660.22
00033308 00000032 776.21 110.16 586.28 765.14 902.44 422.74 1169.72 393.23 1031.93 554.18 962.26 685.72 1184.85 659.74
00033309 00000033 778.07 112.28 585.48 761.09 903.29 422.07 1170.60 393.87 1031.79 554.14 961.87 683.26 1185.59 658.35
00033310 00000034 778.01 112.34 586.22 762.00 902.92 421.85 1171.03 393.78 1032.19 555.16 962.31 682.86 1186.94 658.04
00033311 00000035 777.21 115.75 586.24 759.35 901.82 422.81 1170.85 395.32 1030.85 556.51 960.06 683.32 1185.61 658.95
00033312 00000036 778.18 115.31 586.52 760.38 900.73 424.63 1170.47 396.11 1028.85 557.36 959.12 686.62 1183.81 661.41
00033313 00000037 779.00 114.11 585.99 762.32 901.08 425.99 1169.19 397.01 1027.55 557.90 960.03 689.11 1181.36 663.64
00033314 00000038 780.76 116.14 582.41 761.71 899.16 429.03 1166.62 397.95 1025.52 559.25 960.80 696.02 1179.09 669.07
00033315 00000039 781.03 122.88 579.27 756.94 898.48 431.49 1164.12 399.04 1023.41 559.99 961.00 703.98 1173.52 676.47
00033316 00000040 782.44 126.41 576.70 757.40 899.53 432.59 1163.19 400.09 1022.96 560.94 960.42 706.86 1170.36 679.49
00033317 00000041 782.05 128.57 575.28 756.13 899.90 433.26 1161.57 400.32 1022.83 561.71 961.11 707.95 1169.08 680.17
00033318 00000042 782.49 127.06 575.15 755.43 899.13 432.92 1161.69 400.37 1022.24 562.49 960.37 707.38 1170.43 679.88
00033319 00000043 781.03 123.58 576.67 756.22 897.71 431.65 1160.24 398.68 1020.80 561.58 960.37 706.15 1169.71 678.32
00033320 00000044 780.28 121.38 579.83 757.35 897.18 431.29 1160.91 398.53 1020.63 560.97 960.56 704.66 1172.14 676.80
00033321 00000045 779.67 116.39 581.67 760.50 896.91 430.76 1162.06 397.77 1021.54 560.63 960.66 703.88 1173.67 675.78
00033322 00000046 781.20 117.08 579.01 752.64 896.58 430.70 1162.35 398.09 1021.36 562.14 958.67 699.72 1175.55 671.72
00033323 00000047 778.35 116.36 580.53 752.14 894.54 430.02 1162.33 398.42 1020.16 562.67 954.22 697.05 1175.65 669.66
00033324 00000048 777.63 116.91 581.09 751.49 893.62 428.74 1160.80 398.69 1017.82 563.39 952.42 694.80 1173.91 668.58
00033325 00000049 778.78 123.52 578.21 742.55 894.08 429.46 1160.49 400.50 1016.95 565.63 952.19 694.86 1171.51 669.57
00033326 00000050 782.54 125.82 573.52 745.19 895.87 430.05 1159.49 401.78 1017.40 568.83 953.59 697.56 1170.87 672.97
00033327 00000051 783.38 127.54 571.89 749.77 895.99 436.25 1158.63 406.00 1017.10 572.76 953.68 703.57 1170.85 677.48
00033328 00000052 783.47 134.70 570.92 748.34 898.60 446.07 1159.60 416.09 1020.13 581.20 955.73 710.97 1169.35 685.20
00033329 00000053 787.49 145.46 568.78 753.32 901.19 454.68 1157.65 426.02 1019.46 590.19 955.04 720.39 1170.22 695.67
00033330 00000054 785.20 165.25 572.43 739.63 897.81 459.84 1160.54 434.37 1020.39 608.01 956.19 730.41 1171.44 708.20
00033331 00000055 785.91 164.66 574.16 751.10 897.92 463.52 1159.53 438.25 1017.53 609.69 954.41 742.54 1167.04 720.75
00033332 00000056 785.14 169.72 575.97 750.80 896.39 468.56 1160.28 444.47 1016.83 613.27 951.14 745.39 1167.83 724.52
00033333 00000057 785.89 171.35 574.93 750.20 895.74 469.36 1158.10 446.25 1013.30 613.75 948.73 744.33 1165.64 724.51
00033334 00000058 786.97 167.94 573.83 752.73 894.93 469.65 1153.41 445.81 1008.48 611.38 946.07 741.64 1160.72 721.10
00033335 DELETE   782.68 159.97 575.01 755.58 887.11 464.56 1150.86 440.32 1002.84 606.58 939.68 738.80 1157.77 717.76
00033336 00000060 775.92 153.47 580.44 755.48 880.08 461.31 1143.41 435.51 992.25 598.08 932.52 733.48 1151.01 710.89
00033337 00000061 770.66 161.28 579.22 740.85 874.19 453.24 1133.12 428.62 984.20 595.27 926.59 724.40 1141.69 702.53
00033338 00000062 762.31 159.65 579.79 740.65 868.25 448.05 1122.51 422.44 974.60 589.59 922.98 718.12 1135.60 694.48
00033339 00000063 754.03 151.84 583.23 745.89 860.78 444.66 1114.44 417.47 966.91 584.43 916.98 716.98 1129.44 692.15
00033340 00000064 748.96 149.79 583.80 746.06 855.41 441.44 1107.70 413.18 960.48 580.86 913.73 717.30 1123.35 691.81
00033341 00000065 743.84 147.90 588.38 746.05 848.47 438.99 1105.37 415.60 953.12 583.92 908.02 715.20 1114.05 694.45
00033342 00000066 742.19 143.82 587.32 745.38 845.62 440.48 1102.92 415.94 950.34 581.16 904.59 713.87 1111.71 692.22
00033343 00000067 740.60 136.75 588.22 750.88 843.87 438.62 1102.16 413.75 948.55 579.01 902.67 713.32 1111.13 691.24
00033344 00000068 741.09 138.99 587.98 750.12 842.51 438.27 1100.30 411.90 946.96 579.17 903.00 714.32 1110.78 690.95
00033345 00000069 738.17 135.36 590.00 760.93 841.44 436.82 1096.94 410.03 944.67 577.39 902.87 716.38 1108.03 693.00
00033346 00000070 738.37 131.75 595.68 775.38 844.24 444.20 1096.64 408.28 948.25 569.78 909.26 718.88 1112.56 689.31
00033347 00000071 738.12 128.64 598.42 782.04 844.85 445.54 1095.11 408.02 948.21 569.87 912.06 721.52 1114.31 690.46
00033348 00000072 739.05 128.94 598.63 783.75 845.05 448.43 1097.57 409.13 949.83 571.20 912.90 724.05 1118.49 691.45
00033349 00000073 740.35 132.56 598.89 780.58 846.74 449.38 1100.63 409.80 951.17 571.54 913.47 725.31 1119.00 692.64
00033350 00000074 741.08 132.61 599.73 780.45 848.05 450.13 1102.63 409.53 953.03 570.68 914.24 725.01 1121.23 691.50
00033351 00000075 741.93 132.49 598.50 779.47 849.19 449.17 1102.86 409.57 954.27 571.28 916.03 723.50 1121.31 690.83
00033352 00000076 744.05 135.24 597.60 777.69 850.65 447.99 1103.99 408.78 955.39 571.25 917.42 722.71 1122.50 690.36
00033353 00000077 745.78 136.85 596.02 775.77 851.75 447.29 1104.46 408.93 955.90 571.31 918.15 722.19 1122.91 690.59
00033354 00000078 746.66 136.37 594.81 775.09 851.39 446.52 1104.42 408.13 956.16 572.40 918.53 721.50 1123.68 689.90
00033355 00000079 744.76 137.08 596.62 774.56 850.57 447.49 1104.50 408.52 957.27 573.96 919.07 721.99 1124.65 689.73
00033356 00000080 744.26 136.97 597.07 775.04 850.30 447.41 1104.10 408.30 957.10 573.86 918.73 722.07 1124.20 689.66
00033357 00000081 742.58 136.92 598.09 775.16 849.61 448.38 1104.06 408.41 957.93 573.07 918.72 722.75 1124.98 689.57
00033358 00000082 741.41 135.38 598.87 776.68 849.07 448.60 1104.10 408.46 957.82 572.91 917.71 723.16 1124.46 689.86
00033359 00000083 740.51 134.57 599.37 777.21 848.33 449.35 1103.58 408.48 957.83 572.67 917.63 723.80 1124.76 689.80
00033360 00000084 740.27 136.21 600.42 776.09 848.25 449.45 1103.81 408.29 958.07 572.94 918.05 724.20 1125.19 689.97
00033361 00000085 740.33 135.56 599.79 776.36 848.25 449.47 1103.72 408.33 958.18 573.07 918.23 724.07 1125.31 689.83
00033362 00000086 740.72 139.61 599.97 773.45 848.40 448.79 1103.64 407.82 957.60 573.22 917.93 723.84 1125.10 689.77
00033363 00000087 741.21 139.57 599.77 773.95 848.72 448.78 1103.80 408.14 957.62 573.14 918.12 723.59 1125.17 689.77
00033364 00000088 741.22 138.58 600.37 775.52 848.64 449.27 1103.90 408.36 957.30 573.11 917.91 723.97 1125.49 689.92
00033365 00000089 740.97 137.97 600.50 777.46 848.72 449.08 1104.28 408.24 957.62 572.95 917.94 724.67 1125.54 690.70
00033366 00000090 740.93 138.14 600.01 778.64 848.85 449.69 1103.90 408.77 957.74 573.28 918.00 725.57 1125.11 691.56
00033367 00000091 740.54 135.19 600.64 783.93 849.58 449.23 1103.25 409.38 957.67 572.74 918.20 726.58 1122.30 693.61
00033368 00000092 742.01 136.26 598.40 771.00 848.44 448.66 1103.34 408.55 957.03 574.82 919.47 723.17 1122.28 690.14
00033369 00000093 741.81 145.07 595.50 757.11 846.08 441.67 1104.85 408.82 954.25 582.48 914.61 723.41 1119.30 694.92
00033370 00000094 743.58 138.12 595.93 767.37 848.22 448.63 1104.06 408.85 955.92 574.84 915.95 721.34 1122.89 688.58
00033371 00000095 744.04 136.53 596.04 772.11 849.04 447.20 1103.53 408.75 955.04 574.75 915.36 721.35 1121.11 689.71
00033372 00000096 742.33 137.76 598.52 777.03 850.28 445.04 1102.76 407.10 956.87 574.20 919.16 723.64 1118.90 692.47
00033373 00000097 742.45 136.87 597.17 786.85 852.67 443.15 1102.22 406.82 957.60 572.04 920.97 726.89 1115.28 697.21
00033374 00000098 743.60 138.11 597.41 788.47 853.58 442.17 1103.12 406.96 958.11 572.48 922.17 727.56 1115.97 698.82
00033375 00000099 747.77 136.78 596.61 794.28 853.52 445.07 1105.60 408.13 957.82 575.12 921.40 730.15 1125.40 699.78
00033376 00000100 752.05 139.00 590.26 794.41 856.68 446.48 1107.66 408.51 961.35 573.43 923.43 730.07 1132.78 698.67
00033377 00000101 756.27 144.18 583.07 780.12 857.76 440.87 1110.50 402.74 965.04 571.17 926.63 724.47 1136.60 693.32
00033378 00000102 758.06 138.46 580.93 771.64 855.55 435.79 1111.17 397.74 962.94 564.56 923.59 716.12 1134.47 685.25
00033379 00000103 754.57 124.94 586.74 781.80 854.89 424.23 1116.00 390.58 962.75 559.64 917.67 713.58 1135.26 684.66
00033380 00000104 754.30 123.15 589.07 780.34 854.30 422.71 1115.27 388.90 962.79 559.13 918.14 709.45 1133.76 680.41
00033381 00000105 754.20 122.47 590.61 778.50 852.12 422.43 1114.52 388.90 960.38 560.27 915.40 706.31 1135.28 677.07
00033382 00000106 752.65 128.18 590.46 773.80 852.09 420.87 1113.52 389.60 960.89 561.07 912.39 702.78 1132.08 675.27
00033383 00000107 752.42 127.53 590.31 772.75 852.62 421.51 1115.23 391.27 961.79 562.68 912.44 703.86 1132.25 677.38
00033384 00000108 751.13 129.24 589.72 763.26 851.33 421.07 1115.63 393.66 961.24 564.68 909.70 702.07 1131.16 678.00
00033385 00000109 756.93 134.40 580.75 760.75 861.23 429.53 1115.24 408.37 962.32 566.25 912.42 705.01 1119.97 686.54
00033386 00000110 756.99 141.20 582.22 760.42 862.23 446.05 1114.00 418.29 966.63 573.31 919.66 715.76 1121.49 692.98
00033387 00000111 757.21 147.01 585.61 759.04 862.90 447.20 1109.92 422.02 960.81 579.13 911.92 723.25 1118.02 700.95
00033388 00000112 766.31 137.76 577.14 771.33 867.74 451.35 1113.45 424.19 959.18 585.57 913.27 722.54 1124.92 699.68
00033389 00000113 759.25 134.00 588.93 770.56 864.49 437.95 1114.83 417.91 960.05 575.76 908.68 713.92 1119.63 695.86
00033390 00000114 764.51 138.27 581.89 759.14 866.33 426.35 1117.25 409.48 961.15 567.90 908.72 704.47 1116.48 689.15
00033391 00000115 766.94 143.99 581.93 748.85 869.74 421.24 1123.00 405.86 966.47 567.44 910.92 699.74 1119.04 685.62
00033392 00000116 770.13 139.79 582.78 758.10 873.86 424.53 1122.62 410.15 965.64 567.85 915.47 706.29 1113.00 693.76
00033393 00000117 771.05 142.12 586.25 764.04 876.49 430.24 1126.73 418.54 968.22 575.42 917.70 711.11 1116.47 700.60
00033394 00000118 774.86 155.97 581.56 753.44 874.10 439.42 1124.36 428.46 966.61 588.25 915.20 717.59 1119.87 707.51
00033395 00000119 776.06 160.33 580.00 747.96 872.85 442.84 1122.88 432.15 965.46 593.30 913.15 718.35 1119.17 708.76
00033396 00000120 775.22 164.85 579.53 742.79 871.30 441.75 1121.87 432.04 964.18 594.53 912.19 718.77 1117.21 710.20
00033397 00000121 772.80 164.80 579.17 740.17 868.34 442.54 1119.50 432.39 960.59 593.40 909.58 717.92 1113.97 708.82
00033398 00000122 769.90 157.06 579.36 743.56 866.49 443.33 1115.01 432.27 957.28 590.03 907.99 715.54 1110.99 705.65
00033399 00000123 768.48 153.00 577.45 742.88 865.63 443.83 1111.64 431.27 955.46 587.58 906.53 715.02 1108.02 703.78
00033400 00000124 766.43 150.28 579.52 742.36 864.47 443.98 1111.28 431.58 954.51 586.94 905.78 714.06 1106.72 702.96
00033401 00000125 766.05 146.53 579.41 746.05 862.85 443.72 1110.27 431.96 952.46 588.11 902.68 712.38 1103.81 701.91
00033402 00000126 766.08 147.86 576.96 742.12 864.77 442.07 1111.33 433.16 953.23 588.14 901.12 708.31 1098.14 700.63
00033403 00000127 766.46 149.54 571.58 732.85 866.19 441.96 1109.34 434.62 953.30 587.07 902.63 709.33 1085.21 703.85
00033404 00000128 766.25 151.80 572.35 730.56 868.62 439.97 1109.05 432.53 953.84 582.39 907.63 709.85 1080.02 704.37
00033405 00000129 768.43 159.39 569.85 721.67 869.80 436.60 1109.03 427.96 953.99 574.25 907.29 705.98 1077.14 699.83
00033406 00000130 766.76 133.68 575.88 743.62 871.34 427.49 1111.22 420.81 951.84 565.81 902.44 698.84 1073.58 694.54
00033407 00000131 767.25 122.43 582.11 756.88 868.68 416.28 1115.66 412.72 950.92 562.36 900.34 691.82 1084.27 689.52
00033408 00000132 768.08 126.49 581.66 755.86 868.44 414.44 1118.97 409.24 953.89 558.06 897.19 690.08 1092.12 686.05
00033409 00000133 772.65 128.19 580.28 755.14 871.71 415.19 1124.67 410.64 960.10 561.29 899.39 688.82 1102.81 684.78
00033410 00000134 777.98 129.61 580.03 751.45 876.26 420.32 1131.19 419.90 964.26 568.71 901.16 691.06 1109.68 690.11
00033411 00000135 781.76 149.07 575.42 742.60 880.88 425.52 1133.33 430.16 965.45 576.03 902.65 697.13 1104.56 701.29
00033412 00000136 782.75 148.95 574.92 736.90 881.53 432.48 1132.01 440.20 961.60 581.28 900.35 701.54 1092.87 708.70
00033413 00000137 784.35 150.95 572.40 725.87 880.12 432.14 1131.21 442.19 960.10 580.60 895.96 696.71 1091.75 705.71
00033414 00000138 785.82 143.16 569.66 720.63 879.15 423.56 1132.51 435.43 958.99 571.80 892.22 687.67 1092.71 698.20
00033415 DELETE   790.83 126.58 564.82 726.89 876.80 409.02 1130.23 418.91 956.33 556.24 886.62 671.58 1091.56 680.16
00033416 DELETE   784.49 114.07 558.24 721.98 878.84 382.84 1131.83 407.71 951.01 538.62 887.78 653.06 1082.30 674.64
00033417 00000141 789.65 116.24 550.25 718.37 879.25 373.64 1132.43 400.78 949.09 529.62 882.04 647.75 1074.02 671.64
00033418 00000142 798.20 137.52 546.10 689.37 886.14 375.69 1129.56 397.63 954.48 527.65 885.77 644.65 1070.98 665.66
00033419 DELETE   805.18 139.69 544.83 692.31 894.06 378.50 1134.15 403.58 958.98 531.90 889.50 646.39 1072.52 670.18
00033420 DELETE   808.37 149.73 552.91 693.28 902.44 386.82 1143.17 417.49 966.16 541.06 894.22 652.57 1075.67 680.44
00033421 DELETE   813.49 140.98 568.87 720.03 912.49 390.95 1155.18 430.20 969.07 546.12 899.28 657.57 1086.89 692.24
00033422 00000146 825.68 132.85 559.66 728.77 920.65 386.82 1170.62 433.51 983.72 558.48 912.06 659.97 1107.91 700.06
CROP_BBOX: 470 0 1682 1080
