Video ID: 	yiK-1jStfAA
H: 	1080
W: 	1920
FPS: 	23.976023976023978

FRAME INDEX X0 Y0 W H [Landmarks (5 Points)]

00003050 00000000 777.05 223.92 400.71 593.68 882.63 480.86 1063.21 485.07 978.14 559.84 908.53 665.17 1065.55 666.77
00003051 DELETE   777.01 223.75 400.68 593.98 882.52 480.83 1063.14 484.98 978.03 559.80 908.39 665.15 1065.56 666.72
00003052 DELETE   793.33 231.59 384.33 576.33 895.66 478.05 1067.55 484.44 983.71 550.75 911.64 653.06 1066.62 657.48
00003053 DELETE   804.76 232.10 379.71 563.74 904.40 460.73 1081.79 467.06 991.07 532.14 914.61 640.56 1073.78 645.68
00003054 00000004 804.77 232.26 379.82 563.45 904.45 460.92 1081.96 466.95 991.16 532.10 914.72 640.65 1073.80 645.52
00003055 00000005 815.74 219.98 372.43 562.76 909.33 451.74 1091.08 453.89 997.06 521.27 921.01 633.66 1084.91 635.65
00003056 00000006 822.70 213.40 374.42 559.11 917.15 447.10 1100.10 447.44 1004.48 513.34 928.12 626.11 1093.34 626.18
00003057 DELETE   822.60 213.81 374.48 559.06 917.02 447.24 1100.08 447.54 1004.53 513.61 927.98 626.20 1093.54 626.37
00003058 00000008 832.94 210.73 370.37 555.46 926.21 439.34 1107.22 443.52 1013.12 506.19 934.85 617.71 1098.22 621.45
00003059 DELETE   832.86 210.54 370.66 555.92 926.27 439.50 1107.20 443.75 1013.03 506.01 934.98 617.90 1098.11 621.63
00003060 00000010 841.91 212.78 365.65 546.36 941.24 435.51 1120.25 446.57 1024.13 506.25 942.57 608.96 1105.14 618.64
00003061 00000011 841.11 200.03 376.91 559.17 949.82 430.59 1132.03 451.10 1036.85 503.57 953.09 599.32 1116.18 616.16
00003062 00000012 841.03 199.61 377.07 559.50 949.89 430.52 1132.07 451.07 1036.95 503.69 953.34 599.38 1116.32 616.25
00003063 00000013 845.03 195.10 379.43 567.22 954.86 430.31 1139.50 451.22 1043.43 504.87 957.49 601.59 1122.22 618.41
00003064 00000014 850.78 200.91 380.63 567.30 959.17 431.38 1147.68 453.53 1048.16 507.25 956.98 605.06 1127.35 623.21
00003065 00000015 850.53 200.40 380.73 567.76 959.06 431.21 1147.68 453.44 1048.08 507.26 956.97 604.98 1127.54 623.17
00003066 00000016 859.21 221.77 374.45 554.32 965.60 435.40 1144.11 459.64 1048.24 508.23 960.02 608.76 1123.92 629.62
00003067 00000017 859.31 220.57 374.54 555.57 965.52 435.16 1144.04 459.33 1048.10 508.29 960.03 608.88 1124.05 629.67
00003068 00000018 862.09 218.87 374.32 563.13 967.37 436.99 1149.20 461.68 1049.99 511.25 961.50 612.01 1129.48 632.95
00003069 00000019 864.31 224.35 372.06 565.06 969.17 443.31 1149.42 468.23 1049.69 518.42 965.19 616.76 1133.43 637.56
00003070 00000020 864.19 225.18 372.25 563.88 969.18 443.25 1149.32 468.22 1049.70 518.51 965.15 616.78 1133.34 637.68
00003071 00000021 864.25 224.12 373.62 569.16 967.85 446.59 1149.70 470.34 1048.13 522.34 965.16 620.92 1134.79 640.56
00003072 00000022 857.69 220.63 378.40 576.50 964.09 444.92 1145.04 469.23 1046.83 522.76 961.57 623.64 1129.73 643.56
00003073 00000023 740.84 302.73 384.01 578.41 804.00 567.19 982.38 562.89 864.02 659.12 821.99 740.21 989.68 735.33
00003074 00000024 738.54 305.84 386.46 574.52 801.81 567.33 978.77 562.00 861.45 660.11 820.71 738.94 988.87 733.24
00003075 00000025 738.87 305.44 384.90 579.86 801.13 569.95 974.27 564.43 857.51 662.32 820.27 742.42 982.66 736.50
00003076 00000026 738.31 302.49 385.70 582.96 800.40 569.76 974.41 563.88 858.05 663.11 820.54 742.95 984.18 736.48
00003077 00000027 738.89 300.90 386.56 589.08 803.82 567.60 975.74 559.00 861.81 661.44 826.12 745.23 986.70 736.84
00003078 DELETE   743.92 296.85 384.05 578.34 805.83 557.38 977.24 546.67 862.05 649.08 827.63 735.85 986.94 725.97
00003079 DELETE   744.10 296.70 383.91 578.28 805.85 557.09 977.48 546.72 862.07 648.85 827.33 735.67 986.85 726.06
00003080 00000030 747.40 279.74 384.92 588.00 808.32 548.19 984.02 536.94 868.99 639.45 830.83 731.49 991.62 721.31
00003081 00000031 747.42 279.85 384.79 587.87 808.31 548.08 984.00 536.89 869.05 639.49 830.68 731.40 991.56 721.29
00003082 00000032 748.50 268.03 381.21 592.29 811.69 542.75 985.22 529.27 871.03 636.90 837.69 724.40 990.87 712.88
00003083 00000033 747.69 281.12 386.37 595.26 814.39 548.57 989.78 534.57 876.37 637.97 839.24 737.10 994.98 724.84
00003084 00000034 747.86 280.49 386.07 596.03 814.53 548.64 989.80 534.68 876.59 638.05 839.16 737.03 995.09 724.84
00003085 00000035 748.98 281.31 388.37 596.48 811.04 552.40 997.33 545.61 879.16 644.05 833.40 735.17 991.19 729.73
00003086 00000036 747.10 293.38 388.02 582.16 811.69 558.44 987.65 547.59 872.64 649.55 834.41 740.84 992.74 731.02
00003087 00000037 746.86 293.54 388.34 582.03 811.65 558.50 987.60 547.37 872.68 649.53 834.30 740.73 992.67 730.66
00003088 00000038 744.14 296.88 388.90 592.88 811.96 563.33 985.28 549.95 873.61 655.63 837.85 745.08 998.14 732.91
00003089 00000039 744.11 295.84 389.15 594.08 811.92 563.61 985.30 550.26 873.62 655.91 837.60 745.21 998.19 733.03
00003090 00000040 743.85 299.18 388.81 587.27 810.79 564.61 984.66 552.17 872.15 658.77 835.13 741.94 999.76 730.22
00003091 00000041 743.94 300.71 390.10 580.18 810.07 564.17 983.61 552.44 871.05 660.36 835.27 741.83 996.76 730.76
00003092 00000042 743.83 300.60 390.16 580.42 810.14 564.17 983.77 552.56 871.14 660.46 835.26 741.80 996.84 730.83
00003093 00000043 745.16 297.93 389.27 583.49 810.66 564.91 984.21 552.76 871.53 661.64 836.65 744.39 995.87 732.98
00003094 00000044 745.52 299.58 389.64 584.88 813.96 565.52 984.22 553.24 875.36 662.34 842.47 746.91 994.98 735.58
00003095 00000045 745.53 299.53 389.49 585.15 814.20 565.52 984.17 553.29 875.50 662.34 842.57 746.84 994.86 735.59
00003096 00000046 745.46 300.50 389.71 589.06 814.21 567.53 984.75 553.92 876.29 665.07 843.23 747.69 999.52 735.09
00003097 00000047 745.52 300.57 389.66 588.93 814.16 567.62 984.60 553.94 876.26 664.92 843.31 747.72 999.38 735.04
00003098 00000048 744.73 303.59 389.77 578.04 812.66 566.62 984.80 555.69 875.05 664.17 839.91 744.49 997.33 734.17
00003099 00000049 746.74 302.12 386.69 575.54 811.36 565.94 983.74 553.29 874.41 659.71 839.47 742.10 996.51 730.30
00003100 00000050 746.97 301.81 386.51 575.81 811.30 566.03 983.67 553.52 874.09 659.80 839.34 742.01 996.47 730.33
00003101 DELETE   747.66 300.49 386.45 574.65 817.78 565.03 987.27 550.09 884.19 652.96 848.01 738.23 1002.80 724.69
00003102 DELETE   743.37 295.83 394.05 571.06 819.12 557.94 992.22 530.46 895.84 644.55 856.00 733.89 1014.83 710.28
00003103 00000053 743.33 295.97 394.12 570.86 819.00 558.08 992.13 530.45 895.82 644.46 856.07 733.98 1014.89 710.23
00003104 00000054 742.15 288.56 398.51 577.07 821.95 549.28 997.80 518.53 905.98 641.51 863.31 732.19 1024.75 705.21
00003105 00000055 742.47 288.42 398.38 577.46 822.12 549.08 998.14 518.45 906.10 641.39 863.48 732.16 1024.97 705.26
00003106 00000056 742.34 288.44 398.24 576.79 823.56 544.66 998.83 510.69 910.35 636.88 868.93 732.13 1027.20 701.95
00003107 00000057 741.94 290.83 398.41 574.77 822.78 543.86 997.86 508.79 910.09 634.78 868.45 729.29 1030.42 698.19
00003108 00000058 742.07 290.55 398.31 575.17 822.77 543.93 997.55 508.89 909.76 634.94 868.46 729.28 1030.36 698.21
00003109 00000059 742.41 291.34 396.80 575.85 821.37 544.74 996.85 509.30 908.70 636.27 863.60 724.39 1033.09 693.19
00003110 00000060 742.58 291.80 398.30 577.63 820.87 546.67 997.74 510.81 907.41 639.47 865.46 730.99 1032.03 699.35
00003111 00000061 742.34 291.87 398.61 577.86 820.84 546.55 997.65 510.50 907.38 639.10 865.50 730.90 1032.21 699.12
00003112 00000062 742.98 294.67 400.96 577.23 824.10 548.19 1003.58 513.48 912.76 641.90 868.83 735.60 1034.80 704.95
00003113 00000063 742.91 295.75 400.60 575.98 824.00 548.09 1003.54 513.24 912.84 642.05 868.94 735.65 1034.84 704.97
00003114 00000064 742.77 293.91 401.58 578.12 824.50 548.32 1005.77 515.40 913.87 643.59 868.04 736.10 1035.35 706.95
00003115 00000065 743.09 292.50 402.08 578.28 824.86 548.29 1006.14 516.19 913.88 643.67 867.94 735.28 1035.22 706.85
00003116 00000066 743.23 292.02 402.08 578.66 824.90 548.68 1006.17 516.13 913.85 643.55 868.15 735.37 1035.37 706.59
00003117 00000067 742.97 293.64 402.25 575.72 824.12 549.35 1005.13 516.57 913.05 643.10 866.56 733.33 1035.74 704.60
00003118 00000068 742.79 294.44 401.94 575.70 824.27 548.41 1004.55 517.15 912.27 642.17 865.00 732.32 1033.61 704.97
00003119 00000069 742.54 294.53 402.08 575.94 824.20 548.04 1004.59 517.09 912.47 642.22 864.84 732.18 1033.91 705.14
00003120 00000070 742.20 294.80 401.52 578.82 825.76 547.39 1005.57 517.50 912.84 640.65 866.80 733.78 1033.21 707.35
00003121 00000071 742.19 295.37 401.59 578.33 825.71 547.25 1005.52 517.12 912.89 640.69 866.79 733.83 1033.24 707.20
00003122 00000072 743.03 298.13 401.08 582.08 825.08 550.23 1007.08 519.99 912.17 642.22 864.26 734.40 1038.39 707.96
00003123 00000073 744.97 306.08 395.06 587.44 830.52 555.53 1007.92 529.22 913.85 645.69 863.70 737.39 1036.39 714.74
00003124 00000074 744.84 306.25 395.24 587.34 830.56 555.40 1007.79 529.26 913.83 645.61 863.74 737.26 1036.26 714.78
00003125 00000075 743.48 304.97 398.48 582.86 828.47 556.84 1007.34 529.99 912.31 647.76 864.23 739.14 1034.48 715.88
00003126 00000076 742.88 301.05 401.13 578.94 826.36 553.33 1008.14 527.91 911.12 647.23 863.36 739.12 1030.86 717.05
00003127 00000077 742.88 299.87 401.15 580.02 826.32 553.30 1008.26 528.26 911.06 647.39 863.33 739.22 1030.86 717.41
00003128 00000078 742.18 298.81 402.30 575.41 825.00 551.27 1006.61 525.95 910.48 645.51 863.02 736.76 1029.18 714.70
00003129 00000079 742.41 299.12 402.25 575.14 825.00 551.24 1006.76 525.96 910.23 645.41 863.06 736.90 1029.09 714.85
00003130 00000080 742.76 297.42 402.03 575.86 824.59 549.65 1006.65 523.99 909.98 644.91 862.78 735.82 1029.46 713.29
00003131 00000081 743.26 297.52 400.70 579.81 827.12 547.01 1008.06 522.67 911.70 644.65 864.29 736.76 1028.30 715.13
00003132 00000082 743.35 297.55 400.39 579.68 826.99 546.89 1007.90 522.65 911.42 644.49 864.25 736.78 1028.34 715.21
00003133 00000083 742.79 295.65 400.89 580.80 826.64 546.50 1007.65 521.37 912.20 645.01 864.31 736.62 1028.73 714.15
00003134 00000084 742.78 296.13 401.34 578.54 825.67 546.91 1007.24 520.86 911.87 644.85 864.00 736.06 1029.60 712.84
00003135 00000085 743.18 296.47 400.81 577.79 825.80 546.90 1007.48 520.97 911.65 644.91 863.92 736.12 1029.35 713.01
00003136 00000086 743.09 293.75 401.00 582.79 827.53 547.64 1008.87 521.71 912.67 645.29 867.06 739.64 1028.76 716.44
00003137 00000087 743.37 293.62 400.71 582.87 827.74 547.84 1009.05 521.87 912.80 645.24 867.24 739.62 1029.16 716.36
00003138 00000088 745.40 293.01 400.49 581.23 827.98 548.56 1010.54 522.89 912.92 643.27 865.85 736.76 1031.66 714.00
00003139 00000089 747.62 289.52 398.69 592.27 830.38 545.54 1013.59 521.45 914.49 638.97 867.28 737.19 1034.45 715.64
00003140 00000090 747.72 289.53 398.67 592.32 830.41 545.48 1013.69 521.36 914.52 638.96 867.26 737.18 1034.50 715.62
00003141 00000091 756.23 290.03 389.80 615.02 839.59 534.93 1021.86 516.88 921.08 635.00 866.88 735.80 1040.66 719.63
00003142 00000092 760.85 275.80 390.31 637.05 840.67 532.08 1022.55 519.85 919.40 629.61 867.21 739.63 1042.17 727.82
00003143 00000093 760.77 275.70 390.37 637.18 840.66 532.10 1022.55 519.88 919.46 629.64 867.20 739.63 1042.19 727.83
00003144 00000094 763.38 273.99 392.11 622.99 845.31 534.93 1026.08 523.92 931.07 636.31 875.25 737.39 1042.36 726.82
00003145 00000095 763.39 273.97 392.08 622.94 845.26 534.96 1026.12 523.93 931.06 636.34 875.19 737.39 1042.37 726.81
00003146 00000096 763.31 277.29 392.49 609.79 842.43 537.70 1024.45 521.75 933.50 638.37 884.10 741.60 1036.65 728.40
00003147 00000097 760.07 264.00 402.36 619.59 847.26 535.25 1032.37 519.42 935.66 638.74 889.73 738.22 1040.94 725.51
00003148 00000098 760.10 263.81 402.37 619.83 847.23 535.19 1032.42 519.36 935.68 638.80 889.63 738.32 1040.96 725.62
00003149 00000099 764.92 279.10 392.45 601.37 849.94 533.30 1030.80 521.68 943.85 635.68 893.10 740.62 1032.69 731.55
00003150 00000100 767.83 279.89 391.90 603.85 853.86 532.90 1034.40 520.98 948.54 633.44 896.67 742.07 1035.85 732.74
00003151 00000101 767.87 280.50 391.94 603.22 853.88 532.77 1034.55 520.81 948.54 633.44 896.65 742.04 1035.80 732.69
00003152 00000102 771.27 278.59 389.07 618.71 858.83 530.40 1036.34 518.88 949.36 625.41 893.07 734.51 1051.16 723.99
00003153 00000103 771.17 278.60 389.17 618.83 858.86 530.36 1036.32 518.86 949.40 625.38 893.10 734.53 1051.20 724.00
00003154 00000104 772.87 282.24 388.88 608.92 859.47 529.69 1036.73 519.17 948.60 627.22 892.20 728.18 1055.24 718.34
00003155 00000105 773.20 283.43 390.87 590.99 860.55 531.13 1037.00 522.23 953.33 629.07 893.99 723.77 1046.78 716.44
00003156 00000106 773.13 283.33 390.96 591.18 860.55 531.20 1036.98 522.14 953.57 628.98 894.01 723.85 1046.81 716.41
00003157 00000107 772.34 283.30 393.84 590.59 862.48 531.05 1040.29 525.99 955.24 632.69 898.30 731.05 1038.23 727.00
00003158 00000108 773.58 280.68 394.09 590.55 861.88 531.08 1041.80 524.42 957.40 632.37 902.21 733.15 1041.32 727.72
00003159 00000109 773.75 280.53 393.81 591.05 861.83 531.12 1041.70 524.25 957.35 632.34 902.10 733.42 1041.18 727.82
00003160 00000110 775.14 279.64 391.02 600.66 862.50 529.67 1043.28 521.75 958.65 630.17 903.79 739.23 1040.55 733.23
00003161 00000111 775.41 279.89 390.77 600.42 862.58 529.76 1043.30 521.66 958.79 630.05 903.74 739.28 1040.72 733.16
00003162 00000112 777.56 287.43 384.96 598.00 867.58 536.81 1039.34 527.46 952.78 623.67 898.42 728.69 1050.63 720.36
00003163 00000113 777.69 294.50 383.07 585.22 868.92 535.96 1042.81 528.72 955.41 622.70 894.98 719.59 1055.09 713.02
00003164 00000114 777.66 294.34 383.09 585.44 868.86 536.08 1042.74 528.81 955.47 622.72 895.05 719.56 1055.28 712.95
00003165 00000115 776.64 284.54 387.77 585.05 865.79 524.94 1042.97 520.05 954.90 617.25 890.50 712.95 1049.53 708.45
00003166 00000116 775.13 283.18 388.45 585.89 864.04 518.64 1042.98 513.84 954.47 613.97 890.15 710.62 1048.50 705.92
00003167 00000117 775.31 282.95 388.27 586.20 863.89 518.99 1043.14 513.91 954.42 614.10 890.00 710.63 1048.80 705.75
00003168 00000118 777.02 281.81 386.54 591.25 864.70 515.45 1045.78 510.64 954.13 610.49 888.58 705.71 1052.40 700.79
00003169 00000119 776.99 281.52 386.49 591.62 864.67 515.55 1045.70 510.64 954.25 610.46 888.62 705.70 1052.49 700.69
00003170 00000120 777.85 280.61 386.04 596.04 865.51 515.75 1047.10 510.24 954.50 610.04 888.86 704.79 1057.41 699.08
00003171 00000121 777.76 278.63 387.10 601.17 867.75 517.72 1046.95 512.61 956.91 610.30 890.48 703.75 1061.22 697.99
00003172 00000122 777.77 278.66 387.08 601.17 867.77 517.74 1046.94 512.63 956.95 610.26 890.47 703.71 1061.22 697.93
00003173 00000123 781.31 283.10 381.65 596.35 872.38 525.42 1046.84 517.19 956.53 608.67 891.80 701.75 1062.84 694.00
00003174 00000124 780.13 278.17 386.56 597.55 871.09 520.39 1047.04 514.75 958.89 610.03 892.50 698.49 1064.47 692.28
00003175 00000125 780.11 278.25 386.57 597.56 871.08 520.37 1047.09 514.72 958.92 609.97 892.47 698.52 1064.48 692.29
00003176 00000126 779.85 281.47 390.33 587.83 871.83 517.42 1049.72 512.15 962.16 608.45 893.45 695.33 1064.18 689.56
00003177 00000127 779.99 281.37 390.10 588.07 871.85 517.46 1049.75 512.14 962.20 608.45 893.52 695.44 1064.22 689.60
00003178 00000128 783.27 286.66 388.29 589.50 873.51 517.11 1051.26 512.56 962.51 609.28 894.49 699.11 1066.26 694.23
00003179 00000129 786.51 289.19 389.25 594.47 877.75 515.25 1055.73 509.32 966.38 608.16 900.55 706.74 1070.55 700.72
00003180 00000130 786.44 289.08 389.39 594.85 877.79 515.31 1055.80 509.42 966.48 608.10 900.59 706.76 1070.71 700.82
00003181 00000131 794.69 279.74 387.88 583.75 885.57 515.21 1064.26 508.49 976.23 607.66 912.96 714.39 1058.48 709.01
00003182 00000132 794.73 279.82 387.91 583.66 885.51 515.16 1064.24 508.41 976.20 607.69 912.97 714.41 1058.56 708.98
00003183 00000133 799.55 270.98 384.66 582.90 886.22 516.31 1072.01 508.80 980.79 609.67 914.38 719.21 1065.89 713.65
00003184 00000134 801.50 275.44 385.52 583.48 891.91 512.77 1075.29 507.10 982.98 604.32 916.99 713.88 1067.11 709.07
00003185 00000135 801.54 274.70 385.78 584.01 891.94 512.70 1075.28 507.14 982.83 604.38 917.14 713.76 1067.20 708.98
00003186 00000136 800.62 272.90 386.74 590.46 893.52 511.60 1075.15 509.06 981.46 603.25 912.69 707.59 1069.54 705.35
00003187 00000137 802.08 270.86 385.23 588.75 892.74 511.24 1075.13 508.16 980.28 600.62 911.47 705.24 1071.03 702.63
00003188 00000138 802.08 271.80 384.95 587.63 892.82 511.27 1075.23 508.33 980.37 600.86 911.09 704.95 1070.98 702.44
00003189 00000139 800.89 270.18 386.37 583.98 890.59 512.08 1072.62 505.72 980.98 604.06 916.53 711.12 1067.16 705.59
00003190 00000140 801.06 270.25 386.06 583.68 890.52 512.10 1072.49 505.82 980.91 604.26 916.43 711.00 1067.11 705.57
00003191 00000141 803.91 271.23 386.63 582.09 889.83 516.78 1068.42 509.76 977.18 609.12 921.19 717.45 1060.35 711.34
00003192 00000142 800.31 282.43 383.56 575.87 889.84 528.46 1060.85 520.00 973.98 617.38 925.44 725.68 1047.66 719.65
00003193 00000143 800.16 282.18 383.68 576.16 889.84 528.35 1061.02 520.06 974.18 617.24 925.28 725.59 1047.73 719.65
00003194 00000144 796.98 268.43 389.45 599.53 886.39 524.83 1065.33 516.04 979.43 620.67 921.96 729.34 1060.28 722.57
00003195 00000145 791.40 271.05 393.02 598.91 884.72 521.26 1065.77 513.05 980.53 617.71 919.58 727.33 1061.96 720.63
00003196 00000146 792.15 272.75 391.00 596.14 885.16 521.75 1066.40 512.77 980.30 616.93 919.31 727.17 1062.21 719.92
00003197 00000147 788.88 274.13 392.96 591.84 883.93 520.72 1061.83 513.55 979.23 619.58 920.20 725.51 1056.37 719.46
00003198 00000148 789.27 273.63 392.62 592.10 883.92 520.68 1062.07 513.43 979.31 619.66 920.17 725.57 1056.70 719.44
00003199 00000149 789.70 271.15 391.16 597.85 883.57 526.18 1060.36 517.24 978.75 625.70 924.83 732.68 1055.68 725.00
00003200 00000150 787.00 274.45 392.40 599.40 880.84 529.86 1058.62 523.08 975.45 633.25 923.00 739.82 1051.97 733.83
00003201 00000151 787.00 275.13 392.33 598.69 880.92 529.80 1058.65 523.10 975.44 633.31 922.97 739.71 1051.97 733.77
00003202 00000152 786.49 271.71 392.66 603.64 879.37 530.54 1057.07 521.85 974.96 632.77 925.32 742.26 1052.20 734.93
00003203 00000153 788.68 273.00 390.35 604.95 878.64 532.12 1058.97 524.53 971.74 636.12 916.83 741.14 1056.09 734.27
00003204 00000154 788.78 272.74 390.23 605.35 878.61 532.22 1059.12 524.60 971.69 636.29 916.71 741.26 1056.28 734.38
00003205 DELETE   789.21 296.81 387.98 589.19 879.89 547.40 1055.18 538.83 968.26 648.40 918.37 751.14 1056.74 743.72
00003206 DELETE   789.19 296.67 387.95 589.55 879.89 547.39 1055.19 538.82 968.22 648.46 918.30 751.18 1056.66 743.76
00003207 00000157 778.66 308.49 395.77 589.33 866.75 560.54 1044.04 551.71 952.82 672.51 910.12 766.71 1048.12 758.95
00003208 00000158 775.85 306.75 396.30 592.16 862.87 560.24 1041.19 553.74 946.96 673.07 901.86 768.14 1039.24 762.54
00003209 00000159 775.77 306.80 396.42 592.23 862.93 560.17 1041.19 553.80 946.95 673.15 901.79 768.06 1039.13 762.57
00003210 00000160 784.05 298.15 390.35 594.81 876.40 554.17 1053.73 553.23 960.56 665.45 910.16 762.55 1042.31 761.63
00003211 00000161 786.14 296.83 390.33 591.35 875.31 553.29 1054.46 546.90 963.26 660.89 913.97 759.12 1050.86 753.28
00003212 00000162 786.51 296.88 389.88 591.20 875.33 553.41 1054.57 546.98 963.17 660.98 913.89 759.14 1050.93 753.26
00003213 DELETE   776.39 302.19 398.24 600.98 868.72 561.97 1051.08 555.55 957.91 678.21 913.71 772.91 1052.74 766.87
00003214 DELETE   776.42 302.07 398.19 601.14 868.73 562.09 1051.00 555.64 957.78 678.16 913.78 772.90 1052.81 766.82
CROP_BBOX: 424 0 1544 1080
