Video ID: 	ALY0Q93zWWI
H: 	1080
W: 	1920
FPS: 	23.976023976023978

FRAME INDEX X0 Y0 W H [Landmarks (5 Points)]

00033803 00000000 498.81 74.46 362.55 537.39 653.47 329.63 780.11 293.35 782.55 376.26 715.30 498.05 816.90 468.63
00033804 00000001 507.31 75.62 356.62 529.40 656.14 329.56 787.93 293.43 791.80 375.21 722.26 496.77 827.70 467.07
00033805 00000002 513.62 79.72 351.90 530.56 655.78 334.29 795.72 292.73 792.86 383.28 719.97 502.70 833.55 468.23
00033806 DELETE   516.12 80.07 354.18 552.80 660.71 346.38 800.32 307.94 791.71 402.37 710.34 513.90 832.00 482.91
00033807 DELETE   520.53 86.93 359.61 560.70 680.23 353.73 818.39 319.05 811.12 419.57 718.84 528.12 837.83 501.05
00033808 00000005 527.39 87.15 364.48 566.13 700.83 368.55 841.19 330.56 836.89 441.71 739.41 544.48 854.44 513.57
00033809 00000006 542.03 97.22 362.13 541.05 718.18 376.08 854.80 344.93 853.38 442.61 767.07 545.24 871.41 519.81
00033810 00000007 546.64 98.11 368.49 540.16 741.34 385.65 869.72 349.55 887.44 447.86 794.40 558.16 887.11 528.42
00033811 00000008 565.33 92.59 355.49 563.97 763.82 384.36 876.53 340.53 907.05 451.92 806.48 563.76 888.77 529.41
00033812 00000009 561.61 91.31 356.42 579.08 760.12 379.56 872.33 335.85 905.09 449.60 793.79 562.42 876.72 529.57
00033813 DELETE   547.95 94.66 364.73 573.46 741.18 369.42 859.11 330.99 879.71 443.17 785.16 554.15 870.21 523.89
00033814 DELETE   539.33 93.83 368.68 568.35 734.68 369.34 857.09 330.89 869.38 440.78 777.04 548.09 867.21 517.64
00033815 00000012 545.87 83.34 366.92 571.93 727.18 365.19 854.72 318.24 865.50 425.79 779.60 540.92 879.20 503.09
00033816 00000013 550.52 81.16 362.30 561.40 726.95 362.04 854.97 316.10 865.61 421.40 785.56 536.63 883.08 499.37
00033817 00000014 550.27 80.02 366.41 560.88 729.58 364.59 856.31 315.62 867.92 421.70 789.08 537.80 885.61 497.78
00033818 00000015 549.62 84.44 366.88 560.42 729.49 367.85 858.24 322.43 869.35 426.35 788.17 542.54 884.86 505.35
00033819 00000016 548.80 87.10 367.99 558.96 732.25 367.01 859.35 323.26 871.45 428.53 788.21 542.95 884.06 507.17
00033820 00000017 551.45 83.82 365.24 559.77 733.82 362.61 857.68 320.09 872.16 425.03 788.65 538.87 884.61 504.28
00033821 00000018 552.16 81.24 363.95 564.17 730.65 357.42 853.35 313.32 868.08 417.99 785.52 534.23 881.00 498.59
00033822 00000019 553.21 80.50 358.92 560.82 725.81 347.59 848.33 307.45 859.80 405.55 779.82 523.68 876.66 491.84
00033823 00000020 553.52 76.92 357.06 551.78 722.41 337.03 845.50 299.30 852.68 395.95 778.77 515.09 870.47 485.29
00033824 00000021 551.05 69.43 354.34 544.81 717.86 337.10 850.12 294.63 851.60 398.32 775.93 510.24 879.91 476.64
00033825 00000022 550.66 67.14 353.49 538.97 716.17 334.13 851.74 293.01 852.22 393.50 773.27 504.76 880.31 472.09
00033826 00000023 547.40 67.96 358.90 532.84 718.19 330.13 850.57 289.23 856.07 383.72 777.80 501.43 879.84 469.44
00033827 00000024 545.61 68.36 360.16 531.80 718.33 321.90 850.05 283.27 857.59 375.01 777.46 494.73 879.22 464.85
00033828 00000025 543.07 66.35 366.24 525.34 718.87 317.99 851.72 277.20 863.68 369.99 782.16 488.93 886.09 456.60
00033829 00000026 544.84 72.49 366.34 512.50 714.25 316.35 849.08 272.73 860.75 364.15 784.78 484.20 890.70 448.96
00033830 00000027 539.56 65.20 368.17 522.14 711.41 312.56 847.42 270.49 857.29 362.79 782.98 485.39 888.75 451.39
00033831 00000028 532.83 63.24 371.78 527.23 710.37 308.16 845.14 273.29 852.19 361.87 774.00 482.96 877.87 455.29
00033832 00000029 532.89 55.70 362.10 539.14 703.59 301.23 836.33 266.92 844.04 357.30 764.53 482.05 866.02 455.00
00033833 00000030 531.09 52.83 362.43 552.49 701.82 300.32 831.88 266.07 840.52 359.00 760.16 486.28 860.04 459.82
00033834 00000031 530.66 59.73 361.86 547.00 702.33 300.24 830.21 270.25 841.23 359.92 759.35 485.51 859.44 462.52
00033835 00000032 525.02 71.38 370.40 537.53 702.09 309.03 834.71 273.45 846.02 371.27 760.68 488.56 867.33 460.73
00033836 DELETE   533.84 71.35 368.76 534.64 711.95 335.99 842.49 291.11 853.85 390.60 768.67 499.77 874.89 464.18
00033837 DELETE   541.94 83.24 370.38 539.76 719.00 349.00 843.51 308.59 856.98 401.80 785.71 519.73 877.09 486.72
00033838 00000035 548.79 100.27 366.90 541.51 723.95 368.83 865.09 324.22 872.43 443.31 783.39 552.46 887.53 515.90
00033839 00000036 561.30 105.94 346.35 568.31 743.61 396.42 865.37 350.45 885.34 470.69 779.23 576.32 864.87 541.60
00033840 00000037 570.37 120.92 341.19 569.08 755.36 412.64 870.48 370.43 889.03 489.05 773.95 587.75 857.72 557.15
00033841 00000038 572.92 125.09 341.65 575.84 761.55 426.39 876.25 378.87 894.63 499.29 779.15 600.06 864.23 565.55
00033842 00000039 574.56 128.51 341.12 580.16 761.03 427.28 880.23 380.44 894.14 504.60 775.40 602.23 866.95 567.99
00033843 00000040 573.18 127.80 343.06 582.42 756.98 429.47 876.58 382.96 887.34 503.52 773.35 599.95 870.91 564.94
00033844 00000041 567.69 130.13 357.40 586.19 755.08 415.31 865.11 380.37 878.84 497.92 772.28 593.13 860.78 567.25
00033845 00000042 583.86 124.92 338.13 595.99 750.75 418.47 881.32 384.27 886.53 502.52 767.79 588.23 875.81 565.32
00033846 00000043 589.57 123.57 333.97 602.23 753.28 421.73 882.55 385.70 888.55 502.88 764.40 586.38 878.33 562.07
00033847 00000044 573.27 128.42 358.79 605.92 761.79 419.07 867.72 377.77 892.88 496.55 765.06 592.43 862.81 562.33
00033848 00000045 573.29 123.98 360.27 609.48 761.84 413.48 873.10 376.39 894.39 492.62 766.80 590.38 867.60 563.31
00033849 00000046 572.74 122.30 360.96 605.34 758.38 407.44 873.40 374.15 888.86 484.05 769.01 584.40 870.71 559.55
00033850 00000047 576.68 121.12 344.57 596.40 748.64 417.84 876.36 370.11 883.73 488.34 758.23 588.59 873.21 552.37
00033851 00000048 574.31 120.28 345.97 590.09 748.46 414.33 874.74 367.55 882.12 487.81 762.86 585.87 874.38 550.00
00033852 00000049 575.34 119.40 345.25 585.17 748.07 414.03 874.24 369.98 878.32 489.41 768.81 587.42 875.87 553.17
00033853 00000050 575.90 117.97 346.82 583.93 749.73 418.41 874.67 370.26 880.30 490.50 772.96 589.99 878.49 552.35
00033854 00000051 575.64 119.01 346.20 576.69 748.56 414.41 874.66 368.93 878.11 487.26 775.04 587.93 878.31 552.31
00033855 00000052 569.96 110.39 351.83 577.86 748.82 409.27 870.85 361.86 881.84 480.45 777.84 583.89 875.80 546.98
00033856 00000053 565.65 103.46 354.61 579.70 742.09 405.96 868.15 358.26 876.45 474.91 778.81 579.97 878.90 542.27
00033857 00000054 562.96 106.89 353.29 572.33 737.30 403.26 866.29 355.57 874.24 472.74 776.18 576.62 877.71 538.86
00033858 00000055 560.62 108.58 353.39 571.28 736.19 403.53 863.89 356.40 871.59 473.71 774.09 574.64 875.87 537.20
00033859 00000056 557.86 108.67 354.45 568.80 736.90 400.75 864.60 356.67 870.97 473.53 774.04 572.68 874.76 537.56
00033860 00000057 555.78 110.22 355.83 562.78 729.47 399.12 862.93 354.29 865.59 471.50 770.66 569.19 876.02 533.17
00033861 00000058 548.56 103.39 359.64 568.96 720.53 394.34 856.84 349.81 858.87 467.32 769.02 564.68 876.60 528.22
00033862 00000059 545.06 100.58 357.12 569.25 724.91 396.47 849.66 353.72 856.51 468.05 768.53 561.76 868.40 526.97
00033863 00000060 543.37 102.37 357.84 567.41 722.56 401.24 845.62 358.30 854.55 466.87 765.25 560.44 865.54 525.84
00033864 00000061 543.85 102.95 353.89 569.06 715.47 402.22 841.74 360.89 847.91 468.25 760.57 559.86 863.82 526.56
00033865 00000062 540.61 110.13 353.99 565.54 704.27 399.90 839.81 363.10 834.71 471.60 752.33 562.45 860.55 532.65
00033866 00000063 528.33 115.73 358.01 572.55 696.49 423.15 827.65 371.91 822.70 492.52 728.63 587.00 842.93 544.67
00033867 00000064 521.36 125.88 351.13 573.18 668.99 430.40 807.92 378.78 787.78 497.14 701.23 588.00 826.19 544.67
00033868 00000065 506.15 131.34 367.44 568.22 635.73 412.24 780.89 380.11 750.10 490.76 681.47 579.59 802.29 553.57
00033869 00000066 498.85 132.08 364.57 570.96 623.00 420.80 776.57 392.36 730.54 497.01 660.77 580.05 794.71 555.86
00033870 00000067 503.83 135.66 362.33 568.21 617.29 418.30 773.87 399.15 719.08 500.39 652.53 578.13 789.65 561.63
00033871 DELETE   515.12 139.09 357.07 567.95 626.96 425.16 781.63 403.79 729.04 505.06 658.05 581.15 796.39 562.59
00033872 00000069 533.09 154.60 364.73 547.46 648.01 423.06 806.61 411.10 750.25 512.68 675.36 583.51 814.17 574.07
00033873 00000070 543.58 141.91 364.13 565.07 686.01 426.13 833.93 410.65 797.25 513.39 711.97 590.25 839.05 578.41
00033874 DELETE   558.10 144.13 361.07 575.86 717.16 425.54 858.67 404.52 836.49 515.01 743.00 596.47 858.08 580.65
00033875 00000072 576.15 145.21 357.03 560.49 750.41 437.54 878.58 395.72 877.14 511.24 772.85 602.47 868.33 570.59
00033876 00000073 585.85 135.79 351.61 566.49 778.44 441.83 898.87 390.08 910.12 518.61 797.62 614.65 893.62 574.33
00033877 00000074 594.44 141.47 344.58 545.22 796.06 434.12 904.07 393.10 924.69 516.94 817.44 620.15 894.29 588.71
00033878 00000075 588.30 140.95 347.53 545.47 784.67 437.28 895.89 385.20 921.18 508.53 820.20 619.45 898.54 578.91
00033879 00000076 575.79 136.91 348.38 550.81 772.89 438.27 884.57 383.03 913.41 501.71 810.83 614.67 891.42 572.31
00033880 00000077 560.85 136.32 350.88 551.92 754.19 434.54 870.48 388.07 889.50 503.02 797.76 613.46 880.82 577.22
00033881 00000078 540.93 133.08 349.43 557.84 716.09 433.45 847.70 392.09 853.69 497.57 765.02 598.65 859.46 566.83
00033882 00000079 514.69 137.53 367.10 572.24 681.39 446.05 817.93 394.66 814.00 504.67 731.87 611.97 837.82 569.62
00033883 00000080 490.09 159.12 363.59 557.00 645.23 453.41 783.48 403.68 772.46 520.60 695.15 614.00 801.50 575.60
00033884 00000081 470.10 174.19 376.07 547.24 613.98 455.63 762.88 410.38 734.21 531.29 674.51 615.72 787.14 580.66
00033885 00000082 467.41 179.15 377.50 546.30 611.13 463.95 757.46 421.12 727.13 540.07 670.88 620.68 783.03 587.39
00033886 00000083 473.40 187.78 372.62 543.35 619.80 470.27 769.14 430.10 738.05 546.51 676.54 629.27 785.37 597.71
00033887 00000084 487.47 180.77 363.30 557.04 648.07 482.58 789.85 429.64 777.70 551.82 698.54 640.49 804.37 597.67
00033888 00000085 507.00 172.20 367.71 562.83 683.67 484.09 822.74 423.89 819.47 549.58 731.58 654.05 833.11 604.28
00033889 00000086 529.12 155.73 364.51 567.58 718.39 463.00 846.29 418.82 854.88 541.03 761.16 643.18 855.55 606.84
00033890 00000087 547.27 163.92 348.30 546.57 732.59 455.18 849.36 408.63 876.76 525.60 786.75 635.91 857.72 599.67
00033891 00000088 557.35 158.08 345.50 559.18 738.23 453.57 856.04 404.49 881.89 528.72 790.10 637.23 861.17 599.26
00033892 00000089 548.92 163.92 352.02 562.38 729.36 451.75 854.83 410.23 870.46 531.00 775.60 633.84 856.36 601.49
00033893 00000090 546.89 161.74 353.69 565.59 715.35 450.79 854.82 414.03 851.21 534.22 761.77 626.49 856.44 597.62
00033894 00000091 547.72 155.99 353.55 572.12 711.09 443.98 852.33 413.63 842.79 531.56 756.87 623.43 857.88 599.51
00033895 00000092 548.12 152.27 355.18 565.25 706.78 438.19 852.18 405.59 840.38 528.75 757.00 622.54 859.57 597.26
00033896 00000093 550.57 142.76 355.25 572.71 704.47 434.56 850.69 397.67 841.00 521.19 754.85 613.55 863.71 586.17
00033897 00000094 558.29 136.98 354.65 575.70 713.65 437.07 858.94 393.94 845.61 511.85 758.39 603.58 881.36 568.28
00033898 00000095 557.38 126.56 359.50 572.37 728.08 429.04 866.03 378.05 866.71 495.33 772.53 594.25 886.16 552.43
00033899 00000096 564.05 114.80 354.65 565.71 739.16 418.09 871.85 366.07 876.27 485.80 781.99 586.18 886.32 543.92
00033900 00000097 570.86 110.13 351.22 568.51 746.56 412.11 872.43 357.99 888.59 471.26 788.41 581.17 890.15 538.48
00033901 00000098 568.04 101.56 356.21 568.96 751.26 396.18 875.02 345.13 890.56 461.44 790.15 569.05 887.99 528.59
00033902 00000099 560.20 97.04 361.34 569.88 749.88 386.31 872.74 341.69 885.29 455.22 791.21 562.32 885.56 526.35
00033903 00000100 552.31 95.75 365.52 567.52 738.64 380.60 865.96 335.32 877.90 445.57 780.75 553.48 880.70 517.12
00033904 00000101 545.32 92.13 367.56 567.81 732.88 373.11 859.79 339.84 866.68 439.50 776.32 547.62 874.06 520.59
00033905 00000102 546.26 96.22 365.43 566.94 722.02 372.36 856.51 337.39 856.93 442.46 767.16 546.76 874.56 518.22
00033906 00000103 541.86 97.14 363.39 565.42 716.10 368.85 851.29 335.97 850.49 445.34 761.52 545.33 869.97 518.75
00033907 00000104 539.59 94.97 358.23 564.50 703.96 368.23 847.42 334.52 841.75 440.31 754.38 543.59 868.33 516.30
00033908 00000105 521.89 91.74 367.90 569.89 702.02 374.40 840.93 331.13 842.14 437.83 746.31 550.19 861.64 514.68
00033909 00000106 517.33 100.13 366.15 560.07 687.49 376.05 830.40 328.46 825.50 440.34 733.80 552.46 851.47 513.50
00033910 00000107 513.09 101.58 364.56 560.93 681.28 379.51 824.62 331.28 818.71 443.21 723.45 554.57 843.60 515.38
00033911 00000108 511.71 103.13 360.09 560.59 672.45 382.34 815.42 333.16 807.31 445.47 716.02 556.45 836.34 516.47
00033912 00000109 509.14 105.43 357.96 556.06 666.79 382.68 809.07 338.41 798.96 447.02 711.68 556.36 828.59 520.59
00033913 00000110 505.60 109.96 355.69 552.19 659.93 383.42 803.00 341.75 790.96 448.15 706.22 554.95 823.18 521.19
00033914 00000111 501.12 109.79 355.37 555.63 652.94 384.46 795.46 344.65 779.48 453.73 696.34 554.50 814.38 522.12
00033915 00000112 497.84 108.83 354.35 553.80 645.91 384.03 788.95 347.43 770.20 452.31 690.14 550.88 809.08 520.99
00033916 00000113 495.19 114.14 355.20 543.06 637.93 383.65 783.79 347.97 762.17 452.64 686.75 550.51 805.87 521.24
00033917 00000114 493.63 110.42 353.80 549.69 633.32 383.27 778.29 347.63 755.40 453.51 683.48 550.62 802.86 521.82
00033918 00000115 489.09 109.68 354.19 550.71 627.93 382.91 775.41 351.63 745.84 457.36 677.97 551.10 797.79 525.70
00033919 00000116 485.31 114.16 356.92 545.72 622.78 382.49 772.64 351.86 739.08 460.48 674.18 551.86 795.06 526.41
00033920 00000117 486.65 119.06 357.44 541.03 616.63 383.38 769.16 354.79 729.05 463.80 668.97 552.43 791.48 528.70
00033921 00000118 487.14 121.75 357.38 539.30 615.77 383.95 770.01 357.47 726.92 464.89 667.10 553.83 789.56 531.72
00033922 00000119 486.16 120.82 358.84 542.77 616.26 385.23 769.97 357.93 728.13 466.18 668.00 554.71 790.66 531.85
00033923 00000120 486.83 119.51 357.83 546.00 616.68 387.48 770.70 357.87 731.34 467.07 669.78 556.46 794.24 531.65
00033924 00000121 485.35 119.34 357.60 551.02 614.70 387.90 767.37 358.65 728.62 467.36 668.41 557.11 791.74 532.67
00033925 00000122 479.31 121.09 362.11 553.50 610.75 387.21 763.61 358.30 726.25 464.22 667.67 558.80 789.76 534.58
00033926 00000123 477.21 120.28 362.00 551.84 608.51 386.62 761.68 356.73 724.00 461.00 666.85 557.20 789.86 532.34
00033927 00000124 476.21 121.32 362.38 548.42 607.81 386.16 761.60 356.13 723.03 459.55 666.72 556.87 789.28 532.10
00033928 00000125 476.02 121.06 361.83 549.22 608.73 386.27 763.09 356.00 724.66 460.16 666.70 557.09 789.43 532.11
00033929 00000126 477.62 121.70 361.36 551.27 610.04 386.58 763.94 356.15 726.26 461.47 666.35 557.59 788.89 532.46
00033930 00000127 479.14 121.81 360.93 551.87 611.79 387.95 764.70 358.82 727.32 463.41 665.36 557.43 787.77 533.20
00033931 00000128 478.90 123.69 362.24 550.98 613.80 387.72 766.06 359.52 729.23 464.95 664.67 556.42 787.48 532.85
00033932 00000129 483.78 122.55 358.39 553.48 615.75 389.36 767.21 361.44 730.57 467.22 662.96 556.35 787.00 533.19
00033933 00000130 488.12 123.24 355.69 553.20 620.52 390.96 771.11 362.87 734.89 469.86 664.03 557.31 787.94 534.26
00033934 00000131 500.36 117.73 346.82 558.91 631.29 391.84 778.17 363.79 744.15 465.99 664.70 554.93 791.94 532.27
00033935 00000132 506.64 113.60 345.46 558.46 642.83 382.10 786.22 358.40 755.43 455.23 675.63 547.80 801.79 528.49
00033936 00000133 515.27 112.64 349.62 555.03 653.17 373.77 800.22 351.59 771.31 445.91 683.09 539.29 814.95 520.88
00033937 00000134 526.33 108.81 349.40 546.03 670.83 368.63 818.84 347.97 792.71 442.69 700.95 535.53 829.91 518.70
00033938 00000135 532.81 108.78 350.41 547.60 692.77 362.50 838.36 340.28 822.76 438.70 720.45 535.88 847.29 517.90
00033939 00000136 540.63 107.45 352.02 554.47 702.92 364.91 849.66 345.50 829.22 445.72 724.58 541.31 850.69 525.79
00033940 00000137 544.72 109.74 352.49 559.08 711.54 367.35 852.09 346.00 834.88 449.64 724.69 540.87 850.39 524.25
00033941 00000138 550.62 109.69 349.11 549.28 706.51 364.90 851.19 350.99 828.26 446.44 729.70 528.01 857.10 516.99
00033942 DELETE   556.51 109.93 349.10 552.90 714.32 366.78 854.58 352.60 834.27 448.51 733.84 528.69 863.30 517.29
00033943 00000140 562.11 112.98 350.82 557.09 725.35 371.69 864.61 358.26 844.02 453.44 739.45 533.42 868.26 522.58
00033944 00000141 577.14 120.93 350.66 551.86 740.93 372.50 878.05 360.13 857.79 450.37 754.60 537.34 876.72 527.61
00033945 00000142 589.17 122.11 355.90 546.43 765.07 373.38 899.94 358.18 887.43 450.18 774.00 540.72 892.19 529.35
00033946 00000143 602.83 113.47 355.96 556.43 786.85 369.84 922.21 353.94 911.44 453.70 792.98 545.35 911.47 533.10
00033947 00000144 605.07 103.68 363.71 562.84 783.43 364.22 924.20 358.35 907.12 450.40 802.41 536.86 916.49 532.96
00033948 00000145 604.99 106.39 363.77 566.37 783.66 366.23 925.72 362.00 906.64 457.60 797.45 540.42 913.68 538.00
00033949 DELETE   602.71 125.93 358.68 554.32 787.01 383.26 922.67 367.22 906.26 471.79 782.56 554.68 901.35 543.13
00033950 00000147 600.15 137.40 350.88 542.53 765.27 390.06 906.72 371.69 883.10 470.46 766.58 552.39 895.17 538.69
00033951 00000148 590.29 142.28 337.82 543.54 740.67 397.76 879.73 379.46 853.51 474.86 749.33 553.15 877.76 538.51
00033952 00000149 570.98 129.85 346.69 565.35 720.16 395.50 863.46 379.06 831.13 481.50 733.86 556.14 865.71 542.17
00033953 00000150 564.51 126.38 354.70 567.69 707.61 394.70 858.70 385.84 815.39 484.37 720.68 555.24 856.71 547.34
00033954 00000151 560.33 128.93 355.29 564.18 704.38 398.12 853.02 384.65 813.08 486.43 721.68 556.92 854.52 545.35
00033955 00000152 559.88 131.83 356.13 560.73 707.00 399.07 855.72 385.80 816.36 487.87 724.90 558.80 856.38 547.39
00033956 00000153 566.79 129.13 347.32 558.38 715.88 405.65 861.57 388.61 828.49 487.40 735.79 563.47 860.99 548.96
00033957 00000154 573.98 129.75 341.20 558.85 725.88 415.99 867.18 391.26 842.08 492.92 748.32 572.70 869.35 552.00
00033958 00000155 578.04 132.22 342.82 561.11 734.73 422.22 873.66 392.35 853.52 497.53 758.12 581.40 879.13 556.69
00033959 00000156 582.78 127.03 345.26 571.15 753.88 429.56 884.08 392.82 876.07 498.04 774.95 590.42 889.52 560.05
00033960 00000157 585.85 125.50 350.57 574.71 762.95 435.18 889.25 383.32 889.71 500.10 785.91 596.71 896.50 554.65
00033961 00000158 590.23 127.13 347.27 567.52 766.57 434.16 893.23 383.88 895.39 497.83 793.77 599.24 901.90 558.37
00033962 00000159 581.73 127.25 345.81 564.54 761.91 431.83 886.30 387.12 889.16 494.12 792.69 596.79 896.92 559.96
00033963 00000160 574.93 131.88 346.63 565.59 745.75 426.94 875.94 384.48 872.71 496.46 776.61 592.95 887.45 558.01
CROP_BBOX: 231 0 1190 874
