Video ID: 	T4Wkgh4zYOA
H: 	1080
W: 	1920
FPS: 	25.0

FRAME INDEX X0 Y0 W H [Landmarks (5 Points)]

00000671 00000000 568.35 143.13 532.89 710.51 645.64 459.48 857.79 413.30 732.60 611.47 743.92 723.12 903.78 684.88
00000672 DELETE   564.01 143.82 532.43 712.05 640.06 459.26 851.74 413.19 726.84 614.94 740.03 723.05 901.32 684.59
00000673 00000002 556.00 145.41 540.81 713.21 633.76 459.82 846.54 413.61 720.39 617.71 737.16 726.72 896.98 687.82
00000674 00000003 552.35 148.57 539.77 711.34 628.44 461.61 841.01 414.99 715.84 621.51 733.72 730.20 890.78 690.87
00000675 00000004 548.45 151.64 542.41 708.61 625.77 463.08 839.15 415.94 715.07 623.91 732.60 731.97 888.96 692.32
00000676 DELETE   545.20 150.09 545.70 709.52 623.87 463.86 837.38 416.12 714.33 626.21 732.89 733.82 888.71 693.41
00000677 00000006 544.15 145.67 547.25 715.65 623.20 464.66 837.61 416.21 714.40 625.86 732.73 734.80 889.45 693.83
00000678 00000007 543.38 147.98 549.48 717.67 623.88 465.11 838.95 416.14 714.77 625.38 733.05 735.21 891.42 693.68
00000679 00000008 546.47 148.89 549.37 718.75 626.46 465.53 840.51 415.85 715.81 624.83 735.55 734.52 894.74 692.49
00000680 00000009 537.95 139.38 558.05 722.29 618.47 467.37 844.84 415.52 720.06 623.13 726.35 735.46 901.34 689.56
00000681 00000010 541.86 130.98 555.15 730.66 622.52 465.69 849.70 414.83 723.80 619.75 728.30 736.03 902.71 691.03
00000682 00000011 554.63 140.14 550.71 724.26 637.71 461.62 852.43 412.38 725.74 619.74 745.27 731.88 904.16 690.68
00000683 00000012 548.15 139.88 554.64 712.37 636.64 467.20 850.05 417.01 730.89 624.02 744.60 738.84 902.40 695.21
00000684 00000013 551.48 133.47 555.54 722.96 639.15 466.84 854.13 416.70 733.32 623.15 745.44 739.51 905.41 696.05
00000685 00000014 554.87 133.57 555.47 725.22 640.72 465.41 857.97 416.22 735.96 624.57 745.99 738.23 910.31 695.43
00000686 00000015 559.76 123.30 556.93 737.17 646.63 465.10 863.56 417.94 739.63 625.19 748.68 736.57 915.52 695.18
00000687 00000016 560.59 127.16 559.05 732.88 648.04 463.56 868.03 416.22 743.83 624.97 751.25 735.19 920.00 693.81
00000688 00000017 562.84 130.16 560.32 731.70 648.79 463.86 871.67 416.32 746.57 625.52 752.58 736.65 923.80 695.09
00000689 00000018 566.27 128.87 559.19 739.69 651.80 463.97 872.97 416.76 747.05 625.33 754.92 737.55 925.44 696.35
00000690 00000019 569.08 128.24 561.56 749.11 654.87 463.64 876.68 417.69 749.08 623.05 755.41 735.92 929.52 695.70
00000691 00000020 570.11 129.91 562.93 744.82 654.65 465.43 878.93 418.61 751.35 624.30 755.61 736.68 931.27 695.75
00000692 DELETE   575.76 146.50 556.59 738.59 660.05 468.58 883.55 422.69 755.84 623.24 755.71 737.59 934.59 697.68
00000693 DELETE   577.19 141.62 556.23 735.98 662.17 466.56 883.41 420.77 757.10 620.35 758.91 732.25 937.83 692.46
00000694 00000023 574.80 131.22 561.63 745.32 660.22 462.55 881.92 417.26 754.93 618.48 758.34 727.85 937.12 688.15
00000695 00000024 573.16 124.82 562.88 751.67 658.42 460.60 880.26 414.62 752.60 618.63 758.62 730.33 934.92 689.98
00000696 00000025 572.40 123.99 562.63 756.05 658.58 460.80 877.41 416.59 749.69 619.52 757.16 730.41 930.85 691.52
00000697 00000026 572.24 125.66 561.37 754.61 658.13 460.01 876.89 416.55 749.90 621.07 756.37 731.64 928.35 693.45
00000698 00000027 570.43 122.43 560.24 757.43 657.38 460.92 875.67 417.10 749.54 620.96 755.57 732.78 926.33 694.32
00000699 00000028 572.44 122.29 554.43 753.74 657.15 460.36 874.08 417.30 747.83 620.73 753.57 731.33 924.36 693.45
00000700 00000029 570.90 121.67 555.83 752.07 656.08 458.70 871.88 415.91 746.42 618.90 754.15 730.34 922.58 692.73
00000701 00000030 571.67 121.31 554.94 749.00 655.47 457.27 872.10 415.38 745.19 618.83 752.39 729.69 921.48 692.81
00000702 00000031 570.89 117.23 554.75 753.26 654.93 456.90 870.86 415.13 744.30 618.33 752.53 730.32 920.34 693.43
00000703 00000032 571.66 118.13 553.08 752.82 655.48 456.79 870.69 415.29 744.45 618.19 752.33 729.06 920.83 692.42
00000704 00000033 571.44 118.31 551.93 745.67 655.72 456.38 870.64 415.47 745.55 617.90 753.65 727.35 920.22 691.20
00000705 00000034 571.64 120.94 550.49 738.64 655.78 456.54 871.12 414.93 746.85 617.14 753.67 725.04 922.41 688.22
00000706 00000035 572.71 120.50 548.21 733.24 657.05 455.95 871.27 414.75 747.22 614.79 754.93 723.48 920.65 687.18
00000707 00000036 575.03 124.06 546.56 731.97 657.63 455.45 872.22 413.99 747.87 614.41 754.40 721.46 922.84 684.98
00000708 00000037 576.87 124.25 546.98 728.90 658.84 454.13 874.07 413.45 749.51 613.19 755.85 719.44 923.11 683.69
00000709 00000038 578.13 124.72 546.87 727.95 660.66 454.04 876.29 413.17 751.86 614.65 758.53 718.79 925.99 682.84
00000710 00000039 579.18 121.55 545.36 728.31 661.20 454.70 876.22 413.22 751.18 612.90 759.06 718.36 925.22 681.95
00000711 00000040 578.60 122.01 547.86 729.83 661.66 455.12 876.88 413.20 752.32 614.17 760.62 719.35 926.93 682.58
00000712 00000041 578.69 122.90 547.31 729.75 661.47 455.24 877.77 412.46 753.40 614.46 761.88 720.68 928.09 683.26
00000713 00000042 578.48 119.61 548.69 735.70 661.48 457.38 878.43 413.50 753.39 615.12 761.10 725.43 927.78 687.21
00000714 00000043 577.11 125.52 550.14 731.84 660.45 457.72 878.24 412.51 753.58 615.29 761.61 726.95 928.42 687.52
00000715 00000044 576.26 124.26 551.14 734.39 660.59 459.85 877.41 415.04 753.47 616.80 762.57 730.15 926.30 691.07
00000716 00000045 575.54 121.40 550.89 738.33 661.75 459.63 876.77 415.72 753.35 615.85 762.23 727.78 925.62 689.30
00000717 00000046 577.91 137.90 546.57 726.04 663.82 465.31 876.84 419.18 755.68 612.87 760.63 723.67 926.50 683.41
00000718 DELETE   577.64 143.28 542.84 716.86 663.68 466.61 873.56 421.26 754.23 612.73 758.47 721.31 922.65 681.92
00000719 DELETE   572.97 143.36 545.35 715.13 660.25 466.72 869.49 421.44 750.40 612.29 757.24 721.54 920.14 681.93
00000720 00000049 567.33 139.75 547.36 718.48 655.05 459.05 874.84 413.40 751.88 606.43 753.53 717.91 920.30 680.75
00000721 00000050 565.50 134.39 547.40 722.67 651.36 458.20 869.25 410.19 746.60 604.24 751.90 717.37 917.75 678.21
00000722 00000051 562.72 136.75 547.49 719.12 648.60 459.32 863.97 408.14 741.22 602.65 750.84 718.63 913.51 676.76
00000723 00000052 558.32 137.63 547.81 713.74 645.61 459.49 861.73 406.53 741.56 603.85 751.11 719.79 912.33 676.24
00000724 00000053 554.83 142.97 548.89 706.96 640.90 463.31 856.60 409.74 736.95 608.92 748.54 722.39 908.65 678.14
00000725 00000054 553.91 140.61 547.49 705.44 638.16 462.96 853.61 410.29 733.73 609.42 745.34 720.90 905.20 677.23
00000726 00000055 552.64 132.32 548.61 715.27 636.51 460.77 849.46 408.58 728.40 605.64 741.83 720.24 898.58 676.80
00000727 00000056 549.44 132.89 551.47 711.84 632.72 455.58 848.09 404.95 725.20 602.74 738.23 715.66 896.03 673.48
00000728 00000057 549.46 128.58 552.79 710.67 631.74 453.42 847.90 403.58 723.75 598.77 736.50 712.38 894.38 670.72
00000729 00000058 540.43 120.96 550.32 713.72 619.72 448.05 848.74 396.93 721.93 598.14 723.30 715.51 897.46 671.61
00000730 00000059 537.95 119.40 551.56 714.52 619.12 447.42 848.82 397.77 722.28 599.37 721.98 714.30 896.93 671.64
00000731 00000060 539.39 125.37 550.02 709.30 617.79 449.73 847.97 398.94 721.12 601.11 721.00 715.85 896.67 672.24
00000732 00000061 538.54 127.91 549.98 705.40 617.22 450.87 847.91 399.97 721.55 602.31 720.57 716.30 897.61 672.58
00000733 00000062 539.65 131.00 548.81 704.06 617.15 451.96 847.20 400.50 721.12 602.83 719.88 717.12 897.25 672.85
00000734 00000063 540.97 126.59 548.85 708.36 619.28 450.08 848.98 399.32 721.58 599.26 720.88 714.88 895.82 671.34
00000735 DELETE   557.72 144.80 539.32 697.04 636.89 451.73 848.97 409.15 724.49 593.51 730.78 705.37 890.90 669.98
00000736 DELETE   557.50 146.14 540.52 694.70 637.44 451.95 847.92 408.76 725.15 591.79 733.22 704.16 892.05 668.21
00000737 DELETE   559.46 141.15 543.26 697.43 638.76 449.31 855.20 405.05 728.91 591.50 733.37 703.93 895.85 667.21
00000738 00000067 560.14 132.18 544.85 708.51 639.04 449.60 856.81 404.29 730.16 594.67 735.24 706.34 900.52 668.45
00000739 00000068 558.96 127.32 547.21 710.92 638.84 451.34 857.06 403.61 731.20 595.00 737.35 708.61 901.72 668.64
00000740 00000069 560.19 131.73 546.94 707.72 640.99 451.50 860.50 403.40 734.65 594.69 739.27 709.32 904.67 669.35
00000741 00000070 562.60 130.89 545.74 710.69 643.13 451.49 862.46 402.96 736.31 594.03 740.57 709.27 907.51 668.97
00000742 00000071 557.22 124.79 552.73 711.41 640.77 458.14 866.82 401.33 737.67 595.75 736.94 717.73 910.30 669.00
00000743 00000072 558.79 124.12 552.42 711.33 642.39 456.09 868.10 400.72 738.64 595.50 738.12 716.54 910.72 669.20
00000744 00000073 565.98 123.60 543.74 716.19 647.61 448.93 867.20 403.33 740.97 591.62 743.49 704.54 912.12 666.65
00000745 00000074 560.28 118.10 552.42 716.68 644.22 456.92 871.62 400.99 743.32 597.49 742.00 716.71 915.18 669.03
00000746 00000075 559.60 119.36 553.71 715.30 645.59 458.02 872.98 402.81 745.55 599.74 744.22 716.75 916.62 669.78
00000747 00000076 560.59 120.11 552.52 717.06 645.54 459.96 872.73 404.31 744.40 600.60 743.24 718.43 915.67 671.11
00000748 00000077 566.03 126.03 545.48 716.77 650.25 450.56 871.03 407.35 745.16 599.16 746.01 708.54 913.84 672.69
00000749 00000078 560.43 119.28 552.70 719.43 645.71 460.32 872.05 405.18 743.33 601.31 743.09 719.38 915.07 672.53
00000750 00000079 559.98 119.58 553.44 719.85 644.98 459.93 871.49 404.55 743.30 600.35 742.24 719.22 915.19 672.08
00000751 00000080 559.28 117.97 554.74 719.37 645.29 459.23 870.96 404.46 742.49 599.57 742.37 718.56 913.87 671.80
00000752 00000081 563.26 126.38 547.40 716.81 647.90 451.14 867.35 405.54 742.61 595.47 744.57 707.81 910.62 670.18
00000753 00000082 562.76 124.59 546.81 717.49 646.13 451.96 866.41 405.61 741.14 596.35 742.84 709.92 909.31 671.63
00000754 00000083 561.29 130.50 547.35 711.86 644.09 451.96 865.23 405.30 739.26 598.30 740.94 711.04 907.92 672.51
00000755 00000084 558.90 127.93 550.89 715.44 641.71 452.90 865.16 405.00 738.24 598.34 739.59 712.30 908.10 672.88
00000756 00000085 559.29 128.53 549.90 710.47 641.75 453.64 865.19 407.21 736.83 600.71 738.17 713.17 906.14 674.85
00000757 DELETE   561.63 141.22 545.82 699.40 646.37 457.02 866.30 414.27 740.76 602.05 739.61 712.33 904.11 677.12
00000758 DELETE   561.60 140.12 544.51 700.30 645.95 456.93 863.64 413.47 739.01 601.62 740.62 712.86 902.32 677.12
00000759 00000088 561.20 133.57 546.01 704.71 644.71 455.54 867.94 412.14 740.05 601.51 737.98 712.67 903.89 676.91
00000760 00000089 560.54 128.79 547.09 708.55 642.81 454.81 866.58 409.57 738.12 601.27 737.79 713.80 904.60 676.51
00000761 00000090 560.93 128.70 546.18 708.62 642.36 454.36 863.66 408.36 735.67 600.25 737.98 713.60 902.75 675.49
00000762 00000091 559.68 126.18 547.63 711.72 641.38 454.37 862.48 407.69 734.77 599.97 737.77 714.34 901.95 675.69
00000763 00000092 559.92 125.36 547.66 711.77 641.36 453.94 862.44 406.96 734.49 599.39 738.21 713.93 901.96 675.06
00000764 00000093 560.28 128.96 547.06 709.10 641.42 454.14 862.28 406.72 734.70 599.46 738.35 714.15 902.00 675.02
00000765 00000094 559.13 127.45 548.37 710.80 640.97 454.76 862.10 407.20 734.88 600.93 738.61 715.34 902.47 675.96
00000766 00000095 559.85 130.01 546.63 707.35 642.70 455.09 862.78 407.69 736.99 601.59 740.14 714.54 903.52 675.42
00000767 00000096 559.04 128.04 548.23 709.34 643.12 455.56 864.24 408.70 738.41 602.41 740.39 715.05 903.50 676.28
00000768 00000097 560.95 132.70 545.63 703.49 645.16 454.70 866.48 409.00 741.11 603.30 740.76 713.11 904.78 675.31
00000769 00000098 561.90 124.50 545.74 711.49 645.67 453.24 866.39 408.88 739.96 601.57 740.52 712.39 903.50 675.51
00000770 00000099 563.44 128.83 543.50 706.38 646.49 453.52 867.03 409.15 741.13 600.63 740.89 711.40 903.55 674.73
00000771 00000100 564.05 141.75 540.44 693.02 649.52 454.91 869.92 412.73 745.50 600.21 741.66 709.21 903.72 674.65
00000772 00000101 564.73 145.14 539.95 689.46 650.33 456.22 866.49 413.69 744.29 601.06 745.50 709.73 903.58 674.87
00000773 00000102 566.93 142.99 538.37 691.65 652.15 455.97 870.22 414.38 746.80 600.34 744.30 709.69 904.05 675.58
00000774 00000103 567.12 134.94 539.61 697.32 650.50 453.05 873.50 413.07 746.58 601.79 741.23 709.45 905.24 676.55
00000775 00000104 566.83 133.21 540.53 699.83 650.06 452.25 872.43 411.26 745.26 603.10 742.82 711.26 905.66 677.42
00000776 00000105 568.16 137.45 538.96 697.72 651.66 451.75 873.54 410.53 746.89 603.29 744.73 710.98 907.56 677.06
00000777 00000106 568.97 132.21 538.15 704.99 652.57 451.95 873.05 411.52 746.77 602.57 744.28 710.78 907.24 677.38
00000778 00000107 569.20 135.68 537.63 702.35 652.80 451.23 874.18 409.95 747.98 601.93 744.49 710.88 908.31 676.87
00000779 00000108 570.38 128.53 537.46 706.09 653.34 450.21 874.63 411.28 746.63 602.53 744.80 710.36 906.99 678.01
00000780 00000109 571.47 128.39 535.71 707.62 654.57 449.24 875.22 411.29 747.13 601.87 745.32 709.34 907.30 677.88
00000781 00000110 571.21 134.47 536.46 699.66 656.25 448.28 877.42 409.54 749.39 601.18 747.49 707.49 909.94 675.54
00000782 00000111 573.86 136.01 535.62 698.18 657.89 446.85 879.89 409.63 750.98 600.54 746.09 705.61 912.00 675.01
00000783 00000112 574.77 123.86 539.72 697.66 658.35 447.01 872.40 409.66 747.92 599.61 751.83 706.55 907.14 674.18
00000784 00000113 576.67 129.09 538.36 691.12 656.59 449.04 885.37 404.74 752.21 600.61 746.51 713.28 911.76 675.93
00000785 00000114 580.42 126.71 536.17 694.08 658.93 448.58 887.05 404.28 753.81 600.28 748.91 712.47 913.76 675.23
00000786 00000115 581.59 125.00 536.23 697.06 660.27 448.67 888.59 402.60 754.62 598.28 750.24 712.57 914.88 674.04
00000787 00000116 583.53 127.67 534.61 693.22 662.52 448.09 890.88 402.15 757.19 595.75 751.95 711.09 917.12 672.71
00000788 00000117 585.14 127.72 533.27 691.91 662.78 448.38 891.09 402.42 756.78 595.97 752.16 711.15 916.96 672.74
00000789 00000118 588.40 128.56 536.65 694.01 669.44 442.79 886.79 404.70 759.24 591.67 760.61 700.59 917.91 667.83
00000790 00000119 587.80 128.85 539.67 694.07 668.54 442.51 888.13 404.10 759.83 593.40 761.15 702.88 919.49 669.84
00000791 00000120 587.84 125.56 539.56 698.15 669.11 443.87 888.55 405.07 760.80 594.57 762.47 705.36 919.66 672.04
00000792 00000121 588.55 128.47 538.90 696.30 668.29 445.07 888.34 406.11 760.30 597.03 761.62 706.47 920.85 673.01
00000793 00000122 587.41 127.14 540.31 698.15 667.17 445.78 886.52 406.90 759.06 599.54 761.89 708.47 919.97 675.04
00000794 00000123 586.58 127.67 540.61 697.39 666.94 447.97 886.70 408.26 759.79 601.31 761.82 709.94 921.13 675.85
00000795 00000124 585.93 129.09 540.61 696.89 666.57 448.81 886.66 408.32 760.32 602.76 761.98 711.87 920.70 677.15
00000796 00000125 585.98 128.13 541.75 698.91 667.08 448.43 886.88 408.83 760.33 603.35 762.50 711.51 921.03 677.49
00000797 00000126 586.33 127.16 542.19 701.07 667.77 449.24 886.67 409.68 760.23 604.03 762.96 712.41 921.05 678.34
00000798 00000127 587.32 128.90 541.10 700.82 668.84 449.07 886.69 409.34 760.83 603.47 764.27 712.15 921.41 677.96
00000799 00000128 590.78 136.01 538.20 693.61 671.34 453.40 891.78 414.52 764.47 603.51 761.94 710.81 923.67 677.66
00000800 DELETE   588.07 139.91 539.71 690.45 671.77 453.34 890.78 415.55 765.38 603.40 763.05 711.79 922.38 679.41
00000801 00000130 591.04 137.94 537.62 691.19 672.39 453.15 890.30 415.29 763.95 604.21 763.52 710.51 922.49 678.10
00000802 00000131 590.42 130.35 541.40 698.75 671.04 450.34 891.74 411.41 763.32 602.74 763.48 711.71 923.20 678.38
00000803 00000132 589.73 131.43 541.72 696.03 670.16 448.98 890.68 409.63 762.65 601.97 764.11 711.08 921.74 677.54
00000804 00000133 590.55 129.90 541.36 697.34 670.37 447.97 890.15 408.39 762.16 600.65 764.75 710.48 921.92 676.67
00000805 00000134 591.10 126.15 541.22 701.29 671.24 446.87 890.49 407.87 762.48 600.15 766.10 710.61 922.77 677.20
00000806 00000135 591.35 126.57 540.52 700.39 670.64 446.84 888.94 407.11 761.11 598.78 765.66 710.75 921.46 676.72
00000807 00000136 592.88 128.00 537.68 697.56 671.35 445.32 889.75 406.53 761.57 597.31 765.17 708.07 920.99 674.99
00000808 00000137 593.63 128.43 535.79 697.67 671.54 445.60 888.94 406.01 761.60 596.43 765.39 708.85 920.37 675.12
00000809 00000138 592.33 126.89 537.55 698.66 671.22 444.73 889.66 405.90 761.71 596.12 764.83 707.59 920.03 674.46
00000810 00000139 592.74 127.46 537.25 697.94 670.86 444.49 888.17 405.73 760.15 595.04 764.46 707.24 918.50 674.12
00000811 00000140 592.95 130.73 535.20 693.59 670.47 445.45 887.54 405.10 759.94 593.91 764.28 707.40 918.80 672.99
00000812 00000141 591.70 133.66 534.61 689.82 669.61 444.36 887.11 404.46 760.08 593.38 763.57 705.61 918.67 671.54
00000813 00000142 591.85 131.04 535.44 693.26 669.69 445.06 886.42 404.74 759.36 593.58 764.02 706.83 918.45 672.44
00000814 00000143 590.93 129.57 535.29 694.40 669.55 445.07 886.11 404.78 759.74 593.61 764.12 706.86 918.91 672.42
00000815 00000144 591.25 131.06 534.33 692.18 669.60 445.15 885.82 405.26 759.61 593.32 763.69 706.21 918.35 672.07
00000816 00000145 591.80 127.69 533.80 695.58 670.53 445.75 885.30 405.47 759.98 593.18 764.55 706.45 918.04 671.99
00000817 00000146 592.05 130.78 533.28 691.59 670.09 446.14 885.29 405.64 759.88 593.32 764.18 706.12 918.19 671.49
00000818 00000147 593.17 127.63 531.94 694.37 670.98 446.42 886.64 405.62 761.04 592.48 764.43 705.49 919.38 670.62
00000819 00000148 594.98 130.38 530.74 690.60 672.31 446.22 887.85 405.74 761.99 590.74 764.03 703.69 918.64 669.25
00000820 00000149 595.89 129.34 530.10 690.65 673.70 445.95 890.05 405.78 763.89 590.37 764.42 702.64 920.12 668.50
00000821 00000150 595.80 126.89 530.33 692.97 675.07 446.84 889.96 406.03 764.68 589.54 765.85 702.56 919.99 667.84
00000822 00000151 597.61 131.15 529.13 687.96 676.00 446.84 892.29 405.93 766.46 588.72 765.50 701.10 921.42 666.45
00000823 00000152 597.14 132.41 529.36 684.84 676.57 446.25 894.49 404.37 768.78 587.56 766.03 698.65 923.43 663.21
00000824 00000153 598.98 125.85 526.61 689.54 678.21 445.93 894.79 404.64 769.33 585.41 765.92 697.15 922.10 662.32
00000825 00000154 599.68 123.80 528.03 691.37 679.57 445.13 896.01 404.26 770.14 583.93 766.64 696.49 922.49 662.01
00000826 00000155 601.48 133.94 526.73 679.56 681.00 443.98 899.49 404.96 771.93 584.17 765.69 692.94 923.59 660.09
00000827 00000156 603.38 140.89 522.98 673.13 685.96 445.39 898.07 408.21 773.46 582.82 767.88 691.06 922.60 659.77
00000828 00000157 605.84 135.27 522.19 679.55 688.76 444.12 900.02 407.87 774.35 582.07 769.04 689.16 923.71 658.66
00000829 00000158 605.65 134.50 519.89 673.98 684.40 452.62 905.47 405.88 776.24 586.13 768.68 700.24 927.33 661.36
00000830 00000159 605.79 128.44 524.20 680.73 683.96 451.23 906.33 403.95 776.16 585.50 770.35 702.00 929.25 662.78
00000831 00000160 607.32 127.45 524.85 681.92 685.92 449.67 908.13 402.99 777.74 584.37 771.63 700.70 931.30 662.00
00000832 00000161 608.31 128.85 524.07 679.75 686.55 448.06 908.37 403.11 777.49 583.94 770.83 699.60 930.26 662.26
00000833 00000162 608.01 128.76 522.00 680.67 684.86 446.11 905.32 403.22 774.00 584.41 767.52 698.47 925.83 662.86
00000834 00000163 609.00 131.81 519.50 676.62 681.94 445.49 902.98 402.45 770.40 584.86 765.01 699.62 922.74 663.88
00000835 00000164 608.58 129.54 522.85 678.83 681.59 444.63 902.42 402.17 769.93 585.61 765.41 699.04 922.86 663.69
00000836 00000165 608.46 128.34 525.30 680.60 683.57 445.29 904.67 402.50 771.73 585.36 766.95 698.80 925.45 663.23
00000837 00000166 609.27 127.98 527.51 683.46 685.66 446.24 906.79 401.07 775.31 584.06 770.95 699.36 930.31 661.91
00000838 00000167 609.59 122.43 529.17 689.83 686.17 446.85 909.12 402.02 774.96 584.03 769.35 700.88 930.41 663.79
00000839 00000168 609.69 125.99 528.15 685.71 686.38 446.91 908.97 401.87 775.70 583.98 769.69 700.10 930.73 662.82
00000840 00000169 609.34 125.96 529.52 686.33 685.40 446.94 908.57 402.01 774.66 584.85 769.44 701.16 930.43 663.97
00000841 00000170 609.39 127.87 529.39 684.66 684.96 447.36 908.75 401.84 774.74 584.75 768.90 701.47 930.64 663.87
