Video ID: 	WGPDwFCgiYk
H: 	1080
W: 	1920
FPS: 	25.0

FRAME INDEX X0 Y0 W H [Landmarks (5 Points)]

00002244 00000000 986.22 180.62 380.81 527.84 1010.54 419.42 1129.45 372.34 1006.60 475.04 1044.05 595.20 1158.90 556.97
00002245 DELETE   988.68 169.42 389.06 544.78 1016.41 413.66 1132.99 374.94 1011.42 477.21 1051.49 594.55 1160.85 562.80
00002246 DELETE   991.73 168.18 389.86 546.88 1023.88 413.79 1142.84 379.76 1017.65 478.15 1054.63 595.89 1163.28 567.85
00002247 DELETE   998.04 173.24 394.63 548.15 1031.22 413.86 1150.06 384.49 1026.00 484.40 1062.54 597.60 1170.83 573.20
00002248 00000004 999.76 185.79 401.07 549.81 1030.72 420.90 1159.38 392.21 1035.89 495.62 1071.91 609.74 1182.68 585.25
00002249 00000005 993.37 180.42 408.68 563.12 1028.08 433.00 1169.97 401.59 1039.21 510.84 1072.71 625.73 1182.20 599.89
00002250 00000006 992.27 198.17 415.42 555.13 1027.26 434.61 1172.09 408.73 1039.93 517.76 1072.31 630.15 1184.29 607.83
00002251 00000007 990.38 198.78 413.29 560.04 1028.48 441.63 1176.20 417.01 1044.70 523.59 1071.71 636.01 1186.00 614.69
00002252 00000008 992.56 201.56 412.38 561.97 1033.12 448.61 1180.40 421.54 1052.76 530.77 1077.77 641.95 1193.71 618.58
00002253 00000009 992.91 205.33 412.09 561.44 1034.90 443.57 1181.38 423.45 1053.61 530.89 1076.30 638.66 1191.62 620.79
00002254 00000010 992.35 197.48 412.48 565.51 1034.91 443.85 1181.62 421.01 1054.15 529.62 1079.26 638.30 1192.29 618.39
00002255 00000011 991.97 198.00 413.85 560.47 1033.63 442.36 1181.55 419.18 1054.25 527.30 1078.48 635.69 1191.67 615.72
00002256 00000012 990.47 189.08 411.62 570.01 1033.20 440.24 1179.23 416.47 1053.01 523.15 1078.02 633.55 1191.27 612.89
00002257 00000013 990.25 187.81 411.73 567.47 1032.66 440.75 1178.14 414.43 1051.52 520.86 1076.96 633.12 1190.34 610.60
00002258 00000014 989.46 187.96 414.25 565.02 1029.73 439.50 1175.18 409.55 1048.64 518.74 1076.89 631.45 1190.93 605.98
00002259 00000015 992.04 184.86 412.72 564.52 1031.83 437.10 1174.74 406.10 1048.57 517.65 1079.84 629.97 1192.24 603.75
00002260 00000016 990.29 180.70 415.85 571.14 1027.47 435.93 1172.12 402.30 1043.00 515.18 1076.72 632.20 1189.29 603.93
00002261 00000017 989.49 180.93 410.66 567.25 1025.57 429.00 1171.66 400.25 1039.17 513.30 1071.58 628.80 1184.15 604.99
00002262 00000018 986.76 179.32 408.50 569.29 1022.13 424.96 1168.04 397.81 1030.99 506.22 1062.42 625.04 1175.73 602.59
00002263 00000019 985.98 175.20 407.39 570.05 1018.97 421.29 1163.08 393.67 1022.53 501.73 1060.91 622.37 1170.80 599.54
00002264 00000020 985.58 172.58 407.80 564.67 1015.26 421.05 1159.49 393.78 1017.78 500.74 1057.16 619.79 1166.07 597.94
00002265 00000021 984.76 173.25 409.16 558.74 1012.19 418.80 1154.97 393.09 1012.35 501.07 1056.11 615.04 1164.16 594.65
00002266 00000022 982.38 168.69 413.55 562.29 1006.73 418.08 1152.43 391.45 1006.87 496.95 1050.28 614.24 1159.00 593.25
00002267 DELETE   979.98 166.18 411.81 562.51 1004.25 413.82 1150.64 388.39 1005.25 494.60 1049.32 611.06 1157.55 591.01
00002268 00000024 984.83 164.33 401.39 565.84 1008.53 410.46 1141.81 391.29 1005.98 491.85 1046.04 603.43 1158.19 586.76
00002269 00000025 981.30 164.68 398.44 562.77 1006.21 412.43 1140.70 393.15 1004.95 492.94 1038.68 603.03 1154.88 586.58
00002270 00000026 976.01 165.39 405.04 565.31 1002.68 410.91 1140.33 393.64 1002.36 493.33 1033.71 602.49 1151.30 587.58
00002271 00000027 972.62 172.48 400.50 563.00 1001.66 411.81 1138.82 394.71 1002.23 492.63 1034.16 604.69 1145.38 590.05
00002272 00000028 967.80 174.72 403.39 572.29 999.87 417.76 1136.68 398.09 1005.84 498.31 1039.26 615.53 1148.28 598.65
00002273 00000029 969.36 173.29 398.62 566.77 999.14 422.88 1136.22 404.08 1003.61 504.88 1034.64 615.93 1142.40 600.45
00002274 00000030 965.24 173.76 404.08 567.42 992.77 424.44 1131.61 406.70 998.24 512.02 1031.29 618.55 1141.04 603.95
00002275 00000031 964.19 177.01 402.18 565.08 992.40 426.89 1130.44 408.99 998.21 513.14 1030.10 621.40 1136.76 606.73
00002276 00000032 962.10 179.05 405.45 563.34 992.63 424.28 1128.44 412.65 997.41 517.38 1028.54 617.20 1136.42 607.70
00002277 00000033 960.63 178.62 398.98 563.40 991.26 426.03 1127.29 415.29 995.83 519.48 1027.15 619.46 1130.70 610.73
00002278 00000034 963.14 179.94 397.72 560.00 992.11 426.32 1127.58 415.76 996.19 520.36 1024.66 620.45 1125.95 612.01
00002279 00000035 961.83 178.20 405.92 558.22 992.51 425.54 1127.68 414.77 996.83 518.91 1025.09 617.34 1125.69 608.93
00002280 00000036 965.91 182.69 398.87 548.67 993.28 423.45 1131.21 411.11 999.41 515.11 1023.97 617.14 1125.92 607.84
00002281 00000037 964.54 180.63 398.95 546.89 992.22 422.04 1130.71 404.76 996.50 510.17 1024.03 614.91 1129.46 601.73
00002282 00000038 964.74 178.31 384.73 540.15 991.31 418.98 1130.43 400.15 994.45 501.64 1020.08 609.81 1126.09 595.34
00002283 DELETE   962.86 167.33 391.01 550.17 991.42 411.89 1122.05 395.51 994.94 490.82 1012.29 599.85 1120.96 585.24
00002284 00000040 961.53 161.77 391.17 547.91 989.51 399.40 1128.31 383.30 996.79 481.64 1010.70 592.32 1122.18 578.72
00002285 00000041 959.59 160.90 388.42 532.28 989.60 384.10 1127.55 368.63 991.32 461.62 1008.00 571.39 1118.60 558.22
00002286 00000042 958.50 146.13 391.89 536.48 992.28 379.49 1127.35 362.70 990.83 445.45 1004.67 560.92 1109.21 547.42
00002287 00000043 958.47 145.67 389.84 529.59 991.54 377.95 1123.92 358.16 991.35 441.64 1003.23 557.13 1106.00 541.51
00002288 00000044 960.89 141.14 387.92 529.38 991.58 376.61 1122.51 353.96 990.29 440.21 1004.14 556.18 1104.87 538.54
00002289 00000045 959.92 141.11 390.09 530.28 991.13 379.33 1124.75 354.51 991.00 439.96 1002.49 555.96 1106.85 536.65
00002290 00000046 958.85 137.80 389.31 529.74 989.04 377.37 1124.31 354.17 988.32 439.75 1001.23 552.78 1107.24 534.63
00002291 00000047 956.49 144.90 393.06 528.32 985.17 380.19 1122.71 353.20 985.69 439.77 999.50 557.02 1107.36 535.69
00002292 00000048 953.42 150.49 396.42 529.84 982.53 384.46 1120.06 351.67 982.21 439.12 1001.12 561.13 1109.17 534.55
00002293 00000049 950.56 152.11 401.90 539.66 980.49 383.63 1116.24 347.02 979.31 438.36 1003.78 567.58 1108.98 537.62
00002294 00000050 948.23 155.93 405.14 539.09 978.11 385.39 1113.59 347.29 974.93 442.19 1001.94 571.65 1105.73 540.68
00002295 00000051 941.80 154.72 409.50 539.02 973.44 387.50 1108.70 350.42 971.32 444.34 994.93 574.05 1101.09 544.31
00002296 00000052 938.09 156.90 410.16 534.12 968.20 387.53 1102.61 352.53 965.81 447.35 989.04 573.77 1094.49 545.79
00002297 00000053 938.01 154.05 403.10 538.41 967.42 388.87 1101.44 356.92 963.15 450.51 984.47 574.51 1092.39 548.94
00002298 00000054 934.59 153.54 400.73 537.74 966.94 386.27 1101.80 360.38 963.35 452.22 980.23 571.04 1087.47 551.10
00002299 00000055 933.57 152.62 403.97 539.91 963.46 385.38 1099.67 359.70 959.52 452.72 976.47 572.91 1085.16 553.30
00002300 00000056 931.84 157.69 399.74 533.86 961.84 385.89 1095.38 358.69 955.45 453.38 976.82 573.85 1084.85 552.39
00002301 00000057 930.12 151.04 399.06 542.82 957.63 383.77 1094.85 356.81 950.89 452.52 973.28 576.02 1082.36 554.87
00002302 00000058 929.83 150.34 395.24 542.90 958.14 381.24 1092.63 355.57 947.47 449.85 974.71 574.01 1081.91 553.39
00002303 00000059 930.03 150.67 398.15 545.15 958.26 383.08 1092.31 353.58 946.96 448.88 977.99 575.67 1086.90 551.60
00002304 00000060 930.36 150.45 395.13 544.27 959.67 382.11 1090.57 352.99 947.32 447.01 978.43 574.21 1084.11 550.63
00002305 00000061 930.19 152.53 391.22 539.30 960.02 379.04 1093.82 350.22 949.51 444.81 978.14 571.98 1083.88 548.63
00002306 00000062 930.48 147.72 395.07 545.81 960.81 379.40 1093.86 350.07 950.65 445.77 981.86 572.55 1087.39 548.85
00002307 00000063 931.01 151.85 395.27 542.72 961.44 381.03 1096.14 349.03 954.17 446.46 983.67 574.61 1090.32 548.73
00002308 00000064 931.28 155.31 395.91 538.85 960.49 381.46 1095.69 349.15 953.40 447.27 983.81 573.94 1091.35 547.27
00002309 00000065 929.33 152.35 394.56 543.37 959.96 384.79 1091.95 352.43 952.12 450.04 982.85 574.88 1091.01 548.18
00002310 00000066 927.43 150.68 399.15 551.15 958.07 384.53 1090.15 354.52 945.13 450.64 980.89 578.32 1089.57 553.23
00002311 00000067 923.53 159.83 398.13 552.45 955.82 388.56 1087.55 356.51 943.73 456.17 977.56 586.89 1087.08 559.67
00002312 00000068 922.44 165.50 402.96 560.52 955.83 396.58 1087.36 363.66 955.36 456.12 976.86 591.62 1089.71 565.68
00002313 00000069 922.69 168.59 399.62 553.40 955.36 403.25 1083.57 369.07 951.81 461.34 977.54 592.12 1088.13 565.07
00002314 00000070 918.60 161.72 401.45 551.00 951.70 398.45 1084.06 368.61 942.43 468.06 976.55 591.73 1087.88 565.81
00002315 00000071 924.50 162.42 398.81 554.58 953.19 407.25 1082.73 369.69 951.86 466.14 979.78 595.08 1093.25 565.23
00002316 00000072 920.14 159.02 401.08 554.97 953.67 400.00 1084.27 367.37 942.94 465.65 975.07 592.74 1084.80 565.28
00002317 00000073 921.27 160.20 400.38 550.61 953.49 399.28 1086.14 366.75 943.68 463.09 972.75 590.45 1083.85 563.31
00002318 00000074 928.78 167.39 400.17 542.45 956.42 404.51 1084.39 367.99 959.01 461.14 978.55 590.95 1084.91 562.25
00002319 00000075 926.31 162.08 398.17 538.73 958.26 392.37 1090.26 363.90 948.18 460.22 977.93 584.26 1085.95 560.55
00002320 00000076 930.74 156.29 400.29 543.66 958.81 390.06 1092.54 360.07 950.43 457.69 980.74 582.25 1090.42 557.69
00002321 00000077 934.59 156.56 401.71 545.15 964.40 388.43 1095.73 355.89 955.79 455.39 987.89 582.73 1094.11 556.02
00002322 00000078 935.69 151.85 409.80 553.86 966.54 385.48 1097.40 353.35 957.09 453.46 990.74 582.83 1095.00 556.52
00002323 00000079 936.41 151.60 412.40 550.19 964.46 387.86 1096.77 355.16 956.84 454.63 988.60 581.66 1093.59 555.28
00002324 00000080 936.84 151.78 412.77 547.94 964.84 386.29 1101.14 356.70 959.41 455.48 987.41 578.98 1096.46 555.25
00002325 00000081 937.91 147.75 417.44 552.10 965.18 385.93 1102.79 356.70 961.22 456.39 987.86 578.95 1096.88 555.64
00002326 00000082 939.68 142.50 415.59 552.53 965.55 387.14 1103.30 356.65 962.35 454.32 991.64 575.63 1099.82 551.11
00002327 00000083 943.78 149.36 407.31 542.87 973.23 385.06 1109.01 358.13 968.31 453.10 995.78 570.55 1106.32 548.68
00002328 00000084 945.19 149.11 405.65 544.16 974.87 381.64 1111.15 357.29 969.80 451.97 996.29 568.08 1107.05 548.01
00002329 00000085 944.44 147.73 406.33 544.88 973.80 381.79 1111.36 358.20 969.74 452.59 994.76 569.25 1105.94 549.95
00002330 00000086 943.39 146.71 411.18 550.07 972.29 382.43 1109.59 360.37 965.51 455.12 990.61 572.08 1102.68 554.20
00002331 00000087 940.37 144.40 412.35 556.50 966.91 385.23 1104.78 361.52 961.87 457.28 985.18 577.09 1097.03 558.03
00002332 00000088 939.25 150.21 411.17 554.86 966.37 388.33 1104.61 362.96 961.90 459.67 983.91 582.42 1096.70 562.24
00002333 00000089 939.45 154.08 407.91 548.72 966.47 389.46 1102.15 363.19 961.33 460.06 984.03 583.19 1094.66 562.18
00002334 00000090 937.79 152.22 414.23 551.74 964.91 388.86 1101.45 362.54 959.58 460.99 983.89 583.53 1093.90 562.46
00002335 00000091 939.03 154.12 408.98 548.21 967.01 390.63 1101.47 364.47 961.14 461.30 984.34 583.61 1093.89 562.69
00002336 00000092 939.98 155.20 411.98 548.29 966.08 391.14 1101.94 363.13 960.87 461.59 985.47 585.47 1094.91 563.07
00002337 00000093 942.65 152.46 414.62 552.34 968.23 387.02 1106.28 363.82 961.54 461.68 985.50 583.07 1094.25 564.73
00002338 00000094 944.62 154.49 413.27 548.02 969.25 387.20 1107.31 361.99 964.02 460.77 987.67 582.94 1096.07 562.96
00002339 00000095 944.07 155.11 414.22 548.04 970.37 385.99 1110.26 361.93 967.18 460.07 989.97 582.44 1099.58 563.04
00002340 00000096 945.79 160.09 409.19 544.18 975.22 385.16 1110.93 361.04 969.66 456.83 992.53 579.35 1100.75 559.76
00002341 00000097 946.56 158.83 405.76 545.00 977.14 385.54 1111.28 361.06 973.09 456.86 994.61 579.41 1101.64 559.65
00002342 00000098 947.80 159.27 403.93 546.47 978.03 386.72 1111.49 361.01 975.26 456.70 995.30 581.01 1101.38 559.94
00002343 00000099 948.08 157.29 405.45 548.55 978.47 384.00 1111.76 360.43 974.81 457.14 995.88 579.54 1101.90 560.16
00002344 00000100 948.69 158.38 410.13 547.27 979.50 385.19 1114.63 360.00 976.64 455.55 999.41 579.19 1107.17 558.43
00002345 00000101 950.93 157.75 403.06 546.99 983.70 386.00 1116.22 357.40 979.88 451.97 1002.98 577.03 1109.92 553.47
00002346 00000102 951.51 152.59 406.67 552.26 988.92 381.13 1120.99 353.90 985.47 445.31 1006.46 574.64 1110.97 552.15
00002347 00000103 953.43 152.26 402.60 554.19 990.06 377.73 1123.26 347.80 988.90 440.36 1009.62 575.49 1114.62 550.70
00002348 00000104 957.13 148.81 401.23 559.20 990.40 376.19 1124.91 340.45 992.13 434.12 1011.82 575.03 1118.73 545.48
00002349 00000105 957.73 143.83 408.44 563.06 989.79 370.12 1125.87 334.52 990.83 430.05 1011.09 572.30 1116.84 543.03
00002350 00000106 958.40 138.32 405.70 564.14 991.22 366.66 1128.41 334.95 990.40 427.37 1009.68 567.04 1117.53 540.99
00002351 00000107 956.91 136.83 405.17 566.41 992.39 366.74 1130.74 334.21 991.47 425.93 1010.18 566.71 1118.18 540.08
00002352 00000108 955.17 138.47 408.50 564.25 990.59 365.87 1129.81 335.83 988.88 427.65 1007.43 566.43 1116.01 541.98
00002353 00000109 954.60 146.17 406.16 550.97 988.60 367.25 1126.92 338.52 987.89 429.86 1005.96 563.71 1112.27 540.16
00002354 00000110 954.98 145.26 405.61 550.61 989.04 368.94 1126.62 339.25 987.31 430.20 1004.82 563.40 1111.93 539.29
00002355 00000111 955.79 147.93 402.92 544.82 989.90 368.16 1127.54 339.80 989.78 430.18 1006.50 561.78 1112.24 538.61
00002356 00000112 957.31 143.36 403.51 548.04 989.87 370.61 1127.81 339.17 991.17 428.84 1007.60 562.99 1113.52 537.52
00002357 00000113 957.24 142.30 406.45 546.91 991.65 374.65 1129.16 340.70 994.25 428.02 1008.19 563.83 1112.72 536.36
00002358 00000114 961.73 135.75 407.10 544.21 994.46 368.09 1131.09 339.73 994.55 427.57 1008.90 557.09 1113.41 534.23
00002359 00000115 959.57 132.37 408.67 539.33 994.94 360.73 1142.45 335.52 989.98 426.91 1002.36 555.65 1110.76 537.29
00002360 00000116 966.26 124.08 403.84 536.37 995.82 359.60 1130.29 336.02 993.03 422.86 1004.27 544.98 1105.72 526.60
00002361 00000117 967.06 125.17 402.43 533.32 995.83 357.09 1129.20 334.93 992.31 422.08 1003.45 544.13 1102.77 526.90
00002362 00000118 963.01 125.62 411.61 541.35 998.18 356.25 1142.91 328.79 988.71 420.05 998.98 552.40 1105.56 532.67
00002363 00000119 966.58 120.67 401.66 543.96 995.76 353.55 1130.24 329.36 991.02 417.12 1008.24 544.73 1110.49 525.51
00002364 00000120 964.85 120.26 400.37 544.08 995.23 350.67 1129.07 326.34 989.22 413.54 1008.31 542.69 1113.55 523.32
00002365 00000121 965.58 119.65 395.96 540.41 994.90 350.69 1128.07 323.62 989.01 411.62 1007.97 540.67 1114.35 519.45
00002366 00000122 964.30 112.47 397.76 546.08 992.44 348.71 1128.33 320.84 988.00 408.56 1006.71 537.89 1116.12 516.00
00002367 00000123 965.82 108.56 393.18 545.02 993.90 345.90 1131.48 318.87 991.07 407.29 1005.46 534.96 1115.37 514.02
00002368 00000124 965.49 107.62 394.25 544.13 992.43 342.87 1130.29 315.95 988.65 404.80 1004.07 532.74 1114.63 511.74
00002369 00000125 963.97 105.52 400.13 546.29 990.76 342.25 1132.51 315.02 988.10 403.98 1001.81 532.36 1115.09 511.14
00002370 00000126 963.73 108.39 393.30 542.62 992.59 341.38 1133.50 316.26 989.53 404.33 1002.00 530.22 1115.79 510.88
00002371 00000127 963.19 112.75 392.49 539.67 991.33 344.00 1130.22 318.25 988.15 405.25 1002.60 531.91 1114.81 512.12
00002372 00000128 961.01 112.40 396.90 547.21 988.22 347.57 1127.98 319.51 984.36 406.86 1001.77 537.87 1113.23 516.02
00002373 00000129 959.75 117.41 400.24 546.55 986.89 352.89 1125.72 323.96 981.95 412.63 1000.98 543.24 1112.31 520.52
00002374 00000130 959.92 121.99 399.05 543.11 987.82 356.33 1127.23 328.00 984.75 414.88 1000.73 545.41 1111.20 523.16
00002375 00000131 959.60 124.60 396.55 541.04 987.16 358.32 1125.62 330.47 983.21 418.06 1001.04 547.09 1109.56 525.33
00002376 00000132 959.37 125.80 396.10 541.68 986.60 359.42 1124.09 330.63 981.69 419.32 1001.10 549.25 1107.91 526.80
00002377 00000133 959.47 125.11 395.27 543.14 987.13 359.60 1123.93 331.58 981.43 419.44 1000.81 548.37 1109.02 526.60
00002378 00000134 959.52 124.39 396.19 540.68 986.91 358.15 1123.76 331.41 982.04 419.47 1001.01 546.08 1109.39 525.15
00002379 00000135 959.15 120.10 403.25 546.98 988.21 355.24 1126.34 326.82 983.77 414.12 1002.08 545.14 1112.57 522.73
00002380 00000136 961.72 113.58 405.95 552.59 989.40 355.20 1128.01 324.86 984.42 412.73 1004.48 543.72 1116.88 519.69
00002381 00000137 965.98 114.61 402.17 545.87 994.40 352.72 1130.13 321.85 988.82 409.78 1008.17 540.16 1117.46 515.93
00002382 00000138 968.83 112.41 400.90 544.42 997.17 350.40 1133.71 317.79 992.52 406.76 1011.32 537.28 1123.18 511.73
00002383 00000139 973.80 109.78 400.59 542.07 1000.67 343.88 1137.89 316.12 994.13 406.16 1013.05 533.07 1126.17 511.20
00002384 DELETE   976.95 99.56 405.25 552.45 1003.03 341.84 1140.05 316.82 997.22 403.59 1015.03 529.93 1128.50 510.17
00002385 00000141 981.90 103.75 399.61 545.67 1010.30 342.35 1142.34 314.64 1000.93 400.64 1020.42 528.44 1132.15 506.49
00002386 00000142 986.32 99.41 400.65 547.14 1016.96 338.90 1149.22 312.42 1010.97 396.75 1025.30 524.43 1137.42 504.15
00002387 00000143 989.73 102.09 397.45 542.03 1021.51 336.48 1158.31 310.06 1018.41 391.94 1026.48 521.55 1141.44 501.92
00002388 00000144 991.77 101.69 400.22 537.64 1023.51 336.72 1161.94 309.78 1025.24 388.61 1027.68 519.29 1142.02 499.08
00002389 00000145 994.65 99.51 411.37 541.32 1026.72 335.87 1165.60 302.73 1030.12 384.35 1031.71 520.96 1146.42 495.90
00002390 00000146 996.08 97.68 410.19 542.16 1028.03 336.49 1166.82 303.34 1031.91 385.96 1033.20 521.67 1147.55 496.72
00002391 00000147 994.91 97.56 406.48 545.02 1026.44 339.44 1165.17 308.04 1028.45 392.79 1033.73 525.12 1148.10 501.35
00002392 DELETE   995.39 100.43 401.47 550.76 1021.06 343.80 1156.10 314.08 1020.30 400.32 1031.09 531.90 1143.42 509.10
00002393 00000149 992.97 106.80 403.20 553.31 1019.39 343.82 1152.54 321.83 1014.26 406.69 1029.55 534.51 1140.45 517.25
00002394 00000150 984.35 113.66 412.03 559.44 1019.70 349.18 1163.34 330.86 1008.74 420.67 1026.00 545.35 1137.39 532.25
00002395 00000151 983.01 119.58 413.75 560.48 1018.68 360.37 1158.18 343.03 1003.74 432.97 1023.55 555.44 1133.30 542.67
00002396 00000152 982.63 122.30 406.91 565.00 1014.67 364.55 1152.48 351.41 1000.40 441.52 1023.07 560.08 1132.43 550.19
00002397 00000153 982.50 128.38 405.14 565.24 1013.82 369.54 1150.98 356.77 997.99 446.66 1022.56 565.85 1132.80 555.95
00002398 00000154 983.36 135.60 394.56 560.72 1013.99 369.26 1150.34 359.85 1001.42 449.06 1024.81 567.06 1136.04 559.66
00002399 00000155 983.94 137.67 398.40 560.35 1015.15 371.70 1156.26 362.22 1004.96 450.46 1024.42 569.32 1137.75 562.21
00002400 00000156 985.95 137.37 396.85 558.37 1018.34 367.08 1159.68 359.81 1010.45 448.19 1029.40 565.13 1141.14 559.64
00002401 00000157 988.57 138.22 400.38 555.46 1021.38 364.46 1162.41 357.39 1014.54 446.02 1030.97 562.07 1143.13 556.74
00002402 00000158 991.63 135.38 402.39 552.74 1023.35 365.35 1163.88 354.77 1017.46 442.92 1033.27 561.53 1141.97 553.96
00002403 00000159 991.34 125.63 408.06 558.05 1026.63 360.23 1168.49 350.47 1019.97 438.00 1036.06 556.21 1144.50 549.74
00002404 00000160 993.65 121.00 413.50 558.23 1028.30 359.52 1172.74 346.37 1023.28 433.15 1038.93 553.38 1148.73 544.38
00002405 00000161 993.82 120.34 417.55 555.95 1032.36 353.92 1178.67 339.17 1027.50 426.29 1038.68 549.54 1149.00 539.55
00002406 00000162 995.58 112.73 412.72 554.25 1033.09 348.61 1180.20 331.49 1028.27 418.99 1038.03 544.10 1149.34 532.25
00002407 00000163 1000.13 111.83 408.73 549.36 1039.04 346.14 1186.90 328.83 1035.10 415.91 1042.53 540.55 1155.26 528.85
00002408 00000164 1012.42 109.71 398.80 552.44 1040.23 345.00 1174.68 325.27 1043.88 410.46 1046.93 535.62 1155.16 520.49
00002409 00000165 1017.98 107.06 400.27 552.74 1046.74 340.55 1184.21 322.11 1053.50 406.52 1050.98 531.13 1161.94 517.14
