Video ID: 	F2_2mTguqlc
H: 	1080
W: 	1920
FPS: 	24.0

FRAME INDEX X0 Y0 W H [Landmarks (5 Points)]

00006850 00000000 618.24 197.41 331.38 548.36 839.57 427.34 897.59 418.39 960.44 513.64 851.98 617.40 893.24 613.20
00006851 00000001 618.13 194.82 330.45 549.22 837.31 425.10 897.30 415.56 958.79 511.28 851.67 617.57 892.82 612.80
00006852 00000002 617.35 194.28 328.45 544.23 836.07 421.93 898.90 410.70 958.70 506.10 854.14 613.63 897.32 607.15
00006853 00000003 616.87 185.44 326.73 548.49 835.15 422.06 895.92 408.94 959.12 501.41 854.66 608.62 895.77 600.63
00006854 00000004 617.47 184.81 326.34 549.36 834.67 420.52 893.09 408.36 957.22 500.77 851.67 606.06 891.19 599.23
00006855 DELETE   620.89 181.92 321.40 554.14 834.62 424.66 892.59 413.20 955.18 507.09 844.86 605.82 884.41 600.85
00006856 00000006 620.60 176.53 318.06 560.72 836.20 426.52 886.85 414.07 954.79 508.80 846.37 606.85 878.67 601.27
00006857 00000007 619.20 180.12 314.53 558.66 831.72 425.21 886.24 412.42 952.81 508.71 840.88 608.23 875.16 602.72
00006858 00000008 610.80 183.08 317.41 552.38 826.81 424.31 885.10 410.03 948.15 504.20 839.76 606.96 875.93 599.70
00006859 00000009 605.53 185.05 321.07 547.23 819.05 425.57 884.93 410.53 942.85 503.68 837.42 608.37 878.96 600.19
00006860 00000010 601.80 196.08 326.44 540.03 810.35 417.90 883.15 410.08 930.09 502.94 828.24 610.88 884.86 604.75
00006861 00000011 597.62 192.21 328.82 546.42 808.91 416.88 873.69 408.10 926.35 500.82 824.05 611.88 874.64 605.30
00006862 00000012 593.59 186.75 332.11 551.96 805.43 415.66 864.80 403.64 923.64 499.02 821.83 614.45 866.72 605.55
00006863 00000013 587.28 187.55 338.73 544.46 801.04 412.47 863.15 399.86 921.71 493.35 822.94 607.75 870.16 597.84
00006864 00000014 585.89 184.27 338.00 546.12 798.59 408.68 858.98 397.53 918.88 485.90 823.25 601.50 871.20 592.48
00006865 00000015 587.98 181.07 334.87 551.32 798.03 406.43 854.52 395.68 919.56 482.61 823.53 601.73 867.18 593.40
00006866 00000016 589.12 179.83 333.55 552.13 797.89 405.79 854.24 394.91 920.27 481.75 825.45 602.64 868.24 594.09
00006867 00000017 590.45 180.24 332.00 546.57 797.22 406.27 856.66 394.21 917.45 481.30 824.41 598.63 870.65 588.97
00006868 00000018 591.56 181.48 330.22 547.40 801.26 407.03 857.81 396.14 919.28 484.26 824.77 601.99 868.18 593.22
00006869 00000019 594.60 181.63 325.67 550.12 805.38 406.45 856.00 397.29 919.91 486.61 823.39 604.32 862.04 597.25
00006870 00000020 594.49 181.11 325.05 550.51 805.81 407.18 854.65 397.63 919.42 486.44 822.77 603.02 860.78 595.70
00006871 00000021 592.73 182.14 326.21 546.98 803.55 407.00 855.78 397.57 918.81 486.66 821.15 600.82 862.49 593.56
00006872 00000022 588.19 181.23 330.28 547.28 801.74 405.24 853.78 396.79 918.22 485.71 819.46 598.71 861.29 592.31
00006873 00000023 584.77 178.31 332.49 549.82 797.55 402.30 850.46 393.84 918.54 483.18 816.52 595.18 858.97 589.09
00006874 00000024 577.53 175.06 334.66 553.87 791.83 402.45 844.76 393.60 915.93 484.23 810.64 595.62 852.87 589.43
00006875 00000025 574.36 177.09 337.68 553.20 789.93 402.16 845.37 394.57 914.13 484.45 808.36 595.41 852.58 590.29
00006876 00000026 572.00 174.84 341.06 552.30 790.77 402.05 845.64 391.37 915.87 478.78 815.02 593.13 858.75 584.83
00006877 00000027 572.58 172.83 342.51 550.43 788.31 401.58 847.79 389.76 917.27 477.02 818.02 592.49 864.08 583.23
00006878 00000028 574.79 174.32 342.49 550.56 790.72 400.26 850.89 389.49 918.50 475.86 819.21 591.57 866.51 583.26
00006879 00000029 576.12 172.39 337.51 555.53 800.11 402.94 853.31 388.98 925.47 482.64 814.06 587.30 863.95 579.66
00006880 00000030 576.84 175.81 338.77 555.01 799.70 400.72 855.50 388.14 926.90 481.85 813.40 588.32 864.98 581.72
00006881 00000031 581.13 177.55 337.68 549.55 802.73 401.09 860.24 387.29 927.92 483.24 814.62 586.67 867.65 579.05
00006882 00000032 584.31 174.16 335.87 551.57 807.06 402.46 864.14 387.48 931.32 484.76 815.89 585.65 869.37 577.15
00006883 00000033 587.04 175.87 336.98 547.41 810.16 402.35 869.46 389.48 933.11 485.53 819.66 584.42 874.87 577.47
00006884 00000034 591.66 175.22 335.66 545.52 813.32 402.73 875.00 390.53 937.11 488.55 824.66 584.85 880.72 578.32
00006885 00000035 594.67 174.26 334.57 548.66 815.11 402.89 883.36 394.37 938.74 488.93 823.51 583.38 885.99 579.26
00006886 00000036 596.62 171.95 332.02 555.63 817.86 400.38 882.66 393.97 940.52 487.97 821.80 583.86 882.06 581.70
00006887 00000037 598.02 172.33 331.80 555.96 820.08 397.39 883.23 392.68 942.28 487.06 820.45 583.00 878.70 582.55
00006888 00000038 598.42 171.80 332.47 556.28 821.64 396.87 883.03 388.58 944.65 484.80 819.69 580.32 879.66 577.36
00006889 00000039 597.82 166.99 332.70 553.42 823.39 396.64 883.96 387.57 946.91 484.38 821.51 576.14 880.33 572.94
00006890 00000040 598.43 165.82 333.46 551.35 823.34 394.76 883.06 384.60 947.21 482.39 822.43 573.35 881.09 569.31
00006891 00000041 597.25 168.19 335.26 547.62 821.74 393.20 881.96 381.96 946.46 480.56 822.68 573.15 881.02 568.40
00006892 00000042 594.72 169.78 338.99 546.39 818.90 391.30 876.15 375.86 944.57 477.05 823.04 573.93 879.45 565.90
00006893 00000043 590.32 175.20 342.56 541.04 813.63 392.69 872.31 374.78 943.16 476.24 820.57 574.36 878.67 564.18
00006894 00000044 588.01 173.77 344.50 541.08 809.46 388.23 872.83 372.25 942.45 472.19 821.02 573.04 881.41 564.01
00006895 00000045 588.20 174.37 346.25 538.24 804.49 387.14 872.46 367.72 939.78 468.96 820.82 572.91 884.27 561.16
00006896 00000046 588.43 171.19 345.81 540.79 801.45 384.31 870.74 363.20 938.10 465.92 820.86 572.92 884.56 559.98
00006897 00000047 590.25 169.83 345.11 540.10 801.97 384.31 870.93 362.92 939.57 465.62 823.19 572.62 886.65 559.56
00006898 00000048 592.15 174.00 344.36 538.20 802.11 384.87 873.66 365.95 939.06 466.22 822.64 572.79 889.23 561.72
00006899 00000049 594.47 172.89 343.52 540.46 806.28 384.43 875.63 366.58 941.21 467.77 823.82 572.75 889.23 562.52
00006900 00000050 600.13 175.45 338.52 537.53 808.34 385.43 876.16 369.32 939.51 468.68 824.91 572.64 889.23 563.73
00006901 00000051 599.56 180.25 338.08 535.13 808.75 385.03 873.96 370.76 938.97 468.53 825.26 572.85 888.24 565.24
00006902 00000052 597.45 169.19 336.64 544.86 806.97 381.58 871.23 364.87 939.77 466.27 825.61 572.80 886.12 563.40
00006903 00000053 593.37 168.40 337.86 545.74 803.88 380.20 864.54 360.45 939.02 464.04 825.99 573.70 882.46 562.09
00006904 00000054 587.06 171.79 339.97 543.96 799.43 381.32 857.19 360.63 935.07 464.76 822.10 575.30 875.74 563.07
00006905 00000055 578.78 170.39 342.73 542.95 792.44 381.43 850.72 363.74 928.71 463.84 820.36 575.34 874.00 564.94
00006906 00000056 573.03 171.19 340.98 540.15 782.65 379.29 839.32 362.17 918.06 459.91 815.83 573.11 867.38 563.47
00006907 00000057 566.45 172.04 341.38 538.11 776.19 381.26 832.08 364.96 912.32 459.86 814.09 575.73 864.96 566.71
00006908 00000058 561.48 170.55 340.69 534.78 769.53 378.73 826.33 361.65 906.74 456.12 812.19 575.42 860.66 565.61
00006909 DELETE   555.07 167.81 343.27 534.17 762.67 376.24 823.31 362.22 899.21 452.52 810.33 571.53 860.97 563.57
00006910 00000060 545.44 166.23 347.05 534.14 750.54 373.00 818.03 363.14 884.51 446.27 806.28 567.61 860.47 561.36
00006911 DELETE   537.36 167.52 352.82 532.92 739.56 373.04 812.00 361.59 874.14 443.95 798.96 566.73 854.79 557.99
00006912 00000062 539.03 165.13 345.82 534.17 738.34 376.80 828.62 357.72 881.23 451.74 782.42 568.42 860.60 556.27
00006913 00000063 537.79 162.25 343.45 531.75 733.06 376.02 824.44 353.45 876.55 449.32 781.58 567.36 858.78 552.29
00006914 00000064 533.18 163.34 347.64 527.25 722.61 373.66 807.19 349.27 871.58 433.29 786.35 559.51 848.39 543.08
00006915 00000065 534.34 158.83 345.08 532.15 724.55 374.04 804.61 349.32 872.49 434.29 788.71 560.10 845.72 543.59
00006916 00000066 531.86 162.79 354.25 537.80 734.20 367.83 801.32 358.75 864.96 438.65 791.62 561.80 843.91 554.61
00006917 00000067 530.88 164.42 355.67 540.42 731.84 366.31 799.40 359.19 862.79 440.06 787.02 563.12 840.31 557.53
00006918 00000068 535.51 164.22 344.68 539.11 731.90 371.53 818.91 352.88 874.03 450.14 772.54 568.37 847.79 556.69
00006919 00000069 531.94 166.11 344.34 535.30 727.54 374.11 815.69 350.61 871.46 450.83 767.91 569.02 844.63 553.55
00006920 00000070 526.26 168.11 347.03 529.52 722.63 373.78 809.60 346.86 866.62 450.55 764.20 567.92 839.28 549.59
00006921 00000071 524.70 167.75 347.63 529.65 721.16 371.55 807.52 347.06 865.96 449.48 763.35 567.34 836.93 551.09
00006922 00000072 525.62 168.72 345.76 525.96 721.70 370.19 805.78 344.45 866.41 448.54 764.84 566.53 834.82 549.51
00006923 00000073 525.79 168.29 348.92 523.56 721.80 370.70 807.06 343.08 867.40 445.83 768.04 565.22 838.77 546.21
00006924 00000074 527.28 166.72 348.19 522.97 722.58 368.64 808.70 340.92 868.38 442.76 770.71 563.55 841.57 544.19
00006925 00000075 530.13 162.97 346.60 526.62 723.93 367.35 809.82 339.18 869.68 442.31 773.61 563.97 844.44 544.29
00006926 00000076 527.93 163.80 357.22 523.47 723.27 363.33 795.01 349.75 855.41 430.43 784.05 554.99 842.37 543.97
00006927 00000077 533.19 160.95 346.62 526.94 719.71 367.12 800.31 341.54 872.35 426.35 789.66 557.07 845.32 539.42
00006928 00000078 534.14 157.46 348.82 530.94 724.78 365.53 801.15 341.90 877.50 424.47 797.97 556.72 850.69 540.57
00006929 00000079 537.19 156.16 354.07 532.28 740.58 364.51 806.76 349.73 874.95 432.28 805.71 557.70 857.69 546.06
00006930 00000080 540.52 158.78 351.34 529.46 743.89 366.30 808.98 351.40 877.26 434.52 807.38 559.02 858.07 547.40
00006931 00000081 540.13 163.43 342.34 527.69 731.81 369.04 807.06 347.28 884.55 433.68 801.56 562.74 853.50 548.72
00006932 00000082 540.83 157.97 348.82 533.81 745.15 366.27 810.54 351.35 878.07 436.84 805.83 562.69 855.74 551.33
00006933 00000083 540.37 157.45 350.36 535.96 743.75 365.59 810.23 352.03 877.34 437.86 806.03 564.59 856.30 554.42
00006934 00000084 537.97 157.49 354.38 535.93 742.48 364.23 811.24 350.58 877.34 436.01 805.09 563.87 856.51 553.22
00006935 00000085 538.20 158.83 352.45 534.29 742.52 365.17 809.36 351.59 876.16 436.11 806.17 563.09 857.04 552.58
00006936 00000086 537.47 156.73 354.08 533.75 742.64 364.37 810.81 351.40 876.56 435.62 805.63 562.26 857.16 552.18
00006937 00000087 538.69 156.72 354.71 533.37 743.13 365.59 812.42 351.62 879.12 436.15 807.57 562.79 860.55 552.08
00006938 00000088 541.19 158.59 354.17 533.04 745.06 366.38 812.98 350.94 883.05 436.20 810.74 563.59 863.35 552.05
00006939 00000089 542.73 155.68 354.63 534.53 749.42 363.65 819.14 348.49 887.45 434.90 812.42 561.61 866.43 550.50
00006940 00000090 544.27 155.04 355.46 534.40 752.22 362.93 824.10 347.31 890.84 434.74 811.33 558.88 867.49 547.61
00006941 00000091 543.34 152.98 356.75 536.64 752.26 362.35 825.29 347.19 891.06 434.59 811.51 559.38 867.93 548.44
00006942 00000092 541.64 152.58 358.59 536.21 751.44 362.48 824.74 346.92 890.09 434.09 810.77 559.01 867.51 547.60
00006943 00000093 539.85 151.64 357.98 534.45 748.65 360.84 824.41 348.20 887.31 432.54 809.86 556.89 868.27 547.32
00006944 00000094 540.75 151.26 356.93 533.72 747.12 360.67 822.02 345.41 884.82 431.84 805.69 555.28 863.90 544.10
00006945 00000095 539.56 154.23 342.93 528.44 729.17 363.65 817.22 341.71 887.04 429.10 796.74 556.53 862.53 541.91
00006946 00000096 540.19 153.15 342.03 529.05 726.71 360.13 814.61 339.52 884.40 425.63 795.36 553.68 861.03 539.90
00006947 00000097 537.13 151.95 350.43 529.76 732.20 353.80 813.06 338.64 881.81 421.05 796.12 544.15 865.84 534.21
00006948 00000098 539.01 154.20 343.50 526.63 726.18 358.17 812.42 337.71 883.84 423.13 796.41 552.77 859.26 539.07
00006949 00000099 540.05 153.66 341.79 527.82 727.33 358.64 812.79 338.43 885.03 424.20 797.17 553.58 858.57 540.26
00006950 00000100 539.51 152.68 342.23 528.42 727.88 357.96 812.87 338.11 885.17 423.12 796.48 551.90 857.89 538.93
00006951 00000101 539.73 151.65 342.22 530.40 726.80 356.88 812.04 337.31 884.85 422.13 796.48 552.04 857.99 539.18
00006952 00000102 536.35 150.18 350.32 530.64 731.07 350.03 811.27 337.05 879.83 418.70 796.37 542.55 865.38 534.38
00006953 00000103 536.20 148.88 350.17 532.66 730.45 349.68 811.71 336.11 879.58 418.69 795.39 543.28 864.82 534.64
00006954 00000104 539.24 145.90 342.09 536.46 727.10 351.54 814.02 332.18 886.32 418.69 796.60 550.70 857.57 538.10
00006955 00000105 538.29 142.40 344.91 539.27 724.16 352.42 813.46 331.82 883.20 418.45 793.88 550.19 857.24 536.23
00006956 00000106 538.07 144.71 344.16 537.90 725.99 352.53 813.39 332.31 884.71 418.68 795.38 549.95 856.75 536.59
00006957 00000107 537.07 146.17 349.62 534.24 730.47 347.86 810.74 332.21 879.31 416.15 794.88 541.50 863.49 531.09
00006958 00000108 539.16 143.75 354.44 537.82 749.60 341.83 813.87 334.86 882.59 422.41 805.71 549.23 853.34 544.49
00006959 00000109 541.54 142.41 354.47 539.08 753.30 339.83 816.50 332.06 886.55 420.51 810.61 548.17 857.66 542.88
00006960 00000110 542.15 140.12 356.53 537.49 755.03 338.45 817.82 328.91 889.26 417.93 814.69 544.71 861.78 538.14
00006961 00000111 542.83 139.08 357.96 536.96 755.63 337.97 820.60 329.33 891.53 417.58 818.89 545.59 867.16 539.86
00006962 00000112 543.45 134.02 357.93 543.70 761.80 343.81 822.92 334.41 897.02 421.20 824.26 547.17 870.73 541.07
00006963 00000113 541.63 134.59 359.43 540.47 745.83 354.52 810.58 341.14 892.80 412.65 816.92 538.90 877.99 531.75
00006964 DELETE   551.29 129.33 357.57 553.09 772.83 354.49 823.22 340.54 907.03 431.06 838.24 552.99 879.77 544.53
00006965 00000115 565.50 133.97 355.13 555.50 785.13 360.79 831.75 346.39 919.96 437.88 844.60 555.24 886.02 547.26
00006966 DELETE   581.07 141.41 342.49 548.24 796.28 361.81 846.48 345.82 929.55 441.38 847.06 557.13 889.08 547.53
00006967 DELETE   584.64 144.95 341.58 544.62 797.67 366.79 861.04 349.05 932.45 439.34 847.27 563.39 887.51 551.28
00006968 00000118 596.02 155.50 332.59 532.02 801.40 368.21 858.91 347.63 931.83 437.69 853.61 567.61 900.26 551.14
00006969 00000119 597.72 152.92 332.81 532.94 802.89 367.02 860.67 346.12 935.20 436.76 854.59 565.59 901.72 548.83
00006970 00000120 595.55 157.77 332.47 530.45 800.64 366.12 857.87 348.46 934.04 437.49 847.70 564.48 896.69 550.63
00006971 00000121 592.60 159.00 332.89 533.92 798.93 367.45 854.01 350.55 930.68 441.07 840.08 567.77 887.24 555.14
00006972 00000122 594.49 148.10 328.94 552.98 805.97 363.42 851.11 349.55 934.72 450.14 835.08 560.64 874.46 553.62
00006973 00000123 597.80 148.77 327.11 558.65 807.65 367.31 852.48 352.73 937.20 454.83 832.79 566.35 872.83 559.03
00006974 00000124 593.80 160.61 338.12 549.75 810.86 377.52 858.42 358.87 942.95 464.20 831.93 573.28 875.67 563.01
00006975 00000125 595.40 166.48 339.43 548.48 816.61 385.58 863.92 367.25 944.16 471.25 832.55 576.99 879.28 566.96
00006976 DELETE   600.00 165.62 335.13 553.62 817.42 397.03 871.55 380.49 943.49 478.39 834.09 581.33 887.84 571.38
00006977 00000127 604.26 168.61 330.03 557.51 818.84 401.33 879.13 394.04 939.56 483.60 835.81 585.30 893.40 581.39
00006978 00000128 605.01 170.46 327.72 560.85 820.47 400.42 879.79 397.51 936.92 484.23 836.03 587.33 892.05 586.61
00006979 00000129 604.42 170.30 327.85 557.40 819.55 401.00 875.97 396.01 936.60 484.06 835.19 586.00 889.24 584.09
00006980 00000130 600.71 175.71 335.82 543.59 804.03 393.67 860.46 386.75 929.31 467.53 838.49 585.66 881.75 580.56
00006981 00000131 595.07 176.30 340.11 536.29 803.38 389.97 858.14 383.49 923.89 464.23 832.88 578.61 877.62 574.34
00006982 00000132 594.73 166.28 334.40 537.45 810.68 387.64 857.65 369.12 937.96 471.92 832.31 575.06 875.61 564.57
00006983 00000133 593.26 159.38 332.69 537.98 808.73 381.02 855.24 363.83 937.34 465.67 832.88 570.13 872.85 560.61
00006984 00000134 593.64 154.62 327.91 540.52 805.07 374.37 851.39 361.09 930.52 460.07 831.43 565.25 871.57 558.53
00006985 00000135 590.84 152.36 329.01 542.84 804.01 370.74 850.83 358.65 928.98 457.22 831.32 564.13 870.33 558.01
00006986 00000136 589.26 152.05 329.56 542.37 802.30 371.89 849.48 360.14 926.73 457.09 830.94 563.99 871.01 558.15
00006987 00000137 587.92 154.35 334.43 543.24 803.17 376.66 852.26 361.05 930.42 460.09 831.02 566.34 874.01 557.90
00006988 00000138 583.37 161.46 341.00 541.60 801.91 381.30 854.99 362.62 933.35 463.74 827.90 571.45 874.94 560.68
00006989 00000139 581.30 164.92 341.22 540.34 799.27 387.19 853.36 365.28 931.21 468.13 825.70 575.84 875.07 562.39
00006990 00000140 580.64 165.29 343.68 541.97 800.13 389.96 854.24 367.13 933.36 469.87 826.41 577.51 876.47 563.37
00006991 00000141 580.01 167.74 343.73 539.98 800.17 391.05 853.41 367.76 933.01 470.57 826.89 577.64 876.86 563.27
00006992 00000142 581.30 169.09 343.87 537.55 799.99 388.36 855.02 367.14 932.76 469.37 826.96 576.76 877.65 564.17
00006993 00000143 581.63 166.82 343.68 537.87 799.52 387.28 856.29 366.63 931.89 468.46 827.19 575.37 878.98 562.98
00006994 00000144 577.92 166.19 345.19 538.80 797.23 384.97 853.29 364.46 931.14 466.93 824.87 575.28 875.52 563.14
00006995 00000145 575.39 164.43 344.11 540.39 794.44 382.72 851.49 366.09 926.74 464.84 823.30 573.62 874.58 564.26
00006996 00000146 570.15 164.00 344.54 537.99 790.03 381.37 847.76 367.48 920.94 463.16 820.08 573.19 870.50 565.85
00006997 00000147 565.33 162.90 343.40 537.54 782.25 379.92 841.58 369.05 911.43 459.50 818.60 571.39 869.42 565.89
00006998 00000148 559.39 159.28 346.83 538.22 778.35 378.76 835.84 367.10 906.70 457.09 819.53 569.45 868.41 563.30
00006999 00000149 556.49 157.91 347.92 539.03 774.07 378.76 833.42 366.30 903.10 455.26 816.81 569.18 866.91 562.34
00007000 00000150 555.14 159.78 347.51 537.80 770.97 377.70 831.26 365.96 901.55 455.00 815.43 570.48 865.97 564.13
00007001 00000151 555.64 158.69 346.45 538.75 769.63 376.71 829.32 364.04 902.67 453.53 815.84 571.46 865.32 564.54
00007002 00000152 557.71 160.73 347.05 540.81 771.10 380.40 827.07 365.13 904.54 456.80 816.57 574.03 864.91 565.86
00007003 00000153 560.31 167.55 345.46 537.60 771.30 380.79 830.07 367.48 902.54 457.93 814.41 573.33 865.96 566.08
00007004 00000154 564.18 166.11 346.61 545.57 774.87 380.95 832.44 367.61 906.81 459.40 815.11 574.10 868.25 567.21
00007005 00000155 570.43 166.19 345.49 546.08 782.57 384.14 843.76 370.13 915.61 462.87 816.25 574.88 873.01 567.59
00007006 00000156 574.73 166.78 344.70 543.67 791.15 386.94 849.23 369.70 925.31 466.21 820.45 576.34 873.78 566.38
00007007 00000157 577.58 166.51 342.81 545.60 796.77 391.16 850.45 369.25 929.78 469.96 820.69 579.17 870.49 565.78
00007008 00000158 579.59 167.05 340.43 547.92 799.55 393.08 850.31 373.17 930.01 472.70 822.64 580.93 870.16 569.10
00007009 00000159 580.02 167.34 337.24 552.38 802.43 396.99 852.53 376.64 933.39 476.71 819.47 583.20 867.02 571.04
00007010 00000160 578.62 169.03 338.79 557.19 799.60 400.59 849.70 381.38 928.33 479.24 816.20 585.22 866.36 573.97
00007011 00000161 575.41 173.53 337.90 552.63 797.07 401.39 844.53 385.79 923.48 481.31 815.19 586.91 862.88 578.29
00007012 00000162 573.48 173.51 337.75 551.28 795.28 400.11 841.70 384.35 922.01 481.01 814.12 587.09 860.89 578.19
00007013 00000163 575.25 175.10 336.56 550.49 794.78 399.88 840.32 383.27 922.49 480.31 814.55 586.67 861.05 577.37
00007014 00000164 572.44 174.78 337.87 551.86 792.42 400.75 837.65 384.88 920.42 481.22 814.23 588.59 860.37 579.54
00007015 00000165 570.95 177.83 335.69 551.22 787.12 403.08 835.66 387.51 916.06 481.96 810.73 590.93 858.99 582.06
00007016 00000166 567.72 179.90 336.38 554.31 781.82 409.85 833.59 395.75 908.75 485.96 809.68 595.91 859.20 587.68
00007017 00000167 563.03 188.26 336.12 547.72 775.72 416.56 832.22 402.49 903.99 489.57 806.09 600.74 859.00 592.18
00007018 00000168 561.15 188.72 335.81 548.92 774.67 418.76 832.61 404.14 903.22 491.91 803.30 603.44 856.23 594.15
00007019 00000169 561.69 190.90 334.80 548.77 774.82 419.97 832.47 404.24 903.15 493.16 801.13 604.80 854.06 594.78
00007020 00000170 563.90 178.59 333.94 556.23 775.71 414.48 837.78 398.74 909.06 492.23 807.36 607.43 854.07 595.89
