Video ID: 	o-XtYHZBMBQ
H: 	1080
W: 	1920
FPS: 	25.0

FRAME INDEX X0 Y0 W H [Landmarks (5 Points)]

00000439 00000000 716.41 224.52 380.88 544.81 751.45 432.53 892.36 431.83 775.44 553.23 793.77 643.17 901.10 642.11
00000440 00000001 714.22 217.90 379.34 554.24 752.82 430.89 895.30 425.73 775.64 545.76 794.06 643.36 906.63 638.42
00000441 00000002 710.29 229.39 382.89 545.63 752.20 433.89 898.50 427.48 778.06 547.84 795.06 646.26 909.75 640.11
00000442 00000003 708.91 227.63 385.08 547.41 751.82 430.26 900.03 423.89 779.59 546.42 795.66 642.86 913.02 636.70
00000443 DELETE   709.41 218.90 389.11 555.96 753.18 430.16 903.48 425.03 782.18 548.12 796.04 644.28 914.47 639.45
00000444 00000005 710.94 222.67 389.33 546.81 755.24 429.24 906.30 424.93 786.20 549.50 798.22 644.15 913.66 639.68
00000445 00000006 720.47 221.01 382.95 546.95 763.00 425.14 918.36 427.42 802.61 560.95 810.86 643.58 924.21 644.12
00000446 00000007 726.01 229.26 377.68 536.74 768.15 425.57 925.97 429.78 813.22 561.38 812.49 640.36 928.20 642.52
00000447 00000008 725.29 222.03 382.65 544.31 770.96 426.37 925.08 427.18 808.57 550.36 808.36 636.52 927.90 636.94
00000448 00000009 729.58 206.94 379.25 547.72 770.09 429.20 932.28 424.08 815.28 548.10 803.48 635.69 937.71 632.04
00000449 00000010 732.91 208.77 377.56 550.28 773.71 427.40 936.28 422.54 818.85 547.62 807.95 635.75 943.60 632.98
00000450 00000011 736.77 211.81 376.15 553.51 778.14 426.51 940.54 419.67 823.69 544.15 811.88 637.61 946.76 633.91
00000451 00000012 740.86 211.11 374.00 552.11 780.03 424.89 942.91 418.05 823.79 544.36 812.94 637.05 948.96 633.17
00000452 00000013 744.41 210.42 373.97 551.14 782.96 424.15 946.47 416.76 826.92 542.98 816.07 636.30 953.80 631.67
00000453 00000014 745.21 211.16 374.78 547.38 783.59 421.89 949.29 415.05 830.17 543.72 818.56 636.07 956.65 631.40
00000454 00000015 747.45 214.36 372.98 540.44 786.75 419.03 953.23 414.28 834.66 542.85 821.04 631.86 960.80 628.48
00000455 00000016 748.47 210.56 372.88 538.98 788.62 419.89 954.83 414.67 838.05 541.76 821.66 629.62 960.91 625.37
00000456 00000017 747.47 215.80 374.49 529.97 788.45 422.41 955.73 418.77 839.46 545.81 820.87 630.59 960.60 627.10
00000457 00000018 746.11 215.71 384.43 529.28 796.10 418.53 967.00 424.43 852.66 551.77 826.66 625.11 959.85 629.37
00000458 00000019 746.05 219.49 378.16 528.87 789.21 426.67 961.66 424.94 843.86 552.11 819.92 636.22 964.36 634.38
00000459 00000020 746.43 221.73 386.71 525.76 797.87 422.25 973.64 430.48 857.99 561.22 827.40 630.15 964.36 636.15
00000460 00000021 746.94 220.83 387.97 529.04 797.99 423.62 976.20 432.28 859.31 566.39 828.78 632.79 967.26 638.96
00000461 00000022 747.22 223.18 389.84 530.85 797.49 428.73 976.34 437.07 859.02 573.63 828.91 636.86 968.21 642.46
00000462 00000023 747.31 223.07 383.21 537.02 796.15 436.33 972.75 437.70 852.68 570.70 825.99 648.95 970.81 649.35
00000463 00000024 745.68 215.25 388.25 549.09 790.16 425.47 969.22 440.73 844.62 579.16 825.77 647.26 964.51 661.11
00000464 00000025 744.69 217.00 389.50 550.61 789.54 427.82 969.72 442.10 843.42 581.51 825.81 651.14 963.09 664.21
00000465 00000026 743.58 223.48 389.17 545.20 790.39 429.48 968.77 445.73 842.80 582.75 825.44 651.12 959.82 665.81
00000466 00000027 742.51 224.78 390.72 547.77 791.48 429.84 970.83 447.67 844.96 584.52 826.00 650.91 960.63 666.86
00000467 00000028 743.44 226.30 389.16 550.95 792.78 431.61 972.23 451.84 844.97 587.74 825.66 651.92 959.37 669.72
00000468 00000029 742.75 226.87 391.46 553.15 793.12 432.14 973.20 453.38 845.34 588.91 825.19 652.56 959.27 671.19
00000469 00000030 741.87 231.19 393.13 549.80 792.92 432.21 975.37 455.13 845.15 590.46 823.64 653.45 960.51 673.47
00000470 00000031 743.23 234.33 392.51 548.28 795.05 435.87 976.79 459.95 846.50 592.83 824.99 655.40 961.30 676.38
00000471 00000032 744.34 239.23 392.84 544.88 795.88 438.85 977.64 462.84 847.50 594.70 825.21 659.26 960.47 680.28
00000472 00000033 743.65 247.43 393.42 538.30 797.62 439.57 979.77 465.69 849.74 597.31 824.39 658.49 960.63 681.16
00000473 00000034 745.38 247.27 391.87 539.55 797.95 444.81 981.74 469.77 851.36 600.42 823.25 664.69 960.21 686.68
00000474 00000035 744.57 253.50 391.14 534.52 796.48 447.55 982.07 472.43 851.98 603.40 822.13 667.36 959.80 689.24
00000475 00000036 745.32 249.43 390.40 540.18 797.99 450.39 982.90 474.31 853.41 605.40 822.32 669.80 960.82 691.04
00000476 00000037 743.39 259.80 392.72 529.34 796.96 454.72 978.23 464.81 850.01 601.17 823.92 671.35 968.14 678.50
00000477 00000038 743.17 261.84 392.66 528.08 797.39 456.41 979.04 466.37 851.07 602.24 825.86 673.59 968.25 680.70
00000478 00000039 745.55 255.01 387.56 541.65 805.34 455.31 984.14 472.59 856.61 607.95 823.34 671.28 957.72 685.69
00000479 00000040 744.96 250.91 388.01 546.30 804.80 454.06 984.14 471.17 855.91 606.56 822.84 671.48 957.16 685.69
00000480 00000041 744.99 250.56 389.01 542.29 797.85 450.13 983.53 475.37 852.95 607.18 819.93 672.21 958.70 694.66
00000481 00000042 745.82 251.73 388.22 540.60 798.44 449.65 985.29 474.25 853.83 606.62 820.75 673.48 958.59 695.52
00000482 00000043 746.68 252.56 387.42 541.35 799.33 449.02 985.83 473.87 853.57 604.93 820.97 674.44 957.46 696.73
00000483 00000044 745.66 251.86 389.66 552.60 806.17 452.33 988.05 468.41 857.54 604.00 826.01 676.41 958.28 689.83
00000484 00000045 745.12 251.32 394.44 563.65 804.56 453.80 989.51 468.88 856.07 605.27 828.92 680.84 961.41 693.05
00000485 00000046 745.53 252.35 396.89 576.19 806.19 456.12 989.73 471.69 855.57 605.64 829.51 687.02 958.98 699.68
00000486 00000047 746.00 253.26 397.90 577.67 805.90 456.72 989.84 471.37 855.80 606.35 831.02 690.42 959.44 702.51
00000487 00000048 745.80 250.25 397.25 580.49 805.33 457.46 988.86 471.30 856.01 607.29 830.30 691.66 958.89 703.10
00000488 00000049 745.55 245.70 397.50 585.65 806.04 458.87 988.34 471.31 856.92 607.71 831.23 692.92 960.27 703.20
00000489 00000050 745.20 249.64 397.78 582.95 804.99 460.38 988.33 472.87 858.02 609.09 831.19 694.15 960.00 704.55
00000490 00000051 744.87 246.10 398.21 586.68 804.89 462.60 987.93 475.08 856.11 609.98 831.03 695.30 959.63 705.78
00000491 00000052 745.17 253.79 397.66 578.70 804.13 463.96 985.97 476.08 856.23 612.22 831.38 696.61 959.48 706.85
00000492 00000053 744.83 262.70 397.99 571.70 803.04 465.72 985.29 477.14 857.01 614.41 831.28 698.15 959.64 707.72
00000493 00000054 745.41 263.54 398.42 571.72 804.65 465.96 984.69 478.95 856.07 615.05 831.19 697.86 958.78 708.88
00000494 00000055 745.60 261.87 397.90 573.23 805.20 466.02 985.27 479.68 856.37 616.40 829.83 697.74 958.98 709.26
00000495 00000056 745.46 266.87 397.50 567.71 805.37 465.24 986.11 480.63 857.09 617.42 829.46 696.83 959.03 709.68
00000496 00000057 745.09 267.23 397.97 567.99 806.13 465.75 986.77 481.85 857.54 617.38 829.33 696.57 959.52 710.05
00000497 00000058 745.22 271.41 398.16 565.32 806.63 466.10 987.18 482.58 857.37 617.33 828.72 696.42 959.26 710.30
00000498 00000059 745.09 268.95 398.44 568.39 807.45 466.92 987.57 482.91 857.66 616.84 829.48 696.71 959.64 710.24
00000499 00000060 745.54 268.68 397.59 569.11 807.21 466.67 988.11 482.92 857.64 616.83 828.66 696.40 960.06 710.10
00000500 00000061 746.30 271.37 396.42 565.62 807.35 466.53 987.82 483.24 858.16 616.77 829.34 696.34 959.66 710.32
00000501 00000062 746.61 274.65 396.77 562.58 807.46 466.44 988.45 484.14 859.10 618.51 830.18 696.16 960.77 710.92
00000502 00000063 747.34 271.43 396.12 566.75 807.62 466.43 989.77 484.65 859.75 620.37 830.23 696.65 962.74 711.76
00000503 00000064 748.56 277.34 394.52 563.42 810.50 467.46 991.01 487.50 860.46 621.05 832.66 698.35 963.19 714.80
00000504 00000065 748.75 274.51 393.10 565.70 810.75 468.19 991.02 487.83 861.09 621.94 832.76 698.69 963.06 714.77
00000505 00000066 750.24 276.87 391.55 563.45 812.14 469.45 992.11 489.62 861.99 623.27 834.19 698.99 964.81 715.50
00000506 00000067 750.21 273.20 393.09 565.92 811.94 469.71 992.03 489.09 862.77 623.72 835.44 699.20 965.33 715.05
00000507 00000068 752.55 275.64 391.19 562.04 813.09 469.13 993.36 489.11 864.18 624.85 837.23 698.59 967.01 714.81
00000508 00000069 753.52 276.98 391.06 561.49 814.29 468.53 994.25 488.87 864.73 624.63 837.28 698.38 966.74 715.02
00000509 00000070 755.09 278.10 389.70 559.65 814.91 467.04 994.68 486.55 865.85 624.70 838.61 698.70 967.81 714.72
00000510 00000071 754.59 275.97 390.89 562.10 814.78 467.51 994.77 486.34 866.04 623.73 838.84 698.60 967.72 714.13
00000511 00000072 754.52 275.60 391.00 562.34 814.92 467.55 994.96 486.33 866.22 623.88 838.45 698.69 968.31 714.11
00000512 00000073 755.41 272.93 388.52 565.60 813.66 467.47 994.52 486.38 865.05 624.22 839.77 701.85 966.12 717.25
00000513 00000074 755.12 273.60 389.85 565.58 814.18 467.04 995.11 486.80 864.90 624.26 839.77 701.43 966.24 717.59
00000514 00000075 755.72 276.70 389.82 562.00 814.27 466.55 995.13 486.42 864.69 624.69 840.00 702.12 965.80 718.39
00000515 00000076 754.94 274.36 391.34 563.93 813.73 466.83 993.92 486.50 863.82 624.84 839.54 701.70 965.48 717.80
00000516 00000077 754.66 277.14 391.81 563.64 814.30 468.18 994.47 487.37 863.58 626.41 840.67 703.47 965.69 719.12
00000517 00000078 753.39 280.15 392.02 557.99 809.87 470.26 989.29 487.66 858.76 625.80 837.88 704.80 963.87 718.58
00000518 00000079 751.61 275.44 391.70 564.70 809.41 472.06 988.97 489.51 858.41 627.73 836.78 705.43 963.97 719.38
00000519 00000080 750.56 279.28 390.27 558.42 808.17 471.38 987.04 489.49 856.73 627.43 834.94 704.90 961.10 719.37
00000520 00000081 750.23 278.76 390.81 559.29 806.67 470.45 985.84 488.13 854.83 626.06 833.52 704.94 960.98 719.04
00000521 00000082 749.68 277.63 392.01 562.06 809.18 469.96 988.99 487.95 860.08 625.41 832.93 702.49 961.34 717.24
00000522 00000083 748.85 274.37 392.60 565.08 808.84 468.19 989.09 487.45 859.44 624.19 832.15 700.27 960.82 716.14
00000523 00000084 748.76 271.34 391.48 566.58 809.01 467.64 988.81 485.48 860.59 622.13 832.46 699.55 961.31 714.25
00000524 00000085 749.03 271.18 392.43 567.06 809.44 465.73 988.90 482.74 861.45 620.40 833.73 699.29 962.11 713.34
00000525 00000086 749.60 268.89 395.88 566.97 810.61 463.90 992.99 482.34 862.32 619.14 833.41 695.96 964.38 711.44
00000526 00000087 750.07 267.13 395.16 568.01 810.81 462.80 993.06 480.55 862.49 616.94 833.83 694.95 964.35 709.79
00000527 00000088 750.06 262.02 396.15 572.26 811.31 462.26 993.33 479.65 862.61 615.28 834.59 694.58 964.55 709.25
00000528 00000089 750.28 263.59 394.84 570.76 811.54 462.66 993.55 480.41 862.62 615.59 834.06 694.28 964.26 709.25
00000529 00000090 751.44 265.11 393.50 568.27 813.61 463.41 994.08 481.86 862.96 613.94 835.09 693.47 964.28 709.00
00000530 00000091 752.43 266.92 393.68 567.13 814.40 462.56 994.88 482.02 863.24 614.44 836.21 693.23 965.57 709.51
00000531 00000092 754.19 268.10 391.95 564.72 815.89 463.44 995.61 482.84 864.61 614.87 838.61 693.20 966.55 709.35
00000532 00000093 754.30 269.18 390.33 565.08 815.83 464.40 995.91 484.78 864.25 617.65 839.00 693.58 967.66 710.36
00000533 00000094 754.98 269.07 390.22 564.77 816.30 465.42 995.84 485.15 865.18 618.84 839.86 694.91 967.89 711.11
00000534 00000095 755.94 271.44 389.85 562.07 817.18 466.25 996.24 485.93 865.07 618.35 841.12 695.75 967.64 711.89
00000535 00000096 757.96 269.54 388.63 563.70 818.78 465.24 997.14 485.14 866.02 618.65 842.36 695.77 968.58 712.05
00000536 00000097 760.92 271.58 386.80 560.31 821.55 465.33 998.55 485.12 867.78 617.58 845.31 695.22 969.76 711.46
00000537 00000098 762.83 265.45 384.83 566.01 822.38 464.12 999.54 481.85 868.66 613.61 846.40 695.06 970.67 709.81
00000538 00000099 763.46 253.66 385.13 575.11 821.93 461.93 997.70 477.20 869.76 608.58 846.87 692.46 968.13 705.20
00000539 00000100 766.48 249.70 385.17 576.76 824.45 459.98 998.92 473.86 874.11 605.50 850.96 690.79 969.68 702.35
00000540 00000101 768.54 246.07 384.68 576.88 827.88 457.56 1001.86 471.98 878.26 602.76 852.69 687.46 970.32 699.56
00000541 00000102 769.65 244.24 384.63 576.39 829.90 455.50 1003.09 470.73 880.36 602.98 854.77 685.76 973.05 698.68
00000542 00000103 772.58 243.14 383.64 579.15 830.82 456.22 1005.87 471.11 883.75 604.31 856.99 688.22 976.60 700.83
00000543 00000104 771.40 250.43 385.14 572.92 833.29 464.99 1001.36 473.96 882.46 598.68 856.08 690.02 978.93 697.09
00000544 00000105 773.15 257.86 384.58 569.14 834.78 466.87 1004.54 476.48 883.47 602.01 857.00 692.78 981.56 700.62
00000545 00000106 775.11 260.96 384.99 567.72 837.21 466.36 1006.08 476.66 884.80 602.52 859.10 693.10 983.34 701.65
00000546 00000107 775.76 258.19 386.49 569.15 839.04 466.18 1008.67 474.65 888.45 600.55 860.59 692.95 985.30 700.27
00000547 00000108 777.91 255.29 385.66 570.34 841.10 466.19 1012.04 474.79 890.65 599.36 861.07 692.55 987.48 700.00
00000548 00000109 778.40 259.30 386.28 568.12 842.36 467.20 1012.20 477.01 890.11 602.95 862.91 693.90 988.55 702.41
00000549 00000110 781.49 269.19 382.49 560.94 843.66 468.78 1014.48 480.80 889.84 606.93 862.27 695.66 990.18 705.98
00000550 00000111 787.62 270.80 384.37 557.91 843.35 467.97 1023.11 482.86 896.74 613.10 868.97 698.55 995.41 710.94
00000551 00000112 787.13 269.08 380.34 563.37 847.75 471.35 1016.63 484.03 893.03 609.57 866.48 697.59 995.24 708.43
00000552 00000113 791.19 271.10 376.97 560.03 851.48 472.34 1018.73 484.03 896.43 607.58 868.56 696.46 997.03 706.88
00000553 00000114 794.32 272.70 377.11 559.71 855.15 472.11 1022.48 484.48 899.25 607.42 870.78 695.57 999.47 706.93
00000554 00000115 796.98 272.28 375.32 559.42 856.72 473.25 1024.14 484.82 901.71 607.77 873.26 696.48 1001.05 707.40
00000555 00000116 799.00 270.34 382.91 560.10 855.96 468.95 1033.75 483.19 907.64 613.39 879.45 697.72 1002.81 709.85
00000556 00000117 799.13 274.20 376.21 557.14 858.32 474.75 1026.15 485.52 903.97 608.94 876.63 697.41 1003.38 707.84
00000557 00000118 800.95 273.45 384.83 559.56 859.51 471.61 1037.99 484.93 911.63 614.90 882.25 699.07 1005.59 710.51
00000558 00000119 803.69 276.94 381.56 555.78 860.66 471.74 1038.85 484.66 912.26 614.14 882.42 699.20 1005.98 710.34
00000559 00000120 803.39 279.63 374.40 548.45 857.43 467.91 1039.61 484.82 912.82 619.40 878.52 699.52 1008.45 714.39
00000560 00000121 802.56 271.52 381.73 562.13 858.43 471.00 1035.75 484.26 907.81 613.33 881.52 700.15 1003.40 711.53
00000561 00000122 802.58 273.14 380.60 559.83 857.93 469.20 1035.12 483.29 906.66 610.58 880.21 698.72 1002.27 710.85
00000562 00000123 801.81 274.59 375.42 559.81 857.13 472.46 1024.78 482.19 900.56 604.58 874.62 697.36 1002.66 706.89
00000563 00000124 802.93 271.97 380.04 561.45 857.50 467.82 1034.80 482.11 905.86 610.23 879.67 698.60 1001.76 710.92
00000564 00000125 802.08 271.32 380.21 562.24 856.88 468.66 1033.92 483.18 904.96 611.40 878.91 699.02 1001.78 711.52
00000565 00000126 800.49 272.89 374.10 561.02 856.30 471.97 1022.34 482.66 898.93 604.15 871.77 697.29 998.58 707.60
00000566 00000127 799.63 267.07 375.40 565.57 856.82 469.26 1022.08 478.33 899.39 600.45 872.15 696.10 998.38 705.13
00000567 00000128 799.21 256.58 377.89 573.68 857.46 465.99 1021.87 473.99 900.12 596.76 873.64 693.05 1000.44 700.98
00000568 00000129 800.51 255.84 377.24 573.06 858.68 465.73 1023.20 472.55 901.91 596.44 876.43 692.47 1003.61 699.37
00000569 00000130 799.25 254.72 377.99 572.67 857.86 464.09 1023.34 470.62 901.93 595.72 875.94 690.90 1003.97 697.44
00000570 00000131 797.30 255.97 377.21 569.64 856.62 460.81 1020.56 468.06 899.45 591.58 873.70 686.96 1001.25 693.86
00000571 00000132 794.00 252.03 379.21 568.45 854.88 456.17 1020.64 463.93 898.56 587.27 871.19 682.23 998.28 689.52
00000572 00000133 792.54 247.55 378.73 571.13 854.25 456.29 1019.12 464.90 898.10 585.74 869.69 680.37 996.79 688.23
00000573 00000134 791.11 250.87 378.82 566.89 852.01 454.81 1017.98 463.04 896.77 585.42 868.07 680.18 995.32 687.84
00000574 00000135 790.35 249.34 378.32 568.30 851.67 454.57 1018.52 463.22 896.11 585.05 866.75 679.12 994.69 687.08
00000575 00000136 789.35 250.73 378.50 566.37 851.11 454.98 1017.46 463.91 895.99 585.42 866.89 679.90 993.12 688.18
00000576 00000137 788.47 251.92 379.28 565.79 850.09 456.31 1015.75 465.81 894.80 587.12 865.56 680.11 991.62 688.76
00000577 00000138 786.28 253.05 377.07 560.89 848.04 454.11 1014.76 463.88 893.26 585.52 863.76 678.52 989.23 687.30
00000578 00000139 784.48 250.09 377.87 562.15 845.99 451.79 1013.06 460.69 892.10 582.70 860.75 677.17 985.78 685.22
00000579 00000140 784.65 249.93 376.28 560.14 844.26 450.75 1011.27 459.69 889.40 583.05 858.28 675.38 985.08 683.43
00000580 00000141 784.02 251.11 376.23 558.52 843.30 450.05 1010.58 459.35 888.47 583.11 858.71 675.07 984.92 683.43
00000581 00000142 782.35 252.27 375.78 556.37 842.31 448.65 1008.14 460.41 884.76 584.79 856.72 673.78 981.02 684.05
00000582 00000143 781.81 257.11 376.45 550.65 841.39 447.56 1007.64 459.55 883.70 584.55 855.44 671.99 979.82 682.45
00000583 00000144 781.83 254.12 376.20 551.43 840.74 447.17 1005.45 459.98 880.72 583.66 854.39 670.09 978.65 681.28
00000584 00000145 780.66 251.45 376.55 550.76 839.84 445.57 1005.11 458.02 880.49 582.91 853.94 668.08 978.75 678.92
00000585 00000146 780.49 246.62 376.79 555.94 839.97 444.17 1005.56 456.52 880.46 580.99 853.23 665.99 980.19 676.71
00000586 00000147 778.69 244.97 379.63 555.52 839.48 441.45 1006.65 455.95 879.92 580.37 851.09 662.65 980.58 674.84
00000587 00000148 778.41 241.02 378.55 556.31 839.38 440.96 1006.45 456.74 880.03 580.67 849.34 660.92 979.19 674.31
00000588 00000149 778.42 243.92 377.59 550.97 839.06 440.64 1006.41 455.19 880.12 579.48 849.07 660.16 980.47 672.68
00000589 00000150 777.37 240.15 377.98 552.21 837.59 438.53 1006.04 455.76 877.99 579.91 847.18 657.40 979.23 671.93
00000590 00000151 777.36 239.01 378.18 551.26 837.18 439.49 1005.84 456.33 877.35 580.25 847.57 656.79 979.26 670.91
00000591 00000152 775.88 242.93 379.71 546.14 836.27 439.70 1005.14 455.54 877.64 579.73 848.62 656.41 979.44 669.60
00000592 00000153 776.35 242.04 381.46 548.14 835.47 438.81 1004.90 455.25 876.31 580.28 850.08 655.48 980.40 669.10
00000593 00000154 776.51 240.74 379.90 546.76 834.87 438.83 1004.71 454.45 876.68 578.73 848.59 653.80 980.68 666.76
00000594 00000155 776.02 237.12 381.12 550.69 834.40 436.34 1004.98 452.69 876.29 575.74 848.82 651.00 982.03 664.55
00000595 00000156 772.34 227.27 385.83 560.42 827.05 429.87 1005.23 450.96 867.66 571.86 839.37 643.98 980.19 661.69
00000596 00000157 769.43 219.16 388.34 565.70 825.17 428.21 1004.00 448.35 867.19 567.89 838.15 641.87 979.25 658.74
00000597 00000158 768.22 218.56 390.79 564.43 823.55 427.31 1003.56 447.73 866.43 566.74 836.93 640.86 979.16 657.79
00000598 00000159 766.74 217.04 392.03 566.51 821.77 426.62 1003.32 448.30 865.23 566.87 834.77 639.76 979.08 657.52
00000599 00000160 766.56 222.42 390.93 558.96 820.84 425.97 1002.45 447.80 864.70 567.05 834.19 638.48 978.46 656.10
00000600 00000161 765.60 220.02 391.69 557.87 820.58 426.72 1000.94 449.12 863.40 566.73 835.18 638.13 975.99 656.11
00000601 00000162 765.70 217.46 387.50 561.67 820.79 426.17 999.78 448.03 864.69 565.67 834.08 640.47 971.94 658.19
CROP_BBOX: 490 0 1465 1019
