Video ID: 	tuog1uwkX2E
H: 	1080
W: 	1920
FPS: 	25.0

FRAME INDEX X0 Y0 W H [Landmarks (5 Points)]

00008541 00000000 867.83 186.46 445.27 672.58 905.35 446.16 1042.10 478.00 886.17 597.46 910.26 689.24 1014.89 716.34
00008542 00000001 866.97 176.79 448.02 691.69 903.74 452.59 1059.57 487.58 900.91 606.74 910.76 695.20 1028.05 725.26
00008543 00000002 863.96 195.55 459.11 686.05 904.25 461.12 1063.40 491.11 905.02 619.45 919.58 711.35 1033.74 736.64
00008544 00000003 857.62 211.60 461.29 678.79 899.66 468.15 1055.04 495.35 900.77 623.54 915.30 716.68 1032.14 739.27
00008545 00000004 856.92 209.86 457.25 684.91 902.24 468.81 1048.23 495.41 898.54 619.59 919.93 714.17 1034.81 735.84
00008546 00000005 855.18 203.35 448.28 676.19 895.97 463.31 1039.86 493.22 889.14 617.76 913.00 705.40 1026.97 730.21
00008547 00000006 857.19 187.00 438.56 677.20 893.40 454.71 1038.81 488.49 883.34 607.84 902.33 690.99 1019.09 719.79
00008548 00000007 860.69 179.70 439.31 682.20 903.64 444.89 1033.90 481.03 874.65 594.23 907.29 681.92 1011.84 712.06
00008549 00000008 859.29 192.57 441.63 667.71 907.81 443.02 1028.62 473.26 867.80 581.59 909.27 679.94 1009.02 704.61
00008550 00000009 855.61 191.31 437.49 656.98 911.70 435.76 1024.26 467.95 859.40 572.38 900.96 674.19 992.74 700.71
00008551 00000010 855.56 200.51 436.31 644.13 915.58 435.36 1023.55 467.67 858.74 568.96 902.78 672.62 992.38 698.95
00008552 00000011 861.79 188.82 436.93 659.81 920.30 437.85 1029.86 468.00 868.85 566.29 912.85 671.32 1003.95 696.02
00008553 DELETE   872.04 176.62 447.73 676.72 933.84 433.74 1050.15 461.36 888.89 570.64 931.30 674.86 1021.70 697.35
00008554 00000013 881.13 178.02 452.67 673.58 933.25 437.43 1062.96 456.66 905.77 574.91 942.49 681.87 1043.44 695.86
00008555 00000014 893.15 175.88 447.55 665.21 935.50 433.59 1078.75 463.33 916.78 578.56 951.89 676.10 1063.26 699.87
00008556 00000015 905.28 163.50 447.97 679.34 938.94 425.36 1096.68 457.61 933.68 579.72 954.11 675.96 1071.69 703.30
00008557 00000016 917.37 166.00 444.97 687.73 955.28 424.28 1110.59 458.21 950.54 577.37 954.17 677.59 1066.23 707.53
00008558 00000017 920.53 164.26 444.78 695.12 961.26 422.69 1114.28 456.94 953.22 578.28 956.12 682.82 1065.13 713.25
00008559 00000018 907.04 162.99 447.37 689.92 944.95 424.12 1106.08 458.14 944.14 580.61 951.88 686.01 1063.73 715.41
00008560 00000019 899.13 168.10 443.80 678.56 937.41 427.34 1094.73 463.82 930.50 576.77 944.02 683.80 1053.40 714.71
00008561 DELETE   884.52 174.39 447.16 677.23 932.64 432.82 1081.19 469.04 916.15 576.13 933.21 683.15 1039.75 712.85
00008562 DELETE   874.00 177.36 455.29 673.06 932.92 436.31 1069.99 469.93 902.97 573.43 925.75 684.83 1023.62 711.59
00008563 00000022 877.17 175.51 445.31 679.73 933.04 434.10 1063.70 457.44 900.83 571.44 923.15 684.69 1015.99 704.93
00008564 00000023 868.28 177.74 455.81 685.61 926.33 436.61 1071.34 469.86 905.03 577.96 924.58 693.51 1025.66 719.95
00008565 00000024 875.29 183.29 457.51 694.77 933.65 433.90 1073.04 459.81 909.94 582.81 939.41 694.78 1049.62 715.46
00008566 00000025 877.63 184.16 456.09 690.34 928.46 440.70 1072.83 463.16 914.04 587.32 946.93 696.56 1056.99 713.69
00008567 00000026 875.65 186.44 455.60 677.60 921.78 443.00 1064.69 467.55 907.47 590.42 939.25 686.84 1056.39 705.40
00008568 00000027 870.31 196.23 450.68 659.22 915.82 440.55 1055.83 470.30 900.84 587.66 930.58 677.75 1042.63 701.95
00008569 00000028 864.41 190.34 450.47 660.19 908.11 439.08 1044.47 466.74 889.86 586.56 921.39 676.55 1031.34 699.60
00008570 00000029 861.23 197.21 447.91 653.51 903.81 440.65 1036.52 468.07 884.25 587.29 918.17 675.12 1027.59 697.91
00008571 00000030 860.53 187.90 440.66 678.98 907.80 441.41 1025.24 466.38 878.34 583.01 925.71 679.28 1029.68 699.05
00008572 00000031 846.38 177.73 441.87 675.48 891.95 443.97 1014.40 462.84 860.38 583.16 903.77 686.02 1006.24 701.55
00008573 00000032 836.03 185.90 441.86 661.98 883.54 444.45 1001.62 460.50 845.18 579.71 893.33 686.77 991.72 699.71
00008574 00000033 830.84 184.41 440.13 664.74 888.81 448.71 1000.93 458.22 836.99 575.97 894.41 686.96 988.81 692.06
00008575 00000034 823.28 188.52 447.66 678.75 887.04 447.81 990.22 456.03 828.40 576.91 900.82 688.61 996.01 690.53
00008576 00000035 811.97 191.88 460.82 685.58 869.73 448.20 986.52 458.09 832.01 578.35 888.69 690.64 995.89 694.68
00008577 00000036 809.25 177.45 462.70 692.84 874.11 444.25 980.15 446.54 825.93 571.05 894.94 691.11 990.64 688.67
00008578 00000037 804.28 179.68 459.87 673.51 852.60 445.13 976.41 436.99 827.83 574.06 885.35 688.04 984.51 678.24
00008579 00000038 804.37 169.59 452.24 677.49 847.26 443.31 966.70 431.07 821.16 571.46 880.60 685.66 976.70 672.34
00008580 00000039 789.37 172.29 453.08 669.81 833.22 447.86 958.50 434.00 814.10 563.80 863.85 685.25 967.01 674.04
00008581 00000040 777.74 173.13 455.43 670.55 817.64 455.80 942.82 432.57 800.96 566.92 852.39 690.40 957.43 671.19
00008582 DELETE   765.17 161.95 453.22 683.35 797.98 466.05 927.68 436.33 789.58 580.72 845.80 693.77 952.37 668.03
00008583 DELETE   744.08 164.57 460.97 689.13 785.97 474.24 910.39 445.32 775.81 593.59 841.66 706.33 941.30 680.17
00008584 00000043 734.52 192.43 460.01 672.13 789.13 483.93 900.18 463.42 762.58 597.50 839.41 710.04 925.99 689.31
00008585 00000044 734.73 211.83 453.30 655.34 789.05 483.81 890.76 470.72 754.19 608.62 839.67 708.57 924.66 692.96
00008586 00000045 728.67 231.49 455.32 638.89 784.27 485.25 885.07 473.65 751.21 613.27 836.68 707.45 925.00 692.82
00008587 00000046 728.97 232.92 453.49 637.09 786.03 485.36 882.57 476.45 749.33 613.37 836.60 706.26 921.78 693.71
00008588 00000047 731.75 232.11 453.69 636.54 789.96 480.91 884.97 474.98 750.98 613.03 839.67 705.13 926.05 694.69
00008589 00000048 736.66 228.41 451.81 637.81 792.85 483.35 891.14 475.13 757.54 613.12 843.69 707.44 931.27 695.33
00008590 00000049 737.62 233.25 454.58 633.06 789.79 483.89 895.52 477.29 760.31 614.24 843.21 707.00 935.31 696.88
00008591 00000050 739.17 218.00 452.21 647.61 794.69 488.41 894.17 480.39 763.31 614.20 849.39 708.06 936.04 696.74
00008592 00000051 740.04 213.65 451.69 656.46 797.46 489.19 893.06 482.57 763.13 619.44 851.94 710.74 934.66 700.24
00008593 00000052 740.65 210.42 448.85 664.61 800.86 488.58 888.88 483.20 761.29 625.22 855.44 713.74 934.94 703.47
00008594 00000053 741.67 219.99 444.98 657.09 806.39 490.48 883.57 485.39 758.53 625.72 857.47 714.98 932.54 704.64
00008595 00000054 739.19 214.17 445.60 664.56 808.40 486.91 879.16 484.68 758.98 624.29 858.65 713.57 929.23 705.54
00008596 00000055 743.51 211.62 446.41 667.72 813.04 482.14 883.01 481.73 762.40 622.71 860.64 713.44 930.87 707.23
00008597 00000056 748.55 210.47 444.30 665.49 811.57 486.32 891.14 480.09 768.51 618.61 860.29 713.22 936.51 702.60
00008598 00000057 751.65 219.59 446.54 656.48 811.94 486.09 898.59 479.53 773.10 619.55 862.14 714.21 942.81 703.65
00008599 00000058 753.70 221.60 442.23 655.75 812.68 488.31 899.25 481.98 774.64 619.21 861.61 714.22 942.50 703.91
00008600 00000059 753.52 220.30 441.26 656.02 814.07 489.69 899.01 482.68 774.78 617.87 859.98 714.92 938.54 704.31
00008601 00000060 753.68 223.14 441.98 651.27 813.57 490.14 898.45 483.33 774.41 618.08 859.58 714.58 938.03 704.17
00008602 00000061 754.58 219.39 440.36 654.10 813.25 488.43 899.96 482.90 775.02 618.94 860.29 715.49 937.96 706.37
00008603 00000062 755.25 219.49 440.59 653.43 812.21 489.01 901.00 484.03 775.86 619.76 860.48 716.57 937.53 708.12
00008604 00000063 756.36 227.57 440.02 639.11 809.52 484.24 907.85 482.22 778.86 619.43 857.69 715.35 938.57 709.62
00008605 00000064 756.82 226.02 441.53 636.78 807.95 482.88 910.66 481.26 779.61 617.57 854.92 714.48 936.17 709.15
00008606 00000065 755.28 219.59 444.12 642.01 805.60 480.29 912.72 478.17 779.81 616.10 852.95 715.17 933.55 709.69
00008607 00000066 754.92 219.24 443.62 643.22 805.28 482.29 913.52 480.23 780.64 617.02 851.94 715.70 933.08 710.36
00008608 00000067 755.22 223.84 442.31 638.01 804.17 483.06 914.31 481.58 781.67 619.01 851.73 716.65 933.08 711.87
00008609 00000068 755.28 224.98 442.28 636.07 803.49 481.80 916.67 481.00 782.81 618.46 851.49 716.20 933.96 712.19
00008610 00000069 755.58 212.24 441.73 645.89 808.54 481.74 907.33 485.96 779.80 619.27 844.51 706.25 928.12 708.55
00008611 00000070 760.14 198.85 444.41 660.37 812.06 478.43 912.67 482.40 781.05 613.87 842.62 706.99 926.57 709.41
00008612 00000071 764.39 201.08 443.09 654.73 814.70 474.50 917.76 478.88 783.09 611.17 844.79 704.21 929.53 707.24
00008613 00000072 765.81 201.52 446.30 654.41 813.42 471.62 921.67 479.04 786.50 616.07 848.27 703.36 935.43 709.00
00008614 00000073 766.25 192.70 448.07 658.94 813.16 474.72 924.38 478.51 790.74 612.43 848.07 703.20 936.12 705.95
00008615 00000074 769.16 197.85 446.86 657.41 816.17 474.35 928.39 480.21 793.97 613.81 849.97 704.45 937.84 709.04
00008616 00000075 772.81 199.05 449.65 662.67 821.20 474.14 931.82 480.54 795.25 614.02 853.91 707.76 938.66 712.54
00008617 00000076 775.66 197.24 448.67 663.53 822.01 474.54 938.01 478.72 800.34 611.12 856.30 708.55 943.53 711.76
00008618 00000077 780.50 198.85 452.19 669.64 827.81 473.25 945.53 474.34 804.87 609.40 863.69 712.68 953.25 712.72
00008619 00000078 789.35 187.12 451.53 686.74 833.35 466.80 955.77 468.85 811.57 604.78 869.06 711.72 961.24 712.04
00008620 00000079 796.52 185.87 459.91 691.82 846.53 463.54 966.87 466.94 820.35 603.38 881.66 711.60 968.37 711.91
00008621 00000080 803.24 194.52 462.69 674.95 857.19 462.19 978.53 467.99 830.63 601.08 890.16 706.63 978.12 708.61
00008622 00000081 808.28 203.10 457.19 656.03 855.10 462.98 988.70 467.94 836.46 594.28 880.88 701.90 977.93 704.18
00008623 00000082 810.70 198.00 456.90 660.16 848.11 464.05 993.30 465.11 840.04 592.71 872.76 705.39 978.64 704.88
00008624 00000083 805.92 189.94 452.41 672.33 842.30 463.54 995.58 469.34 843.25 597.25 863.94 705.17 977.68 709.72
00008625 00000084 800.80 193.74 449.37 674.99 836.02 467.72 990.22 482.80 842.49 613.92 859.37 709.65 973.11 721.93
00008626 00000085 788.81 201.03 466.06 695.07 832.83 481.09 990.54 493.31 842.10 632.31 864.53 729.24 985.32 738.03
00008627 00000086 775.37 215.36 480.20 697.87 825.97 492.62 987.14 502.02 840.66 649.91 869.70 744.83 992.27 751.12
00008628 00000087 774.18 217.68 481.53 694.85 828.56 512.82 1003.41 505.47 859.23 654.73 879.73 758.02 1014.03 750.85
00008629 DELETE   773.18 212.49 498.66 698.78 838.24 515.22 1012.68 500.98 876.33 654.10 895.22 757.83 1029.45 745.53
00008630 DELETE   778.07 208.97 502.07 702.53 849.28 518.60 1018.27 494.15 894.58 645.88 911.06 752.28 1047.24 730.74
00008631 DELETE   785.06 210.27 507.97 705.38 861.17 513.05 1026.05 486.53 908.36 642.89 931.45 750.01 1060.88 727.23
00008632 00000091 782.66 200.87 516.51 718.83 860.24 512.58 1033.81 467.99 921.52 629.39 947.28 757.83 1081.82 719.49
00008633 00000092 791.11 200.69 514.96 703.32 870.50 507.34 1044.77 468.45 929.64 633.02 952.87 746.29 1087.96 712.50
00008634 00000093 795.31 201.45 511.41 692.39 877.54 500.30 1054.19 462.22 942.61 624.92 962.58 740.13 1092.38 707.04
00008635 00000094 796.05 201.18 511.68 683.98 878.36 499.55 1055.94 458.87 945.01 619.28 964.69 739.12 1091.97 703.91
00008636 00000095 796.74 193.91 508.75 690.28 877.93 499.46 1054.34 454.17 944.63 613.24 963.68 737.05 1094.57 697.72
00008637 00000096 795.21 192.28 511.15 692.05 877.69 497.39 1054.10 451.05 943.56 609.52 961.13 732.51 1096.26 692.27
00008638 00000097 795.87 196.21 506.21 686.02 878.18 494.49 1051.96 450.36 943.74 607.84 958.42 725.41 1093.32 687.21
00008639 00000098 795.58 194.49 504.65 685.96 875.46 495.49 1048.33 451.96 938.73 609.63 954.22 725.70 1090.03 688.04
00008640 00000099 794.20 194.69 504.31 686.67 872.44 497.29 1047.57 454.37 935.84 614.01 952.08 731.09 1086.46 694.23
00008641 00000100 792.50 195.80 504.44 685.97 868.43 499.96 1046.65 456.59 933.22 619.15 948.92 733.49 1087.29 696.36
00008642 00000101 790.94 197.83 505.85 687.06 867.80 500.60 1045.81 457.23 933.34 623.68 948.39 734.89 1089.41 697.79
00008643 00000102 786.50 204.42 508.17 685.79 865.16 504.11 1043.52 461.55 932.79 630.05 944.34 739.16 1085.93 703.02
00008644 00000103 781.01 204.39 508.68 696.99 860.77 512.55 1037.21 466.69 928.25 636.38 941.30 746.05 1083.80 707.21
00008645 00000104 775.06 209.71 511.50 697.66 856.85 516.95 1029.98 469.25 923.76 639.41 941.54 751.10 1080.19 710.87
00008646 00000105 767.47 213.93 510.96 702.99 852.50 520.77 1021.34 473.57 918.97 643.20 937.54 754.27 1077.68 714.11
00008647 00000106 764.09 217.91 511.72 703.03 850.71 528.20 1015.96 479.29 916.56 649.64 937.84 757.58 1078.51 715.67
00008648 00000107 757.19 223.25 516.74 701.94 844.07 529.92 1012.08 479.78 912.65 651.39 935.09 760.65 1077.08 717.38
00008649 00000108 756.60 227.66 510.05 698.81 847.04 528.36 1017.14 481.63 913.36 648.72 930.72 756.70 1069.73 715.69
00008650 00000109 752.98 227.25 511.13 699.30 843.48 532.99 1013.35 484.24 910.92 649.34 928.61 760.65 1065.52 718.17
00008651 00000110 747.89 223.16 517.92 704.93 835.13 541.01 1004.81 483.11 903.87 652.57 926.23 769.94 1068.29 719.67
00008652 00000111 745.96 223.98 518.30 700.21 832.39 537.05 1005.36 481.95 902.49 650.98 923.45 768.25 1065.04 720.54
00008653 00000112 747.68 222.86 516.28 691.73 832.32 532.55 1007.46 481.01 902.89 648.35 919.85 761.52 1063.06 717.00
00008654 00000113 747.14 221.72 516.70 691.27 831.95 532.63 1006.69 481.55 901.88 648.03 919.41 762.59 1060.10 718.62
00008655 00000114 746.00 222.20 517.03 693.70 831.82 534.06 1005.75 483.03 901.90 649.13 919.62 764.07 1059.52 720.07
00008656 00000115 746.99 223.03 516.55 694.02 833.01 534.92 1005.75 482.15 902.55 648.46 921.54 763.99 1061.16 718.51
00008657 00000116 747.50 222.13 516.73 691.47 832.23 532.61 1007.45 481.22 902.72 647.10 919.99 762.41 1060.27 718.26
00008658 00000117 749.10 221.13 515.51 692.53 832.16 532.68 1007.38 480.74 902.09 647.58 919.61 763.12 1060.90 718.36
00008659 00000118 747.45 221.45 517.22 693.62 832.20 535.25 1005.65 481.85 901.99 649.11 920.50 764.42 1061.78 718.35
00008660 00000119 748.35 223.72 517.75 691.80 833.32 537.35 1005.07 481.71 903.36 649.95 924.18 765.60 1064.48 717.56
00008661 00000120 750.46 223.87 517.19 689.71 833.97 536.98 1006.54 481.78 903.34 650.35 923.89 764.67 1065.13 717.05
00008662 00000121 750.26 225.40 519.09 689.20 834.17 535.59 1007.70 481.40 904.81 651.46 925.37 764.47 1066.69 717.70
00008663 00000122 753.63 223.01 519.36 691.25 837.36 534.11 1009.76 481.95 906.62 652.44 928.10 762.36 1068.55 717.49
00008664 00000123 760.29 223.38 514.44 683.20 849.24 523.99 1019.52 480.54 912.09 645.19 934.90 753.22 1063.31 715.39
00008665 00000124 759.42 220.82 517.36 686.81 841.20 525.57 1014.99 479.28 908.59 649.47 929.33 756.05 1069.35 716.46
00008666 00000125 760.73 218.75 517.96 690.45 843.03 524.47 1014.91 478.04 909.08 647.56 930.23 755.62 1069.09 715.95
00008667 00000126 761.65 218.55 516.86 688.23 841.02 523.29 1014.72 477.27 905.23 646.48 925.09 754.54 1066.30 715.14
00008668 00000127 759.60 217.70 516.99 686.83 839.50 524.96 1011.61 477.20 902.58 645.10 923.80 754.26 1065.60 713.10
00008669 00000128 757.73 216.37 516.36 690.46 837.69 526.53 1006.84 477.23 897.50 642.19 921.62 754.77 1061.64 712.08
CROP_BBOX: 510 0 1583 1080
