Video ID: 	8uFteQUhpLg
H: 	1080
W: 	1920
FPS: 	25.0

FRAME INDEX X0 Y0 W H [Landmarks (5 Points)]

00006946 00000000 767.13 241.48 393.79 505.88 978.86 434.92 1115.19 439.22 1080.27 562.02 966.49 626.61 1061.81 630.76
00006947 00000001 774.05 243.79 392.29 506.03 980.83 436.35 1119.49 441.73 1082.08 563.94 968.46 628.79 1066.70 634.11
00006948 00000002 779.93 244.91 392.11 505.78 984.92 437.37 1126.85 446.50 1086.79 565.51 970.06 629.49 1072.01 638.04
00006949 00000003 785.06 247.80 393.10 506.05 988.68 439.05 1132.02 446.76 1091.07 570.01 974.04 632.79 1076.48 640.44
00006950 00000004 784.60 250.28 397.19 511.95 1004.81 433.22 1140.60 449.91 1102.35 576.54 978.43 628.27 1072.04 645.53
00006951 00000005 789.29 247.95 395.70 519.20 1010.09 434.33 1145.97 450.13 1107.39 578.90 982.52 630.63 1076.86 647.30
00006952 00000006 793.00 251.26 394.38 517.79 1015.82 442.21 1148.92 454.15 1106.99 584.24 980.24 640.94 1076.70 651.55
00006953 00000007 795.70 251.97 399.53 517.02 1019.27 443.20 1154.03 454.46 1112.42 582.96 984.74 640.92 1082.88 650.85
00006954 00000008 800.05 254.55 400.64 514.06 1021.85 445.75 1156.86 457.68 1112.00 585.42 986.10 642.27 1082.31 652.60
00006955 00000009 802.95 257.10 398.32 509.40 1023.68 447.14 1157.28 459.56 1112.00 585.58 986.97 641.88 1082.56 652.55
00006956 00000010 804.21 257.47 399.02 508.50 1024.84 446.62 1158.94 458.44 1113.47 585.69 988.27 642.21 1083.64 652.40
00006957 00000011 803.91 257.12 399.49 508.72 1025.10 445.32 1158.72 457.18 1113.19 585.83 987.89 641.86 1082.68 652.12
00006958 00000012 802.59 255.16 397.16 508.95 1023.13 444.03 1158.22 455.83 1113.09 584.33 988.75 641.22 1084.08 651.17
00006959 00000013 796.65 249.09 403.60 511.82 1019.29 435.18 1158.35 449.75 1115.67 579.81 990.95 628.28 1086.52 643.60
00006960 DELETE   794.80 249.65 402.02 510.06 1016.80 435.33 1155.42 449.61 1113.83 579.16 989.84 627.41 1084.94 642.47
00006961 00000015 794.08 249.15 401.26 513.41 1015.68 436.11 1154.45 448.84 1113.61 580.44 989.11 629.38 1084.91 643.32
00006962 00000016 792.87 249.12 400.55 516.47 1013.55 435.64 1151.80 449.03 1110.52 581.51 986.94 631.30 1082.49 645.84
00006963 00000017 792.78 249.11 397.72 517.74 1011.31 435.05 1149.61 448.58 1107.81 582.64 982.75 631.42 1079.87 646.23
00006964 00000018 790.87 251.28 395.80 517.29 1012.84 442.33 1147.18 451.31 1104.16 586.12 978.95 642.55 1076.45 650.64
00006965 00000019 788.21 252.27 396.78 517.36 1009.16 440.55 1144.15 449.81 1100.84 585.72 974.90 642.15 1074.31 650.63
00006966 00000020 792.32 252.24 394.01 511.41 993.24 438.60 1141.25 450.25 1097.81 574.74 971.60 637.77 1080.76 649.41
00006967 00000021 788.09 248.76 396.00 512.98 989.43 439.13 1137.85 449.15 1094.73 575.41 969.95 636.86 1078.93 646.89
00006968 00000022 786.09 247.85 395.29 508.27 984.41 439.87 1134.28 445.67 1090.47 573.81 975.40 639.59 1079.43 645.20
00006969 00000023 784.99 245.13 394.81 510.34 982.33 439.19 1134.80 443.93 1090.23 573.93 977.38 642.34 1082.14 646.96
00006970 DELETE   783.37 243.17 394.78 512.27 981.52 438.47 1132.88 443.58 1088.37 572.10 976.78 641.84 1079.78 646.58
00006971 00000025 780.72 242.63 396.43 518.68 983.73 436.28 1130.82 444.59 1089.20 569.57 975.52 641.00 1076.63 648.45
00006972 00000026 778.75 242.86 399.69 521.46 983.62 434.08 1128.94 442.49 1087.79 567.14 972.90 638.66 1073.49 646.06
00006973 DELETE   777.73 241.61 400.17 521.68 981.79 433.48 1128.14 440.67 1087.05 566.07 972.44 638.22 1074.10 644.59
00006974 00000028 776.73 241.15 399.70 519.42 980.50 434.40 1127.71 440.08 1086.03 566.80 973.04 638.58 1074.21 643.64
00006975 00000029 776.71 242.39 397.98 517.42 980.03 436.93 1128.05 442.12 1086.37 569.02 971.98 638.06 1075.05 642.86
00006976 00000030 777.90 242.93 396.91 517.81 980.86 439.00 1128.92 443.79 1088.23 570.43 973.16 638.69 1077.80 643.60
00006977 DELETE   778.23 242.40 398.14 518.59 980.73 438.94 1130.14 443.07 1089.60 571.32 974.38 639.61 1079.82 643.87
00006978 00000032 778.73 240.47 398.33 518.97 980.94 438.78 1130.43 442.77 1090.04 570.88 974.03 639.53 1079.46 643.76
00006979 DELETE   778.57 239.34 396.78 518.33 979.52 439.09 1130.55 442.12 1089.68 570.99 974.12 639.89 1080.44 643.15
00006980 00000034 777.12 239.20 397.58 517.53 977.50 438.07 1129.31 440.24 1088.13 569.49 974.02 639.84 1080.34 642.18
00006981 00000035 776.86 240.09 397.21 517.55 977.41 437.08 1128.33 439.19 1088.04 568.34 974.44 639.95 1079.97 642.22
00006982 00000036 775.46 240.96 399.00 518.63 977.87 436.43 1129.34 437.71 1089.50 568.71 973.97 640.46 1080.12 642.14
00006983 DELETE   774.73 239.39 397.90 517.54 976.28 435.04 1126.76 434.75 1087.37 566.54 975.06 640.36 1078.53 640.55
00006984 DELETE   773.50 238.39 396.22 516.79 974.40 434.69 1126.14 433.68 1087.51 564.63 974.79 638.48 1079.59 638.12
00006985 00000039 770.48 238.65 396.77 516.56 972.54 434.09 1124.01 432.60 1086.22 564.27 975.16 638.97 1078.22 637.95
00006986 DELETE   767.03 238.60 398.79 518.75 969.52 435.10 1121.08 433.23 1083.37 565.05 971.58 639.99 1075.25 638.67
00006987 00000041 766.28 237.38 396.46 518.77 966.96 435.08 1118.54 433.06 1080.64 563.83 971.02 639.90 1073.02 638.12
00006988 00000042 763.27 238.18 395.89 517.94 964.01 433.28 1115.38 431.51 1077.23 563.80 967.32 639.06 1069.48 637.46
00006989 00000043 762.96 237.13 394.23 515.32 963.81 431.59 1113.45 428.37 1073.33 564.24 965.89 637.14 1065.01 634.09
00006990 00000044 758.48 231.40 394.03 518.77 960.14 428.60 1109.50 425.44 1070.56 561.15 961.30 634.06 1062.37 631.11
00006991 00000045 748.71 219.05 398.01 525.88 952.14 427.05 1105.93 424.83 1065.69 561.85 958.00 628.97 1054.83 628.05
00006992 DELETE   742.01 214.36 402.85 529.10 951.45 424.58 1102.21 423.66 1063.76 557.73 953.20 624.85 1048.06 625.44
00006993 DELETE   738.16 209.59 402.43 531.11 946.60 419.74 1094.16 419.71 1054.95 551.13 945.21 620.75 1040.16 622.02
00006994 00000048 725.63 203.70 409.76 533.53 941.48 413.06 1087.22 417.89 1045.54 546.57 935.77 615.95 1031.69 621.34
00006995 DELETE   720.51 192.88 411.62 544.07 930.48 401.38 1077.26 409.78 1027.63 541.95 917.56 609.15 1019.17 617.68
00006996 DELETE   710.75 186.78 412.01 548.71 909.38 386.69 1060.38 403.40 1005.10 535.07 895.73 601.55 998.93 616.91
00006997 00000051 703.15 181.63 407.09 547.40 889.60 380.23 1048.45 394.09 992.01 519.81 892.27 598.47 996.34 609.45
00006998 00000052 698.92 179.05 404.33 543.87 880.14 375.73 1041.08 390.78 980.33 511.82 882.42 590.26 989.42 602.06
00006999 00000053 696.13 177.62 403.59 540.24 875.20 372.08 1036.67 386.91 973.51 505.53 873.73 584.56 983.17 595.97
00007000 00000054 691.84 175.37 400.48 540.18 869.85 368.67 1031.37 382.48 969.69 500.30 866.28 581.27 979.62 592.09
00007001 00000055 687.83 171.77 400.84 543.39 861.44 364.28 1025.52 378.38 963.71 497.53 859.40 579.34 976.85 590.49
00007002 00000056 681.91 165.89 402.84 551.52 856.57 359.51 1020.91 375.34 959.33 495.30 851.98 576.34 972.55 589.07
00007003 00000057 677.10 164.76 403.11 553.87 851.50 356.51 1014.67 371.45 952.82 497.66 846.43 576.09 966.25 587.78
00007004 00000058 674.01 166.27 403.49 551.09 844.78 354.96 1009.39 370.72 945.44 495.53 840.69 573.30 961.70 585.58
00007005 00000059 671.18 161.07 400.43 554.79 839.87 351.93 1003.82 367.35 941.35 495.53 837.60 571.86 957.77 584.03
00007006 00000060 674.22 170.50 392.03 534.81 832.02 355.75 998.33 372.82 939.65 490.44 834.04 567.76 965.61 582.95
00007007 00000061 669.05 162.24 392.32 536.21 823.74 352.66 992.50 368.70 932.84 487.82 828.61 565.80 958.43 579.97
00007008 00000062 661.85 158.08 396.79 540.90 819.32 349.87 988.13 366.34 928.81 487.19 823.84 564.39 952.39 578.39
00007009 00000063 656.10 158.58 398.87 543.23 815.03 349.81 982.29 364.12 924.92 485.11 821.30 565.25 947.70 577.08
00007010 00000064 653.39 155.43 396.02 545.84 811.34 348.87 978.36 363.31 921.14 484.16 817.93 564.58 945.05 576.39
00007011 00000065 649.93 154.25 397.46 546.66 806.61 349.63 973.35 362.86 915.75 482.31 815.27 564.30 942.07 575.07
00007012 00000066 647.06 151.54 398.94 551.54 804.14 347.42 970.66 360.10 913.54 480.22 813.67 563.58 941.30 573.77
00007013 00000067 644.36 149.79 398.72 551.49 799.63 345.85 967.06 357.45 909.51 479.02 810.75 562.10 938.46 571.32
00007014 00000068 642.16 147.66 397.43 548.91 796.19 345.49 962.59 355.10 904.21 478.71 808.53 560.05 934.05 567.61
00007015 00000069 638.57 146.49 394.24 544.00 792.72 344.63 958.39 351.99 899.77 478.43 807.22 560.72 927.11 566.40
00007016 00000070 635.91 142.81 393.37 546.93 788.50 344.42 954.72 350.79 896.36 475.52 805.32 560.33 924.78 564.99
00007017 00000071 632.06 139.33 393.63 549.83 786.18 343.59 951.68 349.44 892.85 473.75 802.95 559.82 920.93 563.85
00007018 00000072 628.37 137.33 394.93 552.32 783.84 342.44 949.63 348.55 890.23 474.15 799.12 558.25 917.03 562.61
00007019 00000073 627.61 136.35 394.31 551.90 779.21 342.14 946.73 348.26 885.10 470.09 795.55 556.75 914.21 561.02
00007020 00000074 626.25 138.57 394.65 549.65 776.25 341.44 944.71 345.60 882.48 469.80 793.96 556.89 912.54 559.62
00007021 00000075 623.91 138.09 393.19 550.17 775.02 340.92 942.40 343.84 881.27 470.54 792.70 556.79 910.41 558.59
00007022 00000076 621.23 139.50 393.33 548.36 772.37 340.25 939.10 341.88 878.98 469.50 791.93 556.48 908.21 557.04
00007023 00000077 619.55 139.08 394.87 547.57 770.80 338.98 938.14 340.14 877.96 468.21 790.51 555.39 907.98 555.50
00007024 00000078 619.55 139.79 394.22 545.79 769.68 338.61 938.15 339.20 877.50 467.14 790.40 555.41 908.30 554.98
00007025 00000079 619.20 139.85 394.77 546.81 769.91 338.87 938.47 339.23 878.25 467.45 791.44 556.41 908.85 555.71
00007026 00000080 619.82 139.25 395.05 549.05 772.17 339.51 939.40 340.00 879.99 468.61 793.44 556.57 910.01 556.06
00007027 00000081 621.49 140.79 393.68 548.26 775.20 339.55 941.15 340.51 882.70 470.24 794.62 556.85 911.16 557.02
00007028 00000082 625.25 138.54 393.14 551.87 778.73 340.45 943.89 343.75 885.58 467.23 797.94 557.47 913.03 559.43
00007029 00000083 628.51 138.25 390.89 555.35 786.84 343.12 948.34 349.57 894.19 469.34 804.54 560.13 917.93 564.74
00007030 00000084 630.38 141.75 393.10 557.17 792.24 345.39 953.49 351.81 900.45 472.51 811.55 562.14 926.05 566.73
00007031 00000085 634.10 146.89 394.99 553.38 795.02 347.91 959.26 355.30 906.27 472.12 815.72 563.53 935.06 568.93
00007032 00000086 638.23 150.62 394.75 548.58 800.61 348.27 964.59 355.97 913.80 471.85 823.34 564.63 941.79 570.06
00007033 00000087 642.84 152.53 394.75 547.80 805.12 351.72 968.36 359.55 919.16 476.80 828.89 568.19 945.12 573.34
00007034 00000088 647.86 160.03 394.76 540.97 818.11 363.21 980.97 372.83 931.44 480.29 836.04 573.58 954.99 580.61
00007035 DELETE   659.72 166.55 390.04 535.71 829.11 371.61 992.44 378.22 945.08 488.04 844.51 577.77 968.13 583.09
00007036 00000090 669.56 169.40 385.58 532.80 839.90 377.34 1000.29 384.15 953.73 491.74 854.26 580.50 976.29 586.24
00007037 00000091 678.17 169.05 383.33 535.37 848.30 378.67 1010.06 387.35 963.61 490.74 859.60 580.70 984.63 588.11
00007038 00000092 672.74 166.36 389.47 541.91 857.74 372.84 1011.92 377.91 969.20 490.72 867.47 576.63 983.69 580.89
00007039 00000093 674.55 169.53 391.84 541.76 862.27 373.45 1016.39 378.23 973.48 490.59 873.24 578.93 985.89 582.76
00007040 00000094 678.07 169.33 393.53 543.04 866.00 375.50 1017.08 378.81 975.21 490.92 877.62 579.96 986.24 582.53
00007041 00000095 680.78 172.29 392.65 540.89 868.41 376.24 1020.00 380.05 976.99 491.92 879.63 581.00 987.65 583.94
00007042 00000096 682.23 174.00 391.46 538.63 868.66 378.52 1022.01 382.11 978.02 493.91 879.10 582.53 988.66 585.36
00007043 00000097 682.09 173.78 390.83 535.65 867.88 380.01 1023.11 381.52 978.82 494.45 879.15 582.00 990.31 583.17
00007044 00000098 681.16 173.57 390.49 534.39 867.04 379.73 1022.45 380.44 978.93 493.97 879.78 581.14 991.18 581.60
00007045 00000099 680.48 172.44 390.19 533.70 865.91 378.83 1021.93 379.51 978.64 492.39 878.35 579.67 991.34 580.16
00007046 00000100 677.21 171.35 391.06 533.70 864.21 378.41 1020.65 378.88 978.31 492.76 878.35 580.01 991.18 580.18
00007047 00000101 674.75 172.11 391.38 530.58 863.10 379.54 1019.68 379.53 977.76 493.68 877.59 579.95 990.70 579.71
00007048 00000102 673.42 170.78 391.22 529.85 861.73 379.48 1018.32 380.78 975.93 493.99 875.85 579.08 989.45 579.80
00007049 00000103 672.89 170.66 391.09 530.08 861.46 379.51 1017.77 381.13 975.52 494.12 875.15 579.24 988.91 580.29
00007050 00000104 672.53 172.74 391.74 529.16 861.72 380.38 1018.28 382.58 975.76 495.29 875.39 580.37 988.97 581.83
00007051 00000105 672.61 172.32 391.97 531.03 862.27 381.05 1019.15 384.22 976.52 495.80 875.62 581.58 989.15 583.83
00007052 00000106 674.50 173.53 390.80 531.45 864.46 379.45 1020.10 383.54 977.23 496.55 879.32 584.39 988.05 587.17
00007053 00000107 675.14 174.56 391.37 532.36 866.53 378.86 1019.50 383.61 977.71 495.29 880.80 585.28 986.03 588.67
00007054 00000108 676.03 176.09 392.57 533.21 866.40 379.13 1020.20 384.47 977.23 496.72 878.49 587.19 984.65 591.06
00007055 00000109 677.28 176.81 392.26 533.36 865.70 380.61 1019.98 386.02 976.30 497.71 878.29 586.68 985.90 590.69
00007056 00000110 676.90 178.22 392.34 531.07 865.05 382.01 1020.25 387.74 975.07 499.23 875.07 586.33 984.53 590.78
00007057 00000111 675.42 177.84 392.00 529.10 861.22 384.04 1019.19 387.98 973.79 500.48 871.87 586.31 986.67 589.48
00007058 DELETE   676.67 180.43 390.46 524.58 863.12 385.94 1018.46 389.75 972.52 500.78 871.27 583.48 986.36 586.91
00007059 00000113 674.76 179.76 390.05 523.72 861.02 382.79 1016.23 387.22 969.51 499.44 868.58 580.85 985.05 584.66
00007060 00000114 673.51 173.06 391.27 530.76 855.83 372.19 1013.23 380.15 965.00 492.40 863.72 577.32 981.90 583.51
00007061 00000115 672.14 169.83 391.35 531.82 849.34 359.98 1009.22 366.42 957.69 492.52 856.49 573.99 976.71 578.38
00007062 00000116 677.81 168.40 385.80 526.96 835.83 361.62 1002.86 372.95 947.48 488.10 849.08 570.75 977.95 580.26
00007063 00000117 676.11 168.85 385.82 525.89 833.31 360.19 999.71 370.18 944.79 485.97 846.94 568.74 975.32 577.28
00007064 00000118 673.43 167.17 387.89 534.02 835.32 358.00 996.57 368.63 946.71 484.82 843.53 566.74 972.61 576.35
00007065 00000119 672.03 160.94 389.57 545.84 833.72 353.24 996.24 365.23 946.93 482.11 838.95 564.68 972.02 575.62
00007066 00000120 671.56 153.61 391.98 554.26 832.82 349.82 996.22 361.85 947.10 479.63 836.20 560.78 972.87 571.64
00007067 00000121 670.42 152.60 393.28 554.93 832.40 346.94 996.47 359.41 947.07 477.86 835.06 558.75 972.18 570.01
00007068 00000122 671.20 149.79 390.94 548.96 828.73 345.48 997.41 357.09 944.97 476.50 836.82 558.80 971.10 569.09
00007069 00000123 671.41 148.12 387.29 539.72 826.43 343.66 998.32 357.14 942.48 476.58 835.45 557.13 966.44 569.21
00007070 00000124 671.41 147.98 385.71 537.18 825.41 343.51 996.36 354.96 941.42 475.31 838.20 557.42 966.30 567.49
00007071 00000125 668.77 150.80 388.52 539.78 825.41 344.14 993.99 353.83 941.18 476.31 839.07 560.14 965.05 568.50
00007072 00000126 666.12 152.03 391.38 543.84 823.78 345.61 991.60 354.37 940.55 476.45 836.99 561.05 965.86 568.61
00007073 00000127 664.95 150.16 392.00 545.69 822.28 346.19 989.42 353.40 939.61 476.07 838.16 562.40 965.63 568.52
00007074 00000128 664.48 149.64 391.19 543.51 820.06 347.33 986.99 354.26 936.71 475.40 837.59 561.79 964.13 567.55
00007075 00000129 664.66 152.12 390.54 538.71 817.94 348.69 986.46 354.60 934.72 476.31 837.65 562.70 963.34 567.40
00007076 00000130 664.50 151.18 390.44 539.27 816.61 349.49 985.37 354.42 934.13 476.96 838.73 563.41 964.51 567.13
00007077 00000131 665.81 151.40 389.14 539.19 816.11 350.48 985.31 354.79 934.27 477.07 839.01 564.02 966.37 567.26
00007078 00000132 667.42 153.06 387.81 537.72 816.22 351.75 985.39 354.46 934.80 477.02 840.49 564.54 968.34 566.40
00007079 00000133 668.12 154.86 388.39 536.57 816.20 352.10 985.64 354.07 934.86 476.87 840.85 565.16 969.35 566.34
00007080 00000134 669.25 152.60 387.94 539.74 816.53 352.99 986.71 354.45 935.31 477.00 841.80 565.85 971.40 566.59
00007081 00000135 671.28 151.83 387.34 541.39 817.21 352.93 987.46 353.78 936.17 476.42 842.45 566.48 972.70 566.70
00007082 00000136 671.60 151.26 389.09 543.44 817.61 352.67 988.22 353.33 936.42 476.96 842.80 566.84 973.87 566.90
00007083 00000137 671.59 151.99 390.41 544.77 818.80 352.58 988.55 353.04 937.51 476.82 843.30 566.86 974.59 566.87
00007084 00000138 672.46 151.95 390.21 544.79 819.47 353.06 989.79 353.60 938.11 477.26 843.88 567.98 975.09 568.06
00007085 00000139 672.28 151.56 390.37 545.20 819.44 353.35 989.44 353.86 937.67 477.62 843.75 568.18 974.64 568.24
00007086 00000140 671.69 152.62 390.67 544.61 818.73 352.67 988.60 353.30 937.12 477.11 842.91 568.01 973.69 568.15
00007087 00000141 671.16 152.63 390.83 545.15 817.88 352.56 987.53 353.34 936.16 476.89 841.88 567.76 972.94 567.98
00007088 00000142 669.92 152.16 390.78 546.09 816.26 352.30 985.21 353.69 934.08 475.46 840.24 567.54 970.32 568.17
00007089 00000143 666.34 150.79 392.39 549.52 813.82 352.12 982.85 353.76 932.15 476.85 837.56 567.57 968.76 568.36
00007090 00000144 662.49 149.89 393.56 551.30 810.42 352.15 978.74 353.24 929.40 477.11 835.10 567.50 965.95 567.74
00007091 00000145 657.84 151.26 396.91 552.17 808.15 351.81 976.24 353.30 926.35 477.60 832.48 568.12 962.95 568.45
00007092 00000146 655.76 152.89 396.35 551.10 805.44 352.60 974.04 354.37 922.97 478.48 829.08 568.23 960.03 568.79
00007093 00000147 651.42 154.41 399.19 551.86 801.36 352.55 970.86 355.28 917.93 479.31 824.99 568.99 954.91 570.20
00007094 00000148 650.18 155.36 398.96 550.87 798.91 353.00 968.40 355.67 914.23 479.50 822.88 568.95 951.77 570.10
00007095 00000149 647.53 157.68 398.12 549.12 797.25 353.55 965.76 356.11 911.81 479.99 822.23 569.62 949.27 570.67
00007096 00000150 643.87 155.81 399.13 552.77 796.34 353.34 963.27 355.59 909.90 481.13 820.49 570.30 945.11 571.14
00007097 00000151 640.56 156.80 398.91 550.17 793.72 352.11 960.44 354.46 906.24 480.80 818.42 569.57 942.51 570.50
00007098 00000152 638.65 154.62 396.69 551.15 791.04 351.47 958.49 354.49 903.08 480.37 814.78 568.38 940.29 570.02
00007099 00000153 635.40 152.92 395.46 550.14 788.76 349.56 955.55 352.62 899.77 480.36 812.45 567.70 935.34 569.51
00007100 00000154 633.62 152.39 393.70 547.90 787.53 348.90 953.47 351.73 897.16 482.17 809.92 566.89 930.24 568.65
00007101 00000155 632.51 149.97 392.02 544.75 785.67 348.61 952.30 350.95 895.01 480.80 808.50 565.14 927.75 566.45
00007102 00000156 629.42 151.28 391.28 545.14 785.31 348.37 950.11 350.58 893.24 479.88 807.39 564.93 924.06 566.10
00007103 00000157 626.56 153.17 393.89 549.56 784.84 347.18 947.00 352.12 890.74 480.01 805.04 564.56 920.38 567.93
00007104 00000158 621.90 154.59 397.07 550.77 782.93 346.34 945.16 353.03 887.02 482.08 797.80 562.96 915.40 567.79
00007105 00000159 619.07 153.62 396.07 549.49 779.35 347.92 942.47 354.34 882.60 482.66 790.70 560.35 912.72 565.30
00007106 00000160 615.89 153.00 395.54 544.80 774.92 348.90 940.23 354.17 878.88 483.50 785.65 558.37 908.89 562.45
00007107 00000161 613.70 155.08 392.86 539.76 770.50 349.04 936.33 352.33 875.76 482.89 783.58 559.96 906.83 562.27
00007108 00000162 609.18 154.41 394.46 542.69 765.69 347.41 932.62 350.39 872.44 483.60 779.12 560.17 904.95 562.17
00007109 00000163 603.44 154.76 396.18 551.22 758.77 345.70 927.16 351.21 867.51 483.69 772.32 561.34 903.24 565.22
00007110 00000164 599.59 155.18 394.14 553.53 752.08 351.82 919.45 354.22 868.90 481.43 767.85 564.75 906.35 566.41
00007111 00000165 594.27 151.45 396.09 557.28 746.71 350.94 914.20 353.04 864.47 480.18 766.10 565.37 901.18 566.62
00007112 00000166 592.61 147.38 390.16 543.57 737.61 349.79 912.03 353.20 857.46 480.40 762.69 566.17 894.68 568.69
00007113 00000167 587.96 144.30 389.16 538.35 732.65 349.53 909.08 351.97 852.56 479.44 760.01 565.42 890.22 566.94
00007114 00000168 583.53 145.19 391.79 543.32 730.18 349.22 903.43 352.71 848.00 476.27 755.79 564.42 883.57 566.43
