Video ID: 	kmb02SBmE1I
H: 	1080
W: 	1920
FPS: 	25.0

FRAME INDEX X0 Y0 W H [Landmarks (5 Points)]

00051489 00000000 482.91 128.16 544.60 824.66 687.86 467.87 928.12 493.20 826.56 629.76 675.75 748.42 868.65 769.45
00051490 00000001 480.41 125.96 543.37 822.78 682.92 468.02 925.24 491.12 822.94 628.79 672.60 748.37 868.59 767.42
00051491 00000002 475.71 115.34 549.12 835.96 672.50 468.43 922.30 495.64 817.53 629.01 670.74 750.33 870.77 772.31
00051492 00000003 480.07 122.37 542.26 823.56 682.92 467.70 925.25 490.87 823.70 628.93 672.74 746.16 871.28 764.96
00051493 00000004 483.92 123.10 541.32 822.18 684.81 468.38 928.05 491.72 825.91 631.23 674.28 746.60 873.40 765.66
00051494 00000005 487.01 126.23 543.04 818.62 688.79 466.46 930.06 491.34 827.93 631.09 676.19 743.62 875.57 764.10
00051495 00000006 489.06 125.39 542.20 817.60 690.80 466.02 932.87 491.54 830.45 631.48 676.50 743.44 878.47 764.41
00051496 00000007 492.33 124.41 539.62 816.52 690.95 466.68 933.37 491.17 830.45 631.72 677.84 742.87 881.35 762.84
00051497 00000008 491.98 124.64 538.44 811.87 690.27 467.44 933.22 491.18 831.15 631.48 678.34 742.43 882.92 761.56
00051498 00000009 489.09 121.37 539.38 815.44 687.76 467.83 930.95 489.54 830.20 631.69 678.44 742.26 882.77 759.70
00051499 00000010 485.97 121.73 541.17 818.39 685.32 468.49 927.83 489.84 827.74 631.89 677.11 745.13 880.23 762.28
00051500 00000011 483.04 124.07 537.90 817.67 681.60 470.71 925.65 490.74 825.58 632.11 673.26 747.63 879.19 763.53
00051501 DELETE   480.31 119.96 538.49 833.39 670.91 479.01 916.10 497.10 816.15 637.64 673.13 752.95 876.99 767.24
00051502 DELETE   479.31 126.42 536.44 832.29 670.93 487.26 906.36 498.54 814.64 641.38 673.02 757.93 869.24 767.05
00051503 00000014 479.72 127.93 531.84 831.54 665.51 494.60 904.44 504.28 810.44 646.99 670.94 765.38 867.74 773.16
00051504 00000015 478.78 139.30 535.49 820.91 661.76 494.96 907.79 507.68 803.47 645.62 668.28 772.66 866.83 783.04
00051505 00000016 475.74 140.26 538.67 823.77 660.34 495.82 907.24 508.65 802.23 649.00 667.28 774.68 866.40 785.23
00051506 00000017 475.80 141.57 538.09 820.67 659.05 495.85 906.29 508.31 801.30 651.08 666.73 775.17 864.99 785.20
00051507 00000018 476.34 145.53 536.47 813.46 657.54 497.31 904.99 509.38 799.84 652.40 666.49 775.01 864.69 784.52
00051508 00000019 477.42 149.16 533.15 803.17 656.59 498.41 904.25 509.34 799.00 653.80 666.84 774.47 863.68 783.18
00051509 00000020 478.24 157.28 533.87 793.20 656.99 500.14 904.41 510.89 800.16 655.13 669.06 776.52 863.08 785.20
00051510 00000021 478.01 160.37 536.47 797.42 658.90 500.11 906.89 511.38 802.70 657.68 670.74 780.35 864.68 789.73
00051511 00000022 479.05 159.87 536.37 803.62 659.46 502.42 908.63 513.53 803.42 660.44 669.44 781.84 867.10 791.20
00051512 00000023 479.33 157.35 536.40 804.24 659.70 504.23 908.17 514.15 804.25 661.48 671.72 783.90 866.66 792.30
00051513 00000024 479.15 157.51 536.10 805.78 659.78 504.40 908.44 514.47 804.32 661.52 671.74 784.94 866.37 793.59
00051514 00000025 479.02 157.26 536.59 807.54 658.76 504.32 908.80 514.53 803.65 661.24 670.66 785.36 866.26 794.17
00051515 00000026 478.30 159.17 536.91 805.53 658.20 504.43 907.88 515.12 801.89 662.83 669.54 785.13 865.41 794.32
00051516 00000027 477.14 157.35 538.31 809.10 655.73 505.63 906.05 516.22 799.04 664.10 668.02 786.56 865.08 795.68
00051517 00000028 472.67 152.51 539.83 820.58 652.19 508.38 902.52 517.57 796.11 667.75 664.78 790.23 861.63 798.33
00051518 00000029 469.11 145.48 539.18 828.15 648.35 514.51 897.88 520.78 792.87 671.29 664.30 795.10 858.72 800.83
00051519 00000030 465.23 156.21 539.30 817.21 641.41 518.73 892.15 519.70 788.03 677.56 663.88 799.38 857.71 800.82
00051520 DELETE   458.33 153.12 540.10 823.30 634.71 524.88 883.22 520.18 782.67 683.70 664.73 806.16 857.39 801.99
00051521 00000032 451.41 147.90 541.68 848.16 634.14 520.98 878.73 518.55 782.43 687.71 659.20 805.86 855.16 803.72
00051522 00000033 448.64 146.30 538.42 854.61 626.32 524.00 868.86 520.24 771.89 690.03 654.21 808.71 852.17 805.43
00051523 00000034 447.33 143.14 536.23 843.85 622.76 522.55 862.92 525.18 764.02 695.64 650.41 810.02 836.28 811.64
00051524 00000035 446.07 149.24 536.38 846.33 621.18 528.20 862.72 523.02 766.08 692.53 653.59 812.79 846.94 808.15
00051525 00000036 447.84 145.95 532.65 840.04 620.60 527.42 862.96 520.97 766.99 692.58 655.25 812.34 847.57 806.60
00051526 00000037 447.56 144.29 533.45 846.36 623.25 524.62 864.00 520.01 768.47 689.42 656.43 812.17 847.74 807.91
00051527 00000038 446.03 141.13 534.80 847.73 621.58 518.00 863.40 518.27 766.37 688.36 652.94 809.70 837.04 809.31
00051528 00000039 444.54 140.80 535.49 847.93 622.48 516.62 861.98 516.58 766.75 684.56 655.50 807.69 836.60 806.85
00051529 00000040 442.30 141.51 535.86 844.92 621.08 514.43 860.67 513.23 766.55 682.84 656.69 806.47 837.13 804.47
00051530 00000041 442.58 150.39 535.04 836.50 619.80 519.44 861.75 513.12 769.38 679.70 654.84 805.83 846.72 800.15
00051531 00000042 441.47 150.43 532.59 835.95 615.23 518.56 859.44 512.89 765.09 680.89 647.87 804.52 845.09 799.37
00051532 00000043 441.61 148.94 531.48 838.39 614.32 519.69 857.64 513.75 763.44 681.18 647.41 804.71 843.53 799.46
00051533 00000044 439.39 149.39 533.69 841.22 612.98 520.65 857.04 515.21 761.97 682.56 644.50 805.59 843.45 800.60
00051534 00000045 435.97 152.96 533.98 831.54 609.12 519.15 854.10 518.46 756.42 686.75 641.03 808.50 830.14 807.16
00051535 00000046 437.97 156.35 533.46 831.21 608.28 522.83 855.63 516.60 758.90 687.38 641.18 809.25 841.03 803.47
00051536 00000047 436.29 157.03 533.31 831.35 610.20 520.70 854.29 519.61 757.85 689.74 643.52 810.54 831.44 808.79
00051537 00000048 436.52 158.11 534.53 823.95 610.15 520.35 855.13 520.16 757.88 690.31 644.36 810.15 830.95 809.16
00051538 00000049 436.04 155.02 534.52 825.88 611.54 518.85 854.75 518.74 759.42 687.71 645.45 807.94 830.37 807.01
00051539 00000050 438.64 150.37 532.23 828.94 610.41 528.03 858.61 518.92 764.13 680.57 650.82 807.93 843.89 799.44
00051540 00000051 440.67 146.57 533.76 826.96 616.70 518.34 860.10 510.15 769.11 677.26 652.58 803.16 843.72 796.03
00051541 00000052 441.47 140.14 531.80 832.83 619.05 514.88 860.87 508.24 769.38 674.63 650.67 799.14 842.23 793.47
00051542 00000053 436.00 148.71 535.80 826.60 613.73 520.03 860.71 511.77 768.12 672.23 654.41 803.12 842.48 795.48
00051543 00000054 439.74 148.22 539.41 833.03 623.40 513.96 863.36 510.03 770.51 673.80 649.65 794.30 842.95 790.90
00051544 00000055 436.48 146.27 539.27 831.37 617.00 521.16 863.85 513.54 770.38 674.28 655.81 804.27 843.57 797.08
00051545 00000056 436.41 148.74 539.29 831.69 617.55 520.58 864.14 512.98 771.63 673.50 659.04 807.67 844.23 800.44
00051546 00000057 436.11 147.73 540.59 836.70 617.41 520.46 864.48 512.68 772.62 672.59 661.57 811.67 845.19 804.29
00051547 00000058 438.39 149.27 538.27 829.85 617.93 521.20 865.88 513.32 773.82 670.63 662.79 810.64 846.38 803.26
00051548 00000059 439.13 142.95 538.99 839.87 620.56 520.77 869.61 514.32 777.61 671.18 662.52 809.55 849.40 803.23
00051549 00000060 442.25 144.64 545.43 839.21 628.31 515.71 875.63 511.11 781.99 676.01 659.31 801.23 852.53 797.38
00051550 00000061 445.09 146.64 540.16 831.02 626.55 524.35 877.49 517.75 781.89 679.93 664.24 810.11 855.52 803.62
00051551 00000062 447.27 152.26 547.75 841.99 638.63 519.71 884.21 518.60 791.69 682.18 664.30 803.76 858.13 802.70
00051552 00000063 451.38 159.10 545.96 835.10 641.94 521.79 886.72 521.79 793.03 682.60 664.52 803.86 858.46 803.86
00051553 00000064 453.12 159.19 544.95 832.70 644.54 522.54 889.55 523.44 795.59 684.25 667.34 804.95 860.63 805.64
00051554 DELETE   460.48 165.32 534.76 810.16 641.31 526.42 892.17 523.51 794.18 680.88 672.22 808.80 864.84 806.39
00051555 00000066 464.68 167.10 532.67 803.69 643.25 526.29 894.81 523.11 796.83 681.03 674.68 808.27 866.52 805.83
00051556 00000067 467.14 164.23 530.33 804.68 646.48 527.03 897.22 523.21 801.78 682.12 678.72 809.44 869.05 806.47
00051557 00000068 471.86 162.90 533.05 814.95 657.50 519.74 901.35 524.72 805.31 683.32 676.09 801.66 864.55 806.16
00051558 00000069 471.75 168.22 536.96 812.06 660.40 521.59 904.90 526.52 807.28 687.11 677.88 803.76 867.68 808.22
00051559 DELETE   477.24 171.85 530.38 804.41 672.26 535.00 904.89 535.73 812.42 688.76 690.36 808.60 869.30 809.10
00051560 DELETE   479.33 167.80 528.24 804.69 673.87 540.09 897.53 534.55 813.04 690.25 697.01 810.80 865.54 806.25
00051561 DELETE   477.57 173.56 528.23 805.76 667.79 538.51 896.11 536.83 807.37 691.03 689.75 812.93 863.67 811.57
00051562 00000073 475.08 172.89 527.72 821.79 662.16 537.47 896.29 539.29 803.69 693.47 683.68 817.04 864.19 818.57
00051563 00000074 472.10 176.33 529.87 816.61 657.51 538.61 896.32 540.40 802.02 697.75 681.50 819.28 865.20 820.87
00051564 00000075 469.64 172.08 530.51 819.69 658.15 536.93 896.05 539.27 802.98 698.53 678.77 815.60 863.48 817.69
00051565 00000076 469.12 173.70 531.05 821.14 657.57 534.99 896.91 538.49 802.90 697.77 673.68 812.30 863.81 815.45
00051566 00000077 471.01 173.45 530.49 816.79 658.27 532.51 898.34 538.27 802.08 695.69 671.90 808.49 862.81 813.53
00051567 00000078 469.20 170.25 533.67 822.44 661.28 530.61 900.04 536.51 804.87 694.09 674.64 807.54 864.45 812.48
00051568 00000079 469.30 165.46 536.63 821.00 661.89 529.30 902.29 534.87 805.76 692.48 675.09 804.43 865.76 809.07
00051569 00000080 471.84 167.06 536.90 816.93 663.80 528.06 904.99 534.25 807.34 692.84 676.02 804.13 867.84 809.26
00051570 00000081 473.10 160.19 537.68 829.99 667.02 527.53 908.36 534.87 809.30 692.52 677.63 805.58 869.24 811.55
00051571 00000082 470.80 166.07 542.86 826.08 670.36 527.27 911.50 533.58 814.51 692.47 681.35 808.22 871.09 813.26
00051572 00000083 473.54 164.36 544.74 821.84 673.71 521.90 913.32 530.08 815.79 690.09 681.51 801.67 871.65 808.42
00051573 00000084 475.63 162.19 545.80 815.76 676.97 517.68 915.70 525.72 818.19 687.03 683.44 796.54 873.11 803.47
00051574 DELETE   476.68 159.39 538.92 811.64 668.19 521.31 914.29 525.11 823.15 688.75 684.62 800.32 879.00 802.98
00051575 00000086 480.09 161.53 536.53 800.50 666.89 519.45 914.79 522.07 822.35 686.33 687.38 798.57 880.45 800.27
00051576 00000087 481.85 165.09 534.98 792.06 665.82 518.66 914.92 519.34 822.44 684.85 691.02 798.32 882.31 798.43
00051577 00000088 481.32 159.88 534.53 799.76 666.34 517.49 915.41 518.19 822.97 681.78 689.84 796.86 882.84 797.02
00051578 00000089 479.40 160.07 539.39 810.00 668.17 515.19 917.51 518.54 822.99 679.53 684.64 795.12 881.77 797.79
00051579 00000090 479.64 158.54 540.90 812.46 669.88 513.98 919.29 519.23 823.95 679.15 683.17 793.17 881.95 797.35
00051580 00000091 481.87 170.61 540.48 798.96 676.35 512.46 923.15 515.92 830.94 673.68 683.45 787.39 887.68 789.92
00051581 00000092 479.46 158.08 542.35 810.33 669.90 515.79 920.73 520.15 825.67 680.55 687.19 795.53 885.18 798.76
00051582 00000093 481.09 156.60 541.52 817.15 672.55 516.99 920.66 523.54 825.27 682.80 689.48 796.66 884.44 801.64
00051583 00000094 480.75 159.25 542.47 822.01 674.16 517.86 921.77 527.40 825.52 685.91 688.88 798.88 884.09 806.24
00051584 00000095 478.75 158.67 543.34 829.55 674.53 518.37 923.72 529.56 826.22 687.56 685.29 800.82 884.10 809.50
00051585 00000096 478.27 160.80 543.66 822.71 674.03 518.79 924.47 528.54 828.36 686.79 687.62 801.87 885.39 809.21
00051586 00000097 480.33 156.72 542.29 821.31 675.13 517.13 924.63 526.35 830.34 682.45 689.17 798.53 885.39 805.53
00051587 00000098 483.44 166.30 542.50 812.17 684.15 514.23 928.65 519.08 840.38 674.65 688.17 791.80 891.00 795.13
00051588 00000099 485.90 168.38 539.69 806.16 685.06 511.44 930.01 517.11 841.18 672.68 689.89 789.65 893.73 793.64
00051589 00000100 487.26 166.95 540.76 807.39 688.36 510.46 932.79 517.62 844.12 671.93 690.66 788.24 894.43 793.54
00051590 00000101 488.17 169.04 542.85 804.00 690.12 509.07 935.72 516.41 845.82 672.39 692.19 787.65 895.55 793.24
00051591 00000102 491.46 167.02 545.68 815.41 695.22 508.23 940.66 517.70 849.58 670.50 695.57 786.86 900.22 794.15
00051592 00000103 496.03 165.59 544.77 817.07 699.09 507.68 944.63 518.85 851.99 670.45 700.43 786.46 904.56 795.04
00051593 00000104 497.50 165.01 547.68 813.16 701.60 505.70 948.43 517.07 855.02 668.90 704.45 784.15 907.88 792.88
00051594 00000105 499.89 165.93 546.98 813.33 704.18 502.81 948.83 516.19 854.92 666.88 704.16 781.34 908.06 791.83
00051595 00000106 500.79 158.24 547.90 820.00 707.09 500.95 951.11 515.87 856.89 664.54 705.07 780.68 907.32 792.38
00051596 00000107 504.34 155.94 542.24 800.72 708.73 500.53 952.81 514.20 858.97 664.74 707.96 777.52 908.81 788.10
00051597 00000108 507.41 155.37 543.95 803.21 712.98 497.97 956.42 512.31 862.53 663.62 713.22 777.08 912.54 788.27
00051598 00000109 511.62 153.45 544.89 805.73 719.46 498.64 962.10 514.27 869.67 664.38 717.30 776.53 917.39 788.70
00051599 00000110 515.75 151.49 548.19 827.99 731.31 497.96 969.53 516.05 877.57 661.47 723.98 779.94 921.01 794.34
00051600 DELETE   518.09 157.33 547.93 826.11 742.69 495.79 977.77 517.51 888.39 666.32 725.34 778.66 922.57 796.34
CROP_BBOX: 174 0 1448 1080
