Video ID: 	1q2st1ULOnM
H: 	1080
W: 	1920
FPS: 	25.0

FRAME INDEX X0 Y0 W H [Landmarks (5 Points)]

00020106 00000000 751.08 258.49 403.69 563.94 842.08 484.53 1027.04 486.24 919.96 579.75 857.79 682.18 1013.90 683.04
00020107 00000001 753.13 258.04 407.21 569.73 846.66 482.72 1031.82 492.94 921.62 578.58 861.19 679.46 1015.14 687.35
00020108 DELETE   762.67 271.62 402.66 568.93 851.60 500.67 1032.06 507.35 923.53 598.57 863.71 696.33 1011.34 701.11
00020109 DELETE   763.23 287.67 403.79 570.41 847.77 518.15 1030.47 528.11 920.65 631.55 859.48 713.24 1015.49 720.22
00020110 DELETE   759.17 305.93 406.34 568.10 840.53 529.88 1023.08 545.80 899.96 644.33 847.32 732.84 997.57 745.81
00020111 00000005 767.37 322.25 402.98 560.39 847.71 541.19 1022.07 560.49 900.62 661.78 852.71 736.01 999.69 751.16
00020112 00000006 776.16 325.24 402.83 559.05 857.91 544.15 1029.01 561.39 911.79 661.78 860.16 735.20 1008.54 748.70
00020113 DELETE   788.87 324.73 397.12 551.11 873.96 538.44 1048.28 560.20 931.83 648.14 872.09 727.18 1026.43 745.71
00020114 00000008 803.57 313.82 394.87 548.27 885.80 536.40 1056.87 557.07 941.22 642.30 886.20 720.81 1036.59 737.92
00020115 00000009 814.31 307.88 388.91 547.79 894.05 534.05 1065.02 554.14 951.09 641.55 893.29 713.88 1047.19 730.63
00020116 00000010 815.73 309.53 394.04 551.78 895.81 523.00 1070.40 548.60 953.91 641.38 894.10 715.62 1039.86 737.54
00020117 00000011 816.70 309.12 394.40 554.58 897.00 523.07 1071.95 546.21 955.87 638.76 897.13 718.19 1040.16 738.16
00020118 00000012 814.02 301.11 396.18 561.11 896.22 521.17 1073.11 539.97 957.64 632.77 897.73 717.87 1038.27 734.50
00020119 00000013 814.14 293.52 393.14 559.32 895.63 520.73 1065.65 534.82 956.50 626.55 903.26 713.52 1039.54 725.38
00020120 00000014 810.15 284.42 394.49 565.02 888.25 513.88 1062.49 522.20 955.54 615.24 904.34 713.37 1040.87 719.76
00020121 DELETE   800.26 288.39 403.66 555.12 883.63 508.41 1064.29 514.63 958.79 600.59 907.23 702.88 1045.52 707.06
00020122 00000016 792.25 290.98 409.44 554.22 878.88 508.61 1062.92 513.08 953.52 600.26 900.38 701.78 1048.65 704.65
00020123 00000017 797.67 293.16 394.86 540.17 876.16 506.27 1052.41 512.59 945.57 604.43 884.69 692.94 1032.85 698.39
00020124 00000018 798.78 289.43 396.99 547.56 874.65 510.28 1049.01 506.53 945.78 607.04 898.26 700.53 1045.52 696.35
00020125 00000019 802.28 283.05 397.19 535.69 871.44 506.41 1044.48 498.94 937.71 599.52 897.77 695.04 1043.77 687.83
00020126 00000020 807.63 278.87 396.49 541.33 872.09 500.09 1043.34 489.41 931.33 586.06 898.39 689.63 1044.72 679.26
00020127 00000021 813.21 278.65 397.81 537.18 877.74 486.91 1049.69 486.33 930.73 576.14 895.39 680.43 1033.28 678.87
00020128 00000022 819.24 270.97 396.65 541.88 883.60 483.20 1051.93 485.76 928.97 573.15 896.00 675.26 1030.75 676.72
00020129 00000023 822.70 269.00 394.65 542.13 887.52 482.65 1053.42 488.30 931.32 575.20 897.05 672.28 1028.91 676.41
00020130 00000024 823.88 269.98 395.68 541.06 887.30 483.37 1053.89 491.23 931.53 580.85 895.88 671.95 1029.57 678.01
00020131 00000025 823.10 272.09 397.06 538.11 886.23 484.62 1053.24 491.69 930.27 580.29 893.30 671.19 1027.61 676.65
00020132 00000026 823.25 269.44 396.01 540.31 886.20 484.56 1052.34 491.39 928.73 578.30 892.99 670.19 1025.77 675.44
00020133 00000027 824.19 269.75 395.90 541.97 888.64 482.73 1053.72 489.43 930.54 574.67 896.17 669.73 1025.28 674.92
00020134 00000028 826.66 269.53 394.89 545.48 891.94 481.34 1056.19 486.73 932.82 571.40 901.51 671.79 1027.21 676.02
00020135 00000029 828.32 267.64 395.21 553.25 893.70 482.31 1058.55 488.97 934.56 574.67 902.48 675.09 1029.40 680.36
00020136 00000030 824.11 266.18 397.37 556.54 889.58 483.53 1060.28 495.58 934.06 585.60 895.95 675.59 1030.39 685.22
00020137 00000031 823.37 277.46 394.24 543.92 886.50 487.84 1058.47 502.05 932.97 597.95 893.44 680.21 1029.98 691.02
00020138 00000032 821.30 282.04 392.66 542.14 883.97 493.32 1054.84 506.95 930.71 604.05 892.68 685.49 1026.83 695.70
00020139 00000033 815.44 280.70 396.12 540.94 878.94 498.27 1048.77 503.95 932.18 602.24 897.00 690.88 1034.41 694.41
00020140 00000034 814.54 276.99 395.96 541.43 878.30 497.49 1047.95 503.23 931.92 601.33 896.84 689.63 1033.77 693.11
00020141 00000035 818.24 280.00 391.85 542.90 883.55 488.57 1055.21 502.77 931.49 598.28 892.32 681.28 1026.33 691.93
00020142 00000036 818.82 274.81 391.93 543.10 883.70 482.25 1055.26 495.65 938.00 597.64 898.82 677.78 1032.05 688.44
00020143 00000037 819.24 274.10 391.98 545.06 884.34 482.68 1055.96 495.40 939.53 597.67 900.85 678.76 1034.09 688.84
00020144 00000038 816.90 278.61 395.11 547.42 887.21 485.33 1058.09 500.22 943.29 601.77 905.37 682.80 1040.25 694.13
00020145 00000039 817.73 281.74 392.79 540.44 885.05 488.40 1056.99 503.45 942.02 606.91 902.31 682.56 1043.52 694.03
00020146 00000040 818.67 282.08 392.16 534.13 883.14 492.79 1057.23 504.63 936.48 604.17 891.39 680.87 1040.93 689.61
00020147 00000041 818.66 281.76 393.01 534.54 882.97 492.74 1056.65 504.41 935.16 602.84 889.93 680.12 1040.59 688.70
00020148 00000042 819.03 283.60 392.41 530.77 882.83 491.72 1056.38 503.92 934.72 602.10 888.26 678.38 1040.89 687.43
00020149 00000043 818.29 284.19 392.54 529.14 882.48 489.87 1056.26 502.75 934.35 601.06 886.36 676.24 1040.74 685.87
00020150 00000044 816.96 280.58 393.29 532.38 882.23 489.15 1055.73 502.72 933.00 599.86 884.77 674.59 1039.86 684.80
00020151 00000045 815.86 280.16 394.31 534.90 881.67 489.18 1054.78 503.48 931.51 600.18 883.61 674.44 1038.39 685.23
00020152 00000046 814.38 281.02 395.63 537.21 880.25 489.67 1053.60 503.47 929.46 600.47 882.44 675.71 1037.02 686.01
00020153 00000047 811.19 280.22 394.90 539.06 875.23 500.75 1044.21 508.14 925.18 599.02 885.75 680.70 1042.04 685.89
00020154 00000048 810.58 278.77 394.96 540.87 874.85 500.57 1042.45 509.07 923.68 599.46 884.70 679.47 1040.54 685.64
00020155 00000049 809.28 279.35 394.67 541.91 874.44 500.88 1041.29 508.48 924.52 599.15 886.14 680.28 1039.24 685.57
00020156 00000050 808.15 280.43 395.23 543.29 874.14 501.31 1041.06 506.79 925.51 597.53 888.26 682.97 1037.88 686.31
00020157 00000051 807.57 281.00 394.58 542.14 873.18 501.23 1039.88 508.02 924.54 598.58 885.98 681.51 1037.86 686.11
00020158 00000052 806.30 281.62 395.85 544.31 872.40 502.25 1038.74 507.28 924.20 597.94 886.55 683.61 1037.24 686.80
00020159 00000053 805.53 280.73 396.23 548.13 872.11 503.46 1038.14 507.56 923.64 598.28 886.95 685.17 1037.10 687.56
00020160 00000054 804.77 281.37 396.11 543.47 869.80 506.67 1034.78 509.56 921.04 602.89 885.80 687.41 1033.27 688.77
00020161 00000055 801.89 286.72 397.94 537.23 866.00 510.47 1029.10 510.56 916.37 602.94 884.26 689.45 1028.67 688.70
00020162 00000056 795.34 290.34 401.83 530.55 856.47 504.09 1018.43 502.70 907.03 596.59 880.54 688.35 1016.73 687.11
00020163 DELETE   787.84 275.74 397.23 536.75 854.30 489.92 1014.78 491.02 899.11 584.20 875.10 682.71 1007.14 683.22
00020164 DELETE   785.71 264.24 404.67 547.61 852.65 487.94 1012.17 476.70 890.66 559.08 872.80 676.93 997.96 666.91
00020165 00000059 784.87 256.52 401.76 548.66 843.97 479.73 1010.99 468.89 887.06 551.40 860.24 671.67 993.76 662.77
00020166 00000060 778.82 259.45 402.05 549.56 829.19 488.60 995.81 476.42 867.30 558.98 844.94 678.37 978.54 668.68
00020167 DELETE   770.10 259.51 402.08 558.20 815.43 495.35 976.56 485.73 847.06 570.62 832.38 686.83 960.41 679.15
00020168 00000062 759.36 265.29 406.59 553.66 806.91 496.87 967.95 487.71 832.78 567.10 821.77 685.18 947.71 677.79
00020169 00000063 754.13 256.92 406.42 556.31 808.03 490.12 966.40 481.47 829.34 553.85 816.04 675.16 936.59 668.28
00020170 00000064 758.02 250.58 403.60 556.35 809.68 480.69 972.90 474.60 829.49 547.60 810.18 664.48 943.68 659.77
00020171 00000065 763.57 247.42 400.34 556.92 811.27 476.74 977.99 471.99 833.52 549.26 812.49 662.25 953.24 658.52
00020172 00000066 766.44 251.67 399.75 558.25 815.19 477.31 979.77 476.00 839.26 553.38 815.47 665.15 954.97 664.34
00020173 00000067 768.13 254.86 397.59 562.05 820.40 481.60 981.37 485.65 844.57 562.73 819.95 672.35 956.15 675.86
00020174 00000068 771.43 263.39 394.20 559.22 823.85 483.19 983.68 492.31 847.83 572.07 823.73 678.63 958.28 686.14
00020175 00000069 772.93 263.41 395.02 553.92 825.33 482.84 987.43 491.50 851.08 568.43 822.78 674.58 961.88 681.77
00020176 00000070 774.28 258.86 394.87 549.84 829.02 479.72 993.58 486.99 856.26 559.57 824.64 665.81 966.56 672.00
00020177 00000071 779.46 251.84 394.55 552.37 834.09 475.04 1000.94 480.71 863.21 554.43 830.65 660.83 976.49 665.62
00020178 00000072 783.89 257.36 396.65 543.30 839.28 474.11 1006.17 481.01 870.49 554.90 836.55 660.03 982.22 665.79
00020179 00000073 790.47 261.61 400.16 551.04 855.76 486.08 1013.73 488.13 879.57 560.42 854.07 669.24 991.00 670.49
00020180 00000074 792.19 262.98 397.27 551.09 857.91 488.24 1017.39 494.09 886.93 569.31 856.84 673.70 993.22 677.91
00020181 00000075 792.72 259.93 397.13 549.05 859.10 489.20 1021.67 493.57 890.81 566.78 857.22 673.64 994.38 676.82
00020182 00000076 793.47 257.09 399.82 549.23 862.87 486.25 1023.99 489.35 892.66 559.56 859.45 669.76 993.16 672.18
00020183 00000077 793.36 261.43 398.33 541.80 863.96 476.63 1028.26 489.70 902.52 561.42 865.06 664.36 1000.10 675.93
00020184 00000078 791.79 263.47 406.19 556.88 867.46 487.88 1031.39 492.60 904.06 567.46 869.28 673.83 1004.42 677.10
00020185 00000079 792.91 270.36 403.98 554.10 865.74 490.48 1030.91 496.69 907.47 580.39 871.05 679.10 1009.94 683.07
00020186 00000080 792.75 274.93 400.17 550.46 863.41 493.02 1028.10 497.36 906.21 582.66 870.65 680.87 1010.29 683.13
00020187 00000081 790.43 270.36 401.36 548.88 860.63 491.80 1025.04 492.28 904.55 576.60 869.67 679.02 1008.40 678.31
00020188 00000082 790.92 265.55 401.45 544.68 861.55 488.68 1025.54 488.44 904.98 570.05 868.49 673.02 1007.41 672.14
00020189 00000083 791.64 264.98 401.18 536.05 862.07 487.59 1027.45 487.78 908.26 569.84 868.16 667.37 1010.51 666.89
00020190 00000084 792.19 267.10 401.57 534.95 864.16 488.15 1029.03 488.74 911.61 571.15 872.07 667.90 1010.68 667.77
00020191 00000085 790.89 269.14 402.23 540.58 866.03 488.30 1031.19 492.42 914.38 576.58 874.73 671.82 1010.50 674.61
00020192 00000086 788.38 275.86 399.25 536.41 863.13 489.92 1034.97 501.62 913.31 586.92 871.21 675.23 1015.20 685.11
00020193 00000087 788.84 276.20 398.60 536.94 864.47 490.33 1035.92 503.27 914.22 589.19 871.22 674.74 1015.48 685.66
00020194 00000088 788.54 272.99 401.37 539.35 865.60 488.98 1038.92 500.99 917.87 583.71 874.05 672.18 1020.81 682.38
00020195 00000089 789.18 271.85 404.21 536.90 866.62 484.25 1040.10 493.71 920.15 574.38 876.20 666.76 1025.06 674.87
00020196 00000090 788.93 268.19 405.06 535.07 867.78 480.50 1041.24 486.42 923.97 564.66 878.18 661.27 1027.46 666.92
00020197 00000091 787.67 264.64 401.98 534.29 868.10 480.61 1039.31 484.19 927.61 562.19 881.02 659.01 1030.18 662.78
00020198 00000092 782.62 265.41 405.16 529.94 866.39 480.82 1038.87 482.05 931.04 557.97 882.19 655.90 1033.30 657.32
00020199 00000093 774.56 265.51 408.48 528.83 861.60 482.56 1035.54 479.05 933.22 555.28 882.89 653.70 1037.00 650.60
00020200 00000094 765.32 263.94 411.38 529.74 855.22 483.72 1030.01 473.83 933.35 553.86 882.94 654.30 1038.17 645.35
00020201 DELETE   756.87 264.33 414.53 527.07 846.26 485.43 1021.38 466.60 928.56 551.21 880.85 654.86 1038.26 638.32
00020202 DELETE   747.62 263.82 415.38 523.48 836.80 490.28 1012.07 458.27 921.09 545.90 877.34 657.04 1035.91 630.06
00020203 00000097 732.53 258.72 415.61 523.97 821.10 493.21 996.09 454.74 909.95 544.92 869.86 656.37 1029.00 623.26
00020204 DELETE   719.65 262.08 419.50 523.01 811.89 488.90 979.66 446.91 898.66 532.78 862.60 653.86 1015.10 617.81
00020205 DELETE   705.67 261.00 417.86 524.39 800.34 487.56 966.82 439.27 890.02 522.85 856.58 654.66 1005.25 613.65
00020206 DELETE   692.82 258.43 425.32 529.26 788.77 488.64 958.58 436.62 876.44 517.51 846.14 657.01 996.87 612.44
00020207 00000101 681.30 256.79 430.34 527.81 779.15 489.80 950.01 431.77 866.84 515.03 839.97 661.10 986.88 611.54
00020208 00000102 670.53 260.50 434.71 526.41 768.40 492.59 941.53 434.61 857.07 520.19 829.13 662.24 978.14 613.28
00020209 DELETE   660.36 251.10 438.68 541.97 750.55 497.72 923.39 435.86 840.82 530.71 817.79 664.50 971.80 612.59
00020210 00000104 652.60 253.94 438.77 545.59 746.44 506.86 916.92 441.08 840.42 535.27 814.68 668.64 969.02 613.75
00020211 00000105 646.01 259.62 441.92 539.74 748.98 514.48 913.05 449.43 845.57 540.24 819.26 671.67 964.91 616.41
00020212 00000106 639.05 261.04 446.22 537.95 745.34 513.62 910.01 447.64 845.39 540.16 818.47 670.97 963.55 614.82
00020213 00000107 633.35 260.02 446.09 532.73 742.82 512.31 904.45 445.37 844.68 539.31 819.13 668.33 960.41 611.34
00020214 00000108 627.28 260.53 445.62 531.97 737.07 509.58 898.59 442.15 840.53 537.90 813.42 666.30 956.30 608.60
00020215 00000109 623.01 262.36 442.04 530.69 732.22 506.42 893.44 441.45 834.90 540.08 807.28 666.18 949.38 610.25
00020216 00000110 616.77 260.22 439.87 535.15 727.57 500.66 888.91 438.68 828.80 536.63 799.22 664.34 941.36 611.00
00020217 00000111 609.60 259.28 439.53 532.64 722.83 501.00 884.88 436.38 824.83 531.66 795.54 664.64 935.11 609.78
00020218 00000112 603.91 259.57 439.81 529.49 717.19 501.18 881.39 434.45 818.51 526.79 788.84 666.10 928.27 609.72
00020219 00000113 601.95 263.09 435.98 523.76 713.76 502.28 877.62 434.16 814.24 525.00 785.50 667.14 923.57 610.23
00020220 00000114 599.78 263.65 436.45 527.98 710.66 505.87 872.98 435.07 809.67 526.46 783.90 671.43 920.31 612.60
00020221 00000115 595.23 263.81 440.38 531.66 706.59 506.77 869.18 435.58 806.66 527.00 784.33 676.97 919.99 617.57
00020222 00000116 592.13 264.73 443.75 528.77 702.07 510.38 867.10 437.59 800.18 528.83 778.13 679.00 914.44 618.59
00020223 00000117 589.99 265.86 442.68 523.83 696.36 511.51 864.73 442.60 791.68 533.78 765.94 677.05 905.50 620.51
00020224 00000118 588.18 263.00 443.25 533.06 691.99 514.54 858.67 446.04 784.08 535.76 760.03 678.80 901.04 622.34
00020225 00000119 587.45 262.23 444.28 540.49 688.21 515.59 857.19 449.70 778.73 539.93 757.65 684.77 898.92 629.90
00020226 00000120 581.91 263.28 445.15 557.13 683.27 517.25 851.22 455.75 771.46 548.19 751.50 690.96 892.05 638.70
00020227 DELETE   580.26 270.11 439.88 549.19 673.66 526.78 844.10 466.08 753.26 557.57 735.32 699.71 872.15 648.84
00020228 DELETE   579.00 279.15 435.09 544.40 652.41 542.09 819.48 479.83 733.66 571.12 724.67 704.77 856.25 652.50
00020229 00000123 579.35 290.73 432.26 534.33 641.37 542.45 809.41 485.15 713.95 576.69 707.29 708.85 836.48 660.68
CROP_BBOX: 445 16 1377 1041
