Video ID: 	i9fkq_fpw5w
H: 	2160
W: 	3840
FPS: 	25.0

FRAME INDEX X0 Y0 W H [Landmarks (5 Points)]

00001712 00000000 1594.49 603.06 484.30 657.95 1731.27 857.69 1961.43 870.82 1845.29 991.25 1748.57 1089.28 1920.36 1098.76
00001713 00000001 1595.11 605.88 484.15 659.61 1732.79 855.69 1963.19 871.66 1846.40 989.80 1745.61 1089.18 1921.08 1101.49
00001714 00000002 1604.43 609.25 474.67 657.45 1740.46 862.21 1961.19 881.23 1851.06 985.97 1744.76 1088.80 1921.93 1104.55
00001715 00000003 1603.26 608.81 475.27 653.48 1739.50 864.09 1960.31 882.66 1849.08 984.76 1742.94 1084.96 1921.30 1100.48
00001716 DELETE   1599.87 607.14 478.84 651.61 1739.49 865.83 1959.60 882.80 1850.48 987.58 1748.17 1086.11 1919.34 1099.66
00001717 00000005 1601.60 606.00 479.49 651.27 1739.76 864.68 1960.70 881.08 1851.66 986.78 1749.06 1084.36 1921.71 1097.39
00001718 DELETE   1605.27 603.27 479.04 655.00 1743.80 858.88 1965.40 878.24 1854.82 985.57 1751.77 1084.72 1922.24 1099.97
00001719 DELETE   1606.93 602.49 477.97 657.32 1742.45 853.93 1967.46 875.19 1853.50 986.55 1749.79 1084.24 1922.77 1101.07
00001720 00000008 1607.24 604.29 480.19 652.66 1742.47 851.41 1970.09 871.39 1854.66 987.06 1750.18 1082.70 1927.62 1098.65
00001721 DELETE   1609.05 603.75 481.34 655.14 1743.96 850.36 1973.03 870.44 1855.87 986.36 1750.78 1082.74 1931.29 1099.09
00001722 00000010 1612.12 600.01 476.90 657.82 1745.70 850.92 1973.46 870.28 1857.07 986.32 1752.24 1083.18 1932.55 1099.16
00001723 00000011 1612.57 597.89 477.00 650.94 1745.13 850.03 1974.91 865.40 1855.45 987.58 1760.71 1084.32 1932.49 1096.02
00001724 00000012 1617.16 596.09 474.78 649.99 1748.35 848.50 1978.15 863.89 1858.56 986.50 1763.35 1083.03 1935.91 1094.99
00001725 00000013 1619.05 596.86 472.97 649.99 1751.24 847.99 1980.67 863.62 1861.27 984.81 1766.61 1083.34 1936.76 1095.50
00001726 00000014 1622.50 599.37 474.12 648.32 1754.19 847.98 1982.80 864.38 1863.15 986.46 1767.18 1082.43 1939.65 1095.53
00001727 00000015 1623.65 602.96 479.82 644.54 1757.93 848.53 1987.28 865.56 1867.70 987.85 1770.13 1083.99 1944.50 1097.51
00001728 00000016 1626.91 602.84 480.66 641.55 1760.90 848.23 1989.43 865.51 1870.24 985.45 1775.13 1083.27 1945.35 1096.73
00001729 00000017 1630.30 604.08 479.22 641.18 1762.38 848.43 1990.07 863.31 1871.55 985.28 1779.43 1085.15 1947.98 1096.56
00001730 00000018 1633.37 600.94 476.98 642.28 1764.05 847.14 1991.69 861.67 1872.44 984.54 1784.65 1086.34 1947.51 1097.08
00001731 00000019 1635.79 602.14 476.13 637.93 1765.97 845.30 1992.79 859.63 1873.13 981.74 1785.56 1083.75 1949.08 1094.51
00001732 00000020 1636.79 599.47 476.49 636.26 1767.94 842.43 1995.23 856.80 1876.10 979.00 1788.92 1081.27 1951.27 1091.86
00001733 00000021 1637.17 595.35 475.45 638.17 1768.31 840.61 1995.65 855.25 1877.33 974.28 1789.15 1078.74 1951.29 1089.47
00001734 00000022 1640.18 589.71 471.60 645.83 1768.34 834.59 1997.21 844.76 1877.85 971.22 1792.60 1076.11 1952.49 1082.50
00001735 00000023 1637.98 586.29 477.42 640.39 1769.85 834.43 1996.36 848.46 1879.15 970.08 1791.58 1072.38 1951.64 1082.57
00001736 00000024 1640.81 586.49 472.27 643.80 1769.08 832.27 1998.70 842.11 1878.89 968.73 1794.24 1071.84 1954.43 1078.03
00001737 00000025 1640.31 584.02 473.76 646.14 1769.64 830.89 1999.04 840.60 1879.42 967.94 1794.52 1070.16 1954.14 1076.26
00001738 00000026 1639.51 588.59 473.22 647.70 1769.93 831.68 1999.29 841.55 1879.66 965.36 1793.22 1071.70 1953.60 1077.96
00001739 00000027 1638.67 587.62 475.68 652.66 1771.34 838.47 2000.55 850.73 1880.58 963.37 1792.92 1074.51 1950.23 1082.76
00001740 00000028 1639.93 591.55 471.64 648.21 1773.12 841.78 1996.36 855.98 1880.44 965.79 1794.03 1076.96 1947.06 1086.30
00001741 00000029 1640.59 599.60 470.05 644.10 1772.34 843.56 1998.21 857.50 1880.37 969.70 1792.57 1081.20 1951.44 1090.32
00001742 DELETE   1634.40 604.90 478.42 633.10 1771.27 843.64 1997.07 859.09 1881.19 973.35 1790.84 1081.12 1951.42 1092.64
00001743 00000031 1633.65 604.19 481.41 637.49 1767.93 843.45 1997.54 857.47 1878.77 978.21 1787.36 1083.79 1953.53 1094.51
00001744 00000032 1635.53 603.80 481.10 638.14 1767.68 844.99 1997.39 859.61 1877.39 978.64 1787.95 1085.16 1952.02 1096.32
00001745 00000033 1635.66 601.25 481.39 640.06 1766.08 846.18 1995.81 860.68 1874.82 980.04 1786.90 1085.40 1951.10 1096.39
00001746 00000034 1635.68 601.01 480.18 641.24 1765.99 845.71 1994.96 858.97 1874.55 982.50 1787.84 1086.64 1951.31 1096.57
00001747 00000035 1635.40 600.83 479.35 642.49 1765.53 846.14 1994.42 860.59 1873.80 984.07 1786.76 1087.81 1949.34 1098.58
00001748 00000036 1635.51 601.21 480.10 642.30 1765.67 845.86 1994.83 860.29 1874.00 983.07 1786.61 1087.12 1949.75 1097.94
00001749 00000037 1636.38 600.30 477.71 643.66 1766.02 845.66 1994.00 860.17 1874.27 983.46 1787.49 1088.24 1949.08 1098.92
00001750 00000038 1634.12 600.47 478.99 645.99 1764.55 846.26 1993.36 861.60 1872.96 984.39 1785.68 1089.34 1946.97 1100.67
00001751 00000039 1634.15 600.04 478.97 647.83 1764.91 845.99 1993.35 861.42 1873.14 983.54 1786.15 1089.47 1946.99 1100.86
00001752 00000040 1634.26 599.36 477.98 648.67 1765.11 846.01 1992.94 861.18 1873.36 983.41 1786.56 1089.20 1946.50 1100.37
00001753 00000041 1633.69 596.46 477.74 648.79 1763.78 845.33 1991.52 860.44 1871.53 983.23 1784.47 1087.58 1945.77 1098.70
00001754 00000042 1634.12 590.85 475.34 650.91 1764.87 841.55 1991.01 857.04 1872.61 979.33 1785.66 1082.68 1944.37 1093.85
00001755 00000043 1630.63 584.27 477.62 652.09 1762.78 837.47 1990.22 852.68 1871.55 973.98 1784.28 1076.83 1941.73 1087.73
00001756 00000044 1634.23 582.76 471.71 652.81 1763.69 832.66 1991.19 843.62 1871.52 969.09 1786.04 1075.79 1943.48 1082.47
00001757 00000045 1632.60 578.34 473.83 650.94 1763.93 829.56 1990.89 841.32 1872.29 965.33 1784.91 1070.27 1942.82 1077.84
00001758 00000046 1632.48 574.71 474.23 649.78 1763.63 826.98 1992.05 839.23 1872.30 960.70 1782.99 1065.39 1943.78 1073.61
00001759 00000047 1629.17 575.71 472.00 646.61 1759.69 830.20 1993.43 843.49 1871.67 963.78 1778.69 1066.52 1940.67 1075.97
00001760 00000048 1633.93 575.18 473.55 647.61 1765.04 826.32 1993.17 838.32 1874.11 961.27 1785.18 1064.50 1945.04 1072.42
00001761 00000049 1633.67 575.16 475.60 646.54 1765.36 824.96 1994.54 837.30 1874.82 959.04 1785.07 1062.57 1945.42 1070.88
00001762 00000050 1635.59 577.93 478.20 640.68 1767.18 823.67 1997.41 837.63 1875.17 957.50 1786.91 1058.02 1947.69 1067.64
00001763 00000051 1634.92 577.95 478.73 642.19 1767.25 824.01 1997.61 837.89 1875.37 956.82 1785.12 1057.27 1948.10 1066.88
00001764 00000052 1637.12 577.59 476.99 646.88 1769.56 824.81 1997.94 838.17 1877.56 959.11 1787.33 1059.77 1950.01 1069.02
00001765 00000053 1638.73 582.60 477.39 647.79 1771.21 827.13 1999.56 839.52 1880.09 960.99 1789.90 1063.55 1952.21 1072.05
00001766 00000054 1642.38 585.03 475.73 650.07 1776.25 833.20 2000.38 847.36 1882.48 958.72 1794.64 1068.23 1950.57 1078.37
00001767 DELETE   1643.36 583.39 477.28 647.40 1776.12 834.74 2001.13 845.16 1887.05 955.29 1798.93 1067.13 1952.70 1074.24
00001768 DELETE   1646.02 576.25 475.78 648.92 1778.48 830.77 2002.55 837.05 1890.61 947.36 1804.38 1062.22 1956.77 1066.34
00001769 00000057 1647.23 570.54 478.42 651.89 1780.16 827.61 2008.28 829.01 1897.10 945.22 1811.28 1060.58 1968.49 1060.61
00001770 00000058 1644.00 568.68 481.27 647.61 1777.84 820.84 2013.93 822.77 1899.97 939.07 1810.37 1051.90 1973.00 1052.16
00001771 00000059 1646.01 561.35 480.90 652.14 1783.15 814.95 2020.08 817.05 1907.85 932.52 1814.93 1044.64 1983.51 1044.45
00001772 00000060 1647.23 563.35 481.90 645.70 1784.40 814.55 2021.25 813.20 1910.77 932.89 1813.99 1039.77 1993.14 1036.67
00001773 00000061 1647.62 561.88 481.40 646.43 1785.04 815.34 2019.58 810.33 1913.03 931.58 1815.17 1040.96 1997.51 1034.98
00001774 00000062 1649.09 562.03 482.75 643.16 1786.11 816.34 2021.30 808.48 1916.39 931.07 1817.98 1040.60 2003.63 1032.63
00001775 00000063 1648.11 565.06 485.57 639.23 1785.85 818.86 2021.50 809.07 1918.19 934.28 1818.26 1040.00 2006.91 1030.44
00001776 00000064 1649.22 564.35 485.27 640.04 1786.90 820.64 2021.40 809.76 1919.60 935.94 1819.85 1041.62 2009.07 1031.18
00001777 00000065 1650.91 563.16 485.18 641.84 1788.48 822.42 2021.61 810.17 1921.39 937.94 1822.57 1044.09 2011.72 1032.54
00001778 00000066 1651.70 564.98 484.07 644.08 1789.42 823.42 2021.36 812.79 1920.81 939.16 1823.24 1047.48 2009.66 1037.06
00001779 00000067 1650.99 567.87 483.24 645.36 1789.22 825.49 2020.26 815.50 1919.97 941.52 1824.05 1051.09 2007.15 1040.95
00001780 00000068 1652.16 567.21 482.82 645.20 1789.60 826.62 2021.17 815.66 1920.54 942.75 1830.25 1057.25 2004.34 1046.23
00001781 00000069 1653.19 568.02 481.13 645.11 1791.13 825.28 2022.60 815.50 1922.44 942.30 1835.40 1061.20 2001.66 1050.83
00001782 00000070 1651.87 565.51 479.03 646.78 1790.24 822.75 2020.60 815.07 1921.36 941.18 1835.73 1060.73 1994.11 1052.11
00001783 00000071 1650.13 563.20 479.92 649.50 1790.02 821.83 2019.48 815.34 1921.33 940.32 1835.14 1060.99 1990.54 1053.52
00001784 00000072 1650.39 563.40 479.84 650.13 1790.71 821.63 2019.89 816.15 1921.16 941.46 1835.59 1062.24 1989.85 1055.51
00001785 00000073 1647.66 563.59 480.45 650.41 1787.99 821.84 2018.83 816.27 1918.59 940.90 1831.63 1060.56 1987.23 1053.95
00001786 00000074 1645.81 563.07 479.83 648.24 1785.35 820.84 2016.86 815.99 1915.18 940.25 1827.72 1058.93 1983.36 1053.10
00001787 00000075 1643.03 565.94 480.93 647.63 1782.37 821.60 2014.08 815.99 1911.39 939.68 1826.26 1060.82 1981.58 1054.33
00001788 00000076 1642.73 571.20 480.73 647.53 1782.39 825.61 2010.12 819.61 1909.52 942.95 1826.18 1065.30 1980.09 1058.38
00001789 00000077 1641.06 581.69 477.63 642.43 1776.57 833.54 2006.46 824.40 1905.46 952.38 1824.28 1075.15 1981.30 1065.49
00001790 00000078 1639.61 587.82 477.17 642.70 1771.98 841.91 2002.83 830.76 1897.85 962.42 1820.85 1083.19 1977.52 1072.10
00001791 00000079 1637.22 595.54 478.88 644.12 1768.30 851.84 2002.96 838.23 1896.93 971.92 1820.71 1092.88 1978.34 1079.53
00001792 00000080 1634.17 601.26 477.03 643.75 1765.46 857.49 1998.67 844.10 1894.60 975.51 1815.85 1097.19 1975.74 1083.79
00001793 00000081 1632.79 604.09 476.42 643.57 1763.14 860.34 1996.10 846.62 1892.02 976.49 1813.28 1099.89 1971.98 1086.09
00001794 00000082 1630.92 603.34 472.59 646.36 1759.63 863.59 1994.84 848.35 1890.38 981.53 1809.23 1103.93 1971.94 1089.22
00001795 00000083 1627.09 603.04 476.61 644.90 1761.40 866.35 1988.35 854.35 1889.36 983.46 1808.73 1103.99 1971.28 1092.71
00001796 00000084 1621.78 602.61 477.12 651.24 1755.31 868.65 1985.44 856.95 1884.89 989.46 1798.97 1106.18 1970.85 1095.22
00001797 00000085 1616.12 603.59 478.59 654.28 1750.89 870.22 1982.32 860.05 1881.01 993.71 1790.82 1106.83 1967.35 1097.36
00001798 00000086 1612.13 602.52 481.02 659.73 1747.25 872.58 1980.60 862.22 1879.29 995.85 1787.41 1109.60 1965.60 1100.04
00001799 00000087 1612.09 605.82 480.59 657.84 1747.23 874.21 1979.33 863.70 1878.33 997.17 1787.30 1110.63 1964.26 1100.96
00001800 00000088 1608.94 604.72 481.49 659.45 1744.67 873.95 1976.53 863.07 1875.97 997.97 1785.93 1111.47 1961.06 1101.18
00001801 00000089 1606.85 604.99 480.85 656.85 1742.74 872.52 1974.13 862.56 1872.93 998.16 1782.97 1110.24 1956.99 1100.55
00001802 00000090 1604.07 605.41 480.41 655.99 1740.47 873.23 1971.33 862.81 1872.16 1000.26 1780.96 1110.11 1955.08 1099.88
00001803 00000091 1603.67 605.15 480.79 657.52 1740.24 873.22 1971.01 863.09 1871.68 1000.41 1780.61 1109.75 1954.22 1099.77
00001804 00000092 1600.40 614.38 478.23 641.99 1736.53 872.59 1970.51 864.91 1869.60 1000.40 1778.69 1109.77 1951.77 1102.43
00001805 00000093 1599.82 606.33 483.72 658.52 1738.00 873.92 1968.62 864.09 1868.89 1001.94 1778.26 1110.36 1951.28 1100.36
00001806 00000094 1596.57 612.65 481.89 644.19 1733.95 871.10 1969.67 863.08 1868.12 1000.49 1776.40 1109.40 1950.80 1101.81
00001807 00000095 1596.45 614.05 482.12 644.72 1733.41 871.30 1968.51 862.96 1866.64 1001.45 1774.97 1109.97 1950.78 1102.04
00001808 00000096 1597.16 607.03 485.37 656.72 1736.44 870.85 1967.05 861.55 1867.75 1001.82 1776.57 1109.41 1949.93 1099.63
00001809 00000097 1598.18 606.99 484.75 657.51 1736.51 872.13 1966.69 862.54 1867.14 1002.62 1776.12 1109.89 1950.15 1100.00
00001810 00000098 1601.54 609.20 483.40 657.27 1737.42 874.60 1967.27 864.53 1866.56 1002.90 1775.82 1111.21 1952.41 1101.39
00001811 00000099 1607.65 605.22 480.55 654.78 1742.35 871.73 1971.60 862.64 1869.77 1001.44 1780.94 1109.23 1955.67 1100.13
00001812 00000100 1612.49 602.75 476.80 656.52 1745.97 870.41 1974.56 860.69 1873.70 998.60 1784.37 1108.18 1959.83 1098.77
00001813 00000101 1617.48 605.63 475.50 651.68 1749.64 869.09 1977.98 860.04 1877.56 997.71 1787.21 1106.91 1963.82 1098.26
00001814 00000102 1622.16 606.59 479.37 652.22 1753.89 870.16 1984.56 859.56 1881.52 996.10 1793.42 1107.36 1970.98 1097.82
00001815 00000103 1633.01 612.23 475.10 641.37 1764.59 878.19 1988.93 871.98 1887.39 991.32 1800.76 1106.10 1971.39 1100.65
00001816 00000104 1637.03 614.98 473.87 643.10 1764.26 880.04 1997.26 872.88 1889.07 989.79 1803.04 1106.35 1971.79 1098.76
00001817 00000105 1639.83 617.33 476.91 642.64 1767.82 878.46 2000.83 870.17 1894.18 988.71 1807.59 1107.34 1975.95 1098.90
00001818 00000106 1643.44 616.46 475.45 644.74 1771.47 871.55 2005.87 861.61 1899.28 987.04 1812.87 1106.60 1981.25 1096.87
00001819 00000107 1645.53 613.74 475.55 646.16 1776.26 867.63 2010.56 858.75 1903.99 986.62 1817.29 1105.10 1984.91 1096.13
CROP_BBOX: 1289 145 2481 1456
