Video ID: 	8fss7zf2Rao
H: 	1080
W: 	1920
FPS: 	25.0

FRAME INDEX X0 Y0 W H [Landmarks (5 Points)]

00006266 00000000 684.58 178.00 409.31 567.58 923.47 388.82 1075.61 417.63 1057.77 503.94 931.44 599.63 1037.06 621.71
00006267 00000001 683.43 180.26 414.49 566.82 923.06 392.51 1077.67 423.05 1057.58 507.98 926.87 600.53 1036.90 624.12
00006268 00000002 681.48 174.21 428.27 587.62 928.11 388.31 1075.14 427.31 1050.90 521.69 919.19 607.76 1030.17 640.30
00006269 00000003 686.31 173.47 427.03 596.15 931.51 391.62 1077.53 431.44 1050.53 528.81 917.32 613.38 1025.88 646.81
00006270 00000004 689.72 179.43 427.19 593.26 930.83 394.19 1079.80 432.32 1049.82 530.63 917.77 615.14 1027.01 647.26
00006271 00000005 689.06 180.77 429.24 595.03 931.41 393.70 1082.17 432.51 1051.36 531.48 918.78 616.21 1029.66 648.80
00006272 00000006 689.80 187.70 429.57 593.81 934.71 394.09 1084.80 433.06 1055.22 534.88 922.14 619.60 1030.93 652.44
00006273 00000007 689.78 183.02 430.30 602.70 935.68 393.68 1083.92 431.86 1055.49 535.82 924.21 624.44 1030.75 656.64
00006274 00000008 688.80 179.28 433.33 604.59 938.27 396.38 1084.81 432.53 1059.46 536.01 926.11 623.46 1032.05 653.92
00006275 00000009 689.52 177.97 432.31 595.83 936.84 396.30 1086.57 428.11 1063.34 531.60 934.68 620.31 1042.01 646.75
00006276 00000010 690.28 169.66 431.80 601.52 937.18 392.35 1088.35 425.71 1063.83 527.57 934.47 617.49 1043.39 644.88
00006277 00000011 692.62 173.34 428.23 604.57 943.39 391.99 1085.91 426.66 1062.91 525.68 937.91 618.67 1036.93 647.28
00006278 00000012 693.59 168.67 426.37 610.10 946.73 390.01 1084.78 422.69 1065.56 524.43 940.42 618.62 1036.14 645.61
00006279 00000013 695.46 171.16 429.54 598.31 948.08 392.14 1088.33 420.79 1069.77 523.68 944.62 612.56 1044.67 636.04
00006280 00000014 701.38 177.51 429.68 589.76 951.86 396.81 1095.49 426.41 1073.79 526.62 949.81 612.88 1051.83 637.01
00006281 DELETE   710.57 186.22 426.27 581.47 958.42 404.98 1101.32 430.31 1079.85 531.22 958.60 616.91 1057.30 637.80
00006282 DELETE   727.00 211.88 416.00 563.23 974.27 415.62 1110.69 446.76 1088.63 536.68 968.05 622.03 1066.24 646.38
00006283 DELETE   732.82 216.24 413.55 565.34 978.76 423.90 1117.87 455.80 1097.53 540.26 974.56 630.23 1072.85 654.88
00006284 00000018 743.60 213.76 406.94 565.44 987.56 426.78 1122.34 452.55 1107.06 541.31 988.89 633.65 1080.85 653.41
00006285 00000019 747.62 212.22 401.44 569.61 994.56 425.03 1122.63 448.12 1115.36 539.52 999.06 636.19 1085.78 653.93
00006286 00000020 748.22 209.66 400.24 568.99 996.39 419.55 1123.01 443.22 1118.29 536.42 1008.15 637.69 1090.21 655.34
00006287 00000021 746.34 204.56 401.39 574.33 995.43 418.07 1122.99 442.52 1119.30 535.23 1014.12 641.87 1094.29 659.85
00006288 00000022 742.96 205.27 401.61 580.02 999.21 422.08 1116.88 447.38 1118.60 538.57 1015.17 644.27 1089.18 663.04
00006289 00000023 739.76 209.58 407.05 590.29 999.89 429.97 1113.86 455.96 1119.33 546.55 1014.60 653.41 1087.65 673.00
00006290 00000024 740.04 219.18 406.53 586.11 998.41 433.29 1114.02 460.74 1118.91 552.34 1007.51 654.97 1084.42 676.14
00006291 00000025 741.03 221.69 403.85 577.61 999.20 437.73 1115.76 463.92 1119.50 552.62 1007.09 650.77 1084.98 670.57
00006292 00000026 740.32 224.93 402.79 569.63 995.56 438.96 1117.55 463.31 1118.97 550.49 1006.06 648.82 1087.88 667.06
00006293 00000027 737.73 223.99 401.99 569.37 995.91 437.64 1113.87 460.49 1116.93 550.82 1004.20 648.55 1083.11 665.81
00006294 00000028 738.47 225.85 402.31 569.76 995.34 439.07 1114.51 461.90 1116.24 552.57 1002.46 649.35 1082.48 666.65
00006295 00000029 738.86 225.35 404.65 573.91 996.22 443.32 1118.31 470.16 1118.80 556.34 1001.31 651.16 1084.98 671.75
00006296 00000030 737.92 238.86 402.83 560.76 993.65 450.77 1118.40 476.48 1117.36 559.13 999.29 653.31 1085.21 672.44
00006297 00000031 736.51 243.13 403.64 558.60 996.06 455.53 1115.74 481.27 1117.81 562.60 997.66 653.75 1081.69 673.33
00006298 00000032 735.55 247.26 405.31 558.68 995.21 455.20 1114.27 482.59 1115.87 565.60 992.80 653.83 1077.24 675.07
00006299 00000033 733.47 246.70 408.46 563.04 996.98 453.42 1110.96 481.32 1116.25 568.17 991.83 655.93 1071.94 677.96
00006300 00000034 734.38 244.01 405.93 565.50 994.83 456.20 1112.21 481.51 1116.18 568.56 995.48 659.72 1076.25 679.34
00006301 00000035 738.25 239.46 400.95 569.91 999.47 460.60 1113.30 484.20 1120.17 572.25 1003.09 664.62 1079.30 682.48
00006302 00000036 739.33 243.31 400.85 565.20 998.74 462.14 1116.97 486.62 1122.09 573.51 1007.33 667.37 1085.82 685.59
00006303 00000037 740.25 242.24 398.40 565.56 998.28 463.22 1117.04 487.39 1121.53 574.69 1011.32 670.53 1088.60 687.85
00006304 00000038 739.99 242.61 396.77 563.98 999.26 462.43 1115.89 485.49 1121.14 573.77 1012.05 669.77 1088.16 686.32
00006305 00000039 740.27 242.52 398.21 562.19 998.64 461.86 1117.14 486.34 1122.29 571.10 1012.51 668.52 1090.40 686.12
00006306 00000040 739.01 240.90 400.93 564.00 998.73 460.98 1116.86 486.44 1123.64 569.07 1010.94 666.66 1090.05 685.24
00006307 00000041 737.03 246.74 403.23 560.29 998.04 460.29 1116.63 485.25 1123.49 567.54 1004.84 660.21 1086.80 678.93
00006308 00000042 735.91 244.45 404.31 562.85 995.42 461.65 1116.20 485.79 1122.58 565.84 999.07 657.07 1086.02 675.59
00006309 00000043 735.10 241.98 404.48 563.63 995.33 460.28 1115.20 486.14 1120.86 564.79 996.56 654.93 1082.83 675.00
00006310 00000044 734.07 237.02 406.13 569.15 994.23 458.92 1113.81 485.87 1118.42 564.20 993.80 654.21 1080.25 675.20
00006311 00000045 734.04 238.04 406.44 567.10 992.91 457.71 1113.43 484.14 1117.11 563.87 992.67 653.94 1079.75 674.59
00006312 00000046 733.56 236.82 406.78 568.91 992.69 457.37 1112.70 484.52 1116.24 563.75 991.53 653.78 1078.82 675.14
00006313 00000047 733.83 235.77 406.20 569.43 992.15 457.09 1112.56 484.33 1115.67 563.53 991.31 654.00 1078.66 675.41
00006314 00000048 733.45 235.00 406.40 569.35 990.59 456.14 1112.98 481.73 1114.84 562.59 991.26 654.48 1079.19 674.53
00006315 00000049 731.58 233.87 405.13 567.32 989.85 454.07 1110.89 478.32 1113.51 561.32 990.85 653.64 1076.56 672.35
00006316 00000050 728.65 228.53 406.08 571.07 990.56 449.99 1108.03 473.91 1112.41 556.58 991.85 650.84 1074.12 669.23
00006317 00000051 724.48 228.33 406.07 567.72 989.63 447.38 1102.65 470.60 1107.80 555.21 990.74 649.17 1068.27 666.96
00006318 00000052 717.50 218.81 408.27 574.81 987.38 445.06 1095.65 472.63 1104.37 550.37 988.73 644.88 1063.37 666.38
00006319 00000053 710.74 215.11 410.94 576.89 980.24 440.23 1089.24 467.93 1098.50 547.41 985.01 642.65 1060.51 664.39
00006320 00000054 707.05 217.56 413.18 571.29 972.31 434.41 1085.72 459.04 1092.18 545.60 979.53 639.25 1059.77 658.54
00006321 00000055 701.53 205.79 412.07 583.07 960.20 425.60 1085.92 446.65 1088.17 546.55 969.41 640.90 1054.84 659.86
00006322 00000056 696.91 190.52 415.23 600.29 953.12 423.21 1082.73 443.68 1084.38 544.83 962.36 642.66 1051.71 661.21
00006323 00000057 694.51 190.16 416.68 605.92 948.09 422.67 1082.20 442.36 1081.86 547.08 957.75 646.97 1049.40 665.14
00006324 00000058 693.43 201.74 418.70 605.59 949.86 425.33 1081.49 444.05 1085.36 551.19 955.19 653.66 1045.58 671.56
00006325 00000059 688.20 212.96 423.76 599.39 956.84 432.89 1075.14 460.36 1078.41 562.11 949.04 651.76 1032.02 674.36
00006326 00000060 691.62 223.72 422.26 592.28 959.64 438.30 1075.77 465.63 1082.51 566.49 949.21 651.25 1035.66 674.08
00006327 00000061 692.20 228.89 422.03 588.24 961.27 441.06 1074.07 464.12 1084.79 569.41 944.62 651.09 1034.45 671.13
00006328 00000062 688.84 222.94 425.96 590.01 960.30 441.07 1076.34 465.81 1082.68 570.24 942.48 647.99 1035.26 669.11
00006329 00000063 692.44 207.12 422.06 602.56 950.91 432.51 1083.77 447.90 1086.65 559.46 943.49 648.80 1044.70 664.41
00006330 00000064 692.52 196.40 420.46 602.26 947.82 427.92 1086.08 446.02 1083.48 552.57 949.43 644.62 1049.03 662.18
00006331 00000065 694.55 190.59 419.32 599.83 945.90 425.30 1088.58 439.85 1084.67 547.85 957.39 643.89 1057.79 658.00
00006332 00000066 697.16 188.79 415.71 598.30 945.89 424.40 1089.02 439.39 1083.67 546.20 959.92 643.93 1059.13 658.01
00006333 00000067 697.46 189.96 414.38 595.91 945.68 423.96 1087.92 438.75 1082.49 545.56 962.48 645.34 1058.58 659.17
00006334 00000068 697.86 186.70 411.86 597.32 948.53 424.89 1086.95 438.63 1084.37 543.81 969.31 645.96 1061.57 658.59
00006335 00000069 714.74 190.78 395.26 584.80 955.15 426.27 1100.81 441.30 1100.81 541.90 974.57 652.15 1070.60 664.09
00006336 00000070 714.53 192.67 396.41 582.49 955.83 427.44 1100.85 441.28 1102.29 541.01 976.37 651.31 1072.20 662.26
00006337 00000071 714.67 194.32 396.94 581.43 956.29 427.73 1101.33 440.82 1103.38 540.57 977.35 651.63 1073.07 661.96
00006338 00000072 715.83 194.54 397.05 581.30 957.12 427.60 1101.10 440.53 1103.29 540.24 977.66 651.46 1073.43 661.80
00006339 00000073 702.73 188.11 412.21 592.44 955.13 428.74 1084.15 440.14 1085.31 543.47 978.23 644.10 1063.00 654.59
00006340 00000074 703.74 190.92 413.14 590.21 956.30 428.75 1086.94 441.96 1086.25 545.99 977.95 645.27 1062.83 657.27
00006341 00000075 706.02 190.15 412.38 592.44 956.48 428.49 1087.85 441.81 1084.50 547.99 977.17 646.44 1062.12 658.53
00006342 00000076 710.01 187.80 413.32 605.61 960.03 430.60 1088.94 448.03 1084.48 549.70 984.30 655.04 1065.18 670.09
00006343 00000077 712.11 207.93 416.31 595.89 968.50 434.06 1094.56 462.67 1090.29 554.03 985.61 664.52 1066.39 686.26
00006344 00000078 711.93 220.93 418.21 585.38 966.43 438.93 1098.35 468.09 1091.02 562.62 980.10 667.71 1067.16 689.91
00006345 00000079 712.40 224.61 420.00 582.96 966.15 440.80 1101.98 469.18 1093.43 563.04 978.61 665.35 1069.72 687.01
00006346 00000080 715.77 216.75 416.73 582.33 963.50 441.19 1105.20 464.05 1093.37 558.74 978.03 660.73 1074.72 677.93
00006347 00000081 717.07 202.79 414.36 585.84 959.64 437.35 1099.04 451.63 1088.57 557.71 978.83 654.53 1070.53 667.49
00006348 00000082 716.25 194.31 413.99 591.61 956.60 435.32 1097.34 448.26 1086.40 554.37 978.04 653.47 1070.95 665.25
00006349 00000083 718.69 200.46 411.41 586.88 962.57 439.66 1098.31 455.78 1086.19 562.17 982.70 657.22 1069.36 671.47
00006350 00000084 711.77 217.42 421.37 588.55 961.93 448.34 1101.20 470.78 1086.51 573.65 971.16 667.82 1064.44 684.92
00006351 00000085 710.37 227.57 423.02 585.30 965.67 457.25 1098.85 482.21 1086.20 584.46 964.47 671.63 1055.14 691.64
00006352 00000086 708.73 231.59 426.86 582.24 964.09 464.20 1099.58 487.38 1086.43 583.74 960.81 667.93 1055.48 686.64
00006353 00000087 710.92 238.92 425.42 571.48 961.68 465.24 1104.34 487.14 1089.18 582.17 960.04 663.69 1062.56 681.52
00006354 00000088 714.44 234.00 422.57 573.73 964.35 467.13 1107.84 490.58 1093.15 576.61 964.69 660.31 1067.75 678.95
00006355 00000089 716.99 228.01 420.39 578.23 968.05 464.57 1108.33 486.94 1096.09 569.38 970.68 658.50 1069.35 675.73
00006356 00000090 717.96 233.89 422.02 569.79 970.86 460.86 1113.64 483.80 1102.28 564.76 973.22 653.62 1074.28 671.22
00006357 00000091 718.91 225.64 421.37 579.98 972.41 455.96 1112.67 479.36 1102.11 561.24 973.81 651.84 1074.21 670.00
00006358 00000092 720.03 225.17 419.82 578.40 974.58 453.91 1112.01 474.96 1104.53 558.60 975.04 646.62 1077.97 663.01
00006359 00000093 720.01 209.33 420.76 594.36 976.84 444.69 1110.25 462.56 1108.11 554.08 982.96 648.33 1079.29 662.31
00006360 00000094 721.61 204.46 417.50 601.90 973.94 439.78 1106.07 455.07 1105.74 547.64 991.34 651.48 1082.33 663.09
00006361 00000095 720.01 206.52 412.90 591.69 971.78 440.16 1097.82 453.40 1099.46 545.37 995.33 651.53 1079.76 661.13
00006362 00000096 716.01 214.64 414.99 584.29 970.69 440.72 1094.68 456.32 1097.46 546.87 992.66 653.35 1075.75 664.85
00006363 00000097 713.79 216.65 413.36 584.47 970.38 440.30 1090.99 457.74 1094.74 549.18 991.14 657.09 1069.76 670.25
00006364 00000098 710.60 214.00 414.71 585.46 966.69 438.97 1088.16 455.62 1091.82 546.48 989.63 655.30 1068.70 667.79
00006365 00000099 719.89 209.33 400.37 584.07 962.34 435.20 1102.60 449.43 1105.15 545.17 982.49 660.75 1077.62 672.02
00006366 00000100 716.49 204.30 400.98 588.41 958.97 429.05 1101.37 442.65 1105.51 540.54 983.00 659.71 1077.70 670.42
00006367 00000101 716.06 198.97 399.48 591.66 956.74 427.08 1100.24 439.51 1104.85 540.41 981.14 658.90 1076.98 668.87
00006368 00000102 714.86 197.28 399.50 593.67 953.21 424.39 1100.77 435.87 1103.01 539.70 976.38 657.81 1075.78 666.93
00006369 00000103 714.74 197.96 400.02 592.45 952.42 424.20 1101.21 435.36 1103.10 539.40 973.35 656.50 1074.66 665.46
00006370 00000104 714.53 197.08 401.63 592.03 953.15 425.07 1102.42 434.70 1104.83 539.56 971.88 654.62 1074.90 662.33
00006371 00000105 714.16 195.57 404.25 591.75 953.27 426.25 1103.27 434.46 1105.19 539.22 970.78 652.95 1076.58 659.37
00006372 00000106 713.51 193.35 405.67 590.97 951.27 426.39 1103.83 433.50 1104.05 538.69 969.49 650.74 1077.80 656.12
00006373 00000107 701.63 187.36 422.02 602.31 945.70 426.16 1091.46 433.08 1087.16 539.65 970.32 646.79 1070.86 653.64
00006374 00000108 708.59 200.07 418.53 587.04 956.92 432.15 1097.96 442.25 1092.09 547.92 977.76 647.05 1071.63 656.84
CROP_BBOX: 362 0 1451 1049
