Video ID: 	GiJiORsy2O8
H: 	2160
W: 	3840
FPS: 	23.976023976023978

FRAME INDEX X0 Y0 W H [Landmarks (5 Points)]

00004644 00000000 2428.75 210.23 478.52 713.65 2500.42 504.27 2720.94 463.75 2579.82 593.35 2531.25 741.31 2750.65 709.10
00004645 00000001 2427.81 207.68 479.70 714.46 2499.73 503.48 2720.29 463.11 2578.90 592.29 2531.82 742.32 2747.84 710.93
00004646 DELETE   2430.06 218.03 477.67 706.99 2497.45 503.54 2720.21 469.20 2580.36 590.96 2537.58 741.45 2743.64 715.16
00004647 00000003 2429.94 219.22 477.60 704.35 2497.64 502.65 2720.10 468.99 2580.93 590.59 2537.84 741.66 2742.92 716.27
00004648 00000004 2429.57 217.23 477.99 705.06 2497.24 502.11 2720.48 468.77 2581.23 589.92 2538.08 741.49 2741.13 716.78
00004649 00000005 2429.61 214.98 478.26 707.92 2497.70 501.18 2720.35 468.69 2580.39 589.64 2538.30 741.29 2740.89 717.35
00004650 00000006 2429.96 217.25 477.86 704.01 2497.67 500.54 2719.32 468.05 2580.32 588.91 2539.17 740.53 2739.45 716.75
00004651 00000007 2427.98 208.20 481.43 706.86 2500.38 497.80 2720.61 460.84 2578.94 589.07 2535.00 741.83 2742.10 714.43
00004652 00000008 2428.98 206.51 481.90 706.40 2501.69 496.19 2721.88 459.86 2580.67 586.74 2535.52 740.05 2742.65 713.15
00004653 00000009 2430.34 205.39 482.24 705.91 2503.10 494.66 2723.08 458.41 2581.33 584.97 2536.12 738.77 2743.85 711.86
00004654 00000010 2432.25 203.37 481.36 706.08 2505.05 494.39 2723.91 458.87 2582.80 583.99 2536.46 736.87 2745.01 710.68
00004655 00000011 2433.45 203.91 481.02 704.83 2506.01 494.51 2725.22 458.23 2584.93 583.28 2536.69 736.14 2746.92 709.16
00004656 00000012 2434.30 205.16 480.68 704.33 2506.67 494.22 2725.85 457.42 2585.90 582.08 2538.20 736.34 2747.48 708.82
00004657 00000013 2435.28 203.81 480.68 705.80 2507.38 494.70 2725.71 457.86 2586.02 582.16 2539.46 736.24 2747.23 708.70
00004658 00000014 2436.36 203.61 478.86 705.13 2508.16 494.48 2725.65 458.37 2586.83 582.65 2540.69 735.92 2746.32 709.18
00004659 00000015 2435.32 203.42 474.76 708.05 2511.29 490.62 2730.03 456.40 2589.03 585.28 2540.16 731.44 2742.74 704.91
00004660 00000016 2434.95 201.89 475.94 709.51 2511.39 489.99 2731.01 456.40 2589.85 585.59 2540.51 731.74 2742.52 705.95
00004661 00000017 2434.69 203.69 476.71 708.02 2511.26 490.17 2730.96 457.03 2590.29 586.56 2541.89 732.98 2741.14 707.71
00004662 00000018 2434.08 203.57 476.68 706.51 2510.62 490.18 2730.98 457.27 2590.11 587.86 2541.24 733.64 2741.41 708.60
00004663 00000019 2433.99 199.37 476.77 709.23 2510.37 489.47 2731.22 457.04 2589.39 587.95 2540.34 733.32 2741.06 708.86
00004664 00000020 2433.89 198.72 476.83 709.86 2510.07 489.11 2730.90 457.24 2588.40 587.89 2539.13 732.95 2740.50 709.02
00004665 00000021 2433.90 197.79 476.22 709.98 2509.32 489.21 2730.38 457.25 2587.65 586.57 2538.84 733.12 2738.85 709.28
00004666 00000022 2434.25 195.00 480.97 707.13 2505.62 491.97 2725.66 459.33 2586.23 583.57 2539.29 735.16 2742.16 711.81
00004667 00000023 2433.85 197.11 482.94 700.82 2505.66 490.85 2724.59 456.92 2585.20 582.34 2540.32 732.11 2742.43 707.58
00004668 00000024 1944.66 125.74 959.38 1430.13 2055.58 693.75 2459.16 627.77 2150.74 879.22 2120.83 1182.53 2469.25 1126.68
00004669 00000025 1946.30 116.84 953.94 1429.76 2056.88 690.75 2456.99 626.83 2148.74 872.69 2115.94 1176.08 2463.28 1122.34
00004670 00000026 1942.66 108.58 951.13 1425.08 2053.20 689.61 2454.28 623.37 2150.42 868.27 2114.56 1171.20 2459.92 1115.82
00004671 00000027 1943.92 119.11 945.58 1411.97 2052.57 684.15 2451.89 620.10 2147.63 864.04 2111.77 1163.49 2460.19 1109.71
00004672 00000028 1942.20 106.31 950.13 1428.98 2049.06 683.67 2453.39 617.96 2145.86 862.11 2108.74 1162.19 2464.06 1106.48
00004673 00000029 1942.40 108.76 945.50 1419.79 2049.34 685.12 2451.31 618.39 2144.59 860.61 2110.07 1160.42 2463.56 1103.94
00004674 00000030 1943.29 113.12 942.05 1413.75 2048.62 685.16 2448.85 617.29 2143.86 858.32 2109.88 1158.36 2461.32 1101.20
00004675 00000031 1943.33 106.90 944.51 1418.07 2046.60 683.18 2448.81 618.14 2140.23 857.28 2104.02 1158.81 2454.90 1104.08
00004676 00000032 1941.23 107.68 948.43 1417.26 2044.29 683.19 2448.85 618.91 2139.42 857.85 2101.29 1158.69 2453.61 1104.75
00004677 00000033 1940.19 108.09 943.58 1412.51 2042.75 685.22 2447.72 618.47 2140.04 858.84 2101.95 1159.74 2454.41 1103.80
00004678 00000034 1938.21 103.40 944.34 1427.95 2040.20 685.99 2447.03 616.83 2140.92 863.50 2100.69 1163.78 2458.48 1105.70
00004679 00000035 1934.20 118.25 951.28 1420.07 2036.46 690.15 2443.43 620.60 2136.09 868.69 2095.77 1166.64 2458.88 1107.77
00004680 00000036 1928.81 143.22 957.37 1394.89 2033.92 693.24 2444.11 621.69 2140.49 875.20 2098.12 1169.21 2466.83 1108.50
00004681 00000037 1925.42 154.25 956.11 1393.02 2029.66 699.80 2442.33 625.42 2134.13 886.42 2098.73 1177.55 2472.94 1114.18
00004682 00000038 1923.23 154.97 960.02 1399.90 2028.10 710.85 2432.50 635.06 2127.84 894.70 2098.87 1181.75 2471.69 1117.00
00004683 00000039 1920.84 159.51 957.39 1397.52 2022.10 720.20 2434.73 640.37 2126.25 904.87 2093.97 1191.30 2474.10 1123.72
00004684 00000040 1921.16 170.02 961.48 1394.35 2020.90 726.70 2430.86 645.67 2123.42 910.51 2094.58 1195.80 2470.00 1127.26
00004685 00000041 1920.64 166.58 963.95 1407.90 2019.08 728.38 2428.78 649.64 2117.41 919.45 2094.27 1203.42 2468.90 1136.51
00004686 00000042 1918.71 162.38 969.45 1413.89 2020.09 730.20 2428.92 652.53 2117.05 920.56 2095.35 1204.50 2468.14 1138.72
00004687 00000043 1920.36 163.48 966.69 1408.40 2020.77 730.34 2430.10 652.96 2117.57 921.27 2096.61 1204.30 2468.39 1138.76
00004688 00000044 1921.41 160.65 966.21 1411.15 2022.29 727.19 2430.71 651.96 2118.33 919.28 2095.92 1201.04 2469.20 1136.98
00004689 00000045 1922.42 141.63 962.40 1431.94 2025.44 728.00 2430.88 649.13 2120.15 912.97 2096.50 1200.63 2467.54 1134.07
00004690 00000046 1923.25 153.74 960.93 1412.84 2026.94 719.17 2435.65 641.67 2128.88 904.06 2097.35 1192.52 2468.69 1127.06
00004691 00000047 1924.21 142.77 963.26 1413.36 2031.88 705.38 2441.50 634.08 2131.13 889.66 2097.21 1181.77 2469.46 1120.95
00004692 00000048 1928.87 139.62 956.82 1398.04 2036.09 694.50 2444.56 629.13 2137.05 876.47 2096.51 1164.36 2463.31 1108.91
00004693 00000049 1934.65 113.13 955.34 1418.30 2047.66 684.68 2444.41 621.11 2138.65 861.27 2103.83 1154.44 2463.15 1099.86
00004694 00000050 1940.49 106.15 947.42 1411.37 2053.84 681.92 2444.63 616.97 2140.76 848.10 2110.42 1145.66 2460.82 1090.25
00004695 00000051 1941.32 114.19 941.88 1401.74 2054.83 674.04 2448.25 610.67 2143.47 843.31 2111.79 1141.16 2465.74 1086.98
00004696 00000052 1942.80 99.08 951.61 1413.05 2059.84 673.96 2451.60 607.24 2142.97 835.72 2114.39 1136.44 2469.66 1079.25
00004697 00000053 1944.08 96.71 952.44 1420.35 2062.77 674.50 2456.18 606.99 2146.30 834.59 2118.02 1139.35 2473.62 1081.16
00004698 00000054 1946.07 101.99 954.88 1410.93 2064.27 674.47 2457.10 609.87 2147.76 836.93 2118.64 1138.81 2473.16 1083.07
00004699 00000055 1947.33 116.11 948.83 1406.48 2062.95 678.18 2455.01 614.01 2146.47 843.55 2117.42 1144.62 2470.95 1089.50
00004700 00000056 1945.05 109.87 948.27 1419.61 2060.41 681.59 2454.97 616.89 2147.37 849.94 2115.29 1152.21 2467.35 1097.05
00004701 00000057 1944.51 106.71 951.41 1431.39 2057.95 684.81 2456.58 619.41 2148.02 855.81 2112.96 1162.39 2462.81 1107.06
00004702 00000058 1943.20 118.37 948.57 1424.59 2056.41 685.80 2456.07 622.44 2150.80 860.94 2111.18 1165.72 2460.27 1112.20
00004703 00000059 1943.54 126.36 952.18 1424.93 2052.05 688.16 2452.98 624.73 2143.53 869.06 2107.67 1171.12 2462.64 1117.23
00004704 00000060 1943.24 127.09 953.21 1425.52 2047.73 692.30 2453.66 626.87 2142.30 875.09 2108.34 1178.48 2464.32 1123.04
00004705 00000061 1937.94 125.06 962.34 1431.31 2043.53 692.09 2455.76 626.91 2144.42 878.15 2105.33 1182.02 2463.66 1126.80
00004706 00000062 1938.49 135.66 962.08 1420.65 2044.42 693.07 2457.95 627.17 2146.11 879.24 2107.51 1183.02 2465.53 1127.56
00004707 00000063 1937.57 130.68 961.44 1429.20 2042.55 694.52 2456.00 626.69 2144.25 880.71 2107.34 1185.66 2465.99 1128.50
00004708 00000064 1937.90 123.07 962.40 1436.20 2043.55 695.38 2455.42 627.48 2144.70 880.53 2108.18 1185.41 2464.40 1128.19
00004709 00000065 1936.33 128.00 962.28 1429.83 2042.50 695.96 2455.13 627.29 2146.14 880.82 2107.40 1184.81 2464.76 1126.95
00004710 00000066 1937.69 128.83 959.47 1428.93 2043.17 694.61 2455.62 626.00 2146.22 878.69 2105.81 1184.74 2462.82 1127.07
00004711 00000067 1937.00 116.38 960.61 1445.28 2044.73 693.03 2454.33 626.41 2144.23 879.21 2107.58 1185.53 2461.60 1129.25
00004712 00000068 1938.30 109.44 958.60 1449.47 2045.41 691.53 2453.28 622.78 2146.53 875.53 2107.45 1184.09 2460.33 1126.09
00004713 00000069 1941.86 114.44 956.49 1442.82 2049.62 690.18 2453.99 625.56 2145.45 873.93 2107.96 1180.13 2459.35 1125.33
00004714 00000070 1941.29 110.04 957.78 1445.23 2051.26 689.40 2453.29 627.20 2145.21 874.94 2109.75 1178.89 2458.34 1126.03
00004715 00000071 1940.77 107.11 956.70 1448.28 2051.08 688.82 2452.85 626.71 2145.13 875.56 2110.03 1179.06 2458.82 1126.29
00004716 00000072 1940.19 110.60 956.82 1445.38 2050.39 688.10 2453.35 625.95 2146.18 875.81 2108.70 1178.69 2459.06 1125.99
00004717 00000073 1940.98 110.91 951.16 1445.93 2050.63 688.67 2454.30 626.00 2146.77 873.41 2106.05 1179.50 2456.74 1126.75
00004718 00000074 1940.45 107.79 951.14 1450.36 2051.15 689.03 2455.23 626.46 2147.56 872.27 2105.34 1178.46 2458.49 1125.60
00004719 00000075 1941.04 114.62 952.40 1441.02 2049.79 689.25 2456.72 625.62 2148.91 872.72 2107.48 1179.73 2458.85 1126.06
00004720 00000076 1941.87 126.85 949.64 1430.41 2047.12 690.11 2454.05 623.84 2147.89 874.30 2108.64 1182.77 2457.24 1127.23
00004721 00000077 1940.80 118.53 954.19 1442.54 2047.23 692.11 2453.72 625.10 2145.63 878.21 2109.68 1187.07 2458.83 1130.66
00004722 00000078 1941.54 127.22 961.69 1434.05 2052.01 691.56 2458.06 626.91 2148.48 880.90 2115.32 1185.41 2463.93 1130.89
00004723 00000079 1943.13 120.69 962.46 1439.08 2053.84 690.22 2463.75 627.37 2155.00 879.75 2117.26 1185.61 2466.49 1132.37
00004724 00000080 1944.66 119.33 962.07 1443.08 2057.85 689.11 2466.43 628.47 2155.69 878.84 2117.06 1184.43 2467.18 1133.19
00004725 00000081 1945.44 126.22 963.92 1434.94 2060.60 688.55 2469.05 628.83 2160.46 878.13 2119.81 1181.11 2470.14 1130.43
00004726 00000082 1948.09 106.69 961.20 1456.37 2064.03 688.92 2473.31 628.94 2163.29 875.34 2121.09 1184.13 2469.28 1133.31
00004727 00000083 1948.20 105.10 965.01 1458.22 2068.01 687.25 2475.55 629.78 2166.44 872.33 2124.82 1181.97 2469.79 1133.35
00004728 00000084 1949.40 118.36 967.89 1443.93 2069.35 686.04 2480.96 629.45 2168.52 873.46 2125.35 1180.11 2475.61 1132.14
00004729 00000085 1951.49 128.00 968.88 1436.43 2072.58 685.94 2484.03 629.34 2173.55 872.12 2129.08 1179.24 2479.38 1131.23
00004730 00000086 1952.90 122.27 967.18 1442.68 2073.08 683.35 2488.03 630.15 2174.01 873.42 2125.72 1177.62 2480.46 1132.35
00004731 00000087 1951.79 121.09 969.86 1441.54 2075.86 683.47 2489.62 630.40 2178.77 874.32 2131.77 1177.65 2482.73 1132.49
00004732 00000088 1952.19 128.13 972.82 1438.71 2078.41 683.74 2493.93 632.17 2181.42 874.79 2131.94 1176.98 2487.86 1132.91
00004733 00000089 1952.22 125.51 973.21 1442.19 2078.13 683.79 2494.93 631.46 2182.32 875.05 2131.31 1178.58 2489.13 1133.80
00004734 00000090 1952.53 130.12 974.69 1436.56 2078.98 681.39 2496.04 631.18 2186.60 879.10 2134.47 1178.68 2489.30 1135.68
00004735 00000091 1953.62 129.36 974.74 1433.83 2078.46 682.21 2496.35 631.91 2185.71 879.59 2134.57 1179.07 2487.98 1136.00
00004736 00000092 1953.46 127.14 976.48 1435.72 2078.18 686.32 2497.06 633.41 2185.63 881.34 2136.11 1182.23 2488.43 1137.10
00004737 00000093 1942.40 157.74 980.08 1392.92 2076.13 720.17 2495.42 657.26 2190.61 893.88 2140.81 1192.61 2496.77 1140.16
00004738 00000094 1942.61 153.42 980.17 1397.50 2073.55 722.74 2495.74 654.97 2192.45 894.93 2142.00 1196.52 2497.13 1140.24
00004739 00000095 1940.48 153.13 983.36 1401.65 2071.41 712.84 2498.51 653.07 2186.46 894.28 2135.15 1192.88 2496.19 1142.90
00004740 00000096 1938.24 146.10 984.94 1410.01 2075.20 704.38 2501.55 649.31 2188.38 890.10 2136.11 1189.68 2495.77 1143.71
00004741 00000097 1937.42 152.61 985.64 1403.28 2074.53 701.78 2502.24 648.62 2188.14 889.80 2134.57 1189.58 2495.23 1145.18
00004742 00000098 1936.96 149.88 985.79 1404.58 2075.13 699.41 2501.68 647.09 2188.71 888.75 2135.84 1188.83 2494.69 1145.30
00004743 00000099 1938.70 150.81 984.40 1403.05 2074.48 698.47 2502.79 645.13 2189.01 887.56 2135.34 1189.43 2493.66 1145.20
00004744 00000100 1952.62 136.98 971.20 1423.69 2076.87 688.59 2499.27 636.39 2187.60 876.73 2130.24 1178.68 2487.22 1134.44
00004745 00000101 1952.23 132.70 971.45 1427.31 2075.53 688.59 2495.90 634.88 2184.90 874.84 2131.48 1178.95 2487.44 1133.34
00004746 00000102 1952.75 125.58 968.78 1436.40 2074.38 689.01 2494.06 634.38 2180.97 874.56 2127.92 1179.62 2487.11 1133.22
00004747 00000103 1951.20 105.41 972.10 1457.27 2077.41 689.82 2490.86 631.97 2179.79 873.37 2134.11 1181.60 2484.80 1132.61
00004748 00000104 1952.57 111.68 969.10 1451.59 2078.22 689.53 2489.43 630.22 2180.78 873.99 2138.81 1182.19 2485.56 1131.97
00004749 00000105 1953.98 128.79 971.34 1437.22 2076.98 689.86 2489.48 630.84 2178.89 875.18 2137.79 1183.47 2487.21 1133.35
00004750 00000106 1954.82 139.29 971.97 1425.04 2075.04 692.25 2492.18 633.10 2179.62 876.82 2135.51 1184.16 2489.43 1134.08
00004751 00000107 1954.48 137.34 972.54 1428.21 2073.99 693.91 2490.52 633.41 2177.15 877.08 2134.06 1184.32 2488.70 1133.10
00004752 00000108 1951.88 122.45 971.57 1445.96 2074.88 693.40 2488.93 631.69 2175.22 875.90 2133.67 1183.68 2492.90 1131.14
00004753 00000109 1950.27 129.34 973.85 1437.92 2074.71 692.59 2487.11 630.57 2177.11 875.72 2136.33 1182.54 2490.00 1129.77
00004754 00000110 1952.16 121.58 972.52 1446.64 2072.14 694.18 2484.76 632.08 2171.39 876.12 2132.27 1184.48 2485.91 1131.61
00004755 00000111 1953.89 141.41 971.19 1423.00 2070.99 695.43 2485.51 632.62 2173.49 879.04 2133.15 1185.62 2486.94 1132.42
00004756 00000112 1954.01 140.09 971.99 1425.53 2070.24 695.72 2485.27 631.49 2173.13 878.07 2132.82 1188.55 2487.19 1134.21
00004757 00000113 1951.79 137.92 973.95 1427.33 2069.01 693.80 2487.08 633.46 2173.03 879.85 2129.65 1185.99 2484.85 1135.00
00004758 00000114 1948.42 121.63 973.15 1444.19 2068.17 692.89 2482.67 632.17 2170.35 877.44 2126.97 1184.19 2479.65 1132.97
00004759 00000115 1948.43 123.17 969.06 1441.96 2067.89 692.94 2478.62 631.37 2170.69 876.36 2128.89 1183.68 2476.30 1131.80
00004760 00000116 1946.85 119.26 969.96 1447.79 2067.09 692.90 2478.92 630.37 2169.74 877.37 2128.56 1184.64 2479.29 1131.90
00004761 00000117 1947.87 122.02 968.90 1445.86 2066.76 693.78 2479.36 630.53 2169.96 877.90 2128.20 1185.49 2478.58 1132.28
00004762 00000118 1948.04 120.88 968.58 1446.99 2066.55 694.08 2479.42 630.92 2169.91 877.94 2127.84 1185.60 2478.55 1132.45
00004763 00000119 1947.37 115.55 968.67 1451.85 2067.33 693.45 2479.34 630.80 2169.68 876.64 2127.88 1185.50 2478.19 1132.72
00004764 00000120 1946.75 110.96 969.78 1452.44 2068.26 692.15 2480.39 632.58 2170.20 877.01 2127.09 1182.72 2478.75 1132.28
00004765 00000121 1946.69 108.04 971.59 1456.88 2067.00 692.62 2479.51 632.49 2166.44 877.84 2125.42 1183.66 2479.03 1132.61
00004766 00000122 1945.51 115.83 971.16 1449.68 2066.06 692.15 2477.39 631.73 2165.86 879.64 2125.62 1184.35 2478.27 1133.07
00004767 00000123 1944.82 117.60 971.50 1448.87 2063.99 691.44 2477.00 630.53 2164.89 878.82 2123.32 1186.28 2475.17 1134.73
00004768 00000124 1945.66 122.98 971.88 1442.77 2063.02 690.56 2474.92 630.46 2164.27 879.28 2123.82 1186.67 2472.95 1135.86
00004769 00000125 1947.86 138.13 967.84 1427.60 2062.26 691.18 2474.22 630.24 2165.29 881.79 2125.71 1186.27 2475.90 1134.61
00004770 00000126 1948.09 139.54 968.99 1425.05 2062.06 690.78 2472.92 631.57 2163.89 884.46 2125.85 1185.27 2477.05 1134.94
00004771 00000127 1947.44 145.31 969.93 1416.96 2062.03 690.88 2472.69 631.18 2165.49 884.83 2126.61 1185.03 2477.22 1134.43
00004772 00000128 1948.01 145.88 968.90 1417.16 2061.93 690.76 2473.39 630.91 2165.08 884.04 2126.22 1185.29 2476.52 1134.57
00004773 00000129 1947.46 140.03 967.69 1425.26 2061.73 692.18 2473.08 630.75 2163.55 884.00 2126.05 1186.63 2476.98 1134.56
00004774 00000130 1947.63 134.82 969.21 1429.52 2061.65 691.76 2471.65 629.79 2162.51 883.49 2127.18 1187.16 2474.93 1134.65
00004775 00000131 1947.83 133.39 969.86 1428.94 2061.80 692.20 2469.80 629.94 2160.68 884.46 2128.92 1186.63 2473.67 1133.89
00004776 00000132 1948.26 136.88 967.35 1424.40 2061.71 691.37 2469.95 629.02 2162.83 882.20 2128.16 1186.07 2470.90 1133.50
00004777 00000133 1948.06 139.50 968.73 1423.48 2062.12 690.85 2471.84 628.03 2163.74 882.60 2126.98 1185.89 2474.53 1132.82
00004778 00000134 1946.70 137.16 966.06 1426.70 2063.13 691.50 2472.99 627.62 2165.64 881.13 2127.75 1187.06 2477.43 1132.94
00004779 00000135 1948.06 144.46 965.39 1417.60 2063.50 691.34 2472.55 626.79 2164.84 880.51 2128.49 1185.56 2477.10 1130.98
00004780 00000136 1947.52 142.30 963.75 1421.06 2062.28 690.93 2471.37 626.83 2163.67 881.27 2127.47 1185.89 2475.77 1131.65
00004781 00000137 1948.05 130.94 961.70 1431.06 2061.91 692.42 2469.61 627.08 2161.81 880.90 2127.41 1186.81 2473.48 1131.60
00004782 00000138 1948.90 136.36 964.16 1419.61 2064.18 689.74 2471.47 627.37 2164.89 878.24 2129.80 1182.80 2473.76 1130.11
00004783 00000139 1953.71 136.10 958.76 1422.07 2064.05 686.51 2471.10 623.56 2163.56 878.98 2130.49 1187.37 2474.20 1134.02
00004784 00000140 1949.91 136.61 961.94 1419.46 2065.60 687.89 2472.97 626.40 2167.03 877.10 2131.11 1183.63 2475.07 1131.44
00004785 00000141 1950.10 137.04 962.05 1417.09 2066.39 688.59 2472.57 626.16 2168.29 876.44 2133.49 1182.83 2476.88 1129.81
00004786 00000142 1951.11 146.36 963.24 1407.08 2065.20 687.60 2472.72 625.94 2168.53 878.22 2133.12 1182.12 2477.09 1129.67
00004787 00000143 1952.02 144.74 962.68 1409.75 2064.41 686.70 2472.61 624.51 2167.85 880.43 2131.93 1183.25 2477.96 1130.40
00004788 00000144 1951.56 155.83 963.18 1398.81 2064.26 690.65 2473.34 625.87 2168.95 881.34 2132.87 1184.33 2478.84 1129.66
00004789 00000145 1952.14 151.17 963.96 1407.93 2064.97 688.65 2475.67 626.65 2170.97 882.56 2132.71 1184.42 2479.30 1131.82
00004790 00000146 1952.79 148.35 967.00 1413.99 2065.86 689.47 2478.64 627.95 2171.16 883.36 2131.96 1185.82 2483.92 1133.25
00004791 00000147 1952.04 151.54 966.14 1408.58 2066.92 690.34 2479.29 630.63 2170.88 883.81 2130.82 1183.90 2482.92 1133.10
00004792 00000148 1950.84 142.05 968.71 1423.83 2069.10 690.28 2481.73 629.07 2171.22 879.98 2129.88 1183.18 2488.95 1131.03
00004793 00000149 1953.21 160.94 965.92 1401.96 2070.00 688.31 2482.66 627.54 2177.18 879.44 2132.14 1178.20 2489.32 1126.47
00004794 00000150 1950.24 125.49 971.49 1440.00 2075.37 686.98 2482.77 629.84 2175.24 874.45 2131.99 1176.35 2486.80 1127.23
00004795 00000151 1953.21 151.41 965.65 1405.66 2077.28 684.08 2483.71 627.26 2180.46 875.72 2135.76 1170.89 2489.64 1121.92
00004796 00000152 1951.54 128.09 969.66 1425.86 2080.95 684.39 2486.65 631.20 2182.79 873.38 2136.47 1169.19 2484.74 1123.61
00004797 00000153 1950.48 127.22 972.71 1428.31 2080.82 682.79 2485.73 628.97 2182.11 872.51 2136.40 1167.51 2489.18 1120.98
00004798 00000154 1952.33 140.64 967.39 1414.75 2078.33 685.50 2483.89 628.86 2179.93 872.23 2133.87 1168.17 2487.40 1119.53
00004799 00000155 1951.29 143.26 967.62 1416.22 2075.70 685.99 2483.23 629.77 2177.53 876.33 2131.21 1172.44 2487.71 1123.88
00004800 00000156 1950.02 145.70 973.01 1412.01 2071.17 687.09 2482.20 628.82 2175.01 876.88 2129.63 1172.84 2489.75 1122.69
00004801 00000157 1949.83 137.07 969.25 1422.15 2070.18 687.18 2479.60 628.45 2172.15 878.31 2128.99 1172.78 2487.70 1122.14
00004802 00000158 1949.14 143.15 964.67 1415.55 2064.84 687.82 2476.13 628.19 2169.11 880.83 2123.03 1175.55 2484.74 1124.45
