Video ID: 	_mO5W7VHxlM
H: 	1080
W: 	1920
FPS: 	23.976023976023978

FRAME INDEX X0 Y0 W H [Landmarks (5 Points)]

00023709 00000000 767.09 174.63 489.34 783.83 913.23 504.71 1136.83 527.19 1020.22 671.32 912.77 775.45 1079.87 795.02
00023710 DELETE   763.43 184.86 485.96 760.64 904.65 501.12 1126.33 519.47 1014.61 667.97 911.44 768.74 1077.55 784.74
00023711 00000002 758.11 182.79 484.53 757.17 904.11 498.99 1124.76 518.88 1015.34 663.18 903.86 757.55 1078.65 774.63
00023712 00000003 749.40 182.36 486.92 760.86 895.36 491.51 1117.25 511.61 1009.70 655.11 895.72 749.74 1076.43 766.94
00023713 00000004 748.29 175.27 484.04 766.74 889.57 491.15 1110.93 508.83 1001.41 650.95 893.07 748.14 1075.63 763.21
00023714 00000005 748.77 166.83 476.81 778.34 885.98 488.39 1101.33 502.51 992.94 642.62 892.84 747.51 1073.47 759.82
00023715 00000006 747.71 168.61 477.41 778.88 881.69 484.26 1098.42 497.40 987.47 640.38 890.30 748.98 1068.73 760.74
00023716 00000007 747.55 164.53 474.41 784.44 879.62 481.52 1094.43 494.45 982.13 636.58 890.05 749.45 1062.97 761.30
00023717 00000008 745.71 162.48 474.58 788.67 876.29 480.09 1091.85 492.98 977.99 635.88 888.63 750.66 1058.70 762.58
00023718 00000009 745.03 159.86 473.37 787.30 871.34 480.21 1088.61 491.08 974.20 634.45 887.52 754.27 1053.82 764.78
00023719 00000010 744.99 159.35 470.28 784.15 866.29 480.08 1085.97 490.79 969.29 635.27 882.98 754.98 1050.32 765.60
00023720 00000011 742.71 161.00 470.60 776.61 861.41 481.45 1083.48 490.84 965.17 636.00 879.32 754.44 1049.57 763.87
00023721 00000012 741.07 163.86 472.23 775.41 858.80 481.88 1082.02 491.80 962.53 635.64 876.56 755.29 1048.18 765.16
00023722 00000013 739.99 165.31 472.13 773.51 859.39 480.88 1082.24 491.95 962.91 635.94 876.76 754.40 1047.91 765.15
00023723 00000014 742.35 166.72 470.80 771.90 861.25 480.52 1082.95 492.52 964.37 636.61 879.24 754.61 1047.06 766.24
00023724 00000015 743.17 166.11 469.18 772.28 862.31 482.26 1082.54 493.93 965.51 637.98 881.47 755.97 1047.07 767.25
00023725 00000016 740.34 167.49 475.40 769.67 862.18 487.27 1082.11 497.84 966.29 640.34 879.83 757.13 1046.44 767.49
00023726 00000017 738.40 169.65 474.64 766.42 858.37 491.59 1080.17 505.28 959.97 645.06 872.01 757.71 1041.98 770.33
00023727 00000018 736.15 173.88 478.13 759.97 855.12 491.36 1078.44 510.30 953.70 649.30 863.17 756.53 1035.89 773.51
00023728 00000019 735.88 165.76 474.29 761.50 852.14 485.73 1077.55 507.15 949.22 644.64 858.68 753.12 1029.14 772.80
00023729 00000020 736.35 166.11 474.57 759.52 850.70 478.02 1079.14 499.03 949.32 639.38 857.92 749.53 1030.45 769.14
00023730 00000021 736.81 168.45 475.00 755.82 850.98 474.98 1079.36 493.31 950.91 634.45 860.99 745.85 1032.15 763.18
00023731 00000022 735.26 165.83 476.28 759.87 851.26 474.57 1079.47 493.03 951.70 636.27 862.95 746.57 1032.62 763.97
00023732 00000023 736.74 164.37 475.86 765.94 852.89 479.66 1080.47 496.82 953.32 639.63 864.67 751.58 1034.97 767.93
00023733 00000024 734.69 171.54 478.14 761.09 856.14 486.48 1077.84 502.91 956.11 643.01 869.39 754.51 1035.50 769.84
00023734 00000025 740.36 170.74 473.13 768.22 862.19 491.77 1079.88 506.66 960.33 645.68 874.40 761.52 1034.65 775.58
00023735 00000026 739.49 170.13 476.00 770.15 861.10 490.41 1079.54 503.93 960.22 645.49 877.50 763.88 1033.97 776.83
00023736 00000027 740.51 167.82 474.72 779.54 861.91 486.53 1078.05 497.82 960.49 641.68 883.80 765.54 1034.51 776.93
00023737 00000028 741.72 166.09 471.45 784.63 861.26 482.41 1077.35 491.89 960.23 636.53 883.25 764.73 1034.47 774.79
00023738 00000029 738.67 165.91 472.06 784.46 859.36 475.84 1077.22 484.73 959.76 632.04 882.93 760.63 1037.26 770.09
00023739 00000030 737.38 163.61 473.25 790.03 860.06 473.83 1077.65 483.56 961.04 630.74 882.38 758.45 1039.93 768.48
00023740 00000031 738.85 163.19 472.20 788.48 859.87 475.78 1078.88 485.33 961.03 633.29 879.89 757.60 1041.78 767.45
00023741 00000032 738.17 166.08 473.68 782.42 858.70 478.57 1080.85 489.22 959.98 635.31 876.48 756.75 1043.94 767.39
00023742 00000033 736.76 164.85 476.38 778.20 859.90 481.09 1084.30 494.12 964.46 641.01 872.98 753.48 1050.07 765.85
00023743 00000034 736.39 170.22 476.03 772.05 858.76 482.77 1084.22 496.09 965.00 643.86 870.49 752.76 1054.78 765.02
00023744 00000035 735.95 166.69 476.17 769.56 855.56 480.08 1086.22 493.65 962.27 641.30 865.98 749.88 1054.46 762.60
00023745 00000036 734.58 166.28 476.19 768.30 853.36 477.66 1083.80 489.69 959.11 638.24 866.66 749.11 1053.02 760.46
00023746 00000037 731.63 161.39 476.39 769.28 852.73 472.78 1080.62 486.15 957.67 635.05 867.86 745.04 1047.39 757.32
00023747 00000038 733.57 158.60 475.93 771.42 854.29 472.82 1081.44 485.95 958.72 633.93 870.96 746.19 1046.71 758.45
00023748 00000039 736.24 157.93 474.31 775.23 856.35 475.49 1083.42 488.32 961.09 636.75 871.07 748.34 1047.66 760.53
00023749 00000040 737.28 164.35 474.91 769.96 857.24 477.25 1083.18 489.16 962.07 637.25 873.91 751.19 1047.98 762.67
00023750 00000041 737.13 164.83 475.48 765.08 855.66 479.90 1082.87 491.39 961.65 639.20 870.75 751.95 1048.68 763.09
00023751 00000042 734.54 163.99 475.01 758.19 852.40 480.40 1081.70 492.85 959.87 639.14 867.25 750.28 1047.16 762.10
00023752 00000043 735.49 164.39 475.02 756.02 852.04 480.69 1082.69 493.28 960.13 639.45 864.17 748.11 1049.78 760.08
00023753 00000044 735.76 162.06 474.92 753.05 853.40 480.10 1083.40 491.27 962.18 638.01 866.84 744.12 1052.73 754.55
00023754 00000045 738.39 163.01 472.76 754.77 854.92 480.17 1084.56 491.27 963.85 638.35 868.32 744.61 1054.35 754.98
00023755 00000046 737.26 162.20 471.77 754.37 853.80 478.78 1082.41 490.38 961.69 638.12 867.31 744.17 1051.87 754.92
00023756 00000047 737.50 163.21 471.12 760.19 855.09 478.92 1082.39 491.30 961.86 637.73 869.65 747.78 1047.97 759.41
00023757 00000048 738.25 161.44 471.26 765.16 856.91 479.31 1081.81 491.15 962.06 636.72 874.31 750.63 1045.44 761.92
00023758 00000049 739.22 160.47 471.37 768.10 859.12 479.66 1082.49 492.46 964.06 636.53 877.12 751.03 1043.19 763.35
00023759 00000050 739.10 162.03 472.01 765.84 858.65 479.47 1081.87 492.39 962.44 635.98 875.68 750.67 1041.38 763.21
00023760 00000051 738.27 157.85 472.78 769.88 859.02 478.99 1082.62 493.09 963.12 635.86 873.38 748.86 1041.03 762.47
00023761 00000052 739.21 162.36 472.04 766.37 860.30 480.32 1081.82 493.94 963.74 636.05 874.69 750.20 1042.16 763.40
00023762 00000053 740.04 162.27 470.81 763.00 858.27 482.22 1083.32 494.66 964.61 639.64 870.72 751.34 1046.39 763.39
00023763 00000054 736.00 165.76 475.25 755.46 853.86 483.99 1084.41 497.29 962.25 641.52 862.84 747.45 1052.62 759.93
00023764 00000055 728.00 164.31 480.63 754.69 851.45 483.35 1082.59 497.88 958.99 638.19 853.56 735.25 1057.68 747.80
00023765 00000056 726.37 160.04 483.96 756.33 851.52 482.50 1082.93 497.98 958.34 637.05 851.89 729.17 1058.68 742.31
00023766 00000057 725.74 160.69 485.03 754.91 852.36 479.91 1084.35 496.35 958.75 634.44 851.13 725.72 1058.76 739.70
00023767 00000058 726.13 163.41 486.08 747.63 852.10 482.53 1084.00 498.51 958.09 635.71 851.04 725.33 1058.12 738.88
00023768 00000059 729.86 167.92 481.69 749.78 855.29 484.20 1084.24 500.35 961.97 638.99 857.12 732.06 1057.18 746.07
00023769 00000060 734.72 169.36 478.69 757.97 857.86 485.28 1084.59 498.21 964.90 640.27 869.13 746.55 1052.63 758.52
00023770 00000061 739.39 168.78 473.07 768.52 861.82 485.23 1081.75 497.76 963.95 639.74 877.70 756.04 1043.25 768.16
00023771 00000062 740.89 167.38 472.12 776.39 862.28 485.67 1081.05 496.94 962.25 638.89 877.63 759.04 1042.77 770.11
00023772 00000063 740.89 167.97 471.96 782.17 862.82 482.49 1080.33 494.74 961.89 634.80 877.45 756.64 1040.51 768.85
00023773 00000064 741.31 167.70 472.57 783.87 863.22 483.25 1080.80 494.05 962.95 634.16 877.52 756.48 1043.61 767.43
00023774 00000065 740.72 164.79 473.92 786.11 862.95 484.29 1081.47 495.05 963.44 635.56 877.88 756.14 1046.53 766.80
00023775 00000066 737.59 162.35 477.09 786.40 861.39 484.97 1082.93 497.19 963.07 638.25 876.72 755.99 1047.87 767.74
00023776 00000067 735.87 168.55 477.55 772.80 854.17 492.05 1075.72 500.01 957.08 644.10 874.61 756.98 1048.15 764.50
00023777 00000068 736.97 168.25 470.01 770.98 849.68 490.97 1071.08 501.69 948.12 645.38 865.97 754.76 1042.36 764.62
00023778 00000069 728.65 177.98 473.95 761.44 837.65 489.86 1063.81 506.91 931.31 653.51 851.13 754.22 1032.00 769.23
00023779 00000070 730.77 183.02 469.41 753.23 834.85 491.29 1058.38 508.73 924.81 654.70 847.45 755.76 1022.99 771.53
00023780 00000071 725.01 182.45 471.77 752.90 829.89 496.07 1054.38 511.76 920.02 654.47 843.34 758.74 1017.61 773.00
00023781 00000072 724.38 172.95 471.95 764.70 826.40 499.36 1049.84 512.52 915.44 655.98 840.54 761.29 1013.43 773.50
00023782 00000073 722.54 175.63 469.92 757.98 819.68 502.07 1040.19 515.79 903.78 656.12 834.05 763.47 1002.59 776.03
00023783 00000074 717.19 181.32 471.41 749.04 812.39 499.51 1034.19 513.28 895.25 658.51 830.30 764.26 994.50 776.48
00023784 00000075 714.67 175.33 470.18 762.09 807.30 495.66 1025.84 507.87 886.46 657.02 828.94 766.37 986.09 777.17
00023785 00000076 716.78 173.97 465.69 774.48 807.34 495.42 1021.56 505.98 881.46 656.78 830.64 773.80 981.63 783.20
00023786 00000077 716.83 172.14 464.25 780.49 806.73 492.57 1019.42 505.22 877.65 653.80 828.13 771.92 976.57 783.18
00023787 00000078 717.08 174.14 463.73 777.44 805.87 493.18 1019.74 504.99 877.22 653.75 827.35 771.80 978.43 782.28
00023788 00000079 715.03 177.01 464.44 775.74 804.56 495.63 1019.85 508.17 877.08 655.02 825.13 771.45 979.29 782.51
00023789 00000080 705.54 172.15 478.42 782.76 804.55 490.83 1025.26 504.13 884.05 653.42 825.18 767.51 986.55 779.63
00023790 00000081 705.08 169.94 478.96 785.26 804.11 492.07 1024.07 504.13 883.67 653.07 825.37 768.68 984.00 779.93
00023791 00000082 705.78 175.02 476.23 778.80 804.65 491.59 1023.89 503.39 884.46 653.17 827.00 768.48 982.97 779.61
00023792 00000083 715.00 180.00 463.60 771.10 804.69 496.54 1017.51 507.68 876.85 655.51 827.95 773.74 975.37 783.67
00023793 00000084 716.69 179.12 462.66 770.86 805.80 495.91 1018.28 506.90 877.98 655.76 829.29 773.64 976.14 783.49
00023794 00000085 718.97 177.36 462.29 772.41 806.52 494.67 1018.98 506.17 877.71 655.03 829.79 773.53 976.63 783.86
00023795 00000086 719.30 181.33 462.94 767.82 807.00 494.57 1020.29 506.17 878.37 655.86 830.25 773.29 978.08 783.81
00023796 00000087 719.32 180.22 464.52 768.54 807.74 495.02 1020.52 506.49 878.77 655.74 830.30 773.29 977.99 783.75
00023797 00000088 718.66 181.17 463.95 767.68 807.14 495.35 1020.30 506.94 878.78 655.39 830.22 773.45 977.73 783.96
00023798 00000089 718.08 183.28 462.19 762.98 805.80 495.19 1019.75 506.63 878.89 655.90 829.72 773.54 977.35 783.90
00023799 00000090 717.73 184.00 462.86 764.27 805.89 495.37 1019.56 506.67 878.27 655.12 829.25 773.58 977.05 783.82
00023800 00000091 719.30 183.35 463.31 766.89 806.95 494.97 1019.71 506.20 877.67 654.97 830.18 773.70 977.57 783.96
00023801 00000092 719.68 179.24 463.64 776.23 808.30 495.20 1020.02 506.71 877.81 654.15 830.45 774.90 976.50 785.34
00023802 00000093 709.76 171.53 479.31 794.32 810.25 488.24 1027.23 500.61 886.85 651.16 832.17 773.01 984.76 784.65
00023803 00000094 710.15 167.03 478.83 800.47 811.08 488.01 1028.04 501.17 887.09 651.89 832.22 771.86 986.76 784.11
00023804 00000095 720.52 173.50 464.65 779.32 809.65 493.34 1024.07 505.48 880.99 653.21 830.39 769.32 985.24 780.36
00023805 00000096 719.27 170.47 464.92 774.89 807.53 490.91 1026.83 504.68 882.16 652.14 824.84 761.58 991.71 773.83
00023806 00000097 718.55 171.63 463.85 772.64 806.33 489.60 1029.05 503.20 883.30 651.23 823.08 757.72 999.03 769.60
00023807 00000098 719.11 169.39 464.51 776.16 806.89 489.31 1029.29 503.17 883.38 651.71 823.24 758.29 1000.02 770.41
00023808 00000099 718.69 172.81 468.62 774.78 809.07 494.74 1032.42 509.94 886.68 653.61 823.45 758.09 1007.01 771.18
00023809 00000100 717.96 176.94 471.20 767.88 811.91 500.01 1036.30 515.90 893.05 656.27 823.84 757.40 1009.70 771.25
00023810 00000101 722.43 180.97 472.06 760.17 821.25 503.79 1044.05 520.60 905.96 654.37 830.47 756.72 1015.81 771.39
00023811 00000102 721.99 181.55 475.24 759.17 824.42 502.70 1048.62 520.17 912.04 657.34 833.53 757.04 1016.54 772.64
00023812 00000103 725.53 174.21 474.09 767.87 828.34 502.88 1052.76 519.29 918.91 660.56 836.12 760.56 1017.62 775.61
00023813 00000104 727.64 173.11 471.20 768.43 829.60 501.36 1056.20 517.98 921.84 662.03 838.30 762.85 1018.68 778.12
00023814 00000105 729.54 173.95 469.93 765.67 832.26 502.66 1060.19 520.55 925.95 664.44 839.75 762.17 1021.23 778.27
00023815 00000106 727.64 179.13 474.12 762.31 832.96 500.40 1062.50 519.71 926.40 664.54 839.29 760.16 1023.15 777.28
00023816 00000107 731.05 180.97 475.64 769.39 839.49 500.95 1065.94 520.21 931.02 664.95 844.96 760.02 1030.15 776.89
00023817 00000108 732.88 183.69 475.07 768.17 842.85 502.33 1066.01 520.45 933.99 661.56 847.73 759.39 1033.33 775.35
00023818 00000109 733.76 196.80 477.58 756.40 849.98 501.55 1073.73 518.59 945.71 660.05 854.50 759.19 1039.48 774.21
00023819 00000110 735.67 189.86 478.34 761.10 857.26 501.97 1080.31 519.69 955.04 659.03 858.08 756.58 1047.52 772.01
00023820 00000111 739.51 180.22 481.64 767.64 867.86 504.19 1089.34 519.89 970.94 658.35 869.59 755.31 1057.13 768.69
00023821 00000112 738.03 178.86 485.95 768.06 872.91 505.13 1098.01 522.22 980.40 663.26 875.18 754.61 1065.11 768.62
00023822 00000113 731.77 177.76 493.34 771.46 869.78 503.79 1097.92 518.58 984.27 655.86 876.23 757.79 1067.54 769.93
00023823 00000114 741.52 180.65 485.15 763.14 881.01 506.74 1105.97 521.22 993.30 665.23 889.34 756.89 1074.25 768.61
00023824 00000115 737.57 178.16 489.02 767.83 875.40 504.95 1104.26 517.86 990.96 656.64 883.54 759.24 1074.02 769.54
00023825 00000116 743.34 182.24 485.51 760.40 883.72 505.36 1107.77 521.32 995.80 665.94 891.10 755.32 1075.89 768.26
00023826 00000117 743.38 182.44 485.77 760.85 882.82 505.92 1103.84 523.46 991.57 664.52 889.80 755.86 1067.87 770.32
00023827 00000118 744.28 182.00 482.48 760.86 881.67 506.19 1103.57 525.25 989.98 664.87 885.32 756.23 1064.69 772.13
00023828 00000119 743.90 187.05 480.49 751.44 877.48 504.83 1102.56 525.64 987.61 668.65 877.82 756.29 1064.34 773.68
00023829 00000120 743.17 182.28 479.68 756.51 878.17 504.95 1103.33 526.90 988.74 669.00 875.65 755.37 1066.68 773.54
00023830 00000121 741.46 177.68 483.76 768.81 880.76 503.70 1105.33 524.19 992.02 666.98 880.17 755.57 1068.98 772.66
00023831 00000122 741.98 180.96 485.91 771.28 882.59 504.38 1105.04 523.00 993.06 665.76 884.49 757.50 1069.07 773.15
00023832 00000123 742.93 178.04 483.42 774.76 882.32 505.34 1102.93 522.88 991.28 663.74 884.91 758.18 1066.98 772.96
00023833 00000124 743.41 178.76 482.15 774.13 881.92 507.12 1101.64 525.12 989.96 665.74 884.11 758.58 1066.38 773.59
00023834 00000125 743.37 179.01 481.05 769.53 880.54 507.88 1101.19 529.29 988.04 670.65 880.36 757.28 1064.35 774.94
00023835 00000126 743.65 179.71 479.99 766.74 881.33 507.26 1102.00 528.37 990.10 670.78 881.55 756.45 1067.71 773.65
00023836 00000127 742.57 179.25 481.68 765.31 881.80 507.01 1103.51 527.66 991.72 670.60 882.11 755.76 1069.19 772.56
00023837 00000128 742.82 179.72 478.61 764.82 880.93 505.29 1101.06 525.94 989.93 668.02 880.95 755.34 1067.16 772.23
00023838 00000129 740.04 177.88 481.70 763.92 878.74 502.30 1099.88 523.46 987.42 664.11 878.90 753.03 1063.71 770.47
00023839 00000130 740.91 177.53 482.23 766.46 877.56 501.64 1099.43 521.78 986.26 662.68 878.40 753.45 1062.90 770.23
00023840 00000131 741.65 178.78 481.77 768.06 879.68 502.82 1098.78 523.42 986.52 664.00 880.28 756.76 1059.79 774.01
00023841 00000132 743.12 181.00 479.64 766.03 880.09 502.51 1098.73 523.67 986.21 664.16 880.65 758.55 1057.65 776.45
00023842 00000133 745.07 178.47 479.12 766.42 879.92 503.29 1098.60 522.94 985.27 664.22 883.64 759.22 1058.16 775.83
00023843 00000134 744.06 175.72 481.70 767.10 879.98 505.38 1098.64 523.19 985.34 661.51 883.93 757.81 1058.46 772.80
00023844 00000135 743.65 173.57 482.23 767.57 878.56 502.87 1096.57 521.13 981.66 658.53 882.37 756.05 1056.15 771.43
00023845 00000136 742.95 175.22 481.37 768.29 875.24 500.08 1092.33 515.74 976.86 656.73 882.19 757.82 1052.61 771.42
00023846 00000137 744.31 174.87 479.38 772.42 872.73 499.20 1086.57 511.90 972.49 653.33 883.54 760.01 1049.10 771.49
00023847 00000138 741.98 177.70 478.87 771.56 867.11 498.79 1083.11 511.39 967.59 653.40 876.57 761.01 1046.26 772.44
00023848 00000139 740.16 172.16 478.12 778.27 864.93 496.95 1081.47 510.05 965.29 651.88 873.07 760.78 1044.85 772.75
00023849 00000140 738.58 174.45 477.41 773.12 862.08 496.01 1081.18 509.64 963.83 651.37 870.76 760.36 1042.99 772.84
00023850 00000141 736.53 172.43 478.31 769.56 860.48 494.84 1083.23 509.90 964.70 651.67 867.82 757.50 1044.53 771.05
00023851 00000142 735.24 174.97 477.07 764.20 858.21 494.64 1083.69 510.58 964.30 654.69 863.30 755.67 1047.67 769.70
00023852 00000143 733.82 173.00 479.09 764.14 858.70 496.02 1084.34 513.12 964.07 656.18 861.86 753.69 1047.15 768.67
00023853 00000144 733.55 170.35 480.32 770.38 859.68 496.80 1084.57 513.58 965.02 657.00 862.66 754.94 1047.81 769.57
00023854 00000145 729.29 175.19 488.00 773.42 859.40 498.05 1082.24 512.71 963.19 653.67 865.01 756.90 1044.80 770.04
00023855 00000146 729.67 174.35 485.53 777.16 855.66 498.68 1077.34 513.01 955.94 651.85 862.66 759.57 1038.47 772.83
00023856 00000147 726.62 180.00 484.42 772.06 851.09 497.39 1074.17 512.35 950.76 655.51 859.71 760.18 1037.74 773.73
00023857 00000148 726.33 178.37 484.49 768.99 851.96 495.84 1076.05 511.30 952.54 655.23 861.95 759.70 1037.47 773.76
00023858 00000149 728.48 176.51 482.98 767.97 853.27 495.43 1075.80 509.81 954.12 654.40 864.58 759.01 1040.81 772.03
00023859 00000150 728.33 175.36 484.48 769.21 853.97 495.29 1077.85 509.33 956.65 654.85 865.25 758.36 1043.90 770.96
00023860 00000151 728.66 173.73 484.71 771.30 853.50 496.73 1077.83 510.50 956.21 655.96 864.45 758.15 1045.26 770.37
00023861 00000152 729.13 177.67 483.65 766.92 852.13 496.88 1076.37 510.98 952.96 655.21 864.05 758.68 1042.43 771.33
00023862 00000153 728.68 177.50 483.57 769.83 851.91 496.63 1074.66 510.09 951.58 655.12 866.31 761.67 1039.59 773.89
00023863 00000154 732.86 178.51 477.90 770.11 852.83 495.59 1072.42 509.06 950.42 654.89 871.46 766.93 1035.42 779.23
00023864 00000155 734.76 180.76 474.35 766.16 851.03 493.20 1068.65 507.25 946.10 651.90 871.55 766.68 1030.14 779.78
00023865 00000156 734.24 181.13 471.36 760.54 849.54 494.01 1066.07 508.27 943.85 649.82 869.16 764.69 1025.91 777.92
00023866 00000157 730.88 185.93 472.21 752.11 839.14 491.91 1059.24 506.79 930.92 653.01 858.56 762.84 1018.03 776.54
00023867 00000158 727.40 178.64 470.65 757.11 831.75 493.05 1052.45 506.80 922.15 651.43 849.59 764.37 1008.55 777.23
00023868 00000159 724.31 171.57 468.94 762.09 823.13 495.87 1042.17 506.40 908.58 650.35 841.29 764.45 1001.33 774.45
00023869 00000160 723.94 171.91 467.11 760.26 820.33 493.83 1037.62 504.59 903.90 651.01 839.58 762.62 998.10 772.71
00023870 00000161 722.00 169.84 467.30 761.11 819.08 493.93 1036.70 503.24 903.44 649.67 837.31 762.31 998.31 771.08
00023871 00000162 720.28 172.60 469.01 752.64 817.20 493.78 1037.65 502.49 903.22 648.16 836.65 759.70 1001.71 767.76
00023872 00000163 720.47 171.01 467.77 756.54 816.90 492.54 1037.48 501.56 902.85 648.23 836.06 759.42 1001.39 767.80
00023873 00000164 720.50 169.88 466.98 767.00 817.49 492.40 1036.05 501.24 901.57 648.28 837.29 760.99 1001.95 769.38
00023874 00000165 719.90 170.82 468.39 772.38 818.77 493.58 1037.28 503.52 902.16 648.89 835.67 759.67 1004.86 769.07
00023875 00000166 719.03 171.96 470.70 774.53 818.77 494.81 1038.72 504.80 902.13 650.05 834.28 759.23 1008.70 768.55
00023876 00000167 721.23 171.99 467.53 776.32 821.37 494.83 1039.12 505.61 903.12 652.12 838.09 763.05 1004.72 773.12
