Video ID: 	dJduj33CsHk
H: 	1080
W: 	1920
FPS: 	25.0

FRAME INDEX X0 Y0 W H [Landmarks (5 Points)]

00001090 00000000 856.32 202.94 429.64 659.29 950.07 460.35 1134.08 485.49 1005.22 590.79 941.35 678.73 1112.96 697.39
00001091 DELETE   856.82 218.76 424.26 653.03 941.13 471.03 1125.24 499.66 992.73 610.61 932.63 691.55 1101.59 713.25
00001092 00000002 853.29 224.96 424.26 644.19 936.99 474.77 1118.82 505.32 986.54 615.60 926.26 690.23 1094.26 713.68
00001093 00000003 852.79 221.07 422.29 645.78 936.97 467.07 1113.47 496.81 979.65 605.99 926.24 686.39 1088.43 709.01
00001094 00000004 854.75 206.89 420.43 668.02 940.53 460.99 1115.11 487.25 981.03 594.28 929.91 686.68 1091.10 706.25
00001095 00000005 858.42 200.68 422.11 677.83 943.56 456.96 1120.13 481.03 985.77 590.75 934.64 686.34 1100.46 703.70
00001096 00000006 856.80 196.86 425.06 670.33 944.43 454.33 1122.51 477.86 988.00 584.19 934.49 679.28 1101.47 696.37
00001097 00000007 852.43 195.63 426.92 655.24 938.54 450.54 1120.94 473.32 985.51 578.41 928.48 670.53 1097.59 687.10
00001098 00000008 847.73 196.11 424.39 649.15 933.54 450.80 1117.88 472.15 984.27 576.35 923.48 664.48 1100.12 679.94
00001099 00000009 839.65 198.40 420.60 654.34 922.42 453.98 1109.89 474.41 976.00 581.26 915.49 670.58 1093.20 685.46
00001100 00000010 823.68 203.48 424.00 666.72 912.15 468.11 1095.03 481.46 974.15 594.94 912.69 685.54 1080.42 695.19
00001101 DELETE   810.21 206.25 428.49 684.46 888.92 477.59 1074.43 488.70 943.23 606.20 891.87 699.21 1060.30 709.85
00001102 DELETE   786.36 210.97 427.15 660.20 867.61 470.41 1047.27 475.81 925.75 597.66 880.17 689.43 1050.97 691.17
00001103 00000013 782.60 200.55 425.16 652.59 859.81 463.53 1037.98 467.65 914.89 583.10 871.17 678.87 1041.14 679.37
00001104 00000014 783.52 195.52 423.23 648.51 859.22 458.94 1039.58 464.62 913.84 579.49 866.70 673.23 1038.63 675.11
00001105 00000015 784.67 193.82 422.02 649.04 859.34 459.58 1039.51 466.20 913.35 581.89 867.58 674.18 1038.69 677.00
00001106 00000016 783.02 199.73 422.63 649.30 858.42 462.20 1037.40 470.25 911.18 587.33 864.48 677.76 1035.02 681.86
00001107 00000017 778.42 203.30 425.12 658.26 852.59 464.94 1030.19 473.42 904.04 596.60 863.52 687.93 1029.41 692.41
00001108 00000018 771.99 203.14 426.72 665.41 846.15 469.81 1022.88 477.00 897.22 599.44 860.65 691.53 1025.85 694.65
00001109 00000019 771.22 198.87 424.87 678.07 838.59 477.18 1019.10 478.45 894.61 606.87 856.42 699.67 1017.59 701.13
00001110 00000020 766.56 204.11 428.42 684.44 832.48 486.82 1012.55 483.14 888.64 615.18 855.58 713.00 1015.23 710.35
00001111 00000021 766.77 201.70 426.89 685.71 832.81 481.07 1011.33 477.21 885.76 607.39 854.93 710.04 1012.13 707.31
00001112 DELETE   768.20 185.29 423.62 689.84 834.85 467.52 1014.88 462.97 883.03 585.48 852.42 693.82 1010.92 690.64
00001113 00000023 766.27 178.80 423.20 688.20 836.64 451.16 1017.97 450.47 886.86 568.85 852.78 681.33 1020.67 678.51
00001114 00000024 770.10 182.00 421.07 678.71 840.00 451.70 1021.56 449.67 893.76 567.67 858.86 677.99 1029.02 673.99
00001115 00000025 770.96 181.71 427.83 679.76 836.55 460.48 1027.83 458.01 893.11 584.12 854.99 682.06 1034.13 678.09
00001116 00000026 770.50 184.12 424.73 661.05 833.53 456.65 1024.63 455.39 888.94 579.08 851.30 672.40 1030.87 669.45
00001117 00000027 770.05 181.24 423.81 651.29 832.44 450.12 1020.84 450.31 885.59 570.46 850.15 664.13 1024.71 662.40
00001118 00000028 771.48 181.60 422.36 650.83 833.42 450.44 1021.04 450.16 885.60 570.40 850.88 664.78 1023.94 662.77
00001119 00000029 771.27 183.38 425.39 660.94 834.35 455.37 1025.30 454.18 889.04 577.52 851.44 672.18 1028.31 669.41
00001120 00000030 773.73 183.40 422.90 659.44 836.06 457.29 1027.45 456.41 891.28 577.64 851.09 669.41 1030.11 666.80
00001121 00000031 776.35 186.43 420.11 650.32 840.36 454.32 1027.71 453.08 897.31 571.02 857.36 666.18 1038.34 662.73
00001122 00000032 776.68 186.27 422.37 649.43 842.83 453.34 1028.52 452.44 900.35 570.13 859.28 664.08 1038.93 660.55
00001123 00000033 776.85 177.57 428.64 664.66 839.53 456.50 1029.63 454.05 897.79 577.99 855.44 665.95 1036.84 663.83
00001124 00000034 773.56 185.45 427.58 661.63 836.55 464.08 1028.15 463.96 896.33 586.59 853.67 675.25 1033.38 673.22
00001125 00000035 768.84 190.57 431.79 663.78 834.23 470.99 1028.61 470.50 898.13 595.05 852.60 683.33 1033.93 681.22
00001126 00000036 760.74 196.50 435.98 667.89 830.50 477.60 1024.08 474.86 896.03 603.36 851.13 691.96 1029.45 688.40
00001127 00000037 763.50 197.96 430.84 666.66 831.81 477.73 1018.47 475.55 892.33 605.75 851.35 692.02 1022.87 690.15
00001128 00000038 764.24 199.46 429.88 666.17 832.87 479.87 1018.60 476.09 894.97 607.06 854.12 695.36 1023.88 692.19
00001129 00000039 763.53 199.19 431.38 666.27 833.12 479.62 1019.49 474.82 896.72 607.32 855.78 695.24 1026.20 691.05
00001130 00000040 759.87 202.83 432.96 667.76 830.33 482.41 1021.11 477.10 898.70 607.72 855.53 700.99 1027.21 695.36
00001131 00000041 761.20 200.35 431.00 660.89 829.89 480.68 1015.11 475.95 893.12 608.70 853.92 695.79 1019.35 692.04
00001132 00000042 760.80 201.25 430.28 660.22 828.93 480.79 1013.72 476.98 892.03 610.15 851.89 694.09 1018.53 691.12
00001133 00000043 760.33 200.99 430.54 659.90 828.12 480.56 1012.81 476.61 890.57 610.23 851.98 693.20 1018.37 690.03
00001134 00000044 760.46 200.97 431.41 659.26 828.10 481.02 1013.42 476.27 890.21 609.63 853.41 694.35 1020.33 690.37
00001135 00000045 760.63 201.01 431.35 661.17 829.45 481.97 1013.85 476.90 891.32 610.31 854.98 696.83 1020.25 692.62
00001136 00000046 760.95 203.28 432.17 661.33 829.10 483.48 1013.19 477.33 891.45 611.39 854.43 698.24 1020.87 693.20
00001137 00000047 759.77 203.72 432.80 660.45 829.26 483.66 1012.81 477.86 892.44 611.81 854.50 697.92 1020.22 693.23
00001138 00000048 759.65 204.20 432.43 659.97 828.59 484.26 1012.35 477.81 892.50 612.97 854.39 698.67 1020.48 693.50
00001139 00000049 758.58 203.70 431.81 660.36 827.28 485.39 1010.48 478.61 890.71 613.01 853.09 698.96 1018.74 693.51
00001140 00000050 757.04 204.70 431.14 658.86 825.05 485.08 1008.40 479.66 888.23 613.97 849.47 698.52 1015.36 694.35
00001141 00000051 755.34 205.14 431.14 659.57 824.09 484.97 1006.98 480.70 886.84 613.65 847.48 699.59 1009.62 696.71
00001142 00000052 754.24 204.85 428.29 659.28 823.58 484.90 1006.28 480.57 886.26 611.65 846.68 700.94 1007.18 698.14
00001143 00000053 752.92 201.43 427.24 659.13 819.82 485.40 1004.05 480.01 883.32 611.30 843.42 700.65 1011.16 696.52
00001144 00000054 752.49 202.34 426.43 665.00 820.56 484.72 1004.30 479.48 881.52 609.03 840.55 698.32 1010.86 694.23
00001145 00000055 749.25 204.16 430.39 676.03 819.65 487.05 999.85 478.42 878.06 607.56 843.31 702.99 1007.04 696.36
00001146 00000056 744.39 205.94 429.27 677.00 812.68 490.51 995.43 480.85 869.47 610.57 836.48 703.69 1007.45 695.88
00001147 00000057 737.33 208.55 430.91 671.29 803.01 493.40 988.17 484.09 860.04 614.05 824.35 698.89 1004.77 690.81
00001148 00000058 728.36 211.94 432.23 656.75 795.81 492.83 983.53 488.78 856.84 618.85 813.12 693.97 997.10 690.42
00001149 00000059 717.63 222.46 426.30 642.80 783.36 492.49 961.79 485.12 842.72 615.51 812.15 697.70 982.87 688.21
00001150 00000060 712.58 221.08 426.89 648.92 778.87 494.82 954.66 486.43 837.90 614.09 810.15 701.40 977.60 690.64
00001151 00000061 709.63 226.05 425.52 648.74 773.52 497.37 948.44 486.16 832.52 614.61 806.97 703.95 975.46 690.75
00001152 00000062 707.12 226.61 422.92 654.39 770.91 498.02 942.75 486.76 827.51 616.52 804.73 705.57 973.00 692.36
00001153 00000063 705.62 228.71 422.85 651.31 767.73 500.95 939.50 487.83 824.47 618.12 802.49 705.02 973.08 690.24
00001154 00000064 701.84 230.20 424.44 646.85 764.66 501.93 937.89 489.84 821.19 620.51 797.64 702.51 971.52 688.61
00001155 00000065 702.54 230.96 422.27 645.63 762.45 504.05 937.24 492.18 819.92 622.79 795.89 704.68 970.53 690.99
00001156 00000066 703.72 232.50 421.24 643.77 761.28 505.30 937.04 495.18 818.27 625.05 792.66 706.07 967.49 693.93
00001157 00000067 703.90 232.99 422.20 644.56 760.72 508.10 937.57 497.97 818.38 627.66 792.56 708.32 966.69 696.23
00001158 00000068 709.06 225.89 426.89 657.13 764.17 506.41 944.69 493.39 823.68 632.19 794.22 707.81 971.52 695.70
00001159 00000069 707.43 235.27 421.26 645.16 763.31 511.89 941.33 500.93 821.95 630.39 796.23 710.71 970.12 697.84
00001160 00000070 709.16 237.22 421.08 645.19 763.97 513.38 942.63 503.30 822.47 633.56 797.63 713.32 970.55 701.28
00001161 00000071 716.11 230.73 424.00 657.30 767.31 514.24 950.27 499.65 830.46 639.36 800.39 713.89 978.44 700.52
00001162 00000072 718.10 231.02 421.79 659.98 768.97 515.97 951.47 502.38 831.07 642.17 802.40 716.90 980.83 704.14
00001163 00000073 718.78 235.02 421.15 656.64 769.12 517.71 951.74 503.72 832.00 644.64 804.08 718.64 982.92 705.64
00001164 00000074 718.44 236.44 421.31 656.85 768.38 519.67 950.51 504.38 830.97 645.69 803.72 720.28 983.66 706.20
00001165 00000075 717.40 237.61 422.02 657.08 768.43 520.54 949.84 504.16 831.30 644.29 803.93 720.40 982.95 705.37
00001166 00000076 717.63 236.80 419.83 658.46 767.37 520.81 948.97 503.62 830.16 644.81 802.77 718.89 984.54 703.07
00001167 00000077 711.47 249.09 417.80 643.09 765.86 530.75 944.24 508.36 826.65 643.07 802.97 723.83 988.96 700.86
00001168 00000078 709.04 250.42 418.02 641.03 764.57 530.34 942.57 508.94 826.05 644.66 801.79 721.63 989.73 698.87
00001169 00000079 706.01 251.54 418.65 639.89 760.90 531.07 940.78 509.62 823.89 647.22 797.96 719.60 992.12 696.39
00001170 00000080 703.94 243.48 418.84 645.31 755.36 526.25 931.36 511.15 814.97 648.18 794.31 712.52 980.81 696.32
00001171 00000081 701.72 243.78 418.02 644.73 752.81 525.68 928.44 509.87 812.60 648.46 792.26 712.05 979.86 695.42
00001172 00000082 700.30 242.31 416.61 646.61 751.25 526.52 925.96 510.14 810.47 648.61 791.77 713.08 978.42 695.76
00001173 00000083 698.31 241.23 417.81 647.10 750.10 526.41 924.32 510.09 808.60 648.37 791.10 713.37 976.55 696.07
00001174 00000084 697.90 241.97 417.64 646.14 749.06 527.22 923.26 510.00 807.68 648.53 790.57 715.27 974.98 697.18
00001175 00000085 697.67 242.76 417.03 646.21 748.48 527.26 922.86 510.08 807.35 649.74 790.72 716.41 975.10 698.42
00001176 00000086 697.81 242.40 416.81 647.07 748.91 529.14 922.77 511.64 807.92 650.04 790.45 716.95 974.64 698.70
00001177 00000087 697.94 243.66 416.85 645.71 749.15 529.75 923.60 512.58 808.35 650.64 790.11 716.77 975.01 698.88
00001178 00000088 699.20 243.45 415.12 645.66 750.11 529.74 924.12 513.30 809.13 650.77 791.04 715.75 975.93 698.40
00001179 00000089 698.68 243.88 415.87 644.61 750.84 530.25 924.15 513.57 809.39 651.19 792.55 716.10 976.61 698.67
00001180 00000090 700.78 243.34 414.52 645.18 751.78 530.87 926.02 515.27 811.55 654.10 793.06 716.60 977.83 700.07
00001181 00000091 701.93 245.09 416.47 643.55 753.82 531.73 928.24 515.56 813.30 653.96 795.05 717.69 979.13 700.83
00001182 00000092 703.13 246.45 418.90 645.80 756.70 532.86 933.18 518.20 816.60 655.44 796.37 719.09 982.23 703.55
00001183 00000093 705.85 248.42 418.19 645.24 758.20 533.48 936.62 519.04 819.13 656.22 797.47 721.70 983.14 706.41
00001184 00000094 706.54 249.05 419.74 644.62 761.19 534.07 940.42 520.50 822.59 656.28 798.92 722.30 983.64 707.74
00001185 00000095 710.52 250.89 417.87 642.75 763.69 533.32 943.22 520.21 826.53 654.31 800.22 722.89 982.68 708.99
00001186 00000096 713.10 251.53 418.53 641.63 765.58 533.36 945.25 519.93 828.59 653.27 802.38 723.62 983.77 709.41
00001187 00000097 722.48 244.52 419.11 651.32 771.34 529.37 955.10 511.23 838.26 657.66 809.89 726.44 994.02 710.23
00001188 00000098 724.39 242.60 420.25 653.58 776.93 527.81 958.47 509.92 843.86 656.98 815.35 726.88 997.00 710.63
00001189 00000099 726.44 239.35 420.32 655.00 779.58 526.67 960.75 509.39 845.79 657.07 818.85 726.82 998.86 710.87
00001190 00000100 727.37 237.61 420.80 655.25 781.75 526.58 964.56 508.71 849.24 654.62 820.47 726.72 1001.42 710.31
00001191 00000101 728.74 234.51 420.85 656.85 784.65 525.65 967.70 508.27 852.85 652.14 822.24 725.15 1002.78 709.03
00001192 00000102 731.31 233.18 420.03 657.00 786.80 526.18 968.67 509.16 853.75 651.95 824.45 724.61 1003.97 708.58
00001193 00000103 725.96 233.79 432.59 650.55 792.22 532.49 969.20 512.37 855.40 651.53 823.09 718.51 1003.72 699.84
00001194 00000104 727.43 234.00 433.07 650.18 794.20 532.09 970.35 511.57 856.38 651.34 825.89 718.52 1005.70 699.50
00001195 00000105 729.47 233.46 433.23 649.11 795.70 531.25 971.47 511.11 857.45 651.04 827.47 716.86 1007.84 698.15
00001196 00000106 731.06 232.92 432.58 649.11 797.58 529.56 973.88 509.89 860.36 650.63 830.02 716.85 1009.54 698.75
00001197 00000107 733.31 233.46 432.75 646.85 799.29 529.25 974.75 509.35 861.79 649.94 832.43 716.15 1010.88 697.96
00001198 00000108 734.96 232.92 431.49 646.70 800.05 528.66 975.88 508.89 862.20 649.37 832.37 715.42 1011.63 697.37
00001199 00000109 736.99 230.79 431.41 647.82 801.33 527.71 976.67 508.73 861.35 647.32 832.61 713.61 1012.89 696.15
00001200 00000110 738.10 229.44 430.96 648.05 801.94 526.51 977.75 507.34 862.37 646.42 833.35 713.47 1013.16 695.98
00001201 00000111 738.03 227.85 432.14 651.05 802.00 524.80 979.41 506.96 863.02 645.77 832.24 712.96 1012.59 696.67
00001202 00000112 737.46 226.41 432.53 651.48 801.19 523.56 979.53 505.71 863.23 646.31 832.17 713.37 1012.09 697.14
00001203 00000113 736.84 225.58 432.79 651.99 800.80 523.17 979.16 505.62 862.80 645.93 831.62 713.13 1011.50 697.16
00001204 00000114 734.27 225.86 432.80 651.33 799.35 522.82 978.59 505.22 862.42 645.68 829.88 713.61 1010.43 697.61
00001205 00000115 732.46 225.60 432.90 650.86 797.47 522.36 978.28 504.69 862.29 645.45 828.03 713.92 1009.16 697.90
00001206 00000116 729.83 224.89 433.08 647.87 794.06 521.82 976.01 504.76 859.09 644.18 824.40 714.49 1005.09 698.86
00001207 00000117 727.51 223.31 435.51 650.77 791.19 521.79 974.93 504.88 856.97 644.36 820.50 714.64 1002.19 699.10
00001208 00000118 726.23 223.87 433.69 648.78 789.99 521.13 973.30 504.59 855.78 642.56 818.44 713.73 999.16 698.56
00001209 00000119 728.89 226.06 422.86 650.25 784.53 515.08 970.33 500.87 853.48 639.80 819.67 717.04 998.28 703.50
00001210 00000120 724.44 225.23 424.47 648.49 779.40 513.46 966.64 498.89 849.58 639.78 814.93 716.58 995.05 702.87
00001211 00000121 721.55 226.02 423.76 647.96 775.16 514.00 958.06 499.41 841.59 636.10 806.98 713.78 985.54 700.16
00001212 00000122 719.16 227.40 422.46 645.73 771.03 511.98 954.43 498.37 835.43 634.94 802.12 711.64 980.68 699.13
00001213 00000123 715.11 225.39 422.96 647.45 766.32 509.88 950.31 495.83 829.81 634.91 798.53 710.03 976.02 697.33
00001214 00000124 709.73 223.73 423.72 649.34 762.74 509.84 942.91 495.38 821.41 633.52 794.52 710.81 969.01 697.81
00001215 00000125 704.49 223.34 425.52 648.33 758.78 510.53 935.99 493.81 814.91 633.35 791.35 711.59 963.88 696.67
00001216 00000126 701.10 222.87 427.80 649.61 756.07 511.26 931.04 493.71 810.70 633.87 788.81 710.86 961.48 695.20
00001217 00000127 697.67 220.58 428.04 652.69 752.83 511.83 927.26 493.39 807.21 635.00 785.75 711.20 959.18 694.82
00001218 00000128 695.59 219.91 428.44 653.87 750.85 511.49 925.24 491.99 805.26 637.39 785.12 710.56 959.62 693.28
00001219 00000129 692.36 218.19 430.72 655.77 749.02 511.43 923.51 492.57 802.93 636.94 783.16 710.50 957.69 693.73
00001220 00000130 692.30 218.58 430.43 655.24 749.15 511.69 923.02 492.35 803.17 637.09 783.48 709.74 958.40 692.52
00001221 00000131 692.42 218.29 430.71 655.03 749.71 510.64 923.61 490.85 803.37 635.41 784.16 709.26 959.08 691.61
00001222 00000132 692.17 217.45 430.84 655.30 748.95 510.12 923.29 490.30 802.57 635.62 783.89 709.17 958.80 691.50
00001223 00000133 694.09 216.40 429.36 655.69 749.86 509.72 924.49 489.49 804.09 634.96 784.49 708.38 960.24 690.34
00001224 00000134 694.72 215.76 430.37 656.78 750.45 509.48 925.27 488.93 803.74 633.86 785.13 708.06 961.46 689.67
00001225 00000135 695.86 216.54 430.06 654.55 751.41 508.44 927.07 488.57 805.50 633.27 785.56 707.38 962.88 689.57
00001226 00000136 696.44 214.18 430.47 656.44 752.30 508.23 928.11 487.89 806.93 631.32 786.38 706.28 964.15 688.00
00001227 00000137 696.97 216.24 430.96 654.78 754.41 507.85 930.35 487.99 809.84 629.97 787.01 705.39 965.45 687.44
00001228 00000138 697.65 217.51 430.53 652.18 755.70 507.84 932.69 488.07 812.22 629.11 787.89 705.42 966.42 687.56
00001229 00000139 699.13 218.76 430.49 651.21 756.49 507.32 934.40 488.04 813.65 629.70 789.13 705.40 967.42 687.91
00001230 00000140 699.27 226.05 422.84 645.06 755.19 509.05 932.22 493.59 812.76 626.27 790.31 707.24 967.18 690.91
00001231 00000141 701.22 228.34 422.00 641.81 756.05 509.45 933.47 494.39 814.05 626.74 791.92 707.43 968.59 691.34
00001232 00000142 701.40 228.08 422.93 643.80 757.25 510.13 935.35 495.39 816.02 627.87 792.89 707.54 970.35 691.70
00001233 00000143 702.37 226.80 423.13 645.05 758.67 510.10 936.43 496.09 816.99 628.62 795.20 707.44 971.36 692.09
00001234 00000144 703.94 228.72 421.87 643.40 759.25 509.91 937.98 496.33 818.64 629.97 796.24 707.71 973.01 692.63
00001235 00000145 704.88 227.70 422.66 643.77 761.63 510.92 940.65 497.99 821.42 630.04 797.44 706.98 974.07 692.50
00001236 00000146 706.64 228.10 423.18 642.24 763.63 511.47 941.62 499.16 822.60 629.58 799.85 706.54 974.49 692.49
00001237 00000147 708.22 227.01 424.17 642.58 765.97 511.71 943.88 499.92 825.98 628.86 801.28 703.99 976.99 690.42
00001238 00000148 709.62 229.77 425.03 638.85 767.13 511.30 945.46 499.18 827.36 628.47 802.34 702.49 979.48 688.49
00001239 00000149 710.80 231.40 425.89 638.07 769.51 510.49 947.36 498.42 830.53 628.73 804.32 702.26 981.26 688.41
00001240 00000150 711.42 230.46 426.91 639.31 771.00 509.65 948.46 497.08 832.06 628.12 805.19 700.72 983.26 686.45
00001241 00000151 721.19 225.76 427.35 643.29 776.40 508.43 960.14 493.05 842.27 631.63 809.64 701.36 994.93 686.35
00001242 00000152 722.38 225.02 428.35 642.66 779.70 506.29 963.57 492.64 845.55 632.47 813.43 700.39 998.65 686.58
00001243 00000153 721.89 225.59 429.99 642.48 781.29 506.09 965.83 492.08 848.21 632.39 815.20 701.22 1000.60 687.10
00001244 00000154 723.13 222.48 428.64 645.07 783.02 505.50 968.98 491.60 851.09 632.29 816.93 701.61 1003.45 687.47
00001245 00000155 724.21 220.48 429.34 647.53 784.62 505.47 971.07 491.18 853.25 633.04 819.61 702.86 1005.87 688.34
00001246 00000156 721.27 215.08 438.99 650.36 788.86 507.54 972.63 493.57 853.16 632.67 815.08 695.96 1004.27 682.62
00001247 00000157 723.16 215.21 440.08 649.42 790.24 506.91 973.84 493.69 854.07 631.02 816.29 695.23 1006.00 682.67
00001248 00000158 726.45 216.86 437.07 647.79 792.50 507.15 976.07 493.12 856.01 628.22 818.52 695.28 1008.08 682.19
00001249 00000159 728.85 216.07 435.02 650.07 794.19 506.77 977.12 492.33 855.84 627.17 819.59 694.96 1009.79 681.43
00001250 00000160 731.04 214.81 434.52 651.63 795.15 505.46 978.93 491.55 857.88 626.41 819.87 695.20 1009.43 682.32
00001251 00000161 732.43 214.42 434.91 650.67 797.27 504.77 979.29 490.78 859.69 625.58 822.49 694.13 1011.27 681.13
00001252 00000162 733.81 214.69 434.67 650.63 797.35 505.09 979.10 490.03 859.34 624.35 823.17 693.90 1012.49 680.01
00001253 00000163 734.75 214.07 434.06 651.91 798.34 505.09 979.00 489.85 859.32 624.86 824.16 693.62 1013.28 679.50
00001254 00000164 734.64 214.25 434.29 651.06 799.01 504.94 979.43 489.44 860.71 624.54 824.97 693.63 1013.24 679.30
00001255 00000165 735.59 213.84 433.09 652.65 799.40 505.54 980.08 489.47 860.91 624.97 825.87 693.83 1014.76 678.97
00001256 00000166 736.54 213.03 432.08 653.87 799.90 505.31 980.31 489.12 860.96 625.35 826.21 693.13 1016.72 678.03
00001257 00000167 737.48 213.28 431.91 653.77 800.74 505.58 980.30 488.91 860.98 625.15 827.31 692.87 1017.75 677.25
00001258 00000168 737.98 212.86 432.56 653.76 800.81 505.13 980.37 488.40 861.04 624.57 827.86 692.39 1018.62 676.75
00001259 00000169 738.09 211.68 432.55 653.87 800.98 504.59 980.98 487.71 861.45 623.95 828.59 692.49 1019.45 676.71
