Video ID: 	LBixzDAXwyU
H: 	2160
W: 	3840
FPS: 	23.976023976023978

FRAME INDEX X0 Y0 W H [Landmarks (5 Points)]

00009316 00000000 2290.68 236.89 618.35 819.15 2444.07 578.85 2710.17 563.08 2573.05 730.99 2489.45 880.85 2705.82 867.91
00009317 00000001 2298.34 235.59 614.35 820.71 2445.14 582.05 2710.53 567.77 2570.99 735.12 2488.55 879.77 2705.57 868.12
00009318 00000002 2304.51 244.12 610.13 804.16 2444.40 584.56 2710.46 571.14 2568.38 741.60 2484.52 881.13 2709.46 870.16
00009319 00000003 2308.26 244.65 610.49 801.64 2447.81 585.84 2713.54 575.11 2570.75 746.00 2490.18 884.13 2704.03 875.73
00009320 DELETE   2315.81 240.95 608.48 812.55 2460.49 589.55 2723.78 580.55 2583.36 752.25 2505.99 895.61 2705.12 888.85
00009321 00000005 2325.12 239.00 608.09 831.76 2470.78 588.51 2739.24 579.48 2596.88 755.54 2516.49 903.63 2717.93 896.36
00009322 00000006 2335.56 241.76 603.63 836.63 2478.35 591.24 2746.69 581.54 2605.18 760.93 2517.16 906.27 2733.29 898.14
00009323 00000007 2340.69 245.46 600.86 833.71 2477.78 595.91 2750.61 585.71 2608.20 771.06 2513.83 905.51 2741.25 896.96
00009324 00000008 2343.05 249.15 599.68 832.98 2477.60 596.97 2750.18 590.65 2605.89 777.62 2510.74 906.00 2739.83 900.26
00009325 00000009 2347.91 256.62 596.72 824.22 2481.08 600.58 2751.71 595.12 2608.92 781.76 2514.79 908.03 2740.20 902.96
00009326 00000010 2349.07 261.26 595.12 823.03 2483.84 605.05 2754.85 598.87 2614.86 786.16 2516.49 910.36 2744.22 904.62
00009327 00000011 2346.64 265.90 595.66 819.62 2483.74 607.91 2754.87 600.97 2617.15 789.98 2516.07 912.37 2745.30 905.86
00009328 00000012 2337.97 268.93 598.52 818.14 2477.31 608.68 2749.87 601.43 2611.76 793.75 2511.78 916.21 2740.56 909.36
00009329 00000013 2330.69 271.37 600.53 820.38 2470.93 608.29 2743.92 600.96 2604.75 791.79 2506.23 917.21 2733.41 910.32
00009330 00000014 2316.27 267.90 608.41 822.86 2461.75 607.24 2733.08 595.47 2594.81 783.13 2503.37 915.43 2725.64 904.76
00009331 00000015 2306.30 268.38 611.73 815.93 2451.91 606.51 2720.60 590.49 2585.17 776.86 2496.19 911.76 2718.34 897.83
00009332 DELETE   2288.25 257.98 622.77 821.07 2437.71 604.79 2709.14 586.98 2572.26 769.23 2482.69 908.75 2707.70 893.93
00009333 00000017 2282.70 259.20 610.72 808.55 2425.71 610.87 2691.81 586.16 2559.75 766.98 2477.99 903.53 2693.87 883.86
00009334 DELETE   2275.66 258.52 603.03 805.13 2413.20 607.34 2677.95 578.75 2545.89 761.29 2466.01 898.99 2689.55 875.95
00009335 DELETE   2262.85 249.27 605.85 810.11 2405.10 599.16 2670.83 572.57 2538.01 752.59 2458.21 892.26 2676.82 870.74
00009336 00000020 2256.87 242.55 602.26 808.58 2397.08 595.27 2662.27 568.02 2529.96 745.48 2453.51 886.40 2666.34 864.50
00009337 00000021 2247.97 240.60 606.64 809.22 2391.87 592.28 2656.83 562.18 2527.67 740.70 2452.19 888.10 2661.77 864.05
00009338 00000022 2238.93 239.66 608.70 813.73 2386.63 594.53 2649.34 559.41 2524.58 736.95 2449.68 889.04 2660.20 861.14
00009339 DELETE   2224.64 244.75 614.91 815.99 2375.14 596.48 2639.08 558.10 2514.55 736.21 2439.56 893.42 2651.75 862.90
00009340 DELETE   2209.99 245.52 616.77 812.07 2354.83 596.60 2616.66 559.16 2489.86 736.19 2421.62 891.92 2627.77 862.44
00009341 DELETE   2205.90 247.98 603.93 802.60 2330.02 598.53 2590.56 558.07 2457.95 745.30 2397.96 894.84 2609.21 862.21
00009342 00000026 2193.39 247.86 604.91 800.24 2315.27 599.68 2571.05 555.94 2439.85 736.05 2386.74 891.28 2594.46 856.76
00009343 00000027 2189.24 242.01 601.90 806.38 2309.53 597.21 2564.36 550.89 2433.54 730.51 2381.62 885.32 2592.14 848.62
00009344 00000028 2183.57 239.67 605.16 809.06 2307.91 597.26 2560.88 546.89 2434.59 728.64 2384.68 881.41 2593.87 841.21
00009345 00000029 2174.77 248.56 610.83 796.64 2301.83 604.52 2554.71 547.93 2433.80 731.53 2386.07 883.09 2595.16 837.94
00009346 00000030 2170.31 250.44 609.58 791.63 2295.27 610.54 2548.78 553.63 2426.83 736.70 2376.13 889.33 2587.98 844.08
00009347 00000031 2166.77 252.30 609.46 793.19 2293.81 611.30 2545.86 555.87 2424.07 738.00 2377.95 889.16 2581.32 845.04
00009348 00000032 2164.93 253.64 610.20 794.07 2293.34 611.54 2545.42 556.50 2423.50 739.01 2377.93 891.51 2580.64 847.61
00009349 00000033 2165.07 253.22 612.67 793.30 2294.40 613.02 2548.64 557.36 2426.57 741.52 2378.80 894.14 2584.80 849.74
00009350 00000034 2166.06 262.64 613.94 787.93 2295.54 617.22 2550.84 561.91 2429.97 750.06 2379.21 896.16 2588.49 851.54
00009351 00000035 2165.55 263.90 615.57 788.75 2296.00 620.47 2553.81 566.06 2433.24 758.91 2376.22 901.68 2590.97 857.72
00009352 00000036 2164.66 263.56 611.98 787.83 2293.44 621.96 2551.08 566.49 2432.07 763.33 2373.89 902.62 2589.04 857.85
00009353 00000037 2155.85 258.58 619.34 793.72 2292.44 623.11 2547.16 567.28 2430.19 754.48 2375.18 898.18 2586.59 853.40
00009354 00000038 2150.29 252.46 618.76 799.98 2287.18 617.06 2542.13 557.16 2425.76 742.11 2375.78 893.06 2584.51 845.16
00009355 00000039 2148.99 260.90 615.90 789.48 2282.17 610.56 2534.34 547.18 2421.83 734.56 2376.87 887.16 2583.16 835.98
00009356 00000040 2146.56 249.90 611.84 800.17 2275.26 602.11 2527.65 540.91 2409.89 728.78 2367.30 881.88 2573.30 832.37
00009357 00000041 2146.35 242.52 603.64 795.92 2267.08 595.62 2517.23 533.94 2396.69 721.36 2357.90 875.24 2561.19 826.22
00009358 DELETE   2141.18 230.81 598.01 799.82 2256.88 590.86 2502.31 524.82 2382.30 710.48 2350.22 863.72 2555.33 812.07
00009359 00000043 2133.51 220.98 600.96 804.84 2249.00 583.02 2495.63 518.60 2372.17 695.91 2342.39 855.09 2542.30 805.42
00009360 00000044 2132.46 219.78 593.47 803.14 2243.12 575.22 2490.51 509.54 2365.24 682.89 2339.43 846.74 2536.01 796.04
00009361 00000045 2135.33 218.47 585.37 803.55 2242.55 570.49 2484.97 500.65 2358.44 667.09 2336.09 837.99 2533.90 783.37
00009362 00000046 2140.85 217.43 575.95 800.86 2252.01 561.87 2483.17 491.81 2357.79 658.91 2331.23 833.99 2536.40 780.05
00009363 00000047 2144.26 210.68 576.08 802.43 2254.45 558.42 2485.23 488.24 2357.85 653.52 2331.86 829.59 2537.34 775.27
00009364 00000048 2146.65 212.66 575.82 801.90 2256.54 556.01 2486.81 487.55 2358.45 653.28 2332.64 828.72 2538.95 775.50
00009365 00000049 2143.90 211.62 581.29 806.43 2258.03 558.23 2486.63 490.24 2359.49 656.88 2334.87 829.98 2539.71 777.15
00009366 00000050 2136.20 219.26 596.74 801.98 2251.64 563.82 2499.52 500.36 2375.59 669.18 2345.54 837.02 2544.38 783.20
00009367 00000051 2136.27 217.94 600.39 813.37 2251.65 572.51 2507.51 508.81 2383.22 686.35 2349.62 848.99 2550.15 796.19
00009368 DELETE   2139.44 235.40 596.17 793.69 2260.34 586.25 2506.36 519.85 2387.95 703.15 2346.57 857.02 2556.20 805.01
00009369 00000053 2148.71 243.98 597.07 793.47 2268.40 593.98 2521.94 535.88 2398.63 725.47 2349.57 875.26 2562.46 828.54
00009370 00000054 2149.16 252.10 605.64 793.47 2275.92 603.32 2531.66 544.93 2410.77 734.14 2360.06 889.80 2571.94 842.64
00009371 00000055 2146.51 259.57 610.02 794.38 2277.52 614.41 2534.69 556.74 2416.62 750.81 2364.50 906.69 2574.17 860.05
00009372 00000056 2148.49 257.31 605.32 800.69 2278.94 622.56 2536.66 566.44 2418.52 765.94 2364.18 919.83 2569.14 875.23
00009373 00000057 2145.76 265.93 607.05 792.51 2279.20 629.84 2539.69 576.10 2421.72 777.31 2365.44 924.93 2566.66 882.23
00009374 00000058 2147.66 277.96 605.37 785.83 2283.65 641.94 2540.77 590.53 2424.76 784.54 2369.48 930.80 2565.28 890.55
00009375 00000059 2146.76 286.06 607.11 784.56 2285.16 645.94 2544.05 595.13 2428.90 794.05 2371.92 935.94 2569.29 895.91
00009376 00000060 2146.04 288.13 604.61 784.58 2283.73 647.23 2544.52 597.87 2427.88 800.82 2368.53 938.42 2570.10 899.18
00009377 00000061 2145.74 288.67 605.71 785.22 2282.06 648.01 2543.67 596.34 2427.45 799.73 2368.65 938.45 2573.09 897.35
00009378 00000062 2147.26 286.48 608.08 786.18 2283.13 642.75 2546.05 590.74 2428.51 796.11 2368.25 933.76 2577.21 892.04
00009379 00000063 2147.27 283.90 611.24 790.22 2283.12 641.61 2547.14 589.03 2428.44 791.62 2365.41 931.73 2579.01 889.60
00009380 00000064 2147.43 283.77 614.81 791.16 2284.30 641.73 2548.66 589.36 2430.12 792.95 2365.43 926.22 2583.26 883.79
00009381 00000065 2152.96 290.27 606.71 788.65 2286.68 641.46 2550.98 589.14 2431.89 797.48 2365.73 925.84 2587.71 882.98
00009382 00000066 2153.62 291.05 607.98 787.42 2288.52 641.96 2554.77 588.76 2436.43 799.68 2367.41 925.86 2592.79 882.12
00009383 00000067 2152.72 292.04 610.99 784.20 2289.07 640.62 2555.63 587.68 2437.95 794.34 2368.52 925.51 2592.01 882.31
00009384 00000068 2154.08 281.90 611.13 796.04 2290.94 636.52 2554.63 583.69 2436.75 788.01 2367.40 922.91 2590.77 879.87
00009385 00000069 2153.81 270.29 611.90 809.53 2290.79 634.02 2550.39 578.91 2433.38 778.90 2366.93 919.06 2589.55 874.44
00009386 00000070 2150.79 267.08 613.98 804.08 2285.40 626.46 2545.17 569.01 2428.58 768.50 2364.73 913.75 2587.92 867.15
00009387 00000071 2150.90 257.91 611.92 797.62 2285.05 619.68 2540.59 563.94 2423.97 755.06 2366.12 894.92 2582.23 849.39
00009388 00000072 2151.59 256.58 610.45 789.09 2279.38 608.89 2534.92 551.65 2415.06 741.52 2362.33 887.89 2576.40 841.35
00009389 00000073 2156.02 249.92 600.71 790.16 2278.26 596.34 2531.97 543.99 2408.40 731.30 2354.76 878.49 2569.83 835.84
00009390 00000074 2155.16 235.51 597.55 797.45 2276.46 585.99 2529.16 536.58 2402.60 714.11 2351.72 864.55 2557.91 825.27
00009391 00000075 2151.59 234.98 596.45 793.60 2269.85 578.75 2523.72 525.53 2396.94 698.62 2350.09 852.93 2556.99 810.84
00009392 00000076 2148.93 227.17 589.43 803.78 2264.17 574.44 2515.12 518.35 2389.11 696.82 2347.70 854.02 2557.16 808.97
00009393 00000077 2141.63 228.74 591.82 802.27 2260.64 581.29 2508.45 524.76 2385.48 700.64 2345.88 858.18 2549.91 813.39
00009394 00000078 2136.73 228.54 594.35 800.71 2259.87 587.02 2510.75 532.37 2388.59 711.00 2343.53 865.72 2546.41 822.70
00009395 00000079 2133.86 237.90 599.05 797.76 2260.52 590.61 2511.15 537.72 2390.72 724.84 2341.86 878.92 2547.76 836.77
00009396 00000080 2133.72 251.49 602.45 792.66 2260.28 602.61 2513.37 546.51 2393.29 736.66 2345.28 891.81 2551.95 847.25
00009397 00000081 2131.62 265.02 613.05 787.74 2261.26 612.47 2518.73 553.42 2400.15 746.86 2352.21 896.81 2557.94 848.75
00009398 00000082 2134.68 266.60 614.60 792.86 2265.84 613.21 2524.33 555.52 2403.70 745.80 2353.52 896.75 2562.72 849.62
00009399 00000083 2136.47 268.68 615.89 786.27 2268.60 608.78 2526.32 551.39 2406.80 739.28 2353.59 894.89 2565.10 848.22
00009400 00000084 2137.60 264.16 613.73 790.23 2268.94 602.75 2525.51 546.00 2405.85 732.92 2354.18 889.66 2563.34 843.50
00009401 00000085 2137.91 262.42 613.11 796.86 2268.74 601.40 2524.61 545.81 2404.00 733.58 2352.33 888.98 2563.05 843.45
00009402 00000086 2139.82 260.16 615.27 799.51 2270.95 606.11 2527.71 550.97 2405.48 738.06 2354.27 892.23 2565.00 847.23
00009403 00000087 2142.43 259.06 614.60 800.05 2275.18 613.03 2533.77 557.98 2412.91 750.37 2357.49 897.18 2573.52 852.02
00009404 00000088 2145.76 267.76 615.46 789.50 2280.31 615.37 2538.26 562.51 2419.59 756.41 2359.49 896.41 2577.07 852.58
00009405 00000089 2149.84 261.92 613.86 792.65 2285.82 613.45 2542.21 561.04 2423.42 750.22 2363.97 891.44 2580.96 848.29
00009406 00000090 2154.67 260.45 611.35 790.17 2291.85 607.94 2549.98 556.83 2428.47 738.75 2369.46 887.12 2584.33 845.28
00009407 00000091 2159.10 262.61 616.06 786.08 2296.77 604.35 2556.63 555.08 2433.38 734.38 2373.17 883.14 2587.21 842.76
00009408 00000092 2162.99 264.70 613.60 784.05 2300.69 609.04 2557.31 557.75 2437.95 734.91 2378.85 882.89 2590.77 841.51
00009409 00000093 2165.32 262.80 613.13 784.76 2303.72 609.20 2559.90 558.11 2440.67 737.26 2382.75 882.76 2594.24 841.35
00009410 00000094 2171.51 261.98 610.45 784.07 2307.94 605.61 2562.61 555.91 2442.30 735.09 2383.67 881.27 2597.31 840.71
00009411 00000095 2170.67 257.43 615.28 789.24 2310.81 601.91 2566.67 551.94 2447.80 733.75 2388.20 879.68 2602.96 838.71
00009412 00000096 2174.84 259.51 615.66 790.03 2314.34 602.20 2571.00 553.34 2451.01 735.89 2389.63 883.21 2605.08 843.01
00009413 00000097 2175.31 260.38 617.77 794.72 2312.90 605.12 2570.69 555.27 2448.72 738.89 2389.85 889.80 2606.71 848.94
00009414 00000098 2176.58 266.41 619.17 799.56 2313.40 608.58 2571.48 559.30 2447.41 745.03 2391.59 898.36 2608.43 857.90
00009415 00000099 2176.27 270.98 622.96 790.99 2311.63 618.46 2573.81 566.10 2449.65 760.86 2391.10 916.00 2611.39 873.57
00009416 00000100 2178.63 270.96 618.73 786.24 2315.57 625.55 2577.89 574.76 2457.36 771.96 2395.52 923.19 2608.45 882.65
00009417 00000101 2184.69 269.53 611.62 787.81 2321.18 625.69 2581.28 576.75 2462.44 774.55 2399.79 923.17 2607.85 883.96
00009418 00000102 2187.35 266.81 610.68 790.86 2324.67 620.75 2584.42 572.23 2465.16 770.37 2406.93 925.49 2608.58 886.58
00009419 00000103 2190.18 265.60 611.11 789.19 2328.15 616.01 2588.87 569.47 2468.61 767.44 2406.89 921.18 2611.27 883.48
00009420 00000104 2192.06 263.39 610.72 787.65 2328.83 614.00 2591.32 566.74 2471.40 767.74 2405.15 917.09 2615.43 878.59
00009421 00000105 2191.54 263.42 611.98 789.21 2328.06 613.80 2590.12 566.23 2469.44 764.99 2404.29 914.17 2616.16 875.37
00009422 00000106 2189.16 267.20 610.94 791.44 2324.66 615.93 2585.93 566.91 2464.33 764.23 2404.24 921.13 2611.37 881.42
00009423 00000107 2182.89 263.22 613.31 802.95 2321.25 617.04 2580.22 569.85 2458.78 766.66 2407.23 929.03 2600.66 891.29
00009424 00000108 2177.48 263.07 616.93 797.90 2316.19 616.64 2575.41 571.24 2452.34 765.53 2403.67 928.85 2591.76 892.95
00009425 00000109 2174.36 271.49 618.34 789.50 2312.28 614.66 2571.90 568.64 2448.87 761.58 2400.44 925.79 2588.63 889.29
00009426 00000110 2175.16 263.91 617.30 788.92 2311.53 613.51 2569.84 565.40 2448.62 756.21 2396.28 917.26 2596.34 878.76
00009427 00000111 2175.17 269.07 617.53 783.63 2309.60 612.99 2569.05 562.47 2446.63 751.27 2390.82 909.50 2600.85 868.70
00009428 00000112 2174.35 270.68 617.21 800.36 2307.16 613.65 2567.71 562.61 2441.58 751.20 2386.03 910.77 2601.29 869.20
00009429 00000113 2174.34 270.64 617.29 808.44 2306.85 615.08 2565.06 563.72 2439.78 755.70 2384.58 909.45 2603.10 867.30
00009430 00000114 2173.27 270.25 616.29 808.37 2304.43 617.44 2563.72 564.49 2438.77 759.26 2380.65 910.25 2604.38 866.91
00009431 00000115 2172.80 274.31 615.49 787.63 2303.06 619.09 2562.94 565.52 2439.51 760.33 2382.08 909.71 2600.96 866.27
00009432 00000116 2169.03 269.11 618.00 780.07 2301.06 614.94 2560.16 566.12 2435.92 752.64 2381.03 904.92 2588.56 865.96
00009433 00000117 2170.72 265.48 611.91 782.06 2299.97 609.49 2556.48 562.21 2431.03 742.48 2378.23 899.13 2578.24 861.96
00009434 00000118 2163.61 258.91 610.57 791.69 2294.06 610.76 2549.52 557.87 2426.25 735.56 2378.92 896.76 2573.95 855.42
CROP_BBOX: 1846 0 3205 1316
