Video ID: 	eyp67QlgnMo
H: 	1080
W: 	1920
FPS: 	29.97002997002997

FRAME INDEX X0 Y0 W H [Landmarks (5 Points)]

00000984 00000000 861.98 167.06 398.20 536.27 960.90 369.81 1144.62 345.13 1063.35 451.97 1005.35 576.85 1147.97 555.39
00000985 00000001 855.32 165.17 402.39 533.27 953.57 362.34 1138.08 337.40 1056.31 447.05 1004.19 574.35 1138.88 552.39
00000986 00000002 849.79 156.86 404.47 531.53 949.01 354.90 1135.41 332.38 1053.09 443.36 1003.14 568.57 1134.61 547.94
00000987 00000003 845.29 154.62 405.76 529.16 946.90 349.68 1130.78 329.35 1050.14 442.38 1002.37 564.74 1125.89 545.88
00000988 00000004 845.31 158.45 403.31 525.16 947.57 347.63 1128.80 328.44 1049.63 440.98 1002.70 565.18 1121.15 547.33
00000989 00000005 845.47 156.06 400.78 527.66 947.58 345.85 1128.90 327.53 1050.76 441.05 1002.21 566.18 1117.28 549.21
00000990 00000006 844.91 157.89 402.12 528.91 947.33 346.01 1127.47 328.49 1049.31 441.69 1000.76 566.61 1115.33 550.33
00000991 00000007 845.41 159.60 405.66 530.15 943.18 351.81 1128.87 333.10 1044.90 447.91 995.10 571.26 1119.78 554.15
00000992 00000008 849.03 158.99 399.70 537.87 944.42 359.17 1130.53 341.18 1045.29 460.11 991.61 578.02 1124.40 562.35
00000993 DELETE   850.02 164.37 399.60 541.27 944.18 369.00 1127.53 350.70 1046.67 475.02 998.11 585.58 1126.23 569.82
00000994 DELETE   850.48 160.02 403.37 554.15 944.06 377.24 1131.24 358.01 1051.91 492.74 1002.25 599.52 1130.51 582.35
00000995 DELETE   848.40 175.34 405.42 551.70 948.44 387.02 1131.31 363.56 1056.40 498.05 1011.13 610.63 1136.86 589.97
00000996 00000012 846.12 185.42 407.18 558.91 947.61 395.24 1128.69 369.28 1056.18 510.16 1014.52 620.82 1143.37 597.52
00000997 00000013 844.86 197.84 415.01 563.45 948.78 400.95 1131.70 373.95 1059.74 515.89 1015.17 631.84 1137.60 606.78
00000998 00000014 847.58 204.41 414.61 573.83 950.97 408.57 1132.12 380.95 1061.41 519.47 1017.93 639.32 1141.84 613.85
00000999 00000015 851.01 221.13 407.69 559.11 954.57 411.18 1135.07 384.66 1065.96 524.78 1019.21 642.90 1143.03 618.90
00001000 00000016 855.84 214.19 404.50 558.15 955.02 417.46 1134.43 388.66 1066.51 531.29 1018.41 644.70 1144.26 618.86
00001001 00000017 855.74 207.87 404.95 553.35 954.19 420.21 1135.71 390.23 1068.44 538.03 1019.93 646.17 1146.89 618.87
00001002 00000018 856.42 211.34 402.58 544.88 952.86 421.08 1135.59 389.51 1069.26 540.03 1021.74 649.17 1148.56 620.47
00001003 00000019 854.06 207.86 406.34 546.56 950.98 421.20 1135.44 388.33 1068.97 541.06 1022.93 649.60 1150.00 619.37
00001004 00000020 853.20 204.93 407.02 548.95 950.39 421.70 1134.50 388.22 1068.77 540.54 1022.48 649.32 1150.14 618.60
00001005 00000021 852.37 211.91 407.70 543.22 950.02 422.13 1133.01 388.45 1067.70 539.68 1021.97 649.23 1148.97 618.36
00001006 00000022 852.06 212.76 407.59 541.78 949.26 421.26 1133.02 387.49 1067.18 539.60 1021.58 648.97 1148.23 617.98
00001007 00000023 852.33 211.50 407.09 544.60 949.40 422.55 1131.99 388.47 1066.70 539.45 1021.36 649.17 1147.93 618.25
00001008 00000024 852.16 213.78 407.29 543.32 948.84 423.29 1130.85 389.78 1065.25 540.31 1020.93 649.41 1147.22 618.93
00001009 00000025 850.78 213.48 408.57 543.87 948.12 423.93 1130.13 390.44 1064.68 539.67 1020.47 649.79 1146.57 619.33
00001010 00000026 850.68 209.95 408.31 547.93 947.77 424.56 1130.29 391.27 1064.73 540.15 1019.73 650.54 1146.65 620.47
00001011 00000027 850.79 210.42 407.98 548.11 947.40 424.23 1129.81 391.27 1064.41 540.21 1019.62 650.96 1146.13 621.17
00001012 00000028 851.28 210.76 407.58 547.39 947.49 424.71 1130.47 391.41 1064.60 540.40 1019.65 651.19 1146.61 621.12
00001013 00000029 851.46 212.95 407.33 545.07 947.57 424.19 1131.14 390.32 1064.92 539.76 1020.29 651.20 1147.35 620.43
00001014 00000030 851.05 212.52 407.15 545.80 948.89 423.48 1131.47 389.81 1066.63 539.32 1021.38 650.75 1147.23 620.07
00001015 00000031 852.58 208.50 405.69 549.82 948.83 423.52 1131.19 389.76 1066.05 539.32 1020.83 650.17 1147.24 619.68
00001016 00000032 851.97 206.78 406.31 551.39 948.68 423.36 1130.71 389.76 1065.88 539.32 1021.05 649.88 1147.14 619.42
00001017 00000033 850.13 209.22 407.39 550.36 948.42 422.11 1130.19 389.39 1065.22 538.65 1020.41 649.42 1146.11 619.61
00001018 00000034 848.79 210.40 408.34 549.22 947.15 421.82 1129.10 389.09 1063.86 537.61 1019.66 649.19 1145.36 619.44
00001019 00000035 847.30 207.27 408.49 552.05 945.97 421.84 1127.67 389.24 1062.42 537.12 1018.85 648.81 1144.29 619.20
00001020 00000036 848.21 211.29 408.71 550.02 949.66 424.04 1127.45 392.98 1063.52 535.87 1018.26 646.87 1143.47 618.92
00001021 00000037 846.23 212.66 410.08 549.49 951.47 430.66 1126.49 400.64 1062.50 535.79 1016.66 644.95 1141.76 618.17
00001022 00000038 845.03 211.20 412.35 550.66 952.24 429.97 1127.58 400.06 1063.58 534.37 1017.75 644.46 1142.71 617.62
00001023 00000039 845.18 215.89 411.50 547.28 953.19 426.43 1130.58 396.67 1066.50 531.19 1019.16 644.29 1144.11 617.30
00001024 00000040 846.90 219.56 410.58 544.06 955.39 425.41 1132.63 394.82 1069.31 528.60 1021.26 644.14 1145.54 616.46
00001025 00000041 850.43 230.61 407.52 534.31 958.85 423.94 1135.88 393.25 1072.05 526.62 1022.14 643.29 1146.87 615.68
00001026 00000042 852.00 235.29 406.18 529.98 961.76 422.03 1138.36 392.59 1074.30 526.51 1023.97 642.48 1146.85 615.96
00001027 00000043 852.43 227.56 406.52 537.49 963.28 420.61 1140.25 391.04 1076.95 525.44 1025.21 641.10 1148.64 614.30
00001028 00000044 854.66 228.42 404.08 536.25 966.18 420.19 1142.15 391.27 1079.62 524.28 1026.35 640.63 1148.66 614.55
00001029 00000045 856.22 225.88 403.90 538.70 967.61 420.52 1143.63 391.36 1080.48 523.55 1026.26 639.82 1150.50 613.46
00001030 00000046 858.05 229.54 401.69 534.38 969.29 420.39 1145.62 391.15 1082.90 522.88 1027.07 639.31 1151.76 613.03
00001031 00000047 858.53 225.80 402.51 537.43 970.77 421.50 1146.68 392.32 1084.46 524.03 1028.69 639.57 1153.04 613.22
00001032 00000048 859.85 224.60 402.55 536.61 972.26 421.14 1149.31 392.44 1086.98 524.08 1029.61 639.42 1154.60 613.43
00001033 00000049 861.44 223.36 403.00 536.86 973.68 421.07 1151.69 391.63 1089.95 524.85 1031.59 640.34 1157.68 613.66
00001034 00000050 864.59 222.47 401.52 535.42 975.44 420.63 1154.86 390.42 1093.45 525.65 1034.02 641.13 1160.88 613.72
00001035 00000051 864.75 221.86 403.71 536.02 976.69 421.33 1155.86 390.73 1095.64 526.10 1036.17 641.29 1163.05 613.43
00001036 00000052 864.60 218.11 404.00 540.94 976.91 420.76 1156.93 389.89 1097.47 526.33 1037.02 641.64 1164.70 613.58
00001037 00000053 865.31 218.99 404.54 539.02 977.89 421.52 1157.89 390.04 1099.03 526.13 1037.96 640.88 1166.84 612.31
00001038 00000054 865.53 216.52 405.75 539.96 978.27 421.69 1159.39 389.84 1100.53 526.17 1039.04 641.03 1168.77 612.02
00001039 00000055 866.38 214.52 406.25 540.72 978.27 422.71 1160.57 390.80 1101.13 527.23 1039.19 641.21 1170.68 611.98
00001040 00000056 867.44 215.68 405.60 537.98 979.47 423.05 1161.39 390.83 1102.64 527.14 1040.73 641.74 1170.54 612.33
00001041 00000057 869.01 214.87 403.96 537.55 980.27 423.72 1162.30 390.97 1103.39 526.92 1040.93 641.77 1171.13 611.96
00001042 00000058 868.96 215.78 404.56 537.72 980.92 423.02 1162.58 390.81 1104.19 527.45 1041.54 641.75 1171.15 612.38
00001043 00000059 868.64 219.23 405.63 538.41 980.86 422.88 1161.67 390.51 1103.77 526.79 1039.61 639.88 1173.06 610.60
00001044 00000060 868.66 220.35 406.20 537.88 981.04 422.70 1161.69 390.34 1103.99 526.09 1039.95 639.39 1173.56 610.12
00001045 00000061 868.08 218.53 406.44 537.68 980.42 422.64 1161.87 390.14 1103.63 526.04 1038.92 638.95 1173.50 609.56
00001046 00000062 867.54 217.28 406.49 538.77 979.76 422.59 1161.71 389.79 1103.54 525.84 1038.16 638.23 1174.25 608.57
00001047 00000063 866.25 213.63 406.85 540.53 978.99 421.42 1161.75 389.65 1102.24 525.05 1036.68 637.79 1172.34 608.89
00001048 00000064 865.35 204.24 407.42 544.81 978.17 418.51 1161.74 387.30 1102.15 522.84 1036.50 635.99 1171.14 607.63
00001049 00000065 864.02 203.07 410.10 541.35 978.87 415.85 1161.42 386.23 1101.24 519.22 1034.43 628.86 1169.96 602.07
00001050 00000066 861.88 195.63 411.36 545.69 980.62 416.60 1160.96 384.70 1097.04 522.03 1037.49 623.27 1173.25 595.63
00001051 00000067 861.24 193.40 410.27 544.25 979.70 415.64 1160.72 383.27 1096.37 522.36 1036.98 621.94 1172.95 593.89
00001052 00000068 860.53 195.58 409.94 542.20 978.57 416.37 1159.18 384.34 1094.74 523.44 1038.04 623.18 1171.89 595.27
00001053 00000069 862.02 205.26 407.26 534.08 974.79 414.47 1157.95 384.63 1095.56 522.25 1032.68 627.98 1165.78 600.83
00001054 00000070 860.14 206.93 408.04 535.67 972.89 415.36 1155.02 385.70 1092.76 523.86 1032.52 631.63 1161.95 604.29
00001055 00000071 859.02 201.81 407.08 543.39 971.24 415.83 1152.11 386.51 1089.63 524.35 1031.20 633.42 1159.17 606.43
00001056 00000072 859.01 208.15 406.36 541.42 968.59 417.52 1148.57 388.52 1084.33 522.71 1027.51 634.38 1155.98 607.64
00001057 00000073 858.40 214.03 407.59 536.49 966.56 418.23 1147.29 390.09 1080.10 522.25 1024.50 634.19 1153.86 608.07
00001058 00000074 857.39 215.91 408.13 534.99 964.42 415.84 1146.08 389.06 1076.81 519.78 1021.29 633.40 1149.68 608.53
00001059 00000075 856.84 214.08 407.33 537.96 962.10 412.92 1145.69 387.17 1072.81 518.58 1016.84 632.41 1147.01 608.52
00001060 00000076 858.54 219.91 405.55 531.48 963.30 409.11 1147.91 387.27 1071.38 516.04 1013.01 628.22 1143.82 607.93
00001061 00000077 859.77 215.81 405.41 532.23 964.26 406.16 1150.23 387.36 1071.35 512.90 1010.08 624.86 1142.28 607.28
00001062 00000078 861.66 212.00 404.70 531.66 967.10 404.04 1151.35 386.43 1072.85 512.24 1009.63 617.40 1141.44 601.19
00001063 00000079 861.94 212.20 406.68 529.13 967.65 402.61 1152.68 386.37 1073.94 513.50 1008.18 613.17 1142.61 598.16
00001064 00000080 862.57 210.19 406.54 531.15 968.77 403.81 1154.93 386.41 1076.94 513.69 1011.79 617.21 1144.42 601.04
00001065 00000081 863.14 213.05 407.22 530.93 969.28 404.83 1155.42 387.31 1078.73 515.03 1017.40 624.18 1143.02 607.49
00001066 00000082 862.04 212.44 407.83 532.73 968.79 406.35 1154.81 387.79 1079.28 518.52 1021.40 629.38 1141.80 611.58
00001067 00000083 863.26 209.72 408.02 538.45 968.12 407.84 1154.29 388.40 1079.28 519.71 1022.44 631.93 1143.38 613.30
00001068 00000084 863.23 211.14 408.76 539.93 967.76 410.16 1152.94 390.01 1077.92 520.57 1021.94 632.90 1144.28 613.70
00001069 00000085 864.14 215.08 406.95 534.09 967.21 414.14 1151.30 393.04 1076.19 523.02 1020.73 633.17 1145.92 613.03
00001070 00000086 864.12 214.43 406.07 531.70 967.61 415.72 1152.22 395.81 1077.70 525.68 1021.15 634.55 1146.20 615.25
00001071 00000087 862.58 216.75 406.26 532.66 968.81 416.03 1150.73 395.75 1080.24 527.74 1026.53 637.01 1145.91 617.56
00001072 00000088 862.37 215.46 404.19 533.85 968.28 416.44 1149.62 396.17 1079.78 528.37 1028.24 638.27 1144.62 618.93
00001073 00000089 862.49 214.65 402.33 534.70 967.61 416.88 1148.09 396.76 1078.22 529.11 1027.42 639.15 1143.74 620.09
00001074 00000090 862.17 215.97 400.02 531.85 967.02 416.31 1146.88 396.70 1076.58 529.39 1024.83 639.04 1141.54 620.62
00001075 00000091 860.34 215.90 400.04 530.13 965.20 416.52 1145.14 397.16 1073.95 529.00 1021.74 637.48 1140.47 619.25
00001076 00000092 859.52 216.64 400.13 529.17 963.87 416.72 1143.48 397.50 1071.95 528.44 1020.25 637.26 1139.49 619.13
00001077 00000093 857.98 217.79 401.77 529.09 962.90 415.87 1142.22 397.49 1070.27 528.53 1018.88 636.32 1137.54 618.85
00001078 00000094 856.86 220.01 402.78 527.42 962.48 415.91 1141.20 397.44 1069.48 528.90 1018.82 636.55 1136.46 619.04
00001079 00000095 856.33 218.06 403.36 530.66 961.57 416.64 1140.74 398.09 1068.29 526.81 1017.34 635.90 1135.84 618.34
00001080 00000096 855.12 218.00 405.10 533.28 959.79 416.73 1139.83 397.17 1067.24 527.13 1016.41 636.23 1135.90 617.77
00001081 00000097 854.43 222.13 407.38 534.23 959.61 417.60 1138.39 397.94 1065.23 525.88 1015.17 635.67 1134.33 617.30
00001082 00000098 853.05 228.28 408.24 534.15 960.74 418.60 1137.29 398.14 1065.93 522.81 1015.38 635.07 1135.44 616.45
00001083 00000099 852.72 229.00 409.06 538.93 959.79 420.00 1136.50 398.15 1065.09 523.62 1013.56 635.29 1137.02 615.39
00001084 00000100 852.96 235.92 409.06 534.26 960.08 421.22 1136.76 399.20 1064.75 524.91 1012.96 636.09 1137.44 616.12
00001085 00000101 853.54 240.39 407.91 527.38 960.04 422.68 1136.76 401.76 1063.69 526.49 1011.68 636.20 1136.49 617.12
00001086 00000102 854.50 236.08 406.10 522.38 958.79 423.41 1138.13 403.24 1062.96 529.47 1009.62 636.37 1137.01 617.53
00001087 00000103 854.83 232.19 405.51 521.38 957.66 423.64 1138.96 402.98 1062.55 529.59 1008.41 636.26 1137.92 616.67
00001088 00000104 854.86 234.90 404.87 516.95 958.50 422.99 1139.06 402.83 1062.98 528.82 1009.42 635.32 1137.51 616.23
00001089 00000105 855.04 236.47 405.00 517.63 959.82 422.17 1138.91 402.42 1063.71 528.07 1011.08 635.19 1136.35 616.61
00001090 00000106 854.59 237.51 406.47 519.09 960.55 421.72 1139.15 401.98 1064.49 527.27 1012.91 636.43 1136.13 618.00
00001091 00000107 854.21 236.15 406.44 518.22 959.85 421.31 1139.47 401.70 1064.37 527.59 1012.38 636.20 1136.12 617.77
00001092 00000108 854.53 235.70 405.28 516.76 959.85 420.94 1139.46 401.31 1064.43 527.44 1012.13 635.55 1136.25 617.06
00001093 00000109 854.30 231.46 405.00 519.14 959.73 419.95 1139.37 400.28 1065.08 527.82 1012.50 635.14 1136.22 616.51
00001094 00000110 854.57 226.27 404.93 522.41 958.80 419.94 1138.96 400.08 1064.51 527.24 1011.91 634.17 1136.74 615.22
00001095 00000111 853.90 222.27 405.33 525.51 957.24 420.36 1138.61 399.99 1063.45 526.70 1009.87 633.67 1138.19 614.08
00001096 00000112 853.56 220.46 405.39 527.43 956.88 420.31 1138.97 399.47 1063.97 527.53 1010.29 634.43 1139.39 614.41
00001097 00000113 853.59 219.64 405.11 531.81 956.64 420.21 1138.91 398.53 1064.42 526.79 1011.82 636.99 1140.15 616.38
00001098 00000114 854.05 220.54 405.00 534.55 957.09 419.13 1137.54 398.00 1063.17 526.61 1012.58 636.89 1136.80 617.26
00001099 00000115 853.39 227.10 405.30 526.88 957.04 418.00 1138.14 397.19 1062.57 525.66 1012.31 635.53 1136.66 616.05
00001100 00000116 850.69 219.79 407.47 530.12 954.51 414.48 1136.62 394.13 1061.09 526.32 1010.19 633.05 1134.46 613.70
00001101 00000117 848.14 220.56 408.85 532.22 952.00 410.10 1133.57 389.78 1058.39 524.13 1008.09 630.60 1131.72 611.38
00001102 00000118 844.74 216.58 411.26 534.12 947.67 405.79 1132.24 385.63 1054.15 520.97 1004.68 630.00 1128.74 610.78
00001103 00000119 843.23 207.47 412.23 533.61 943.73 400.64 1130.91 380.75 1051.80 521.64 1004.17 628.03 1126.54 608.68
00001104 00000120 840.00 205.73 412.71 531.53 944.14 402.32 1128.92 381.05 1049.21 522.57 1008.09 622.69 1132.15 604.21
00001105 00000121 839.46 197.96 414.08 537.61 942.28 396.98 1128.63 374.57 1047.88 516.92 1006.88 619.30 1131.90 599.80
00001106 00000122 839.82 189.88 413.59 544.36 942.41 391.97 1127.30 368.18 1048.76 505.81 1005.81 614.67 1129.92 594.11
00001107 00000123 842.59 177.16 410.95 552.55 939.74 384.00 1126.69 358.95 1046.91 492.40 1004.89 606.89 1132.10 584.96
00001108 00000124 846.80 176.31 408.33 552.23 941.79 380.65 1124.93 355.57 1046.96 487.63 1005.83 602.13 1133.98 580.06
CROP_BBOX: 557 0 1586 975
