Video ID: 	eHTS8yU0M6w
H: 	1080
W: 	1920
FPS: 	23.976023976023978

FRAME INDEX X0 Y0 W H [Landmarks (5 Points)]

00005280 00000000 1062.95 192.95 339.18 513.90 1101.74 445.34 1218.96 428.15 1108.31 509.48 1127.42 602.56 1214.04 591.02
00005281 00000001 1063.32 194.63 341.16 509.04 1102.80 442.71 1221.44 425.80 1109.64 505.06 1127.13 598.69 1214.81 587.18
00005282 00000002 1065.19 189.20 342.93 512.78 1102.41 440.15 1222.26 422.69 1106.81 502.92 1124.23 597.14 1214.79 585.23
00005283 00000003 1065.24 188.36 339.60 512.70 1102.45 437.99 1222.21 419.70 1108.32 499.38 1124.28 596.08 1214.20 583.56
00005284 00000004 1064.22 188.50 338.53 511.39 1102.69 436.23 1222.16 417.45 1109.83 496.51 1124.95 595.22 1213.99 582.43
00005285 00000005 1064.34 186.67 338.13 512.53 1102.89 434.87 1219.33 416.92 1106.92 497.32 1124.96 593.50 1213.08 581.34
00005286 DELETE   1066.34 187.11 337.33 509.82 1101.80 436.42 1216.04 417.74 1102.98 498.68 1126.02 592.30 1214.11 579.42
00005287 DELETE   1065.76 184.52 336.19 511.79 1102.28 434.01 1214.47 416.78 1101.59 497.99 1124.45 590.82 1210.71 579.23
00005288 00000008 1066.46 184.27 335.12 509.71 1101.96 428.43 1212.08 414.44 1099.31 495.43 1122.19 587.39 1207.24 578.57
00005289 00000009 1073.92 184.42 327.02 502.62 1103.30 427.84 1210.20 409.09 1104.77 492.07 1116.98 585.81 1200.18 572.44
00005290 00000010 1072.43 183.12 323.72 500.98 1102.09 422.74 1207.04 405.76 1102.41 490.41 1115.18 580.46 1198.57 568.49
00005291 00000011 1069.90 182.82 325.39 502.07 1100.69 415.99 1204.14 401.67 1098.44 489.46 1116.24 577.08 1196.58 567.56
00005292 00000012 1070.49 182.24 324.65 501.33 1100.98 414.86 1201.57 399.77 1097.30 487.48 1117.48 576.16 1194.72 566.14
00005293 00000013 1073.42 182.77 321.19 496.58 1105.22 416.32 1200.63 400.93 1098.58 486.73 1120.49 576.18 1194.12 565.11
00005294 00000014 1074.33 182.60 322.40 498.08 1105.63 416.74 1201.72 401.03 1099.64 486.31 1120.07 576.60 1194.75 565.33
00005295 00000015 1072.57 180.22 324.12 502.24 1102.65 413.41 1202.05 398.77 1097.81 488.44 1122.08 577.91 1196.64 567.97
00005296 00000016 1073.13 180.27 323.51 498.91 1103.44 413.23 1203.45 397.58 1099.16 487.35 1122.01 576.56 1196.50 565.93
00005297 00000017 1074.10 176.70 322.72 499.01 1104.20 411.36 1203.53 394.48 1100.36 484.44 1123.04 575.17 1195.24 563.74
00005298 00000018 1073.90 174.73 323.59 497.77 1103.48 407.77 1204.13 389.88 1100.01 479.73 1122.04 571.75 1194.96 559.83
00005299 00000019 1071.72 174.79 324.06 495.29 1102.25 405.58 1204.32 387.22 1099.53 473.39 1119.26 567.55 1194.31 555.72
00005300 00000020 1070.35 172.31 322.11 493.31 1100.70 401.50 1203.45 383.06 1098.66 466.31 1116.95 562.44 1193.12 550.95
00005301 00000021 1069.71 167.96 323.27 494.53 1099.47 398.75 1203.94 380.44 1097.67 463.00 1116.72 559.83 1194.02 548.40
00005302 00000022 1069.50 167.25 322.03 492.47 1099.04 396.50 1204.30 379.01 1097.77 461.65 1116.10 557.40 1194.17 546.56
00005303 00000023 1068.62 166.59 322.44 491.28 1098.41 396.48 1204.67 379.47 1097.92 462.27 1115.60 556.28 1194.69 545.75
00005304 00000024 1067.21 167.30 323.42 489.83 1097.27 395.39 1203.75 378.69 1096.78 461.10 1114.66 555.09 1193.77 544.93
00005305 00000025 1066.36 167.15 322.56 488.62 1096.12 393.95 1202.28 377.70 1094.28 459.57 1111.20 554.01 1190.13 543.96
00005306 00000026 1061.77 167.01 326.97 491.47 1090.88 386.61 1205.81 378.12 1096.26 460.56 1107.82 549.95 1187.12 544.03
00005307 00000027 1062.72 166.68 326.49 487.24 1088.96 387.75 1198.90 376.30 1091.53 456.88 1103.87 548.83 1185.10 540.85
00005308 00000028 1060.53 166.86 322.09 488.85 1088.35 396.86 1191.64 380.47 1086.31 455.45 1102.11 550.99 1181.81 538.61
00005309 00000029 1056.00 168.14 320.26 489.41 1085.60 396.10 1188.48 380.68 1084.27 455.56 1098.58 552.57 1177.06 541.13
00005310 00000030 1049.26 174.09 325.52 488.30 1080.70 390.90 1191.37 378.82 1087.83 461.83 1095.21 553.17 1172.83 545.93
00005311 00000031 1045.89 169.05 323.23 492.27 1077.33 393.83 1182.04 379.28 1077.63 460.33 1091.24 556.48 1166.56 547.29
00005312 00000032 1044.48 170.42 321.71 491.54 1074.82 395.60 1177.31 378.63 1072.27 459.48 1089.95 557.18 1165.10 546.08
00005313 00000033 1042.06 171.71 320.29 490.96 1072.15 395.93 1173.71 377.60 1069.83 458.98 1089.04 557.01 1164.76 544.91
00005314 00000034 1040.26 172.60 323.30 492.87 1069.32 396.65 1171.47 377.48 1067.60 459.77 1089.91 558.50 1166.06 545.70
00005315 00000035 1038.49 171.42 321.20 491.85 1067.78 396.88 1169.39 377.08 1065.90 458.84 1086.85 557.38 1162.91 544.17
00005316 00000036 1037.57 169.67 320.81 488.79 1066.99 395.91 1166.95 376.86 1061.54 457.19 1083.64 553.62 1159.15 540.63
00005317 00000037 1037.36 163.16 320.72 493.13 1066.15 396.35 1163.84 375.89 1060.08 454.20 1079.97 550.86 1157.34 535.86
00005318 00000038 1035.58 166.68 321.91 488.49 1065.58 390.91 1160.13 373.77 1055.09 453.87 1082.87 550.00 1154.42 537.96
00005319 00000039 1034.41 167.55 319.40 488.45 1065.48 391.67 1157.18 373.99 1054.52 455.23 1083.33 551.71 1151.40 539.55
00005320 00000040 1036.03 166.70 310.29 488.94 1064.92 397.21 1153.44 377.72 1050.85 457.30 1081.56 552.38 1149.77 536.82
00005321 00000041 1033.58 168.89 307.38 490.33 1061.52 400.43 1151.55 378.75 1050.62 458.06 1080.80 555.50 1150.38 538.28
00005322 00000042 1031.94 169.17 305.47 491.84 1059.59 403.92 1150.24 379.71 1049.94 460.00 1080.33 558.97 1150.29 539.69
00005323 00000043 1031.10 167.59 307.81 493.32 1059.10 406.42 1149.85 380.79 1049.26 459.25 1080.24 558.98 1149.99 538.47
00005324 00000044 1031.05 167.34 306.80 491.96 1059.16 405.56 1148.48 379.84 1048.03 459.02 1080.37 557.27 1149.20 536.74
00005325 00000045 1030.08 167.73 307.40 489.81 1058.23 405.57 1148.37 379.00 1047.06 458.22 1080.00 555.18 1150.69 533.87
00005326 00000046 1030.89 167.87 307.68 490.00 1058.18 409.11 1147.06 380.63 1047.47 459.58 1080.98 556.33 1151.46 533.45
00005327 00000047 1028.68 161.42 307.97 497.99 1055.62 416.88 1142.33 386.50 1046.11 462.83 1079.63 557.71 1150.58 533.30
00005328 00000048 1026.17 164.47 307.64 495.48 1052.63 418.81 1142.61 385.86 1046.35 462.43 1077.46 558.36 1151.14 531.78
00005329 00000049 1025.75 166.90 307.57 491.93 1052.36 415.69 1145.81 383.97 1046.22 461.25 1075.95 557.07 1152.06 531.39
00005330 00000050 1025.76 171.24 307.42 486.36 1052.46 414.81 1145.84 382.08 1045.73 460.47 1075.22 557.42 1151.17 530.80
00005331 00000051 1023.61 171.21 308.33 485.74 1050.57 411.27 1144.95 379.87 1044.84 459.99 1074.18 555.85 1150.13 530.61
00005332 00000052 1022.36 170.34 307.10 487.89 1050.43 408.82 1142.70 378.07 1043.45 460.85 1074.67 555.58 1149.12 531.03
00005333 00000053 1021.33 169.49 307.56 489.72 1049.98 408.41 1142.35 378.46 1043.01 461.61 1074.49 556.26 1148.69 532.51
00005334 00000054 1020.67 169.42 308.37 490.44 1049.63 409.13 1142.23 378.69 1042.85 461.28 1073.95 556.85 1148.68 532.61
00005335 00000055 1021.05 171.10 308.98 488.80 1049.90 409.04 1141.66 378.60 1042.55 461.96 1074.76 557.16 1148.73 532.87
00005336 00000056 1020.47 170.48 309.41 489.87 1049.42 408.69 1141.16 378.51 1041.97 462.06 1074.28 556.90 1148.40 532.85
00005337 00000057 1019.35 171.94 309.01 488.60 1048.24 409.58 1139.88 378.00 1041.29 461.56 1073.86 557.41 1147.78 532.26
00005338 00000058 1018.47 172.66 309.32 487.42 1047.60 408.98 1139.30 378.55 1041.24 461.99 1072.94 556.73 1146.62 532.66
00005339 00000059 1016.06 176.04 311.81 482.21 1046.03 408.48 1138.52 377.42 1039.43 464.53 1072.59 556.22 1145.88 532.71
00005340 00000060 1016.62 176.04 311.92 483.23 1046.53 409.39 1138.71 378.11 1039.32 465.73 1073.34 557.22 1146.81 533.46
00005341 00000061 1018.48 172.86 310.20 489.14 1047.76 411.18 1140.51 379.69 1041.24 463.93 1073.42 559.45 1148.60 534.29
00005342 00000062 1019.84 171.95 309.76 490.03 1048.86 411.06 1141.13 379.63 1042.62 464.38 1075.26 559.89 1149.33 534.86
00005343 00000063 1020.83 170.83 309.47 491.36 1049.82 410.66 1142.17 379.54 1043.55 464.75 1076.40 559.82 1150.57 535.02
00005344 00000064 1021.14 170.90 309.70 491.36 1049.92 410.83 1142.98 379.86 1043.97 464.57 1076.10 559.22 1151.54 534.43
00005345 00000065 1022.39 171.10 308.88 492.45 1050.52 411.34 1143.85 380.13 1044.37 465.00 1076.62 560.02 1152.71 534.91
00005346 00000066 1024.02 171.21 307.49 493.13 1051.21 411.50 1145.13 380.55 1045.21 465.12 1076.69 560.26 1154.03 535.19
00005347 00000067 1025.98 171.19 305.63 493.70 1052.77 410.28 1146.01 380.90 1046.67 465.21 1077.83 559.14 1155.06 535.37
00005348 00000068 1027.97 169.65 303.28 495.65 1054.65 408.95 1147.04 380.52 1048.10 464.66 1079.40 559.18 1155.53 536.32
00005349 00000069 1029.26 169.22 304.64 499.80 1055.52 410.61 1147.31 379.77 1047.53 463.78 1080.63 563.53 1155.57 538.62
00005350 00000070 1030.31 170.54 305.28 499.80 1057.10 410.13 1148.91 379.05 1048.95 462.51 1082.59 564.69 1156.72 539.61
00005351 00000071 1030.02 169.06 307.27 499.34 1057.18 406.84 1149.73 378.38 1048.84 459.89 1079.47 561.89 1152.75 538.89
00005352 00000072 1031.31 168.04 311.17 491.00 1059.65 401.12 1150.99 376.76 1048.76 454.78 1077.36 551.70 1148.27 532.07
00005353 00000073 1030.08 165.39 312.06 492.22 1060.01 397.12 1150.31 373.48 1046.77 452.27 1074.44 548.86 1144.78 529.72
00005354 00000074 1030.11 163.52 310.40 501.69 1059.16 395.22 1150.78 370.18 1046.73 451.61 1074.88 554.64 1146.31 534.26
00005355 00000075 1030.99 165.51 308.83 504.21 1058.66 396.15 1152.03 371.05 1047.19 453.78 1076.41 559.15 1149.87 538.68
00005356 00000076 1032.23 168.85 312.40 498.03 1060.16 396.35 1156.90 374.58 1050.86 453.52 1076.07 556.46 1151.79 538.77
00005357 00000077 1034.79 167.00 327.19 502.29 1062.97 396.65 1168.98 375.14 1063.29 454.80 1078.58 556.47 1161.23 540.70
00005358 00000078 1040.10 165.07 339.87 505.04 1073.79 397.81 1187.89 379.43 1069.53 456.54 1088.49 561.84 1179.89 546.34
00005359 00000079 1049.91 171.90 344.93 503.45 1082.21 397.65 1204.59 378.72 1085.44 454.32 1097.99 562.76 1196.41 546.43
00005360 00000080 1059.12 173.83 340.65 507.31 1086.56 398.34 1218.44 377.44 1102.49 463.40 1109.11 564.96 1211.22 551.11
00005361 DELETE   1065.67 175.37 344.23 514.38 1097.92 400.60 1230.50 381.60 1111.69 464.61 1121.15 566.40 1227.88 553.58
00005362 DELETE   1071.36 177.01 346.39 516.89 1108.42 399.92 1239.45 383.21 1120.50 468.16 1133.40 569.62 1242.72 557.68
00005363 00000083 1076.17 178.14 350.20 511.92 1117.02 397.29 1250.72 383.81 1130.52 469.07 1136.94 568.32 1249.61 558.76
00005364 00000084 1079.44 185.32 348.84 499.35 1120.77 394.24 1256.62 383.14 1136.30 467.29 1136.73 563.92 1251.09 556.37
00005365 00000085 1081.61 184.74 348.48 496.49 1125.95 395.25 1260.38 382.43 1140.49 465.19 1141.83 563.78 1252.20 554.70
00005366 00000086 1086.14 186.42 346.52 492.37 1128.92 395.67 1263.18 380.71 1143.97 464.12 1144.44 563.96 1255.36 553.26
00005367 00000087 1089.17 187.24 345.00 488.85 1131.61 395.48 1265.61 378.96 1147.61 463.51 1148.10 562.64 1259.03 550.59
00005368 00000088 1092.63 185.04 343.26 491.23 1132.76 394.01 1268.82 376.62 1150.85 463.02 1150.14 562.54 1263.93 549.56
00005369 00000089 1096.91 173.67 347.09 519.73 1134.67 395.37 1270.23 375.64 1154.95 461.48 1152.66 566.46 1265.99 551.81
00005370 00000090 1098.36 171.52 347.34 520.86 1135.44 394.69 1272.46 373.10 1156.94 459.96 1154.84 565.74 1269.40 549.60
00005371 00000091 1095.43 172.39 350.59 513.15 1135.59 392.25 1274.90 374.32 1160.41 458.56 1153.10 560.06 1267.79 546.26
00005372 00000092 1095.39 171.97 350.70 507.84 1135.07 390.19 1273.46 373.46 1159.94 457.00 1152.34 556.51 1264.63 543.49
00005373 00000093 1094.19 170.22 350.09 506.96 1133.67 388.41 1271.50 373.02 1157.34 455.47 1150.91 554.44 1262.34 542.53
00005374 DELETE   1089.36 174.09 345.94 491.82 1132.87 388.18 1271.26 367.60 1153.25 454.24 1152.31 553.50 1265.58 538.24
00005375 00000095 1084.25 177.02 348.75 488.55 1128.49 388.62 1266.85 366.93 1148.51 452.04 1148.86 552.95 1262.30 536.81
00005376 00000096 1080.64 176.54 350.71 491.73 1125.98 388.88 1262.72 368.15 1144.71 452.10 1146.29 553.04 1259.30 537.65
00005377 00000097 1078.93 178.60 347.39 494.18 1121.51 390.11 1257.40 368.92 1139.05 451.52 1142.34 555.69 1254.85 539.87
00005378 00000098 1077.55 179.58 346.57 497.96 1118.60 391.34 1253.98 367.68 1138.39 451.61 1143.34 560.33 1253.88 542.47
00005379 00000099 1077.24 178.10 344.70 496.61 1116.88 391.48 1251.62 367.54 1135.99 452.55 1140.18 558.78 1251.98 540.94
00005380 00000100 1077.80 176.94 344.75 494.59 1117.69 390.00 1251.91 367.58 1134.85 451.81 1138.93 554.97 1250.96 538.45
00005381 00000101 1078.33 176.02 344.67 494.54 1118.42 389.50 1252.33 367.59 1133.81 450.73 1138.22 553.87 1250.25 537.83
00005382 00000102 1078.12 174.46 345.40 497.35 1119.60 387.42 1253.00 367.25 1132.25 449.27 1138.41 552.04 1250.14 537.33
00005383 00000103 1084.02 162.07 341.64 518.01 1116.32 397.75 1258.40 370.79 1141.30 445.21 1137.80 559.89 1250.34 536.95
00005384 00000104 1084.28 163.76 342.43 518.09 1117.12 395.80 1260.79 370.80 1141.49 444.67 1138.63 558.11 1254.66 536.53
00005385 00000105 1084.56 161.96 344.23 519.65 1117.70 395.27 1261.15 370.89 1141.88 444.43 1139.43 557.03 1255.26 535.85
00005386 00000106 1085.68 162.59 345.12 517.13 1117.97 396.09 1261.50 371.94 1141.29 445.35 1138.97 556.69 1255.74 535.56
00005387 00000107 1085.88 162.80 345.47 515.28 1117.38 396.02 1262.21 373.86 1140.99 447.14 1134.99 555.01 1253.49 535.75
00005388 00000108 1085.71 162.11 346.51 515.94 1117.47 395.81 1261.87 374.20 1141.46 447.60 1135.74 555.54 1252.37 536.67
00005389 00000109 1077.52 171.74 348.84 498.63 1123.09 386.64 1260.40 366.53 1140.18 450.11 1140.74 552.43 1252.80 537.90
00005390 00000110 1077.43 172.43 347.34 500.04 1123.03 386.78 1260.13 368.05 1140.31 452.34 1140.35 554.03 1252.00 540.62
00005391 00000111 1082.13 164.38 345.98 514.84 1120.15 388.65 1261.56 377.01 1146.12 453.01 1133.51 555.40 1249.36 546.11
00005392 00000112 1076.86 174.18 347.02 498.45 1122.24 386.45 1260.04 370.80 1139.10 453.39 1137.21 552.42 1251.38 541.45
00005393 00000113 1077.36 176.58 345.77 498.32 1121.10 386.58 1257.00 371.02 1135.98 452.81 1137.61 552.77 1249.54 541.89
00005394 00000114 1075.25 177.94 348.88 498.89 1120.97 387.93 1255.91 369.91 1138.95 452.22 1140.61 556.30 1247.93 543.45
00005395 00000115 1074.46 175.41 350.77 503.16 1118.23 388.41 1254.36 369.68 1136.27 453.32 1138.16 557.75 1248.88 544.23
00005396 00000116 1077.93 166.81 350.23 520.09 1115.51 391.35 1254.99 377.51 1142.52 456.73 1131.90 560.82 1246.13 549.46
00005397 00000117 1077.92 170.15 349.23 512.02 1114.00 390.83 1255.52 378.16 1141.40 456.69 1130.85 556.82 1248.83 546.04
00005398 00000118 1077.89 171.58 349.13 510.22 1113.40 391.10 1254.58 378.29 1140.41 457.33 1130.65 556.22 1249.14 545.24
00005399 00000119 1078.28 170.76 347.01 510.94 1113.08 391.39 1253.69 379.12 1140.02 458.05 1130.22 556.19 1248.68 545.65
00005400 00000120 1077.76 169.64 348.57 513.82 1113.12 392.71 1252.97 379.91 1139.82 459.24 1131.30 557.62 1248.99 546.64
00005401 00000121 1078.01 170.15 346.45 515.14 1113.37 393.09 1251.89 380.97 1140.09 462.19 1132.56 560.29 1247.79 549.94
00005402 00000122 1073.08 174.81 350.41 503.41 1114.04 391.69 1251.28 375.59 1133.37 462.44 1136.20 557.11 1253.13 545.43
00005403 00000123 1072.76 175.51 348.77 504.16 1113.77 392.54 1251.96 377.63 1133.58 464.75 1136.14 557.41 1255.49 546.51
00005404 00000124 1073.81 175.65 349.96 504.73 1114.74 393.25 1252.72 378.75 1133.28 465.89 1136.40 557.25 1257.34 546.50
00005405 00000125 1074.18 177.69 348.63 501.82 1115.83 392.95 1251.97 380.17 1134.10 466.71 1137.11 557.62 1253.90 548.42
00005406 00000126 1073.96 177.92 347.56 503.47 1116.64 393.36 1251.48 381.41 1134.52 467.22 1136.35 558.51 1252.10 550.17
00005407 00000127 1073.77 177.70 348.75 503.42 1116.37 393.27 1250.62 381.74 1132.81 467.26 1135.21 558.14 1249.74 550.27
00005408 00000128 1081.61 174.18 338.11 513.24 1113.94 396.23 1246.77 388.16 1135.52 469.89 1133.88 560.58 1245.88 553.52
00005409 00000129 1081.51 173.16 336.40 518.70 1114.42 401.81 1241.36 391.94 1134.24 470.69 1135.79 564.73 1242.77 556.36
00005410 00000130 1080.63 174.36 336.91 516.45 1113.54 405.37 1240.16 394.82 1133.55 471.25 1134.06 563.68 1242.34 554.51
00005411 00000131 1078.93 171.01 336.96 514.47 1109.86 405.31 1237.88 394.79 1130.68 469.93 1131.40 561.18 1240.60 551.48
00005412 00000132 1070.33 172.98 338.85 499.68 1107.93 408.21 1233.42 389.40 1125.17 466.47 1125.96 556.55 1235.29 541.98
00005413 00000133 1068.15 172.94 337.87 500.50 1105.33 408.30 1228.23 388.17 1119.38 466.10 1121.98 556.26 1230.76 540.71
00005414 00000134 1066.40 177.51 334.98 497.70 1103.04 407.29 1224.48 387.20 1116.48 469.58 1122.59 558.77 1226.29 544.40
00005415 00000135 1064.90 178.42 332.47 497.12 1100.51 406.43 1221.10 386.17 1114.23 469.54 1120.63 559.43 1221.64 545.24
00005416 00000136 1063.83 179.21 332.63 497.43 1098.25 404.86 1218.77 385.88 1112.08 470.20 1118.82 559.57 1219.03 546.50
00005417 00000137 1062.40 179.38 331.77 496.17 1096.20 404.06 1216.56 385.91 1109.24 470.79 1116.56 559.22 1216.58 546.74
00005418 00000138 1061.32 176.35 334.04 497.59 1095.44 406.30 1216.14 387.08 1108.61 468.98 1112.75 558.19 1218.28 544.00
00005419 00000139 1060.43 178.26 334.35 494.78 1094.48 406.47 1214.06 387.26 1107.33 471.10 1112.50 557.51 1218.37 543.20
00005420 00000140 1059.56 178.26 332.75 493.01 1093.78 406.87 1211.57 387.94 1105.65 473.12 1111.71 557.12 1217.12 543.04
00005421 00000141 1058.63 179.78 334.10 491.77 1092.82 407.71 1209.73 388.90 1103.84 475.19 1110.80 557.09 1215.87 543.09
00005422 00000142 1058.43 182.08 333.79 489.67 1092.24 408.04 1207.76 389.78 1102.78 478.54 1110.99 557.10 1216.25 543.44
00005423 00000143 1059.36 185.61 332.94 491.14 1093.32 410.25 1206.72 391.32 1103.20 481.76 1112.88 559.86 1218.24 545.46
00005424 00000144 1060.28 187.82 333.62 494.13 1094.16 413.05 1206.20 392.69 1102.48 484.64 1114.13 562.53 1220.62 546.49
00005425 00000145 1060.26 189.02 332.30 494.50 1093.80 414.24 1206.30 394.47 1103.43 486.38 1114.02 563.70 1221.36 548.11
00005426 00000146 1061.03 190.71 332.31 494.21 1094.41 415.01 1206.34 394.85 1103.93 487.41 1114.95 564.48 1222.04 548.44
00005427 00000147 1061.22 189.52 331.68 495.57 1094.65 414.71 1206.21 394.17 1103.74 486.77 1115.45 564.10 1222.65 547.66
00005428 00000148 1061.23 187.88 333.05 498.79 1095.21 414.50 1205.06 392.42 1102.36 485.56 1117.37 565.77 1220.57 548.45
00005429 00000149 1061.52 186.14 331.56 499.42 1095.19 413.59 1204.04 390.97 1101.51 484.54 1117.81 564.86 1220.53 547.03
00005430 00000150 1062.29 187.04 328.85 495.90 1095.23 415.11 1203.17 391.72 1102.14 484.71 1118.36 563.96 1220.91 545.49
00005431 00000151 1062.45 186.61 329.22 494.36 1094.92 414.43 1203.70 392.10 1102.15 484.98 1117.17 562.53 1221.08 544.82
00005432 00000152 1062.96 186.25 329.09 493.79 1095.12 414.78 1204.39 392.92 1102.54 485.05 1117.18 562.53 1221.14 545.26
00005433 00000153 1063.22 185.74 328.84 496.53 1095.40 415.77 1205.01 393.82 1102.31 484.04 1116.44 564.38 1220.01 547.28
00005434 00000154 1064.51 184.92 327.45 501.96 1096.18 416.34 1207.86 395.68 1104.60 483.07 1116.57 566.75 1220.14 551.18
00005435 00000155 1065.39 182.07 327.84 509.48 1098.85 416.94 1213.14 396.15 1107.15 479.90 1117.70 568.40 1224.35 552.63
00005436 00000156 1070.87 175.92 330.78 525.00 1098.79 413.94 1218.37 390.70 1098.22 475.08 1126.43 571.58 1235.89 554.18
00005437 00000157 1078.70 175.03 337.93 531.95 1112.10 407.26 1237.70 399.72 1125.55 475.14 1130.82 565.60 1246.03 558.76
00005438 00000158 1084.17 170.51 340.54 538.20 1122.17 406.40 1250.69 400.20 1135.86 473.59 1137.12 566.82 1256.20 562.04
00005439 00000159 1087.70 175.50 338.74 529.18 1128.44 408.43 1259.02 395.11 1133.76 481.22 1144.62 577.28 1265.85 566.01
00005440 00000160 1091.52 178.81 340.28 524.05 1130.63 413.05 1263.15 400.23 1139.20 490.08 1146.56 579.73 1271.15 568.76
00005441 DELETE   1093.29 184.40 338.06 513.54 1131.80 421.22 1263.53 407.17 1142.90 495.18 1149.40 584.05 1267.68 572.63
00005442 00000162 1094.26 187.85 337.07 508.54 1131.73 428.70 1264.30 413.05 1143.97 501.26 1150.43 588.88 1267.09 576.13
