Video ID: 	_tm3Lc3FkSo
H: 	1080
W: 	1920
FPS: 	25.0

FRAME INDEX X0 Y0 W H [Landmarks (5 Points)]

00005641 00000000 993.27 127.54 403.57 589.40 1128.91 345.15 1289.53 389.23 1189.40 472.10 1099.15 542.64 1228.99 579.42
00005642 00000001 990.54 115.94 408.81 597.83 1134.29 339.62 1292.68 389.88 1189.65 467.57 1098.28 539.38 1229.68 582.40
00005643 00000002 991.83 128.80 405.39 585.39 1127.64 344.50 1289.16 387.01 1189.18 468.94 1099.37 541.13 1229.21 576.62
00005644 00000003 989.12 115.94 409.02 594.63 1131.72 338.58 1292.28 386.51 1189.22 464.86 1098.29 538.58 1230.66 579.64
00005645 00000004 992.01 129.27 404.51 584.64 1126.44 343.38 1289.28 386.05 1188.01 467.90 1098.57 540.79 1228.99 576.46
00005646 00000005 991.53 128.56 404.59 585.63 1124.04 342.52 1287.45 386.01 1185.46 468.40 1096.39 540.40 1228.15 576.66
00005647 00000006 989.61 123.76 404.98 588.80 1120.49 343.13 1284.25 385.53 1183.51 469.68 1095.24 541.50 1226.47 576.90
00005648 00000007 983.50 110.62 407.14 599.07 1119.94 338.62 1283.34 384.26 1177.40 466.69 1089.06 541.20 1221.49 580.31
00005649 00000008 980.22 100.96 402.88 603.85 1105.38 341.34 1271.60 382.73 1167.23 467.05 1081.06 541.60 1214.64 577.43
00005650 DELETE   971.68 105.56 406.61 597.92 1090.96 338.22 1255.99 382.48 1147.11 465.63 1067.23 536.83 1197.48 575.04
00005651 DELETE   964.80 96.08 402.34 606.78 1074.63 337.61 1236.36 381.89 1124.22 464.72 1054.58 535.83 1177.46 573.88
00005652 00000011 962.53 96.35 396.65 606.90 1065.91 336.13 1226.81 378.11 1111.53 460.22 1047.29 535.46 1167.89 571.26
00005653 00000012 959.35 94.74 395.78 601.92 1058.62 333.00 1215.95 372.87 1100.86 453.29 1041.87 531.01 1159.44 564.69
00005654 00000013 958.47 94.43 393.07 591.79 1052.69 333.01 1211.50 369.59 1087.47 451.37 1031.84 522.18 1164.62 552.91
00005655 00000014 959.38 89.40 392.81 588.88 1051.14 324.23 1208.85 361.53 1082.95 438.76 1027.40 511.61 1162.34 542.92
00005656 00000015 959.37 89.17 393.53 579.54 1053.34 310.98 1208.06 351.04 1081.79 424.94 1025.62 497.93 1160.11 531.58
00005657 00000016 961.61 84.45 390.64 573.46 1052.54 301.22 1202.99 339.74 1076.86 416.84 1026.70 489.41 1152.20 522.00
00005658 00000017 963.45 83.73 389.38 568.50 1052.32 298.00 1205.37 334.55 1078.98 414.65 1030.22 490.00 1151.24 521.11
00005659 00000018 966.18 84.42 389.81 566.60 1055.55 297.84 1210.42 332.78 1084.17 413.57 1033.39 491.29 1154.95 521.20
00005660 00000019 965.66 85.31 397.44 576.06 1057.34 302.85 1209.67 341.88 1083.31 413.87 1030.61 493.53 1144.04 527.68
00005661 00000020 968.38 90.35 401.27 574.86 1060.83 306.11 1212.80 347.70 1081.38 416.07 1031.34 495.73 1143.47 531.58
00005662 00000021 972.21 86.70 396.89 586.57 1061.91 311.90 1213.21 354.63 1082.16 426.61 1034.23 506.84 1146.03 542.92
00005663 00000022 970.99 84.64 398.57 596.30 1061.59 317.80 1211.52 364.49 1080.71 435.10 1033.79 513.62 1146.08 552.43
00005664 00000023 970.74 90.44 395.82 594.37 1059.95 325.64 1205.43 375.38 1076.30 446.06 1033.40 520.23 1141.04 561.17
00005665 00000024 966.70 99.53 394.17 594.00 1053.93 330.71 1201.86 382.37 1069.74 453.59 1025.12 527.22 1133.49 569.92
00005666 00000025 969.55 106.73 384.01 579.50 1047.73 334.60 1195.94 388.19 1063.18 461.63 1021.39 534.51 1129.01 578.21
00005667 00000026 959.16 110.76 389.05 581.87 1040.93 347.65 1198.92 394.53 1059.33 474.23 1016.89 543.98 1137.18 584.15
00005668 00000027 962.59 105.02 386.30 590.45 1042.48 346.05 1192.45 405.84 1061.62 476.38 1015.95 542.16 1126.66 590.89
00005669 00000028 959.18 115.94 389.29 585.68 1043.69 351.83 1193.16 416.07 1060.49 485.01 1014.32 544.65 1124.95 596.75
00005670 00000029 957.04 133.90 390.06 576.26 1043.17 361.57 1192.47 425.22 1059.31 497.23 1012.20 551.56 1121.35 603.16
00005671 00000030 958.81 138.59 395.21 579.73 1049.05 369.70 1194.63 434.01 1062.93 504.57 1017.65 556.65 1124.37 608.68
00005672 00000031 960.28 142.00 396.80 585.34 1053.52 379.47 1198.36 440.82 1071.92 515.03 1022.66 566.49 1129.62 616.43
00005673 00000032 949.13 142.65 409.22 598.92 1047.01 383.12 1203.18 440.17 1070.63 517.89 1010.42 571.32 1139.43 618.39
00005674 00000033 953.63 138.79 409.97 609.72 1052.29 381.07 1213.17 438.66 1078.43 517.25 1014.64 573.32 1145.61 621.20
00005675 00000034 959.35 141.39 409.76 611.23 1060.52 375.16 1224.41 435.07 1089.79 516.23 1021.76 570.96 1155.28 621.32
00005676 00000035 970.12 143.07 411.72 602.04 1082.17 372.94 1239.21 431.87 1112.11 509.18 1050.91 565.75 1174.56 615.21
00005677 00000036 975.66 137.62 412.49 602.48 1088.44 370.82 1249.57 425.61 1122.50 500.49 1060.86 563.09 1185.26 609.42
00005678 00000037 980.43 138.55 415.93 595.12 1095.96 365.95 1263.69 418.43 1135.07 490.82 1064.74 559.18 1196.79 604.12
00005679 00000038 989.02 130.27 416.04 601.29 1105.96 362.02 1271.70 416.07 1144.78 482.87 1071.15 553.22 1207.37 599.50
00005680 00000039 996.95 133.26 409.66 595.67 1110.99 358.07 1274.49 409.62 1155.95 479.36 1078.20 547.63 1214.51 590.92
00005681 00000040 1002.92 130.28 405.32 591.98 1115.80 348.57 1280.06 401.38 1159.36 471.69 1081.62 540.09 1216.51 584.36
00005682 00000041 1005.60 132.47 403.52 582.76 1120.21 340.90 1283.76 394.14 1164.05 464.80 1084.11 532.04 1220.27 576.40
00005683 00000042 1004.95 122.51 408.16 583.74 1129.99 330.09 1290.86 383.76 1168.92 457.71 1087.24 524.97 1225.74 570.21
00005684 00000043 1008.60 115.12 403.02 582.84 1132.67 322.81 1292.42 374.26 1173.07 450.79 1093.17 517.50 1231.08 561.31
00005685 00000044 1008.65 107.05 404.77 586.10 1134.40 312.32 1294.38 362.91 1177.57 437.98 1094.84 510.96 1231.19 554.20
00005686 00000045 1009.04 99.42 404.85 588.12 1137.32 304.79 1295.89 353.89 1183.59 426.09 1098.78 506.30 1233.75 548.21
00005687 00000046 1012.81 91.19 402.83 587.86 1138.47 302.88 1295.33 349.48 1186.37 418.57 1103.07 500.35 1237.49 539.78
00005688 00000047 1015.68 94.56 394.90 574.75 1137.69 300.12 1291.30 343.60 1185.56 408.99 1105.55 489.82 1240.39 526.96
00005689 00000048 1015.28 99.90 393.01 554.87 1134.64 294.20 1292.57 335.15 1184.75 395.85 1106.67 478.79 1240.82 513.79
00005690 00000049 1015.76 97.74 392.16 546.69 1132.51 286.09 1291.98 323.41 1184.06 388.27 1109.00 472.51 1240.34 504.31
00005691 00000050 1017.94 86.27 392.26 549.38 1128.40 281.75 1292.39 318.80 1184.20 379.79 1109.47 466.96 1244.56 498.21
00005692 00000051 1018.99 90.94 388.40 530.84 1126.15 275.49 1292.96 308.52 1182.57 373.13 1109.98 461.87 1243.09 489.99
00005693 00000052 1018.17 85.15 388.19 525.51 1122.38 272.74 1289.28 303.37 1178.93 367.09 1107.61 456.33 1242.31 482.65
00005694 00000053 1017.89 88.18 384.77 517.71 1119.33 270.77 1284.42 299.34 1174.69 362.01 1103.62 448.81 1239.03 473.66
00005695 00000054 1012.83 86.91 385.76 519.64 1111.88 271.66 1271.21 293.74 1166.04 360.27 1100.47 450.16 1226.77 469.99
00005696 00000055 1007.05 82.17 388.23 529.53 1103.86 273.60 1264.67 292.29 1159.66 360.50 1094.09 456.47 1220.35 473.56
00005697 00000056 1000.51 74.54 391.37 537.81 1092.71 274.50 1256.39 291.98 1148.74 361.11 1086.21 459.58 1214.72 475.33
00005698 00000057 995.81 69.70 389.19 543.67 1084.32 275.50 1249.30 292.51 1140.98 362.73 1079.71 461.27 1210.97 476.39
00005699 00000058 988.36 77.90 384.51 539.95 1076.47 275.30 1239.09 291.45 1133.72 367.78 1074.16 465.99 1200.25 480.18
00005700 00000059 976.29 62.99 392.10 550.44 1073.25 279.33 1233.59 296.41 1128.31 378.64 1072.15 473.09 1193.53 487.82
00005701 00000060 976.63 68.46 388.99 553.57 1066.54 287.75 1219.15 299.87 1118.50 373.12 1069.55 480.61 1182.96 490.92
00005702 00000061 964.00 74.97 386.50 544.01 1050.49 290.37 1216.96 296.87 1112.46 386.34 1060.75 487.79 1186.16 494.03
00005703 00000062 958.23 77.95 386.49 544.05 1043.43 293.52 1208.32 302.11 1104.39 393.50 1053.01 492.24 1176.07 500.30
00005704 00000063 953.35 90.26 384.03 540.02 1035.86 301.14 1197.39 305.91 1097.48 399.15 1048.59 497.76 1169.39 503.35
00005705 00000064 946.32 100.13 383.72 535.31 1027.67 309.64 1188.72 311.00 1089.78 410.38 1042.66 504.73 1164.60 507.45
00005706 00000065 936.89 98.28 385.64 542.69 1024.16 313.25 1185.93 316.31 1090.39 418.89 1039.92 512.37 1161.89 516.30
00005707 00000066 927.14 103.36 388.73 549.67 1018.34 320.33 1179.56 321.13 1088.09 424.77 1037.41 518.79 1161.99 520.58
00005708 00000067 916.96 102.58 389.76 556.03 1012.26 328.92 1169.50 329.93 1081.45 433.45 1032.93 527.23 1154.03 529.31
00005709 00000068 908.77 105.77 393.74 560.05 1004.18 336.40 1162.15 335.98 1076.05 444.79 1029.13 538.03 1149.69 538.86
00005710 00000069 903.36 107.78 392.55 566.62 1001.32 340.56 1159.46 342.98 1076.38 453.58 1030.29 543.55 1149.58 546.35
00005711 00000070 900.39 107.35 390.47 572.51 1001.07 344.40 1158.62 347.83 1079.21 457.77 1030.86 546.29 1151.49 549.71
00005712 00000071 899.39 106.53 388.64 574.45 999.84 347.23 1157.55 350.21 1079.95 458.54 1030.10 547.84 1151.69 550.98
00005713 00000072 900.16 101.00 389.14 584.83 1001.47 347.09 1157.18 352.08 1079.89 458.89 1030.56 547.92 1151.21 552.69
00005714 00000073 900.04 100.79 391.27 586.49 1002.80 345.80 1159.03 351.31 1080.58 457.91 1030.11 546.11 1153.22 551.23
00005715 00000074 900.21 102.90 395.41 587.17 1005.14 342.16 1163.47 348.52 1082.96 457.61 1030.28 544.17 1156.46 550.17
00005716 00000075 904.21 102.71 394.29 591.32 1011.68 339.83 1167.25 346.90 1086.53 454.23 1034.18 542.74 1159.07 549.29
00005717 00000076 911.77 100.43 393.71 586.43 1018.74 339.64 1174.86 345.00 1093.14 450.34 1039.83 538.94 1167.30 543.74
00005718 00000077 919.52 95.39 391.76 589.89 1025.95 337.63 1182.20 341.96 1100.70 448.70 1045.82 537.65 1174.63 540.99
00005719 00000078 925.86 100.79 393.15 580.10 1039.65 330.56 1195.00 336.43 1114.49 437.80 1054.88 529.18 1184.73 533.49
00005720 00000079 934.75 98.03 393.11 583.34 1052.84 323.29 1208.16 333.58 1126.85 432.07 1059.91 524.64 1191.27 532.51
00005721 DELETE   942.86 91.93 396.99 588.72 1068.77 320.58 1225.34 333.53 1147.07 425.46 1071.58 519.39 1206.54 529.50
00005722 DELETE   954.96 90.08 392.50 581.18 1086.17 324.28 1238.75 335.69 1169.07 421.05 1091.89 512.87 1225.10 522.53
00005723 00000082 967.03 79.30 391.03 585.23 1094.60 320.26 1253.15 332.52 1183.27 421.16 1105.58 508.97 1235.34 520.15
00005724 00000083 971.55 82.44 393.76 578.36 1100.56 314.77 1261.42 328.29 1191.36 418.14 1110.76 506.11 1240.90 518.13
00005725 00000084 972.67 81.56 395.22 583.32 1107.57 309.55 1269.67 324.42 1201.55 415.07 1117.94 510.29 1243.74 523.21
00005726 00000085 973.09 80.38 395.92 589.39 1116.09 307.67 1273.93 325.06 1210.62 412.45 1122.11 508.60 1249.43 523.16
00005727 00000086 974.37 82.24 394.14 576.55 1114.22 309.31 1274.60 323.32 1211.43 410.26 1122.85 504.56 1254.45 516.81
00005728 00000087 974.09 84.24 394.41 572.23 1116.14 305.44 1276.10 321.36 1211.38 407.79 1123.90 501.69 1252.64 515.29
00005729 00000088 973.10 85.59 395.43 576.56 1116.91 301.07 1276.00 319.67 1209.49 406.39 1122.52 501.21 1249.51 516.73
00005730 00000089 971.51 87.79 396.02 573.36 1114.10 300.39 1274.13 318.95 1206.78 403.17 1118.54 497.58 1250.21 513.13
00005731 00000090 971.24 88.12 395.38 569.17 1109.82 298.32 1272.13 317.60 1202.96 401.77 1115.74 495.01 1247.83 511.34
00005732 00000091 971.74 88.07 394.05 565.16 1106.65 298.59 1270.60 316.85 1200.65 401.23 1113.22 492.60 1248.05 508.15
00005733 00000092 970.33 87.81 395.24 564.43 1104.26 299.85 1268.95 318.73 1196.85 399.47 1108.94 489.88 1246.15 505.98
00005734 00000093 969.84 86.33 393.98 567.24 1102.67 300.22 1266.16 318.31 1195.44 399.86 1107.97 490.75 1245.73 506.31
00005735 00000094 968.88 82.55 393.24 574.95 1099.48 303.59 1262.42 319.51 1192.55 402.68 1105.95 494.83 1243.87 508.60
00005736 00000095 967.60 80.68 394.78 580.57 1096.45 307.31 1257.43 323.60 1186.72 406.53 1100.70 497.56 1237.66 511.78
00005737 00000096 966.97 77.87 394.15 586.11 1094.76 311.71 1253.85 328.49 1184.07 413.72 1098.04 502.08 1233.76 516.89
00005738 00000097 968.06 75.02 394.80 594.66 1095.61 316.12 1255.72 332.11 1183.51 420.23 1100.08 507.53 1235.87 521.39
00005739 00000098 968.24 78.52 397.64 600.38 1099.21 319.73 1257.69 333.59 1186.69 426.68 1104.36 514.92 1240.95 526.58
00005740 00000099 969.99 82.28 399.67 599.47 1100.38 320.63 1260.12 336.23 1186.14 431.90 1103.30 518.91 1239.81 532.00
00005741 00000100 971.97 86.96 399.02 596.51 1102.86 322.87 1261.39 339.05 1186.12 435.90 1104.06 521.58 1238.53 535.31
00005742 00000101 974.05 85.48 398.04 599.80 1102.93 324.43 1261.73 339.81 1186.36 440.99 1104.43 525.14 1238.95 538.20
00005743 00000102 976.06 88.93 397.48 593.78 1102.72 325.90 1263.01 341.73 1186.15 444.23 1105.59 527.04 1238.59 540.77
00005744 00000103 975.59 99.13 396.59 583.56 1101.88 331.75 1263.01 346.56 1185.38 450.36 1103.03 529.46 1238.95 542.70
00005745 00000104 974.57 100.55 396.50 583.82 1103.25 334.58 1261.35 353.35 1182.58 453.26 1101.23 529.85 1234.84 546.29
00005746 00000105 973.41 106.17 397.21 588.44 1101.77 337.14 1260.11 357.44 1179.47 456.25 1098.30 536.22 1231.06 554.15
00005747 00000106 976.15 117.22 395.66 590.46 1093.45 337.47 1257.63 357.96 1175.05 458.11 1096.72 539.51 1228.20 556.94
00005748 00000107 973.82 121.71 396.50 590.08 1091.64 340.21 1256.00 360.70 1173.43 460.39 1094.51 542.21 1225.84 559.74
00005749 00000108 976.32 123.02 395.41 587.79 1092.90 340.28 1257.15 360.58 1173.42 460.80 1095.61 541.43 1226.74 558.79
00005750 00000109 976.48 121.55 397.23 588.63 1095.99 340.05 1259.22 362.01 1174.88 459.65 1096.53 539.96 1227.60 558.62
00005751 00000110 979.10 118.93 396.63 586.89 1096.92 337.91 1260.87 360.25 1175.12 458.95 1097.69 537.35 1229.54 556.27
00005752 00000111 976.71 109.47 397.82 589.17 1104.24 339.26 1263.18 362.04 1176.02 460.08 1097.14 538.90 1229.28 558.93
00005753 00000112 978.70 108.98 398.09 589.03 1107.33 336.76 1265.87 360.66 1178.22 458.19 1098.07 537.04 1229.55 557.96
00005754 00000113 988.21 123.01 396.98 572.63 1105.13 333.42 1268.67 357.34 1178.56 458.06 1100.74 530.73 1230.95 550.92
00005755 00000114 988.18 102.97 396.84 588.54 1114.87 330.92 1276.23 357.19 1184.39 455.40 1103.34 531.46 1236.76 553.85
00005756 00000115 994.53 112.27 397.37 580.76 1111.45 332.11 1275.73 355.38 1184.61 454.12 1104.92 527.80 1235.55 547.22
00005757 00000116 995.96 101.53 394.63 588.72 1124.97 331.02 1285.41 362.94 1193.79 445.61 1109.32 525.80 1243.49 552.60
00005758 DELETE   999.93 96.92 395.65 591.48 1135.13 328.27 1294.08 359.78 1204.47 440.70 1120.28 524.49 1252.96 550.62
00005759 00000118 1002.92 92.24 398.24 596.19 1142.47 329.10 1301.73 354.77 1218.93 436.98 1134.70 525.87 1268.15 546.61
00005760 00000119 1007.13 88.62 397.72 598.13 1152.19 328.30 1307.94 352.36 1235.08 437.13 1146.09 524.97 1279.02 544.55
00005761 00000120 1011.95 89.78 396.60 597.39 1161.37 325.52 1314.45 349.11 1247.00 436.16 1154.00 523.30 1286.98 542.63
00005762 00000121 1014.28 88.88 393.77 590.22 1164.21 325.53 1320.90 346.65 1258.73 428.59 1162.59 519.18 1298.47 536.52
00005763 00000122 1016.77 84.38 388.28 591.20 1168.23 322.12 1322.06 342.50 1263.93 423.15 1168.04 515.63 1301.01 532.42
00005764 00000123 1018.75 81.98 385.88 588.63 1169.89 318.69 1322.54 336.57 1267.45 418.77 1172.48 511.87 1303.15 526.58
00005765 00000124 1021.48 84.01 385.54 581.05 1173.83 314.86 1326.13 331.65 1273.14 416.39 1177.87 507.20 1308.34 521.06
00005766 00000125 1024.89 81.55 384.16 579.76 1176.30 311.93 1330.49 327.14 1278.93 414.11 1184.16 506.76 1314.30 519.44
00005767 00000126 1027.22 84.19 384.71 578.02 1178.45 313.64 1334.08 328.17 1283.57 416.06 1185.69 508.40 1317.58 520.90
00005768 00000127 1029.18 86.25 383.70 580.57 1180.22 317.72 1336.40 332.76 1285.57 418.98 1186.99 512.52 1319.11 525.43
00005769 00000128 1029.99 87.28 384.18 583.06 1177.01 324.11 1336.16 339.08 1280.82 424.94 1183.94 518.36 1318.91 531.32
00005770 00000129 1022.27 85.29 389.59 591.96 1175.82 328.22 1330.51 345.79 1276.76 431.69 1179.95 521.90 1312.87 536.53
00005771 00000130 1020.22 93.48 391.05 585.28 1174.56 329.12 1328.53 346.88 1273.31 433.91 1175.58 522.57 1307.85 537.56
00005772 00000131 1021.67 95.30 394.03 582.92 1174.95 326.20 1330.54 345.66 1271.25 431.38 1173.35 520.75 1305.55 537.28
00005773 00000132 1024.51 86.34 395.16 591.06 1176.89 323.69 1331.61 346.99 1270.80 431.16 1171.03 516.69 1304.22 536.62
00005774 00000133 1027.17 89.78 392.88 586.18 1179.22 321.27 1336.02 345.38 1273.25 427.83 1172.56 514.92 1306.47 535.64
00005775 00000134 1032.58 77.80 396.42 598.23 1184.91 318.07 1338.93 339.41 1275.91 429.73 1175.93 516.32 1302.43 534.99
00005776 00000135 1038.90 80.29 398.48 596.20 1193.71 316.75 1349.68 340.32 1282.62 428.56 1181.46 516.25 1310.00 536.36
00005777 00000136 1045.89 72.36 401.22 605.29 1206.90 311.21 1359.40 342.93 1292.82 425.00 1188.90 510.07 1316.63 536.37
00005778 00000137 1055.06 78.76 403.97 595.20 1220.27 302.51 1373.61 340.75 1303.86 419.59 1200.55 502.07 1327.36 533.01
00005779 00000138 1062.67 80.97 406.50 589.23 1231.95 299.56 1386.05 336.01 1315.94 418.88 1211.86 499.21 1338.86 528.60
00005780 00000139 1075.33 82.23 402.44 585.98 1242.73 295.93 1394.01 332.28 1325.64 414.78 1221.38 495.45 1348.27 525.15
00005781 00000140 1082.98 85.56 402.96 577.21 1249.11 293.84 1400.91 331.96 1332.02 411.72 1227.94 492.55 1352.43 524.29
00005782 00000141 1091.66 84.40 399.95 575.74 1253.57 294.05 1406.90 332.76 1337.37 413.16 1232.33 492.35 1359.74 525.03
00005783 00000142 1095.71 77.43 405.01 581.00 1256.79 295.60 1415.40 332.73 1344.24 414.38 1237.01 488.96 1364.87 520.42
00005784 00000143 1104.62 78.35 401.25 576.20 1266.35 294.74 1423.22 333.70 1352.41 412.90 1240.62 484.48 1376.02 517.47
00005785 00000144 1111.89 81.08 399.86 574.26 1275.37 290.15 1429.37 336.11 1357.55 407.01 1244.79 479.06 1380.18 517.43
00005786 00000145 1114.77 84.11 399.13 571.68 1279.27 287.43 1432.58 334.75 1358.83 403.60 1250.27 478.69 1379.35 517.64
00005787 00000146 1118.46 84.02 399.21 570.82 1284.15 286.13 1436.15 336.86 1362.14 403.60 1254.32 478.05 1379.98 519.57
00005788 00000147 1126.24 82.91 391.64 563.70 1288.85 289.10 1438.10 338.26 1368.49 402.46 1262.27 477.48 1384.19 518.36
00005789 00000148 1133.90 79.79 386.77 552.58 1292.60 286.57 1445.76 334.22 1368.28 403.84 1259.89 478.60 1381.74 519.48
00005790 00000149 1132.76 76.03 387.35 552.94 1289.18 287.34 1445.96 336.23 1365.46 405.60 1252.81 480.31 1376.51 522.37
00005791 00000150 1121.21 79.70 389.85 556.88 1286.12 292.89 1439.52 333.43 1370.11 407.65 1262.36 485.74 1381.47 519.10
00005792 00000151 1115.57 80.61 399.34 574.35 1283.29 290.68 1436.32 337.50 1365.02 407.47 1259.74 483.61 1381.43 521.95
00005793 00000152 1110.77 81.38 399.47 570.43 1275.81 290.44 1429.62 331.37 1361.02 404.99 1253.84 483.85 1379.85 517.82
00005794 00000153 1106.18 78.12 400.35 569.38 1261.05 294.71 1420.26 328.37 1349.92 402.34 1245.62 484.59 1375.69 513.14
CROP_BBOX: 682 0 1660 896
