Video ID: 	OZV7TlIh56A
H: 	1080
W: 	1920
FPS: 	25.0

FRAME INDEX X0 Y0 W H [Landmarks (5 Points)]

00010370 00000000 732.94 249.33 389.72 587.54 775.17 541.31 905.30 518.13 808.37 643.08 850.94 703.56 977.98 680.33
00010371 00000001 730.27 247.89 403.82 591.62 784.70 542.53 916.37 520.34 824.25 645.54 851.95 702.07 978.75 678.98
00010372 00000002 730.69 247.61 405.27 591.28 785.46 542.89 916.72 519.69 826.34 643.99 853.64 704.06 977.77 680.48
00010373 00000003 730.69 244.98 406.21 593.25 786.86 541.69 915.69 518.82 825.33 641.09 854.82 703.31 975.70 680.06
00010374 DELETE   732.46 239.80 404.61 591.35 788.67 536.33 916.67 512.37 827.78 634.82 857.85 700.01 975.27 675.99
00010375 00000005 729.12 224.85 408.50 602.80 790.42 520.82 915.73 497.87 823.36 614.08 860.56 686.25 970.56 665.40
00010376 00000006 728.33 208.58 414.44 611.05 788.46 505.49 912.10 480.85 820.07 600.48 858.08 679.15 963.09 657.09
00010377 00000007 736.27 205.72 408.69 590.33 786.63 497.95 913.83 468.23 821.93 585.47 853.59 674.13 966.81 647.72
00010378 00000008 732.34 197.67 412.24 590.02 785.45 491.18 912.64 463.61 819.49 580.97 852.38 664.14 966.36 639.23
00010379 00000009 726.14 202.87 413.30 576.77 782.42 497.84 911.98 465.85 827.18 583.17 856.40 665.32 970.34 636.95
00010380 00000010 721.07 210.71 410.34 569.40 778.90 503.66 910.85 468.62 825.38 589.84 858.67 664.27 965.33 633.53
00010381 00000011 719.70 214.58 407.61 568.59 775.46 504.75 909.23 469.21 822.72 591.23 853.26 664.45 963.51 633.37
00010382 00000012 722.26 207.36 404.09 575.79 774.39 503.97 904.29 467.64 818.40 589.06 849.82 661.97 959.25 630.07
00010383 00000013 722.83 204.14 400.88 575.19 773.24 502.55 900.56 465.08 816.20 585.74 848.37 660.38 955.57 627.57
00010384 00000014 724.36 200.34 398.78 580.62 773.69 498.08 898.75 461.11 814.59 581.84 849.04 658.16 955.24 625.36
00010385 00000015 719.58 201.51 406.47 582.97 774.52 495.85 899.10 454.42 814.92 581.30 859.15 657.75 966.28 620.93
00010386 00000016 721.28 202.67 405.80 585.28 774.39 497.94 901.11 452.26 814.67 581.79 860.83 656.56 975.85 615.80
00010387 00000017 719.47 208.01 411.38 578.59 777.31 494.10 913.78 448.35 827.77 576.84 860.56 651.03 986.26 610.03
00010388 00000018 721.11 203.34 415.17 583.17 781.42 485.39 929.39 438.70 844.53 573.71 860.92 645.92 1001.16 603.95
00010389 00000019 728.83 199.81 417.15 580.66 796.08 481.55 945.33 438.06 867.56 575.51 871.53 639.55 1018.97 600.16
00010390 DELETE   740.48 201.30 411.73 573.77 810.08 480.09 957.57 435.53 885.04 571.61 881.49 635.71 1029.68 596.34
00010391 DELETE   742.32 195.97 423.28 582.44 823.62 479.27 974.64 428.49 905.56 572.80 898.19 639.73 1048.90 596.17
00010392 00000022 744.75 203.63 433.00 576.83 835.10 477.89 994.34 427.06 927.43 574.37 908.52 642.92 1064.08 599.93
00010393 00000023 756.73 197.17 435.36 593.15 850.12 482.93 1009.35 431.57 940.56 587.62 928.21 651.08 1082.44 606.82
00010394 00000024 765.04 207.96 438.08 583.13 868.28 490.73 1033.17 440.64 965.30 599.96 952.08 658.37 1102.87 614.38
00010395 00000025 771.41 200.95 436.65 586.08 871.25 484.71 1035.59 437.76 963.69 592.12 950.37 657.93 1095.65 616.72
00010396 00000026 774.21 190.92 432.64 587.05 862.13 465.93 1026.99 430.70 948.06 576.40 935.99 652.82 1073.46 621.09
00010397 00000027 771.10 182.12 433.38 595.83 854.96 452.60 1017.16 419.23 934.97 567.47 929.25 647.84 1065.81 617.94
00010398 00000028 773.76 184.08 433.61 592.45 856.64 450.72 1017.99 418.21 935.34 565.99 932.58 647.87 1065.41 618.65
00010399 00000029 777.73 185.19 432.74 591.45 857.46 455.89 1022.51 425.91 936.44 573.16 932.32 653.64 1065.13 626.55
00010400 00000030 779.08 179.91 426.50 600.04 859.55 472.12 1016.86 448.41 929.50 574.45 926.71 655.96 1055.86 633.89
00010401 00000031 778.15 177.65 427.89 618.84 848.72 473.70 1003.18 452.28 909.71 585.81 912.91 661.57 1040.53 642.08
00010402 00000032 778.08 176.05 428.87 624.98 843.91 467.52 1004.24 448.98 907.12 591.73 905.76 660.31 1042.83 643.02
00010403 00000033 791.35 181.17 422.66 618.97 854.88 463.28 1018.98 448.90 918.97 596.08 915.83 659.14 1060.62 645.58
00010404 00000034 803.87 178.35 424.96 632.70 876.49 478.99 1042.88 455.68 952.23 600.14 943.52 664.39 1097.02 644.03
00010405 DELETE   812.87 206.17 433.76 609.14 897.98 497.38 1072.13 467.36 986.58 615.20 966.63 675.79 1122.33 649.59
00010406 DELETE   817.90 225.45 438.66 597.49 910.78 511.57 1087.84 486.54 1005.92 646.99 975.90 692.86 1140.83 670.56
00010407 00000037 819.94 243.34 435.50 595.33 908.75 523.17 1084.27 505.01 997.18 662.36 974.34 706.18 1132.22 689.69
00010408 00000038 819.16 235.56 426.57 614.17 896.85 527.09 1065.65 514.17 976.59 670.78 971.20 717.80 1119.48 705.19
00010409 00000039 814.34 236.15 421.69 618.09 885.80 518.43 1053.59 515.01 955.82 665.27 952.35 712.75 1099.91 708.10
00010410 00000040 811.62 232.63 426.33 617.41 889.99 511.05 1054.17 503.34 960.72 654.59 953.02 705.77 1098.48 697.47
00010411 00000041 808.06 229.28 431.56 608.34 893.68 512.34 1063.12 492.81 978.80 654.90 968.38 706.33 1115.11 688.45
00010412 00000042 809.76 240.40 429.12 584.16 904.32 528.80 1075.49 502.22 997.07 650.05 970.78 700.85 1123.83 677.16
00010413 00000043 811.59 242.22 417.24 585.44 901.08 539.12 1067.02 510.26 990.21 651.25 965.41 701.93 1116.54 676.38
00010414 DELETE   801.26 236.01 411.86 594.79 879.83 545.64 1046.15 517.18 962.21 654.46 941.46 706.29 1095.11 681.22
00010415 00000045 784.77 219.01 413.28 618.18 865.14 531.73 1025.52 512.72 939.61 647.05 927.08 706.82 1069.37 687.89
00010416 00000046 776.93 225.04 423.04 601.59 859.97 525.22 1019.74 503.34 937.56 637.63 925.71 698.00 1068.19 677.11
00010417 00000047 780.09 221.06 425.64 594.03 864.11 516.41 1020.12 487.56 942.64 620.85 934.00 688.15 1070.32 661.66
00010418 00000048 785.22 186.20 424.53 630.45 864.56 507.88 1025.25 470.52 944.87 610.03 941.00 679.81 1086.64 647.93
00010419 00000049 788.76 185.03 427.14 615.73 868.04 505.70 1031.62 463.86 951.24 599.34 943.17 670.97 1091.34 634.82
00010420 00000050 789.78 191.85 428.19 601.11 874.81 499.54 1035.48 455.24 958.40 586.14 949.60 661.75 1093.25 623.47
00010421 00000051 787.61 193.86 422.01 589.28 879.70 497.66 1034.47 451.22 963.08 581.41 951.01 657.77 1088.05 616.97
00010422 00000052 783.54 193.66 426.32 581.60 877.59 494.25 1034.37 448.82 961.28 578.73 946.76 648.44 1088.07 608.52
00010423 00000053 772.70 192.42 432.44 580.41 871.86 491.16 1029.04 446.05 956.87 575.12 942.93 645.25 1084.86 605.74
00010424 00000054 762.59 188.87 433.32 587.82 858.29 495.00 1012.03 449.89 941.49 577.46 935.84 652.26 1074.51 612.24
00010425 00000055 752.73 209.78 433.45 573.14 848.06 510.82 995.44 460.50 929.46 581.81 925.48 657.30 1060.35 613.49
00010426 00000056 737.65 220.51 441.67 579.03 835.47 523.30 973.70 469.64 912.52 610.17 929.47 676.57 1059.15 630.02
00010427 00000057 731.96 231.50 436.57 576.49 825.09 534.51 957.37 481.75 896.84 616.20 926.46 687.97 1043.73 642.52
00010428 00000058 731.67 252.58 426.20 560.61 818.17 541.65 955.23 496.27 885.81 623.46 911.96 691.59 1031.37 652.02
00010429 00000059 728.77 255.79 418.37 561.29 808.21 551.50 948.23 506.98 873.89 637.13 900.84 700.99 1021.77 661.61
00010430 00000060 721.70 262.68 417.50 557.40 800.88 557.54 935.62 512.61 867.66 645.22 896.28 708.95 1009.07 668.19
00010431 00000061 723.49 270.52 408.11 554.87 796.66 552.69 927.68 515.45 858.19 649.07 887.91 708.81 1000.85 674.13
00010432 00000062 725.63 271.44 402.27 550.90 796.01 552.30 926.21 518.18 854.78 649.77 884.12 709.58 994.16 677.74
00010433 00000063 726.45 263.30 404.01 556.76 794.81 541.72 922.13 512.57 848.98 645.27 883.67 705.88 989.76 678.04
00010434 00000064 728.27 259.95 401.55 557.27 796.08 537.03 919.01 510.80 847.12 638.82 882.25 702.48 983.86 677.40
00010435 00000065 731.66 250.52 400.18 564.02 796.81 532.89 918.60 508.59 845.03 634.52 881.86 699.75 982.23 676.45
00010436 00000066 728.25 233.89 409.48 580.27 795.51 529.15 922.24 506.06 849.44 628.35 878.83 694.23 984.27 671.59
00010437 00000067 731.09 236.37 407.02 575.75 799.74 526.68 921.68 504.30 850.08 624.33 886.36 690.82 985.88 668.65
00010438 00000068 732.82 229.55 406.86 583.33 803.25 522.58 923.13 496.86 846.31 616.18 885.43 683.55 984.56 660.98
00010439 00000069 736.51 232.66 402.46 575.84 805.63 521.69 923.49 494.92 847.95 613.44 888.50 680.67 987.25 657.11
00010440 00000070 737.22 231.69 401.62 575.08 805.30 520.89 922.48 493.33 847.89 611.30 888.80 678.51 988.37 654.10
00010441 00000071 736.30 229.80 401.93 575.66 803.33 519.08 920.76 492.38 845.26 609.90 887.32 677.07 987.80 653.21
00010442 00000072 734.77 229.84 401.97 574.85 799.84 517.56 919.02 491.78 841.45 610.85 884.11 675.62 987.50 652.26
00010443 00000073 732.26 228.76 404.43 576.49 797.54 515.67 916.33 491.22 838.45 612.00 882.25 673.97 986.80 651.49
00010444 00000074 737.58 242.96 395.57 556.88 793.96 518.07 914.98 491.64 836.87 620.25 878.11 684.57 984.63 658.68
00010445 00000075 735.22 245.36 399.75 554.05 791.51 516.02 913.72 490.68 833.93 619.62 873.92 681.99 982.40 657.03
00010446 00000076 728.05 231.97 407.93 571.82 790.57 513.49 914.62 489.71 831.63 612.79 870.65 670.52 982.28 648.35
00010447 00000077 728.39 228.80 409.61 572.89 790.93 511.99 913.72 489.26 831.55 612.32 873.69 670.62 981.86 649.36
00010448 00000078 727.46 228.09 411.31 574.05 790.51 511.68 913.61 488.36 831.28 612.16 874.22 673.10 979.85 651.68
00010449 00000079 728.62 225.01 413.97 583.33 794.13 513.06 914.03 487.41 834.27 610.95 880.85 678.30 982.21 655.26
00010450 00000080 730.07 225.37 411.19 592.61 800.56 514.76 917.88 485.78 841.85 611.42 889.96 680.63 992.14 654.56
00010451 00000081 737.28 231.96 396.31 579.36 798.71 513.15 916.24 480.82 841.12 618.67 889.08 687.55 994.39 656.66
00010452 00000082 731.56 215.65 406.46 608.61 800.96 513.34 920.57 482.13 844.31 616.13 895.93 681.33 1005.76 652.95
00010453 00000083 735.31 222.87 396.84 591.15 795.85 508.57 915.27 476.19 837.71 618.03 887.21 684.26 998.84 653.00
00010454 00000084 735.40 206.78 402.15 620.90 799.19 503.89 922.52 474.31 840.05 611.87 890.09 676.83 1008.32 649.61
00010455 00000085 736.71 208.76 402.32 616.77 798.22 498.05 923.01 468.12 836.52 608.25 888.22 674.96 1008.09 647.43
00010456 00000086 738.07 205.61 400.38 615.66 799.21 496.97 924.92 465.94 838.76 604.43 889.06 671.48 1009.47 642.99
00010457 00000087 739.56 202.43 400.24 615.79 800.95 493.80 925.78 462.79 840.62 600.22 889.27 667.50 1010.31 638.92
00010458 00000088 740.71 203.08 396.71 608.66 801.95 494.01 925.09 461.68 841.55 596.58 890.89 664.56 1009.10 634.79
00010459 00000089 741.50 206.00 395.66 593.33 800.78 493.66 925.54 462.96 842.38 593.80 888.10 658.16 1005.99 629.32
00010460 00000090 743.42 205.88 396.05 583.11 798.55 489.62 929.25 464.89 841.14 593.71 879.45 648.46 1004.68 624.09
00010461 00000091 746.23 204.53 393.82 577.73 800.13 488.21 930.28 462.23 843.79 588.35 879.10 642.66 1006.18 616.90
00010462 00000092 749.31 200.66 394.25 579.71 801.25 484.83 934.78 458.24 845.47 582.86 878.70 641.96 1008.14 615.68
00010463 00000093 750.52 194.79 395.38 584.35 803.81 481.94 936.17 454.16 846.84 578.66 882.02 642.84 1008.50 616.03
00010464 00000094 752.11 194.62 395.90 583.33 804.91 481.40 938.87 454.22 849.22 578.07 880.08 642.57 1008.04 616.57
00010465 00000095 750.18 194.41 399.80 585.75 806.82 488.12 938.73 458.52 851.43 576.83 879.03 646.13 1003.53 618.47
00010466 00000096 743.48 199.92 407.74 585.36 805.97 493.54 939.14 465.65 851.98 579.53 878.51 647.29 1003.76 620.77
00010467 00000097 741.87 199.66 409.62 596.55 807.24 496.17 937.75 465.37 856.68 585.89 883.80 654.79 1006.76 626.46
00010468 00000098 744.35 203.37 407.92 606.07 809.12 496.08 942.83 466.96 859.02 595.81 890.60 665.13 1014.75 639.03
00010469 00000099 740.56 211.45 415.49 603.65 807.54 499.23 942.97 472.97 859.07 604.04 892.75 673.17 1013.51 649.91
00010470 00000100 742.57 210.71 412.22 608.31 806.63 497.37 941.79 474.45 854.28 605.61 888.73 674.47 1008.79 653.99
00010471 00000101 749.35 205.67 410.66 605.71 808.42 484.84 945.79 464.33 853.02 597.36 884.33 664.54 1009.86 645.77
00010472 00000102 751.48 191.91 419.77 586.02 812.22 474.71 949.59 445.37 865.09 584.23 881.21 648.01 1005.83 622.05
00010473 00000103 761.87 181.89 419.81 585.00 818.31 460.39 958.57 431.06 867.35 569.14 885.21 636.56 1010.53 610.81
00010474 00000104 769.86 185.06 417.53 589.15 829.84 448.30 971.44 428.06 870.88 559.14 892.09 633.06 1025.09 613.37
00010475 00000105 774.50 188.91 415.24 591.24 835.80 456.61 981.83 437.63 883.90 568.67 896.29 637.82 1034.66 619.21
00010476 00000106 778.14 198.27 416.71 596.22 842.34 476.72 988.62 450.50 899.32 583.28 909.94 653.33 1048.45 628.85
00010477 00000107 776.65 223.43 425.54 599.22 848.60 495.82 1001.16 460.66 919.31 620.65 927.36 679.13 1080.45 646.09
00010478 00000108 773.46 253.67 430.82 596.49 850.28 517.57 1003.44 484.02 918.87 645.90 931.05 701.79 1081.40 670.68
00010479 00000109 765.24 255.16 437.14 611.45 850.32 542.82 1000.29 506.71 923.31 665.56 935.70 720.97 1078.94 686.86
00010480 00000110 762.46 251.28 434.72 608.36 838.62 532.13 990.87 510.58 907.00 657.85 924.38 727.03 1049.95 706.98
00010481 00000111 758.01 251.37 434.48 592.79 832.47 517.34 976.82 500.49 888.76 646.02 913.09 713.37 1031.54 697.24
00010482 00000112 752.26 228.83 439.62 595.58 828.91 497.07 976.61 475.00 887.94 617.21 906.77 698.47 1027.32 677.66
00010483 00000113 757.95 200.85 436.47 608.87 823.72 477.45 979.97 457.91 878.85 596.67 897.44 674.46 1027.43 656.83
00010484 00000114 760.94 192.02 432.58 603.27 827.27 464.09 978.68 445.26 878.61 575.70 892.00 658.77 1021.15 641.71
00010485 00000115 762.36 192.33 431.99 603.02 830.60 465.57 983.27 446.61 885.30 576.86 894.44 657.64 1026.50 640.31
00010486 00000116 763.40 203.18 433.37 608.41 831.94 479.20 986.74 457.82 892.23 596.19 905.24 669.44 1040.87 649.35
00010487 00000117 762.92 217.90 433.24 604.73 839.65 497.49 988.86 468.00 907.38 613.29 920.85 690.84 1053.78 662.48
00010488 00000118 764.51 231.17 433.77 601.39 845.90 504.98 986.50 475.09 909.39 620.29 931.18 699.40 1051.81 671.18
00010489 00000119 762.42 222.72 436.38 605.75 844.42 499.33 986.84 470.86 908.35 612.88 928.14 698.19 1046.45 671.61
00010490 00000120 764.72 198.90 434.85 611.17 835.40 479.97 991.14 460.33 898.46 600.48 914.44 680.59 1037.66 661.92
00010491 00000121 772.08 186.73 430.42 604.45 837.71 457.27 985.95 441.28 889.07 573.19 906.06 657.34 1027.28 642.10
00010492 DELETE   774.79 178.59 433.94 599.31 841.56 447.48 987.57 432.16 889.58 560.75 907.96 642.71 1029.95 627.21
00010493 00000123 782.65 176.08 434.62 602.23 848.30 454.76 995.65 429.67 901.21 563.33 912.22 640.31 1040.59 616.29
00010494 00000124 785.66 178.82 431.41 609.95 852.33 458.80 999.02 432.80 906.90 565.31 916.62 644.34 1046.97 619.75
00010495 00000125 790.24 181.25 422.99 628.11 856.01 464.57 1005.02 434.66 912.52 580.53 926.13 654.99 1065.14 627.63
00010496 00000126 788.12 196.21 418.59 614.06 853.52 475.52 1001.34 442.57 914.40 591.38 927.11 659.86 1075.45 628.11
00010497 00000127 795.55 187.93 415.81 614.02 856.01 464.03 1010.07 436.46 913.04 578.86 920.93 649.84 1070.62 623.69
00010498 00000128 798.40 176.92 429.37 596.64 863.42 443.36 1012.40 415.80 920.39 557.53 933.57 625.83 1075.02 600.39
00010499 00000129 805.74 150.34 429.89 607.37 866.67 425.21 1019.00 399.21 923.16 528.96 931.92 608.02 1073.59 584.32
00010500 00000130 811.35 136.46 428.12 609.07 874.48 417.40 1028.17 384.99 927.29 521.52 931.82 602.04 1075.72 573.26
00010501 00000131 814.63 137.07 425.39 605.28 876.60 418.17 1032.05 389.22 930.19 522.29 928.97 601.38 1072.69 576.04
00010502 00000132 815.98 146.07 421.83 600.93 875.78 420.20 1032.56 402.16 932.62 527.77 921.76 604.62 1070.18 588.19
00010503 00000133 818.82 150.97 421.85 606.39 876.40 427.23 1030.39 404.63 932.42 531.54 931.25 614.55 1071.51 594.59
00010504 00000134 817.98 155.22 427.98 614.66 877.30 426.37 1028.80 401.60 929.63 531.70 939.79 620.85 1074.40 598.76
00010505 00000135 814.07 150.27 430.47 615.34 873.58 425.89 1026.41 401.21 928.65 530.00 937.25 618.20 1072.56 596.22
00010506 00000136 809.24 148.78 430.96 613.54 870.20 427.11 1023.46 400.93 928.19 529.33 936.03 616.47 1069.80 593.07
00010507 00000137 804.41 152.50 430.43 608.55 865.60 429.21 1019.32 404.26 925.18 532.76 932.75 616.75 1066.33 594.20
00010508 00000138 799.61 151.21 430.09 608.17 860.03 434.36 1014.51 410.83 919.15 537.39 925.54 618.21 1060.28 596.56
00010509 00000139 795.49 162.72 428.14 598.25 859.43 455.42 1008.40 425.51 917.27 542.39 922.20 623.43 1056.16 596.09
00010510 00000140 785.80 169.12 427.76 599.12 850.96 463.68 998.85 430.19 905.75 550.79 912.14 630.91 1048.95 599.89
00010511 00000141 777.65 187.27 418.23 585.35 842.43 464.13 976.44 435.40 885.86 554.42 906.98 634.75 1031.95 608.08
00010512 00000142 769.21 185.33 415.95 592.90 826.16 469.67 955.92 434.40 865.72 556.65 899.71 642.52 1020.26 611.09
00010513 00000143 762.55 183.43 410.26 601.06 814.00 485.32 935.82 446.91 848.86 567.45 888.08 646.94 1004.29 612.35
00010514 00000144 753.34 187.71 410.50 600.26 798.89 482.42 920.99 445.20 825.06 566.13 869.11 648.28 988.38 614.42
00010515 00000145 742.42 182.14 414.08 600.26 789.13 474.89 913.38 438.84 813.31 558.62 855.56 645.36 972.60 612.91
00010516 00000146 735.44 184.57 412.38 592.45 784.62 473.10 904.83 435.46 807.21 554.82 850.86 643.30 964.31 609.06
00010517 00000147 735.50 183.95 411.95 589.07 783.74 469.91 903.68 433.90 805.09 550.96 847.03 639.82 959.91 606.88
00010518 00000148 736.03 179.17 411.07 592.80 782.95 468.73 902.24 431.59 802.72 550.04 847.32 638.36 959.81 604.43
00010519 00000149 736.67 180.28 407.54 591.10 784.40 464.56 903.42 429.35 803.02 546.37 847.24 634.91 959.07 602.48
CROP_BBOX: 476 0 1499 1012
