Video ID: 	7rnvsx9RPQU
H: 	1080
W: 	1920
FPS: 	25.0

FRAME INDEX X0 Y0 W H [Landmarks (5 Points)]

00000635 00000000 673.64 178.22 387.49 523.14 891.54 387.80 1027.96 439.99 989.08 485.45 864.52 559.12 967.97 601.35
00000636 DELETE   664.87 177.67 391.30 520.03 886.14 376.79 1021.75 432.48 984.46 475.10 859.09 550.68 964.74 595.52
00000637 00000002 669.89 168.31 386.30 522.42 874.75 364.04 1026.65 414.51 985.10 471.44 852.44 553.28 972.44 594.94
00000638 00000003 661.81 163.33 387.31 522.58 862.95 363.74 1019.29 410.81 976.78 461.77 848.98 550.22 971.51 588.28
00000639 00000004 646.34 156.71 393.18 527.21 851.71 360.59 1007.14 405.72 968.55 452.96 844.46 546.77 964.94 582.21
00000640 00000005 640.22 154.50 392.42 526.16 841.71 354.14 997.04 398.16 956.62 447.78 838.80 540.98 957.08 575.20
00000641 DELETE   632.42 157.54 391.47 520.92 833.65 353.84 985.41 397.24 946.15 444.20 834.44 537.03 949.87 570.48
00000642 00000007 624.74 160.88 389.24 516.47 823.82 354.61 973.91 397.52 936.48 437.57 827.53 534.46 943.67 567.62
00000643 00000008 616.73 158.31 390.52 519.98 811.99 354.46 962.68 395.52 925.00 433.66 817.07 531.62 936.29 563.74
00000644 00000009 607.49 157.15 392.37 521.09 802.86 353.61 955.12 395.49 917.08 430.72 808.49 527.44 928.46 560.61
00000645 00000010 599.67 143.71 390.89 533.35 790.30 352.45 957.08 393.69 912.15 436.06 791.67 530.06 923.56 563.93
00000646 00000011 588.39 147.36 397.04 535.41 780.41 349.31 948.59 389.43 902.80 434.60 782.70 530.64 918.80 563.82
00000647 00000012 586.66 156.68 391.20 526.84 775.54 353.79 939.52 397.96 894.92 431.62 774.14 538.98 905.37 573.80
00000648 00000013 580.97 154.72 390.84 529.94 765.21 354.84 930.57 398.84 884.61 431.95 765.31 539.07 897.85 573.37
00000649 00000014 574.17 156.05 394.52 529.16 755.53 356.81 922.27 400.40 872.86 431.83 756.97 538.90 890.31 572.51
00000650 00000015 569.33 159.16 396.08 528.90 751.68 357.20 917.30 401.54 867.21 430.46 753.63 538.60 886.02 572.40
00000651 00000016 566.93 159.07 396.12 529.49 748.83 358.29 913.89 401.79 864.44 429.86 752.41 539.05 884.33 572.11
00000652 00000017 567.20 156.40 395.79 530.68 749.04 355.00 913.69 399.93 866.18 425.90 753.01 536.95 884.51 571.37
00000653 00000018 572.27 154.40 394.36 530.89 751.29 353.02 918.29 396.60 869.95 424.70 755.89 537.39 888.39 570.78
00000654 00000019 575.78 155.44 394.61 529.31 756.93 351.19 923.41 396.87 873.83 425.49 758.85 536.72 890.13 571.87
00000655 00000020 583.41 161.99 391.65 523.35 767.81 351.90 931.67 398.75 884.25 426.82 767.02 537.62 895.97 574.32
00000656 00000021 582.22 171.26 399.58 516.52 779.37 357.36 929.45 399.91 884.48 435.42 776.06 529.38 895.41 563.68
00000657 00000022 590.18 172.07 397.65 516.11 786.40 361.56 934.44 405.24 890.64 437.10 782.58 529.73 900.90 564.76
00000658 00000023 599.47 172.00 392.60 518.12 796.24 363.55 944.30 410.06 902.96 438.90 794.03 532.85 910.66 570.06
00000659 00000024 601.19 168.75 396.59 526.50 806.42 364.54 954.21 414.66 917.62 438.51 806.02 534.33 923.30 574.28
00000660 DELETE   611.24 175.08 389.72 521.27 815.41 368.18 962.32 417.25 926.08 439.32 814.27 536.57 932.08 574.98
00000661 00000026 617.89 178.37 389.61 515.22 826.32 371.08 971.10 419.32 938.67 440.79 826.91 539.22 942.30 576.56
00000662 00000027 625.49 178.78 388.43 518.14 835.02 375.39 977.47 422.24 948.58 447.61 834.41 544.59 948.35 581.36
00000663 00000028 630.88 180.07 389.88 518.13 844.31 377.67 986.84 431.58 958.58 452.56 840.78 547.21 953.42 589.79
00000664 00000029 636.64 182.25 387.68 517.54 851.41 381.52 995.00 432.81 968.03 459.93 844.64 552.59 957.73 593.16
00000665 DELETE   641.89 183.75 387.07 521.60 856.21 385.04 999.25 435.36 971.94 465.51 845.63 557.47 958.57 597.87
00000666 DELETE   642.67 188.29 382.45 520.25 854.14 384.29 995.33 442.88 969.52 468.12 846.03 555.35 957.23 602.93
00000667 00000032 642.76 193.09 387.46 518.50 856.69 387.71 998.82 444.79 971.73 471.91 846.78 557.16 960.49 603.45
00000668 00000033 651.95 187.13 384.68 530.92 861.84 391.81 1005.93 444.32 975.56 478.40 841.97 565.81 958.39 609.25
00000669 00000034 651.87 186.57 386.72 534.32 861.39 392.36 1008.38 445.94 975.34 479.40 840.26 567.74 958.52 611.77
00000670 00000035 648.14 184.74 389.96 538.53 859.17 391.02 1005.20 445.38 971.58 481.16 838.62 568.91 954.45 613.43
00000671 00000036 642.67 185.07 394.65 538.48 851.23 391.75 998.91 442.52 960.65 483.61 832.50 570.55 947.82 611.86
00000672 00000037 640.08 185.87 396.69 543.35 847.06 392.00 994.96 442.39 952.95 488.84 826.54 573.75 942.47 614.98
00000673 00000038 636.03 186.83 398.35 544.56 844.13 392.55 991.61 442.70 948.64 491.97 822.28 575.03 937.44 616.08
00000674 00000039 632.95 186.74 399.92 544.81 841.67 392.78 988.85 444.56 946.71 490.60 820.26 574.31 934.67 616.53
00000675 00000040 633.07 186.24 399.93 545.84 841.15 392.22 986.40 446.30 942.64 491.36 817.93 573.79 930.53 618.02
00000676 00000041 633.40 186.17 399.07 546.48 840.04 394.07 982.96 448.37 938.93 493.50 816.69 575.74 926.90 620.30
00000677 00000042 634.75 188.33 400.56 545.55 836.19 401.04 984.72 454.71 937.11 496.14 814.77 579.20 929.35 623.11
00000678 DELETE   633.61 192.75 410.00 545.16 838.43 404.25 986.94 461.14 935.73 502.11 808.22 581.37 921.18 628.00
00000679 00000044 632.26 188.54 416.55 552.30 837.27 404.97 987.78 458.69 933.68 506.21 807.74 586.38 921.57 630.51
00000680 00000045 634.00 189.05 414.47 554.84 836.86 404.81 989.14 457.87 933.01 511.41 806.83 592.17 921.57 636.21
00000681 00000046 634.16 193.02 415.70 551.82 835.99 404.65 988.24 459.54 931.37 512.24 804.79 592.59 920.23 638.03
00000682 00000047 635.24 189.81 415.86 550.25 835.90 403.15 988.90 456.79 930.86 509.14 806.38 590.93 920.81 635.14
00000683 00000048 636.83 187.94 410.93 550.50 836.81 401.98 987.34 452.69 931.48 509.23 813.99 588.78 926.49 630.48
00000684 00000049 638.86 186.23 410.82 549.13 838.28 399.72 988.19 450.07 932.23 506.29 815.18 585.52 927.46 627.01
00000685 00000050 639.42 184.46 415.66 544.94 840.17 396.20 990.28 446.99 932.48 499.34 811.77 577.93 924.21 619.84
00000686 00000051 641.86 181.95 414.88 545.55 842.33 393.43 992.08 444.55 936.02 495.41 815.13 573.91 929.39 616.04
00000687 00000052 646.82 182.08 412.15 545.36 844.92 394.13 995.90 443.88 938.95 494.25 818.09 574.00 934.58 615.16
00000688 00000053 652.05 187.03 407.77 539.31 851.23 396.11 1001.19 446.93 945.62 497.27 823.85 572.80 940.33 614.94
00000689 00000054 654.55 190.23 407.91 538.68 860.26 396.33 1010.66 449.96 955.90 499.90 832.55 575.34 948.69 619.57
00000690 00000055 658.29 190.01 404.49 542.05 869.40 396.95 1015.15 452.81 965.08 502.10 842.23 578.82 951.57 624.66
00000691 00000056 660.55 190.02 404.53 546.66 872.17 398.01 1016.76 450.42 967.61 505.12 844.32 583.09 952.10 626.22
00000692 00000057 661.76 192.55 404.44 549.29 875.78 399.39 1018.87 451.82 970.34 509.14 845.60 584.29 952.95 627.42
00000693 00000058 663.31 191.53 405.26 551.70 877.11 400.63 1018.98 453.59 972.13 511.80 848.53 585.54 954.33 629.18
00000694 00000059 664.62 194.80 405.30 550.84 877.82 401.43 1021.73 454.55 974.28 513.80 849.78 587.66 956.07 631.48
00000695 00000060 666.11 193.75 405.00 552.56 879.28 401.23 1023.16 454.33 976.08 513.74 851.87 589.16 958.30 632.96
00000696 00000061 666.28 196.90 406.04 551.84 878.75 401.57 1025.23 454.34 976.75 514.54 850.82 590.55 959.56 634.03
00000697 00000062 666.45 202.32 406.34 546.16 879.46 404.41 1025.90 457.57 976.16 517.54 850.16 591.34 959.48 635.01
00000698 00000063 666.25 202.17 407.95 539.24 879.82 407.65 1027.42 458.40 978.21 517.65 853.55 589.39 962.55 630.86
00000699 00000064 667.67 196.66 406.07 541.17 872.24 412.61 1026.04 466.84 974.90 512.68 852.05 586.53 966.99 630.86
00000700 DELETE   669.14 200.26 408.10 534.22 872.26 415.77 1028.28 471.68 972.77 513.82 847.56 581.87 965.11 627.65
00000701 DELETE   666.00 195.20 409.52 541.31 873.32 412.55 1025.58 468.17 973.51 512.13 849.06 584.03 963.75 629.48
00000702 00000067 666.60 192.71 406.73 546.79 874.47 408.00 1022.79 464.78 972.19 511.76 848.87 584.26 961.06 630.84
00000703 00000068 664.42 193.73 408.09 550.30 875.77 404.88 1022.58 462.17 971.35 515.18 845.94 586.14 956.71 633.33
00000704 00000069 664.13 194.83 408.29 549.67 875.92 403.64 1022.40 460.41 970.99 515.52 845.08 586.39 955.06 633.27
00000705 00000070 663.30 192.32 408.48 550.78 871.85 406.20 1020.66 463.22 968.62 513.86 845.01 586.15 957.32 633.14
00000706 00000071 661.20 192.40 410.88 547.20 868.43 409.61 1020.88 465.31 967.44 513.45 843.17 584.73 957.70 630.52
00000707 00000072 661.88 191.85 410.08 548.33 868.24 408.94 1021.13 465.27 967.95 512.25 842.60 583.95 958.76 630.26
00000708 00000073 661.26 191.82 411.14 546.95 863.86 409.75 1020.63 465.26 964.29 512.39 839.54 583.36 959.35 629.06
00000709 00000074 660.60 191.70 409.30 549.73 862.09 407.92 1020.48 465.16 961.22 514.67 835.60 584.65 957.21 631.93
00000710 00000075 658.89 191.10 410.13 550.29 859.79 405.41 1019.12 461.78 957.91 515.57 832.41 585.82 954.15 632.47
00000711 00000076 654.98 189.62 412.14 551.11 858.87 401.05 1015.52 457.56 955.46 514.39 829.15 586.49 949.08 633.50
00000712 00000077 652.00 193.13 410.64 549.72 854.03 398.80 1006.61 454.44 945.45 511.86 822.15 587.79 938.50 634.12
00000713 00000078 650.32 188.89 408.98 547.86 849.47 394.94 1000.50 447.29 940.20 505.92 818.44 584.51 933.38 628.10
00000714 00000079 647.03 186.31 409.89 550.11 847.66 393.34 994.59 448.34 936.22 501.18 814.62 578.93 928.44 624.65
00000715 00000080 645.52 183.69 411.70 551.01 845.69 394.34 995.78 449.72 935.15 497.49 814.11 575.53 931.02 621.43
00000716 00000081 643.10 176.06 410.63 555.61 844.75 392.05 993.52 447.14 937.25 490.83 818.07 572.20 931.88 617.62
00000717 00000082 643.87 178.32 408.84 553.04 844.24 391.46 994.55 446.58 937.41 489.44 820.02 570.86 933.85 616.13
00000718 00000083 650.82 177.59 398.51 554.14 847.43 388.35 994.09 439.76 943.84 483.74 824.52 570.37 940.73 613.05
00000719 00000084 654.37 176.69 396.04 554.43 849.63 388.16 993.88 439.00 944.86 484.47 827.29 570.38 941.69 612.72
00000720 00000085 653.88 177.99 397.10 554.95 850.64 388.84 995.49 441.81 947.35 485.53 827.19 569.89 944.41 613.95
00000721 00000086 647.66 180.53 404.22 543.51 847.61 393.53 997.50 446.81 944.92 485.07 821.42 560.85 941.92 604.82
00000722 00000087 648.35 179.81 401.73 540.81 848.28 393.03 999.25 446.56 948.00 483.85 824.63 560.34 946.01 604.56
00000723 00000088 647.68 179.11 400.34 540.36 846.86 391.39 998.64 443.40 948.59 483.85 827.48 563.57 946.81 606.43
00000724 00000089 650.03 178.91 397.15 542.83 848.42 386.77 998.26 438.75 948.81 483.46 825.80 564.74 945.45 607.50
00000725 00000090 647.81 181.72 399.66 538.01 845.21 384.41 995.32 436.01 944.25 479.48 822.80 562.75 942.25 604.79
00000726 00000091 645.29 178.17 401.48 542.35 841.72 384.55 990.78 435.21 939.63 476.31 820.91 562.09 938.86 603.12
00000727 00000092 643.77 175.61 402.58 545.50 841.32 385.05 989.36 434.17 939.61 475.68 821.97 563.24 937.97 603.00
00000728 00000093 644.07 174.70 402.96 547.89 842.22 384.44 990.25 434.09 941.37 473.93 822.50 563.13 938.68 603.42
00000729 00000094 645.09 176.86 402.94 548.51 844.43 383.26 993.51 436.23 944.17 473.86 821.83 562.22 940.79 605.20
00000730 00000095 646.59 178.63 402.44 547.61 847.46 381.18 997.44 436.24 947.32 474.11 822.53 561.42 942.68 605.99
00000731 00000096 646.88 178.94 402.19 546.25 848.19 380.33 999.20 435.59 949.49 474.07 823.58 561.32 944.17 605.98
00000732 00000097 648.18 179.46 401.84 543.30 848.97 379.57 1001.97 433.82 951.52 473.57 824.31 561.82 945.33 605.69
00000733 00000098 647.92 180.58 403.15 541.88 850.13 378.39 1004.45 434.75 954.10 474.33 823.82 561.22 946.19 606.83
00000734 00000099 648.13 176.26 402.64 547.68 850.27 380.39 1003.38 436.23 953.66 475.71 824.03 561.80 946.20 607.27
00000735 00000100 643.19 178.83 409.21 543.62 847.08 384.49 998.94 438.80 947.50 482.43 824.89 562.73 939.57 607.14
00000736 00000101 648.29 176.95 406.70 547.63 849.59 394.18 999.37 450.86 945.24 487.04 821.80 563.53 938.72 610.14
00000737 00000102 647.32 187.71 411.23 538.18 853.13 398.05 1004.96 457.95 949.12 490.39 820.70 562.19 941.21 611.02
00000738 00000103 648.65 189.94 413.21 537.27 853.87 400.53 1007.54 459.42 951.58 493.26 822.05 565.80 945.61 614.04
00000739 00000104 650.29 194.15 411.50 533.99 856.94 402.09 1010.38 461.13 957.48 496.54 826.85 570.40 950.27 618.96
00000740 00000105 651.34 195.22 407.08 529.85 856.60 401.67 1009.26 458.05 957.69 497.97 829.12 571.53 949.97 617.93
00000741 00000106 652.35 192.63 407.11 529.56 857.67 400.25 1011.05 455.65 959.58 496.41 831.77 570.33 952.22 615.94
00000742 00000107 652.99 193.63 407.10 527.28 858.38 400.05 1011.36 454.53 958.28 496.79 832.70 569.55 951.48 614.34
00000743 00000108 652.82 194.92 408.84 528.11 859.01 400.63 1013.71 455.57 959.69 497.89 833.47 570.96 953.69 616.10
00000744 00000109 652.53 194.70 408.38 529.36 858.79 399.29 1013.12 454.32 960.04 497.77 833.75 571.62 953.87 616.89
00000745 00000110 652.05 193.62 407.77 530.41 859.29 398.76 1012.83 453.38 961.32 498.52 834.64 571.99 954.31 617.05
00000746 00000111 652.40 193.35 406.32 531.70 859.81 399.61 1012.77 453.95 961.49 499.99 834.85 572.42 954.02 617.30
00000747 00000112 654.28 191.24 406.16 533.10 860.90 399.71 1013.50 454.28 961.69 500.20 835.36 572.78 953.42 617.77
00000748 00000113 655.00 191.34 406.34 534.90 862.79 401.49 1017.11 457.13 965.66 502.78 836.88 574.25 956.35 620.20
00000749 00000114 658.89 189.77 406.77 536.33 863.53 406.44 1021.02 463.50 967.49 502.03 838.54 574.18 961.55 621.05
00000750 00000115 658.58 192.46 409.74 531.90 865.41 408.05 1025.61 467.64 969.46 503.74 839.24 572.73 964.05 621.50
00000751 00000116 658.26 189.77 410.26 534.94 864.17 406.96 1024.49 464.66 969.29 502.47 840.64 574.23 964.08 621.39
00000752 00000117 660.51 188.67 405.04 538.51 866.52 405.44 1024.05 462.94 972.24 502.06 842.82 575.24 965.18 622.49
00000753 00000118 660.88 187.37 403.98 541.56 868.69 403.97 1023.01 460.75 972.51 502.88 843.36 576.46 962.84 623.25
00000754 00000119 661.30 185.98 402.98 543.00 870.94 401.80 1021.88 456.74 973.68 503.27 844.95 577.92 960.42 623.30
00000755 00000120 659.11 186.14 403.39 545.14 871.98 398.41 1019.14 451.86 972.70 504.03 845.39 579.90 956.51 624.14
00000756 00000121 657.32 186.92 403.99 545.60 872.45 397.79 1017.78 451.75 971.52 503.67 845.32 579.29 954.26 623.78
00000757 00000122 655.71 189.46 404.67 542.49 870.63 396.67 1015.68 453.16 969.00 502.38 842.74 578.50 951.41 624.90
00000758 00000123 655.04 188.31 404.37 544.42 868.75 394.39 1013.44 452.38 965.43 500.67 840.84 577.48 949.14 625.07
00000759 00000124 654.88 188.71 402.57 544.66 865.26 393.36 1010.88 451.52 960.57 499.45 836.69 576.32 946.78 624.07
00000760 00000125 652.51 190.12 404.16 545.84 864.43 391.24 1007.48 449.57 956.41 497.60 833.77 576.06 942.05 623.81
00000761 00000126 653.63 192.77 402.77 543.56 861.82 390.30 1006.48 446.45 952.53 497.41 830.75 576.73 940.02 622.73
00000762 00000127 652.74 192.75 403.75 541.79 860.53 389.80 1005.93 446.20 951.43 496.76 829.95 575.31 940.04 621.47
00000763 00000128 653.30 195.51 402.70 538.81 860.93 392.37 1006.54 448.16 952.10 498.68 829.66 575.27 941.45 621.07
00000764 00000129 652.66 198.92 403.57 537.02 859.46 394.40 1007.69 449.37 953.07 500.64 828.76 575.38 944.82 620.66
00000765 00000130 651.89 198.61 404.83 536.03 859.23 394.90 1008.77 451.36 954.81 501.11 828.42 574.06 946.12 620.67
00000766 00000131 652.51 200.52 404.59 535.06 859.26 397.22 1010.44 453.09 956.33 504.90 827.88 576.09 947.55 622.51
00000767 00000132 653.36 200.38 403.46 535.91 860.99 397.49 1009.29 453.16 955.06 506.62 827.58 576.99 944.24 623.23
00000768 00000133 653.88 197.80 402.41 537.63 860.77 396.71 1009.26 452.73 954.97 506.00 827.23 576.33 943.82 622.94
00000769 00000134 653.51 197.84 402.67 537.31 860.28 396.37 1008.20 451.76 953.50 506.03 826.40 576.62 942.39 622.72
00000770 00000135 653.56 196.49 402.71 540.76 861.75 393.71 1005.95 450.75 952.35 502.55 826.68 576.23 938.76 623.48
00000771 00000136 653.58 197.35 403.69 541.96 861.43 390.34 1007.00 449.31 948.87 500.12 824.02 576.20 936.38 624.67
00000772 00000137 654.13 193.13 403.54 544.68 860.78 389.15 1004.88 446.76 946.74 498.15 824.57 576.04 933.65 623.32
00000773 00000138 660.97 191.56 399.34 547.06 859.79 382.90 1007.56 444.26 953.32 493.00 828.31 573.50 944.26 624.34
00000774 00000139 656.20 185.83 405.33 547.54 858.53 390.17 1004.69 449.55 944.48 492.05 822.62 569.73 933.78 618.45
00000775 00000140 654.77 184.90 407.25 546.20 854.88 393.32 1006.13 454.48 945.22 488.96 820.19 565.48 937.21 615.57
00000776 00000141 652.97 183.32 407.28 544.34 851.52 390.98 1004.19 451.74 943.63 484.29 818.05 562.34 936.03 612.03
00000777 00000142 649.13 175.11 408.85 553.19 849.27 385.91 997.67 445.10 940.19 480.17 818.18 562.42 931.02 611.08
00000778 00000143 648.89 173.81 407.48 555.34 849.49 383.56 996.25 439.69 940.00 478.40 819.14 561.47 930.57 607.86
00000779 00000144 648.79 178.56 406.69 550.70 849.43 378.69 996.59 434.72 940.80 476.00 817.41 559.68 930.57 606.12
00000780 00000145 648.48 174.83 406.03 552.82 850.11 373.53 995.32 428.78 940.78 475.29 819.99 558.17 929.79 604.14
00000781 00000146 647.67 176.65 406.78 548.07 850.90 370.70 994.58 424.69 940.91 471.42 821.50 554.10 931.98 598.86
00000782 00000147 647.06 176.56 408.22 546.59 850.78 368.90 994.36 422.03 940.20 470.21 821.61 552.59 931.75 596.59
00000783 00000148 646.33 179.43 407.88 541.47 850.73 367.46 994.72 420.53 940.86 470.70 822.24 552.16 931.50 595.99
00000784 00000149 646.28 180.47 407.18 539.64 852.54 366.90 994.95 420.98 941.25 470.56 822.60 550.58 930.42 595.23
00000785 00000150 646.41 180.65 407.14 539.16 853.17 366.56 995.70 420.80 942.11 471.69 823.03 550.87 930.49 595.63
00000786 00000151 646.63 180.82 406.62 538.61 853.74 365.63 995.48 419.40 942.55 472.28 823.32 550.71 929.34 595.19
00000787 00000152 647.10 181.23 406.00 538.07 853.82 366.10 995.00 419.17 942.11 472.63 823.51 551.19 928.53 595.11
00000788 00000153 647.23 181.59 406.91 536.47 854.12 366.06 995.69 418.46 942.14 474.31 823.34 551.74 928.11 595.13
00000789 00000154 646.78 181.05 407.78 535.95 854.67 366.37 995.62 419.17 942.42 474.62 823.36 550.70 926.90 594.38
00000790 00000155 646.42 180.89 408.86 536.35 855.11 366.86 995.86 419.33 942.84 475.83 823.63 552.00 926.71 595.49
00000791 00000156 647.13 179.75 408.06 536.12 855.99 367.65 995.83 420.22 943.05 477.32 824.95 552.89 925.33 596.45
00000792 00000157 647.17 177.02 409.63 538.95 854.40 370.01 997.97 424.98 943.18 476.54 824.31 552.43 927.29 597.69
00000793 00000158 647.69 178.36 408.56 536.90 855.33 372.15 998.61 428.22 944.39 478.00 825.00 553.22 928.59 599.30
00000794 00000159 647.57 180.76 409.13 535.31 856.46 374.40 999.08 430.81 945.61 479.40 825.34 553.69 930.79 599.99
00000795 00000160 647.43 181.20 410.22 534.51 855.38 376.23 999.35 433.66 945.22 480.64 824.60 555.41 930.98 602.43
00000796 00000161 648.08 184.26 408.73 531.62 856.30 377.55 1000.56 437.16 947.07 481.40 825.41 555.79 933.17 604.41
00000797 00000162 649.62 184.54 408.94 531.42 857.37 380.11 1001.94 438.31 947.69 482.90 826.46 557.30 934.38 604.79
00000798 00000163 651.72 182.51 409.04 534.14 859.74 382.81 1005.15 441.56 950.16 484.66 827.53 558.37 937.60 606.47
00000799 00000164 653.13 184.43 408.73 533.02 860.73 383.68 1006.41 442.36 951.62 487.05 827.44 559.85 938.16 607.90
CROP_BBOX: 398 0 1245 869
