Video ID: 	-EM7NcP4grs
H: 	1080
W: 	1920
FPS: 	25.0

FRAME INDEX X0 Y0 W H [Landmarks (5 Points)]

00004730 00000000 831.95 212.17 407.76 584.91 880.33 446.54 1030.16 446.55 909.30 562.80 907.16 657.75 1018.61 658.02
00004731 00000001 831.20 222.26 408.31 579.28 880.24 453.80 1031.56 452.58 911.60 573.56 910.31 666.92 1023.80 666.19
00004732 00000002 831.80 213.07 409.36 596.46 884.08 461.02 1032.81 457.16 913.64 579.04 920.32 670.10 1035.63 667.23
00004733 00000003 834.35 215.56 413.67 596.96 887.31 455.60 1038.39 447.85 916.00 569.26 926.16 659.97 1054.12 653.36
00004734 00000004 842.70 209.26 407.67 591.41 890.15 447.69 1042.30 432.36 914.70 552.00 928.02 646.18 1064.81 633.16
00004735 00000005 843.91 195.13 408.69 592.63 889.64 435.10 1044.72 419.63 913.59 538.03 923.91 633.66 1065.40 620.95
00004736 DELETE   844.60 194.59 406.47 588.42 890.44 430.59 1046.83 417.39 913.40 533.09 918.36 628.32 1062.05 617.73
00004737 00000007 847.28 195.98 404.05 584.93 893.27 427.86 1048.91 418.59 914.27 532.52 918.21 626.07 1059.63 618.85
00004738 00000008 849.80 203.46 406.26 576.51 896.74 427.90 1051.05 419.99 916.99 531.77 921.65 626.71 1059.14 620.65
00004739 00000009 853.05 207.16 407.19 573.05 901.07 428.47 1054.79 421.03 921.77 532.01 928.29 628.87 1061.67 623.03
00004740 00000010 856.72 207.58 408.46 571.61 905.04 428.81 1058.90 420.62 927.15 531.57 934.32 631.15 1064.74 624.27
00004741 00000011 858.82 205.03 408.03 570.82 905.55 425.65 1061.48 416.38 927.65 526.73 933.27 630.74 1064.08 623.04
00004742 00000012 860.27 192.68 409.52 580.88 906.64 423.07 1062.18 411.85 925.46 519.22 933.63 627.16 1066.11 617.81
00004743 00000013 860.11 191.70 409.34 580.89 906.69 420.16 1063.33 409.07 927.04 514.57 931.76 623.31 1066.36 614.18
00004744 00000014 860.58 189.80 409.02 585.30 908.11 420.13 1063.55 408.64 927.23 513.84 933.66 623.18 1068.87 613.61
00004745 00000015 861.61 193.61 410.07 584.81 910.36 423.66 1065.07 410.13 929.03 514.64 937.83 625.94 1072.43 614.35
00004746 00000016 862.79 203.71 408.58 580.40 912.13 429.54 1064.18 413.33 931.79 519.43 944.04 630.19 1076.02 615.82
00004747 DELETE   864.00 201.24 408.08 586.11 912.61 437.42 1065.07 416.13 935.33 521.48 949.84 635.70 1081.52 616.74
00004748 DELETE   865.17 197.29 406.22 589.64 913.18 438.37 1065.71 417.39 936.63 522.46 949.89 634.92 1082.63 616.13
00004749 00000019 867.66 197.57 404.91 585.77 915.01 435.49 1067.35 418.96 936.14 522.82 946.84 632.69 1079.56 617.67
00004750 00000020 867.47 200.06 405.45 578.30 915.50 431.69 1069.06 419.12 935.45 520.84 942.01 631.52 1069.58 620.55
00004751 00000021 866.77 196.11 403.84 576.76 912.30 428.03 1068.37 419.50 933.74 519.91 934.08 627.90 1061.41 620.96
00004752 00000022 866.42 193.78 401.89 576.58 911.43 425.69 1067.45 420.05 932.98 518.63 930.52 625.19 1054.29 620.94
00004753 00000023 867.59 195.89 402.06 573.33 912.31 424.00 1067.66 419.72 932.66 517.03 930.13 621.90 1053.01 618.82
00004754 00000024 870.07 203.04 399.69 558.75 912.33 423.10 1069.61 413.90 936.44 515.89 934.47 618.17 1062.24 611.03
00004755 00000025 871.40 201.70 398.87 556.81 912.78 422.23 1070.41 411.75 936.31 515.03 935.06 616.98 1062.90 608.87
00004756 00000026 873.27 200.26 397.69 555.04 914.99 420.39 1072.39 410.57 938.02 513.23 936.10 614.05 1064.26 606.64
00004757 00000027 875.23 199.15 398.90 555.33 916.67 419.16 1074.95 408.78 940.13 511.14 936.93 612.42 1065.79 604.89
00004758 00000028 877.01 197.85 400.15 556.08 917.57 417.33 1076.42 406.18 940.73 509.29 937.62 612.52 1066.24 604.54
00004759 00000029 875.05 198.14 405.75 562.05 930.23 417.62 1079.16 407.07 946.43 501.12 946.10 616.83 1058.26 608.54
00004760 00000030 875.60 196.01 407.69 567.41 931.38 416.26 1082.54 405.20 950.41 500.47 948.17 618.57 1061.23 609.95
00004761 00000031 877.19 195.68 407.77 571.09 932.86 415.19 1085.11 404.06 951.47 500.56 948.65 617.61 1067.27 608.80
00004762 00000032 878.56 190.30 408.39 575.17 934.56 414.19 1087.76 402.48 953.38 498.98 950.56 615.38 1072.19 606.05
00004763 00000033 882.35 189.56 405.26 573.16 937.75 410.46 1090.31 399.82 954.38 493.58 951.30 609.78 1072.95 601.28
00004764 00000034 885.62 180.59 405.99 581.37 940.56 406.57 1095.46 397.81 958.34 489.09 953.41 606.76 1075.83 599.97
00004765 00000035 888.82 184.65 403.70 571.13 943.49 401.75 1096.90 394.85 961.03 483.26 955.28 602.44 1070.87 597.30
00004766 00000036 889.85 179.37 401.33 571.88 947.04 396.21 1098.53 391.60 964.27 478.59 956.71 597.49 1065.59 594.41
00004767 00000037 889.80 179.84 403.93 567.02 946.73 396.47 1099.32 392.64 965.72 480.22 956.47 596.57 1064.10 594.24
00004768 00000038 889.47 172.98 406.43 568.94 945.80 397.79 1100.93 394.39 966.71 485.93 955.47 594.98 1069.58 593.06
00004769 00000039 888.77 173.59 406.59 570.40 945.75 399.42 1103.59 396.41 968.01 487.36 956.78 596.28 1075.83 594.45
00004770 00000040 888.50 179.91 408.49 573.40 945.30 402.04 1104.85 399.51 968.29 495.39 957.09 602.35 1084.43 600.71
00004771 00000041 886.45 192.98 412.42 569.82 942.58 407.76 1103.89 407.55 966.65 508.02 955.72 608.86 1091.74 608.72
00004772 00000042 890.71 206.69 402.85 569.23 937.47 422.56 1104.09 416.55 969.03 525.50 951.60 614.81 1105.06 610.11
00004773 00000043 884.52 204.22 407.44 586.23 942.03 423.40 1102.81 428.97 972.10 534.84 957.82 632.80 1093.78 636.28
00004774 00000044 880.43 206.83 408.19 602.49 941.99 432.84 1100.31 439.36 970.72 549.69 960.11 652.15 1083.76 656.99
00004775 00000045 876.83 208.74 414.33 601.47 937.57 435.31 1098.93 441.65 972.50 553.88 960.92 656.94 1076.41 662.19
00004776 00000046 878.44 212.24 411.46 589.05 939.39 432.72 1101.11 440.75 974.53 550.10 958.41 648.89 1075.44 655.45
00004777 00000047 878.62 213.03 413.54 573.43 939.16 427.54 1103.48 436.93 976.07 543.28 955.35 636.43 1078.67 644.09
00004778 00000048 882.13 205.60 412.61 570.30 940.14 420.66 1104.46 431.37 974.43 536.44 954.28 624.78 1079.66 633.98
00004779 00000049 885.36 204.58 411.46 564.58 942.58 414.37 1104.75 423.70 973.47 525.88 954.51 617.45 1079.54 625.54
00004780 00000050 889.23 191.71 412.34 572.84 945.46 410.24 1107.25 417.01 970.80 516.25 952.98 613.97 1076.83 620.48
00004781 00000051 892.90 190.09 408.47 570.52 948.09 403.53 1107.73 410.75 966.52 503.99 950.85 607.96 1072.63 614.75
00004782 00000052 892.78 177.35 409.72 578.65 950.34 398.01 1109.42 404.11 966.16 493.71 951.53 601.40 1073.23 607.40
00004783 00000053 891.26 165.54 412.19 584.61 948.21 393.09 1109.01 400.63 962.36 487.70 948.39 592.74 1073.16 599.76
00004784 00000054 891.51 165.13 411.63 580.41 947.13 393.86 1107.90 400.33 962.36 488.93 947.83 592.45 1072.21 598.70
00004785 00000055 891.18 162.96 410.11 578.91 943.94 394.19 1104.80 401.72 959.39 493.62 945.54 593.75 1069.13 600.76
00004786 00000056 890.69 163.55 409.22 584.21 942.65 395.26 1098.74 403.39 951.87 495.80 944.80 597.75 1063.70 605.36
00004787 00000057 888.53 176.30 407.22 575.51 938.97 398.17 1093.46 405.45 949.74 499.64 943.62 604.23 1060.34 610.98
00004788 00000058 883.66 180.80 407.03 583.36 937.99 402.90 1087.22 409.50 949.68 499.62 943.62 615.40 1045.48 621.28
00004789 00000059 879.70 192.38 407.53 579.19 933.73 408.50 1081.12 415.94 945.29 508.74 940.78 624.24 1039.65 630.71
00004790 00000060 874.96 184.14 411.33 598.54 930.48 414.39 1080.12 419.79 946.38 515.32 941.34 634.32 1040.41 639.28
00004791 00000061 875.28 186.98 411.00 600.25 928.64 417.59 1076.78 425.58 943.31 523.46 939.73 640.24 1037.21 647.05
00004792 00000062 875.36 188.15 409.29 597.73 928.59 420.34 1076.69 428.31 943.29 528.37 940.65 641.48 1038.23 648.08
00004793 00000063 875.64 191.25 410.04 591.50 928.62 419.89 1076.63 427.99 943.67 528.67 941.19 640.03 1038.53 646.67
00004794 00000064 876.72 187.92 408.73 589.66 930.58 417.85 1079.44 425.01 947.59 524.86 943.27 636.25 1041.86 642.24
00004795 00000065 875.51 186.15 414.15 586.30 930.94 416.13 1083.56 419.43 950.18 518.54 946.50 629.88 1051.44 632.85
00004796 00000066 878.01 183.11 413.76 587.28 932.65 411.31 1084.82 412.49 949.05 510.82 947.21 623.16 1056.98 624.51
00004797 00000067 880.22 185.02 411.97 583.37 934.46 407.96 1086.07 406.64 950.36 503.40 947.89 617.85 1063.33 617.10
00004798 00000068 881.68 174.77 412.65 590.54 935.06 405.14 1089.92 401.87 952.54 500.55 948.76 614.87 1070.48 612.52
00004799 00000069 884.60 167.75 413.31 595.99 936.69 403.53 1092.88 399.16 951.81 498.00 950.20 611.45 1077.41 608.14
00004800 00000070 886.05 165.78 414.87 591.79 936.37 403.29 1096.02 397.45 954.48 497.01 950.71 609.90 1081.31 605.52
00004801 00000071 887.55 157.27 414.71 595.69 936.87 400.89 1098.75 394.85 956.00 495.05 952.07 605.80 1086.90 601.17
00004802 00000072 887.68 155.73 415.70 595.63 937.10 398.91 1101.01 390.60 957.55 490.94 952.98 604.53 1088.43 598.07
00004803 00000073 890.06 156.69 415.14 594.04 939.92 397.14 1105.35 387.27 961.60 485.85 955.57 602.20 1092.92 594.62
00004804 00000074 892.54 156.26 416.59 593.70 945.11 394.43 1107.94 386.25 963.76 481.90 959.24 597.94 1094.13 592.02
00004805 00000075 895.65 158.33 414.74 593.58 950.61 389.98 1111.44 385.04 967.30 476.56 961.52 591.80 1097.64 588.42
00004806 00000076 898.48 161.77 413.02 593.72 954.85 388.06 1114.23 383.84 970.11 473.34 965.14 590.44 1100.40 587.57
00004807 00000077 902.71 165.38 408.54 589.29 957.44 384.43 1120.49 373.63 981.29 483.05 968.26 592.61 1108.96 583.13
00004808 00000078 904.14 161.72 408.79 594.21 959.99 382.37 1122.00 373.81 982.88 482.78 969.65 591.26 1110.09 583.61
00004809 00000079 906.01 162.88 408.29 590.82 961.13 382.23 1122.52 374.06 983.46 483.00 969.72 588.85 1111.04 581.46
00004810 00000080 903.95 157.95 412.10 590.13 958.72 383.59 1120.38 382.41 977.02 469.78 966.21 583.01 1103.01 582.87
00004811 00000081 903.90 162.27 414.79 574.28 958.86 385.39 1120.30 383.99 978.47 470.51 964.11 576.46 1102.24 576.28
00004812 00000082 905.44 159.95 415.14 576.08 959.80 385.25 1120.99 387.75 979.02 474.01 964.32 573.94 1103.01 576.75
00004813 00000083 909.52 157.93 411.01 585.44 960.70 386.87 1123.06 389.53 980.23 475.21 965.19 581.89 1096.49 585.07
00004814 00000084 913.26 156.28 407.91 585.63 962.39 387.93 1123.25 390.52 982.28 478.13 964.89 585.42 1090.77 588.93
00004815 00000085 915.46 160.95 407.60 576.10 964.53 388.40 1122.78 391.56 983.66 479.04 964.43 584.66 1086.71 588.94
00004816 00000086 919.35 153.78 405.53 585.43 966.59 388.06 1123.88 393.27 983.14 479.73 964.15 585.54 1084.22 591.66
00004817 00000087 922.38 154.21 403.23 590.03 967.95 389.74 1124.21 396.17 982.52 481.57 964.94 590.79 1078.94 597.90
00004818 00000088 925.72 153.40 401.40 595.87 968.95 392.52 1123.01 399.21 983.01 485.10 965.88 597.71 1074.44 605.35
00004819 00000089 924.87 159.67 402.46 591.61 968.11 394.62 1123.20 402.06 982.66 490.72 966.01 602.07 1074.62 610.31
00004820 00000090 923.43 159.11 403.67 595.92 966.11 396.31 1123.27 405.80 981.41 497.02 964.85 604.35 1078.10 614.03
00004821 00000091 923.49 173.94 404.28 584.14 967.50 399.93 1123.82 413.33 981.88 505.29 965.13 605.68 1082.03 618.39
00004822 00000092 924.54 167.75 403.58 597.00 966.80 401.41 1126.82 417.00 983.47 514.13 966.03 610.32 1091.32 625.04
00004823 00000093 923.66 174.14 406.97 600.30 968.03 401.49 1129.62 416.15 983.60 514.52 968.44 612.48 1100.33 626.33
00004824 00000094 926.16 175.83 405.63 602.24 970.40 399.29 1130.34 412.91 983.34 512.36 973.26 611.80 1107.27 624.50
00004825 00000095 928.94 175.53 404.87 598.45 974.63 396.44 1131.54 407.43 986.21 507.42 979.65 606.14 1117.28 615.99
00004826 00000096 932.88 161.63 402.75 603.81 981.56 392.23 1135.76 403.42 993.41 498.62 987.49 598.44 1123.96 608.16
00004827 00000097 934.55 149.94 406.03 609.74 983.86 389.41 1141.52 397.60 998.55 490.02 989.56 594.66 1127.25 601.97
00004828 00000098 939.96 148.48 406.07 606.77 987.22 388.50 1146.51 392.04 1004.49 484.59 995.40 592.59 1132.08 595.91
00004829 00000099 942.63 145.46 410.76 602.98 991.01 386.32 1153.89 389.54 1011.08 483.48 998.76 589.69 1138.38 592.40
00004830 00000100 945.96 156.03 414.63 592.38 998.88 381.28 1163.45 386.72 1017.72 481.05 1001.64 587.61 1150.27 591.37
00004831 00000101 948.78 159.92 415.07 589.29 1000.54 383.44 1165.74 385.31 1019.36 482.00 1005.37 589.01 1157.31 589.64
00004832 00000102 953.36 149.81 412.66 605.86 1003.39 386.37 1167.62 388.57 1023.23 485.82 1011.25 593.60 1153.07 594.50
00004833 00000103 955.42 152.78 411.95 606.68 1006.20 388.15 1171.50 389.76 1027.49 489.31 1013.90 597.06 1158.06 597.17
00004834 00000104 956.54 152.45 412.95 611.20 1007.40 390.60 1173.41 392.71 1028.95 492.86 1014.92 600.83 1160.12 601.20
00004835 00000105 956.03 157.87 415.01 610.70 1008.16 393.76 1174.88 397.01 1029.90 497.13 1014.64 602.95 1162.79 604.19
00004836 00000106 955.76 163.62 416.75 607.32 1007.36 398.30 1172.09 400.92 1027.30 502.68 1015.83 606.57 1162.75 607.32
00004837 00000107 955.41 166.62 415.97 603.73 1007.15 399.11 1171.44 402.21 1027.02 503.32 1015.72 606.43 1162.29 607.50
00004838 00000108 956.31 167.73 415.49 597.31 1006.50 398.81 1170.11 403.78 1026.19 502.91 1013.55 604.80 1154.28 607.82
00004839 00000109 957.41 161.96 414.04 594.81 1005.90 398.49 1169.18 403.44 1026.50 500.10 1012.42 600.69 1148.44 604.14
00004840 00000110 955.88 165.84 413.88 585.99 1009.37 397.59 1168.47 402.29 1021.83 498.70 1013.57 598.95 1142.47 603.53
00004841 00000111 956.57 159.97 412.48 589.50 1009.77 394.91 1167.69 400.50 1020.71 495.46 1013.06 597.94 1139.20 603.25
00004842 00000112 956.28 153.75 411.90 593.85 1009.34 392.95 1168.20 399.20 1020.22 495.21 1012.70 597.73 1138.01 603.64
00004843 00000113 955.91 149.65 408.65 597.98 1009.14 390.69 1166.51 398.85 1016.75 492.06 1010.11 596.12 1129.48 603.58
00004844 00000114 955.93 150.00 404.74 596.72 1007.93 388.29 1163.69 398.65 1013.77 489.38 1006.29 597.02 1115.27 606.74
00004845 00000115 949.32 143.93 404.26 601.83 1000.22 389.12 1161.96 391.41 1015.20 476.41 997.03 605.61 1105.43 608.35
00004846 00000116 951.99 150.46 398.16 607.58 1003.75 387.63 1154.31 392.70 1007.01 478.31 1003.05 605.44 1098.90 611.13
00004847 00000117 949.57 142.18 399.50 611.81 998.83 388.98 1153.32 391.07 1003.86 484.28 1000.40 603.66 1108.14 606.85
00004848 00000118 944.88 145.92 407.11 619.16 994.12 393.77 1150.63 386.26 1006.66 488.50 1009.08 612.97 1121.98 607.74
00004849 00000119 947.34 140.10 409.87 646.96 998.15 393.44 1148.62 389.24 1010.13 489.38 1016.26 610.25 1142.99 606.43
00004850 00000120 944.65 152.61 416.02 643.75 996.93 399.21 1146.35 391.46 1005.88 496.61 1022.90 616.48 1159.51 608.86
00004851 00000121 942.88 148.99 416.02 642.83 996.02 401.57 1146.58 395.03 1007.39 501.57 1022.19 614.59 1161.84 607.61
00004852 00000122 942.84 157.18 413.06 626.06 994.24 405.79 1145.58 400.38 1007.10 505.28 1018.05 612.99 1155.98 607.02
00004853 00000123 942.81 165.37 412.17 607.95 991.59 406.40 1147.12 404.02 1006.89 508.79 1010.14 610.03 1151.20 607.19
00004854 00000124 942.16 168.62 413.87 597.62 990.39 405.72 1145.50 405.74 1005.02 509.52 1008.61 605.38 1149.27 604.38
00004855 00000125 942.05 168.13 414.64 591.67 989.34 405.65 1145.43 405.65 1005.14 509.46 1009.06 604.45 1149.43 603.33
00004856 00000126 944.28 171.37 413.33 592.11 990.12 407.89 1147.20 408.49 1006.82 511.20 1008.48 607.62 1142.58 607.48
00004857 00000127 940.88 178.66 416.66 590.56 994.66 412.35 1149.09 413.56 1013.58 517.05 1012.72 619.81 1129.99 620.75
00004858 00000128 941.01 178.76 415.31 600.35 994.96 418.98 1149.24 420.81 1018.48 525.84 1016.45 634.71 1121.38 636.26
00004859 00000129 940.73 190.82 413.17 605.09 993.60 429.45 1143.37 429.10 1016.14 538.07 1019.96 652.73 1121.11 651.94
00004860 00000130 937.00 189.03 413.73 614.55 987.70 439.63 1141.98 438.10 1012.62 548.47 1016.29 665.03 1119.91 663.15
00004861 00000131 934.98 189.16 415.30 620.12 984.02 446.68 1143.59 444.07 1012.37 557.52 1014.01 672.24 1124.73 669.66
00004862 00000132 933.08 193.55 415.13 612.56 983.96 447.92 1144.94 444.38 1016.26 561.35 1015.21 668.47 1132.43 664.79
00004863 00000133 933.97 187.14 415.68 608.76 987.92 445.48 1141.47 441.13 1018.37 554.55 1018.74 652.79 1140.80 647.73
00004864 DELETE   936.48 187.11 415.07 601.11 986.40 441.91 1142.80 434.20 1017.05 548.99 1019.33 642.29 1151.09 634.14
00004865 00000135 937.44 168.73 413.24 626.17 984.80 430.79 1138.34 423.85 1007.91 539.24 1021.83 635.89 1156.31 628.63
00004866 00000136 936.72 173.95 413.89 632.64 988.16 424.37 1138.81 417.75 1003.47 534.03 1025.34 637.74 1161.60 630.17
00004867 00000137 930.94 175.37 420.69 638.43 981.37 427.11 1133.11 419.00 994.29 538.74 1021.13 645.78 1158.64 637.03
00004868 00000138 927.17 186.43 420.26 636.38 977.85 438.05 1125.96 430.38 987.33 549.45 1015.12 652.38 1151.66 643.90
00004869 00000139 921.50 201.71 415.05 631.34 973.24 449.43 1128.09 441.81 994.03 562.82 1006.85 664.36 1155.66 655.00
00004870 00000140 918.80 201.29 418.68 628.12 971.76 450.87 1129.32 446.19 995.65 566.78 1002.88 665.60 1150.44 658.93
00004871 00000141 923.29 195.78 419.93 617.09 973.99 445.87 1125.37 441.76 989.27 560.30 1005.84 651.32 1144.41 646.51
00004872 00000142 927.45 193.90 419.17 603.54 976.85 432.01 1128.30 432.38 991.46 546.77 1007.36 637.98 1140.06 637.38
00004873 00000143 934.27 176.33 418.65 609.75 983.94 418.63 1138.59 420.07 1000.51 531.47 1010.82 626.97 1145.31 627.23
00004874 00000144 941.06 165.87 419.22 616.35 991.66 414.80 1148.17 409.60 1008.16 517.23 1015.64 621.99 1150.07 616.73
00004875 00000145 947.39 163.89 419.17 612.23 999.01 410.51 1154.15 404.62 1016.12 508.95 1020.45 617.24 1152.42 611.17
00004876 00000146 951.77 153.20 421.19 619.97 1003.72 407.12 1160.31 396.76 1022.20 498.43 1023.77 616.51 1150.97 606.99
00004877 00000147 957.47 154.50 413.46 611.78 1004.88 399.61 1155.53 389.03 1019.16 491.32 1025.85 609.92 1144.13 601.62
00004878 00000148 956.57 152.83 411.82 602.77 1001.39 396.20 1154.10 384.92 1012.72 485.46 1018.16 604.46 1136.15 596.10
00004879 00000149 953.89 155.88 410.06 594.22 997.99 392.35 1149.68 381.04 1007.12 478.54 1011.35 596.57 1129.52 588.02
00004880 00000150 950.70 155.91 409.99 591.87 995.45 389.99 1146.44 379.39 1002.57 476.20 1006.49 591.70 1125.45 583.73
00004881 00000151 948.04 157.03 410.30 588.56 992.55 388.86 1144.92 380.10 1000.69 478.00 1002.83 590.77 1122.26 584.47
00004882 00000152 944.81 161.06 409.57 583.49 989.62 390.17 1142.48 381.09 999.60 480.25 1000.81 592.16 1119.87 585.61
00004883 00000153 944.38 158.37 410.05 596.17 983.86 397.78 1132.29 383.12 996.82 478.68 998.35 597.52 1117.08 586.35
00004884 00000154 940.43 157.47 407.55 599.79 981.82 400.56 1131.00 385.55 996.81 479.83 996.74 601.83 1114.71 590.74
00004885 00000155 940.40 161.66 405.80 605.33 981.62 400.04 1131.99 389.59 996.98 485.67 996.29 607.12 1118.11 599.90
00004886 00000156 940.91 159.42 404.47 613.15 983.14 399.20 1134.80 395.90 997.74 490.92 995.45 609.16 1119.19 607.72
00004887 00000157 942.75 162.65 403.65 611.39 987.96 398.73 1138.77 398.39 1000.66 494.77 999.23 609.52 1125.67 610.25
00004888 00000158 943.84 164.33 404.51 609.07 990.93 398.82 1141.87 400.35 1002.94 495.77 1001.43 608.78 1127.80 610.85
00004889 00000159 945.40 163.79 403.59 609.23 992.93 398.17 1146.14 400.34 1006.73 496.40 1003.49 608.44 1129.69 611.05
00004890 00000160 946.98 160.77 403.45 609.70 996.13 395.17 1150.83 398.98 1010.90 492.94 1004.96 604.66 1132.37 608.45
00004891 00000161 949.32 151.69 403.11 613.25 999.13 393.15 1155.79 395.35 1016.60 488.41 1007.40 600.66 1133.54 603.01
00004892 00000162 948.03 155.69 405.17 601.60 1001.63 384.64 1160.78 385.36 1020.14 482.98 1005.11 596.20 1145.64 596.91
00004893 00000163 950.37 159.23 404.87 591.13 1002.86 378.62 1162.62 381.98 1021.76 478.23 1004.07 587.91 1144.23 591.02
00004894 00000164 951.11 156.13 404.40 588.11 1002.54 375.15 1163.09 379.67 1022.54 473.73 1002.52 584.19 1139.80 588.81
00004895 00000165 949.71 158.63 404.64 583.13 1002.88 371.16 1163.00 377.44 1022.90 469.76 1000.92 579.94 1135.81 586.22
00004896 00000166 948.94 157.86 403.93 585.26 1002.62 369.03 1162.49 375.81 1021.61 466.12 1000.00 579.40 1132.89 586.40
