Video ID: 	p9k-AmZHcNU
H: 	1080
W: 	1920
FPS: 	25.0

FRAME INDEX X0 Y0 W H [Landmarks (5 Points)]

00001450 00000000 443.02 259.74 496.93 674.62 634.86 542.37 861.91 518.02 799.28 665.94 656.61 765.77 855.69 746.31
00001451 DELETE   443.60 266.10 497.93 674.81 635.86 545.44 863.72 522.44 799.13 674.47 658.04 772.58 856.16 754.24
00001452 00000002 450.16 273.94 497.82 675.27 641.76 559.20 869.45 532.52 806.43 690.12 663.08 784.65 860.14 763.49
00001453 00000003 446.21 282.07 504.31 676.40 643.77 559.52 871.42 537.66 810.68 699.29 669.55 796.55 865.08 779.55
00001454 DELETE   453.09 281.25 502.66 673.65 654.90 558.10 877.04 532.84 823.12 694.78 681.02 793.36 872.03 773.50
00001455 00000005 464.78 270.91 492.96 670.83 656.95 544.57 884.53 514.39 830.05 677.47 689.66 778.29 878.99 754.84
00001456 00000006 461.34 256.12 491.31 667.54 657.84 531.52 882.75 500.01 836.20 656.44 696.61 765.23 884.57 740.34
00001457 00000007 454.93 237.74 491.21 678.11 656.25 521.00 879.08 489.16 838.10 638.39 696.97 754.47 886.23 728.58
00001458 00000008 456.78 230.57 486.24 674.26 651.60 512.76 872.80 478.24 831.85 629.20 696.17 745.66 885.20 717.52
00001459 00000009 455.98 228.32 483.43 676.24 651.63 510.51 869.49 474.79 831.88 627.66 697.04 745.71 882.49 716.65
00001460 00000010 452.43 236.05 483.94 673.32 650.38 516.49 869.97 481.65 832.60 635.43 695.93 752.47 879.10 724.08
00001461 00000011 455.61 247.48 480.51 666.80 652.65 524.35 871.27 490.10 834.89 645.35 700.53 761.78 878.38 734.21
00001462 00000012 457.34 256.44 477.73 660.03 654.12 530.53 872.05 494.63 837.26 652.59 704.18 767.11 880.03 738.44
00001463 00000013 457.18 257.96 476.37 657.33 653.45 529.92 870.73 493.51 836.39 651.42 705.16 766.53 879.84 737.31
00001464 00000014 452.69 249.04 477.88 660.48 648.65 523.69 864.59 485.93 832.78 643.13 704.02 762.14 876.65 731.66
00001465 00000015 446.17 243.22 481.80 662.42 644.02 515.76 860.90 478.11 828.62 633.62 701.91 754.76 876.95 723.64
00001466 00000016 440.29 242.07 488.99 658.56 637.37 502.67 860.81 460.60 820.61 624.17 698.99 757.50 873.82 720.72
00001467 00000017 438.71 242.41 488.79 656.59 635.34 498.99 859.26 457.04 818.47 623.12 696.93 753.70 873.14 716.89
00001468 00000018 436.36 243.70 490.93 657.73 634.57 500.37 858.39 457.98 818.28 624.49 694.49 755.22 870.96 718.31
00001469 00000019 435.65 244.53 491.32 663.20 634.88 507.03 857.22 462.42 819.62 627.79 692.57 758.35 871.23 719.88
00001470 00000020 436.14 247.35 490.91 663.82 635.41 511.35 860.63 468.90 821.46 635.56 692.31 763.64 872.29 726.90
00001471 00000021 437.59 249.62 489.66 662.70 636.67 512.41 862.53 471.56 822.95 637.10 692.48 765.60 872.24 730.21
00001472 00000022 437.33 248.63 490.11 662.65 635.95 509.70 861.65 468.97 821.38 633.99 691.77 762.44 871.48 727.12
00001473 00000023 434.87 241.85 491.94 665.57 633.58 504.33 858.77 464.40 817.49 628.45 690.02 757.74 869.18 722.72
00001474 00000024 433.94 239.36 492.61 666.37 631.52 497.08 857.12 460.40 812.73 624.58 688.84 753.73 866.61 720.96
00001475 00000025 432.87 234.53 494.23 669.05 631.11 493.34 856.02 459.04 809.33 623.22 686.32 750.82 863.98 719.94
00001476 00000026 432.70 234.46 494.97 668.74 631.20 492.50 856.85 458.80 809.77 623.19 685.63 750.30 864.01 720.02
00001477 00000027 434.71 235.24 494.56 670.36 631.67 495.16 859.53 460.41 811.75 625.45 685.92 753.23 866.30 722.26
00001478 00000028 434.02 241.09 496.13 667.90 633.85 501.33 861.50 464.12 816.60 630.49 685.06 756.08 867.59 723.67
00001479 00000029 435.53 241.77 496.03 667.54 634.82 504.70 864.24 467.04 818.89 632.97 685.19 758.08 869.66 725.51
00001480 00000030 437.27 243.70 494.53 667.81 635.81 509.12 864.69 470.69 820.27 635.94 686.87 761.44 870.57 728.38
00001481 00000031 438.60 244.70 493.63 666.94 635.57 509.50 864.82 470.89 819.89 636.29 686.98 761.38 870.88 728.18
00001482 00000032 438.28 246.63 495.43 663.12 635.97 508.74 865.49 470.90 820.25 635.06 687.32 760.34 870.95 727.78
00001483 00000033 439.65 245.14 494.68 663.40 636.44 507.08 866.40 469.05 820.83 633.23 688.31 759.52 871.08 726.76
00001484 00000034 441.58 245.05 494.27 663.19 637.15 506.53 866.79 468.51 821.08 632.33 689.70 759.19 871.68 726.39
00001485 00000035 441.58 246.07 494.94 662.90 637.46 506.81 867.81 469.76 821.18 633.02 689.42 759.88 871.49 727.98
00001486 00000036 442.18 246.24 494.23 662.22 637.54 506.54 867.70 470.46 820.38 632.63 689.36 759.76 871.22 728.56
00001487 00000037 442.73 244.30 492.89 661.63 636.29 503.61 866.21 467.59 817.99 631.98 688.63 758.12 870.18 726.90
00001488 00000038 441.94 243.99 493.58 661.46 634.66 499.59 864.82 466.20 814.75 629.99 687.21 755.95 868.56 726.63
00001489 00000039 441.63 242.10 493.14 662.98 632.98 498.40 862.92 464.58 812.05 628.02 685.72 754.67 867.29 724.95
00001490 00000040 440.07 245.24 492.16 658.40 631.73 496.79 859.86 463.70 809.28 626.86 685.34 752.92 864.55 723.59
00001491 00000041 440.13 246.95 490.15 655.03 630.23 494.11 857.71 463.32 805.47 625.13 683.95 750.10 861.52 722.40
00001492 00000042 436.87 241.64 492.49 658.77 629.61 489.90 856.09 461.43 803.99 621.21 680.90 745.26 859.04 719.44
00001493 00000043 436.73 239.25 492.82 659.25 627.82 486.16 854.89 460.61 799.80 618.36 679.56 741.85 857.66 718.15
00001494 00000044 435.58 237.82 491.94 659.98 626.78 486.86 853.48 462.42 797.70 617.62 676.85 740.30 855.98 717.54
00001495 00000045 434.31 238.89 491.00 659.08 624.84 486.11 852.06 463.12 795.54 616.72 674.28 739.30 854.07 717.67
00001496 00000046 434.53 238.80 488.78 658.49 623.38 486.67 850.94 465.43 792.57 617.05 671.80 737.89 852.98 717.68
00001497 00000047 433.25 234.57 488.17 661.49 622.22 486.01 850.14 465.64 790.85 614.79 669.85 735.88 852.80 716.24
00001498 00000048 437.35 226.98 479.01 663.02 624.95 491.26 843.60 463.33 792.69 613.22 666.80 735.57 850.95 712.96
00001499 00000049 436.89 226.58 477.97 663.50 623.34 491.96 842.05 464.29 790.93 613.08 664.32 734.98 849.73 712.56
00001500 00000050 435.19 227.05 478.97 663.76 622.30 491.58 841.42 464.53 790.00 613.85 663.35 734.58 849.06 712.65
00001501 00000051 434.65 227.01 478.57 663.75 622.20 491.72 841.12 465.51 789.52 614.34 662.54 734.14 848.58 712.89
00001502 00000052 433.41 229.12 478.50 663.17 621.66 493.14 839.28 467.08 788.50 615.62 661.77 734.73 846.93 713.65
00001503 00000053 432.57 231.08 478.43 662.31 620.18 494.09 838.69 467.52 787.64 618.20 659.75 735.48 845.98 714.21
00001504 00000054 431.37 233.56 479.26 662.00 619.13 496.64 837.45 469.19 787.23 620.00 659.46 737.24 845.45 715.32
00001505 00000055 431.03 232.84 478.93 664.48 619.06 497.73 837.13 469.53 787.00 621.71 659.81 739.60 843.72 717.13
00001506 00000056 431.15 235.69 479.04 662.79 619.24 501.25 837.02 473.33 786.15 625.28 660.40 743.03 842.42 720.91
00001507 00000057 431.58 238.26 479.41 662.77 618.54 503.56 837.19 475.51 785.63 627.34 659.13 745.02 841.78 722.94
00001508 00000058 431.20 238.34 480.18 663.70 618.81 504.98 837.05 475.38 786.29 628.71 659.59 746.30 841.68 723.03
00001509 00000059 430.68 238.86 481.34 663.90 618.69 505.71 837.19 476.15 786.58 628.97 659.22 746.41 841.85 723.27
00001510 00000060 430.83 240.82 481.39 663.27 618.35 505.78 837.56 475.71 787.29 629.40 658.72 746.71 842.17 723.30
00001511 00000061 430.21 242.12 482.75 663.32 617.84 505.98 838.15 476.04 787.36 630.47 657.37 746.45 842.71 723.18
00001512 00000062 429.40 239.09 484.70 668.38 618.47 507.34 839.64 476.71 789.39 631.99 656.51 747.99 844.05 724.12
00001513 00000063 428.28 242.25 486.51 667.00 617.32 510.16 839.85 479.08 789.76 633.00 655.93 749.63 843.96 725.59
00001514 00000064 427.86 237.95 486.43 672.89 618.23 516.77 839.63 484.49 789.68 635.72 654.46 751.67 841.97 726.96
00001515 00000065 429.12 237.60 483.29 671.68 618.76 525.36 840.29 495.44 785.63 640.08 650.81 751.53 840.02 728.72
00001516 00000066 429.09 240.33 485.52 671.06 618.93 522.61 839.13 492.23 786.73 638.40 652.22 751.34 840.68 728.17
00001517 00000067 428.79 241.85 486.27 668.37 618.67 518.51 838.64 488.10 787.70 638.09 653.67 750.76 840.90 727.50
00001518 00000068 429.16 241.26 486.76 668.40 618.17 516.48 839.22 485.98 787.60 637.80 654.15 750.61 841.88 727.25
00001519 00000069 429.40 239.99 487.49 668.70 617.95 513.62 839.79 484.00 787.11 636.72 654.40 749.44 842.75 726.63
00001520 00000070 429.71 242.20 488.32 665.85 616.86 511.04 840.50 481.92 786.84 635.83 653.41 747.82 843.30 725.30
00001521 00000071 430.07 241.75 489.48 665.80 616.63 508.19 842.36 478.28 788.02 634.54 652.96 746.42 844.61 723.29
00001522 00000072 431.64 240.95 487.44 664.83 616.59 505.83 842.09 475.99 786.99 634.26 653.61 745.15 844.87 722.00
00001523 00000073 431.84 241.11 487.56 663.40 617.65 504.84 841.73 476.36 786.35 633.27 653.17 743.34 844.35 721.32
00001524 00000074 432.24 239.14 486.83 664.51 617.28 502.50 841.80 474.24 786.08 631.43 652.87 741.73 844.72 719.69
00001525 00000075 432.49 240.66 487.47 660.73 616.14 501.11 841.56 473.15 784.59 629.42 652.81 739.71 845.22 717.93
00001526 00000076 431.67 237.62 487.79 663.43 616.43 499.00 841.26 472.01 784.61 626.97 652.62 737.97 845.40 716.78
00001527 00000077 431.27 235.28 488.71 664.15 617.01 497.29 841.96 471.47 784.20 625.66 651.59 735.65 845.84 715.34
00001528 00000078 432.13 234.30 487.51 663.17 617.61 496.53 842.76 470.43 784.80 625.51 652.30 735.17 846.46 714.57
00001529 00000079 432.18 234.29 488.31 664.20 619.26 496.56 842.97 471.06 785.53 626.04 653.08 735.36 846.61 715.31
00001530 00000080 431.81 236.94 489.09 664.11 619.13 498.20 843.20 473.08 785.71 627.63 652.70 737.38 846.02 717.67
00001531 00000081 430.96 236.96 490.15 664.44 618.86 499.01 843.87 474.89 785.55 629.66 651.45 738.90 844.41 720.09
00001532 00000082 430.10 238.53 490.20 663.49 617.55 499.66 843.30 474.05 785.96 630.12 650.23 739.45 843.92 719.55
00001533 00000083 428.33 236.98 489.92 664.36 615.96 499.27 841.52 474.10 784.66 628.03 648.63 738.07 843.00 718.41
00001534 00000084 428.10 237.36 487.64 663.66 614.32 498.39 839.17 474.29 782.17 626.79 646.25 736.49 841.27 717.81
00001535 00000085 425.97 237.53 487.81 663.29 612.25 498.18 837.74 473.79 781.29 627.28 643.84 736.27 839.30 717.52
00001536 00000086 422.22 234.35 489.97 668.71 610.93 498.36 835.76 476.10 779.24 627.99 642.96 736.77 838.40 719.36
00001537 00000087 419.78 236.43 489.94 666.21 607.30 499.58 832.68 476.41 777.35 628.56 640.69 736.82 836.41 718.76
00001538 00000088 418.81 237.15 487.21 665.24 605.11 499.95 830.09 477.08 774.67 628.48 638.26 736.56 833.44 718.74
00001539 00000089 416.88 236.99 486.57 664.44 603.01 500.80 827.55 478.74 770.99 628.92 636.90 736.46 830.40 719.18
00001540 00000090 415.35 237.48 485.79 664.66 601.87 501.06 824.91 479.16 769.11 629.52 635.94 737.30 827.53 720.17
00001541 00000091 412.64 236.90 485.78 664.22 598.64 500.73 822.94 478.59 766.58 627.22 634.04 737.91 825.06 720.46
00001542 00000092 410.46 234.62 485.95 663.32 597.72 500.09 819.39 479.08 762.65 626.83 632.34 735.25 820.65 718.80
00001543 00000093 408.02 234.40 487.60 663.29 594.72 499.43 817.00 480.13 758.16 625.29 629.63 733.82 818.96 718.47
00001544 00000094 403.11 232.59 489.03 663.74 592.64 497.92 814.18 478.70 756.85 624.27 629.06 732.43 816.98 717.08
00001545 00000095 401.29 229.10 489.85 665.69 593.33 503.00 816.18 480.10 760.38 622.48 627.40 732.90 818.80 714.89
00001546 00000096 399.02 225.41 490.11 668.32 594.71 499.55 815.03 477.45 762.34 618.71 628.83 731.52 818.42 714.00
00001547 00000097 398.46 225.12 489.56 669.77 595.21 494.56 815.14 474.41 764.60 615.14 631.06 731.43 818.83 715.28
00001548 00000098 399.27 223.09 487.57 676.24 596.44 493.28 813.54 473.55 764.92 613.38 632.10 731.81 818.95 715.78
00001549 00000099 400.40 223.66 485.85 682.18 593.89 500.75 814.79 481.89 762.04 615.17 629.07 737.96 819.16 722.66
00001550 00000100 399.09 221.82 485.00 688.30 592.78 502.04 813.24 484.32 759.34 617.08 630.46 742.66 817.05 728.17
00001551 00000101 397.03 222.72 483.62 691.54 594.93 496.68 806.88 481.80 758.19 615.84 630.57 742.44 810.31 730.27
00001552 00000102 396.69 221.62 485.09 699.74 592.39 492.98 806.71 481.35 756.76 613.58 621.39 740.86 807.51 731.43
00001553 00000103 397.39 220.57 486.93 707.96 591.12 492.21 808.46 482.88 758.03 615.18 610.60 739.02 807.26 731.70
00001554 00000104 397.22 222.42 490.29 704.55 591.01 490.10 811.27 481.90 758.26 615.88 608.06 736.76 808.51 730.48
00001555 00000105 401.22 217.96 488.60 708.40 593.29 488.48 814.19 484.06 757.69 614.19 606.22 733.58 809.60 730.23
00001556 00000106 404.72 219.34 488.39 706.27 594.81 485.12 817.51 481.59 759.21 613.59 605.42 732.39 810.53 729.95
00001557 00000107 406.13 217.53 488.93 704.53 595.02 481.78 818.96 482.10 757.87 611.81 604.31 729.25 809.83 729.72
00001558 00000108 406.87 216.42 490.50 702.08 595.17 480.05 820.29 483.15 755.82 610.57 604.49 728.19 808.63 730.85
00001559 00000109 405.00 218.33 494.84 693.76 595.18 479.57 821.67 484.54 752.51 613.11 605.68 726.27 807.36 730.37
00001560 00000110 405.51 218.75 496.46 691.44 595.69 479.59 823.29 485.20 751.47 616.16 606.14 726.87 806.52 731.48
00001561 00000111 407.48 217.21 497.17 687.83 597.66 477.81 825.23 484.09 752.55 615.07 607.59 724.61 807.86 729.74
00001562 00000112 409.14 213.29 498.10 691.74 601.68 472.85 827.34 480.31 756.55 612.10 613.97 725.05 810.70 730.82
00001563 00000113 410.99 208.61 498.28 696.00 605.82 469.12 830.44 477.38 760.51 610.50 620.52 724.81 813.59 730.81
00001564 00000114 411.95 205.80 499.21 700.20 608.22 468.55 832.88 477.06 764.30 608.65 623.27 725.62 816.37 731.63
00001565 00000115 413.53 206.67 501.21 698.75 608.42 470.11 834.43 475.29 766.50 607.19 621.23 721.09 821.99 724.68
00001566 00000116 415.68 208.87 498.96 695.12 608.42 470.19 834.64 473.18 768.46 603.94 613.87 712.80 823.19 715.53
00001567 00000117 416.48 208.87 497.59 695.12 612.02 470.05 836.51 474.56 771.94 604.45 609.34 708.04 822.96 712.70
00001568 00000118 417.90 208.98 496.51 694.21 614.21 470.86 838.43 475.01 773.90 604.82 608.01 705.04 824.93 709.73
00001569 00000119 418.21 207.12 493.70 693.63 617.91 468.32 839.01 473.10 776.49 603.54 610.23 702.11 825.07 707.52
00001570 00000120 417.23 204.92 492.68 692.90 619.01 463.14 838.32 468.90 776.89 599.93 615.13 701.78 824.33 707.51
00001571 00000121 414.39 199.73 493.31 698.42 619.53 459.62 838.41 467.64 777.75 599.00 619.29 704.80 822.85 711.82
00001572 00000122 412.59 198.37 493.84 698.24 617.68 459.24 837.78 469.26 775.89 597.40 623.23 705.69 822.95 713.63
00001573 00000123 416.85 197.82 487.80 696.03 625.24 469.40 842.01 478.69 782.87 600.70 627.08 706.93 826.09 714.81
00001574 00000124 418.70 198.70 487.78 694.26 633.55 474.99 846.78 479.84 794.47 601.79 633.90 708.72 829.57 713.95
00001575 00000125 423.39 198.24 488.45 701.43 646.36 475.10 852.30 476.24 808.68 599.06 641.64 711.71 834.35 714.53
00001576 DELETE   432.85 202.56 483.46 694.96 653.82 478.94 858.49 476.77 817.28 598.93 655.73 713.32 844.47 713.29
00001577 00000127 443.45 196.58 484.03 703.29 658.77 485.07 868.01 483.87 827.31 596.42 662.90 713.43 856.13 712.17
00001578 00000128 447.53 196.32 480.45 700.61 662.75 483.23 869.41 476.31 833.63 595.61 667.15 709.73 860.02 704.61
00001579 00000129 442.18 203.11 480.63 697.14 660.46 473.00 866.29 463.56 829.36 596.79 662.80 712.58 856.90 706.99
00001580 00000130 437.08 214.25 487.55 692.08 655.58 474.24 864.92 470.43 820.28 601.25 661.87 712.93 851.81 710.09
00001581 00000131 436.88 212.25 489.59 695.98 657.71 471.87 866.85 468.17 823.91 599.74 661.07 710.67 854.15 708.31
00001582 00000132 439.74 210.47 490.03 703.75 663.65 471.42 869.78 466.27 831.82 597.95 664.92 710.01 857.89 706.67
00001583 00000133 441.48 212.12 490.21 705.40 665.90 471.42 871.72 465.11 836.63 597.78 665.98 710.94 860.09 706.82
00001584 00000134 440.72 211.88 491.97 702.17 667.02 471.11 873.15 465.21 837.87 598.05 667.59 710.06 860.70 706.15
00001585 00000135 453.57 194.92 479.69 698.96 673.99 473.64 878.50 467.72 853.03 591.61 676.92 703.60 868.97 699.92
00001586 00000136 458.85 197.08 477.52 691.23 679.45 476.78 882.66 466.67 860.73 593.53 688.64 707.66 874.24 700.62
00001587 00000137 450.47 202.27 487.45 698.67 687.24 476.69 880.46 466.83 862.83 602.27 690.29 718.40 870.65 711.91
00001588 00000138 460.66 196.01 477.90 694.93 682.90 484.53 887.55 471.26 864.94 602.34 707.63 723.07 881.78 712.85
00001589 00000139 457.67 202.07 480.19 704.81 690.05 484.23 884.79 471.41 864.59 612.71 708.71 737.53 875.97 727.88
00001590 00000140 461.82 205.29 478.66 701.94 693.19 486.56 886.37 472.28 867.17 614.99 713.63 740.10 878.94 729.31
00001591 00000141 465.68 204.05 477.23 708.05 694.94 486.17 888.07 473.59 868.58 615.13 713.83 742.21 880.75 732.76
00001592 00000142 468.25 205.78 475.32 710.04 696.36 486.73 887.14 474.98 870.15 616.49 714.50 744.65 880.00 736.08
00001593 00000143 468.83 204.56 475.90 710.85 697.30 487.06 889.07 473.81 873.06 617.37 712.82 742.86 882.30 733.03
00001594 00000144 468.42 203.03 476.69 716.35 697.69 484.91 888.30 472.87 874.04 616.19 707.73 740.31 880.25 731.75
00001595 00000145 466.60 201.03 476.29 723.89 696.51 482.90 886.55 475.12 870.86 614.66 701.01 738.64 874.89 733.72
00001596 00000146 465.92 203.46 477.80 725.00 695.99 482.87 885.02 474.02 872.62 612.78 688.82 731.45 873.31 726.30
00001597 00000147 465.97 206.70 480.06 725.83 697.75 483.78 887.46 475.22 877.66 613.97 680.32 727.96 874.15 723.77
00001598 00000148 469.45 212.11 477.25 719.92 699.10 484.48 888.50 475.13 879.90 616.12 675.64 724.92 874.78 720.56
00001599 00000149 464.49 215.32 481.33 715.72 694.86 487.14 886.06 476.80 877.55 619.91 669.50 722.43 875.08 717.54
00001600 00000150 459.98 214.09 486.02 715.72 692.38 488.50 884.61 478.22 873.51 621.96 665.83 721.18 873.05 716.29
00001601 00000151 461.86 217.51 488.12 711.39 694.06 494.83 889.46 486.21 870.85 629.53 665.08 721.13 875.61 717.69
00001602 00000152 469.17 218.30 481.07 709.60 695.29 499.34 893.85 489.58 872.31 630.27 665.40 722.15 878.20 718.14
00001603 00000153 475.23 216.54 479.21 713.61 707.13 492.25 900.91 486.99 881.12 630.81 674.86 722.01 880.93 721.44
00001604 00000154 480.32 213.26 477.60 715.08 721.81 490.37 911.52 489.11 895.77 629.53 687.09 724.31 883.35 727.17
00001605 00000155 489.65 213.00 477.49 717.17 740.67 490.61 925.19 494.63 913.32 630.97 699.82 725.74 888.61 732.41
00001606 00000156 503.51 218.65 470.16 714.85 747.10 492.56 931.76 494.22 923.61 631.12 706.73 728.22 897.08 733.40
00001607 00000157 515.94 224.20 460.07 707.16 747.30 492.01 932.86 494.25 920.03 631.54 705.44 727.68 895.07 733.88
00001608 00000158 515.09 221.18 462.26 708.69 745.71 488.47 932.83 493.45 917.26 627.91 713.87 729.35 898.05 736.82
00001609 00000159 510.74 224.94 466.22 709.74 745.47 487.35 936.02 487.17 917.64 628.77 735.01 739.66 903.98 740.94
00001610 00000160 521.81 214.66 456.43 709.94 752.02 492.52 935.00 493.83 924.45 627.49 744.42 740.92 906.38 744.22
00001611 00000161 526.98 225.11 449.36 700.51 752.59 491.56 936.96 487.36 924.16 627.54 754.53 747.95 908.04 745.65
00001612 00000162 515.40 228.90 455.60 696.63 746.39 492.92 929.04 487.08 919.62 627.22 742.63 742.61 899.84 739.10
00001613 00000163 506.28 217.11 458.07 700.84 738.37 491.56 923.15 493.82 908.57 625.99 726.54 735.46 891.68 739.23
00001614 00000164 500.86 220.22 456.28 698.85 728.45 494.92 910.36 491.10 894.40 627.83 716.76 740.66 881.82 740.58
00001615 00000165 498.88 221.73 455.55 697.86 724.89 497.30 910.16 494.94 891.07 629.64 714.20 742.55 880.66 743.60
00001616 00000166 496.68 225.16 456.94 693.21 726.45 498.80 908.71 494.28 893.55 631.47 717.02 743.99 879.82 743.54
00001617 00000167 494.84 223.39 458.10 691.72 725.86 502.23 907.70 496.23 893.26 633.46 718.97 746.04 878.32 744.34
00001618 00000168 492.93 227.12 459.22 687.47 724.96 504.79 907.92 496.54 893.64 636.73 721.01 749.53 879.30 746.18
00001619 00000169 490.94 227.42 462.78 685.99 724.43 506.23 909.10 496.95 893.49 638.41 725.81 752.86 881.06 748.47
00001620 00000170 493.51 232.57 462.48 682.31 725.34 508.82 910.31 496.84 894.61 641.77 733.46 757.60 884.05 750.89
