Video ID: 	cPOmbhkkUZs
H: 	1080
W: 	1920
FPS: 	23.976023976023978

FRAME INDEX X0 Y0 W H [Landmarks (5 Points)]

00027760 00000000 858.74 79.74 395.54 563.46 994.29 301.51 1189.46 315.53 1118.04 393.86 1006.75 496.53 1173.28 508.50
00027761 00000001 857.02 83.54 395.68 562.00 993.71 308.63 1185.75 320.94 1119.69 403.46 1007.66 503.58 1170.55 513.44
00027762 00000002 850.19 89.14 392.59 570.59 982.47 317.87 1175.74 326.81 1106.86 410.64 998.97 513.64 1161.45 520.45
00027763 00000003 839.16 88.35 394.92 578.45 969.72 323.58 1162.08 328.14 1093.04 420.29 986.63 521.72 1150.75 525.61
00027764 DELETE   831.02 91.44 395.98 581.66 957.24 328.49 1149.04 328.10 1078.85 436.22 976.69 531.16 1141.43 530.99
00027765 DELETE   824.40 101.03 391.83 567.94 947.73 338.36 1135.67 336.63 1061.06 452.86 967.32 537.26 1126.34 535.75
00027766 00000006 821.19 111.23 388.00 560.36 936.45 357.01 1123.83 352.38 1043.46 480.79 958.95 554.50 1109.59 551.19
00027767 00000007 816.55 124.86 380.05 556.08 926.25 371.37 1105.15 367.93 1022.97 494.35 950.60 565.85 1091.92 563.41
00027768 00000008 807.75 133.92 379.64 552.94 912.94 374.46 1091.75 375.71 1005.46 503.75 935.76 570.55 1072.53 572.63
00027769 00000009 803.77 147.72 373.78 542.79 902.20 381.92 1078.26 389.07 985.19 510.74 921.64 572.89 1056.47 580.01
00027770 00000010 800.48 159.32 369.42 533.32 892.67 386.96 1062.82 398.11 968.08 517.80 913.14 575.06 1040.65 585.68
00027771 00000011 795.53 156.03 370.41 539.42 885.11 383.21 1057.18 400.07 954.59 514.94 898.51 570.58 1030.07 585.72
00027772 00000012 792.38 149.89 367.82 531.80 879.60 377.56 1054.97 395.84 948.07 503.90 888.20 559.34 1026.10 575.33
00027773 00000013 789.20 148.61 369.48 530.58 875.60 376.00 1053.81 393.63 943.42 502.17 884.05 557.71 1022.96 573.23
00027774 00000014 782.18 147.70 373.09 529.27 870.76 376.60 1048.05 391.52 940.73 501.03 879.95 556.76 1016.89 569.63
00027775 00000015 786.88 144.11 359.36 534.88 865.05 387.42 1047.52 392.02 944.22 509.41 879.50 564.76 1016.71 570.11
00027776 00000016 776.09 151.34 361.58 529.61 868.94 390.18 1044.76 400.48 949.49 512.36 883.37 561.86 1020.60 570.78
00027777 00000017 775.51 168.69 364.65 511.69 878.86 404.03 1048.37 406.93 963.98 519.62 897.62 569.97 1024.69 573.69
00027778 00000018 779.37 177.25 365.46 504.14 892.25 409.89 1061.81 406.96 983.18 525.26 911.65 579.88 1035.23 579.57
00027779 00000019 786.51 175.42 358.48 505.79 907.31 419.96 1073.96 410.54 1006.12 531.19 928.08 588.64 1054.69 580.63
00027780 00000020 781.59 170.32 367.79 518.35 919.79 413.27 1083.76 399.05 1024.52 522.31 943.47 581.88 1065.39 571.39
00027781 00000021 762.96 121.16 413.23 587.75 918.05 406.10 1106.59 389.36 1040.01 525.32 943.27 593.88 1086.45 580.25
00027782 00000022 759.06 115.45 418.68 591.67 916.52 401.31 1106.65 384.04 1041.17 520.63 943.98 592.89 1087.20 578.94
00027783 00000023 754.14 116.18 419.57 593.01 905.73 402.52 1102.86 384.98 1032.62 524.38 933.58 595.12 1083.88 581.54
00027784 00000024 747.54 123.19 416.89 591.34 893.05 406.86 1096.25 391.37 1020.07 534.24 915.73 598.89 1073.26 587.61
00027785 00000025 739.90 128.23 420.77 594.38 879.50 414.02 1086.88 400.19 1003.32 541.65 896.39 602.15 1059.44 592.58
00027786 00000026 729.99 126.11 424.30 602.63 867.82 414.82 1072.42 401.27 986.32 542.99 885.60 601.86 1046.70 592.84
00027787 00000027 746.70 158.23 384.62 542.36 864.91 417.35 1052.15 411.64 972.94 552.03 882.83 603.03 1030.46 599.34
00027788 00000028 743.22 156.60 389.34 547.74 862.17 418.87 1052.57 411.81 972.51 552.75 881.35 604.66 1034.25 599.56
00027789 00000029 743.84 156.74 389.01 551.08 862.13 421.68 1053.44 412.69 973.83 556.03 887.42 612.31 1035.84 605.21
00027790 00000030 745.54 154.79 391.05 552.31 864.12 423.54 1056.68 414.36 975.17 561.92 892.66 617.61 1037.33 610.28
00027791 00000031 750.86 158.21 400.96 564.28 871.01 425.38 1071.14 414.75 981.82 553.72 900.88 613.67 1045.77 607.10
00027792 00000032 751.48 155.18 405.57 573.73 872.13 423.33 1073.31 413.12 983.16 553.92 897.38 611.81 1049.12 605.34
00027793 00000033 754.25 150.02 407.44 582.00 872.47 420.14 1071.64 411.96 979.94 551.67 893.34 607.86 1047.04 602.70
00027794 00000034 756.85 147.89 406.88 584.51 869.75 419.70 1070.45 415.19 974.35 550.46 887.75 609.88 1041.03 607.44
00027795 00000035 754.19 151.07 408.15 583.98 861.12 421.17 1066.20 420.70 962.84 554.33 879.56 612.82 1037.23 613.60
00027796 00000036 752.69 159.58 409.39 577.08 849.51 426.49 1059.12 427.73 946.06 561.68 869.21 619.55 1027.84 622.17
00027797 00000037 744.88 157.38 405.42 575.16 839.70 424.22 1037.40 433.69 929.16 572.41 859.21 614.08 1024.33 621.03
00027798 00000038 752.01 164.44 411.41 575.26 837.84 423.10 1043.02 430.00 922.20 560.32 856.48 613.28 1014.80 619.98
00027799 DELETE   757.32 147.97 419.18 594.48 843.28 413.06 1047.01 420.57 927.16 549.86 860.71 610.00 1021.65 617.04
00027800 DELETE   774.53 128.49 409.39 604.57 863.70 399.32 1062.82 407.38 946.28 534.61 879.33 603.57 1038.45 610.43
00027801 DELETE   789.22 114.50 409.19 610.76 892.93 386.11 1086.83 391.24 981.86 523.83 913.84 598.58 1064.24 602.10
00027802 00000042 797.43 111.60 411.78 601.34 903.67 387.05 1097.46 387.56 996.17 520.23 924.40 592.23 1077.67 591.86
00027803 00000043 798.18 107.93 410.80 603.86 900.18 386.50 1096.30 384.25 992.33 517.73 924.32 589.45 1084.25 586.70
00027804 00000044 797.25 106.92 413.27 608.81 894.34 381.60 1087.86 381.85 981.23 516.63 921.57 586.22 1081.06 585.34
00027805 00000045 800.99 113.45 415.05 613.50 889.95 383.59 1085.23 386.27 970.49 526.89 919.23 591.73 1080.91 592.67
00027806 00000046 801.34 115.45 422.68 617.16 887.87 386.79 1083.95 390.49 963.11 532.70 921.19 598.89 1077.92 600.28
00027807 00000047 814.56 107.72 427.78 624.12 895.38 379.25 1102.47 388.41 971.35 525.61 919.96 590.89 1087.68 598.65
00027808 DELETE   826.35 100.50 428.05 629.16 911.24 369.70 1120.29 375.31 994.57 509.19 934.68 589.11 1101.91 594.03
00027809 DELETE   841.59 91.58 429.09 626.35 942.54 359.12 1143.06 364.37 1029.21 495.41 967.79 580.85 1120.65 583.97
00027810 DELETE   854.29 69.28 430.86 639.88 961.85 339.36 1161.31 339.00 1057.31 464.71 987.77 565.68 1145.36 563.37
00027811 00000051 860.85 55.81 428.39 644.62 967.19 323.33 1173.71 323.58 1062.06 446.65 990.28 553.69 1151.87 551.43
00027812 00000052 863.71 51.84 428.87 641.40 965.95 318.17 1171.34 320.30 1055.72 439.67 986.04 547.85 1145.00 547.17
00027813 00000053 861.01 49.93 430.40 634.73 960.74 316.36 1165.22 317.32 1050.56 435.97 983.04 546.80 1136.05 545.76
00027814 00000054 856.49 51.28 428.10 628.90 956.78 315.73 1159.19 317.04 1048.13 438.14 981.05 547.73 1130.87 546.91
00027815 00000055 852.33 54.45 428.35 627.52 952.33 317.02 1156.37 318.18 1045.11 442.41 978.70 549.42 1132.32 548.33
00027816 00000056 848.97 55.67 426.36 632.90 952.04 315.44 1153.28 318.74 1043.78 442.82 977.05 550.72 1124.27 551.24
00027817 00000057 846.54 54.90 424.62 634.95 950.54 308.14 1152.80 315.22 1044.09 432.15 969.83 545.40 1118.24 549.31
00027818 00000058 845.71 52.22 424.32 623.40 948.94 300.57 1156.06 308.64 1045.20 418.25 967.08 535.07 1120.26 539.59
00027819 00000059 844.53 49.74 421.50 622.31 945.49 294.60 1156.94 299.53 1046.70 410.23 965.54 527.94 1126.34 530.03
00027820 00000060 841.17 55.39 420.88 616.75 946.18 292.04 1157.12 300.97 1046.19 403.54 961.98 518.59 1123.22 524.83
00027821 00000061 840.64 60.67 415.49 611.86 944.95 293.40 1154.71 305.64 1043.19 402.67 954.63 513.44 1121.94 522.61
00027822 00000062 837.90 62.82 413.30 614.09 941.17 298.13 1151.42 311.25 1040.57 404.95 948.51 512.89 1125.41 522.24
00027823 00000063 835.39 65.88 412.39 617.62 939.71 302.60 1148.31 318.78 1034.76 409.49 940.32 511.63 1125.55 523.13
00027824 00000064 834.13 68.24 410.76 614.93 936.95 305.99 1144.00 321.96 1030.97 412.69 934.56 509.92 1123.85 521.28
00027825 00000065 833.95 77.19 407.71 601.01 936.32 311.95 1138.38 327.03 1026.51 416.53 930.25 506.40 1121.01 517.48
00027826 00000066 833.12 82.58 408.07 594.09 936.01 313.01 1134.99 330.34 1023.54 419.45 926.29 504.38 1117.82 517.60
00027827 00000067 832.53 87.57 402.66 589.23 936.57 316.78 1134.09 339.53 1019.14 430.05 924.06 502.72 1117.08 520.42
00027828 00000068 829.34 100.20 401.99 589.10 934.62 328.23 1125.33 342.98 1017.46 450.02 922.63 511.86 1116.37 525.02
00027829 00000069 828.59 106.60 398.56 594.32 933.49 329.09 1123.16 343.88 1016.32 452.05 921.09 514.41 1116.84 527.77
00027830 00000070 826.55 105.51 398.72 595.18 931.44 329.05 1121.05 344.81 1014.19 451.25 918.38 513.22 1115.05 527.34
00027831 00000071 825.69 107.09 398.55 593.00 932.24 329.16 1121.36 345.60 1015.48 450.75 917.63 511.53 1115.75 526.30
00027832 00000072 824.72 108.28 399.30 588.73 933.86 329.24 1122.87 347.17 1017.54 451.15 917.28 509.99 1115.76 526.35
00027833 00000073 824.83 109.34 399.42 586.27 934.30 328.56 1123.76 347.75 1018.07 452.27 916.53 509.32 1115.41 526.81
00027834 00000074 823.01 106.94 399.41 586.43 933.37 327.57 1121.20 347.55 1016.18 450.66 915.09 507.59 1111.85 525.58
00027835 00000075 820.27 103.56 398.67 584.28 932.62 330.46 1119.25 351.17 1014.64 449.46 914.33 507.12 1108.06 525.80
00027836 00000076 817.36 97.53 403.67 581.05 930.45 329.04 1119.34 350.47 1013.07 447.30 913.14 506.12 1103.52 525.28
00027837 00000077 814.52 95.99 403.39 578.32 928.99 328.39 1118.81 351.79 1012.43 450.23 912.55 507.13 1100.33 527.94
00027838 00000078 811.41 97.35 406.43 579.81 926.99 327.87 1117.08 354.77 1010.23 455.46 908.07 509.37 1094.99 533.22
00027839 00000079 811.47 99.09 405.12 579.93 928.18 332.19 1116.80 360.92 1011.22 464.16 909.23 513.85 1092.53 539.38
00027840 00000080 810.80 96.90 406.46 584.62 928.63 333.35 1116.85 362.55 1011.61 469.37 909.56 517.17 1090.61 542.95
00027841 00000081 808.32 93.85 409.84 596.40 926.55 333.12 1118.16 362.18 1010.72 470.36 909.22 523.62 1090.09 548.87
00027842 00000082 805.33 89.75 413.79 610.42 927.04 330.37 1119.99 357.08 1015.29 465.45 909.34 524.25 1094.95 547.09
00027843 00000083 804.18 87.63 416.58 611.55 919.75 328.06 1119.37 348.03 1011.61 457.52 905.73 521.79 1104.26 538.70
00027844 00000084 804.84 87.42 416.80 612.75 915.51 331.78 1120.35 345.44 1011.34 457.87 904.57 523.48 1113.33 535.19
00027845 00000085 806.51 84.88 419.83 616.07 916.87 333.73 1122.99 342.65 1015.81 457.77 908.47 524.08 1120.55 531.44
00027846 00000086 807.88 84.70 423.75 618.51 917.51 333.22 1126.07 341.23 1017.32 457.72 909.64 524.92 1123.70 531.10
00027847 00000087 807.23 82.38 423.78 621.60 915.76 333.08 1125.70 341.32 1015.76 458.96 908.44 526.59 1122.86 533.03
00027848 00000088 806.68 85.13 423.92 624.15 912.24 332.22 1123.20 341.82 1010.90 460.88 902.92 526.68 1120.51 534.35
00027849 00000089 803.23 83.92 427.11 628.10 908.03 332.57 1118.35 341.82 1004.80 461.99 897.33 527.27 1116.05 534.52
00027850 00000090 803.83 83.81 426.26 630.86 906.88 331.68 1116.27 345.34 998.82 466.78 893.96 526.62 1113.23 537.56
00027851 00000091 803.45 80.67 430.06 636.82 910.05 331.19 1119.08 350.42 999.58 474.11 892.83 527.72 1110.93 543.50
00027852 00000092 804.24 81.49 430.85 638.96 912.26 329.37 1123.84 351.78 1002.18 477.28 892.32 527.98 1113.15 546.60
00027853 00000093 805.45 84.79 429.90 638.60 916.46 331.99 1128.65 354.28 1009.24 480.02 895.50 529.76 1118.08 548.56
00027854 00000094 806.15 88.75 426.07 636.72 921.47 338.03 1131.58 357.58 1017.46 483.35 899.61 533.26 1120.69 550.06
00027855 00000095 803.20 87.61 429.98 637.98 921.32 341.76 1132.69 357.40 1020.50 484.75 902.81 537.63 1122.37 550.86
00027856 00000096 800.96 85.89 431.85 637.59 919.57 341.67 1132.34 356.16 1021.01 482.64 902.34 536.66 1123.11 548.99
00027857 00000097 796.79 87.43 428.74 633.67 915.09 341.21 1127.84 354.04 1017.31 480.53 898.74 536.04 1119.94 546.93
00027858 00000098 791.30 84.83 430.78 635.60 910.01 340.27 1119.14 351.76 1010.92 479.26 895.06 535.21 1112.13 544.84
00027859 00000099 785.27 86.70 430.16 636.17 902.19 342.41 1111.68 351.83 1001.89 477.39 891.09 539.00 1105.54 546.63
00027860 00000100 781.42 87.88 428.64 636.10 895.06 344.22 1105.99 352.12 993.93 478.93 888.73 543.86 1100.71 549.85
00027861 00000101 780.20 91.19 422.64 632.89 891.78 350.82 1098.34 356.78 990.55 482.64 892.66 549.95 1093.56 554.04
00027862 00000102 774.14 92.24 421.43 631.00 884.52 356.55 1092.65 365.55 982.39 489.22 889.41 556.38 1083.71 562.68
00027863 00000103 769.97 99.14 418.66 622.20 880.43 363.27 1085.36 373.22 975.31 497.86 886.83 561.93 1071.83 569.07
00027864 00000104 767.74 110.89 412.46 609.57 874.23 371.89 1079.91 383.25 968.93 506.07 879.67 566.47 1064.70 575.12
00027865 00000105 765.12 123.29 407.88 595.07 870.25 383.84 1074.27 391.53 965.25 513.71 874.65 568.97 1061.59 575.22
00027866 00000106 763.36 126.75 402.78 596.76 865.66 387.73 1070.03 398.60 959.47 516.76 865.32 567.66 1057.21 576.64
00027867 00000107 760.53 128.84 401.03 592.44 860.76 387.09 1064.47 398.89 952.64 513.40 860.48 564.32 1054.44 573.80
00027868 00000108 759.58 128.36 397.27 590.19 858.79 384.24 1061.17 396.83 948.93 509.10 858.86 560.74 1051.52 570.64
00027869 00000109 758.69 129.32 396.48 589.23 859.05 382.42 1059.27 394.37 950.34 507.57 858.34 557.43 1052.27 567.01
00027870 00000110 760.06 131.70 394.31 583.46 861.51 381.33 1058.87 392.14 953.93 504.63 861.19 553.53 1053.66 562.04
00027871 00000111 764.63 131.89 391.00 579.44 867.34 378.24 1061.58 386.10 961.40 498.69 868.17 550.80 1058.55 557.00
00027872 00000112 764.88 126.05 393.91 578.42 874.05 371.19 1062.37 376.08 967.74 490.01 878.07 544.62 1060.99 548.06
00027873 00000113 805.86 102.11 412.85 622.63 901.66 362.20 1104.33 368.94 995.81 491.79 914.19 570.35 1089.40 574.46
00027874 00000114 808.19 99.06 413.13 624.00 911.34 365.30 1104.22 371.51 998.37 497.32 928.97 582.17 1082.03 586.72
00027875 00000115 817.09 90.83 413.67 623.98 918.79 362.32 1122.33 372.43 1009.75 489.91 932.09 573.77 1091.24 583.08
00027876 00000116 824.55 92.53 409.94 616.73 927.84 358.04 1126.51 372.75 1016.27 484.63 937.18 567.62 1091.98 580.66
00027877 00000117 830.50 92.88 408.00 615.53 937.52 350.08 1133.79 369.70 1022.67 477.30 941.55 560.80 1092.88 577.92
00027878 00000118 831.26 92.31 406.97 615.93 944.20 343.98 1135.67 367.14 1027.09 475.73 943.69 557.78 1090.60 578.08
00027879 00000119 832.41 93.45 404.02 610.63 947.72 343.26 1137.36 367.50 1032.97 476.78 945.55 557.71 1089.85 579.19
00027880 00000120 829.85 95.16 404.26 602.32 947.84 342.12 1136.06 364.19 1035.90 473.82 949.18 557.15 1090.95 576.68
00027881 00000121 829.25 94.71 403.40 599.58 945.46 339.68 1136.04 359.13 1034.87 468.53 946.20 554.01 1095.98 570.64
00027882 00000122 827.69 94.05 404.25 598.09 943.16 337.39 1134.58 356.53 1032.04 465.14 944.01 550.86 1094.89 567.12
00027883 00000123 826.83 94.16 401.68 596.43 939.49 340.52 1127.72 361.99 1024.44 467.07 939.98 549.35 1088.42 567.54
00027884 00000124 822.51 100.08 398.60 590.74 931.52 348.07 1117.71 363.80 1017.36 483.85 940.85 558.79 1085.30 571.99
00027885 00000125 817.38 106.52 399.70 586.32 925.67 355.01 1109.58 374.61 1006.42 491.46 929.52 555.68 1079.45 572.29
00027886 00000126 812.61 120.19 397.50 580.41 920.63 361.43 1103.44 384.38 998.59 495.21 917.38 553.51 1075.24 573.19
00027887 00000127 807.81 122.84 394.90 580.13 916.02 368.68 1100.15 389.57 995.44 497.21 909.93 555.33 1074.38 573.05
00027888 00000128 805.30 120.38 394.78 583.18 911.47 368.88 1098.27 386.06 993.42 495.98 907.81 555.27 1076.20 569.78
00027889 00000129 801.61 118.19 394.61 587.09 908.41 366.00 1096.36 384.48 992.64 495.20 905.32 553.17 1074.98 568.53
00027890 00000130 797.19 119.35 395.66 589.01 905.85 365.52 1092.11 385.16 988.59 493.87 901.38 552.50 1069.05 568.70
00027891 00000131 795.40 121.77 393.63 595.80 902.74 366.24 1088.43 385.44 985.00 493.00 898.73 555.66 1065.75 571.37
00027892 00000132 800.73 124.29 388.50 588.68 899.87 365.26 1084.89 384.87 984.88 495.69 898.62 556.04 1064.51 571.90
00027893 00000133 794.30 124.65 388.10 589.49 892.41 370.63 1075.98 386.41 978.64 494.34 895.96 561.06 1060.16 573.25
00027894 00000134 779.79 123.78 397.42 592.29 878.54 376.41 1070.49 390.86 960.66 498.84 882.61 562.76 1054.05 573.78
00027895 00000135 772.10 134.18 393.39 576.98 857.64 386.12 1056.21 394.70 939.65 510.16 869.18 569.85 1045.97 575.98
00027896 00000136 761.89 141.40 394.81 569.92 843.49 396.67 1039.05 401.34 923.47 518.35 861.48 574.86 1033.08 578.41
00027897 00000137 751.91 142.97 401.13 575.82 832.28 396.69 1026.84 402.00 910.19 525.82 858.38 579.18 1021.20 584.26
00027898 00000138 751.18 140.30 397.81 578.96 826.50 396.65 1020.56 401.48 904.32 529.73 859.46 587.19 1013.46 592.04
00027899 00000139 751.70 135.22 396.65 579.26 828.10 391.41 1024.70 396.75 906.32 523.97 858.50 584.85 1015.75 589.88
00027900 00000140 751.67 128.26 399.97 587.45 832.88 389.09 1031.11 393.41 913.51 515.14 858.34 582.91 1020.49 586.86
00027901 00000141 751.40 122.83 399.17 598.51 837.11 386.84 1034.78 392.47 919.46 510.65 857.22 580.78 1020.61 585.72
00027902 00000142 750.69 123.22 399.66 601.83 838.58 386.52 1035.38 391.41 923.06 511.49 857.48 578.15 1024.53 582.51
00027903 00000143 744.05 129.58 394.36 585.62 835.49 390.03 1017.33 384.11 920.98 517.68 867.19 590.43 1010.69 584.47
00027904 00000144 739.24 126.88 398.14 585.01 832.06 389.17 1014.72 383.85 916.99 514.72 862.62 589.59 1005.38 584.39
00027905 00000145 738.59 124.96 399.54 589.20 832.59 387.89 1012.93 381.56 917.01 513.28 865.88 590.73 1005.83 584.66
00027906 00000146 738.82 123.64 402.67 592.04 833.02 388.44 1015.03 381.60 917.88 514.54 867.67 592.49 1008.26 585.73
00027907 00000147 741.57 120.68 404.27 596.72 833.89 389.61 1021.42 381.60 920.95 517.21 869.41 596.21 1014.06 588.21
00027908 00000148 751.48 119.50 405.34 597.58 839.30 387.63 1040.36 386.03 931.37 512.76 868.15 588.39 1027.05 587.70
00027909 00000149 752.80 121.15 409.65 605.71 840.94 393.13 1042.96 390.33 935.78 523.56 872.39 596.67 1034.13 594.70
00027910 00000150 757.84 120.78 407.07 605.18 845.35 397.29 1051.65 396.09 941.16 530.85 875.48 603.52 1036.17 602.86
00027911 00000151 761.04 127.70 406.39 603.27 850.71 404.05 1055.39 401.76 945.99 534.06 879.90 610.40 1036.39 609.13
00027912 00000152 763.76 125.16 410.06 612.57 854.87 403.84 1058.87 402.83 947.65 535.10 880.72 611.83 1037.11 611.44
00027913 00000153 767.62 118.46 410.65 623.11 860.51 395.41 1061.49 399.60 951.36 528.52 881.58 607.79 1037.79 611.38
00027914 00000154 770.59 111.83 416.14 628.09 866.71 384.41 1071.09 388.48 958.91 522.28 886.95 603.60 1049.45 606.74
00027915 00000155 772.11 104.86 419.41 631.88 869.53 378.34 1078.81 383.80 965.91 515.35 887.43 594.97 1061.21 598.55
00027916 00000156 776.07 99.15 421.18 634.14 878.42 377.69 1082.67 383.83 970.77 510.10 891.88 587.74 1064.08 592.06
00027917 00000157 779.61 99.99 420.12 632.55 888.09 375.22 1088.42 386.30 976.28 506.52 893.63 582.54 1064.57 591.03
00027918 00000158 781.03 100.47 422.51 635.40 891.86 374.07 1091.47 386.74 978.99 504.37 894.61 579.45 1067.34 588.85
00027919 00000159 784.58 102.00 421.37 636.67 893.43 372.97 1094.15 386.97 979.54 503.07 895.08 579.53 1069.70 589.85
00027920 00000160 789.10 103.15 419.23 632.55 896.63 369.84 1096.99 384.94 982.58 500.81 897.46 575.61 1072.71 587.12
00027921 00000161 792.73 105.83 417.30 625.17 902.75 370.39 1096.77 388.40 984.47 500.71 900.15 571.15 1070.96 585.06
00027922 00000162 795.98 107.96 416.06 617.23 908.15 372.14 1099.93 391.95 989.01 503.15 901.93 569.42 1069.93 585.48
00027923 00000163 799.07 111.68 413.35 607.63 910.16 371.09 1100.59 393.95 989.02 503.86 901.31 566.05 1068.21 584.94
00027924 00000164 800.02 111.27 415.00 605.57 911.15 365.68 1100.71 391.97 987.98 501.30 903.58 565.03 1064.84 586.76
00027925 00000165 804.00 108.99 412.85 605.20 910.89 361.90 1100.76 389.01 984.67 497.59 905.13 567.24 1060.90 589.96
00027926 00000166 805.58 108.73 414.80 604.00 913.79 356.73 1102.31 384.40 986.67 492.39 911.24 570.58 1055.84 594.22
00027927 00000167 806.09 100.10 416.59 610.98 911.46 348.12 1099.85 376.76 983.21 484.26 907.25 565.83 1051.27 590.28
