Video ID: 	rKk2Lu7W_a0
H: 	1080
W: 	1920
FPS: 	25.0

FRAME INDEX X0 Y0 W H [Landmarks (5 Points)]

00004368 00000000 701.14 127.72 439.64 706.03 868.21 427.53 1054.97 412.72 1008.58 550.59 906.01 660.50 1066.74 648.42
00004369 00000001 701.49 128.39 439.18 704.60 869.78 424.15 1053.53 408.62 1008.68 545.24 910.25 659.57 1066.81 646.65
00004370 00000002 693.95 129.77 448.24 700.32 850.50 421.32 1050.05 396.07 991.41 539.83 898.80 664.29 1053.68 640.52
00004371 DELETE   685.62 131.35 453.05 699.96 836.86 414.12 1036.31 390.81 973.25 536.99 885.33 661.48 1039.48 638.73
00004372 DELETE   681.64 129.74 445.41 705.30 819.21 406.91 1018.92 389.14 949.59 527.98 860.73 655.30 1019.19 637.42
00004373 00000005 680.03 132.42 440.43 692.11 801.48 397.31 1003.79 379.85 927.94 516.30 845.03 645.92 1005.53 628.58
00004374 00000006 678.03 135.13 439.11 683.47 799.62 394.42 998.05 376.73 924.05 509.02 845.29 641.84 999.50 624.68
00004375 00000007 676.38 132.71 441.57 688.00 803.64 392.98 1002.27 373.90 933.63 505.28 850.14 640.05 1007.72 621.34
00004376 00000008 677.45 132.41 442.70 684.61 813.13 396.95 1012.17 375.60 948.77 506.68 862.41 640.30 1019.49 619.37
00004377 00000009 676.94 129.75 445.04 677.09 821.06 397.29 1016.18 371.04 960.36 507.02 878.03 638.11 1030.02 613.11
00004378 00000010 677.65 126.64 439.44 665.91 823.56 393.35 1013.66 369.88 967.36 495.41 874.16 629.54 1034.39 608.51
00004379 00000011 673.80 124.91 438.44 659.75 816.55 389.70 1006.55 367.65 957.15 487.21 864.38 620.72 1027.29 600.76
00004380 00000012 669.89 126.09 435.69 658.89 805.99 385.54 997.61 365.74 945.64 488.57 854.12 619.98 1018.02 602.25
00004381 00000013 667.31 133.12 438.84 658.84 803.00 388.25 995.62 361.52 933.93 491.02 849.47 623.57 1006.77 599.07
00004382 00000014 668.17 135.37 436.59 660.28 800.89 389.31 992.31 363.52 929.12 490.90 847.89 624.38 1004.64 600.60
00004383 00000015 669.02 136.22 435.28 664.26 801.69 388.92 992.92 361.78 931.58 488.96 848.60 624.64 1007.38 599.61
00004384 00000016 668.50 134.60 436.06 666.64 801.96 388.08 993.81 359.37 933.11 487.58 848.36 623.35 1009.43 596.97
00004385 00000017 665.97 135.35 437.61 671.60 796.97 386.76 988.70 360.44 924.37 488.46 841.85 623.01 1004.52 598.35
00004386 00000018 663.48 133.23 436.01 677.05 789.55 386.90 981.83 361.09 912.47 489.29 829.87 622.23 997.75 598.11
00004387 00000019 656.00 129.12 436.68 662.88 781.25 385.56 971.96 367.26 906.88 492.37 816.94 617.65 992.72 601.91
00004388 00000020 656.79 128.12 434.89 657.84 780.27 385.01 971.39 367.44 905.25 492.29 816.02 615.94 989.27 600.86
00004389 00000021 658.27 128.06 435.15 655.23 783.78 382.76 973.91 365.32 909.84 490.11 821.13 613.77 991.55 598.51
00004390 00000022 660.87 124.56 434.84 655.51 787.85 379.60 978.58 362.01 916.21 485.37 827.87 611.06 996.65 595.71
00004391 00000023 660.69 124.84 435.08 654.68 789.03 377.93 980.89 360.51 918.53 483.68 829.97 610.00 998.83 594.64
00004392 00000024 660.77 123.99 434.88 652.77 786.98 375.81 979.09 359.53 914.42 482.46 826.81 607.48 996.03 592.73
00004393 00000025 656.71 122.68 438.63 653.71 781.11 374.00 974.56 358.15 907.02 481.17 819.17 604.24 991.15 589.79
00004394 00000026 653.80 126.30 445.02 660.67 777.17 373.93 971.29 351.85 895.68 480.08 814.26 603.89 981.45 583.45
00004395 00000027 657.04 128.70 440.82 662.26 778.93 371.38 971.55 348.80 897.73 475.48 813.75 603.02 980.71 582.45
00004396 00000028 661.72 124.83 438.45 665.39 784.99 369.72 976.73 345.66 905.60 472.67 816.81 598.92 989.89 576.70
00004397 00000029 664.29 119.95 437.06 657.29 791.16 367.03 980.80 348.57 918.26 467.09 828.64 596.84 1006.72 579.35
00004398 00000030 668.18 123.19 437.17 646.59 793.87 365.37 987.27 346.78 923.39 465.39 835.42 595.00 1012.36 577.38
00004399 00000031 670.10 120.11 437.12 648.55 793.17 365.61 986.28 347.31 920.01 467.13 831.30 591.57 1011.37 574.32
00004400 00000032 670.99 117.59 434.63 648.77 790.78 365.43 982.00 349.40 913.61 468.09 824.40 588.94 1003.63 573.60
00004401 00000033 670.14 114.64 432.66 651.84 788.83 366.00 979.38 350.23 910.28 470.12 821.38 590.01 998.18 575.04
00004402 00000034 668.44 111.14 432.83 655.21 788.12 365.20 977.49 350.03 909.18 470.50 820.97 590.16 994.84 575.77
00004403 00000035 668.43 112.25 432.48 652.79 788.51 364.71 977.94 348.99 909.53 468.82 822.18 588.64 996.68 573.82
00004404 00000036 667.68 106.74 433.21 655.85 789.37 362.50 978.50 346.43 911.58 465.48 824.49 585.70 998.69 570.32
00004405 00000037 668.63 106.42 433.18 653.89 789.81 356.93 980.30 340.50 912.81 460.17 826.20 582.80 998.72 567.05
00004406 00000038 667.69 103.29 435.25 654.45 787.69 352.68 980.04 335.89 909.41 456.03 824.12 579.00 997.03 562.97
00004407 00000039 664.67 98.67 436.03 657.93 783.08 347.56 976.73 329.78 904.15 454.21 819.23 576.93 991.10 560.16
00004408 00000040 662.10 91.31 436.54 662.71 779.06 344.20 974.05 326.43 898.14 452.13 815.72 573.67 984.80 557.12
00004409 00000041 663.11 88.45 435.45 660.80 778.35 341.30 974.75 323.14 897.42 449.59 816.08 571.33 984.83 554.23
00004410 00000042 666.88 83.37 433.81 664.78 786.70 342.46 981.46 323.81 906.84 445.91 823.40 570.14 994.59 552.18
00004411 00000043 670.77 82.86 437.37 665.06 794.12 344.95 989.87 327.07 914.56 443.23 830.40 570.09 1005.42 552.27
00004412 00000044 672.92 86.98 441.58 660.09 797.43 344.23 998.09 323.55 923.06 441.24 837.88 571.79 1014.61 551.36
00004413 00000045 673.62 83.63 442.48 661.87 799.35 342.60 1001.39 321.59 927.43 443.01 841.93 573.28 1017.32 552.49
00004414 00000046 674.07 84.79 441.17 660.45 797.12 342.37 998.44 321.83 923.21 444.80 838.71 572.60 1014.22 552.48
00004415 00000047 673.08 83.49 441.98 664.82 794.14 341.77 994.43 321.88 917.80 446.16 835.77 574.49 1009.52 555.14
00004416 00000048 672.52 84.00 440.71 664.80 795.72 342.90 995.54 324.81 919.22 446.08 834.68 574.96 1009.34 557.04
00004417 00000049 674.11 85.15 442.26 662.35 799.22 348.88 1000.74 332.07 923.52 446.24 837.55 574.27 1015.61 557.06
00004418 00000050 677.13 80.35 441.84 667.28 804.11 348.60 1006.35 329.46 932.43 446.78 845.49 576.74 1022.36 557.41
00004419 00000051 677.29 77.67 443.38 668.78 804.52 351.91 1005.26 329.86 934.83 447.23 849.18 578.82 1025.34 556.95
00004420 00000052 675.86 83.36 440.45 656.82 799.09 352.92 997.53 335.96 924.34 451.50 839.45 573.44 1017.94 558.03
00004421 00000053 677.21 81.75 444.00 666.60 799.70 351.85 1000.15 331.62 924.02 448.97 842.25 579.08 1017.82 559.12
00004422 00000054 679.01 84.57 442.71 666.12 802.38 352.73 1001.89 331.85 927.71 450.05 846.13 582.08 1019.09 561.65
00004423 00000055 680.80 84.66 444.28 667.67 808.19 357.19 1006.46 334.67 937.27 450.19 853.95 585.19 1025.51 563.28
00004424 00000056 682.74 87.62 443.34 667.57 810.61 358.12 1007.97 336.47 938.45 449.83 854.41 585.46 1024.95 564.52
00004425 00000057 681.07 92.28 443.03 662.35 808.49 357.43 1004.50 336.84 934.71 450.66 853.19 585.96 1018.67 565.89
00004426 00000058 680.30 97.95 441.91 660.88 805.85 357.95 999.74 339.05 929.92 450.87 850.52 588.73 1012.37 570.26
00004427 00000059 679.58 100.53 441.78 667.03 807.09 361.39 997.26 342.28 930.82 453.44 848.32 592.79 1011.97 574.15
00004428 00000060 681.99 102.43 440.16 669.28 812.04 365.04 1001.70 345.74 938.06 455.12 852.04 595.36 1019.47 576.75
00004429 00000061 684.10 103.20 439.86 666.50 814.63 366.74 1007.18 346.64 943.63 456.83 854.61 595.75 1024.32 576.89
00004430 00000062 684.90 103.64 441.00 662.18 813.72 368.96 1008.28 347.64 942.65 457.93 854.88 595.19 1026.19 575.25
00004431 00000063 683.95 104.65 442.46 657.89 811.23 370.41 1005.85 347.13 939.65 458.90 854.46 594.74 1024.42 573.28
00004432 00000064 684.08 105.65 441.16 655.71 811.14 372.49 1005.74 349.93 940.23 460.64 854.31 595.51 1023.95 574.81
00004433 00000065 685.80 105.78 439.48 660.30 814.63 377.27 1005.62 354.43 943.03 462.64 856.66 596.99 1026.18 576.48
00004434 00000066 688.32 101.35 438.15 668.39 819.56 377.30 1009.59 355.06 948.52 464.10 861.17 598.82 1029.69 578.78
00004435 00000067 691.09 98.80 438.99 670.14 823.02 377.91 1012.85 354.83 951.82 465.02 866.18 600.20 1032.60 579.01
00004436 00000068 692.38 97.23 440.54 670.20 823.99 378.77 1014.99 354.36 953.56 465.25 869.17 601.41 1034.88 578.94
00004437 00000069 694.51 95.72 438.10 671.53 824.99 379.21 1014.76 357.03 952.23 466.10 867.47 600.59 1032.85 580.45
00004438 00000070 697.68 97.98 435.13 669.19 825.66 381.00 1015.60 358.74 951.17 467.13 867.44 601.75 1033.37 581.71
00004439 00000071 698.63 98.72 436.08 666.52 826.20 382.86 1017.35 359.67 952.27 469.54 869.56 602.94 1035.73 581.97
00004440 00000072 699.68 97.02 437.02 664.59 829.11 382.81 1019.96 359.61 954.75 470.63 873.41 603.04 1036.62 581.93
00004441 00000073 700.36 96.30 439.31 661.03 829.53 382.85 1021.76 358.39 955.05 470.28 874.59 601.53 1037.92 579.09
00004442 00000074 701.32 94.90 440.73 658.67 828.90 381.73 1022.02 357.80 953.19 469.74 875.02 601.01 1037.84 578.73
00004443 00000075 700.73 97.16 443.45 657.48 828.64 381.32 1023.08 359.13 948.18 474.46 872.05 598.96 1035.71 578.78
00004444 00000076 702.63 94.86 441.99 660.40 829.10 379.79 1023.91 357.72 947.97 474.61 872.33 598.92 1035.95 578.80
00004445 00000077 709.89 82.13 436.72 674.00 833.74 372.43 1026.16 354.78 954.48 470.08 874.66 591.19 1044.06 576.83
00004446 00000078 709.75 79.20 439.99 677.57 836.18 369.29 1029.52 352.13 958.79 470.68 878.03 591.49 1047.87 577.58
00004447 00000079 711.07 74.06 441.56 685.04 836.84 365.70 1033.03 349.09 960.45 468.90 877.22 590.61 1050.22 576.99
00004448 00000080 713.16 74.25 440.95 689.03 837.05 362.49 1033.29 347.81 958.86 467.69 874.41 589.02 1049.22 576.97
00004449 00000081 714.94 69.54 440.85 696.26 839.27 359.45 1032.73 345.80 959.23 465.88 873.49 584.65 1049.38 573.44
00004450 00000082 716.15 67.56 440.11 695.46 840.81 357.86 1033.27 344.26 960.59 463.14 874.30 581.44 1050.56 570.22
00004451 00000083 715.98 63.39 442.24 692.60 843.74 354.26 1036.84 341.66 964.09 459.83 877.02 576.39 1052.42 565.76
00004452 00000084 715.71 59.62 444.30 690.60 844.68 353.11 1037.41 339.14 965.15 457.19 878.79 573.35 1054.32 561.32
00004453 00000085 715.52 59.73 444.54 691.14 843.26 353.80 1035.96 339.46 963.18 457.84 877.38 573.80 1053.18 561.53
00004454 00000086 714.46 62.29 442.48 694.08 843.19 354.77 1034.35 341.03 962.94 457.26 875.48 575.90 1050.27 564.41
00004455 00000087 714.45 68.53 441.18 694.10 840.89 358.09 1033.26 343.26 962.09 462.24 873.81 580.35 1051.72 568.08
00004456 00000088 711.52 75.99 440.19 689.45 839.04 366.43 1031.04 348.61 961.39 468.15 875.36 588.08 1049.42 573.69
00004457 00000089 711.56 81.38 437.35 681.19 836.43 374.34 1029.25 354.61 957.40 471.86 873.33 590.02 1047.22 574.02
00004458 00000090 709.91 86.00 437.82 673.55 834.21 377.17 1027.78 356.30 955.19 473.18 872.77 590.11 1046.87 573.09
00004459 00000091 705.41 97.59 443.46 665.33 833.60 383.95 1027.36 356.43 957.10 474.36 878.01 602.94 1043.79 577.72
00004460 00000092 710.12 90.42 438.73 681.38 834.44 377.85 1027.46 356.80 956.13 472.96 873.98 596.37 1046.13 579.33
00004461 00000093 713.45 95.56 436.50 680.16 838.30 377.35 1030.00 356.94 960.58 472.11 878.50 598.66 1048.15 582.45
00004462 00000094 716.77 94.98 437.50 681.40 841.56 377.60 1035.05 357.12 965.11 472.57 882.31 600.17 1053.34 583.92
00004463 00000095 719.80 96.12 439.23 679.83 845.24 378.07 1038.24 357.99 969.06 472.02 886.42 599.81 1057.01 583.88
00004464 00000096 724.13 101.11 439.69 676.93 849.69 379.51 1042.88 359.26 973.61 474.53 891.52 601.76 1061.04 585.87
00004465 00000097 729.62 102.85 438.41 674.90 855.55 381.64 1047.09 360.20 980.15 479.61 898.68 604.19 1066.10 587.35
00004466 00000098 733.76 99.12 435.26 682.95 863.61 384.07 1048.82 363.74 988.57 486.11 903.99 612.34 1067.59 594.46
00004467 00000099 737.38 100.01 435.68 681.34 866.96 381.23 1054.26 361.63 993.07 482.13 907.04 610.25 1072.03 592.89
00004468 00000100 742.06 99.97 433.71 677.29 868.43 376.85 1056.56 355.76 993.67 473.06 908.72 606.46 1074.89 587.70
00004469 00000101 742.97 97.48 434.45 676.88 867.76 374.96 1055.96 353.73 992.19 468.38 907.13 602.95 1074.72 583.98
00004470 00000102 742.82 100.43 434.27 674.35 868.04 375.23 1056.71 355.75 991.99 473.11 907.61 605.06 1072.93 587.56
00004471 00000103 738.14 97.01 433.19 679.85 865.78 377.44 1054.16 359.62 990.75 481.13 904.93 608.27 1067.43 592.24
00004472 00000104 727.59 98.72 436.59 677.84 852.45 378.94 1045.66 360.94 975.51 477.65 892.30 602.69 1060.91 588.63
00004473 00000105 715.74 89.04 434.12 678.25 840.32 371.23 1032.64 356.88 959.93 467.37 875.18 593.12 1044.55 581.98
00004474 00000106 702.18 92.87 439.29 675.06 828.49 373.42 1022.01 351.99 949.55 462.25 868.20 598.50 1034.68 578.76
00004475 00000107 694.45 100.52 435.90 671.83 819.21 379.88 1008.93 360.59 942.41 468.88 861.04 606.22 1024.08 588.66
00004476 00000108 687.53 118.73 433.35 663.68 811.27 387.65 1003.29 369.21 938.24 480.38 852.02 616.51 1017.81 600.00
00004477 00000109 685.04 121.80 433.19 660.39 807.53 389.83 999.00 370.73 933.01 482.06 848.26 618.14 1014.13 601.02
00004478 00000110 683.02 127.92 433.60 650.51 804.16 386.73 995.24 365.06 930.25 476.51 849.02 615.97 1012.06 596.73
00004479 00000111 681.25 128.78 432.49 649.65 799.96 385.86 989.60 363.15 923.92 475.67 844.44 614.65 1007.94 594.78
00004480 00000112 676.90 127.09 432.47 653.61 794.00 390.34 982.42 368.64 914.95 486.48 838.39 618.95 999.80 599.98
00004481 00000113 669.88 127.06 432.03 655.22 786.79 403.04 971.42 381.45 904.34 498.06 830.41 623.59 992.54 605.34
00004482 00000114 658.25 129.60 434.81 657.33 777.23 405.41 964.18 384.24 894.53 499.38 820.36 626.77 982.42 608.55
00004483 00000115 650.30 132.61 438.54 658.13 768.55 406.61 956.77 386.00 883.46 498.66 809.51 626.99 974.34 609.41
00004484 00000116 645.53 134.56 440.88 663.43 764.56 410.61 953.41 389.07 880.05 505.48 806.59 633.21 970.79 615.12
00004485 00000117 645.24 137.81 440.02 668.39 761.75 416.61 953.80 392.66 880.90 512.65 805.68 640.97 974.09 621.20
00004486 00000118 645.26 139.17 438.95 673.59 761.29 419.54 954.35 398.08 880.54 518.92 802.98 644.56 974.58 626.85
00004487 00000119 644.67 142.40 439.19 670.77 761.56 417.74 954.49 396.90 880.70 516.22 802.47 643.70 974.30 626.56
00004488 00000120 646.36 141.51 438.55 671.38 764.61 418.87 955.16 397.78 880.88 509.51 803.30 641.98 971.47 624.78
00004489 00000121 647.03 142.05 438.67 662.64 764.46 415.60 955.27 394.70 879.04 506.83 803.03 638.11 968.65 620.86
00004490 00000122 647.64 135.18 440.63 660.84 764.59 403.34 962.50 387.31 881.58 504.77 800.41 631.49 970.25 617.96
00004491 DELETE   661.36 137.35 429.21 638.64 771.34 392.02 965.93 374.89 888.12 492.47 807.56 616.80 976.57 602.17
00004492 DELETE   669.36 132.92 429.09 630.99 779.94 381.17 970.29 361.12 893.94 470.12 817.25 598.58 981.99 581.04
00004493 00000125 674.46 133.68 430.38 627.12 782.14 375.29 975.32 354.09 893.34 456.48 818.68 592.71 987.57 573.89
00004494 00000126 672.69 127.65 433.26 634.30 779.38 367.64 974.67 346.68 892.07 455.90 819.04 593.92 985.18 575.03
00004495 00000127 671.92 125.08 433.64 634.02 776.13 370.14 971.72 346.83 890.56 461.60 818.01 595.34 989.84 574.56
00004496 00000128 672.11 123.00 436.05 635.40 777.55 368.39 972.39 344.93 892.72 460.61 820.35 594.08 990.88 573.03
00004497 00000129 674.89 121.45 433.70 641.74 784.31 366.73 974.24 343.06 898.14 456.87 823.66 591.50 995.43 569.85
00004498 00000130 679.00 120.27 429.83 641.87 786.98 371.73 978.53 347.62 899.38 456.90 821.29 589.91 1000.53 567.95
00004499 00000131 675.17 117.01 434.04 645.49 779.67 366.03 974.70 342.66 892.39 460.41 817.19 589.32 994.71 567.99
CROP_BBOX: 322 0 1441 1018
