Video ID: 	itsM1BZ-Tso
H: 	1080
W: 	1920
FPS: 	25.0

FRAME INDEX X0 Y0 W H [Landmarks (5 Points)]

00002945 00000000 672.65 57.09 407.66 569.38 800.56 295.59 999.56 293.18 916.78 386.16 839.19 494.85 993.86 493.19
00002946 00000001 672.38 57.16 401.49 568.37 794.77 299.41 993.81 289.47 915.17 389.53 831.90 508.83 988.60 498.11
00002947 00000002 668.49 57.91 403.36 572.99 790.24 300.50 988.52 291.74 909.84 391.30 826.78 512.65 980.48 503.03
00002948 00000003 665.51 55.48 404.08 575.70 787.72 302.94 986.02 294.10 907.76 394.12 825.38 515.63 977.20 506.08
00002949 00000004 663.08 54.24 406.48 576.25 785.31 303.60 985.25 294.57 906.10 394.70 823.02 516.12 977.08 506.26
00002950 00000005 659.20 55.88 410.08 578.32 784.42 305.58 984.42 297.00 905.61 398.29 823.51 519.78 975.64 510.13
00002951 00000006 657.68 58.29 412.52 581.43 783.40 307.24 985.09 299.03 904.93 402.49 823.56 524.24 975.91 514.88
00002952 00000007 656.57 59.92 415.28 585.65 783.92 309.89 986.07 300.86 905.52 405.41 825.19 527.61 977.69 517.55
00002953 00000008 655.35 59.51 417.27 591.30 783.61 311.52 988.79 303.55 908.37 410.87 825.75 533.07 981.08 523.98
00002954 00000009 654.36 61.36 421.71 596.62 783.92 312.06 990.16 304.21 910.48 413.86 826.56 537.15 982.36 528.25
00002955 00000010 655.16 62.67 422.92 599.54 784.80 312.91 992.63 304.62 912.91 414.32 828.63 540.34 984.27 531.06
00002956 00000011 653.75 61.02 425.63 603.99 784.82 313.28 993.76 304.73 914.89 414.73 829.17 542.24 986.22 532.78
00002957 00000012 652.80 58.92 427.24 607.03 784.71 314.09 995.65 305.91 915.82 416.74 828.56 543.59 987.67 534.31
00002958 00000013 650.86 59.23 430.11 609.73 784.53 314.81 996.02 306.20 917.39 417.02 830.15 545.16 989.53 535.46
00002959 DELETE   650.59 60.58 430.72 608.22 783.56 314.59 996.78 305.63 916.12 417.22 829.05 545.90 990.23 535.65
00002960 00000015 647.51 57.35 433.91 612.04 782.96 314.13 996.51 305.45 917.16 417.90 829.15 546.60 990.64 536.52
00002961 00000016 646.64 57.70 434.96 612.82 779.84 310.11 994.71 299.07 914.70 416.57 827.79 546.58 989.85 534.33
00002962 00000017 645.49 53.70 436.62 615.33 779.10 309.55 994.29 297.73 913.93 414.63 826.40 546.44 988.32 533.61
00002963 00000018 644.11 51.46 438.89 617.20 777.52 309.20 993.33 296.55 912.69 414.92 825.51 546.16 988.20 532.70
00002964 00000019 642.89 50.81 439.88 618.54 776.20 308.89 993.64 295.09 912.51 415.01 825.06 546.84 989.12 532.50
00002965 00000020 640.17 42.94 444.34 632.83 777.01 307.93 993.17 297.01 907.09 412.42 823.35 537.66 985.04 529.29
00002966 00000021 639.03 44.04 445.55 632.70 774.45 307.39 991.87 294.26 905.53 411.84 823.44 539.14 985.74 528.88
00002967 00000022 638.51 42.59 446.09 636.08 771.36 306.30 989.96 292.37 902.68 411.31 821.58 540.77 984.83 529.81
00002968 00000023 637.74 42.72 447.84 638.74 769.53 307.73 988.02 294.52 899.62 412.32 819.83 543.06 983.05 532.50
00002969 00000024 638.09 43.91 446.53 636.65 767.56 308.26 986.42 296.86 894.60 413.48 816.56 544.27 977.94 535.33
00002970 00000025 635.60 45.43 448.44 640.28 764.49 309.56 981.84 300.04 888.70 413.55 812.58 546.48 972.00 538.98
00002971 00000026 630.25 52.60 453.45 638.16 758.56 312.56 978.30 300.95 887.65 413.62 811.01 558.38 970.20 546.33
00002972 00000027 628.50 54.91 455.62 646.88 755.51 313.77 975.61 303.78 882.98 417.07 806.00 562.85 963.40 552.19
00002973 00000028 627.99 55.34 456.86 657.97 751.92 315.26 974.84 306.36 877.79 422.18 800.31 571.66 956.19 562.49
00002974 00000029 629.55 56.23 457.77 664.34 751.29 316.70 974.67 309.66 875.03 426.34 796.34 575.88 952.68 568.17
00002975 00000030 631.59 57.34 459.54 666.81 749.55 317.96 975.61 311.95 870.73 432.07 793.28 580.61 952.00 573.49
00002976 00000031 633.19 55.70 459.71 678.37 750.44 318.01 975.85 312.04 867.78 437.44 782.62 575.84 945.08 571.15
00002977 00000032 635.86 55.60 460.41 682.25 752.41 319.81 979.23 317.42 866.50 442.39 779.66 578.56 944.46 576.75
00002978 00000033 639.02 56.84 462.61 683.17 754.09 320.64 981.51 320.98 864.38 444.48 778.34 579.45 944.16 580.08
00002979 00000034 640.82 56.63 466.46 683.41 756.54 320.11 983.55 323.35 864.16 445.76 778.74 578.25 944.29 581.30
00002980 00000035 642.14 57.98 467.26 678.91 756.79 319.85 984.63 323.87 863.57 445.20 779.02 576.60 944.26 580.28
00002981 00000036 645.70 58.75 465.23 671.15 756.41 319.69 985.80 324.19 861.92 446.24 779.27 574.74 946.27 578.65
00002982 00000037 648.57 57.44 467.44 678.51 757.14 320.28 985.81 323.20 857.40 447.06 779.39 581.63 943.71 585.69
00002983 00000038 650.03 58.09 466.11 674.10 755.04 318.38 986.12 322.51 854.72 446.14 776.27 578.98 943.66 583.90
00002984 00000039 649.06 59.31 466.63 672.94 754.31 319.23 983.75 321.93 854.65 444.66 777.80 579.59 943.39 583.32
00002985 00000040 647.14 62.32 462.41 662.47 754.90 319.23 982.20 321.86 857.93 443.11 778.59 572.34 941.80 574.76
00002986 00000041 649.92 64.84 464.64 664.84 751.43 323.69 979.37 322.02 852.77 441.77 779.26 581.34 937.70 580.92
00002987 00000042 650.44 64.34 463.25 665.78 748.55 324.91 977.95 323.08 851.16 443.69 776.50 582.93 936.89 582.46
00002988 00000043 649.82 65.95 462.24 668.15 747.48 325.64 977.26 323.78 850.40 445.35 775.97 585.09 936.36 584.60
00002989 00000044 644.92 64.00 457.10 672.55 750.55 324.30 976.38 323.74 853.06 446.98 772.69 578.11 937.26 578.00
00002990 00000045 644.56 63.48 455.75 669.08 747.68 324.94 975.20 323.89 851.06 449.19 770.45 576.59 939.09 575.94
00002991 00000046 645.19 60.80 453.05 670.54 745.10 323.51 975.06 323.46 849.46 449.57 766.10 574.06 941.66 573.99
00002992 00000047 646.07 69.78 451.45 654.56 745.38 327.25 972.18 327.57 845.80 450.98 772.12 579.83 944.14 578.16
00002993 00000048 645.83 63.36 447.92 666.25 746.44 326.08 972.71 322.73 850.72 447.58 770.18 576.30 938.74 573.75
00002994 00000049 647.18 66.91 447.21 660.57 747.43 326.19 972.83 323.86 851.40 447.33 770.09 575.96 936.81 574.39
00002995 00000050 648.30 69.64 446.23 658.06 749.26 326.06 973.77 325.30 851.60 447.55 769.91 575.43 936.38 575.21
00002996 00000051 651.01 70.44 443.40 648.47 750.17 326.10 974.99 323.97 853.32 446.22 772.20 575.04 938.23 573.62
00002997 00000052 653.19 68.67 443.90 638.90 752.56 326.33 972.70 327.10 848.54 444.32 777.58 571.23 941.24 570.74
00002998 00000053 655.80 69.99 440.74 639.33 753.85 322.36 970.65 322.11 848.75 439.18 776.60 565.44 934.09 567.13
00002999 00000054 659.51 65.26 441.95 629.50 750.21 324.39 971.38 316.46 848.32 435.55 781.45 564.96 937.66 559.30
00003000 00000055 659.55 70.03 436.02 622.54 759.27 314.42 970.69 314.10 853.18 428.50 784.77 551.30 938.00 552.78
00003001 00000056 658.98 68.08 435.74 615.83 763.13 313.16 970.58 315.82 856.58 421.60 786.14 542.81 938.27 546.69
00003002 00000057 657.00 69.76 436.67 606.18 768.78 316.98 974.14 323.88 861.23 417.06 787.71 536.86 943.89 542.07
00003003 DELETE   659.33 64.47 432.90 609.14 767.62 312.49 973.23 317.69 859.23 411.79 787.64 534.11 944.24 537.64
00003004 00000059 661.36 57.25 433.36 610.66 765.08 300.82 976.86 302.99 858.13 404.57 784.97 526.56 943.97 530.14
00003005 00000060 663.87 58.18 431.73 603.77 765.42 293.18 977.77 295.09 856.67 398.25 785.91 522.05 944.86 525.20
00003006 00000061 665.01 58.52 433.63 598.46 767.08 289.41 979.56 292.03 856.59 396.50 786.64 519.49 945.40 523.19
00003007 00000062 665.64 59.81 434.34 595.84 768.06 287.65 981.62 292.22 857.22 395.54 785.13 518.38 945.01 523.75
00003008 00000063 665.38 59.74 434.77 596.33 768.98 287.48 981.91 291.68 858.47 395.25 787.07 518.80 944.97 523.96
00003009 00000064 665.45 58.75 435.23 597.67 769.71 287.40 982.31 291.35 859.78 394.92 788.34 517.87 946.15 522.86
00003010 00000065 665.54 60.18 436.93 597.83 770.52 288.11 983.02 291.86 861.55 396.10 790.86 519.90 947.23 524.77
00003011 00000066 665.65 60.35 437.05 598.63 771.93 288.74 987.09 292.42 864.18 397.78 792.02 521.03 951.37 525.74
00003012 00000067 667.96 70.06 434.17 607.04 775.53 292.33 989.69 297.12 876.75 401.09 797.27 529.17 947.71 533.32
00003013 00000068 669.63 69.48 433.93 606.11 778.46 292.39 993.45 298.62 880.27 401.25 798.46 527.29 953.13 532.31
00003014 00000069 673.58 69.03 430.08 594.52 780.15 293.55 996.48 299.04 880.76 401.24 798.18 524.33 962.57 528.61
00003015 00000070 674.57 69.99 429.68 593.70 780.76 293.25 997.61 297.80 881.53 398.79 800.54 524.59 965.01 527.88
00003016 00000071 673.31 72.39 432.07 599.93 780.92 292.23 998.15 296.16 884.26 397.39 803.74 527.26 964.02 529.97
00003017 00000072 672.30 72.13 432.79 602.25 779.58 294.28 996.90 296.29 882.81 398.23 803.71 529.04 963.88 530.21
00003018 00000073 669.07 73.37 434.63 601.86 775.27 295.84 993.85 296.47 879.61 400.58 801.03 529.77 962.01 529.86
00003019 00000074 663.77 73.55 440.02 607.37 770.02 300.33 988.16 300.37 872.57 402.63 795.92 531.70 955.83 531.46
00003020 00000075 660.85 74.95 442.28 608.75 765.42 302.53 982.52 301.38 866.57 406.08 791.54 535.45 950.62 534.20
00003021 00000076 653.58 66.71 445.67 613.37 754.46 306.58 976.51 302.29 852.14 402.35 783.94 540.67 950.04 536.04
00003022 00000077 652.56 69.24 445.35 613.29 751.42 309.68 971.96 305.67 846.46 406.90 779.50 544.62 944.82 539.99
00003023 00000078 651.55 68.99 444.26 612.54 749.21 313.10 969.29 309.24 843.76 410.63 778.08 547.35 942.98 542.88
00003024 00000079 650.24 69.08 445.31 614.59 746.42 314.38 966.91 310.87 840.43 412.57 774.98 548.37 941.33 544.29
00003025 00000080 647.02 69.59 448.19 616.12 745.01 315.39 964.86 311.48 840.64 416.64 776.61 550.39 941.41 545.70
00003026 00000081 646.35 73.06 447.19 613.80 745.06 316.58 962.94 313.22 839.89 417.11 776.15 550.46 939.43 546.59
00003027 00000082 645.64 73.71 446.76 616.65 740.85 316.21 960.69 312.52 835.57 419.98 772.05 553.10 937.87 548.89
00003028 00000083 643.49 75.95 447.94 617.39 736.33 316.19 957.61 311.48 832.09 418.83 769.25 555.03 935.52 550.05
00003029 00000084 640.52 78.94 449.31 621.38 731.32 315.70 951.96 311.60 824.48 418.24 761.95 557.51 927.23 553.02
00003030 00000085 638.28 80.58 448.61 627.74 726.01 315.76 945.06 312.68 814.14 417.95 753.56 560.57 917.26 556.96
00003031 00000086 636.19 80.95 447.20 628.53 719.64 315.71 937.19 311.65 805.05 419.22 745.57 561.37 912.21 556.82
00003032 00000087 632.84 79.94 448.09 631.39 716.93 314.56 933.59 311.04 800.83 421.94 743.00 561.69 907.42 557.45
00003033 00000088 632.00 81.63 447.76 631.20 715.75 315.00 931.40 310.68 798.47 422.98 741.60 562.83 905.03 557.97
00003034 00000089 631.39 81.86 447.24 628.80 717.03 317.45 931.48 314.83 798.78 424.70 742.09 560.85 906.70 557.42
00003035 00000090 631.88 81.73 447.00 631.82 718.39 318.27 932.62 316.31 799.12 425.29 742.39 560.48 907.83 557.75
00003036 00000091 633.27 84.27 445.88 631.44 719.85 318.90 933.71 316.63 802.37 426.03 744.21 561.69 910.79 558.65
00003037 00000092 634.47 82.46 445.93 637.00 721.52 318.73 934.96 315.60 805.26 427.32 747.21 566.08 909.43 562.56
00003038 00000093 635.90 83.00 443.79 636.65 722.38 318.98 935.94 314.74 806.75 427.89 748.86 567.97 910.86 563.50
00003039 00000094 637.31 84.05 442.41 634.01 724.89 318.86 938.57 314.10 811.21 427.79 753.00 567.21 914.96 562.16
00003040 00000095 638.34 82.53 443.18 631.07 726.80 318.67 941.09 313.70 815.57 427.10 756.82 564.23 920.65 558.76
00003041 00000096 637.97 81.34 442.54 625.90 727.38 317.20 943.21 311.92 819.99 425.18 758.59 560.91 924.87 555.17
00003042 00000097 636.68 78.59 441.33 618.71 727.49 317.05 943.70 310.18 822.50 423.59 761.20 558.74 926.70 551.31
00003043 00000098 636.82 75.94 440.54 617.92 726.36 316.27 944.08 309.11 822.12 424.38 759.50 555.89 929.98 548.05
00003044 00000099 636.43 75.34 438.62 623.99 726.26 315.61 943.18 307.81 822.81 422.48 759.67 557.71 928.71 549.64
00003045 00000100 637.39 77.83 436.95 634.27 728.74 313.28 940.83 306.55 822.40 417.74 761.06 561.25 920.21 554.82
00003046 00000101 637.92 77.17 437.04 631.96 729.62 313.17 943.21 307.67 823.42 417.72 760.36 557.95 924.16 552.24
00003047 00000102 638.81 76.31 437.64 629.39 730.46 313.25 944.78 308.00 825.11 417.35 760.30 556.32 926.29 550.79
00003048 00000103 639.52 77.43 436.95 623.19 731.98 312.98 946.48 308.79 826.46 417.09 761.88 554.18 927.11 549.33
00003049 00000104 640.58 76.28 436.59 624.23 732.29 313.29 947.05 308.70 827.36 416.31 762.12 554.66 927.18 549.61
00003050 00000105 642.06 77.25 436.78 619.06 734.34 314.24 949.84 309.73 829.52 415.36 763.73 553.80 930.14 548.70
00003051 00000106 642.65 77.19 437.00 616.34 735.24 314.73 950.94 309.53 831.54 415.97 765.29 553.78 931.60 548.06
00003052 00000107 643.78 75.85 436.99 615.19 736.16 315.44 952.53 310.78 831.43 416.46 765.57 553.26 932.58 548.04
00003053 00000108 641.19 76.19 440.06 608.21 738.34 314.65 953.44 311.13 835.00 415.64 769.36 549.36 931.98 544.97
00003054 00000109 640.40 73.42 439.19 606.71 738.24 313.27 951.67 309.81 835.34 413.65 770.28 547.17 931.46 542.77
00003055 00000110 639.59 71.45 438.72 607.85 737.09 311.55 951.06 307.16 834.59 410.65 769.78 544.98 931.85 539.77
00003056 00000111 638.19 70.25 438.68 607.67 735.74 309.11 950.16 305.21 833.92 408.59 766.84 541.62 932.48 536.74
00003057 00000112 637.13 67.79 437.72 606.89 733.12 306.01 951.44 301.63 832.39 406.63 763.46 540.13 934.87 534.65
00003058 00000113 637.23 63.05 435.47 607.41 732.82 303.76 951.21 299.57 832.51 405.38 763.45 537.87 935.31 532.47
00003059 00000114 637.20 62.23 436.34 606.99 733.37 305.19 949.83 301.80 833.15 405.66 765.81 535.54 936.78 530.50
00003060 00000115 638.79 67.14 437.54 606.05 742.23 311.46 951.50 307.28 840.85 402.08 773.68 535.50 938.58 530.19
00003061 00000116 636.14 62.85 439.03 608.56 735.88 306.17 953.28 302.70 838.24 401.72 768.23 536.56 940.33 531.27
00003062 00000117 636.72 63.19 436.64 606.59 733.83 303.98 953.64 299.35 837.34 399.39 766.85 535.52 941.22 529.41
00003063 00000118 636.67 63.02 437.91 609.04 734.52 302.22 954.74 297.64 838.85 397.61 767.46 536.00 941.63 529.89
00003064 00000119 636.61 62.56 439.77 612.21 736.76 301.81 954.64 296.61 840.66 396.65 771.93 535.38 940.14 528.70
00003065 00000120 635.83 62.55 441.01 614.97 736.34 301.39 956.00 295.93 841.79 397.50 772.34 537.42 941.03 530.71
00003066 00000121 635.47 63.21 440.95 614.62 735.78 301.33 955.90 295.75 841.84 398.45 772.22 538.75 940.81 531.90
00003067 00000122 635.51 62.28 441.11 614.69 735.12 301.33 955.92 295.95 841.03 398.98 771.57 539.35 940.66 532.70
00003068 00000123 635.50 62.45 442.48 615.29 734.60 300.94 956.47 295.19 840.59 399.15 770.93 539.88 940.85 533.01
00003069 00000124 635.54 61.75 443.54 616.07 734.57 300.82 957.42 295.41 840.38 400.08 770.38 540.65 940.98 533.98
00003070 00000125 635.41 62.50 444.93 616.09 734.49 301.73 957.57 296.42 840.61 401.27 770.10 541.54 941.14 534.99
00003071 00000126 635.73 62.61 444.63 615.99 735.43 304.38 958.86 297.96 843.00 401.65 772.01 543.54 944.09 536.18
00003072 00000127 639.14 66.59 441.57 614.23 745.76 312.70 960.38 308.48 850.03 402.50 778.64 541.97 947.86 536.53
CROP_BBOX: 390 0 1402 909
