Video ID: 	ti70PYMyWi0
H: 	2160
W: 	3840
FPS: 	25.0

FRAME INDEX X0 Y0 W H [Landmarks (5 Points)]

00001277 00000000 1431.57 181.95 526.23 824.49 1540.18 522.55 1776.78 535.12 1612.02 657.10 1542.74 787.03 1740.05 801.61
00001278 DELETE   1421.66 190.53 530.71 802.69 1527.41 524.82 1771.14 528.35 1596.64 630.44 1529.06 780.76 1730.52 788.20
00001279 DELETE   1412.26 184.22 529.48 801.83 1515.43 515.88 1758.36 516.67 1579.09 622.12 1517.82 777.98 1716.80 783.27
00001280 00000003 1410.01 174.14 525.85 806.02 1513.27 507.34 1749.90 504.57 1575.73 621.04 1520.14 778.62 1708.55 780.98
00001281 00000004 1411.63 174.17 522.96 801.42 1515.50 505.60 1746.36 500.10 1577.11 619.35 1523.76 777.07 1703.61 777.33
00001282 DELETE   1417.78 177.19 526.46 806.84 1526.33 515.43 1750.40 510.32 1586.04 616.21 1534.34 780.25 1697.14 781.64
00001283 DELETE   1429.07 186.05 535.64 814.84 1545.15 509.87 1775.84 519.56 1617.29 620.23 1549.85 786.20 1709.48 798.04
00001284 00000007 1552.32 362.69 500.41 742.95 1695.10 666.59 1920.96 673.25 1807.45 772.93 1717.32 918.53 1871.91 925.20
00001285 00000008 1561.90 360.91 494.49 767.97 1713.42 668.14 1936.03 681.05 1838.01 771.42 1732.61 927.19 1879.58 938.93
00001286 00000009 1569.67 372.30 502.01 766.58 1735.05 669.32 1965.28 687.47 1860.23 781.96 1745.22 934.50 1897.20 952.09
00001287 00000010 1577.60 387.42 512.34 755.63 1753.75 671.91 1984.88 699.92 1880.87 805.78 1757.96 936.19 1918.03 960.52
00001288 00000011 1580.89 404.00 513.04 734.53 1760.41 679.44 1995.03 713.16 1889.28 821.86 1761.49 939.66 1932.28 967.30
00001289 00000012 1578.65 417.90 514.27 723.06 1761.47 690.15 1994.88 725.31 1890.04 833.59 1758.93 945.61 1936.14 973.87
00001290 00000013 1577.92 421.26 514.53 726.17 1760.48 697.63 1994.04 734.09 1888.56 844.37 1755.68 955.07 1935.58 984.08
00001291 00000014 1573.97 418.62 515.55 745.68 1757.58 699.67 1986.78 735.53 1886.31 847.52 1753.06 965.81 1926.33 994.03
00001292 00000015 1570.79 416.84 512.98 747.42 1750.69 699.77 1979.51 735.86 1876.68 851.81 1741.01 965.74 1917.49 994.71
00001293 00000016 1567.25 415.69 510.70 743.85 1742.12 697.86 1975.20 732.45 1869.01 845.37 1730.95 962.43 1919.84 990.60
00001294 00000017 1564.36 413.15 510.79 744.93 1735.97 697.19 1971.64 729.42 1862.31 843.42 1725.07 962.96 1919.27 989.53
00001295 00000018 1564.60 413.02 514.18 753.07 1737.52 696.59 1972.67 727.51 1863.84 844.46 1731.20 968.99 1917.21 993.95
00001296 00000019 1567.73 411.90 521.04 768.81 1748.51 699.38 1980.91 730.39 1876.90 853.22 1747.03 981.51 1919.12 1005.60
00001297 00000020 1582.21 419.72 514.00 770.53 1774.23 705.05 1993.66 736.88 1898.36 856.93 1773.54 993.77 1919.23 1017.30
00001298 00000021 1594.22 419.88 513.48 784.01 1791.91 710.18 2013.34 743.99 1920.52 861.05 1790.76 996.64 1934.46 1022.52
00001299 00000022 1597.15 423.40 520.12 781.82 1795.41 710.08 2024.42 742.38 1937.00 862.20 1798.39 1004.01 1949.86 1028.65
00001300 00000023 1596.67 426.51 521.85 776.86 1794.65 711.89 2024.48 747.34 1936.43 867.33 1793.43 1003.15 1947.73 1030.82
00001301 00000024 1593.70 435.40 522.63 763.57 1792.78 716.85 2020.02 758.82 1922.17 874.19 1781.63 992.35 1937.39 1025.26
00001302 00000025 1585.18 423.37 519.45 767.19 1773.19 714.00 1998.11 753.74 1895.21 878.23 1749.29 984.07 1931.23 1018.19
00001303 00000026 1572.61 419.56 520.88 766.65 1744.43 715.21 1976.03 755.92 1861.97 877.24 1716.95 975.15 1916.60 1011.14
00001304 00000027 1563.58 423.02 508.90 759.40 1721.92 708.72 1958.46 754.31 1833.59 875.97 1688.01 969.84 1899.81 1009.19
00001305 00000028 1552.56 410.15 508.38 784.17 1705.42 713.91 1942.53 758.11 1811.21 860.85 1669.07 966.94 1886.45 1006.47
00001306 00000029 1546.88 407.19 503.98 789.55 1695.76 704.22 1930.43 750.27 1798.94 858.76 1656.76 961.10 1875.71 1002.76
00001307 00000030 1544.77 408.46 513.37 779.21 1702.60 700.12 1937.26 751.43 1805.20 862.72 1660.03 955.79 1877.50 1001.05
00001308 00000031 1560.20 414.81 510.67 759.82 1723.53 702.38 1960.04 756.44 1835.56 871.92 1678.79 959.67 1895.97 1006.66
00001309 00000032 1575.03 419.39 516.42 767.18 1746.40 716.61 1980.42 762.66 1865.91 883.03 1709.02 967.58 1921.66 1008.27
00001310 00000033 1585.73 440.98 515.50 750.16 1767.10 724.59 2000.22 768.00 1891.63 896.46 1730.83 975.69 1943.86 1013.15
00001311 00000034 1592.66 461.67 514.51 734.62 1779.50 730.51 2014.26 777.27 1904.36 902.00 1740.98 981.09 1950.20 1021.44
00001312 00000035 1589.64 464.39 518.52 737.21 1778.29 731.56 2013.25 781.10 1901.58 906.64 1738.15 985.19 1946.94 1027.57
00001313 00000036 1585.65 461.10 518.03 746.28 1770.49 732.21 2002.02 783.07 1887.91 912.32 1727.40 991.39 1930.82 1035.13
00001314 00000037 1576.69 467.76 519.29 742.32 1759.33 738.57 1994.08 788.25 1874.44 911.70 1721.63 991.17 1920.81 1035.00
00001315 00000038 1572.62 463.86 523.61 749.60 1758.14 735.14 1986.40 784.13 1871.58 913.81 1717.18 994.33 1920.86 1036.93
00001316 00000039 1569.57 463.38 525.21 748.50 1758.57 736.11 1986.14 784.84 1872.98 915.96 1720.60 996.61 1920.88 1038.25
00001317 00000040 1566.91 468.23 521.67 748.82 1754.04 745.80 1988.34 790.83 1871.89 920.41 1725.29 1007.53 1918.55 1045.84
00001318 00000041 1563.15 468.49 520.22 754.17 1752.59 747.60 1985.63 793.20 1870.30 924.72 1722.94 1015.57 1915.15 1054.07
00001319 00000042 1561.75 470.70 517.73 753.17 1748.80 750.04 1981.85 793.31 1867.35 932.93 1719.22 1019.92 1913.74 1056.96
00001320 00000043 1556.35 468.76 522.84 752.73 1744.17 753.04 1978.28 794.79 1863.16 935.67 1719.29 1027.59 1908.29 1062.25
00001321 00000044 1555.56 469.40 519.47 752.02 1739.61 755.35 1973.44 796.22 1859.77 936.11 1717.38 1031.13 1905.21 1064.51
00001322 00000045 1553.75 470.98 519.54 750.62 1736.46 753.78 1972.09 794.26 1857.21 934.60 1718.49 1033.63 1902.54 1066.08
00001323 00000046 1553.85 466.15 518.00 755.23 1736.87 752.02 1972.61 793.39 1858.03 933.06 1716.69 1031.70 1902.35 1065.25
00001324 00000047 1554.75 466.76 517.33 756.48 1738.11 751.54 1973.99 793.76 1859.48 931.05 1715.14 1030.03 1904.11 1064.59
00001325 00000048 1554.66 471.21 518.82 750.87 1738.96 752.97 1976.10 794.93 1860.76 931.12 1713.48 1027.36 1910.28 1062.14
00001326 00000049 1554.56 468.45 518.69 748.64 1736.65 751.97 1975.65 793.13 1858.59 929.85 1713.72 1025.12 1909.87 1059.20
00001327 00000050 1554.96 469.95 519.64 743.42 1737.44 750.46 1975.57 791.84 1858.36 927.05 1715.51 1021.72 1907.80 1055.72
00001328 00000051 1556.41 466.34 522.98 745.10 1741.66 743.38 1973.86 786.03 1863.93 920.62 1717.02 1014.86 1911.38 1050.13
00001329 00000052 1558.17 461.18 523.32 747.54 1743.34 741.67 1974.66 785.15 1864.36 918.65 1717.75 1011.47 1911.43 1047.47
00001330 00000053 1558.59 458.28 524.89 749.50 1743.54 739.77 1975.27 783.51 1863.82 915.55 1717.70 1009.20 1911.74 1045.49
00001331 00000054 1559.02 459.25 524.82 747.49 1745.18 739.18 1975.39 781.85 1864.96 915.57 1719.57 1007.87 1912.76 1043.40
00001332 00000055 1559.28 461.38 525.26 744.01 1746.29 739.03 1975.84 781.88 1865.39 916.51 1718.74 1003.96 1913.63 1040.12
00001333 00000056 1558.37 462.94 526.84 741.33 1747.51 738.37 1975.96 781.66 1865.85 916.15 1717.92 1000.20 1913.89 1036.93
00001334 00000057 1559.59 459.00 526.74 746.01 1747.78 737.54 1976.64 781.82 1865.88 915.25 1717.46 998.77 1914.53 1036.49
00001335 00000058 1558.70 455.47 527.20 746.90 1747.93 734.56 1976.64 780.25 1864.58 910.88 1716.56 994.46 1913.38 1033.41
00001336 00000059 1558.26 450.76 529.45 748.93 1746.95 732.60 1977.01 778.94 1863.40 908.27 1715.96 990.92 1913.93 1030.29
00001337 00000060 1557.83 448.70 528.86 751.77 1746.40 735.42 1976.07 779.61 1860.71 911.14 1711.37 983.61 1916.85 1021.59
00001338 00000061 1561.53 445.58 527.66 757.49 1750.96 733.56 1978.51 776.77 1866.64 910.80 1714.04 980.62 1921.47 1017.76
00001339 00000062 1564.25 460.34 520.66 742.36 1750.15 735.17 1984.47 778.94 1869.76 905.35 1718.12 981.53 1919.00 1019.97
00001340 00000063 1567.71 457.59 522.70 745.82 1754.99 731.86 1985.84 770.14 1879.29 908.57 1718.89 984.34 1931.08 1018.60
00001341 00000064 1570.76 460.98 521.00 741.14 1761.11 735.16 1991.73 767.52 1888.77 913.19 1726.52 984.21 1941.42 1013.45
00001342 00000065 1575.01 467.33 519.60 740.04 1768.37 741.43 1998.55 770.81 1900.33 917.23 1735.99 991.52 1949.40 1018.05
00001343 00000066 1579.68 468.78 517.19 743.64 1779.09 751.20 2008.73 778.35 1915.76 925.47 1745.06 998.00 1957.41 1023.19
00001344 00000067 1588.91 474.20 513.95 742.39 1792.48 761.21 2021.81 788.55 1932.22 939.60 1754.07 1003.13 1969.59 1029.08
00001345 00000068 1592.93 481.44 516.34 746.61 1804.89 764.91 2025.90 799.66 1943.07 947.66 1768.12 1016.36 1971.28 1046.65
00001346 00000069 1599.43 484.97 521.46 735.55 1812.72 768.65 2032.32 804.57 1950.23 947.87 1782.94 1028.03 1970.78 1058.83
00001347 00000070 1598.67 483.41 521.61 732.93 1814.36 765.44 2033.90 801.12 1951.37 943.26 1789.22 1028.26 1971.00 1057.69
00001348 00000071 1598.83 473.66 521.20 744.81 1812.94 757.31 2036.64 791.31 1954.24 935.61 1791.13 1032.00 1972.88 1059.45
00001349 00000072 1598.08 469.78 521.05 751.03 1812.74 749.59 2038.29 789.84 1954.60 927.46 1783.63 1026.29 1971.07 1059.61
00001350 00000073 1600.08 470.83 519.67 745.03 1815.54 747.99 2040.11 789.64 1954.84 925.60 1784.82 1021.10 1970.67 1055.65
00001351 00000074 1598.90 467.67 519.62 741.34 1813.41 746.55 2039.48 789.17 1952.29 920.99 1783.32 1015.47 1969.12 1050.60
00001352 00000075 1590.16 463.24 521.53 743.32 1805.66 744.68 2030.74 785.66 1942.58 904.55 1779.68 1006.57 1965.05 1040.61
00001353 00000076 1586.67 447.66 518.98 753.94 1790.65 739.13 2017.47 777.40 1928.04 887.33 1766.68 990.52 1950.72 1023.48
00001354 00000077 1576.33 431.05 517.70 746.40 1768.35 718.56 1999.99 757.14 1905.77 865.35 1757.41 977.25 1940.22 1008.33
00001355 00000078 1569.23 422.12 516.73 739.43 1759.98 707.97 1989.74 743.64 1894.43 854.07 1759.90 976.31 1929.46 1003.46
00001356 00000079 1564.67 419.88 516.88 730.81 1756.40 704.71 1986.33 738.12 1890.50 847.41 1763.26 973.48 1926.48 998.25
00001357 00000080 1563.59 418.63 513.23 733.72 1752.30 704.76 1981.28 737.92 1886.25 851.96 1757.15 977.81 1922.34 1002.17
00001358 00000081 1557.78 422.49 518.68 741.07 1749.20 708.15 1978.13 740.39 1882.66 856.46 1754.93 984.26 1918.28 1007.68
00001359 00000082 1553.09 423.22 520.77 763.24 1744.20 711.16 1975.26 743.50 1880.67 857.30 1747.47 994.76 1910.15 1019.02
00001360 00000083 1548.44 425.35 522.67 767.31 1740.21 713.72 1974.06 748.62 1878.30 861.16 1737.14 994.16 1909.50 1021.13
00001361 00000084 1547.79 430.87 520.88 759.52 1737.67 716.51 1972.25 749.99 1877.97 865.45 1731.27 989.22 1916.83 1015.61
00001362 00000085 1546.83 433.06 522.90 756.72 1738.19 719.11 1973.90 751.64 1877.84 868.30 1733.24 991.16 1921.06 1016.60
00001363 00000086 1548.21 435.52 522.32 758.70 1739.94 722.43 1973.92 754.35 1879.01 872.74 1736.18 995.75 1921.16 1020.48
00001364 00000087 1548.20 443.44 521.33 758.47 1741.51 727.73 1973.01 760.06 1878.21 878.38 1738.76 1005.82 1915.48 1030.58
00001365 00000088 1545.83 449.00 519.39 757.39 1741.41 738.83 1977.10 767.68 1878.63 889.39 1745.56 1016.40 1910.61 1039.21
00001366 00000089 1548.10 457.59 515.74 755.78 1739.64 744.67 1974.17 775.25 1875.12 893.97 1746.20 1026.37 1907.83 1049.74
00001367 00000090 1553.00 463.97 512.74 750.93 1738.60 753.93 1971.73 781.77 1870.88 911.91 1749.96 1042.65 1909.44 1062.28
00001368 00000091 1554.13 474.49 513.13 751.85 1735.44 761.92 1969.58 790.57 1866.75 920.10 1741.02 1052.10 1909.20 1072.57
00001369 00000092 1555.25 484.49 510.41 750.10 1734.45 767.63 1969.25 799.51 1867.70 932.95 1731.86 1057.42 1913.76 1080.46
00001370 00000093 1550.19 491.83 514.95 749.86 1730.55 774.13 1968.24 809.99 1865.28 936.40 1718.63 1053.76 1914.56 1081.53
00001371 00000094 1548.03 495.35 513.21 746.59 1727.95 775.40 1962.73 815.41 1860.11 941.80 1712.28 1054.55 1904.70 1085.52
00001372 00000095 1545.95 491.12 511.55 747.21 1724.21 776.91 1957.91 817.40 1853.37 942.00 1708.81 1052.99 1897.38 1084.16
00001373 00000096 1542.34 491.43 512.57 740.26 1722.23 775.09 1956.09 813.90 1851.85 939.22 1709.46 1049.54 1894.22 1079.08
00001374 00000097 1540.28 489.28 514.40 739.04 1721.25 773.17 1955.69 810.11 1849.75 937.46 1709.06 1048.45 1894.60 1076.46
00001375 00000098 1539.07 488.06 516.69 739.01 1721.99 770.98 1956.39 809.43 1850.59 934.66 1710.89 1047.45 1894.28 1076.61
00001376 00000099 1539.46 487.97 516.58 739.62 1722.18 772.32 1957.57 810.11 1851.23 934.21 1712.26 1048.32 1896.38 1076.90
00001377 00000100 1540.72 488.23 516.52 740.61 1722.94 774.40 1957.91 811.66 1852.10 935.68 1713.94 1049.70 1896.43 1077.87
00001378 00000101 1541.28 494.22 514.48 730.63 1724.22 775.54 1957.73 811.14 1854.42 935.60 1716.16 1049.62 1899.15 1076.13
00001379 00000102 1544.39 483.96 513.90 736.81 1730.37 775.77 1961.53 810.57 1860.51 931.42 1725.88 1046.33 1905.72 1072.24
00001380 00000103 1551.88 482.64 510.82 735.69 1740.08 773.50 1968.79 810.82 1872.64 920.35 1735.87 1038.38 1910.83 1067.00
00001381 00000104 1559.88 485.46 515.11 728.69 1756.20 772.03 1984.98 809.38 1893.28 910.91 1756.34 1025.57 1924.53 1054.55
00001382 00000105 1576.17 468.17 516.49 746.46 1789.65 761.23 2004.91 800.33 1926.16 898.96 1781.79 1012.73 1943.12 1043.15
00001383 00000106 1592.96 466.30 514.43 748.48 1814.70 755.03 2029.67 796.77 1955.54 885.91 1800.92 1005.43 1969.36 1038.83
00001384 00000107 1599.70 464.27 527.13 746.25 1843.07 747.39 2062.27 791.09 1992.04 880.21 1822.34 995.00 1996.47 1031.31
00001385 00000108 1627.64 463.19 519.33 721.71 1871.15 733.20 2077.98 789.91 2025.11 863.87 1850.27 973.52 2025.04 1018.60
00001386 00000109 1644.90 450.54 518.12 728.77 1897.66 730.61 2093.77 792.52 2058.45 856.90 1872.09 963.30 2049.90 1014.79
00001387 00000110 1666.63 448.79 513.59 726.02 1924.20 726.18 2116.17 786.68 2082.32 854.49 1889.00 959.32 2065.87 1009.31
00001388 00000111 1679.86 451.94 510.82 726.35 1948.19 720.55 2135.78 788.82 2110.98 854.05 1906.10 957.18 2085.41 1013.92
00001389 00000112 1695.65 453.57 506.22 725.59 1978.18 715.77 2149.63 800.11 2137.15 860.72 1924.07 953.76 2082.64 1025.01
00001390 00000113 1708.95 461.77 504.20 718.96 1990.33 723.64 2160.01 797.23 2141.04 870.27 1935.18 959.39 2090.05 1021.26
00001391 00000114 1715.65 459.64 501.13 715.48 1989.30 724.48 2164.17 799.68 2143.20 873.02 1944.70 959.52 2104.03 1021.14
00001392 00000115 1716.18 467.02 502.93 713.46 1984.68 735.68 2165.40 797.83 2134.16 885.22 1940.87 970.35 2102.73 1020.64
00001393 00000116 1704.39 472.28 511.45 719.70 1963.85 740.81 2154.10 799.26 2112.00 894.27 1922.69 984.20 2088.53 1030.24
00001394 00000117 1681.35 478.84 516.99 718.69 1926.02 750.08 2132.42 807.78 2067.36 899.39 1885.07 988.33 2062.12 1035.92
00001395 00000118 1667.98 478.46 517.99 717.25 1894.81 748.31 2109.36 820.14 2032.03 893.42 1857.45 986.41 2035.77 1044.78
00001396 00000119 1667.54 481.25 518.94 721.45 1892.56 746.35 2110.78 821.27 2030.94 898.15 1853.09 990.97 2034.37 1051.69
00001397 00000120 1669.47 483.47 519.85 725.04 1904.50 750.81 2115.57 826.19 2043.28 904.67 1864.04 996.83 2041.08 1057.61
00001398 00000121 1667.10 485.94 519.66 723.71 1896.37 758.96 2108.00 832.34 2029.45 910.71 1852.24 997.51 2033.97 1057.47
00001399 00000122 1653.88 482.70 522.60 730.38 1874.40 758.29 2087.43 830.33 1995.73 911.44 1825.60 992.87 2002.62 1052.31
00001400 00000123 1637.25 486.78 526.14 733.90 1852.00 750.65 2068.58 821.65 1966.53 916.44 1797.08 997.39 1980.23 1056.15
00001401 00000124 1629.99 485.38 518.25 735.80 1835.46 751.88 2055.09 822.17 1947.79 916.30 1780.76 999.56 1967.12 1058.38
00001402 00000125 1623.64 489.01 518.99 736.43 1827.51 753.33 2049.22 824.62 1940.59 919.68 1768.07 1003.03 1962.72 1063.45
00001403 00000126 1618.97 500.43 523.28 734.12 1825.51 757.34 2043.92 829.64 1932.63 929.32 1760.16 1005.78 1953.66 1068.06
00001404 00000127 1617.29 507.87 523.00 734.57 1824.21 765.34 2039.40 837.06 1931.62 940.97 1756.65 1011.09 1951.86 1073.44
CROP_BBOX: 889 0 2530 1546
