Video ID: 	URZnSGJt6Cs
H: 	1080
W: 	1920
FPS: 	25.0

FRAME INDEX X0 Y0 W H [Landmarks (5 Points)]

00006225 00000000 702.42 140.94 385.99 593.02 857.31 396.54 1026.10 386.09 990.06 488.24 897.27 603.54 1024.03 594.22
00006226 00000001 702.16 139.04 386.87 595.78 856.61 396.56 1025.89 386.20 989.40 488.22 896.89 603.64 1024.42 594.29
00006227 00000002 702.50 139.29 386.22 596.62 856.90 396.32 1024.79 385.96 989.01 488.68 897.12 603.96 1023.55 594.63
00006228 00000003 702.11 138.85 386.60 598.01 857.38 396.48 1024.54 386.24 989.21 488.67 897.68 604.43 1023.11 595.19
00006229 00000004 701.90 137.54 387.54 602.29 857.52 397.35 1025.08 387.23 989.69 489.05 897.87 605.71 1023.69 596.47
00006230 00000005 702.49 138.70 387.58 603.54 858.22 397.53 1025.33 388.21 989.66 489.21 898.44 606.96 1023.52 598.40
00006231 00000006 702.76 140.00 387.53 605.92 860.90 397.25 1022.96 389.46 988.21 488.85 899.93 607.76 1019.05 600.59
00006232 00000007 702.98 140.42 386.59 610.56 862.87 397.50 1018.67 391.33 985.64 488.36 900.36 609.99 1013.55 604.42
00006233 00000008 703.30 140.51 385.96 613.73 862.55 398.55 1018.47 393.10 985.15 488.71 898.89 611.04 1014.10 606.03
00006234 00000009 703.08 139.84 386.84 616.06 863.22 398.94 1019.47 394.56 985.89 489.08 897.76 610.90 1014.98 606.77
00006235 00000010 702.86 142.25 388.02 612.87 863.37 398.32 1020.57 395.13 985.07 489.80 895.71 610.21 1012.65 607.22
00006236 00000011 697.12 146.56 396.11 607.77 865.32 396.43 1019.51 397.58 978.83 493.55 889.29 607.53 1005.61 607.95
00006237 DELETE   690.83 145.91 404.49 609.11 855.06 395.31 1015.58 399.60 966.12 494.37 875.16 606.08 997.55 609.10
00006238 DELETE   685.61 143.46 408.96 614.20 841.97 396.48 1006.88 407.25 946.99 499.13 855.17 607.08 982.20 615.62
00006239 00000014 683.68 137.64 405.54 620.57 828.86 397.13 998.27 411.60 928.82 507.85 835.95 609.44 965.61 621.57
00006240 00000015 682.76 140.35 405.26 618.69 821.44 397.08 990.51 411.41 918.19 513.11 826.99 610.42 954.09 622.83
00006241 00000016 683.45 139.86 405.31 618.94 820.49 398.25 991.50 413.69 917.14 515.01 826.08 610.76 953.94 624.03
00006242 00000017 684.90 141.28 408.52 617.30 825.68 402.50 999.25 413.21 926.93 520.55 836.57 616.52 967.83 625.55
00006243 00000018 689.17 154.04 409.68 600.82 839.11 407.04 1012.60 412.29 943.97 521.26 858.64 620.68 985.19 625.05
00006244 00000019 691.89 153.69 413.15 605.14 850.68 407.77 1021.99 407.38 960.25 523.40 876.58 627.60 999.39 626.85
00006245 00000020 698.61 160.05 408.59 603.43 866.52 413.28 1032.84 408.64 978.51 530.17 892.26 635.46 1008.48 631.18
00006246 DELETE   706.16 165.59 398.12 605.02 877.46 418.27 1038.97 412.61 990.29 531.96 902.59 643.01 1013.37 637.98
00006247 00000022 707.20 171.60 402.90 607.71 875.22 416.96 1041.79 413.02 998.57 522.68 908.87 640.36 1024.04 635.58
00006248 00000023 707.00 169.97 404.37 609.24 875.24 418.66 1043.04 414.57 999.86 522.49 907.62 638.40 1028.40 633.11
00006249 00000024 704.99 169.47 407.96 612.47 873.09 416.51 1042.53 413.63 997.90 525.17 903.85 638.08 1026.08 633.78
00006250 00000025 700.93 171.59 412.47 613.49 866.94 415.18 1038.35 414.01 989.94 530.06 894.80 636.76 1020.47 633.95
00006251 00000026 695.38 177.64 416.75 610.92 861.66 415.14 1032.70 418.08 979.84 535.32 883.73 634.19 1009.01 635.28
00006252 DELETE   692.15 177.01 416.45 616.28 858.88 417.56 1026.87 424.09 971.12 542.52 872.92 636.12 999.11 640.30
00006253 00000028 691.01 181.66 416.51 611.77 854.65 424.16 1021.40 429.63 963.68 547.20 866.30 640.52 992.57 643.98
00006254 DELETE   691.77 177.60 416.78 617.57 857.78 426.15 1022.18 430.53 967.74 546.54 870.18 641.76 995.45 644.30
00006255 DELETE   696.70 177.69 414.89 616.11 863.77 422.27 1029.24 426.26 977.02 542.37 880.75 640.10 1004.38 642.13
00006256 DELETE   701.37 176.67 414.42 608.33 868.42 416.19 1039.38 419.90 987.42 533.89 887.02 634.32 1015.61 636.16
00006257 00000032 708.74 162.99 404.06 604.64 874.11 415.15 1043.54 412.22 991.54 525.86 891.34 628.78 1023.48 625.98
00006258 00000033 713.54 153.88 400.43 602.04 879.42 411.28 1047.34 411.24 998.72 516.66 900.28 620.06 1031.96 619.68
00006259 00000034 716.21 152.86 397.86 598.48 881.65 411.65 1050.64 410.00 1002.20 515.35 905.29 619.42 1035.29 617.74
00006260 00000035 716.50 154.46 397.63 596.63 881.39 413.60 1050.67 410.66 1001.81 517.39 906.83 621.07 1036.65 618.21
00006261 00000036 714.48 160.42 399.32 596.51 878.89 414.04 1048.61 410.05 998.31 521.64 903.44 623.22 1035.01 619.32
00006262 00000037 712.44 163.46 399.62 598.29 878.44 416.12 1045.52 411.49 995.97 526.10 903.29 628.20 1029.65 623.63
00006263 00000038 711.31 165.83 400.24 607.70 876.37 421.33 1044.30 418.94 993.12 534.04 901.45 639.35 1026.37 636.37
00006264 00000039 710.16 167.26 402.82 613.36 874.90 429.27 1042.56 428.31 990.54 541.09 899.73 645.96 1023.93 644.52
00006265 00000040 709.60 172.67 403.69 607.66 876.78 436.67 1041.98 432.13 990.90 548.32 899.61 649.39 1021.90 645.16
00006266 00000041 709.46 170.47 404.32 612.20 877.99 442.99 1041.72 435.93 992.34 554.02 898.21 651.60 1022.27 645.39
00006267 00000042 710.78 178.70 405.07 605.86 876.76 440.82 1041.20 434.90 995.03 554.57 902.93 650.43 1026.36 644.08
00006268 00000043 713.20 189.41 400.86 602.81 877.82 446.96 1044.60 441.94 997.92 565.51 901.88 659.92 1026.75 654.57
00006269 00000044 715.60 200.85 398.31 599.39 881.21 450.71 1047.90 447.79 1000.45 571.69 904.16 668.77 1025.57 665.45
00006270 00000045 718.36 210.41 396.48 602.71 887.05 455.57 1052.23 454.16 1005.93 579.64 904.61 676.12 1026.10 674.26
00006271 00000046 719.64 213.26 399.77 608.14 890.22 461.37 1055.48 460.19 1008.07 588.00 903.56 682.77 1028.34 681.11
00006272 00000047 721.86 217.19 400.02 606.77 892.40 461.61 1058.93 460.21 1010.35 590.24 904.14 685.16 1030.31 683.57
00006273 00000048 723.08 214.23 399.78 609.52 893.79 459.98 1059.91 460.11 1012.17 589.87 903.37 682.22 1031.37 681.99
00006274 00000049 725.63 208.62 398.61 607.66 894.68 454.06 1060.64 455.57 1012.74 582.02 903.97 675.49 1030.50 676.44
00006275 00000050 725.45 198.06 398.99 605.19 894.25 441.59 1059.46 442.79 1015.72 568.27 905.84 661.48 1033.85 662.44
00006276 00000051 729.96 180.13 396.37 612.42 895.24 434.75 1061.42 434.40 1020.49 557.52 912.65 653.90 1041.74 652.82
00006277 00000052 730.77 176.94 395.79 610.18 897.59 432.41 1065.33 430.62 1026.00 553.20 915.11 650.67 1046.58 648.74
00006278 00000053 727.94 174.57 398.21 608.60 898.76 433.77 1066.55 435.85 1015.21 549.67 910.03 640.94 1040.16 645.11
00006279 00000054 725.91 170.70 403.39 601.61 894.60 423.85 1070.81 418.26 1017.22 535.86 913.91 641.51 1046.04 636.68
00006280 00000055 732.78 158.18 399.58 601.56 903.28 399.69 1075.52 400.75 1027.32 511.97 918.85 617.70 1052.46 618.66
00006281 00000056 738.29 135.17 394.19 605.64 909.60 379.27 1080.02 379.93 1037.97 486.09 922.85 596.61 1057.50 597.96
00006282 00000057 739.06 118.67 394.10 601.85 910.55 354.51 1077.13 361.53 1030.78 458.04 931.24 567.22 1057.54 574.53
00006283 00000058 742.30 107.90 392.66 585.72 924.00 333.29 1082.94 348.01 1039.19 428.41 933.76 538.08 1056.86 551.35
00006284 00000059 747.27 96.30 392.21 580.16 925.64 317.64 1083.14 332.06 1038.88 408.46 938.07 524.10 1057.06 537.21
00006285 00000060 750.83 88.80 394.20 578.75 928.83 306.50 1087.47 324.55 1042.42 392.86 943.00 511.50 1063.46 526.53
00006286 00000061 754.75 83.42 392.29 581.05 935.70 300.36 1091.70 322.57 1049.96 385.46 949.98 504.71 1069.28 522.81
00006287 00000062 757.37 80.59 394.00 585.50 941.23 293.38 1094.80 316.96 1054.92 382.85 954.38 502.52 1071.31 521.48
00006288 00000063 758.51 77.66 394.51 589.54 941.75 292.06 1095.18 316.81 1055.48 382.00 954.43 502.74 1071.03 522.58
00006289 00000064 757.58 77.65 395.00 590.18 941.21 291.86 1094.69 317.90 1055.12 382.31 952.60 502.51 1069.74 523.45
00006290 00000065 756.83 78.91 393.96 586.86 939.02 292.46 1093.64 317.90 1052.93 383.69 950.20 502.43 1068.23 522.92
00006291 00000066 754.83 80.17 394.38 583.71 934.23 293.96 1093.72 319.95 1048.88 386.52 944.30 503.19 1067.34 524.30
00006292 00000067 753.57 80.40 392.78 576.77 929.72 296.08 1093.06 320.66 1045.67 389.76 940.34 503.24 1066.52 523.21
00006293 00000068 753.66 83.94 388.96 563.51 925.95 299.15 1094.45 321.45 1045.46 393.84 936.93 502.56 1069.27 521.04
00006294 00000069 752.97 85.05 385.51 560.98 923.93 303.16 1090.59 322.55 1044.03 396.25 936.26 503.29 1068.05 519.81
00006295 00000070 752.29 89.39 385.75 561.90 923.44 306.81 1089.31 323.96 1042.82 400.53 936.04 507.07 1066.99 521.92
00006296 00000071 751.97 97.17 389.52 559.08 928.77 311.75 1088.63 327.68 1044.74 404.08 939.29 511.26 1065.20 525.74
00006297 00000072 751.20 97.27 392.85 571.77 929.81 317.00 1089.06 337.84 1043.12 408.25 936.93 517.69 1060.22 536.06
00006298 00000073 748.81 100.44 397.40 582.02 927.45 316.37 1090.25 338.76 1042.84 411.73 933.56 525.21 1060.19 544.66
00006299 00000074 751.90 100.00 393.11 589.28 928.88 315.62 1091.13 341.34 1044.08 413.05 931.50 526.95 1059.10 548.95
00006300 00000075 752.78 101.93 392.93 592.63 928.77 314.92 1092.37 341.51 1044.42 415.45 930.01 529.36 1059.70 552.07
00006301 00000076 753.40 106.69 391.71 587.63 928.64 315.69 1092.74 343.02 1045.55 419.90 929.92 530.38 1061.57 553.70
00006302 00000077 754.21 102.38 390.74 587.29 928.00 320.77 1092.15 345.97 1043.85 423.92 931.82 531.20 1063.22 552.61
00006303 00000078 755.36 104.47 389.15 581.35 925.63 324.75 1093.76 348.93 1043.46 427.25 933.86 533.08 1066.61 553.53
00006304 00000079 752.84 111.17 394.03 570.53 926.34 334.50 1100.30 355.02 1049.91 431.76 935.79 535.14 1075.35 553.27
00006305 00000080 752.40 114.43 395.36 566.03 928.98 336.88 1099.49 354.26 1051.79 433.60 939.88 536.81 1074.73 552.58
00006306 00000081 752.28 111.28 393.58 573.98 930.47 335.07 1094.01 353.05 1047.47 432.85 939.82 537.07 1068.24 552.90
00006307 00000082 754.66 109.72 391.68 576.48 930.24 331.52 1093.62 350.70 1044.67 433.07 939.44 537.95 1066.67 554.51
00006308 00000083 754.87 109.84 390.94 577.83 929.56 330.41 1093.33 348.65 1043.91 434.69 938.43 538.68 1066.05 554.51
00006309 00000084 754.42 112.69 392.62 578.66 928.82 329.66 1093.78 348.84 1043.62 438.91 934.78 540.32 1064.98 557.16
00006310 00000085 755.86 115.15 391.77 583.37 930.47 333.14 1093.21 352.20 1045.50 445.46 934.45 545.12 1064.79 562.03
00006311 00000086 761.80 126.06 390.84 579.96 936.02 333.09 1097.79 350.82 1051.30 449.69 943.15 553.66 1060.03 568.46
00006312 00000087 759.79 127.39 393.54 594.32 935.77 332.97 1096.45 352.65 1050.81 452.09 942.93 560.79 1058.69 576.91
00006313 00000088 758.47 129.45 395.04 593.94 936.45 338.68 1094.69 358.65 1050.47 454.42 940.06 562.14 1058.54 578.68
00006314 00000089 756.75 134.71 395.93 586.38 940.85 347.69 1094.06 365.84 1053.41 457.42 942.92 562.77 1059.32 578.09
00006315 00000090 756.43 134.84 395.06 583.87 939.88 349.05 1095.27 366.26 1053.50 458.89 944.27 564.53 1060.38 578.95
00006316 00000091 757.72 136.41 393.11 580.26 939.13 347.67 1095.32 363.88 1052.76 459.05 946.80 564.03 1060.54 577.37
00006317 00000092 760.52 132.54 393.61 581.57 941.27 346.42 1098.85 363.43 1055.88 458.31 951.09 563.21 1063.96 577.04
00006318 00000093 760.08 131.94 395.98 582.61 941.31 345.68 1100.22 363.25 1057.56 458.49 951.84 562.47 1066.21 576.64
00006319 00000094 759.40 132.23 396.08 583.54 941.19 345.55 1099.96 365.29 1057.60 458.92 949.32 563.03 1065.56 579.11
00006320 00000095 760.64 130.08 397.00 589.42 941.64 346.52 1100.63 367.48 1058.15 460.47 948.67 565.64 1064.32 582.80
00006321 00000096 761.24 131.54 397.28 595.94 942.52 349.84 1099.27 369.88 1056.87 464.23 948.36 570.96 1062.49 587.17
00006322 00000097 759.69 128.93 398.19 609.63 942.79 352.52 1098.15 372.70 1056.39 468.32 947.18 576.83 1060.54 593.16
00006323 00000098 759.23 132.02 397.87 612.93 941.79 356.17 1098.51 376.70 1055.73 471.78 944.06 581.08 1059.69 597.73
00006324 00000099 758.12 130.07 397.95 617.29 939.62 361.48 1099.22 381.98 1055.46 478.24 940.44 585.53 1060.55 602.23
00006325 00000100 757.69 132.44 396.24 614.69 936.26 364.08 1099.65 384.47 1055.28 484.04 939.17 589.74 1061.78 606.51
00006326 00000101 757.68 134.25 395.56 614.89 933.37 368.30 1099.75 389.00 1054.39 489.38 936.94 592.91 1062.92 609.95
00006327 00000102 756.80 137.07 395.04 615.44 932.35 372.46 1097.55 392.60 1053.01 493.19 936.75 596.45 1062.45 613.07
00006328 00000103 755.51 140.97 396.45 616.34 933.33 375.61 1095.87 395.03 1052.23 495.67 937.34 599.80 1060.54 615.84
00006329 00000104 753.54 143.29 399.49 617.54 936.02 378.75 1094.43 398.75 1051.77 498.38 936.87 602.16 1056.53 618.67
00006330 00000105 753.22 142.50 400.03 622.79 937.65 383.45 1093.68 404.79 1051.89 503.85 936.30 605.69 1054.64 623.40
00006331 00000106 754.51 141.97 400.57 625.07 937.61 388.62 1092.83 409.52 1050.35 512.63 936.66 611.04 1055.11 628.49
00006332 00000107 753.68 151.92 402.27 616.90 935.49 391.76 1094.25 409.95 1049.21 519.03 935.83 615.72 1057.15 631.38
00006333 00000108 753.73 160.20 401.29 608.63 934.44 398.87 1094.53 411.96 1048.06 529.54 937.30 623.96 1058.38 635.74
00006334 00000109 752.14 168.21 403.57 605.84 932.22 406.46 1098.24 416.10 1047.32 539.21 934.72 634.03 1059.18 643.34
00006335 00000110 750.88 168.55 405.77 613.79 933.19 416.43 1097.45 426.85 1045.27 546.35 934.25 640.81 1055.81 651.18
00006336 00000111 751.62 170.53 407.59 617.36 934.64 426.38 1095.09 441.11 1041.09 552.51 930.49 644.80 1049.10 659.21
00006337 00000112 755.21 180.01 406.98 611.39 936.52 441.30 1096.86 453.48 1043.48 561.33 933.26 653.04 1050.76 665.74
00006338 00000113 751.90 193.88 411.49 613.13 932.28 439.93 1093.83 451.73 1044.97 570.35 931.01 664.28 1047.75 674.01
00006339 00000114 753.83 197.09 407.91 616.08 933.58 439.14 1096.76 454.66 1047.24 570.25 932.31 667.70 1047.56 680.41
00006340 00000115 754.17 195.85 406.37 618.06 934.75 437.61 1097.69 453.87 1048.30 569.21 932.60 667.13 1046.88 680.43
00006341 00000116 752.89 193.50 408.00 615.82 932.78 436.54 1097.93 451.48 1047.71 568.50 931.63 662.22 1050.89 674.49
00006342 00000117 756.17 185.05 410.56 612.17 931.97 450.57 1099.97 456.88 1044.06 569.70 933.89 657.93 1061.52 665.24
00006343 00000118 757.51 181.06 406.98 609.55 933.83 448.03 1100.25 454.97 1046.64 565.12 936.48 653.02 1063.77 660.54
00006344 00000119 756.69 178.92 406.02 610.02 930.80 438.76 1099.08 447.02 1043.69 560.22 935.92 650.84 1063.44 659.36
00006345 00000120 756.43 171.04 404.94 616.01 930.41 428.90 1095.28 440.31 1040.61 550.18 935.93 646.48 1058.04 657.36
00006346 00000121 756.33 166.20 402.28 623.75 931.79 419.50 1094.24 434.05 1041.65 544.94 934.28 643.93 1053.82 657.61
00006347 00000122 753.82 168.61 403.70 620.55 929.87 411.99 1094.03 426.89 1040.06 540.75 930.59 641.18 1051.17 655.22
00006348 00000123 753.49 159.77 404.09 624.13 930.18 406.13 1092.64 422.01 1040.21 534.11 928.04 635.07 1049.07 649.59
00006349 00000124 753.26 155.22 403.64 623.21 932.11 395.62 1092.66 413.45 1043.34 526.02 929.14 626.49 1050.02 642.39
00006350 00000125 751.54 154.83 401.10 615.12 931.31 390.55 1091.94 408.18 1044.01 518.90 931.53 617.74 1052.60 633.23
00006351 00000126 750.80 153.41 398.22 612.58 928.44 389.83 1090.42 406.35 1044.60 516.03 930.07 613.00 1055.19 627.20
00006352 00000127 748.22 154.70 397.50 610.26 925.15 390.87 1088.04 407.09 1042.13 514.33 928.71 612.20 1054.71 626.10
00006353 00000128 746.27 158.52 396.84 605.91 921.05 392.72 1084.11 407.35 1037.52 514.31 926.47 612.45 1052.74 625.23
00006354 00000129 743.24 161.49 396.67 602.05 919.92 397.87 1079.82 410.40 1034.45 516.18 923.43 613.58 1049.30 625.15
00006355 00000130 740.05 160.77 398.43 599.86 915.01 401.45 1074.67 408.58 1027.03 519.38 918.56 614.92 1044.39 622.52
00006356 00000131 738.32 160.48 396.97 599.88 910.10 400.18 1074.58 405.93 1025.73 521.80 915.21 616.09 1045.96 622.40
00006357 00000132 739.81 159.59 395.40 601.09 908.66 398.78 1075.36 406.24 1025.58 521.57 916.42 616.97 1048.45 624.30
00006358 00000133 739.74 158.48 395.84 601.70 907.55 403.12 1080.75 408.19 1029.41 519.98 921.58 622.35 1056.95 626.78
00006359 00000134 739.21 160.97 396.92 598.67 905.69 403.49 1081.76 408.98 1028.23 521.71 919.97 623.12 1057.68 627.84
00006360 00000135 738.41 164.38 397.32 595.14 904.98 404.83 1082.14 411.05 1026.86 525.53 919.74 625.30 1057.19 630.45
00006361 00000136 737.71 168.42 398.59 596.60 906.93 403.37 1077.74 414.04 1022.88 531.66 914.24 624.55 1045.79 634.94
00006362 00000137 738.92 169.65 399.24 608.69 909.10 404.76 1077.22 418.98 1021.69 534.44 911.87 630.34 1039.56 644.18
00006363 00000138 738.21 172.36 399.76 610.94 912.86 403.51 1077.06 419.01 1023.71 534.30 914.21 632.25 1037.15 647.23
00006364 00000139 737.93 173.15 400.79 609.21 913.20 401.10 1078.30 416.54 1024.84 532.70 914.36 630.19 1038.35 645.11
00006365 00000140 739.01 170.05 399.79 604.21 911.04 398.55 1078.91 410.52 1025.74 531.03 914.91 625.15 1044.32 636.75
00006366 00000141 738.07 169.40 400.13 594.09 910.14 397.74 1081.09 406.61 1027.47 528.43 917.02 621.04 1049.56 629.91
00006367 00000142 738.04 170.29 399.38 588.64 909.93 397.62 1082.11 405.69 1028.71 526.47 918.49 619.14 1052.06 627.32
00006368 00000143 738.16 170.40 399.22 585.55 909.05 396.81 1082.89 404.25 1029.74 525.05 918.93 618.51 1053.41 626.15
00006369 00000144 739.27 168.58 397.65 586.08 909.09 395.51 1082.76 403.45 1030.09 522.40 918.51 616.50 1053.68 624.33
00006370 00000145 739.99 163.08 396.87 592.89 907.97 395.40 1079.68 402.54 1029.09 520.95 918.27 615.24 1053.55 622.12
00006371 00000146 739.65 158.00 395.58 596.92 909.40 399.79 1078.78 406.07 1028.96 521.71 917.50 615.24 1052.04 621.58
00006372 00000147 739.91 156.54 394.59 595.32 909.37 402.60 1078.00 407.00 1028.25 520.62 915.94 614.50 1050.18 619.64
00006373 00000148 738.75 152.81 394.76 600.56 909.12 400.45 1081.06 407.26 1032.64 513.18 919.98 613.84 1055.73 619.96
00006374 00000149 737.10 148.70 397.77 599.23 902.90 392.52 1082.32 402.07 1029.52 504.03 915.36 608.34 1055.47 616.57
00006375 00000150 736.78 141.97 395.78 598.63 901.84 387.38 1080.32 396.88 1029.36 499.06 915.23 602.67 1054.28 610.68
00006376 00000151 733.40 140.43 394.05 592.95 897.67 379.85 1074.84 389.55 1026.84 490.75 912.97 595.58 1049.61 603.42
00006377 00000152 732.24 137.15 392.76 584.08 897.87 377.58 1070.46 388.99 1024.33 484.35 911.55 587.10 1044.93 596.68
00006378 00000153 732.18 135.50 391.50 581.10 900.82 374.89 1066.93 388.66 1024.33 478.34 911.74 580.60 1041.81 592.63
00006379 00000154 732.99 138.91 391.68 571.37 897.39 367.89 1068.55 384.66 1019.32 471.25 907.43 574.21 1041.79 588.57
00006380 00000155 733.93 142.76 391.44 566.31 897.50 361.86 1070.43 380.91 1020.37 463.72 906.65 568.23 1043.74 584.42
00006381 00000156 732.46 134.93 395.40 573.00 898.10 354.42 1072.70 373.67 1022.02 459.97 907.46 566.04 1044.71 582.25
00006382 00000157 733.99 131.19 396.13 577.18 898.68 349.17 1072.34 366.83 1021.16 455.23 908.09 563.55 1045.54 578.55
00006383 00000158 733.80 128.63 399.25 582.03 898.37 346.18 1070.25 363.19 1017.48 454.54 908.47 564.48 1041.40 578.73
00006384 00000159 733.26 129.86 402.09 585.95 898.14 345.65 1069.93 363.05 1015.45 454.00 906.98 566.55 1039.33 581.10
00006385 00000160 732.52 129.62 404.16 588.48 898.23 346.13 1069.82 363.84 1014.93 455.15 906.14 568.11 1038.10 582.97
00006386 00000161 732.69 130.92 403.66 586.06 898.75 347.75 1069.36 364.99 1015.50 455.50 907.21 567.70 1039.13 582.08
00006387 00000162 733.19 132.75 401.15 580.44 899.10 352.73 1070.00 370.06 1018.30 456.26 907.55 566.73 1042.45 581.21
00006388 00000163 733.50 137.48 398.96 574.79 901.61 359.74 1068.33 376.20 1019.33 460.64 908.71 567.41 1042.10 581.40
00006389 00000164 734.19 139.20 397.76 571.79 902.12 360.86 1070.34 378.41 1021.32 461.92 909.44 568.01 1043.51 582.82
00006390 00000165 736.41 136.55 397.43 573.11 902.09 359.93 1074.42 377.70 1022.43 463.44 910.02 569.77 1046.68 584.87
00006391 00000166 738.11 134.17 396.13 573.40 902.39 359.75 1076.47 377.25 1023.71 465.52 910.87 570.30 1049.70 585.20
