Video ID: 	zNuaj6-LvUE
H: 	1080
W: 	1920
FPS: 	25.0

FRAME INDEX X0 Y0 W H [Landmarks (5 Points)]

00005040 00000000 1019.97 195.53 389.17 488.65 1111.68 360.90 1260.39 416.76 1120.72 449.40 1061.41 522.85 1185.46 568.53
00005041 00000001 1018.99 199.90 387.18 488.68 1112.64 364.33 1264.76 420.74 1125.21 450.54 1060.68 528.71 1185.07 574.98
00005042 00000002 1017.85 197.08 389.75 484.32 1110.66 361.72 1262.08 416.98 1122.52 448.54 1060.50 524.84 1187.69 569.71
00005043 00000003 1017.62 190.33 393.82 478.49 1105.16 357.43 1256.74 410.66 1117.33 445.25 1056.43 518.67 1187.41 561.07
00005044 00000004 1014.83 183.85 396.78 478.96 1105.34 349.89 1258.77 404.04 1121.04 439.80 1054.98 515.74 1182.17 558.54
00005045 00000005 1014.54 180.23 398.72 480.57 1106.59 347.21 1259.10 401.47 1122.16 436.35 1054.33 513.67 1177.88 556.63
00005046 00000006 1014.48 187.50 397.58 470.21 1104.73 345.86 1258.29 402.10 1116.93 435.58 1050.74 510.46 1179.42 554.88
00005047 00000007 1013.15 181.18 396.41 479.59 1102.69 344.68 1254.02 398.49 1113.34 430.77 1048.21 510.36 1173.26 552.98
00005048 00000008 1001.13 177.82 396.66 488.95 1092.68 333.13 1240.95 397.61 1101.99 430.50 1042.83 504.77 1161.81 556.64
00005049 DELETE   995.78 183.02 393.47 483.02 1085.42 338.53 1226.53 404.14 1087.83 431.07 1034.50 507.48 1148.40 560.23
00005050 DELETE   987.49 195.12 388.90 466.87 1072.07 354.70 1207.38 404.64 1067.14 437.86 1015.69 515.58 1127.56 554.97
00005051 00000011 982.09 199.69 380.29 465.08 1064.90 355.53 1192.39 408.46 1055.35 441.31 1006.13 518.63 1110.13 560.45
00005052 00000012 981.67 200.79 380.61 467.20 1065.63 354.78 1194.11 410.89 1056.80 443.13 1006.56 519.38 1110.66 563.86
00005053 00000013 992.12 201.16 376.90 467.78 1074.58 354.68 1206.06 414.43 1068.94 446.61 1015.24 521.29 1118.29 568.35
00005054 00000014 1001.29 203.15 387.13 467.68 1080.92 356.63 1218.63 411.78 1078.33 447.34 1027.18 524.75 1136.59 568.02
00005055 DELETE   1003.89 211.18 389.42 463.68 1087.81 373.03 1223.39 429.88 1089.22 454.32 1035.06 531.00 1146.81 574.90
00005056 DELETE   1004.79 203.09 380.21 484.30 1085.97 389.54 1211.74 456.74 1068.69 476.01 1038.16 542.55 1135.82 596.72
00005057 00000017 1005.87 211.89 372.86 488.66 1083.13 395.80 1207.42 464.76 1064.68 490.29 1037.81 560.91 1127.97 615.49
00005058 DELETE   1006.70 208.89 380.95 474.47 1089.58 384.89 1217.32 454.73 1071.11 471.69 1039.47 536.08 1140.03 592.46
00005059 DELETE   1018.98 200.48 392.15 474.36 1102.77 368.20 1240.00 433.96 1082.36 449.41 1047.99 524.12 1155.58 577.18
00005060 00000020 1024.33 166.86 398.02 506.18 1110.19 348.92 1261.28 409.12 1108.64 445.04 1062.23 529.24 1169.30 577.71
00005061 00000021 1044.10 183.83 386.62 493.41 1130.55 357.98 1268.39 413.84 1138.13 448.25 1075.32 533.86 1175.34 580.19
00005062 00000022 1034.92 172.50 388.45 504.42 1120.54 349.15 1275.30 410.31 1123.44 447.18 1072.31 531.25 1183.84 580.67
00005063 00000023 1035.48 171.51 386.00 498.71 1122.67 347.77 1275.33 409.65 1125.89 445.06 1075.61 520.76 1191.49 570.88
00005064 00000024 1037.75 178.38 386.00 487.63 1125.90 342.52 1281.49 407.23 1129.77 442.88 1077.82 513.32 1199.50 565.55
00005065 00000025 1047.19 188.86 387.66 474.65 1136.61 347.93 1280.68 414.11 1145.52 444.10 1087.50 505.70 1212.28 559.53
00005066 00000026 1051.32 189.90 387.33 474.13 1140.16 346.60 1284.59 415.32 1146.78 445.15 1087.48 505.85 1211.38 561.25
00005067 00000027 1056.67 190.52 384.46 475.50 1143.46 349.20 1286.28 414.87 1147.70 446.08 1089.23 512.91 1205.93 565.86
00005068 00000028 1058.11 188.24 384.94 486.32 1146.20 352.26 1288.33 415.81 1151.06 451.33 1091.23 523.14 1200.45 574.47
00005069 00000029 1055.31 188.85 388.85 491.06 1146.23 356.01 1288.18 417.83 1153.25 452.92 1089.94 529.47 1196.51 579.65
00005070 00000030 1057.35 190.13 389.33 486.69 1148.17 355.19 1291.94 419.30 1155.37 452.77 1092.66 523.39 1202.44 575.17
00005071 00000031 1057.11 187.92 393.45 482.94 1148.48 345.40 1295.41 423.00 1149.63 454.39 1091.98 508.24 1213.29 570.66
00005072 00000032 1054.08 190.31 396.29 480.47 1144.37 337.83 1296.36 425.72 1153.83 452.11 1093.65 498.09 1221.36 568.84
00005073 00000033 1053.75 189.72 396.49 479.23 1144.53 336.72 1296.11 424.17 1154.48 450.43 1094.16 495.69 1221.91 566.15
00005074 00000034 1052.57 193.08 393.50 475.41 1142.43 336.65 1294.46 423.96 1152.91 451.14 1092.39 496.15 1220.97 566.49
00005075 00000035 1051.66 191.88 393.96 477.16 1141.98 335.33 1294.14 423.28 1150.98 449.40 1091.26 496.62 1219.34 567.37
00005076 00000036 1051.60 190.53 392.80 479.73 1141.96 336.65 1293.62 423.67 1151.31 448.76 1090.88 498.45 1218.79 568.31
00005077 00000037 1051.43 182.74 390.38 486.28 1143.23 337.40 1292.10 423.57 1152.01 448.75 1091.64 500.55 1214.20 569.97
00005078 00000038 1056.19 179.43 388.06 491.76 1145.21 346.56 1293.45 416.51 1151.32 453.64 1091.98 514.27 1212.07 570.87
00005079 00000039 1055.60 181.85 386.26 490.26 1144.22 348.13 1291.51 415.27 1151.40 453.63 1091.14 518.77 1209.38 573.27
00005080 00000040 1052.54 179.91 388.05 495.09 1141.98 349.85 1291.20 413.52 1153.38 453.22 1088.99 525.62 1206.53 577.65
00005081 00000041 1052.76 178.83 386.76 496.69 1141.42 350.65 1290.28 412.34 1153.87 453.23 1088.78 528.34 1204.50 578.86
00005082 00000042 1052.54 180.05 386.95 497.20 1141.85 352.55 1289.83 411.92 1154.74 450.37 1089.29 530.33 1202.50 579.02
00005083 00000043 1051.85 186.88 387.16 491.16 1141.09 354.16 1289.94 410.06 1154.24 449.31 1089.16 533.15 1202.76 578.97
00005084 00000044 1050.33 180.14 385.47 498.16 1139.38 354.67 1287.90 410.72 1154.62 449.18 1088.39 533.35 1202.02 579.86
00005085 00000045 1047.59 183.59 386.74 496.14 1137.35 356.64 1285.65 412.88 1153.72 450.99 1086.50 535.89 1199.91 582.56
00005086 00000046 1044.20 180.85 388.81 501.08 1133.41 357.73 1283.72 415.19 1152.00 454.10 1083.84 537.34 1197.40 585.22
00005087 00000047 1040.87 177.97 395.76 508.84 1132.83 350.68 1276.75 416.93 1134.40 446.14 1084.16 532.88 1194.12 588.64
00005088 00000048 1040.00 175.50 396.93 511.90 1131.19 351.94 1274.57 416.99 1132.40 444.81 1083.01 533.18 1192.18 587.88
00005089 00000049 1039.76 176.82 396.96 511.24 1130.80 351.82 1274.10 416.69 1132.05 444.90 1082.74 533.17 1192.49 587.78
00005090 00000050 1040.29 174.85 396.13 513.22 1130.84 351.91 1274.09 416.35 1131.85 444.76 1082.14 533.79 1191.87 588.01
00005091 00000051 1040.41 174.76 396.59 513.46 1131.03 350.80 1274.53 415.10 1131.96 444.86 1082.92 534.05 1192.39 588.22
00005092 00000052 1040.97 171.18 395.04 516.79 1130.57 351.09 1274.97 414.07 1132.33 444.73 1084.34 535.53 1193.59 588.50
00005093 00000053 1041.39 175.27 393.22 511.68 1130.71 351.30 1274.70 413.41 1132.65 445.30 1084.80 535.15 1194.36 587.73
00005094 00000054 1034.98 172.81 389.52 511.23 1119.97 352.61 1283.39 407.73 1134.15 449.95 1078.06 542.72 1192.24 587.54
00005095 00000055 1041.97 178.27 391.68 508.05 1129.82 351.24 1273.66 412.92 1132.33 445.25 1084.22 534.67 1194.43 586.99
00005096 00000056 1033.71 173.21 389.80 511.13 1118.31 352.19 1281.64 408.51 1131.86 451.01 1075.47 542.06 1190.55 587.87
00005097 00000057 1033.25 171.49 389.14 514.20 1117.40 353.37 1279.84 408.78 1131.10 449.76 1073.70 541.79 1188.95 586.89
00005098 00000058 1040.06 175.43 393.58 513.35 1126.95 348.88 1271.45 413.42 1129.05 444.08 1080.92 532.88 1192.69 587.31
00005099 00000059 1033.00 177.79 388.98 508.41 1117.00 348.97 1280.80 406.93 1131.01 449.01 1073.08 538.59 1191.79 585.46
00005100 00000060 1033.66 178.18 387.49 505.18 1115.74 347.87 1280.97 405.31 1130.18 447.25 1071.79 537.04 1193.07 583.41
00005101 00000061 1032.88 183.07 386.74 496.23 1117.53 345.20 1281.62 403.38 1132.85 445.41 1071.98 532.87 1194.94 579.66
00005102 00000062 1030.92 186.13 388.12 491.74 1118.41 341.75 1281.62 401.69 1132.86 441.79 1070.31 527.93 1194.81 576.07
00005103 00000063 1030.00 183.89 387.13 496.63 1117.96 341.24 1281.43 400.31 1132.50 440.23 1070.08 528.69 1195.46 576.15
00005104 00000064 1030.05 186.08 384.76 506.26 1112.84 342.81 1279.24 398.37 1130.70 441.21 1069.17 537.16 1194.90 581.77
00005105 00000065 1041.14 181.62 380.27 510.64 1121.59 349.44 1285.50 393.03 1138.87 437.64 1075.62 537.26 1207.12 575.79
00005106 00000066 1039.27 178.43 386.55 508.66 1122.50 350.66 1289.84 396.39 1143.90 441.07 1078.74 534.97 1215.26 574.61
00005107 00000067 1039.66 173.81 390.94 518.00 1134.08 344.10 1287.08 407.16 1155.17 441.64 1091.89 529.06 1219.22 582.87
00005108 00000068 1044.10 177.39 391.47 512.87 1139.69 351.34 1297.85 409.09 1166.45 447.42 1098.98 533.75 1227.10 583.11
00005109 00000069 1050.67 179.33 391.17 503.06 1150.18 356.90 1312.89 415.70 1187.93 450.31 1108.82 528.31 1238.34 576.86
00005110 00000070 1056.34 173.62 386.57 505.07 1158.29 363.25 1321.35 422.19 1198.92 456.71 1117.45 527.78 1247.40 576.11
00005111 00000071 1059.52 175.69 390.70 505.47 1167.78 368.98 1334.69 428.42 1214.58 466.66 1126.97 525.93 1264.87 574.28
00005112 00000072 1060.37 179.58 404.44 516.60 1171.42 377.95 1340.20 429.16 1218.27 465.41 1138.71 541.96 1270.81 583.24
00005113 00000073 1065.89 180.98 396.05 529.84 1173.83 386.15 1339.15 433.79 1219.23 473.00 1141.99 555.73 1271.45 595.52
00005114 00000074 1061.98 182.63 398.70 534.72 1173.53 392.84 1339.64 441.61 1218.26 480.83 1139.96 565.67 1268.14 606.03
00005115 00000075 1059.87 187.26 391.44 536.09 1168.40 404.24 1327.11 451.50 1208.92 495.32 1133.14 571.13 1253.39 609.71
00005116 00000076 1059.35 200.91 388.16 519.82 1160.39 410.12 1319.01 457.34 1202.20 502.37 1125.28 572.40 1251.90 610.50
00005117 00000077 1057.97 198.01 385.47 521.23 1154.36 414.21 1312.65 464.61 1190.52 510.36 1118.65 572.47 1248.82 612.89
00005118 00000078 1058.82 213.21 383.64 508.74 1148.76 417.25 1305.27 469.90 1182.60 514.93 1114.41 576.03 1249.49 618.32
00005119 00000079 1061.97 215.57 379.19 511.61 1146.17 421.37 1299.95 477.47 1174.93 520.40 1111.09 579.77 1241.14 625.77
00005120 00000080 1059.29 230.10 378.37 498.45 1140.30 420.88 1292.08 480.27 1166.04 523.79 1105.32 583.10 1231.31 631.97
00005121 00000081 1054.25 226.89 375.34 500.49 1132.59 420.32 1279.21 481.76 1151.58 521.83 1099.59 582.87 1219.07 633.75
00005122 00000082 1050.51 228.17 375.96 494.76 1128.20 419.22 1275.03 478.94 1146.86 519.08 1095.97 578.96 1216.30 628.32
00005123 00000083 1041.51 222.61 382.51 499.30 1111.85 418.12 1269.65 465.05 1136.51 518.16 1081.17 582.71 1215.85 620.20
00005124 00000084 1038.22 221.85 381.16 500.76 1112.92 417.49 1270.85 464.49 1140.71 517.61 1080.99 582.99 1217.08 620.73
00005125 00000085 1041.60 206.67 380.12 511.24 1124.00 415.86 1281.39 466.48 1156.18 515.38 1090.28 575.88 1228.14 616.03
00005126 DELETE   1039.32 197.35 393.85 512.08 1133.41 401.40 1294.91 456.90 1169.88 500.17 1096.29 563.01 1231.43 607.88
00005127 00000087 1045.62 195.21 388.56 502.13 1149.08 388.09 1301.83 447.83 1181.80 482.65 1105.37 543.41 1238.35 592.55
00005128 00000088 1047.85 197.54 385.66 491.09 1146.85 384.10 1303.99 437.87 1185.28 478.14 1107.12 540.79 1245.26 585.24
00005129 00000089 1046.86 190.20 386.99 502.33 1146.92 383.06 1301.72 438.60 1183.24 480.72 1106.08 541.78 1240.87 587.99
00005130 00000090 1041.32 191.10 389.28 513.23 1148.34 383.20 1296.45 440.09 1179.99 478.62 1105.83 546.58 1229.40 594.11
00005131 00000091 1039.47 206.54 385.17 508.74 1141.04 378.87 1293.91 436.62 1175.04 480.45 1097.99 552.75 1229.69 601.25
00005132 00000092 1031.29 200.51 391.08 513.55 1127.11 382.22 1294.10 428.01 1160.88 472.32 1093.22 556.42 1236.71 595.49
00005133 00000093 1028.69 197.55 393.15 512.87 1124.99 382.78 1292.45 428.84 1159.60 469.27 1090.77 554.97 1234.18 594.16
00005134 00000094 1028.19 196.04 394.19 503.63 1125.40 382.00 1291.68 431.12 1160.21 468.68 1091.41 548.28 1234.86 589.76
00005135 00000095 1033.26 202.96 389.10 486.43 1138.97 372.63 1290.06 435.98 1171.75 474.00 1094.01 532.19 1227.07 584.95
00005136 00000096 1035.20 193.89 388.88 491.35 1140.11 370.85 1290.57 432.99 1173.91 473.61 1098.28 532.42 1229.48 584.08
00005137 00000097 1038.75 193.14 389.66 491.80 1144.58 367.32 1294.17 430.09 1176.98 470.09 1101.27 531.29 1230.47 583.90
00005138 00000098 1039.71 196.52 391.85 488.14 1146.85 364.99 1295.26 427.05 1177.05 466.74 1101.50 531.11 1228.16 583.67
00005139 00000099 1043.36 194.30 390.39 483.80 1147.45 361.63 1293.81 424.27 1173.40 461.39 1102.11 523.25 1229.82 576.22
00005140 00000100 1044.68 193.47 390.75 482.84 1147.41 359.06 1296.48 421.59 1173.76 460.30 1103.68 521.42 1233.97 574.11
00005141 00000101 1044.15 187.96 392.02 487.20 1144.89 355.17 1296.20 419.55 1171.55 459.04 1101.88 520.34 1231.64 574.54
00005142 00000102 1045.98 190.71 385.77 478.91 1145.42 345.77 1301.57 417.05 1179.69 455.69 1102.00 512.39 1231.28 570.37
00005143 00000103 1047.00 181.23 383.74 476.56 1148.13 338.33 1298.33 410.80 1175.31 443.19 1099.84 498.00 1227.51 556.92
00005144 00000104 1050.26 167.85 389.43 484.52 1152.30 332.77 1304.85 394.64 1178.21 426.03 1104.87 497.85 1230.12 548.43
00005145 00000105 1055.97 155.35 387.05 479.41 1156.46 321.11 1307.95 377.88 1183.75 409.46 1113.34 480.21 1240.53 526.81
00005146 00000106 1063.13 135.70 387.57 473.66 1162.30 304.51 1315.35 359.35 1187.89 392.32 1116.36 457.93 1248.96 503.23
00005147 00000107 1072.67 125.08 386.74 481.85 1164.72 284.99 1324.23 344.05 1196.69 385.34 1125.33 448.38 1260.27 495.52
00005148 00000108 1073.23 114.58 389.06 485.57 1168.50 278.93 1327.89 333.90 1202.01 377.91 1131.81 448.73 1264.43 492.38
00005149 00000109 1078.26 106.65 383.40 492.03 1173.75 275.76 1332.61 329.28 1208.86 375.28 1139.99 449.37 1269.82 491.73
00005150 00000110 1080.62 98.18 384.85 502.61 1177.32 276.92 1340.46 327.84 1216.96 373.45 1143.41 453.06 1275.54 493.40
00005151 00000111 1092.48 79.19 387.51 518.19 1173.74 284.12 1346.42 326.30 1217.52 375.98 1148.77 460.96 1295.01 495.40
00005152 00000112 1088.82 82.81 387.50 521.86 1177.89 291.43 1350.77 337.39 1224.84 384.51 1153.74 467.35 1300.86 504.35
00005153 00000113 1082.51 98.48 389.18 522.02 1179.35 302.34 1352.92 345.47 1233.76 391.40 1156.63 476.47 1305.11 512.12
00005154 00000114 1084.16 112.86 383.76 515.74 1180.11 313.93 1350.16 351.53 1233.74 397.94 1156.82 488.69 1299.66 520.53
00005155 00000115 1080.11 105.66 391.34 523.72 1176.55 320.29 1349.24 361.08 1229.19 404.23 1156.43 491.64 1298.53 524.84
00005156 00000116 1079.03 115.51 386.26 518.65 1178.54 330.71 1339.24 369.27 1221.50 428.67 1144.10 491.13 1285.16 522.17
00005157 00000117 1078.64 114.17 385.76 529.95 1176.38 339.14 1340.96 381.93 1218.79 442.12 1138.43 499.66 1282.90 534.20
00005158 00000118 1073.32 118.50 383.87 537.10 1169.25 346.64 1331.75 394.62 1207.36 447.78 1133.42 511.76 1264.77 550.52
00005159 00000119 1069.63 118.21 387.16 548.82 1164.07 348.65 1324.65 396.33 1197.83 444.60 1131.90 523.11 1248.32 561.95
00005160 00000120 1067.27 111.85 387.01 552.05 1166.31 338.88 1319.57 385.00 1194.03 431.90 1131.60 516.90 1238.56 555.17
00005161 00000121 1067.62 113.54 394.17 520.97 1172.33 317.43 1324.22 370.08 1199.32 412.27 1132.55 489.25 1242.29 532.80
00005162 00000122 1072.26 112.34 392.16 500.37 1171.30 295.09 1335.66 353.57 1213.30 396.98 1133.13 458.86 1267.96 506.36
00005163 00000123 1082.11 99.03 392.62 502.54 1176.11 287.33 1339.27 338.24 1209.88 382.13 1138.83 455.65 1275.13 496.38
00005164 00000124 1083.10 103.23 394.26 492.11 1179.37 282.71 1343.49 333.57 1214.96 374.08 1140.78 450.55 1278.82 491.43
00005165 00000125 1083.84 109.56 391.90 484.76 1182.32 281.08 1341.02 331.18 1214.79 371.25 1144.39 444.70 1276.86 485.51
00005166 00000126 1084.46 104.31 390.44 488.90 1180.62 280.62 1339.42 328.62 1214.49 371.81 1144.49 447.21 1271.11 486.27
00005167 00000127 1078.41 103.96 388.50 499.40 1177.87 285.83 1335.93 332.74 1214.15 376.15 1138.82 457.68 1265.30 495.48
00005168 00000128 1067.80 107.15 388.66 502.29 1173.86 292.88 1331.51 349.24 1204.79 393.27 1128.63 460.66 1262.53 507.23
00005169 00000129 1056.48 131.37 386.86 488.23 1163.10 310.46 1322.54 363.17 1204.73 402.49 1117.55 467.62 1260.68 511.57
00005170 00000130 1050.22 116.77 387.13 518.39 1153.53 316.29 1317.70 370.05 1197.04 416.15 1112.42 481.29 1258.23 525.97
00005171 00000131 1045.12 121.49 388.38 520.69 1149.18 317.77 1311.86 372.83 1193.55 419.05 1106.25 483.88 1253.14 529.51
00005172 00000132 1043.67 119.29 387.88 516.36 1149.36 315.67 1308.47 370.01 1191.49 412.72 1107.54 481.67 1244.45 527.03
00005173 00000133 1046.20 120.46 385.84 501.08 1149.99 313.54 1304.13 365.95 1189.56 409.49 1108.42 475.96 1240.14 520.09
00005174 00000134 1046.06 119.36 384.33 497.19 1150.17 312.08 1303.31 364.13 1190.73 407.09 1108.76 473.04 1235.82 517.43
00005175 00000135 1043.38 126.43 383.56 488.34 1150.07 312.91 1300.52 365.43 1189.04 405.72 1107.74 472.26 1229.98 517.00
00005176 00000136 1039.19 127.10 380.71 495.62 1146.95 315.18 1291.97 368.64 1183.09 409.87 1108.65 479.04 1222.26 524.07
00005177 00000137 1032.76 137.48 382.52 497.44 1135.87 316.89 1285.24 371.37 1173.41 417.05 1099.94 491.27 1213.47 536.62
00005178 00000138 1025.86 125.16 389.39 514.45 1124.05 322.96 1282.02 372.06 1156.42 420.53 1086.89 500.11 1201.21 540.44
00005179 00000139 1022.09 140.99 387.23 505.45 1119.99 326.15 1278.28 377.59 1151.05 424.78 1081.73 505.50 1193.49 547.65
00005180 00000140 1019.99 138.99 386.54 514.32 1118.14 331.40 1275.14 383.15 1150.43 428.01 1081.22 510.35 1191.47 552.46
00005181 00000141 1018.15 152.24 387.20 503.64 1114.24 332.45 1273.20 385.42 1149.39 434.83 1078.24 515.16 1192.07 558.33
00005182 00000142 1015.15 156.95 390.67 499.12 1113.27 332.50 1274.96 387.64 1150.34 439.16 1075.01 511.78 1198.56 556.36
00005183 00000143 1013.00 158.79 391.76 493.17 1112.37 332.75 1273.87 388.54 1148.93 439.17 1072.19 504.27 1204.25 549.25
00005184 00000144 1009.78 158.72 394.99 490.32 1113.48 329.55 1276.27 388.31 1148.57 439.10 1067.22 496.96 1209.87 544.35
00005185 00000145 1007.73 162.43 395.56 486.71 1112.06 329.01 1275.18 388.37 1146.94 438.28 1065.23 495.87 1207.62 543.73
00005186 00000146 1004.11 164.81 397.38 484.02 1112.40 329.15 1274.61 388.90 1148.64 436.96 1064.13 495.27 1205.00 543.48
00005187 00000147 1003.18 165.22 397.11 484.25 1111.98 331.08 1274.52 390.55 1149.43 438.16 1064.48 497.59 1203.43 545.50
00005188 00000148 1005.10 158.95 393.88 491.87 1112.03 334.80 1273.74 390.82 1149.76 438.14 1068.60 503.44 1201.36 548.60
00005189 00000149 1006.40 155.34 392.82 495.90 1110.59 336.22 1272.90 389.71 1149.16 438.41 1070.12 507.33 1199.46 550.45
CROP_BBOX: 776 0 1685 858
