Video ID: 	WZHISyfNCoA
H: 	1080
W: 	1920
FPS: 	25.0

FRAME INDEX X0 Y0 W H [Landmarks (5 Points)]

00007369 00000000 418.04 231.05 430.02 582.54 508.68 487.30 685.46 478.48 588.29 596.39 545.34 688.25 689.43 680.01
00007370 00000001 413.55 225.17 426.99 584.23 500.45 484.01 677.69 478.06 578.74 597.09 533.71 688.10 676.30 682.03
00007371 00000002 410.74 226.27 424.88 581.84 493.70 482.09 671.00 476.98 568.99 592.32 526.80 685.78 671.20 680.10
00007372 00000003 406.10 225.17 424.97 577.59 486.47 480.47 663.82 471.93 563.53 586.87 523.35 683.27 666.08 675.09
00007373 00000004 401.91 216.21 428.69 579.20 485.12 474.31 659.90 463.48 554.84 577.01 525.96 670.02 661.57 661.05
00007374 00000005 401.25 211.36 425.16 579.35 480.65 467.69 652.47 458.06 545.63 567.93 519.58 666.22 651.45 658.78
00007375 00000006 402.11 206.63 422.49 580.69 480.23 462.47 650.79 453.40 543.15 560.35 516.70 660.57 648.65 653.73
00007376 00000007 407.55 203.16 421.96 586.38 489.93 456.47 660.71 447.98 558.13 558.55 528.09 656.80 662.82 650.09
00007377 DELETE   414.97 206.14 427.51 581.32 508.33 461.86 688.03 440.93 600.80 554.63 558.27 664.45 697.20 646.53
00007378 DELETE   428.77 190.88 436.70 598.86 546.28 453.75 731.58 436.54 645.91 554.21 593.52 657.56 735.88 644.78
00007379 DELETE   454.82 201.40 425.24 576.35 580.58 456.41 766.25 437.06 689.88 560.22 633.28 656.48 776.13 641.91
00007380 00000011 464.83 203.18 421.63 580.49 599.77 463.25 781.83 434.72 718.93 560.53 654.13 663.04 794.35 640.77
00007381 00000012 470.84 201.68 423.61 582.85 613.69 466.41 794.63 437.75 737.32 565.86 671.10 668.02 806.71 644.66
00007382 00000013 484.86 202.89 415.11 579.61 623.55 459.99 796.90 430.92 751.41 553.72 687.51 670.60 815.72 643.91
00007383 00000014 486.56 206.13 414.61 577.17 627.11 463.28 802.23 435.29 756.80 555.93 693.15 673.19 822.26 647.07
00007384 00000015 490.03 213.45 413.52 573.28 632.45 466.62 810.65 439.72 762.74 564.71 695.39 677.67 827.32 652.74
00007385 00000016 494.11 220.58 413.27 568.62 638.75 470.18 816.14 444.76 768.76 570.41 699.40 679.17 832.24 655.63
00007386 00000017 500.22 219.18 412.69 568.05 646.56 473.85 826.93 449.76 777.88 572.65 703.95 681.43 839.04 659.10
00007387 00000018 504.76 217.40 411.16 567.97 657.49 473.89 834.72 449.63 790.03 571.62 712.46 681.16 844.04 659.11
00007388 00000019 510.29 214.56 409.94 571.30 666.25 472.13 842.87 447.32 801.97 569.01 718.15 680.67 849.63 658.44
00007389 00000020 517.60 216.11 410.01 581.76 673.78 468.20 841.09 448.63 803.76 567.89 725.71 678.23 854.99 662.32
00007390 00000021 525.43 216.99 412.20 583.29 680.19 469.62 848.45 448.92 811.11 566.54 734.25 679.21 862.19 662.04
00007391 00000022 528.61 214.26 410.53 586.61 690.89 469.87 854.55 446.58 821.91 565.90 744.31 678.86 867.09 659.33
00007392 00000023 534.98 214.86 403.96 581.40 698.36 470.17 859.49 443.28 830.58 565.03 754.99 677.65 875.06 655.07
00007393 00000024 537.11 213.93 403.23 578.66 700.25 468.85 863.16 442.39 833.67 564.40 758.12 676.51 879.10 654.14
00007394 00000025 537.84 213.70 402.42 575.00 697.16 466.90 865.64 443.81 833.98 564.55 755.91 676.38 881.54 656.71
00007395 00000026 538.02 212.04 399.87 569.58 699.78 462.31 864.55 441.95 835.33 560.63 755.73 673.24 877.24 655.86
00007396 00000027 536.91 212.21 399.33 572.61 704.10 459.57 861.18 440.31 835.38 555.82 755.79 668.25 873.07 652.06
00007397 00000028 534.59 208.06 401.71 573.18 698.94 458.58 860.08 439.22 833.28 555.10 753.03 666.45 875.29 649.71
00007398 00000029 527.79 208.08 406.07 570.70 695.50 466.73 867.48 439.06 831.91 564.58 749.06 666.33 878.65 644.29
00007399 00000030 526.71 205.44 402.95 575.03 694.33 466.04 862.75 438.67 828.42 562.95 746.70 666.08 873.47 644.43
00007400 00000031 524.32 203.16 400.94 585.81 693.37 456.85 848.96 436.63 825.95 551.62 743.30 666.79 861.28 650.15
00007401 00000032 517.62 200.18 404.01 590.74 686.45 461.21 853.62 435.95 820.59 557.56 739.07 665.07 867.60 645.38
00007402 00000033 514.16 198.70 402.27 590.41 680.10 458.18 847.45 433.14 815.90 553.21 734.40 660.99 865.00 641.51
00007403 00000034 506.13 197.05 402.84 578.07 682.82 458.63 842.17 435.46 820.55 543.22 723.95 660.26 849.20 640.50
00007404 DELETE   496.87 193.78 411.93 584.75 660.61 453.00 831.85 434.02 790.46 549.17 706.09 662.39 833.68 644.74
00007405 DELETE   472.56 195.10 424.65 594.55 626.68 457.16 806.95 441.12 746.04 564.88 668.46 663.67 804.75 650.16
00007406 DELETE   458.39 201.73 426.16 581.47 590.73 457.02 776.78 443.97 700.98 563.15 632.60 656.12 776.88 646.92
00007407 00000038 449.06 197.14 425.72 590.29 566.89 452.55 752.31 444.74 666.26 561.01 605.70 653.66 752.20 648.83
00007408 00000039 443.42 189.59 419.98 597.45 549.00 451.19 732.82 443.09 641.60 555.72 585.50 656.68 727.00 651.36
00007409 00000040 439.63 186.20 421.32 604.05 542.91 445.28 729.74 439.16 634.35 553.13 577.54 654.49 723.35 650.60
00007410 00000041 444.03 188.69 418.52 593.75 549.22 441.63 731.50 434.83 641.24 546.95 586.92 651.50 725.13 647.37
00007411 00000042 449.39 186.50 419.76 590.29 555.17 437.89 737.22 431.55 646.72 543.64 592.86 648.54 730.17 644.81
00007412 00000043 450.11 187.74 423.01 584.05 558.81 434.30 742.41 427.64 652.02 541.03 597.46 645.35 735.30 640.93
00007413 00000044 452.40 185.12 424.76 584.38 563.56 431.30 745.66 425.52 656.07 538.78 602.35 641.84 741.13 637.87
00007414 00000045 457.22 185.65 425.14 587.48 568.43 426.79 749.82 421.44 662.31 535.61 608.30 638.84 746.98 635.40
00007415 00000046 459.95 185.30 427.32 585.78 573.57 424.13 759.39 418.90 671.97 535.38 614.64 637.63 755.39 634.09
00007416 00000047 461.82 189.55 429.88 577.37 576.73 422.79 765.20 415.52 677.43 535.30 621.39 639.02 760.76 633.73
00007417 00000048 464.52 188.84 431.59 577.51 581.47 425.10 772.46 417.57 684.41 538.09 624.49 639.10 769.94 633.16
00007418 00000049 464.57 192.52 433.54 574.09 588.76 428.63 781.01 419.41 696.16 538.00 633.33 638.21 780.85 630.61
00007419 00000050 472.63 188.53 430.39 584.06 607.15 438.70 800.01 427.91 723.07 545.47 653.29 649.25 798.67 639.74
00007420 00000051 487.98 186.87 421.56 591.04 637.47 446.98 818.62 429.16 757.86 553.61 684.85 658.77 821.18 642.50
00007421 00000052 502.08 187.78 417.99 590.23 660.20 443.22 839.68 426.99 789.42 545.82 712.50 652.37 849.11 639.79
00007422 00000053 510.64 193.07 411.44 584.55 672.82 449.84 847.61 427.64 807.64 547.70 730.34 655.84 863.83 638.34
00007423 00000054 514.25 197.44 410.09 579.81 677.50 453.79 851.83 429.34 813.53 550.31 735.57 659.72 867.15 640.60
00007424 00000055 516.57 197.55 409.01 582.71 678.21 456.11 853.62 430.67 814.73 553.15 736.20 662.60 869.15 642.66
00007425 00000056 515.61 199.96 410.45 585.23 679.09 460.05 854.52 436.57 814.96 557.30 731.81 662.61 867.51 644.52
00007426 00000057 514.16 206.46 414.60 583.96 680.67 466.76 856.05 446.38 813.19 562.62 725.90 664.17 861.87 649.21
00007427 00000058 518.30 209.19 414.46 588.34 681.25 476.98 857.19 457.39 810.95 575.54 723.52 672.23 860.46 657.99
00007428 00000059 514.18 220.84 414.08 585.39 678.28 484.13 846.38 469.35 806.66 585.78 720.44 688.31 853.19 676.40
00007429 00000060 519.76 228.32 414.21 584.73 678.67 489.35 850.97 473.83 804.95 595.36 721.61 696.25 855.54 683.67
00007430 00000061 525.84 231.52 414.60 582.99 685.10 491.68 853.26 474.91 807.33 598.94 725.64 696.76 855.23 683.50
00007431 00000062 533.49 226.59 412.44 591.06 689.77 489.73 858.97 472.74 811.83 596.70 732.00 698.31 860.87 684.38
00007432 00000063 539.17 226.90 412.29 589.45 694.51 485.80 866.27 473.10 817.37 590.46 736.07 694.93 867.40 683.88
00007433 00000064 543.46 228.08 412.43 587.09 701.58 484.37 873.33 475.26 823.21 589.55 742.17 693.66 871.43 685.31
00007434 00000065 548.37 222.59 410.52 592.86 709.46 484.30 880.46 478.35 831.25 588.91 747.40 693.17 875.25 687.04
00007435 00000066 551.44 223.07 414.14 588.12 716.14 479.94 889.41 478.30 839.57 584.88 752.12 689.11 881.01 686.34
00007436 00000067 554.89 217.44 412.35 589.93 720.05 472.64 889.90 473.84 840.93 578.00 754.97 682.98 880.10 682.38
00007437 00000068 554.09 209.65 411.55 596.95 716.63 467.29 884.15 469.00 835.94 573.42 752.51 680.81 874.48 680.48
00007438 00000069 550.54 206.77 412.38 601.95 710.71 463.90 877.46 465.64 828.50 570.00 744.41 677.47 868.95 677.21
00007439 00000070 544.03 204.72 416.69 604.12 702.55 465.01 877.81 463.65 817.61 573.42 731.34 674.24 866.10 673.05
00007440 00000071 547.61 206.75 413.51 605.27 704.44 461.12 869.93 460.35 821.22 566.48 737.78 676.37 861.82 674.40
00007441 00000072 552.36 205.99 411.03 600.04 709.01 460.25 875.60 460.30 826.35 564.71 744.14 674.59 868.30 673.02
00007442 00000073 553.61 204.91 412.84 597.15 712.34 461.99 884.22 462.18 834.56 567.90 748.46 675.76 877.51 673.90
00007443 00000074 554.79 208.38 413.40 594.18 711.17 466.57 889.30 467.28 835.92 574.39 749.89 680.41 883.51 678.64
00007444 00000075 553.82 206.38 414.08 599.42 709.32 471.22 886.63 469.34 832.61 580.49 750.02 685.15 881.63 681.28
00007445 00000076 551.81 216.35 413.26 596.05 708.57 476.61 883.15 472.71 830.80 583.32 749.57 688.29 880.58 683.12
00007446 00000077 556.07 219.67 411.66 594.60 721.39 480.85 887.37 476.04 841.83 584.77 760.70 691.26 883.23 685.73
00007447 00000078 561.61 219.76 413.13 592.49 731.40 480.71 895.84 477.10 851.38 586.15 767.46 688.83 890.39 684.50
00007448 00000079 568.98 216.26 411.54 591.36 741.10 475.93 911.52 475.35 864.04 583.84 773.68 687.07 899.21 685.15
00007449 00000080 573.37 211.52 410.89 590.27 754.39 473.84 925.01 469.04 887.71 578.75 789.38 684.58 916.43 679.22
00007450 00000081 580.14 208.51 408.23 587.80 761.45 472.46 936.76 463.41 902.63 577.45 796.98 683.04 929.51 673.96
00007451 00000082 587.57 213.45 403.84 592.96 770.95 470.72 930.15 458.84 903.31 579.09 812.32 683.65 934.14 673.51
00007452 00000083 591.56 216.58 401.33 590.85 778.04 468.00 934.05 453.37 912.61 577.06 822.08 684.93 937.38 672.54
00007453 00000084 591.82 211.95 399.26 592.12 778.70 467.21 931.87 451.80 911.54 573.24 819.27 679.32 935.80 666.38
00007454 00000085 587.82 204.23 397.59 581.02 774.79 464.96 936.64 451.42 914.81 559.43 807.58 670.08 932.83 658.03
00007455 00000086 580.50 191.78 400.27 585.15 766.28 456.02 933.11 444.01 909.50 551.85 800.54 663.38 929.72 652.40
00007456 00000087 571.28 182.42 401.10 586.87 755.72 447.29 920.88 438.65 896.61 544.63 792.30 655.93 919.10 647.46
00007457 00000088 566.58 184.80 402.77 583.62 748.38 443.57 916.33 438.62 886.68 544.27 785.08 654.03 913.59 648.41
00007458 00000089 563.25 192.20 405.11 586.64 744.11 448.76 909.67 438.04 881.60 547.34 784.57 659.94 912.12 649.51
00007459 00000090 562.13 199.48 402.34 585.62 744.15 456.25 906.27 444.63 880.54 551.79 787.62 666.90 909.53 655.78
00007460 00000091 561.11 199.93 403.12 589.06 738.68 461.60 906.53 448.20 876.30 558.41 784.93 672.89 910.78 659.59
00007461 00000092 560.46 200.22 403.79 588.23 738.32 462.83 907.76 448.94 876.30 560.52 784.52 673.83 911.80 660.09
00007462 00000093 559.76 196.48 405.13 587.17 735.67 458.68 906.51 447.66 872.94 556.65 780.74 668.41 910.97 656.92
00007463 00000094 556.98 197.28 405.84 584.18 733.49 452.03 903.77 440.81 869.34 550.94 777.95 663.54 907.19 651.92
00007464 00000095 554.81 195.50 405.25 586.29 729.19 446.21 898.18 435.79 863.37 546.38 775.12 660.37 900.99 649.46
00007465 00000096 552.48 194.98 405.47 585.52 726.10 446.86 892.80 435.52 859.53 544.71 772.78 659.61 896.66 648.21
00007466 00000097 550.96 194.55 405.44 586.41 723.22 448.52 890.10 435.62 857.27 544.98 772.16 659.83 896.21 647.09
00007467 00000098 549.43 197.93 405.34 586.45 721.84 451.26 887.76 437.81 855.33 548.26 772.10 662.48 895.92 649.11
00007468 00000099 547.72 198.95 403.89 587.62 719.85 453.12 884.58 439.05 853.30 550.31 768.97 664.20 892.30 650.75
00007469 00000100 544.39 199.42 402.84 586.74 713.59 456.75 878.21 440.57 846.26 552.15 763.09 667.25 885.70 652.46
00007470 00000101 531.43 200.23 416.19 591.43 697.36 455.72 869.67 447.11 827.01 556.60 741.37 668.16 870.76 659.78
00007471 DELETE   512.65 203.45 422.44 592.65 676.39 464.30 854.62 452.14 803.21 568.29 716.71 663.43 853.88 655.31
00007472 DELETE   499.88 213.35 428.16 593.33 646.11 475.76 828.45 467.43 765.42 582.08 685.07 685.00 822.60 676.31
00007473 DELETE   483.04 220.80 434.37 597.39 617.40 485.27 803.60 474.99 731.00 592.80 657.64 691.73 801.52 681.79
00007474 00000105 478.68 229.04 431.17 589.87 603.28 490.93 785.85 482.03 709.34 601.40 643.07 694.58 783.27 686.33
00007475 00000106 477.01 229.96 430.19 586.80 595.65 491.43 778.46 483.90 698.75 601.78 635.37 693.41 777.26 685.99
00007476 00000107 476.66 226.41 430.91 591.11 596.05 488.47 779.20 481.60 699.92 596.27 634.82 690.95 777.60 683.92
00007477 00000108 480.78 222.45 432.57 594.35 602.19 484.77 786.33 477.25 708.80 590.31 640.18 688.98 783.70 681.80
00007478 00000109 483.48 217.67 435.67 604.37 613.78 480.26 797.45 473.46 724.18 587.69 651.95 690.10 795.69 682.97
00007479 00000110 492.39 212.87 434.02 607.49 625.40 480.26 808.55 475.96 735.50 589.19 662.55 691.96 803.95 686.46
00007480 00000111 507.07 215.96 428.10 611.37 641.17 485.23 827.98 481.78 748.16 595.93 669.92 687.43 811.63 686.49
00007481 00000112 517.05 221.01 424.05 600.33 654.38 480.42 836.99 479.30 763.51 593.61 682.41 688.05 826.29 687.10
00007482 00000113 524.06 225.93 422.39 591.25 665.80 484.26 844.27 480.03 776.81 593.13 695.01 688.98 833.68 685.50
00007483 00000114 532.05 225.29 421.98 593.62 681.36 488.40 858.19 479.43 798.01 597.84 712.18 695.13 849.38 687.79
00007484 00000115 534.00 230.28 424.63 590.34 690.33 490.06 866.33 481.15 805.89 601.08 722.25 696.87 856.94 689.48
00007485 00000116 538.42 229.56 422.25 593.34 695.59 493.02 871.61 484.88 810.77 606.16 726.31 700.12 861.73 693.22
00007486 00000117 540.60 226.93 422.05 596.67 697.26 493.03 873.71 486.29 812.64 607.23 728.37 701.84 863.93 695.80
00007487 00000118 543.07 227.00 421.86 595.63 701.01 491.13 875.77 486.39 814.61 604.63 730.96 699.98 865.10 695.46
00007488 00000119 544.24 225.66 422.11 593.93 702.72 487.45 876.47 484.88 815.60 601.41 733.11 696.70 865.48 693.70
00007489 00000120 545.99 221.63 422.47 597.58 704.47 484.48 879.04 484.19 818.08 598.60 733.20 694.77 866.71 693.46
00007490 00000121 547.33 221.47 422.04 598.14 706.96 484.43 880.84 484.15 821.21 597.48 735.61 693.95 868.36 692.58
00007491 00000122 547.78 220.21 420.84 600.87 710.08 485.99 881.83 484.97 824.53 598.84 738.74 695.28 869.25 693.23
00007492 00000123 549.19 221.17 418.61 599.34 712.39 487.18 883.33 485.06 827.16 599.89 743.04 696.83 871.62 693.83
00007493 00000124 551.01 219.28 417.30 601.50 716.59 489.02 886.61 485.20 833.37 599.77 748.16 698.14 876.58 693.47
00007494 00000125 552.68 219.20 415.66 597.21 723.71 483.43 889.68 476.86 842.42 591.07 761.03 695.93 881.11 688.87
00007495 00000126 558.14 213.23 413.09 593.24 730.19 474.49 896.79 467.94 851.21 585.55 768.96 691.38 887.59 683.97
00007496 00000127 560.66 206.13 413.17 588.67 730.15 470.85 904.75 461.20 860.47 582.74 773.60 690.05 899.72 679.45
00007497 00000128 559.39 202.27 411.97 585.69 730.99 464.74 910.20 456.46 868.23 574.37 774.39 684.26 904.93 674.83
00007498 00000129 557.68 197.06 409.26 593.74 732.68 460.70 909.66 452.09 873.24 567.78 775.13 678.57 906.19 669.27
00007499 00000130 556.43 197.50 408.52 603.65 737.51 459.66 901.54 449.35 873.29 560.91 778.11 673.65 903.02 663.32
00007500 00000131 554.49 198.74 409.20 603.54 736.13 456.32 901.78 444.68 873.90 556.90 777.06 672.05 904.90 660.63
00007501 00000132 552.55 197.04 408.19 602.85 732.10 452.79 897.89 439.74 870.04 553.72 774.97 669.68 900.62 656.97
00007502 00000133 550.96 194.27 406.73 600.03 731.08 448.23 895.09 434.87 867.37 549.70 773.17 665.43 895.66 652.66
00007503 00000134 550.93 188.27 407.03 599.48 729.31 443.79 893.80 430.27 864.55 543.49 773.48 661.08 895.12 648.05
00007504 00000135 549.73 185.82 407.51 594.21 729.14 438.48 893.60 424.66 865.85 536.33 774.14 653.72 896.24 640.28
00007505 00000136 548.57 186.33 407.67 589.13 726.66 435.96 893.07 421.74 865.90 531.09 775.59 650.65 897.90 636.71
00007506 00000137 543.57 183.80 405.77 588.58 720.40 442.11 892.82 425.59 856.80 542.78 768.32 654.78 896.92 640.00
00007507 00000138 543.32 183.17 405.82 583.72 719.44 442.75 892.47 425.71 855.92 543.27 770.69 655.03 897.68 639.75
00007508 00000139 545.83 184.01 405.63 575.89 720.44 440.77 895.95 422.75 858.81 541.10 774.99 652.19 903.08 635.74
00007509 00000140 548.22 183.97 405.65 578.13 726.73 439.24 901.56 422.26 865.55 540.80 778.47 651.47 905.76 635.81
00007510 00000141 552.96 181.11 405.80 582.73 733.27 440.35 905.83 423.00 871.05 541.82 784.44 653.84 911.13 637.58
00007511 00000142 560.50 185.37 405.03 581.49 743.59 435.39 908.09 421.74 882.90 530.99 786.78 648.06 908.76 634.80
00007512 00000143 562.39 184.31 405.03 582.00 746.21 436.73 912.24 423.77 886.61 533.71 787.80 649.74 911.71 637.15
00007513 00000144 565.88 186.05 403.50 578.30 749.67 437.72 914.76 424.59 889.30 536.05 789.67 649.90 913.60 637.32
00007514 00000145 568.95 183.77 402.36 578.44 754.51 438.47 918.62 425.58 895.02 537.21 792.40 649.76 916.55 637.84
00007515 00000146 574.95 183.16 400.38 576.09 757.84 440.40 927.17 428.72 901.50 539.45 794.34 651.29 924.43 640.53
00007516 00000147 574.51 187.05 408.33 579.07 757.02 439.80 927.96 425.42 897.67 539.88 807.00 647.94 936.18 636.76
00007517 00000148 577.82 185.25 408.99 586.04 760.97 440.33 930.67 425.14 899.67 541.62 809.37 649.50 938.22 637.50
00007518 00000149 579.96 181.83 409.35 595.50 762.68 442.98 928.67 425.46 899.42 541.82 811.74 651.90 938.12 638.18
00007519 00000150 578.63 183.50 409.51 593.13 762.55 444.19 928.06 425.35 901.13 541.57 813.58 651.36 940.55 636.38
00007520 00000151 578.36 182.00 403.55 591.48 766.60 444.23 928.66 429.69 910.41 537.79 803.56 655.39 929.29 642.37
00007521 00000152 573.04 186.01 405.57 592.09 762.76 445.03 923.00 431.26 906.25 538.25 799.91 656.49 923.64 644.19
00007522 00000153 573.25 186.78 404.77 594.68 759.99 448.05 920.66 432.67 903.71 540.76 799.28 660.47 922.97 647.03
00007523 00000154 573.96 189.57 405.91 594.65 759.86 453.67 921.07 435.85 903.97 545.18 799.30 664.24 925.03 648.63
00007524 00000155 575.88 196.23 404.16 590.21 761.84 458.57 925.23 442.08 906.05 549.67 800.16 666.70 927.59 652.10
00007525 00000156 575.81 199.33 404.95 589.18 763.92 462.90 928.33 444.35 909.25 553.23 804.09 670.64 929.66 654.20
00007526 00000157 576.55 201.04 405.25 586.16 763.44 463.12 932.11 446.20 910.35 555.82 804.79 673.28 932.64 657.86
00007527 00000158 578.23 200.19 404.32 584.89 765.11 461.38 932.46 445.57 910.53 554.64 805.50 671.38 932.13 657.05
00007528 00000159 581.59 199.35 400.70 582.31 769.37 460.29 931.26 442.83 912.03 550.54 808.37 667.50 931.80 652.27
00007529 00000160 581.03 198.13 401.47 584.97 770.29 459.92 928.62 441.23 912.15 547.66 809.22 665.91 931.52 649.88
00007530 00000161 580.81 196.49 401.35 583.97 769.08 459.64 927.38 439.97 910.86 547.30 808.61 664.99 930.77 648.22
00007531 00000162 579.55 194.38 402.24 583.77 765.46 457.37 926.54 437.72 909.63 545.81 806.60 663.57 931.22 646.56
00007532 00000163 578.57 189.70 401.68 585.63 762.39 454.24 926.36 433.37 909.65 543.48 804.35 662.00 932.25 643.80
00007533 00000164 575.42 188.02 402.53 584.54 757.46 451.10 922.91 431.86 903.73 542.13 799.22 660.10 927.99 643.15
00007534 00000165 572.04 187.22 404.29 589.53 755.63 449.75 919.25 430.89 900.43 540.55 795.23 658.64 923.42 642.24
00007535 00000166 569.28 186.90 405.20 591.79 753.68 447.57 916.78 431.83 897.69 540.82 793.72 658.91 920.12 645.00
00007536 00000167 565.33 189.31 407.31 593.51 751.52 446.22 915.19 432.76 894.30 542.16 791.08 659.19 918.23 646.82
00007537 00000168 562.42 191.31 408.20 594.94 749.92 446.74 912.34 432.17 892.74 541.15 790.73 660.81 916.51 647.45
00007538 00000169 560.86 190.20 407.75 598.15 746.93 447.43 909.73 432.11 889.36 541.77 788.58 661.75 914.80 647.51
00007539 00000170 560.10 189.67 406.81 595.35 745.18 446.64 907.69 432.94 885.34 542.04 786.47 660.24 911.84 647.15
