Video ID: 	KvFZuwsFvt8
H: 	1080
W: 	1920
FPS: 	25.0

FRAME INDEX X0 Y0 W H [Landmarks (5 Points)]

00030785 00000000 821.91 149.31 423.67 582.53 893.25 354.75 1058.89 379.84 916.24 465.32 879.17 567.90 997.45 590.28
00030786 00000001 822.39 147.08 424.25 585.31 895.16 352.53 1062.20 378.21 920.52 464.30 880.93 567.91 999.38 590.79
00030787 00000002 821.48 151.23 424.20 580.91 890.98 347.89 1063.22 376.76 919.33 468.47 876.49 569.43 996.06 594.83
00030788 00000003 821.90 150.34 424.19 578.10 891.67 346.25 1063.93 374.93 920.32 467.24 877.73 567.04 995.93 592.35
00030789 00000004 821.77 151.81 423.55 579.00 891.75 347.06 1063.87 376.04 920.47 469.86 877.56 569.37 996.27 594.86
00030790 00000005 822.34 144.78 422.98 591.98 894.19 356.31 1062.39 380.57 921.05 471.01 882.99 574.82 998.14 596.52
00030791 00000006 818.75 145.68 423.03 595.26 890.60 361.30 1061.01 386.43 918.21 476.99 878.76 580.48 993.22 602.85
00030792 DELETE   816.35 152.99 419.88 586.00 883.02 371.89 1050.88 394.41 909.07 483.72 874.36 586.02 988.07 605.62
00030793 DELETE   810.73 154.75 420.28 582.77 872.38 365.18 1050.78 391.08 903.77 478.20 864.34 584.09 984.01 606.45
00030794 DELETE   809.09 147.13 426.47 593.16 883.21 361.85 1050.20 383.30 906.34 464.94 872.67 578.14 983.19 597.03
00030795 00000010 812.04 145.96 423.22 593.87 880.32 346.69 1056.22 370.65 911.64 458.42 869.15 574.14 988.35 595.64
00030796 00000011 815.34 147.13 424.22 588.47 884.82 344.44 1059.87 368.46 916.98 456.71 873.03 568.74 993.36 590.34
00030797 00000012 820.23 148.29 425.69 590.37 889.21 344.78 1064.93 368.99 921.88 460.54 881.33 568.57 1007.39 590.24
00030798 00000013 826.76 148.25 425.47 597.49 894.04 344.46 1071.90 368.94 926.94 464.41 887.29 568.73 1024.67 590.78
00030799 00000014 835.12 141.59 423.09 602.25 902.73 355.51 1077.73 375.17 932.39 466.43 897.47 571.05 1037.05 588.71
00030800 00000015 846.62 153.92 421.98 594.20 912.22 351.05 1083.16 371.24 939.02 466.17 904.87 574.02 1041.79 591.48
00030801 00000016 854.46 156.53 418.65 588.09 919.47 353.18 1086.77 374.35 944.17 464.35 907.95 575.83 1038.50 594.36
00030802 00000017 859.84 151.57 419.21 589.78 927.66 350.33 1092.84 376.72 952.57 465.01 914.07 571.92 1042.22 594.87
00030803 00000018 868.13 144.05 423.69 590.88 934.85 349.27 1104.36 376.48 958.96 465.69 921.57 570.20 1050.88 593.53
00030804 00000019 871.55 144.83 428.87 585.31 941.73 348.78 1118.80 376.71 969.35 465.38 927.92 565.93 1063.70 589.51
00030805 DELETE   879.49 143.11 423.50 583.43 945.46 357.46 1119.47 383.22 970.01 471.49 932.36 567.21 1069.14 588.79
00030806 00000021 884.09 153.56 426.32 575.13 957.71 366.24 1126.12 392.37 983.40 473.26 942.46 569.37 1066.10 591.80
00030807 00000022 888.06 156.81 427.03 589.75 960.72 366.78 1133.77 396.26 986.83 480.00 943.75 579.25 1067.31 604.87
00030808 00000023 889.06 158.81 427.52 598.27 960.83 373.09 1134.58 403.07 986.94 490.23 944.49 590.28 1067.06 616.55
00030809 00000024 891.22 163.86 425.68 603.16 961.10 377.09 1134.85 410.45 986.15 500.97 943.09 598.32 1069.83 627.55
00030810 00000025 892.14 176.56 428.11 598.34 961.64 382.86 1135.67 417.97 987.38 511.96 944.43 604.72 1073.33 635.28
00030811 00000026 897.48 186.44 427.63 594.35 963.04 386.41 1136.02 421.91 990.11 521.06 948.04 610.89 1077.92 641.95
00030812 00000027 902.22 194.85 425.71 587.75 965.65 391.28 1140.84 426.85 994.50 526.47 950.63 616.11 1080.86 647.41
00030813 00000028 904.31 202.23 428.55 583.34 968.58 392.05 1145.99 427.04 999.08 530.53 953.85 619.37 1086.12 650.18
00030814 00000029 905.36 204.48 428.80 584.21 970.32 393.43 1148.37 428.32 1001.99 532.08 955.54 620.86 1088.97 651.71
00030815 00000030 905.18 203.63 428.84 584.70 969.16 394.78 1147.06 428.90 1000.60 532.89 955.27 621.44 1089.18 651.63
00030816 00000031 905.60 200.15 431.74 588.13 975.24 398.86 1144.48 429.12 998.96 528.46 960.90 620.39 1091.36 644.93
00030817 00000032 905.89 200.77 430.67 586.43 974.44 399.00 1143.68 428.63 998.15 528.72 960.73 620.39 1091.32 644.36
00030818 00000033 904.15 201.05 428.63 584.26 965.81 396.50 1143.95 429.67 998.59 533.07 952.20 620.42 1087.88 649.79
00030819 00000034 903.70 200.22 432.06 588.55 973.24 400.63 1142.76 429.39 997.15 528.86 960.22 620.98 1091.88 644.31
00030820 00000035 902.12 201.07 428.27 587.33 963.90 398.92 1142.46 431.21 996.44 534.75 951.75 622.74 1089.32 651.27
00030821 00000036 900.78 201.62 428.68 588.61 962.64 399.62 1141.68 431.40 995.04 535.33 951.06 624.52 1089.23 652.49
00030822 00000037 901.07 205.04 428.12 585.81 962.44 400.43 1141.59 432.06 995.28 536.55 951.16 625.38 1089.76 653.16
00030823 00000038 901.99 205.17 427.51 586.85 962.81 401.30 1142.58 431.52 996.07 537.54 953.03 627.33 1091.71 653.97
00030824 00000039 902.55 205.92 426.52 587.57 963.72 402.37 1143.38 431.73 997.41 538.07 954.39 628.46 1093.73 654.43
00030825 00000040 903.57 205.41 426.60 585.57 963.22 402.36 1143.37 430.58 998.32 536.74 954.60 627.89 1093.81 652.99
00030826 00000041 904.88 203.28 426.18 581.75 963.49 400.51 1142.28 428.38 998.40 532.72 954.57 624.70 1088.09 649.68
00030827 00000042 905.25 197.98 428.69 584.01 972.21 402.32 1142.35 428.18 998.71 527.38 960.78 619.47 1090.40 640.53
00030828 00000043 905.10 198.04 428.66 584.27 971.22 402.15 1140.98 427.61 997.28 526.62 960.35 619.86 1089.17 640.63
00030829 00000044 904.24 201.71 424.85 583.34 963.43 400.09 1141.16 427.66 997.29 530.21 953.48 624.41 1084.79 649.18
00030830 00000045 904.00 202.05 425.50 586.03 963.26 401.37 1141.27 428.63 997.78 532.39 954.45 627.12 1085.24 651.63
00030831 00000046 903.09 202.71 427.12 586.41 963.25 401.99 1142.12 429.35 998.35 533.19 954.82 627.83 1086.47 652.39
00030832 00000047 902.42 203.52 426.51 586.56 964.33 401.96 1143.18 430.28 998.84 534.56 955.39 628.19 1087.67 653.53
00030833 00000048 905.50 198.43 427.66 591.71 970.58 410.74 1138.87 436.22 996.63 531.93 962.87 627.27 1092.88 648.00
00030834 00000049 903.22 200.40 424.55 583.80 964.70 411.32 1145.21 437.86 997.61 529.41 962.12 629.48 1094.25 650.87
00030835 00000050 903.59 200.26 422.08 577.45 960.58 405.14 1141.39 436.54 998.05 536.96 950.68 624.00 1088.09 651.44
00030836 00000051 900.48 200.33 424.03 573.91 960.12 402.91 1137.35 435.38 994.44 535.15 947.93 620.63 1081.74 648.76
00030837 00000052 891.92 205.31 429.05 570.55 953.55 399.65 1130.51 434.81 984.30 532.89 939.92 618.28 1073.22 648.13
00030838 00000053 881.05 204.30 430.29 572.07 943.61 397.68 1119.71 435.98 967.82 525.60 929.02 616.26 1060.16 648.23
00030839 00000054 873.74 206.35 428.96 573.74 936.41 400.25 1102.28 433.06 951.85 519.76 924.51 619.63 1042.67 646.77
00030840 00000055 873.02 208.50 425.80 580.31 936.59 402.78 1100.15 433.26 951.00 519.43 924.05 626.30 1037.82 651.46
00030841 00000056 873.63 211.91 431.43 586.37 940.52 404.72 1110.99 435.38 963.54 525.29 930.98 631.86 1049.16 657.49
00030842 00000057 884.01 207.56 427.74 586.77 947.56 407.15 1121.66 438.74 975.19 530.24 936.66 633.36 1057.43 660.57
00030843 00000058 893.32 209.15 427.21 581.19 954.30 406.77 1131.21 436.48 986.29 538.20 945.09 635.25 1069.68 661.07
00030844 DELETE   904.37 205.56 419.33 583.81 956.11 406.25 1137.38 433.80 993.89 536.64 950.45 636.02 1075.28 660.47
00030845 00000060 906.49 199.72 424.21 595.14 972.98 416.15 1137.08 438.00 997.39 533.68 965.96 635.22 1085.16 653.28
00030846 00000061 905.38 205.62 419.85 588.88 962.48 410.08 1139.18 439.33 995.29 536.74 953.36 636.55 1077.05 662.28
00030847 00000062 898.03 206.12 424.06 586.90 961.58 404.61 1136.29 438.93 990.61 533.98 947.07 630.00 1071.12 659.88
00030848 00000063 889.01 205.46 431.36 589.10 957.28 402.26 1132.09 438.98 983.89 532.40 939.91 626.55 1067.04 658.20
00030849 00000064 886.29 207.84 430.81 583.70 954.13 400.74 1128.94 438.69 979.25 529.94 935.58 624.44 1062.49 656.80
00030850 00000065 885.80 205.65 431.03 582.74 954.40 400.46 1129.74 439.02 981.29 530.83 935.34 622.36 1064.00 655.26
00030851 00000066 888.36 204.70 430.67 583.64 956.58 401.82 1132.17 438.80 985.55 532.97 938.49 623.44 1068.47 655.21
00030852 00000067 895.72 205.03 427.48 583.93 962.17 402.95 1137.40 436.14 992.76 531.44 945.31 624.61 1072.91 653.79
00030853 00000068 900.76 203.46 425.63 585.01 966.03 401.89 1143.84 432.19 1000.15 531.88 952.26 626.36 1079.94 653.37
00030854 00000069 905.18 204.99 422.79 575.63 966.29 402.13 1148.91 431.68 1003.85 533.53 953.99 627.20 1088.52 653.31
00030855 00000070 906.93 205.24 421.54 578.67 968.79 402.44 1151.39 432.89 1006.59 534.50 955.00 628.77 1089.65 655.81
00030856 DELETE   906.53 210.72 419.88 588.33 967.12 405.93 1147.21 434.44 1002.05 537.85 957.69 638.47 1083.73 663.73
00030857 00000072 900.84 207.37 421.73 595.98 965.89 432.98 1136.94 452.07 998.75 544.20 961.13 649.90 1080.16 667.51
00030858 00000073 893.55 213.98 424.00 593.04 960.38 431.74 1130.14 455.89 987.49 546.90 951.62 651.06 1067.60 672.57
00030859 00000074 891.12 216.33 424.02 591.64 958.07 432.32 1127.28 457.69 982.30 549.15 947.90 651.66 1063.62 674.08
00030860 00000075 890.75 217.60 424.12 588.62 958.63 431.22 1128.49 457.40 983.15 549.06 947.65 650.38 1065.40 673.50
00030861 00000076 894.09 217.19 425.07 587.46 963.97 429.29 1134.44 456.35 991.36 549.21 952.95 647.31 1072.60 671.34
00030862 00000077 900.40 216.55 423.27 586.10 972.52 424.71 1144.86 452.71 1003.52 547.94 961.84 644.04 1083.74 669.18
00030863 00000078 906.23 214.79 423.72 586.97 976.04 422.84 1151.85 451.15 1009.75 548.28 966.94 642.73 1092.48 668.23
00030864 00000079 913.78 217.86 419.43 585.80 980.58 421.74 1156.51 446.84 1013.70 547.35 968.30 643.63 1100.04 665.19
00030865 00000080 912.67 214.35 419.51 586.66 978.21 419.48 1154.82 444.89 1010.64 546.09 966.76 640.88 1099.81 662.62
00030866 00000081 902.02 212.71 424.70 582.31 968.37 410.72 1149.72 444.25 1003.86 548.86 954.82 637.52 1088.36 666.82
00030867 00000082 898.05 210.13 425.80 584.34 963.32 411.91 1144.28 444.40 999.06 549.08 950.75 637.61 1083.21 665.87
00030868 00000083 894.08 214.05 426.78 583.79 959.73 414.32 1141.02 447.42 994.96 551.77 946.83 639.87 1079.75 668.43
00030869 00000084 891.66 220.33 426.96 577.96 957.28 417.04 1138.25 449.57 991.55 551.80 945.01 641.18 1076.53 668.96
00030870 00000085 891.27 220.99 426.99 577.99 956.89 417.65 1137.64 449.99 990.92 551.66 944.97 641.85 1076.06 669.40
00030871 00000086 892.00 218.93 426.98 578.95 958.18 416.11 1139.51 449.16 993.20 551.94 945.58 640.13 1078.22 668.39
00030872 00000087 894.39 214.33 425.61 580.33 959.21 413.31 1140.38 446.11 995.26 550.50 946.77 638.12 1079.24 666.37
00030873 00000088 895.08 210.88 425.90 581.41 960.14 410.85 1141.51 444.56 996.08 548.85 946.96 635.21 1080.68 664.31
00030874 00000089 895.03 211.02 425.90 580.36 959.88 410.44 1141.32 444.22 996.39 548.72 946.88 634.72 1080.68 663.84
00030875 00000090 894.57 210.51 426.12 580.38 959.25 410.48 1140.26 444.10 995.06 548.44 946.27 634.96 1079.57 663.91
00030876 00000091 893.33 209.82 426.42 581.76 957.72 411.12 1138.54 445.02 993.39 549.38 945.16 635.52 1078.38 664.58
00030877 00000092 891.06 212.82 427.41 580.01 957.13 412.15 1138.33 446.32 992.76 549.24 943.97 636.30 1076.94 665.48
00030878 00000093 889.59 213.66 427.61 580.60 949.92 416.27 1133.85 448.64 989.26 550.16 942.47 637.23 1076.44 664.80
00030879 00000094 889.93 211.73 427.94 582.74 951.24 421.36 1131.03 453.97 988.56 549.24 943.26 637.83 1075.99 665.50
00030880 00000095 890.97 211.62 427.01 582.74 953.34 416.91 1134.35 451.83 988.96 549.71 941.59 635.84 1075.63 665.62
00030881 00000096 891.04 210.43 427.23 583.40 955.77 415.10 1134.39 449.96 990.79 549.26 942.97 634.88 1075.77 664.73
00030882 00000097 891.22 211.22 428.03 583.56 956.92 412.18 1135.67 447.22 991.00 548.74 943.43 634.92 1076.19 664.92
00030883 00000098 891.61 210.66 428.72 588.82 957.63 412.17 1136.12 444.70 991.91 547.19 945.64 637.07 1078.18 665.23
00030884 00000099 891.95 210.51 428.84 606.13 958.69 412.16 1138.84 442.41 992.69 546.21 948.94 642.61 1087.54 668.98
00030885 00000100 888.51 213.01 431.65 610.21 958.71 410.72 1139.94 441.10 991.73 542.97 949.04 640.83 1092.69 667.15
00030886 00000101 884.60 209.77 435.01 606.97 955.81 409.28 1136.50 440.39 988.81 540.45 945.83 635.13 1091.84 661.92
00030887 00000102 879.11 208.56 437.24 598.50 950.26 405.44 1130.28 438.19 982.70 534.39 938.59 627.79 1083.82 655.83
00030888 00000103 873.47 205.86 441.19 595.37 948.24 404.08 1127.33 436.82 982.11 530.27 936.96 625.04 1075.98 653.02
00030889 00000104 872.72 200.30 439.53 596.71 946.81 403.38 1125.85 435.54 982.41 529.10 936.30 622.86 1074.40 650.38
00030890 00000105 873.28 198.51 436.26 592.22 946.47 402.04 1124.94 434.06 981.75 526.87 936.18 617.11 1075.52 644.35
00030891 00000106 872.92 192.53 434.38 588.81 945.23 397.97 1122.34 429.75 978.52 523.09 934.98 607.20 1076.66 634.09
00030892 00000107 873.68 190.37 430.56 576.63 944.80 387.77 1119.63 417.90 978.61 515.50 936.63 593.85 1077.03 617.94
00030893 00000108 868.74 177.40 434.79 581.95 941.88 382.94 1122.21 406.58 980.26 499.40 932.99 582.56 1086.50 601.45
00030894 DELETE   868.39 167.92 430.27 578.75 939.81 376.26 1118.51 391.85 976.52 480.07 935.14 573.86 1100.63 585.58
00030895 DELETE   868.35 162.97 424.33 580.98 937.52 367.13 1113.36 377.84 973.72 465.24 935.07 569.21 1096.13 577.48
00030896 DELETE   872.40 149.09 423.42 585.66 938.16 353.45 1117.22 365.47 972.02 449.69 932.58 564.95 1080.32 575.45
CROP_BBOX: 565 0 1569 966
