Video ID: 	NEm18FCqNvQ
H: 	1080
W: 	1920
FPS: 	25.0

FRAME INDEX X0 Y0 W H [Landmarks (5 Points)]

00019256 00000000 722.91 243.89 397.42 542.96 894.67 436.84 1054.61 465.74 1000.40 534.31 888.75 633.78 1019.44 657.54
00019257 00000001 727.97 247.58 398.56 540.11 896.71 441.40 1060.22 472.68 999.91 537.87 885.88 633.91 1019.89 659.87
00019258 DELETE   727.23 247.35 401.69 541.54 891.04 442.43 1055.03 475.54 990.19 537.36 878.98 631.54 1014.69 659.15
00019259 DELETE   721.88 244.07 404.51 547.00 883.15 437.24 1046.09 474.34 976.15 536.16 866.13 625.50 1004.31 656.50
00019260 DELETE   715.46 239.10 405.63 550.03 872.83 431.23 1035.93 471.85 958.40 535.22 851.40 625.01 983.05 658.33
00019261 00000005 707.87 239.30 406.40 546.67 853.55 425.60 1023.22 465.80 932.60 534.47 830.68 624.14 963.16 656.92
00019262 00000006 700.89 240.46 403.96 540.48 834.40 423.19 1010.55 460.49 913.93 529.02 816.26 619.71 955.10 649.90
00019263 00000007 691.87 238.63 404.36 537.15 823.21 421.55 996.51 455.01 902.91 528.20 804.98 614.78 946.07 642.35
00019264 00000008 681.98 234.12 406.42 538.50 810.13 415.62 982.19 446.80 890.37 521.76 798.82 609.83 934.45 635.32
00019265 00000009 676.22 230.62 406.19 538.99 799.49 414.40 973.88 443.47 880.35 517.76 791.50 608.74 927.09 632.38
00019266 00000010 668.26 224.09 407.64 538.34 787.69 412.90 965.83 442.21 869.21 518.88 783.37 611.24 924.67 634.36
00019267 00000011 663.41 221.17 407.94 540.72 778.86 414.32 959.26 441.16 860.80 520.15 777.27 612.66 919.50 633.79
00019268 00000012 659.93 223.56 405.52 539.43 773.80 415.29 953.12 438.78 855.18 519.66 774.43 613.48 914.83 631.95
00019269 00000013 657.92 225.59 404.15 537.72 770.29 415.48 948.96 437.56 849.88 518.39 771.03 613.67 909.47 631.17
00019270 00000014 655.75 225.57 401.89 537.22 766.76 413.76 945.67 436.38 844.23 517.22 766.09 613.62 903.51 631.70
00019271 00000015 653.11 225.63 400.51 536.79 764.93 412.48 942.86 434.31 841.68 517.62 764.22 615.25 898.05 632.67
00019272 00000016 649.95 225.59 401.48 537.27 762.16 411.61 939.13 433.00 838.09 516.89 761.19 615.11 893.16 632.28
00019273 00000017 648.49 228.62 400.01 535.74 760.05 411.64 935.32 431.26 834.96 515.76 758.90 615.47 889.09 631.40
00019274 00000018 646.64 229.01 399.78 536.98 757.70 411.13 932.32 430.05 832.43 515.30 756.61 615.67 886.28 631.24
00019275 00000019 644.63 229.81 399.99 535.89 755.11 411.81 928.86 429.35 830.11 515.10 754.72 615.00 884.16 629.55
00019276 00000020 642.78 229.46 399.95 536.71 752.65 412.13 926.41 429.04 828.12 514.68 752.68 614.49 882.79 628.56
00019277 00000021 642.28 229.09 399.72 536.85 751.57 412.05 925.39 428.93 826.80 514.70 751.74 614.26 882.14 628.34
00019278 00000022 642.25 229.10 399.08 536.68 751.39 411.65 924.91 428.32 826.82 514.86 751.49 613.98 881.85 627.95
00019279 00000023 642.25 229.45 398.90 537.33 752.38 410.95 924.68 427.73 826.75 514.42 751.93 613.79 880.81 627.84
00019280 00000024 643.02 231.16 398.25 541.23 754.50 408.90 926.58 427.08 827.09 513.46 752.05 616.19 878.02 631.47
00019281 00000025 644.42 231.59 396.79 544.78 754.99 410.34 925.87 428.25 826.79 514.35 752.04 619.98 875.31 635.35
00019282 00000026 645.69 233.04 395.86 546.03 753.78 408.62 927.55 429.25 824.34 513.96 747.50 618.97 878.21 636.74
00019283 00000027 645.43 231.54 396.86 540.58 751.51 409.26 927.15 429.28 824.24 513.88 746.57 614.71 881.39 631.92
00019284 00000028 644.60 225.45 398.15 531.05 748.98 411.48 927.13 430.74 822.67 517.59 744.71 610.73 887.91 626.77
00019285 00000029 643.95 223.12 397.70 527.54 748.15 412.07 926.39 431.31 821.51 516.22 742.85 607.79 890.19 623.84
00019286 00000030 644.48 222.55 397.22 530.47 748.98 411.18 926.77 430.93 821.73 515.50 742.77 607.09 889.76 623.74
00019287 00000031 644.67 226.10 396.90 538.57 750.32 410.11 927.72 431.26 822.41 514.77 742.65 610.39 886.38 628.37
00019288 00000032 643.55 227.70 398.02 544.98 750.51 409.37 928.06 430.27 824.09 513.58 744.44 611.39 887.61 629.17
00019289 00000033 642.37 228.03 399.17 543.70 751.63 409.05 928.03 428.09 826.20 511.58 748.83 610.07 889.86 625.94
00019290 00000034 642.73 228.19 399.92 544.52 752.38 409.86 930.37 429.10 828.98 512.23 749.00 610.19 894.82 625.97
00019291 00000035 642.84 227.79 400.28 541.61 753.16 410.03 930.64 428.22 830.35 511.89 751.40 609.53 895.25 624.44
00019292 00000036 645.63 227.70 398.32 540.16 756.58 417.18 930.15 435.61 831.45 512.26 754.71 609.93 893.86 625.26
00019293 00000037 646.84 225.73 399.09 540.61 758.67 420.06 934.47 438.67 835.90 513.78 757.67 614.01 894.99 629.27
00019294 00000038 648.39 223.47 400.58 540.91 762.66 420.14 940.19 439.22 844.21 515.90 762.91 614.60 902.52 629.68
00019295 00000039 650.20 220.83 399.23 543.30 769.14 418.77 948.17 437.78 857.06 516.72 772.28 614.32 914.02 628.84
00019296 00000040 654.98 216.89 398.34 545.32 779.16 415.94 956.39 434.81 871.50 515.37 782.96 613.90 921.68 628.51
00019297 00000041 658.84 217.86 399.85 547.48 787.19 417.08 963.70 433.86 884.25 514.91 792.64 617.97 930.97 631.24
00019298 00000042 661.29 222.24 398.27 548.29 795.75 419.30 968.23 436.98 898.10 518.61 801.24 620.26 938.97 634.39
00019299 00000043 665.77 226.39 400.15 545.03 804.33 423.18 974.96 440.46 909.47 522.10 809.85 621.06 950.86 634.58
00019300 00000044 671.11 227.12 400.69 543.29 812.89 424.00 984.10 442.35 919.73 523.91 816.61 615.77 966.75 630.05
00019301 00000045 669.21 226.71 407.40 542.69 821.64 423.61 995.39 444.69 923.41 526.14 823.12 611.14 969.12 629.36
00019302 00000046 674.12 229.23 405.86 536.66 828.15 427.07 1003.83 447.77 933.07 530.55 827.98 611.64 976.29 629.81
00019303 00000047 676.76 232.54 406.84 538.50 834.49 430.49 1013.30 450.56 944.22 535.52 833.61 616.10 986.48 633.35
00019304 00000048 683.08 238.30 404.81 541.82 843.91 431.92 1017.75 452.97 950.44 537.33 838.44 623.21 987.78 640.08
00019305 00000049 684.81 240.16 405.89 548.35 849.35 429.62 1020.31 453.27 954.64 536.98 844.59 628.06 985.95 646.44
00019306 00000050 685.95 241.25 405.30 547.88 852.29 431.30 1022.42 454.42 957.86 537.99 847.84 633.38 984.92 651.39
00019307 00000051 687.39 240.31 403.36 548.64 853.79 434.02 1022.82 456.69 958.62 538.47 850.83 635.53 983.55 653.19
00019308 DELETE   686.23 243.79 406.03 544.70 853.58 443.28 1024.92 463.96 958.79 540.58 851.90 638.51 985.97 654.58
00019309 00000053 686.33 245.14 406.42 544.71 858.04 443.31 1028.57 464.68 964.35 542.53 855.23 639.37 988.31 655.99
00019310 00000054 687.75 246.18 406.28 544.45 863.49 441.09 1030.72 461.63 972.11 541.94 862.37 639.81 991.48 655.88
00019311 00000055 689.54 247.73 406.43 542.03 869.58 438.13 1035.00 459.40 979.48 543.05 868.13 639.55 995.34 656.06
00019312 00000056 692.42 246.00 403.76 544.47 873.45 436.94 1036.29 457.62 983.36 544.56 871.91 641.11 995.96 657.29
00019313 00000057 693.61 246.51 402.40 544.31 875.59 435.96 1036.60 455.73 985.18 545.89 874.59 641.59 996.89 657.15
00019314 00000058 693.59 246.35 402.18 545.23 875.69 436.15 1036.68 455.55 985.51 547.53 875.19 642.63 997.25 657.86
00019315 00000059 693.24 246.28 402.80 547.09 875.86 435.97 1036.39 455.47 985.58 549.21 875.58 643.23 997.25 658.59
00019316 00000060 692.82 246.58 403.49 547.77 875.45 437.06 1035.70 456.57 984.07 550.29 876.05 643.71 996.67 658.89
00019317 00000061 692.73 245.05 402.65 549.73 874.72 438.00 1034.82 457.75 982.42 550.50 877.24 643.50 997.08 658.59
00019318 00000062 692.39 245.13 404.46 551.04 873.91 438.02 1034.51 458.01 980.80 550.64 877.58 643.79 997.74 658.84
00019319 00000063 690.59 247.10 406.24 548.99 870.87 437.11 1032.48 456.55 976.77 550.34 874.74 642.87 995.84 657.41
00019320 00000064 689.10 245.94 408.96 550.47 868.01 435.53 1030.85 456.44 973.87 547.91 870.73 641.31 994.08 656.99
00019321 00000065 688.17 243.68 408.35 553.46 864.15 435.65 1029.33 456.46 971.70 546.17 866.14 641.63 993.28 657.56
00019322 00000066 686.77 241.97 408.69 555.03 858.66 434.84 1026.76 455.97 965.36 546.81 859.35 641.20 988.75 657.50
00019323 00000067 685.88 240.86 407.75 556.14 855.40 431.35 1023.67 452.56 959.71 547.24 854.81 640.50 983.71 656.85
00019324 00000068 684.65 240.47 408.97 555.79 850.39 429.37 1020.94 450.30 953.25 546.34 850.06 639.32 979.79 655.39
00019325 00000069 683.67 239.71 408.11 557.72 846.71 427.41 1018.72 447.61 950.19 547.74 847.25 640.01 978.56 655.55
00019326 00000070 682.07 239.21 407.55 559.88 841.68 425.24 1015.13 445.67 945.00 548.12 842.29 638.98 977.15 654.79
00019327 00000071 681.27 238.29 407.53 561.13 840.40 422.90 1013.12 444.53 941.36 548.13 838.40 640.20 970.70 657.10
00019328 00000072 679.79 239.20 406.48 561.29 837.04 422.46 1011.38 444.14 940.11 547.23 834.91 640.45 972.00 657.52
00019329 00000073 678.76 241.57 406.42 555.42 835.45 423.69 1010.47 445.50 939.29 545.61 831.77 637.80 972.84 654.92
00019330 00000074 678.76 241.63 405.21 550.28 835.19 426.34 1009.28 447.19 938.71 543.84 830.08 634.72 971.37 651.19
00019331 00000075 678.74 241.74 404.33 547.99 837.87 432.25 1008.97 454.12 940.18 543.12 830.64 632.61 972.68 650.02
00019332 00000076 678.95 242.51 404.55 545.80 839.22 433.43 1010.02 455.73 941.34 543.01 830.81 631.98 972.55 649.73
00019333 00000077 678.74 242.43 405.74 547.17 840.45 433.64 1011.66 456.69 943.14 544.01 831.48 632.40 974.52 650.71
00019334 00000078 679.40 241.78 406.10 548.96 843.57 433.72 1014.30 457.73 946.22 544.83 832.90 634.28 974.38 653.43
00019335 00000079 681.51 241.72 407.08 550.94 844.59 431.15 1016.70 454.95 946.62 544.04 838.01 635.99 974.49 654.50
00019336 00000080 682.13 242.43 409.18 554.00 847.50 431.70 1018.99 456.53 950.08 542.46 843.72 635.78 980.04 654.93
00019337 00000081 683.02 241.53 408.06 556.39 846.87 430.73 1016.89 454.34 947.93 540.88 846.67 637.06 979.08 655.10
00019338 00000082 682.68 238.91 406.00 558.69 845.09 428.19 1013.43 448.97 944.93 542.40 846.23 639.81 972.10 655.65
00019339 00000083 680.88 237.74 404.05 561.53 839.26 428.36 1008.51 450.52 938.73 541.53 838.66 636.38 970.94 653.68
00019340 00000084 677.25 240.02 400.35 555.73 826.80 427.60 996.96 449.16 925.51 537.15 830.10 633.36 961.79 650.41
00019341 00000085 672.11 238.40 401.54 555.50 814.38 426.97 988.50 449.39 912.75 534.87 818.53 631.67 950.51 649.64
00019342 00000086 664.96 238.24 402.46 558.19 812.25 426.84 976.14 450.85 907.78 536.52 808.01 633.35 943.16 653.14
00019343 00000087 662.13 238.39 402.50 557.97 804.68 426.62 970.71 450.37 899.02 535.86 799.26 632.12 937.74 652.03
00019344 00000088 660.61 238.25 402.26 556.67 801.92 426.55 969.02 449.78 897.56 535.63 797.48 631.43 937.38 650.86
00019345 00000089 660.31 238.47 402.45 556.49 802.90 428.00 971.25 450.24 901.58 535.74 797.66 630.82 942.69 649.60
00019346 00000090 661.74 238.64 402.19 553.07 803.79 431.55 976.07 451.31 907.56 538.79 798.30 630.60 952.45 647.52
00019347 00000091 662.82 238.41 401.63 550.23 806.21 432.64 979.04 452.51 911.61 539.57 800.49 628.81 956.36 645.83
00019348 00000092 663.84 237.23 400.36 546.44 807.35 433.05 980.39 451.79 915.07 538.00 805.94 628.69 958.92 644.31
00019349 00000093 663.77 236.54 399.33 543.39 806.92 434.34 980.05 452.11 915.31 537.08 808.75 629.99 958.07 644.51
00019350 00000094 663.70 235.55 397.06 542.66 805.61 438.90 975.91 456.02 912.41 538.13 808.39 630.53 954.90 644.56
00019351 00000095 661.93 236.20 396.71 543.24 801.25 442.82 972.45 458.55 906.52 540.98 804.22 632.45 952.18 645.53
00019352 00000096 658.72 243.11 397.06 539.81 796.52 444.94 968.32 462.09 898.09 543.20 798.06 633.98 946.27 648.21
00019353 00000097 656.10 242.12 398.19 542.85 792.26 446.43 962.71 464.37 889.51 543.63 794.81 636.69 939.49 651.10
00019354 00000098 654.09 241.07 398.13 544.20 786.83 447.56 957.39 464.73 880.21 546.87 790.57 639.80 932.39 653.56
00019355 00000099 651.78 241.14 399.18 545.13 782.66 448.21 952.44 464.37 873.07 549.25 786.27 641.51 925.74 654.35
00019356 00000100 651.22 242.42 398.48 545.96 780.71 447.55 949.88 463.62 869.58 551.95 783.69 643.79 920.55 656.96
00019357 00000101 649.81 240.79 397.99 552.29 776.73 447.78 947.51 463.14 865.63 553.56 780.59 649.48 916.79 662.37
00019358 00000102 647.73 241.89 398.42 552.78 770.85 448.10 944.92 463.96 858.95 552.01 774.08 648.35 916.80 661.56
00019359 00000103 645.42 241.95 398.48 551.84 765.80 448.06 941.17 464.70 852.53 551.34 767.61 645.42 916.13 659.04
00019360 00000104 643.19 244.34 398.80 547.57 759.70 447.08 937.61 465.29 844.47 548.88 760.21 641.74 912.97 656.35
00019361 00000105 639.90 244.96 399.63 547.11 753.05 446.52 931.16 464.92 836.67 548.91 752.85 639.92 906.71 654.76
00019362 00000106 636.10 246.85 400.56 545.32 748.22 447.59 927.00 465.60 831.66 550.52 748.38 640.18 902.83 654.84
00019363 00000107 633.01 246.73 400.15 544.62 743.63 448.01 921.63 466.15 826.22 551.11 742.89 639.13 898.47 654.00
00019364 00000108 631.75 247.43 399.31 543.45 740.09 448.10 917.69 466.16 821.98 550.90 739.17 639.03 895.20 653.97
00019365 00000109 630.70 248.35 398.74 541.88 737.05 447.06 915.01 465.83 817.43 551.36 736.13 639.08 891.57 654.76
00019366 00000110 629.64 249.00 399.29 541.22 735.85 448.30 913.92 467.06 815.73 552.34 734.80 639.63 890.22 655.32
00019367 00000111 628.92 249.57 399.29 540.79 734.99 450.12 912.38 467.67 815.01 553.75 734.76 640.24 889.67 655.02
00019368 00000112 628.55 251.14 399.15 539.62 734.86 452.03 912.27 468.92 815.20 555.19 734.81 640.93 890.43 655.16
00019369 00000113 628.15 252.73 399.41 538.61 734.13 453.21 912.04 468.91 814.86 556.25 735.73 642.17 890.65 655.42
00019370 00000114 627.68 252.30 400.27 541.15 733.39 453.36 912.33 468.83 814.77 556.87 735.38 643.46 891.26 656.49
00019371 00000115 627.01 253.28 400.55 541.77 733.10 454.75 911.33 469.10 814.73 558.30 736.84 645.64 890.39 657.70
00019372 00000116 626.42 254.69 401.85 543.52 732.61 455.68 911.41 469.92 814.33 559.91 738.23 648.15 890.62 660.09
00019373 00000117 626.48 253.76 402.71 549.01 732.29 455.68 911.78 469.98 813.90 560.37 738.06 649.56 891.98 661.43
00019374 00000118 626.07 252.75 403.85 552.74 731.88 455.72 912.21 469.87 814.05 561.12 738.27 651.06 893.10 662.69
00019375 00000119 626.31 253.78 402.56 548.66 731.68 455.87 911.81 470.20 813.12 560.29 736.91 649.35 892.91 661.23
00019376 00000120 626.78 251.79 401.08 546.81 731.54 454.94 911.46 469.00 813.14 558.77 736.01 647.47 891.91 659.20
00019377 00000121 627.11 250.60 399.75 544.17 731.72 455.31 909.87 469.04 813.03 557.16 734.14 644.25 891.70 655.78
00019378 00000122 627.21 249.80 400.26 545.09 733.42 456.43 909.65 470.11 814.15 557.05 735.45 642.81 893.99 654.14
00019379 00000123 629.01 248.08 399.73 549.54 736.74 452.61 914.95 466.44 819.30 552.81 738.83 642.93 898.39 654.28
00019380 00000124 631.20 245.73 400.16 555.17 744.61 449.91 925.44 464.12 832.24 552.31 748.33 645.40 904.83 656.86
00019381 00000125 634.81 242.17 402.16 559.58 756.10 445.98 938.10 462.59 847.89 548.57 759.37 645.23 915.93 658.48
00019382 00000126 642.28 238.18 399.86 558.12 772.46 444.17 950.88 461.16 866.74 548.79 774.37 645.28 922.93 658.88
00019383 00000127 646.95 239.26 399.44 549.85 789.01 441.44 963.27 461.76 887.98 544.64 787.03 638.60 932.97 654.99
00019384 DELETE   652.71 240.70 401.20 546.70 801.93 438.55 974.49 459.63 906.23 545.65 798.21 634.30 945.53 651.69
00019385 00000129 660.88 240.03 401.72 543.88 813.32 441.58 983.14 462.15 918.55 546.57 811.95 634.40 957.15 650.94
00019386 00000130 665.94 245.12 408.77 544.00 823.58 448.64 993.29 464.51 927.63 550.23 823.53 637.02 964.20 650.36
00019387 00000131 672.07 249.97 411.99 545.00 836.08 455.06 1007.54 473.39 939.35 560.41 830.38 642.93 974.69 657.99
00019388 00000132 680.18 252.66 410.20 543.47 846.29 458.48 1021.89 480.37 947.74 570.06 838.67 646.46 982.74 664.23
00019389 00000133 683.10 265.38 417.66 533.76 853.52 461.31 1032.44 484.45 957.67 573.16 847.87 651.05 990.14 669.56
00019390 00000134 691.01 265.74 413.22 534.63 862.54 464.26 1036.99 485.73 966.33 577.67 857.85 655.85 993.73 673.46
00019391 00000135 699.40 267.93 410.36 532.46 869.86 464.30 1042.82 487.18 974.17 576.81 865.35 655.59 999.92 674.60
00019392 00000136 709.26 268.01 409.53 534.59 878.00 462.81 1049.44 489.35 981.44 578.22 869.20 651.80 1008.25 674.35
00019393 00000137 716.03 268.93 412.80 528.74 883.67 462.39 1056.55 490.96 987.60 574.31 873.93 646.80 1017.15 670.76
00019394 00000138 718.13 268.26 422.27 532.84 889.69 463.95 1056.89 484.08 987.84 574.94 877.67 644.35 1020.29 661.82
00019395 00000139 722.58 265.55 422.62 531.05 892.40 460.77 1058.83 482.87 989.30 570.40 880.53 637.35 1025.32 655.82
00019396 00000140 727.69 261.97 420.75 535.17 892.96 458.54 1060.56 483.30 988.16 568.57 880.07 634.77 1027.35 655.29
00019397 00000141 727.10 264.31 422.18 534.10 892.41 459.04 1060.11 485.60 986.08 570.80 876.91 635.51 1025.61 657.47
00019398 00000142 725.97 269.08 420.63 532.36 890.38 461.11 1060.10 486.70 984.70 575.72 875.29 642.88 1023.33 664.29
00019399 00000143 724.23 271.45 419.18 535.55 886.71 463.46 1057.94 487.08 981.56 585.45 873.21 653.92 1016.58 674.40
00019400 00000144 721.02 270.35 416.74 546.44 885.24 465.26 1056.14 487.25 983.44 592.70 875.26 663.67 1012.75 683.44
00019401 00000145 718.44 273.84 413.70 545.29 880.15 467.25 1053.32 488.23 980.83 593.84 870.66 667.33 1010.00 686.52
00019402 00000146 716.73 278.39 401.99 538.61 869.41 461.26 1046.55 485.75 978.30 590.83 860.65 666.50 1006.13 687.21
00019403 00000147 703.51 267.85 408.16 551.18 869.72 462.17 1041.16 487.09 972.04 580.29 862.72 663.76 1000.61 685.18
00019404 00000148 691.98 263.07 412.95 552.07 860.16 457.02 1033.87 482.70 962.10 576.45 852.33 660.77 992.73 682.66
00019405 00000149 681.99 254.47 418.22 558.19 849.97 452.47 1025.53 478.30 950.20 573.16 840.48 657.05 983.21 678.22
00019406 00000150 675.93 248.76 414.44 563.21 840.29 451.32 1010.24 475.22 939.39 569.92 830.46 653.29 974.18 673.03
00019407 00000151 667.75 253.69 412.98 556.69 825.88 456.14 996.84 476.06 927.65 566.53 820.95 652.03 966.55 668.69
00019408 00000152 660.70 257.74 411.44 550.90 816.47 459.66 983.09 477.24 915.70 570.09 812.70 651.60 957.14 666.69
00019409 00000153 659.52 258.55 402.79 545.86 810.62 461.97 981.24 480.89 915.19 569.25 810.35 652.83 955.46 668.87
00019410 00000154 656.12 260.87 401.88 539.46 802.80 462.79 976.99 479.67 906.87 570.39 804.12 654.20 950.76 668.72
00019411 00000155 654.50 259.52 401.32 537.59 795.33 462.85 971.08 479.80 897.36 568.62 798.91 653.79 945.82 668.31
00019412 00000156 653.80 257.53 399.75 533.79 791.77 461.44 967.54 480.63 890.34 564.70 794.95 651.14 940.06 667.33
00019413 00000157 653.62 253.43 398.46 533.99 786.66 458.38 963.32 476.90 882.89 563.37 789.76 649.28 935.78 664.71
00019414 00000158 652.16 249.32 400.64 537.82 782.57 456.88 960.52 474.97 877.00 564.51 785.19 649.07 932.59 663.92
00019415 00000159 651.27 249.41 401.81 539.96 781.03 456.96 958.43 475.40 873.67 566.34 783.41 649.62 930.73 664.72
00019416 00000160 650.36 251.73 402.90 539.65 778.13 458.85 957.16 477.99 869.84 568.42 781.82 652.60 929.38 668.24
00019417 00000161 650.95 254.78 402.43 539.11 776.52 460.58 957.01 479.38 867.81 570.32 781.94 655.22 930.50 670.64
00019418 00000162 650.67 257.02 403.00 541.14 776.78 461.02 956.50 479.19 867.87 571.70 781.83 657.18 931.12 672.22
00019419 00000163 650.20 256.30 403.88 548.11 777.62 461.01 956.50 479.26 868.44 572.23 781.62 658.53 932.93 673.61
00019420 00000164 651.05 255.35 404.52 552.23 779.67 459.75 957.43 478.55 869.99 571.19 783.15 658.52 933.84 673.89
00019421 00000165 651.10 254.11 404.73 553.85 781.26 458.65 958.27 477.76 871.56 570.22 784.20 658.07 934.27 673.70
00019422 00000166 650.42 252.11 405.09 554.04 781.62 458.09 957.86 477.38 872.30 569.93 784.34 656.66 933.73 672.38
00019423 00000167 649.81 252.39 405.09 549.91 780.79 458.00 957.15 477.53 871.50 569.59 782.48 654.12 932.73 670.15
00019424 00000168 649.51 253.04 404.04 542.45 778.45 458.38 957.37 478.18 869.80 568.79 780.48 651.67 931.61 667.98
00019425 00000169 649.16 252.27 402.93 540.45 776.73 458.01 955.63 476.66 867.83 568.42 779.36 650.81 929.97 666.16
