Video ID: 	tUo0SHKrOIA
H: 	1080
W: 	1920
FPS: 	25.0

FRAME INDEX X0 Y0 W H [Landmarks (5 Points)]

00005223 00000000 528.87 148.72 544.50 796.56 741.78 457.45 965.45 467.88 886.02 600.05 752.11 734.72 938.05 742.06
00005224 00000001 526.23 142.33 547.62 799.80 739.05 453.03 964.38 464.18 883.35 597.34 747.96 730.80 936.82 738.80
00005225 00000002 522.74 141.62 549.81 799.88 733.53 450.02 960.80 462.99 876.28 593.52 740.20 727.73 931.16 737.20
00005226 00000003 521.04 137.88 547.15 801.40 724.51 449.30 953.84 460.76 866.72 592.25 732.81 726.25 926.91 734.56
00005227 DELETE   518.10 137.94 549.93 808.87 716.43 447.00 948.15 456.49 856.97 590.08 724.26 726.09 922.58 733.08
00005228 00000005 516.47 140.65 548.48 807.29 710.96 445.01 942.19 454.71 850.33 586.63 720.35 726.74 916.38 734.13
00005229 00000006 515.68 141.73 546.83 801.69 711.05 444.88 940.73 453.71 850.74 586.34 722.61 725.63 916.15 732.28
00005230 00000007 515.28 141.52 547.65 799.55 713.20 445.42 942.24 453.62 853.08 583.99 724.52 722.46 918.40 728.56
00005231 00000008 515.97 140.62 548.67 798.44 716.10 445.38 944.70 453.26 856.73 586.12 726.61 720.84 921.84 726.53
00005232 00000009 516.14 139.94 547.84 799.26 716.19 445.37 945.16 453.19 857.43 585.67 727.01 721.00 922.39 726.65
00005233 00000010 514.50 139.38 546.89 801.95 714.67 445.04 943.38 451.79 856.41 585.16 727.68 723.50 920.91 728.29
00005234 00000011 511.41 138.89 547.06 806.14 709.18 445.12 939.54 451.37 851.41 585.40 723.88 726.21 918.17 730.58
00005235 00000012 505.72 137.59 548.92 803.95 701.24 445.65 932.62 451.23 842.88 583.50 716.03 722.84 912.34 726.72
00005236 00000013 502.90 137.97 549.74 799.25 695.62 445.25 928.10 451.06 836.77 582.34 709.63 719.34 908.14 723.19
00005237 00000014 499.22 139.45 551.00 797.86 691.82 444.92 924.05 451.85 832.13 581.57 704.58 718.08 903.84 722.80
00005238 00000015 497.55 140.58 551.96 799.33 689.30 444.85 922.55 452.24 829.22 583.71 701.98 719.91 901.19 725.15
00005239 00000016 496.88 141.67 552.14 801.27 689.18 445.17 921.72 452.09 829.70 582.95 702.80 721.17 901.93 725.85
00005240 00000017 496.69 141.16 552.16 802.47 689.28 445.88 922.61 452.63 830.69 584.54 702.49 721.88 902.57 726.44
00005241 00000018 496.08 140.47 552.32 800.07 689.06 445.43 922.55 452.14 830.55 583.96 702.35 720.38 902.23 724.94
00005242 00000019 494.56 141.47 553.12 799.97 687.87 445.36 921.11 452.22 829.55 583.58 701.22 720.84 901.01 725.40
00005243 00000020 492.43 149.90 553.47 781.14 681.61 446.11 913.75 450.68 820.24 588.93 696.80 720.40 895.87 724.38
00005244 00000021 490.34 149.81 553.01 780.20 678.54 445.19 909.83 450.12 814.25 587.77 693.20 720.05 890.12 724.38
00005245 00000022 485.57 149.91 553.71 780.13 675.12 445.86 906.34 451.25 810.31 587.69 688.79 719.84 886.38 724.56
00005246 00000023 486.91 150.59 550.91 778.65 675.54 445.70 905.56 452.30 808.25 588.79 686.92 719.31 884.08 725.21
00005247 00000024 486.95 150.51 551.22 778.24 675.04 445.80 905.26 451.54 808.30 588.30 687.15 719.05 885.02 724.14
00005248 00000025 485.50 150.17 554.04 777.98 675.72 445.94 907.50 450.16 811.76 587.49 690.89 719.99 887.63 723.76
00005249 00000026 488.16 148.93 553.78 777.75 679.34 446.60 910.53 450.95 815.75 586.62 694.62 719.35 891.03 723.08
00005250 00000027 489.66 150.06 552.37 774.58 679.41 446.59 912.46 449.54 818.56 587.67 697.46 720.93 893.53 723.53
00005251 00000028 488.56 149.27 553.50 776.42 679.58 446.49 912.52 449.68 818.92 587.85 697.22 720.26 894.17 723.03
00005252 00000029 488.30 149.23 552.54 775.95 677.60 446.84 910.52 448.85 816.75 587.80 696.11 720.85 893.10 722.69
00005253 00000030 486.23 148.61 552.53 778.22 675.16 446.63 907.80 449.29 812.73 589.15 691.56 720.47 889.97 722.94
00005254 00000031 485.49 149.16 550.68 776.44 673.54 445.79 905.31 450.13 808.89 589.52 688.70 720.01 886.00 723.93
00005255 00000032 483.88 148.83 550.92 775.74 671.50 445.79 902.89 449.97 806.67 588.06 685.91 719.35 884.69 723.30
00005256 00000033 483.28 149.64 551.72 776.08 671.41 445.41 903.12 450.63 806.47 588.80 683.89 718.94 883.80 723.71
00005257 00000034 484.00 149.33 551.60 777.19 672.00 446.41 903.09 451.58 806.63 588.74 684.24 718.95 884.14 723.66
00005258 00000035 484.34 149.44 552.32 776.95 673.06 446.46 903.88 451.53 808.01 588.55 685.72 718.73 885.72 723.31
00005259 00000036 484.17 150.97 552.59 775.96 673.61 446.82 904.35 452.31 808.91 589.89 685.98 718.76 886.06 723.64
00005260 00000037 483.57 151.71 552.86 775.18 673.48 447.00 904.20 452.95 808.72 589.58 685.12 718.39 886.00 723.64
00005261 00000038 483.55 151.09 552.46 774.63 672.47 446.76 904.31 452.73 807.81 590.48 683.96 718.79 885.15 724.11
00005262 00000039 482.77 151.48 551.93 773.22 670.88 446.98 903.61 453.08 806.31 590.59 681.79 718.70 883.62 724.24
00005263 00000040 482.93 151.96 551.08 771.41 670.05 446.59 902.87 453.23 805.02 591.27 680.62 718.29 882.57 724.27
00005264 00000041 483.47 152.09 550.81 769.03 669.64 446.77 903.53 452.99 804.38 591.38 681.97 718.12 881.85 723.63
00005265 00000042 484.44 151.86 549.57 766.67 669.63 447.11 903.86 452.47 804.51 590.99 684.24 718.35 882.08 723.07
00005266 00000043 487.45 144.73 548.58 788.16 672.66 448.68 908.29 455.93 810.01 586.39 684.08 721.13 885.40 726.15
00005267 00000044 487.41 143.89 548.44 789.14 672.70 448.92 908.36 455.70 810.57 586.27 684.65 721.33 886.25 725.99
00005268 00000045 488.37 144.32 548.34 787.77 673.81 449.15 909.69 456.03 811.85 586.59 685.55 721.12 887.48 725.86
00005269 00000046 488.81 144.03 548.52 788.37 674.30 448.53 909.97 455.67 812.05 587.03 685.55 720.67 887.72 725.59
00005270 00000047 488.49 144.76 548.36 786.22 672.90 447.72 909.86 455.82 810.03 586.54 682.58 720.42 885.20 726.28
00005271 00000048 487.55 143.13 547.54 789.28 671.92 446.37 907.48 455.17 807.31 584.91 681.12 719.79 881.75 726.30
00005272 00000049 484.45 150.34 547.42 766.70 667.60 443.72 901.25 450.72 798.67 587.26 679.34 716.66 875.02 723.03
00005273 00000050 483.86 149.50 548.19 767.37 666.43 442.61 900.20 450.17 795.79 585.49 678.22 716.20 872.78 723.11
00005274 00000051 483.45 149.40 548.57 768.70 665.51 442.35 899.94 449.69 795.43 584.77 677.06 716.86 873.19 723.61
00005275 00000052 484.03 148.89 549.15 772.28 666.98 443.11 900.87 449.84 797.25 584.92 678.24 716.87 875.29 723.05
00005276 00000053 484.16 149.24 549.77 771.93 669.68 444.85 902.01 450.56 801.26 584.98 682.47 717.76 877.26 723.01
00005277 00000054 484.89 149.73 550.07 771.10 671.06 444.68 903.66 450.38 803.59 586.49 684.52 718.27 879.07 723.44
00005278 00000055 485.64 148.61 550.85 774.27 672.70 444.95 904.18 449.72 805.54 584.70 686.34 718.70 880.43 723.21
00005279 00000056 484.44 148.44 551.09 779.80 671.98 448.84 901.80 452.16 804.19 581.92 684.38 718.23 882.30 721.37
00005280 00000057 483.47 149.97 551.17 780.56 672.88 453.06 900.31 456.89 804.34 580.69 684.29 720.76 881.80 724.05
00005281 00000058 483.96 149.92 550.83 781.71 673.01 451.47 901.10 454.38 805.69 581.27 685.71 721.22 883.28 723.84
00005282 00000059 486.48 148.23 551.74 782.02 676.06 449.14 905.49 451.36 810.96 582.54 689.74 721.30 886.41 723.47
00005283 00000060 491.32 134.37 551.58 809.10 684.32 444.02 915.62 449.94 823.38 577.37 697.24 720.01 894.39 724.05
00005284 00000061 494.18 134.09 550.38 806.71 691.46 440.60 920.89 445.82 832.48 573.00 704.65 716.94 900.04 720.57
00005285 00000062 497.15 131.74 547.82 808.01 696.98 439.76 924.28 443.94 839.36 573.78 711.61 717.66 905.08 720.42
00005286 00000063 501.02 133.01 545.53 801.48 701.97 440.10 929.38 443.74 844.81 575.20 717.39 717.26 909.73 719.56
00005287 00000064 500.37 131.94 547.44 803.62 703.37 440.12 931.41 444.84 847.98 575.48 718.10 715.70 913.66 718.74
00005288 00000065 499.13 132.32 548.68 808.75 703.72 439.85 931.21 444.55 848.80 574.38 719.32 716.82 914.93 719.76
00005289 00000066 498.60 133.08 549.55 812.61 703.72 439.64 930.69 445.76 848.07 574.70 717.39 718.40 913.21 722.52
00005290 00000067 497.38 133.68 549.58 814.91 703.84 439.69 930.22 445.99 848.25 575.10 716.60 719.45 912.45 723.73
00005291 00000068 497.63 133.21 549.74 815.75 704.84 439.93 931.19 446.90 848.90 576.04 716.57 718.94 912.55 723.78
00005292 00000069 498.82 135.18 549.46 811.71 704.96 441.02 932.03 446.87 849.04 576.49 718.63 718.16 914.96 722.11
00005293 00000070 498.79 135.91 549.29 809.38 704.29 442.17 931.39 447.92 847.87 577.18 716.65 717.16 913.43 721.12
00005294 00000071 497.19 134.77 549.02 806.53 702.87 442.27 930.36 447.70 846.43 579.26 714.77 717.30 910.68 721.07
00005295 00000072 494.86 136.44 549.19 803.80 698.38 442.08 926.17 448.44 841.30 579.23 709.44 716.94 906.25 721.47
00005296 00000073 489.19 147.14 553.46 783.92 689.08 442.36 918.79 448.97 830.48 585.28 699.54 715.66 899.14 721.27
00005297 00000074 484.81 145.75 553.88 786.12 683.22 443.56 911.88 448.45 822.84 584.76 694.56 717.64 892.85 722.05
00005298 00000075 483.87 145.42 550.46 783.96 679.35 443.96 906.95 446.96 818.01 582.24 691.94 718.50 888.81 721.40
00005299 00000076 481.08 144.65 550.86 785.77 676.32 443.65 903.57 445.30 815.30 581.28 688.92 718.31 887.67 720.13
00005300 00000077 482.53 145.01 549.42 784.58 675.03 441.64 901.55 442.57 812.42 578.46 691.60 718.07 886.23 719.13
00005301 00000078 482.65 144.72 549.05 783.53 674.40 441.08 900.87 442.36 811.76 578.88 689.71 717.00 885.76 718.48
00005302 00000079 483.17 144.84 548.57 781.62 673.40 440.50 901.39 441.95 810.44 578.15 689.03 716.45 885.75 718.05
00005303 00000080 483.41 145.72 548.87 778.94 673.94 441.05 902.84 443.04 811.43 579.27 688.18 716.48 885.89 718.47
00005304 00000081 483.20 145.20 549.43 780.01 675.00 441.32 903.77 443.64 812.86 579.79 688.15 716.29 886.54 718.59
00005305 00000082 483.74 145.15 549.41 779.51 676.04 442.05 904.60 444.64 813.45 579.26 690.27 716.13 887.33 718.62
00005306 00000083 485.48 145.44 548.46 776.90 676.82 442.79 906.53 445.99 813.88 580.44 691.11 716.91 887.05 719.88
00005307 00000084 485.95 147.39 548.18 773.79 677.06 443.93 907.32 447.07 814.98 581.63 691.76 717.52 887.72 720.45
00005308 00000085 485.78 146.86 548.59 774.65 677.48 443.90 907.47 447.35 814.96 581.11 691.28 717.11 888.02 720.31
00005309 00000086 485.55 146.60 549.15 775.22 676.38 444.07 907.14 447.16 813.81 581.08 690.02 717.25 887.64 720.15
00005310 00000087 485.12 145.96 547.97 776.22 676.14 443.55 905.10 446.61 812.53 580.22 689.63 716.36 886.76 719.25
00005311 00000088 484.15 144.74 548.64 776.56 674.70 443.54 904.88 446.61 811.51 580.20 688.54 716.62 886.56 719.45
00005312 00000089 483.97 144.44 547.90 775.66 674.59 443.25 904.49 446.41 811.48 579.76 688.45 716.36 886.24 719.25
00005313 00000090 486.32 136.37 547.38 798.06 676.58 441.64 908.43 447.93 816.83 575.93 688.15 715.62 889.51 719.86
00005314 00000091 484.52 145.52 547.15 774.12 674.62 443.29 904.11 446.04 811.59 580.23 688.99 715.96 886.39 718.44
00005315 00000092 484.37 144.64 547.40 773.74 674.30 443.73 904.76 446.03 811.86 579.90 688.59 715.93 886.34 718.03
00005316 00000093 483.75 145.08 547.56 773.87 674.14 443.07 904.32 445.82 811.34 580.30 687.70 715.89 885.63 718.42
00005317 00000094 483.53 145.46 548.07 774.11 673.94 443.50 903.69 447.03 810.02 580.26 686.39 715.28 884.54 718.50
00005318 00000095 483.29 146.18 547.74 774.60 673.46 443.71 902.76 447.65 809.13 580.97 685.54 715.38 883.29 719.03
00005319 00000096 482.76 145.28 548.72 777.57 672.96 443.64 902.34 447.02 808.83 580.74 684.44 715.69 883.78 718.95
00005320 00000097 482.45 146.42 548.45 777.19 672.66 444.32 901.79 447.63 808.71 581.15 684.72 716.23 884.11 719.35
00005321 00000098 482.04 146.93 548.76 777.18 672.37 444.34 901.43 447.91 808.57 581.22 685.28 716.76 883.98 720.11
00005322 00000099 482.13 147.09 548.58 777.80 672.03 444.90 901.09 448.37 807.87 581.50 685.26 717.11 883.85 720.34
00005323 00000100 482.74 146.74 547.78 777.66 672.05 444.76 901.06 449.23 806.85 581.56 683.56 716.55 882.52 720.68
00005324 00000101 482.68 147.01 547.13 776.51 670.36 443.51 900.50 448.75 804.89 582.54 680.79 715.69 881.38 720.48
00005325 00000102 481.39 146.96 547.71 776.89 668.95 442.48 899.93 447.93 803.37 581.93 679.40 715.83 880.48 720.81
00005326 00000103 481.47 147.93 547.53 776.98 669.16 442.43 899.62 448.31 803.28 582.71 679.20 716.03 880.19 721.39
00005327 00000104 482.33 147.12 547.15 776.60 669.75 442.40 900.23 448.11 803.84 583.23 680.87 716.19 880.55 721.38
00005328 00000105 481.70 148.10 547.32 777.07 670.03 442.85 900.19 448.73 804.28 583.75 680.74 716.29 880.26 721.59
00005329 00000106 481.79 149.14 547.11 776.35 669.41 443.07 900.45 449.02 804.16 585.15 679.45 716.38 880.80 721.75
00005330 00000107 481.71 148.70 546.94 777.66 669.80 442.71 899.95 449.04 803.73 585.03 678.65 715.94 879.98 721.66
00005331 00000108 481.58 149.93 546.52 776.57 668.82 442.42 898.87 448.40 802.58 584.46 678.42 716.27 879.03 721.69
00005332 00000109 482.12 150.27 546.31 776.96 667.55 442.08 898.00 448.73 800.24 584.20 676.30 716.47 877.52 722.40
00005333 00000110 481.11 148.14 547.72 778.73 666.27 442.47 896.34 449.91 795.74 584.51 675.00 716.15 873.53 722.87
00005334 00000111 481.58 148.49 545.83 781.17 663.11 442.36 893.41 450.30 789.93 584.75 669.88 715.36 870.42 722.31
00005335 00000112 481.78 151.82 545.90 775.34 658.87 441.06 889.95 449.68 783.11 584.80 667.14 715.66 865.31 723.20
00005336 00000113 481.39 151.52 547.35 773.68 655.68 440.78 887.98 449.12 777.99 584.59 664.69 715.83 862.02 723.12
00005337 00000114 480.83 151.37 547.97 774.46 653.82 440.60 887.42 449.56 775.36 585.60 662.33 715.66 860.51 723.56
00005338 00000115 480.95 151.10 546.94 774.61 655.52 444.15 889.07 453.41 776.84 583.80 662.63 715.82 860.72 723.99
00005339 00000116 479.40 148.61 550.17 778.55 660.59 450.99 892.30 460.41 782.97 584.90 665.27 716.53 865.44 724.58
00005340 00000117 486.57 143.29 547.97 797.05 666.53 455.40 900.96 467.79 795.04 582.89 669.21 720.00 874.38 729.00
00005341 00000118 485.73 142.00 549.16 798.26 669.28 453.97 905.35 460.80 806.17 585.76 678.63 722.96 883.04 727.36
00005342 00000119 483.74 140.14 555.36 798.25 674.77 453.91 910.12 456.92 817.38 587.14 691.21 725.54 892.15 726.94
00005343 00000120 490.10 140.74 549.40 799.38 682.35 453.38 915.30 454.59 827.24 588.86 700.83 726.11 900.06 726.02
00005344 00000121 491.49 141.73 547.44 795.63 686.77 453.61 917.10 453.68 832.22 588.37 708.05 725.62 902.78 724.70
00005345 00000122 489.21 140.91 548.70 797.22 684.40 452.26 915.85 451.59 831.23 586.08 706.92 725.34 902.71 723.75
00005346 00000123 485.85 138.92 552.03 799.23 679.69 450.54 912.90 450.11 826.45 585.29 703.29 724.24 901.22 722.64
00005347 00000124 481.99 147.85 551.70 775.79 671.06 448.17 902.13 446.85 811.04 587.83 695.79 721.71 890.24 720.57
00005348 00000125 478.60 147.39 549.26 777.62 665.14 446.89 897.02 445.03 804.78 586.85 688.49 721.58 885.34 720.01
00005349 00000126 477.69 148.78 547.97 779.21 662.87 445.78 894.84 445.14 800.40 584.99 682.47 720.90 882.11 720.24
00005350 00000127 477.45 147.84 547.31 782.90 663.56 445.72 893.77 446.83 799.09 584.10 679.71 720.35 880.04 721.19
00005351 00000128 477.34 148.39 547.40 778.60 662.86 445.05 894.22 445.95 798.79 582.91 679.44 719.28 880.19 719.85
00005352 00000129 477.84 147.33 545.96 778.10 663.33 444.74 894.55 445.28 799.15 581.14 680.55 718.59 880.27 718.86
00005353 00000130 477.10 146.69 545.19 777.56 662.96 444.29 893.87 443.93 799.12 578.81 680.86 719.02 879.46 718.56
00005354 00000131 476.20 147.30 545.75 775.73 661.67 444.16 892.54 444.11 797.38 578.70 679.37 718.63 878.08 718.45
00005355 00000132 476.97 146.44 545.43 776.84 661.18 444.76 892.48 445.42 795.72 580.43 677.84 718.63 877.04 719.03
00005356 00000133 475.24 146.90 547.95 777.01 660.74 445.20 892.65 447.84 794.47 582.81 676.03 718.46 875.19 720.57
00005357 00000134 476.09 147.39 546.01 777.92 659.38 445.26 891.28 448.39 792.08 584.24 674.54 719.18 873.77 721.76
00005358 00000135 475.57 146.47 545.49 773.32 658.28 443.77 891.02 447.33 790.55 582.38 674.15 717.60 871.79 720.57
00005359 00000136 478.58 142.88 541.55 776.99 656.52 443.11 888.83 446.48 795.98 573.52 677.80 715.57 869.64 717.96
00005360 00000137 478.48 141.45 539.78 774.93 655.19 441.47 887.66 445.32 793.81 570.91 674.62 712.02 867.31 714.87
00005361 00000138 475.81 147.69 541.72 763.34 654.74 440.29 886.05 443.15 783.77 574.68 672.93 710.46 866.47 712.78
00005362 00000139 475.66 149.30 542.55 764.87 654.19 440.18 884.79 443.36 782.74 576.15 673.63 712.63 864.50 715.36
00005363 00000140 476.09 150.25 541.54 765.62 652.99 440.78 883.80 443.01 781.56 575.00 672.34 713.89 863.93 715.79
00005364 00000141 476.53 150.44 541.40 767.67 652.75 439.96 882.75 441.33 780.77 574.06 672.65 713.76 863.61 714.99
00005365 00000142 476.61 149.26 541.23 769.67 652.75 438.81 882.35 439.53 780.11 572.01 672.06 712.83 862.92 713.61
00005366 00000143 476.61 147.41 541.09 771.26 652.11 437.96 881.90 438.35 779.22 570.44 671.90 711.95 862.72 712.50
00005367 00000144 471.18 141.60 543.53 779.51 647.94 436.83 881.09 439.84 784.24 568.86 670.05 712.03 862.13 713.09
00005368 00000145 470.55 142.72 545.09 780.95 648.71 438.58 881.40 441.06 785.34 568.78 672.84 714.62 864.12 715.36
00005369 00000146 469.53 143.39 546.62 783.46 648.27 441.09 881.27 442.96 785.79 569.88 672.22 716.58 865.60 716.92
00005370 00000147 469.54 143.80 547.35 780.33 647.75 445.57 882.42 449.41 785.13 570.67 670.77 716.23 865.69 718.17
00005371 00000148 474.43 147.32 543.25 773.97 656.12 450.67 885.65 450.82 783.39 572.01 673.29 716.18 865.81 716.30
00005372 00000149 478.21 140.46 542.16 786.03 651.86 448.58 886.89 449.25 791.06 571.35 673.75 716.64 870.05 717.03
00005373 00000150 473.49 143.79 546.94 774.97 652.20 446.35 889.46 446.93 797.24 569.14 683.02 718.42 879.55 717.51
00005374 00000151 479.51 147.61 538.74 768.50 660.12 446.83 890.30 440.49 798.15 572.53 687.23 720.64 881.01 715.05
00005375 00000152 478.20 144.45 541.41 772.41 660.09 445.10 891.54 437.82 799.85 572.24 687.48 720.25 883.85 713.87
00005376 00000153 474.57 142.36 546.45 772.68 654.62 440.28 890.72 437.46 802.05 568.76 689.70 717.35 884.92 713.30
00005377 00000154 474.31 141.74 546.63 774.44 653.23 440.07 890.22 437.52 800.71 568.94 688.26 718.06 883.35 714.29
00005378 00000155 476.54 146.14 542.06 771.53 657.00 443.99 889.24 438.69 794.66 573.86 682.37 719.72 878.93 715.00
00005379 00000156 476.27 148.35 542.07 771.51 657.32 445.30 888.34 441.13 794.36 578.29 681.69 720.92 876.82 717.16
00005380 00000157 475.51 147.97 542.58 768.94 657.93 446.32 889.10 443.75 794.66 581.45 681.20 720.17 875.16 717.89
00005381 00000158 475.85 147.51 542.66 770.71 658.10 445.79 889.00 442.47 795.08 579.74 682.19 720.38 876.56 717.37
00005382 00000159 475.48 147.75 543.14 772.73 658.34 445.69 888.23 441.69 795.42 577.26 682.32 720.44 877.76 716.83
00005383 00000160 475.12 148.04 543.65 774.38 658.18 444.75 887.67 440.15 795.30 576.20 683.24 720.17 878.51 715.99
00005384 00000161 473.76 146.14 544.94 777.97 657.47 445.52 887.77 441.97 793.79 577.08 680.50 720.41 876.77 717.13
00005385 00000162 473.76 147.91 544.80 774.28 657.69 446.93 887.98 443.92 793.98 579.59 680.38 720.78 876.04 717.95
00005386 00000163 474.17 148.31 544.10 774.99 657.18 448.41 887.86 444.84 794.01 581.63 680.17 721.56 876.67 718.21
00005387 00000164 474.93 148.12 543.78 776.40 658.44 447.73 887.51 443.89 795.12 580.68 682.06 721.64 877.78 718.03
00005388 00000165 474.50 145.13 544.41 780.56 658.56 444.87 887.95 440.86 795.07 574.77 681.90 720.44 878.77 716.79
00005389 00000166 474.93 140.89 544.30 782.20 659.91 440.24 889.90 435.92 797.57 570.66 683.60 717.69 880.46 713.78
CROP_BBOX: 165 0 1370 1080
