Video ID: 	iygjbTAVVG4
H: 	2160
W: 	3840
FPS: 	23.976023976023978

FRAME INDEX X0 Y0 W H [Landmarks (5 Points)]

00002141 00000000 2036.25 210.41 553.49 783.72 2123.07 516.74 2389.29 517.76 2205.23 654.88 2133.63 802.86 2359.37 807.23
00002142 00000001 2040.33 209.15 563.26 794.42 2128.05 526.11 2404.16 521.79 2222.50 666.60 2148.26 814.23 2377.17 814.44
00002143 00000002 2042.41 216.48 568.27 794.97 2129.42 537.29 2388.99 529.62 2220.83 672.50 2149.63 822.25 2368.99 819.15
00002144 00000003 2040.46 212.51 554.15 801.44 2125.22 536.57 2393.46 536.81 2210.51 674.07 2139.30 818.89 2356.83 822.98
00002145 00000004 2044.10 210.17 559.22 801.05 2129.86 530.53 2382.55 526.59 2210.57 665.60 2146.72 818.03 2353.38 818.85
00002146 00000005 2052.27 207.95 564.33 802.80 2138.47 525.55 2392.91 517.97 2225.24 658.39 2164.01 816.40 2363.30 814.27
00002147 00000006 2056.12 211.54 564.36 796.20 2140.91 511.07 2395.37 505.60 2228.59 644.94 2164.16 804.71 2369.07 804.24
00002148 00000007 2060.12 214.09 556.60 795.70 2143.49 504.18 2389.75 505.61 2219.70 643.65 2159.70 798.68 2354.42 804.45
00002149 00000008 2066.42 210.05 557.00 802.35 2148.14 503.72 2393.94 508.17 2218.03 644.13 2161.56 799.82 2354.38 808.13
00002150 DELETE   2073.85 202.48 568.90 815.81 2164.32 509.86 2419.35 515.84 2246.30 649.90 2179.03 805.76 2385.81 814.34
00002151 00000010 2080.32 202.78 570.97 815.05 2177.85 515.99 2435.99 515.01 2275.50 651.56 2200.84 809.51 2411.50 812.20
00002152 DELETE   2077.32 204.12 567.84 811.68 2173.51 507.17 2429.66 508.66 2268.70 644.87 2196.42 801.18 2401.07 806.11
00002153 DELETE   2073.30 201.81 560.09 810.89 2161.51 499.60 2414.61 506.89 2240.92 637.85 2174.53 792.25 2373.59 802.99
00002154 00000013 2066.92 203.80 558.57 804.65 2151.90 495.92 2401.97 500.40 2228.80 632.21 2166.39 788.61 2364.86 797.13
00002155 00000014 2068.96 193.86 559.13 795.61 2149.20 497.79 2409.06 493.79 2230.96 617.07 2170.15 777.54 2371.36 778.39
00002156 00000015 2069.08 185.96 562.55 792.27 2151.96 495.52 2416.15 490.10 2232.47 613.83 2163.95 769.85 2386.35 768.71
00002157 00000016 2073.11 185.49 563.94 800.90 2156.87 497.70 2417.23 496.10 2230.41 618.72 2166.47 772.94 2379.24 775.40
00002158 00000017 2081.74 190.11 558.59 807.00 2169.75 501.05 2428.51 503.90 2242.55 623.14 2175.54 780.89 2391.63 787.01
00002159 00000018 2096.20 197.53 553.81 791.05 2185.26 503.33 2445.31 504.42 2266.62 625.65 2198.17 784.15 2412.09 788.95
00002160 00000019 2116.67 198.08 545.38 796.42 2203.02 503.65 2461.80 501.15 2282.30 629.87 2218.82 790.49 2434.20 792.47
00002161 00000020 2126.12 190.33 549.49 813.65 2216.67 504.04 2480.44 508.73 2293.96 633.78 2222.22 789.67 2445.15 797.66
00002162 00000021 2140.83 200.80 564.35 808.72 2233.47 506.34 2491.17 511.91 2316.80 639.98 2243.81 791.90 2449.78 801.45
00002163 00000022 2160.37 205.39 566.29 795.19 2251.54 507.50 2518.99 514.91 2337.79 635.57 2261.37 788.54 2467.17 800.10
00002164 00000023 2178.09 211.42 556.43 787.40 2275.03 497.94 2540.96 510.37 2353.28 627.98 2277.99 783.68 2491.19 798.16
00002165 00000024 2185.87 201.04 560.66 804.45 2283.08 496.22 2551.73 510.30 2359.24 627.55 2283.12 786.55 2500.04 802.47
00002166 00000025 2192.01 203.27 564.15 802.96 2288.22 498.59 2542.44 511.63 2364.42 634.24 2292.05 787.39 2491.68 803.31
00002167 00000026 2187.52 195.34 565.56 809.86 2285.57 492.80 2555.03 509.59 2360.63 625.25 2283.45 784.09 2497.90 802.25
00002168 00000027 2183.52 196.08 561.83 809.54 2279.45 492.24 2549.17 507.05 2356.64 624.37 2279.61 785.40 2494.98 801.88
00002169 00000028 2174.42 195.15 563.63 809.57 2271.53 490.47 2538.76 506.74 2346.49 622.13 2269.53 783.69 2478.04 801.50
00002170 00000029 2160.85 192.68 567.61 814.31 2260.91 494.50 2525.11 509.31 2333.80 628.00 2255.73 784.75 2465.35 800.83
00002171 00000030 2150.52 195.44 574.46 819.54 2246.74 497.30 2506.80 510.52 2324.23 638.08 2249.47 791.18 2453.59 807.22
00002172 00000031 2143.99 195.66 576.24 822.96 2241.29 498.61 2503.28 511.98 2320.24 639.76 2245.50 792.72 2450.85 808.74
00002173 00000032 2141.30 198.12 578.59 823.11 2240.17 499.73 2502.43 512.85 2320.91 642.35 2244.49 797.07 2449.99 812.78
00002174 00000033 2139.17 200.59 573.31 822.51 2236.39 502.45 2497.84 514.54 2316.57 645.13 2241.61 801.27 2448.42 815.77
00002175 00000034 2135.62 193.97 568.68 824.55 2229.77 503.67 2490.97 516.36 2310.79 645.27 2234.38 800.48 2443.05 815.75
00002176 00000035 2128.32 194.22 570.39 821.52 2223.25 503.65 2483.48 515.48 2304.50 642.81 2229.02 797.61 2438.00 812.20
00002177 00000036 2124.31 194.31 568.94 822.85 2219.23 503.43 2478.60 512.55 2300.14 639.68 2227.92 796.90 2436.00 809.11
00002178 00000037 2123.41 190.64 568.54 825.98 2217.87 504.07 2478.39 512.22 2301.44 640.12 2226.59 797.38 2439.03 808.68
00002179 00000038 2124.12 190.88 566.86 824.64 2218.50 502.90 2480.65 510.95 2302.61 638.67 2227.33 798.85 2441.82 809.68
00002180 00000039 2127.84 191.15 566.58 826.01 2224.26 499.72 2487.23 507.59 2312.74 636.91 2235.49 800.25 2447.87 810.61
00002181 00000040 2130.75 190.41 571.06 824.35 2231.16 495.06 2500.27 503.09 2326.46 632.92 2240.45 790.20 2461.26 801.06
00002182 00000041 2134.41 198.95 569.92 808.63 2237.22 491.90 2506.86 503.17 2330.24 629.85 2237.93 777.85 2470.76 790.66
00002183 00000042 2138.43 199.24 571.71 806.90 2241.11 486.43 2514.30 498.11 2336.19 621.39 2243.42 773.38 2474.95 786.34
00002184 00000043 2145.43 188.07 574.88 817.59 2250.01 479.64 2526.28 495.38 2348.77 613.61 2255.04 772.99 2475.15 790.15
00002185 00000044 2154.38 192.86 574.27 813.19 2261.52 472.64 2536.11 491.26 2361.79 609.59 2274.84 771.20 2476.35 791.88
00002186 00000045 2173.38 183.87 566.33 824.11 2282.01 466.23 2565.34 485.04 2374.29 599.48 2284.06 769.49 2505.28 787.63
00002187 00000046 2174.97 179.37 581.59 815.58 2292.57 453.78 2578.18 477.87 2393.19 587.25 2296.06 750.56 2517.21 773.98
00002188 00000047 2178.95 183.89 579.07 804.50 2302.90 438.83 2590.24 465.68 2407.28 585.75 2297.75 735.60 2538.48 760.46
00002189 00000048 2183.80 183.70 576.87 797.86 2309.29 431.51 2591.54 459.12 2412.67 581.40 2298.83 718.47 2551.82 744.31
00002190 00000049 2187.57 185.03 573.98 801.57 2312.51 429.96 2592.39 454.26 2419.88 576.26 2305.30 714.58 2557.94 738.40
00002191 00000050 2188.22 188.54 575.14 804.63 2314.30 427.64 2598.48 448.92 2426.75 567.47 2308.83 716.42 2566.06 737.98
00002192 00000051 2191.06 183.82 571.31 813.34 2316.89 426.53 2599.81 444.58 2430.14 560.65 2312.40 714.52 2570.49 733.21
00002193 00000052 2191.95 181.90 569.53 809.78 2316.08 424.43 2597.74 439.54 2427.69 555.19 2310.89 710.88 2571.39 726.33
00002194 00000053 2192.13 181.51 568.73 804.28 2314.23 424.93 2593.37 438.02 2423.56 550.56 2308.44 707.19 2569.17 720.47
00002195 00000054 2191.82 180.38 563.34 790.38 2307.58 429.44 2583.17 439.55 2413.61 549.20 2302.24 704.95 2564.99 715.06
00002196 00000055 2187.66 179.31 560.58 790.80 2299.00 440.64 2570.49 446.61 2401.69 553.41 2295.57 706.07 2553.95 712.54
00002197 00000056 2178.81 173.52 565.18 797.14 2288.91 443.53 2558.38 448.75 2386.98 551.67 2288.18 712.95 2536.64 718.75
00002198 00000057 2168.58 175.56 565.50 803.51 2271.18 447.45 2548.79 448.91 2376.07 566.18 2277.62 723.84 2529.16 727.01
00002199 00000058 2157.35 170.98 572.12 814.73 2258.94 452.14 2539.62 453.27 2366.97 576.41 2266.34 732.90 2521.87 736.21
00002200 00000059 2150.56 170.52 572.34 817.93 2249.52 463.30 2530.60 459.05 2355.90 579.58 2259.48 739.89 2516.12 738.31
00002201 00000060 2138.92 178.20 572.16 809.72 2236.53 468.61 2515.98 464.04 2343.18 588.89 2250.98 742.46 2501.50 741.06
00002202 00000061 2130.78 185.40 565.01 798.90 2224.60 475.86 2502.56 469.97 2326.89 591.32 2235.81 743.28 2492.23 739.54
00002203 00000062 2123.53 176.78 565.49 800.18 2215.31 488.63 2486.50 475.47 2306.06 585.69 2218.75 748.99 2478.45 738.58
00002204 00000063 2118.28 177.66 565.10 802.96 2208.33 491.04 2476.83 479.11 2297.48 591.73 2213.63 752.35 2470.03 743.11
00002205 00000064 2116.12 184.59 565.80 806.40 2207.01 493.14 2476.96 485.83 2297.10 605.47 2215.40 758.97 2468.53 754.10
00002206 00000065 2117.51 191.75 566.52 803.58 2210.72 498.88 2480.11 493.13 2301.10 613.56 2219.87 763.05 2471.66 759.43
00002207 00000066 2118.88 192.78 568.05 809.76 2215.26 498.86 2482.65 495.16 2307.18 622.07 2226.74 767.03 2475.53 763.66
00002208 00000067 2119.90 198.88 568.08 808.36 2217.17 497.01 2483.35 493.31 2310.35 626.37 2230.37 771.81 2473.42 769.23
00002209 00000068 2118.65 201.73 568.23 810.16 2216.07 496.91 2482.25 493.73 2309.23 628.19 2231.17 773.59 2472.98 771.46
00002210 00000069 2114.38 198.31 565.65 813.74 2212.70 496.39 2477.29 493.78 2306.13 630.50 2229.98 776.52 2465.88 775.22
00002211 00000070 2111.45 196.44 557.17 815.31 2206.60 497.83 2477.22 497.66 2290.04 629.44 2218.69 779.00 2463.12 780.66
00002212 00000071 2109.05 197.27 557.14 817.68 2202.82 499.11 2470.45 495.59 2286.39 627.96 2220.30 780.65 2456.35 779.82
00002213 00000072 2108.57 201.94 557.08 810.53 2202.33 502.06 2467.81 497.85 2285.21 630.37 2219.29 782.29 2456.08 780.83
00002214 00000073 2109.55 201.02 555.75 814.29 2203.76 502.65 2470.32 498.43 2288.39 632.02 2220.96 785.59 2457.20 784.15
00002215 00000074 2108.34 193.12 558.28 828.76 2209.57 504.62 2470.18 499.28 2292.23 638.81 2221.36 783.66 2458.54 783.02
00002216 00000075 2114.09 199.33 556.29 813.02 2210.93 502.45 2477.68 501.25 2296.63 633.25 2222.34 781.73 2465.54 782.80
00002217 00000076 2112.79 188.79 555.99 824.44 2212.07 502.13 2474.98 498.63 2295.41 636.49 2222.77 780.42 2459.31 781.23
00002218 00000077 2112.97 189.31 555.35 819.96 2211.68 501.77 2473.99 497.86 2294.52 636.80 2222.37 779.18 2460.02 779.53
00002219 00000078 2111.94 190.68 558.11 819.56 2211.38 501.77 2473.04 498.60 2292.73 637.34 2220.83 778.26 2459.55 779.12
00002220 00000079 2111.26 190.66 556.12 813.80 2210.21 502.63 2470.32 499.86 2292.34 638.15 2218.37 775.32 2458.52 776.43
00002221 00000080 2111.53 193.04 556.10 810.47 2210.16 502.53 2469.93 500.24 2291.76 637.39 2217.59 773.73 2457.84 775.32
00002222 00000081 2110.16 192.32 556.31 801.69 2207.48 506.65 2467.51 504.23 2291.02 638.50 2214.46 772.98 2455.12 774.65
00002223 00000082 2108.08 192.72 557.80 801.77 2206.41 511.51 2467.53 508.35 2292.53 638.78 2213.20 774.69 2455.39 776.13
00002224 00000083 2107.20 192.82 557.65 794.02 2204.25 512.70 2467.07 510.25 2292.10 639.23 2208.99 771.85 2454.02 774.06
00002225 00000084 2106.44 192.03 558.14 792.90 2203.67 513.38 2467.39 510.67 2290.99 639.07 2208.08 773.45 2453.67 775.59
00002226 00000085 2104.39 192.40 560.04 796.43 2203.05 511.60 2466.20 509.52 2290.06 636.60 2208.39 773.34 2450.17 775.95
00002227 00000086 2102.29 192.44 560.68 792.64 2199.84 515.38 2464.57 512.63 2289.52 638.34 2203.29 773.93 2446.74 776.25
00002228 00000087 2102.52 192.23 558.42 791.85 2201.26 515.99 2463.97 514.80 2288.31 638.07 2204.38 773.87 2442.24 777.41
00002229 00000088 2102.01 192.77 557.22 793.33 2199.83 516.43 2460.79 514.55 2287.78 639.47 2204.19 772.28 2440.11 775.06
00002230 00000089 2101.72 193.71 557.37 792.51 2198.03 517.93 2460.17 515.40 2286.14 640.67 2201.46 774.78 2440.33 777.13
00002231 00000090 2101.33 192.51 557.69 793.83 2195.85 519.24 2460.37 515.07 2285.53 640.44 2198.86 777.99 2440.01 779.18
00002232 00000091 2098.64 195.62 559.28 791.29 2194.56 520.24 2460.37 516.47 2286.23 641.87 2197.27 778.37 2439.91 780.06
00002233 00000092 2098.74 196.27 558.37 790.78 2194.17 520.60 2459.38 515.73 2285.71 641.60 2198.01 779.77 2439.69 780.58
00002234 00000093 2099.02 196.97 556.72 783.36 2193.94 515.42 2459.41 515.85 2284.70 638.46 2197.09 780.46 2447.14 784.33
00002235 00000094 2097.54 194.10 558.77 786.96 2193.48 514.51 2459.17 515.95 2283.93 638.86 2195.11 779.80 2446.68 784.47
00002236 00000095 2098.33 193.81 558.47 786.46 2193.09 514.72 2459.24 515.45 2284.00 638.65 2195.84 780.69 2446.92 784.82
00002237 00000096 2098.46 193.42 558.55 786.59 2193.23 514.90 2458.78 515.74 2283.63 638.91 2196.29 780.95 2444.44 785.14
00002238 00000097 2098.96 193.47 556.99 784.28 2193.55 515.46 2459.02 515.45 2284.80 638.78 2197.62 783.62 2444.14 787.44
00002239 00000098 2101.56 197.16 558.43 782.02 2193.70 519.36 2457.45 511.99 2283.49 634.17 2202.94 785.58 2436.96 782.84
00002240 00000099 2103.06 195.95 558.31 795.26 2194.80 520.65 2456.65 512.31 2283.04 634.40 2209.30 790.59 2433.12 787.43
00002241 00000100 2103.85 195.33 555.79 797.76 2195.28 519.52 2455.17 512.24 2280.94 633.83 2209.62 794.26 2426.39 792.30
00002242 00000101 2103.60 195.40 555.70 796.15 2192.44 516.51 2444.31 510.77 2271.97 627.15 2205.24 791.17 2402.45 791.43
00002243 DELETE   2093.88 187.77 566.67 798.74 2184.00 506.82 2438.61 509.75 2255.59 616.28 2185.81 780.73 2379.37 787.40
00002244 DELETE   2076.68 186.57 574.22 800.60 2164.72 488.21 2405.39 497.21 2211.69 599.58 2150.77 772.95 2324.37 784.54
00002245 00000104 2064.22 171.36 572.63 810.69 2152.78 472.55 2372.29 487.68 2174.14 580.49 2125.84 758.47 2273.86 777.23
00002246 DELETE   2079.15 146.90 567.23 835.54 2158.59 467.94 2388.07 469.15 2186.85 574.19 2139.09 757.58 2310.72 762.75
00002247 DELETE   2101.27 164.64 568.46 793.54 2181.47 463.51 2443.84 460.30 2259.53 573.30 2192.86 738.70 2399.43 741.39
00002248 DELETE   2129.43 168.51 553.56 780.19 2230.79 459.03 2498.15 439.63 2336.30 536.71 2247.36 721.33 2480.73 706.45
00002249 00000108 2138.95 171.40 551.34 774.69 2242.13 448.03 2509.05 430.40 2349.99 527.21 2261.13 711.95 2490.45 698.89
00002250 DELETE   2129.04 153.61 561.33 787.60 2231.05 439.75 2486.86 430.33 2312.99 520.36 2237.23 712.59 2436.39 707.33
00002251 DELETE   2119.55 133.98 556.53 773.61 2207.38 430.23 2454.90 426.92 2266.70 511.83 2194.02 704.10 2391.27 708.70
00002252 00000111 2110.90 125.23 555.08 766.67 2199.78 432.46 2427.48 423.34 2244.00 494.72 2176.89 688.78 2351.15 685.48
00002253 DELETE   2117.92 123.81 552.04 763.31 2203.36 423.14 2441.62 408.74 2263.00 485.94 2189.38 678.85 2377.53 670.56
00002254 DELETE   2128.85 134.74 557.19 754.83 2225.70 419.00 2470.93 402.36 2303.10 483.03 2227.43 675.35 2421.47 664.88
00002255 00000114 2137.29 142.00 551.02 750.52 2237.85 416.42 2483.80 397.11 2326.11 478.01 2248.01 673.66 2435.90 661.20
00002256 DELETE   2133.68 147.04 552.09 749.59 2232.81 423.25 2473.76 405.24 2312.78 486.70 2237.89 680.32 2425.36 668.76
00002257 00000116 2126.94 139.04 548.34 753.17 2216.46 425.00 2457.71 405.60 2291.89 487.81 2223.25 683.18 2408.05 670.44
00002258 00000117 2120.97 132.11 546.66 760.47 2208.34 417.55 2444.58 403.82 2275.65 487.99 2204.79 676.32 2386.21 668.58
00002259 00000118 2119.68 130.03 547.65 770.15 2208.72 418.76 2444.45 401.95 2279.29 483.51 2212.47 681.54 2384.45 670.94
00002260 00000119 2124.48 133.67 548.43 763.99 2217.91 415.97 2452.09 400.58 2291.99 484.38 2221.90 675.66 2391.60 666.81
00002261 00000120 2127.31 131.99 551.30 769.19 2222.80 413.52 2457.72 400.93 2298.48 490.24 2226.48 676.76 2397.84 670.79
00002262 00000121 2129.63 132.29 551.85 768.69 2224.14 415.22 2456.15 405.55 2295.72 495.98 2224.51 677.36 2394.39 674.07
00002263 00000122 2131.51 133.60 550.31 768.87 2222.76 417.10 2459.67 406.86 2295.79 497.88 2222.86 680.52 2398.54 676.69
00002264 00000123 2130.96 133.09 549.40 775.69 2226.06 417.72 2465.04 412.19 2300.14 498.97 2221.36 685.72 2403.60 687.53
00002265 00000124 2132.16 134.19 550.54 779.08 2227.97 420.44 2469.37 416.03 2303.65 502.09 2225.16 690.20 2408.71 692.81
00002266 00000125 2130.81 131.48 550.80 772.85 2224.06 422.94 2466.92 417.17 2298.05 503.64 2220.46 689.37 2406.41 691.33
00002267 00000126 2128.89 128.23 549.35 772.70 2219.75 425.51 2462.70 419.79 2292.15 507.76 2214.41 692.52 2403.04 694.75
00002268 00000127 2126.51 127.00 547.44 773.68 2213.15 432.33 2448.08 423.46 2276.20 512.99 2204.99 698.57 2389.28 698.49
00002269 00000128 2123.19 128.99 549.00 772.76 2209.30 434.04 2444.46 426.07 2269.63 514.74 2199.01 701.17 2380.68 701.69
00002270 00000129 2121.58 131.48 549.78 773.04 2206.58 435.75 2444.10 426.03 2268.22 516.16 2199.42 704.24 2384.77 703.32
00002271 00000130 2119.65 130.73 550.10 776.18 2204.86 437.03 2444.01 426.96 2268.38 518.16 2200.40 706.02 2387.49 704.72
00002272 00000131 2118.21 133.66 550.81 770.85 2202.94 439.98 2443.09 428.52 2263.92 519.44 2197.28 707.25 2387.08 705.02
00002273 00000132 2116.38 134.85 551.53 772.21 2201.43 439.56 2442.39 427.97 2263.57 519.34 2198.30 707.36 2389.12 704.97
00002274 00000133 2114.37 136.52 551.51 772.71 2198.84 439.71 2443.49 428.96 2264.25 522.55 2197.36 708.31 2394.91 706.26
00002275 00000134 2113.23 138.79 552.30 769.52 2198.89 441.38 2447.59 431.12 2266.45 524.30 2198.62 708.97 2403.47 707.33
00002276 00000135 2114.09 139.70 552.04 767.78 2199.62 442.24 2449.21 431.40 2268.66 525.66 2200.24 707.23 2408.69 705.04
00002277 00000136 2115.13 138.80 549.89 769.69 2200.23 441.71 2448.57 431.30 2267.28 526.92 2198.20 706.27 2405.67 704.14
00002278 00000137 2115.22 140.35 548.45 771.98 2199.95 439.89 2448.83 432.26 2266.96 529.15 2195.84 704.38 2404.85 704.31
00002279 00000138 2118.23 144.47 546.47 774.87 2203.10 440.45 2452.63 434.53 2269.42 536.31 2196.45 708.61 2407.56 709.61
00002280 00000139 2120.66 151.41 549.08 789.00 2207.05 452.15 2448.25 443.70 2273.48 549.26 2210.17 722.25 2408.87 717.71
00002281 00000140 2120.39 150.44 548.23 793.28 2204.11 461.12 2449.46 450.46 2276.02 558.86 2210.73 730.48 2421.58 724.10
CROP_BBOX: 1704 0 3048 1275
