Video ID: 	X6jCW1TtO54
H: 	1080
W: 	1920
FPS: 	25.0

FRAME INDEX X0 Y0 W H [Landmarks (5 Points)]

00000016 00000000 572.24 56.86 333.76 456.87
00000017 00000001 572.42 55.51 333.55 456.89
00000018 00000002 572.61 54.15 333.34 456.91
00000019 00000003 572.80 52.79 333.13 456.94
00000020 00000004 570.42 57.35 332.04 455.04
00000021 00000005 568.03 61.92 330.96 453.14
00000022 00000006 565.65 66.48 329.88 451.25
00000023 00000007 1033.71 188.54 505.22 719.16 1088.50 479.58 1282.20 454.96 1125.39 614.81 1134.13 731.99 1307.41 710.74
00000024 00000008 1026.70 181.17 502.74 720.78 1083.72 476.33 1274.63 446.52 1122.78 603.62 1129.35 727.73 1298.78 702.47
00000025 00000009 1029.00 170.50 504.92 714.80 1088.33 458.52 1275.88 432.00 1125.63 587.02 1138.42 709.56 1302.42 686.26
00000026 00000010 1042.07 165.84 506.78 708.35 1101.97 445.94 1283.61 422.48 1129.52 570.78 1152.40 696.34 1310.71 674.73
00000027 00000011 1044.18 164.79 503.88 709.38 1102.63 442.26 1282.57 419.43 1130.06 564.74 1152.95 696.14 1305.06 675.45
00000028 00000012 1044.29 166.51 500.30 709.73 1100.94 445.80 1277.23 424.87 1121.60 569.63 1145.21 696.03 1298.39 677.22
00000029 00000013 1042.09 169.68 500.84 697.55 1096.40 445.02 1278.60 427.16 1121.17 569.95 1136.96 689.70 1294.13 673.55
00000030 00000014 1042.18 164.72 503.42 693.45 1096.58 436.36 1284.95 419.79 1128.10 561.16 1139.44 682.17 1295.63 667.61
00000031 00000015 1045.55 149.15 514.52 697.40 1095.99 421.86 1291.67 406.76 1127.52 556.01 1142.56 673.25 1306.72 661.20
00000032 00000016 1060.15 144.03 512.30 697.61 1113.09 423.38 1308.83 410.52 1147.76 548.54 1152.32 665.99 1316.21 656.34
00000033 DELETE   1056.15 145.92 520.05 701.64 1112.62 435.41 1316.90 422.21 1155.55 554.91 1146.89 670.35 1319.48 660.02
00000034 DELETE   1041.73 152.09 518.99 700.16 1094.95 433.31 1302.19 418.23 1137.77 559.27 1132.32 676.91 1306.78 665.12
00000035 00000019 1038.36 152.49 522.04 708.13 1096.20 430.62 1299.56 417.00 1137.68 564.19 1137.44 683.30 1308.66 672.55
00000036 00000020 1042.33 150.64 520.42 707.88 1100.53 426.41 1304.84 411.95 1143.53 561.29 1144.85 679.99 1317.40 668.37
00000037 00000021 1041.24 146.08 521.42 710.89 1101.51 423.63 1305.97 409.29 1145.99 559.90 1146.44 677.75 1319.35 666.18
00000038 00000022 1043.36 150.37 519.35 706.79 1102.96 428.53 1310.58 411.97 1150.14 561.47 1146.31 683.80 1319.69 670.56
00000039 00000023 1041.51 156.36 521.53 705.26 1098.82 436.51 1311.23 416.43 1150.17 566.41 1140.38 693.80 1315.47 678.19
00000040 00000024 1036.26 164.94 523.18 696.97 1095.77 442.06 1309.41 423.34 1150.31 570.99 1134.86 696.24 1314.23 681.70
00000041 00000025 1037.94 163.79 523.86 697.31 1100.04 441.93 1314.29 424.73 1156.14 572.42 1138.01 695.19 1317.43 681.99
00000042 00000026 1045.73 155.14 519.63 699.73 1103.95 433.74 1319.39 418.50 1159.39 566.88 1141.35 688.71 1319.41 677.27
00000043 00000027 1044.12 148.36 522.43 703.24 1102.48 427.27 1317.97 413.13 1156.59 565.11 1141.14 683.31 1318.66 672.59
00000044 00000028 1041.64 149.58 523.27 705.63 1100.03 429.34 1315.62 412.83 1153.98 564.87 1140.71 686.87 1316.97 674.31
00000045 00000029 1039.91 153.96 525.03 712.08 1101.87 434.42 1314.78 415.49 1153.61 567.34 1143.68 693.89 1318.89 679.11
00000046 00000030 1036.32 156.92 530.83 720.25 1104.14 436.74 1313.44 419.19 1154.16 573.03 1145.69 697.22 1323.36 683.31
00000047 00000031 1035.73 159.89 531.07 725.04 1105.71 440.22 1314.04 421.17 1155.37 574.89 1146.45 701.52 1326.87 686.16
00000048 00000032 1035.35 158.65 530.81 718.90 1104.42 440.27 1316.65 420.76 1157.24 572.94 1144.49 701.72 1321.74 686.34
00000049 00000033 1039.52 156.60 528.46 711.65 1104.35 436.54 1319.88 419.83 1160.92 572.13 1142.87 696.73 1323.39 683.58
00000050 00000034 1047.54 146.88 524.42 708.95 1106.98 428.39 1320.52 413.91 1159.54 566.19 1145.12 687.05 1326.22 675.57
00000051 00000035 1045.04 140.20 527.13 721.32 1108.03 420.58 1319.77 406.31 1158.61 559.45 1147.51 684.20 1322.85 673.17
00000052 00000036 1045.82 137.02 526.41 728.87 1111.14 418.53 1321.08 402.45 1161.96 554.12 1154.37 682.48 1331.32 669.45
00000053 00000037 1042.66 141.91 524.47 723.64 1107.31 419.63 1315.54 404.01 1154.98 554.28 1149.09 680.55 1325.00 667.92
00000054 00000038 1040.34 146.01 521.89 725.15 1102.64 423.48 1307.74 409.49 1144.65 561.77 1145.37 684.02 1323.45 672.23
00000055 00000039 1041.26 153.32 520.94 716.40 1103.23 430.42 1309.19 413.55 1147.11 562.65 1145.28 686.45 1324.58 672.47
00000056 00000040 1041.51 157.07 519.71 713.27 1103.68 430.90 1309.14 414.88 1147.58 564.30 1144.88 685.69 1325.45 672.35
00000057 00000041 1042.74 155.58 519.00 713.79 1105.01 430.21 1310.32 414.61 1149.41 563.63 1145.59 684.43 1326.60 671.38
00000058 00000042 1038.09 150.01 522.05 716.55 1100.75 425.32 1305.20 410.19 1144.38 561.35 1144.20 679.23 1323.13 666.53
00000059 00000043 1039.63 143.92 518.56 719.38 1099.89 421.01 1307.26 404.43 1146.87 556.60 1143.47 675.10 1325.05 661.29
00000060 00000044 1041.46 142.42 517.53 720.27 1102.18 419.97 1310.64 404.18 1150.14 554.82 1143.51 673.91 1326.40 660.82
00000061 00000045 1041.44 143.20 518.39 722.47 1103.72 421.51 1311.78 407.06 1151.28 557.25 1144.22 675.31 1328.89 663.18
00000062 00000046 1040.12 142.82 520.85 723.21 1103.95 422.81 1312.34 408.54 1152.50 558.19 1143.80 676.49 1328.52 664.49
00000063 00000047 1039.95 140.43 519.90 724.47 1104.28 420.57 1314.15 406.59 1154.62 555.84 1143.18 674.22 1328.98 662.57
00000064 00000048 1040.56 139.83 519.87 722.58 1105.27 418.36 1317.10 404.54 1158.01 552.60 1143.37 670.25 1330.58 658.76
00000065 00000049 1044.66 134.49 519.87 725.46 1110.80 415.10 1321.63 401.32 1163.53 548.38 1147.37 668.15 1332.54 656.91
00000066 00000050 1045.15 134.17 519.62 723.15 1110.37 414.98 1322.47 400.07 1164.11 547.39 1146.90 668.23 1331.14 656.23
00000067 00000051 1040.30 133.66 519.93 721.11 1106.20 416.04 1321.38 400.06 1163.89 548.54 1143.82 669.25 1328.56 656.47
00000068 00000052 1043.33 130.64 519.23 717.37 1107.66 415.77 1325.31 398.51 1168.61 549.37 1145.48 670.12 1328.15 656.79
00000069 00000053 1050.36 126.66 517.88 714.76 1112.69 410.90 1329.99 394.76 1173.80 548.68 1149.54 666.19 1331.68 653.84
00000070 00000054 1055.85 119.31 519.21 723.49 1118.33 409.95 1334.88 392.65 1175.49 546.56 1146.83 667.10 1337.07 653.88
00000071 00000055 1045.13 126.05 518.48 713.12 1106.53 412.16 1328.89 395.03 1172.08 549.12 1142.56 666.92 1327.72 653.99
00000072 00000056 562.91 50.03 338.33 453.92
00000073 00000057 1052.52 116.92 521.14 720.07 1117.44 405.98 1338.67 388.95 1178.54 538.97 1145.70 663.33 1337.48 650.60
00000074 00000058 1061.01 118.20 521.44 716.72 1126.51 402.99 1346.30 384.75 1187.48 531.75 1154.61 660.47 1344.09 646.82
00000075 00000059 1059.89 114.64 522.74 721.73 1127.38 401.86 1347.09 383.83 1188.37 529.88 1154.75 659.57 1343.51 646.20
00000076 00000060 1053.02 124.99 522.16 713.26 1120.88 402.79 1337.68 384.44 1185.29 535.15 1157.65 661.23 1336.32 647.68
00000077 00000061 564.72 45.38 339.15 453.23
00000078 00000062 565.05 44.53 339.37 453.35
00000079 00000063 1052.46 117.47 525.42 724.32 1117.64 404.15 1339.34 387.25 1178.88 536.69 1144.99 665.09 1336.39 652.61
00000080 00000064 1043.29 119.89 528.24 729.95 1114.73 400.79 1326.65 383.45 1169.85 522.85 1149.86 658.90 1324.19 646.03
00000081 00000065 1040.96 119.60 523.89 736.32 1107.32 401.53 1317.11 384.64 1151.20 521.84 1141.49 661.08 1321.99 648.04
00000082 00000066 1040.14 122.45 519.32 732.48 1097.50 401.54 1302.31 386.20 1129.88 522.03 1130.56 660.08 1307.32 648.37
00000083 00000067 1041.79 124.11 516.79 729.09 1093.74 406.99 1296.15 392.31 1121.86 524.22 1126.12 660.34 1302.89 648.95
00000084 00000068 1043.56 125.94 516.76 728.09 1094.51 407.79 1294.50 393.34 1121.14 529.88 1129.36 662.79 1303.42 651.44
00000085 00000069 1038.70 131.59 517.79 727.60 1091.63 413.77 1288.86 398.47 1119.11 540.20 1131.22 669.71 1302.71 657.26
00000086 00000070 1038.06 131.91 512.78 732.31 1090.21 412.79 1287.00 396.42 1120.08 537.68 1130.10 671.69 1298.66 657.14
00000087 00000071 1041.25 126.23 516.18 735.31 1092.97 411.94 1290.87 394.42 1120.56 537.41 1133.81 670.39 1303.32 654.62
00000088 00000072 1041.01 126.74 517.51 725.66 1092.12 409.68 1291.03 394.34 1121.47 540.36 1134.18 667.25 1305.65 655.05
00000089 00000073 1040.15 128.90 516.24 717.36 1089.73 410.81 1289.85 395.19 1120.92 539.36 1129.80 665.28 1300.64 653.20
00000090 00000074 1041.73 123.02 513.54 725.51 1091.06 407.41 1293.36 391.57 1123.45 534.40 1126.66 665.04 1297.40 651.80
00000091 00000075 1042.05 131.27 515.70 711.66 1090.28 412.06 1290.80 396.57 1121.95 538.97 1129.58 664.62 1301.09 652.80
00000092 00000076 1043.45 133.73 516.32 706.20 1092.52 420.15 1292.73 402.28 1126.73 535.42 1130.64 662.58 1303.27 648.86
00000093 00000077 1041.78 132.04 520.43 715.76 1093.20 421.47 1295.38 403.50 1128.12 537.49 1130.65 664.57 1307.69 650.33
00000094 00000078 1038.82 131.48 518.94 719.13 1090.31 418.48 1292.61 403.00 1125.32 544.59 1129.15 670.45 1304.37 658.39
00000095 00000079 1035.18 138.82 519.44 710.08 1086.40 423.74 1291.45 406.29 1124.72 551.92 1125.21 678.03 1297.84 664.71
00000096 00000080 1036.70 143.85 523.77 703.52 1090.18 423.97 1298.27 409.44 1131.19 556.89 1127.66 680.20 1298.91 669.50
00000097 00000081 1038.51 139.64 522.88 704.54 1091.67 420.09 1302.21 406.57 1134.24 555.38 1128.66 678.78 1298.14 669.42
00000098 00000082 1038.04 137.81 524.53 709.49 1094.00 417.39 1304.64 403.18 1136.72 551.99 1131.47 678.02 1300.30 668.05
00000099 00000083 1037.46 133.92 528.39 716.66 1097.91 411.10 1304.96 399.61 1137.50 546.98 1135.02 672.40 1301.73 664.32
00000100 00000084 1037.90 130.67 528.45 721.05 1098.42 409.24 1305.31 396.80 1137.51 545.43 1136.95 673.14 1305.65 664.03
00000101 00000085 558.88 50.28 339.06 450.87
00000102 00000086 559.22 49.47 339.20 451.08
00000103 00000087 559.55 48.65 339.34 451.30
00000104 00000088 559.89 47.83 339.47 451.51
00000105 00000089 1039.21 127.08 529.76 731.25 1099.38 409.15 1305.57 395.26 1136.97 543.16 1140.57 672.47 1316.12 661.45
00000106 00000090 1041.54 127.91 529.12 727.64 1100.26 408.96 1304.80 396.04 1135.89 541.34 1141.04 669.27 1318.37 658.90
00000107 00000091 1042.96 124.08 521.42 730.34 1096.32 407.43 1298.92 395.05 1127.82 541.37 1136.84 667.67 1312.92 657.70
00000108 00000092 1043.30 124.75 521.29 728.60 1095.83 408.88 1298.53 395.60 1127.25 539.48 1135.64 665.99 1313.27 655.30
00000109 00000093 559.69 48.33 340.09 453.57
00000110 00000094 558.68 48.48 340.54 453.97
00000111 00000095 1034.89 125.16 521.83 722.41 1081.07 413.18 1285.40 393.73 1114.70 535.58 1118.82 667.50 1299.65 652.16
00000112 00000096 556.67 48.78 341.42 454.76
00000113 00000097 555.66 48.93 341.87 455.16
00000114 00000098 554.66 49.07 342.31 455.56
00000115 00000099 554.25 48.19 342.33 456.05
00000116 00000100 553.85 47.30 342.36 456.54
00000117 00000101 553.45 46.41 342.38 457.03
00000118 00000102 1044.65 95.77 533.95 755.23 1099.56 405.90 1287.78 377.66 1119.74 528.89 1142.74 666.31 1314.23 642.59
00000119 00000103 552.64 44.64 342.42 458.01
00000120 DELETE   1039.16 128.20 539.66 740.11 1098.71 427.74 1297.29 407.91 1133.88 555.77 1150.26 682.30 1325.19 665.61
00000121 00000105 554.13 47.88 342.74 458.34
00000122 00000106 554.87 49.50 342.90 458.51
00000123 00000107 1051.68 125.20 533.10 735.42 1117.51 422.34 1331.11 399.25 1172.77 546.63 1163.34 675.72 1350.61 656.63
00000124 00000108 1063.93 111.85 539.80 753.65 1129.61 423.60 1346.28 384.31 1187.32 534.60 1169.97 678.05 1370.95 644.60
00000125 00000109 1065.73 112.31 537.34 758.15 1133.18 424.20 1352.29 384.45 1196.44 536.31 1172.87 681.21 1377.76 647.08
00000126 00000110 1073.44 107.63 537.38 766.79 1143.19 422.35 1360.38 387.61 1200.82 538.60 1181.90 683.67 1381.69 653.70
00000127 00000111 1076.19 106.25 536.82 767.44 1143.82 420.74 1363.60 387.19 1202.52 540.83 1180.98 682.76 1384.22 653.81
00000128 00000112 1071.31 106.48 539.08 765.95 1137.78 421.76 1360.64 385.74 1200.10 543.97 1178.05 684.54 1382.68 653.58
00000129 00000113 1073.38 110.62 539.60 764.05 1140.35 421.72 1363.11 385.34 1203.76 546.70 1183.67 684.54 1388.14 653.08
00000130 00000114 1081.55 125.23 536.94 751.51 1149.25 426.70 1368.29 391.98 1210.34 550.17 1193.20 687.35 1390.04 657.38
00000131 00000115 1065.33 145.14 541.07 737.84 1142.23 432.33 1369.44 404.47 1219.42 564.76 1195.98 695.21 1393.80 670.23
00000132 00000116 1055.77 182.23 531.00 721.53 1135.86 446.22 1358.98 414.83 1211.34 577.49 1191.90 714.68 1377.27 688.76
00000133 00000117 1050.52 178.01 533.66 744.85 1128.21 468.79 1355.93 430.87 1208.63 596.25 1178.39 736.44 1376.76 704.80
00000134 00000118 1053.34 192.86 536.59 741.83 1129.92 478.41 1362.84 435.34 1215.10 599.91 1180.99 748.94 1382.70 712.71
00000135 00000119 1052.47 186.09 533.56 741.19 1132.90 474.91 1364.40 432.48 1219.15 595.03 1183.27 741.78 1385.74 705.95
00000136 00000120 1049.52 172.85 535.83 744.75 1136.32 469.32 1366.94 423.61 1227.61 584.08 1189.81 734.33 1390.81 695.50
00000137 00000121 1050.00 173.68 537.25 743.23 1137.30 466.32 1369.34 418.31 1232.05 582.80 1195.05 732.40 1396.80 691.30
00000138 00000122 1039.63 169.66 534.86 745.24 1126.43 469.82 1360.60 419.09 1224.45 586.86 1189.91 734.65 1390.14 691.52
00000139 00000123 1022.35 168.26 537.53 745.53 1109.29 479.08 1343.41 429.52 1210.23 597.11 1171.72 743.56 1368.75 702.25
00000140 00000124 1014.76 171.88 528.36 748.70 1097.16 487.37 1328.43 441.23 1191.07 605.56 1154.22 745.46 1350.25 706.28
00000141 00000125 1014.28 173.92 522.97 750.82 1091.06 488.64 1314.24 445.14 1175.54 611.41 1145.20 747.28 1338.58 710.06
00000142 00000126 1014.72 167.77 531.25 752.40 1093.70 477.77 1315.83 432.11 1176.06 596.62 1150.54 738.95 1339.52 699.55
00000143 00000127 1016.60 157.10 540.47 753.03 1099.52 460.60 1323.51 417.39 1183.96 588.61 1162.72 730.08 1355.61 693.88
00000144 00000128 1025.13 151.11 537.20 754.83 1107.41 459.23 1326.48 413.51 1186.91 577.81 1168.30 725.45 1361.15 686.91
00000145 00000129 1022.86 160.61 537.48 748.24 1102.12 462.01 1324.67 420.20 1183.36 593.48 1164.15 728.98 1358.58 693.83
00000146 00000130 1017.84 171.85 539.12 741.67 1096.98 475.58 1319.90 430.56 1176.82 595.44 1157.74 740.11 1346.62 703.00
00000147 00000131 1017.51 166.55 525.56 747.23 1089.79 472.66 1307.73 430.31 1165.03 594.48 1157.16 736.99 1334.91 700.06
00000148 00000132 1009.22 174.82 518.92 733.46 1081.22 469.79 1296.49 427.71 1153.90 591.82 1148.48 731.16 1325.21 695.14
00000149 00000133 1019.86 172.87 529.94 736.27 1092.38 468.43 1295.86 426.94 1152.43 585.99 1149.46 724.79 1327.02 688.62
00000150 00000134 1022.33 173.25 534.82 717.96 1095.15 462.74 1309.21 427.47 1160.77 585.63 1149.44 719.46 1328.50 690.43
00000151 00000135 1029.98 166.63 530.71 721.37 1098.69 456.89 1302.87 428.03 1150.59 579.32 1146.93 709.10 1317.07 684.54
CROP_BBOX: 709 0 1884 1080
