Video ID: 	wII-24i0mUk
H: 	1080
W: 	1920
FPS: 	25.0

FRAME INDEX X0 Y0 W H [Landmarks (5 Points)]

00001671 00000000 497.93 184.66 429.76 633.27 712.20 425.86 869.14 420.11 891.94 504.81 759.28 644.20 892.95 639.26
00001672 00000001 501.00 183.59 433.95 641.87 716.76 436.29 872.89 425.03 895.42 511.04 762.87 649.25 897.85 639.52
00001673 00000002 507.67 189.84 428.60 645.70 718.02 438.86 874.42 431.40 898.87 513.69 760.56 651.69 899.14 645.02
00001674 00000003 510.53 194.11 426.43 645.21 717.63 439.27 875.13 432.51 901.38 513.73 759.01 653.72 899.12 647.63
00001675 00000004 509.31 194.86 426.91 646.33 717.65 439.16 875.62 434.52 903.43 513.91 756.99 653.90 898.44 649.61
00001676 00000005 509.62 195.04 424.58 647.33 715.53 438.88 874.37 435.04 903.43 515.74 752.41 654.97 895.19 651.47
00001677 00000006 507.02 195.83 424.26 646.98 712.41 438.31 871.60 435.86 902.33 516.32 747.59 654.69 890.97 652.60
00001678 00000007 504.17 192.88 421.04 649.52 703.13 438.51 864.44 431.22 891.38 517.72 741.38 658.01 886.50 651.88
00001679 00000008 497.53 192.37 420.53 651.24 705.11 449.14 863.74 435.55 888.98 517.64 734.83 664.08 884.63 654.43
00001680 00000009 485.75 192.36 430.30 651.56 688.90 450.34 857.61 429.88 872.07 519.94 719.62 665.49 880.62 649.63
00001681 00000010 470.65 194.88 437.82 646.40 669.10 446.82 842.08 421.93 853.75 517.65 705.42 664.91 866.88 644.99
00001682 00000011 460.16 189.67 440.94 647.32 648.98 447.72 830.22 420.24 829.38 515.68 694.33 663.94 860.11 640.08
00001683 00000012 445.18 189.21 446.09 645.93 633.30 450.11 815.70 415.40 810.96 524.37 678.74 664.63 844.29 635.02
00001684 DELETE   424.64 191.52 456.89 635.90 616.49 452.77 798.47 413.86 787.56 525.78 669.00 663.08 833.18 630.16
00001685 00000014 412.26 193.30 456.75 624.24 605.60 452.88 788.24 408.37 779.08 522.86 659.79 660.57 824.78 624.07
00001686 00000015 399.72 189.20 456.05 617.87 593.26 454.03 772.58 403.52 770.07 517.62 649.63 655.51 815.50 612.45
00001687 DELETE   393.76 189.04 455.86 613.03 581.76 450.01 768.90 402.98 752.95 513.68 641.95 654.85 806.55 613.40
00001688 00000017 384.58 188.49 460.31 614.34 567.76 448.32 758.82 398.66 738.22 512.15 630.55 653.41 796.66 609.43
00001689 00000018 379.97 185.51 459.74 615.44 555.22 445.83 748.50 396.95 720.50 511.93 617.80 651.58 785.20 608.02
00001690 00000019 375.92 188.14 460.90 612.08 545.54 443.36 743.30 397.77 707.51 513.92 608.57 649.86 781.16 608.33
00001691 00000020 370.01 186.56 463.21 616.35 537.74 441.89 736.59 397.53 699.17 518.97 595.50 649.36 771.66 609.37
00001692 00000021 368.13 187.36 458.08 617.16 531.37 442.17 729.55 396.96 690.60 520.62 588.01 649.03 766.25 608.54
00001693 00000022 363.67 191.67 454.59 613.69 525.20 442.15 723.59 396.35 685.22 522.67 580.19 648.26 760.71 607.98
00001694 00000023 359.39 194.11 453.43 610.70 518.93 441.16 720.62 396.97 677.91 522.20 575.12 647.25 758.11 608.62
00001695 00000024 359.58 176.66 450.08 618.74 507.68 445.43 714.30 399.22 664.48 525.47 568.44 650.95 751.40 613.47
00001696 00000025 357.14 180.25 451.43 619.27 503.65 447.44 710.80 401.79 659.52 527.83 566.75 654.15 748.66 617.00
00001697 00000026 356.62 180.36 451.94 621.46 501.21 452.06 707.51 403.52 658.32 528.09 569.51 658.30 750.03 618.67
00001698 00000027 356.34 181.98 452.39 626.33 500.28 453.71 706.29 405.72 655.88 530.81 569.01 662.02 748.38 622.77
00001699 00000028 357.79 187.05 451.02 629.73 500.59 452.50 706.44 406.67 655.50 532.59 570.18 665.11 748.74 627.21
00001700 00000029 359.78 197.49 447.89 631.36 503.39 447.96 711.33 410.94 656.12 536.51 558.61 665.49 746.26 632.46
00001701 00000030 353.86 188.61 446.18 632.08 489.86 451.72 701.13 414.70 640.51 539.41 542.42 657.91 737.24 627.59
00001702 00000031 336.68 196.99 462.72 632.19 481.34 453.87 695.18 417.10 636.55 546.47 527.10 661.88 729.15 628.46
00001703 00000032 332.92 198.65 461.73 632.21 475.56 454.37 690.86 417.28 629.51 548.03 516.89 660.51 724.62 627.28
00001704 00000033 328.73 196.24 463.07 631.47 471.10 453.77 687.24 416.22 623.81 544.08 513.79 659.47 721.74 625.62
00001705 00000034 327.49 196.00 463.96 633.83 470.02 452.54 686.34 415.24 623.44 542.58 512.10 659.08 721.73 625.45
00001706 00000035 326.64 196.71 463.69 640.88 469.61 453.82 685.52 419.58 622.36 545.56 507.74 661.45 718.69 630.60
00001707 00000036 327.42 198.41 457.89 642.09 472.09 463.45 684.75 428.44 623.20 549.43 505.48 667.19 715.16 636.32
00001708 00000037 324.66 201.45 457.71 639.34 466.22 465.64 684.41 429.16 619.18 553.64 500.53 672.78 713.01 640.91
00001709 00000038 323.20 212.42 453.64 625.91 459.51 469.58 677.68 431.28 613.43 561.23 499.31 675.98 709.22 642.64
00001710 00000039 318.98 220.31 455.88 616.43 452.41 475.36 672.12 434.85 606.04 565.03 501.31 680.59 707.83 645.61
00001711 00000040 314.24 227.19 457.27 614.14 447.62 480.11 666.71 439.35 600.26 573.86 498.54 684.91 703.92 650.01
00001712 00000041 311.08 230.28 455.54 614.95 443.88 486.70 661.57 444.57 595.98 583.99 494.36 687.93 701.60 652.73
00001713 00000042 307.47 230.91 455.56 615.43 441.06 491.48 656.95 448.98 592.18 588.26 492.01 689.53 698.33 654.27
00001714 00000043 306.10 233.54 457.06 613.32 437.89 493.65 652.26 450.51 586.32 590.14 491.19 691.73 694.48 655.96
00001715 00000044 304.45 233.02 454.29 616.37 435.80 494.65 648.49 452.64 582.51 593.37 488.24 693.30 689.21 658.90
00001716 00000045 302.71 233.25 453.15 620.89 436.93 495.96 645.17 455.26 582.08 593.73 490.49 697.29 683.85 664.06
00001717 00000046 301.58 232.93 454.59 624.79 438.30 495.23 645.20 457.25 582.75 592.95 495.53 704.69 678.53 673.48
00001718 00000047 302.25 231.62 449.55 625.23 438.94 493.90 649.17 457.32 585.92 595.95 495.93 707.55 678.19 677.41
00001719 00000048 301.79 232.15 449.54 626.11 439.00 488.95 651.62 455.38 586.81 593.94 497.06 708.96 678.03 680.89
00001720 00000049 301.46 228.19 447.36 632.32 441.12 485.88 650.08 455.27 587.54 590.34 502.46 711.56 673.85 685.77
00001721 00000050 301.70 226.57 447.88 635.06 444.15 485.39 650.60 454.83 591.43 586.16 511.30 715.57 674.05 689.42
00001722 00000051 302.00 222.70 447.77 635.07 445.82 482.48 650.92 451.86 593.32 582.50 513.11 712.17 675.04 685.86
00001723 00000052 301.46 222.70 446.91 627.12 447.56 479.66 652.09 448.91 595.18 579.90 514.33 706.56 675.26 680.17
00001724 00000053 301.29 223.08 447.02 622.93 448.91 478.22 655.46 448.29 597.77 579.15 514.86 702.86 677.75 676.86
00001725 00000054 300.62 222.27 447.71 618.40 450.36 480.03 656.22 448.62 600.09 577.40 518.88 701.05 680.63 673.42
00001726 00000055 301.80 222.09 445.49 618.49 450.63 480.73 657.38 446.60 603.62 575.94 518.57 700.79 682.92 670.95
00001727 00000056 300.29 222.79 447.75 618.66 451.91 482.48 656.09 445.45 605.20 574.87 520.15 699.96 684.21 667.63
00001728 00000057 301.86 219.78 445.55 625.24 454.49 483.26 653.69 445.41 606.80 574.63 523.69 702.19 682.51 669.33
00001729 00000058 301.31 223.87 446.01 623.24 456.78 484.72 652.40 446.18 609.00 576.32 523.65 701.07 683.64 667.81
00001730 00000059 300.97 223.07 448.44 625.83 458.94 486.80 652.54 448.12 610.78 576.89 525.18 702.05 684.60 668.71
00001731 00000060 300.76 225.11 450.38 622.95 460.24 487.32 655.42 449.96 611.94 577.35 525.71 702.04 685.52 669.65
00001732 00000061 301.56 225.20 449.74 622.06 460.74 487.88 657.63 450.85 613.09 577.07 525.38 701.57 686.60 669.59
00001733 00000062 301.07 222.75 450.30 624.83 461.18 489.21 657.48 452.21 613.85 578.90 527.00 703.12 686.96 671.20
00001734 00000063 301.60 226.71 448.71 624.54 461.38 489.67 656.22 452.23 613.83 580.63 529.74 707.82 685.71 675.67
00001735 00000064 302.93 226.30 446.25 630.70 461.30 491.85 656.58 453.95 613.92 584.87 529.49 713.19 684.92 680.96
00001736 00000065 303.51 228.41 446.52 630.40 461.44 496.27 657.82 456.82 614.47 590.02 529.15 717.12 685.98 683.68
00001737 00000066 306.20 231.12 445.66 627.28 464.15 498.50 662.83 459.47 617.98 594.76 530.99 719.48 688.42 686.39
00001738 00000067 307.26 237.00 444.28 620.24 465.40 500.92 667.34 462.28 620.68 600.26 530.84 721.13 690.38 688.34
00001739 00000068 308.72 239.28 445.59 616.68 466.85 500.56 670.71 463.41 622.20 602.47 532.70 721.84 691.90 690.20
00001740 00000069 311.01 234.37 446.31 621.50 469.25 500.90 674.24 464.23 624.65 602.37 535.07 723.34 694.37 691.89
00001741 00000070 311.96 236.03 446.44 620.60 471.05 500.96 675.88 465.38 626.71 603.41 537.28 724.18 695.41 693.54
00001742 00000071 313.65 238.68 448.24 617.98 472.83 500.79 677.55 466.46 627.57 603.03 537.08 722.96 696.59 693.45
00001743 00000072 318.85 252.81 445.65 606.52 482.72 499.57 680.37 467.97 633.42 597.60 546.17 720.58 699.27 690.29
00001744 00000073 320.54 252.99 445.94 606.27 485.31 499.42 683.01 466.59 638.68 599.41 551.08 723.05 702.86 691.61
00001745 00000074 324.58 247.61 446.51 606.58 489.55 503.01 686.14 465.98 643.31 597.16 560.06 725.50 707.86 690.41
00001746 00000075 327.03 248.29 446.99 605.38 494.31 505.30 690.27 462.23 651.12 594.58 568.43 726.79 716.08 686.79
00001747 00000076 327.50 244.04 447.88 607.21 498.70 505.23 692.53 461.60 656.18 591.50 572.59 725.44 718.30 685.33
00001748 00000077 329.42 245.44 448.20 603.54 502.26 506.04 695.93 462.18 660.56 592.37 574.51 724.72 720.87 684.84
00001749 00000078 329.73 247.12 449.25 606.09 502.38 506.26 696.81 463.30 662.54 591.76 575.69 726.33 722.88 687.17
00001750 00000079 326.42 246.18 452.43 607.74 501.40 504.97 696.19 463.58 661.34 592.47 574.57 726.41 721.19 688.40
00001751 00000080 325.99 247.42 452.34 605.71 499.15 505.08 695.32 464.48 657.68 593.93 571.53 726.67 718.18 689.10
00001752 00000081 326.86 248.45 450.51 602.31 498.02 505.35 694.75 464.83 655.20 594.81 569.37 725.72 716.65 688.20
00001753 00000082 326.33 249.34 451.02 601.20 496.12 504.66 692.27 464.72 650.99 595.95 566.28 723.79 714.42 686.81
00001754 00000083 326.20 249.74 450.55 599.82 492.77 502.69 691.09 463.93 646.68 595.24 560.82 721.07 713.23 685.10
00001755 00000084 326.08 247.69 450.40 597.99 492.29 500.75 690.99 463.83 644.61 592.03 557.94 717.33 711.38 683.19
00001756 00000085 328.91 234.56 447.67 606.34 491.74 496.82 692.61 466.01 644.29 589.89 559.21 713.69 713.11 686.39
00001757 00000086 327.62 227.70 448.60 611.04 491.77 492.34 693.74 461.90 645.11 584.36 558.55 709.76 713.14 682.64
00001758 00000087 326.83 225.18 449.49 609.92 491.90 487.77 694.05 458.56 644.56 578.25 558.84 704.48 713.42 678.32
00001759 00000088 327.65 224.27 448.17 608.39 492.66 483.67 696.25 455.15 646.93 571.29 559.01 700.74 715.64 674.96
00001760 00000089 328.48 219.93 446.84 614.25 493.14 478.61 697.31 453.55 648.21 566.52 557.21 698.71 714.95 675.83
00001761 00000090 327.83 217.50 448.45 617.34 492.35 473.28 698.21 450.04 646.96 561.73 554.77 694.18 715.71 672.36
00001762 00000091 329.28 214.97 449.30 619.32 493.19 468.09 700.47 448.54 646.41 561.08 552.44 691.01 715.32 672.07
00001763 00000092 330.15 213.81 448.39 619.71 494.76 466.12 702.85 447.34 648.60 560.94 551.50 689.55 715.98 671.35
00001764 00000093 329.69 215.89 448.06 618.41 494.35 465.01 704.05 447.88 648.66 561.87 549.31 688.74 715.19 671.95
00001765 00000094 329.75 215.32 447.76 615.99 493.48 463.90 705.23 451.12 646.54 562.53 547.63 688.46 712.78 675.24
00001766 00000095 328.74 210.34 447.36 620.96 494.44 466.64 701.32 454.45 642.35 564.13 545.79 689.73 705.35 677.21
00001767 DELETE   324.43 204.99 448.26 628.66 490.84 468.34 696.42 457.04 634.30 563.67 539.79 690.26 696.50 678.61
00001768 00000097 320.10 202.90 446.56 633.06 480.31 458.62 686.13 450.86 622.14 558.14 530.37 686.67 684.99 677.59
00001769 00000098 310.10 200.88 444.89 638.02 468.75 448.31 678.87 445.82 613.31 555.39 514.21 683.62 674.46 678.49
00001770 00000099 301.17 190.30 450.07 635.03 457.76 448.48 673.47 439.91 602.32 556.74 498.63 679.12 666.33 672.47
00001771 00000100 296.53 183.11 452.10 632.98 451.29 443.19 665.86 435.59 590.03 549.38 490.95 670.29 658.50 664.89
00001772 00000101 295.11 179.39 450.15 629.49 443.61 437.21 659.35 434.42 576.65 539.10 480.01 661.82 647.73 660.21
00001773 00000102 293.64 177.84 448.10 626.95 438.39 431.68 654.54 430.64 568.01 533.07 473.35 656.87 641.04 656.79
00001774 00000103 289.71 176.69 449.75 632.93 434.88 424.49 650.75 426.67 563.29 527.48 465.27 654.49 634.86 657.01
00001775 00000104 289.66 174.49 450.24 637.95 433.08 418.45 653.57 425.73 562.05 522.18 453.64 649.52 634.34 655.98
00001776 00000105 298.67 167.31 451.00 631.07 439.76 413.49 665.21 424.44 567.70 518.68 457.36 639.94 644.28 648.85
00001777 00000106 307.12 164.18 457.88 630.45 454.89 406.34 680.63 426.72 580.47 517.22 467.20 633.18 653.77 649.62
00001778 00000107 327.27 161.60 457.14 632.12 479.33 404.96 695.57 424.88 602.52 516.73 492.63 632.99 667.18 648.96
00001779 00000108 357.11 165.09 451.98 625.46 518.51 400.78 731.13 431.42 634.95 515.25 520.99 628.95 688.20 654.46
00001780 00000109 379.71 165.49 459.07 628.16 551.73 405.11 757.03 440.90 668.32 525.76 550.30 626.43 714.27 656.41
00001781 DELETE   405.18 174.83 460.50 626.43 587.24 411.26 790.50 448.61 711.20 527.14 585.68 635.44 746.13 665.40
00001782 DELETE   436.38 181.79 451.75 623.37 618.74 416.38 818.80 456.15 734.81 535.45 609.96 638.80 763.79 673.13
00001783 00000112 459.08 193.63 453.06 609.38 643.95 427.36 835.84 464.43 757.10 551.59 638.91 647.40 782.38 679.51
00001784 00000113 473.51 202.12 457.25 606.64 667.49 424.19 854.48 471.17 775.31 548.16 653.11 642.05 793.95 682.30
00001785 00000114 490.63 208.73 454.39 600.15 681.38 431.33 872.25 473.58 793.41 551.12 672.77 648.89 815.31 685.32
00001786 00000115 500.49 212.66 454.16 596.40 693.09 430.48 887.85 476.13 806.33 553.19 682.11 649.10 826.84 688.36
00001787 00000116 507.33 204.70 457.03 602.42 705.90 435.50 897.81 488.29 818.89 554.53 686.46 644.94 832.35 690.56
00001788 00000117 507.55 217.22 460.23 586.09 710.92 439.19 901.12 498.02 824.84 541.44 693.00 636.80 837.44 684.17
00001789 00000118 512.49 208.35 465.94 589.90 725.06 418.58 901.73 483.37 825.12 541.06 693.35 628.35 829.07 682.03
00001790 00000119 510.83 204.27 468.16 589.38 730.99 405.43 903.01 478.48 829.39 533.11 695.93 619.29 828.04 679.44
00001791 00000120 508.66 203.32 472.82 590.77 733.61 402.69 903.90 478.91 830.39 531.49 696.05 615.60 827.34 678.22
00001792 00000121 507.54 201.17 474.16 589.55 734.95 400.59 904.40 484.58 829.37 526.67 692.20 609.64 823.96 678.59
00001793 00000122 504.21 202.57 474.94 587.58 733.38 398.60 905.27 486.50 830.83 522.48 691.49 606.96 826.67 678.93
00001794 00000123 500.35 203.16 477.17 584.76 732.21 396.75 905.08 489.96 829.27 521.22 686.36 603.24 822.76 679.32
00001795 00000124 493.87 202.91 478.03 589.66 727.08 394.25 899.54 490.00 822.12 521.66 676.67 603.74 813.55 681.97
00001796 00000125 487.68 199.98 470.23 597.75 715.55 396.95 893.65 490.09 818.90 515.37 665.02 603.50 806.09 681.42
00001797 00000126 481.52 189.09 465.41 611.59 697.27 400.77 883.31 494.46 809.98 513.04 650.77 609.06 802.20 687.26
00001798 00000127 471.36 188.23 471.05 610.90 690.88 401.96 878.08 495.04 803.10 518.29 645.39 609.47 796.61 687.31
00001799 00000128 465.38 187.27 471.91 607.68 681.91 399.51 871.20 493.50 792.82 520.04 636.15 606.69 790.09 685.80
00001800 00000129 449.05 198.97 487.54 601.55 675.20 393.87 857.49 489.13 774.84 519.12 622.87 604.16 771.92 682.36
00001801 00000130 444.40 201.06 487.10 600.73 671.16 394.14 849.45 486.77 769.82 522.06 622.15 608.67 763.85 684.76
00001802 00000131 440.33 201.69 486.51 603.82 663.92 398.90 844.60 485.56 761.53 530.04 616.07 615.83 759.45 687.01
00001803 00000132 436.99 201.28 487.37 605.82 661.20 403.54 841.36 488.37 757.06 535.61 613.36 619.30 755.85 689.02
00001804 00000133 433.81 203.20 488.87 602.66 657.56 405.30 838.83 487.40 753.34 540.79 610.14 621.93 753.76 689.39
00001805 00000134 434.00 202.60 488.36 607.14 656.22 409.05 837.81 489.63 750.55 547.04 608.66 627.28 751.19 693.53
00001806 00000135 433.77 205.28 488.55 614.97 655.29 412.10 837.01 490.87 747.96 554.09 608.44 634.73 748.07 699.58
00001807 00000136 433.84 219.70 483.15 603.88 649.30 422.67 833.65 498.26 744.72 553.85 610.19 639.96 743.80 701.67
00001808 00000137 433.61 220.79 485.13 608.04 645.72 426.05 832.75 502.20 740.73 560.51 602.97 644.04 743.53 706.27
00001809 00000138 433.37 225.30 485.42 603.44 643.60 430.41 831.19 504.96 737.47 564.31 602.32 648.20 743.28 709.26
00001810 00000139 435.07 231.03 481.60 599.75 641.46 437.38 831.41 513.21 737.37 571.19 599.97 652.19 747.87 715.11
00001811 00000140 438.66 233.49 479.54 597.58 644.94 441.78 830.26 517.34 737.49 576.63 603.99 655.13 747.36 717.88
00001812 00000141 441.68 235.96 479.62 598.94 647.31 444.19 830.40 519.22 736.37 583.12 603.18 658.34 745.36 721.03
00001813 00000142 442.99 237.88 479.80 599.63 651.54 444.46 832.40 521.87 739.59 583.37 603.86 657.67 745.16 722.52
00001814 00000143 444.50 237.50 478.83 603.23 654.47 444.49 833.13 524.68 742.27 581.36 604.04 657.19 744.36 724.48
00001815 00000144 444.30 237.24 481.16 606.13 656.23 443.85 833.79 524.67 743.03 578.98 603.23 656.83 743.55 724.74
00001816 00000145 443.97 237.68 480.83 602.03 656.78 443.30 836.01 523.69 747.28 575.93 605.78 655.11 747.36 722.60
00001817 00000146 443.74 237.66 477.43 598.72 657.06 445.13 837.10 522.91 753.20 570.10 612.73 654.68 753.29 720.00
00001818 00000147 442.94 237.22 473.77 591.92 657.06 444.47 838.29 520.30 757.32 566.80 618.20 651.37 758.13 714.94
00001819 00000148 444.27 235.43 469.01 586.96 660.17 443.14 838.70 518.83 762.41 560.75 624.41 646.59 761.81 709.69
00001820 00000149 446.16 229.75 466.33 590.18 660.81 437.62 843.07 509.56 771.28 546.76 630.64 641.49 772.36 701.17
00001821 00000150 448.50 227.07 462.19 590.67 664.41 433.59 844.91 502.10 778.72 541.25 639.18 639.21 778.10 695.76
00001822 00000151 448.54 224.18 460.33 595.32 665.11 430.97 845.92 497.67 781.90 539.97 643.63 639.50 781.70 694.36
00001823 00000152 449.29 221.24 455.33 598.27 663.22 430.32 845.08 495.26 783.58 538.81 643.21 639.36 783.41 692.82
00001824 00000153 442.31 216.86 458.84 603.23 660.62 427.35 843.16 492.52 783.25 537.95 640.40 639.11 780.75 692.70
00001825 00000154 435.69 214.56 461.26 604.08 653.59 427.05 840.11 490.80 777.80 537.35 633.80 639.46 778.30 691.58
00001826 00000155 431.78 213.79 459.83 605.38 647.32 424.94 836.31 488.62 774.34 536.03 628.95 640.61 775.07 692.43
00001827 00000156 429.53 213.16 458.16 606.03 642.21 424.55 832.05 486.94 768.34 536.70 625.17 640.73 771.46 691.48
00001828 00000157 428.39 213.39 455.37 605.44 636.23 425.65 829.04 488.63 764.06 540.15 620.42 643.47 769.10 694.85
00001829 00000158 428.63 198.65 455.71 619.53 635.89 424.46 829.33 478.58 763.31 543.29 621.34 646.18 769.70 692.71
00001830 00000159 431.24 209.89 439.51 607.38 627.60 427.42 824.74 477.30 763.04 536.60 619.83 649.82 773.75 691.00
00001831 00000160 431.44 208.21 439.66 611.20 625.72 426.73 823.49 477.15 761.37 533.05 616.60 648.62 772.64 690.29
00001832 00000161 428.76 205.82 441.37 619.53 622.80 423.32 819.21 479.18 760.06 524.11 609.08 645.11 767.02 691.82
00001833 00000162 426.41 203.73 443.99 623.95 620.54 420.52 818.68 477.63 758.96 519.46 604.30 641.61 767.35 689.58
00001834 00000163 423.52 201.31 446.31 620.90 620.79 419.10 817.58 474.75 758.90 520.75 606.02 638.46 767.31 685.14
00001835 00000164 419.37 199.14 449.44 610.29 618.92 418.11 818.00 473.35 758.64 521.22 607.61 633.98 769.89 679.86
00001836 00000165 421.15 197.40 448.13 604.24 616.40 418.85 819.44 471.94 756.84 522.60 608.93 633.99 773.64 677.74
00001837 00000166 419.86 193.07 456.84 609.16 622.00 417.62 821.44 463.10 751.49 528.59 616.54 636.96 769.25 675.26
00001838 00000167 423.38 193.52 453.64 611.79 621.11 421.68 819.79 460.68 751.01 534.24 618.95 643.22 770.14 676.57
00001839 00000168 425.08 193.05 451.35 614.61 621.75 427.76 820.60 461.27 753.07 540.22 625.12 648.68 775.02 677.56
00001840 00000169 429.33 195.08 448.42 615.65 622.02 434.12 819.87 462.55 753.19 546.67 630.61 655.24 778.95 679.92
00001841 00000170 435.81 198.59 443.97 613.68 622.25 438.99 819.94 462.83 752.35 548.80 636.92 660.21 783.40 681.08
