Video ID: 	S_g2eORo6AE
H: 	1080
W: 	1920
FPS: 	25.0

FRAME INDEX X0 Y0 W H [Landmarks (5 Points)]

00011731 00000000 965.91 149.97 357.77 510.73 1011.83 367.82 1141.96 340.63 1047.53 453.76 1056.56 538.99 1171.87 516.76
00011732 00000001 965.63 149.71 357.48 512.30 1010.98 366.67 1140.26 341.39 1046.20 454.75 1056.28 539.23 1170.13 518.55
00011733 00000002 964.84 150.10 358.51 511.27 1010.71 367.22 1140.42 341.60 1046.70 454.97 1056.27 540.08 1169.43 519.20
00011734 00000003 964.64 150.93 359.74 508.89 1011.52 367.05 1141.49 343.01 1048.00 455.36 1055.96 538.47 1169.51 518.86
00011735 00000004 965.96 152.61 360.42 508.73 1013.69 365.80 1142.42 344.95 1049.01 455.98 1056.34 537.45 1169.02 520.62
00011736 00000005 967.60 154.66 358.75 511.43 1016.16 364.48 1143.74 348.70 1050.81 460.56 1058.29 539.88 1167.94 527.11
00011737 00000006 968.54 155.79 358.56 510.02 1017.34 364.48 1144.39 349.54 1051.77 460.81 1058.59 539.01 1168.59 526.94
00011738 00000007 970.56 158.68 359.47 512.32 1016.95 364.76 1151.63 345.58 1055.54 454.06 1057.23 542.85 1171.72 527.74
00011739 00000008 969.41 152.65 358.93 514.79 1016.81 363.42 1142.22 342.88 1046.95 452.76 1058.78 543.70 1162.79 527.60
00011740 DELETE   971.99 148.51 354.90 515.70 1015.68 366.41 1138.55 344.96 1044.67 453.49 1057.50 543.71 1159.29 527.31
00011741 DELETE   974.44 149.31 350.98 513.54 1016.39 369.53 1138.88 349.61 1041.02 453.37 1055.24 543.00 1158.07 527.87
00011742 00000011 972.91 155.70 354.67 507.16 1015.34 364.49 1134.41 347.59 1041.61 457.27 1058.56 542.44 1157.30 529.38
00011743 00000012 971.46 155.31 354.88 508.38 1011.66 365.23 1130.49 348.93 1035.09 458.24 1054.46 545.40 1151.76 532.90
00011744 00000013 968.55 156.02 355.12 506.99 1006.85 363.66 1124.08 346.19 1027.09 456.46 1048.87 548.30 1141.95 534.95
00011745 00000014 968.42 152.32 350.55 507.19 1002.87 363.11 1117.26 342.91 1018.32 452.28 1041.47 546.20 1132.72 530.92
00011746 00000015 967.57 151.52 350.07 504.07 1000.71 360.78 1115.75 340.13 1015.79 449.99 1038.85 544.04 1130.84 528.11
00011747 00000016 968.27 153.15 348.29 503.02 1000.90 361.80 1114.64 340.98 1015.86 451.10 1040.26 544.40 1131.60 528.17
00011748 00000017 967.54 152.64 347.99 503.29 1000.01 362.53 1113.96 339.88 1014.00 450.95 1041.24 544.47 1133.66 526.49
00011749 00000018 966.95 154.32 348.97 498.87 1000.02 361.05 1114.74 337.39 1014.94 449.22 1041.68 542.53 1135.23 523.55
00011750 00000019 972.87 148.69 349.14 504.38 1001.19 363.40 1129.02 335.70 1020.57 441.31 1042.96 543.75 1140.13 519.17
00011751 00000020 971.88 149.19 351.42 502.02 994.31 362.51 1132.82 328.35 1021.46 440.34 1044.57 545.70 1150.20 518.87
00011752 00000021 972.90 150.27 352.84 505.75 998.77 358.89 1137.59 326.39 1026.42 438.73 1049.13 546.12 1154.70 520.15
00011753 00000022 974.71 152.72 352.88 509.60 1004.52 355.28 1137.88 324.01 1027.63 436.36 1055.34 544.97 1159.55 518.99
00011754 00000023 977.72 151.51 352.26 512.78 1009.02 351.78 1139.85 322.70 1028.63 432.91 1058.06 542.00 1162.41 517.19
00011755 00000024 979.99 147.83 352.41 509.85 1009.49 351.69 1143.73 323.75 1028.44 430.45 1055.99 539.82 1163.15 516.58
00011756 00000025 984.15 141.73 351.33 508.64 1010.72 352.76 1146.51 324.79 1026.68 429.19 1055.30 539.02 1163.07 516.55
00011757 00000026 987.27 141.81 350.67 506.01 1012.55 350.19 1147.53 326.40 1025.40 429.36 1052.42 535.89 1161.49 517.09
00011758 00000027 991.29 141.61 347.74 506.19 1017.46 348.61 1149.02 328.18 1026.91 429.56 1054.38 534.41 1162.41 518.15
00011759 00000028 997.35 148.42 340.99 501.68 1031.19 348.88 1150.29 331.08 1036.96 426.13 1058.08 529.70 1151.75 514.27
00011760 00000029 992.83 141.78 347.34 508.06 1021.67 347.45 1152.73 330.05 1031.61 430.42 1057.37 535.07 1162.61 521.08
00011761 00000030 997.57 148.01 342.03 503.38 1031.76 351.45 1152.89 333.95 1038.57 429.38 1061.21 531.91 1156.19 516.70
00011762 00000031 997.66 146.06 344.14 507.12 1031.18 353.10 1153.49 334.14 1038.52 430.56 1062.04 534.54 1157.65 518.23
00011763 00000032 998.31 145.87 343.46 508.03 1031.22 353.36 1153.88 334.74 1038.45 431.27 1061.43 535.41 1156.58 519.48
00011764 00000033 998.06 144.93 344.69 508.46 1031.15 352.80 1154.54 334.23 1039.00 430.65 1061.32 534.91 1157.26 519.04
00011765 00000034 998.22 141.71 346.56 510.42 1030.96 351.85 1155.39 333.33 1040.17 429.93 1060.68 533.34 1158.10 517.56
00011766 00000035 999.79 141.92 347.48 511.05 1032.43 351.07 1157.15 331.54 1042.22 428.35 1062.34 532.33 1161.39 515.76
00011767 00000036 1001.26 140.82 348.05 512.36 1032.83 351.78 1159.73 331.12 1044.65 428.53 1063.76 532.93 1164.52 515.46
00011768 00000037 1002.01 138.66 349.08 511.41 1032.43 352.52 1160.85 330.84 1044.43 429.46 1063.36 533.52 1165.44 515.42
00011769 00000038 1003.28 137.11 350.02 512.82 1032.32 352.91 1162.58 330.65 1045.51 430.89 1063.39 534.01 1167.25 515.64
00011770 00000039 1003.59 137.35 352.43 512.58 1033.28 350.72 1164.42 329.68 1046.44 430.23 1063.30 532.53 1168.38 515.20
00011771 00000040 1003.58 137.77 354.63 512.73 1034.60 346.89 1167.20 328.05 1048.21 428.94 1063.03 530.03 1169.23 514.51
00011772 00000041 1003.75 136.85 356.75 514.84 1035.27 346.71 1169.30 327.59 1050.04 428.47 1063.46 529.93 1171.45 514.16
00011773 00000042 1003.83 136.71 357.90 515.21 1035.64 346.94 1169.79 327.53 1050.52 429.15 1064.94 530.58 1172.23 514.64
00011774 00000043 1004.17 136.17 360.21 516.19 1036.54 346.74 1170.91 327.60 1051.71 430.00 1065.94 530.37 1174.16 514.62
00011775 00000044 1003.70 135.89 361.71 515.98 1036.36 347.61 1173.17 327.75 1053.26 430.60 1066.19 530.21 1176.54 513.86
00011776 00000045 1003.04 133.51 365.54 518.88 1036.55 347.17 1174.37 328.15 1054.93 431.35 1065.98 529.49 1177.05 513.89
00011777 00000046 1002.57 132.65 366.66 519.56 1037.25 347.37 1176.37 327.79 1056.96 430.52 1067.03 528.99 1179.14 512.98
00011778 00000047 1001.90 127.55 367.79 523.14 1037.21 345.96 1175.50 325.85 1056.67 429.46 1066.98 527.63 1179.38 511.17
00011779 00000048 1001.60 123.20 368.22 527.09 1038.25 344.76 1175.25 324.89 1056.48 427.29 1068.13 526.40 1179.82 510.12
00011780 00000049 1000.45 118.46 369.22 535.91 1038.93 342.63 1174.87 323.28 1057.49 426.29 1071.11 526.58 1181.77 510.46
00011781 00000050 1000.34 116.24 370.64 539.64 1039.82 341.58 1174.57 321.88 1057.68 426.93 1075.24 528.24 1184.63 511.65
00011782 00000051 999.00 113.22 373.03 544.31 1039.64 341.42 1174.19 322.26 1057.67 427.16 1075.69 527.98 1185.49 511.72
00011783 00000052 998.94 112.30 373.05 542.03 1039.48 340.74 1174.46 320.61 1058.50 425.74 1075.03 526.37 1185.89 509.49
00011784 00000053 998.87 112.57 371.25 537.47 1038.00 340.53 1172.84 319.56 1057.07 423.14 1070.97 523.22 1182.50 505.84
00011785 00000054 996.82 109.39 372.91 543.70 1035.82 340.64 1170.11 318.96 1053.02 420.67 1069.79 522.60 1181.51 504.45
00011786 00000055 996.74 108.10 373.16 550.49 1035.82 339.21 1169.46 317.51 1053.19 421.35 1072.86 526.50 1182.33 508.18
00011787 00000056 996.29 106.58 373.76 552.63 1035.41 338.46 1170.15 316.66 1053.26 423.52 1074.70 529.79 1183.65 511.36
00011788 00000057 996.28 106.63 375.33 552.17 1034.20 337.67 1168.52 315.31 1051.68 422.64 1074.53 529.65 1182.94 510.72
00011789 00000058 996.85 103.60 374.72 554.57 1035.40 335.74 1167.85 312.98 1052.00 419.60 1074.51 527.86 1181.95 508.62
00011790 00000059 997.69 103.00 375.10 553.90 1036.05 334.89 1169.22 310.94 1053.40 417.42 1075.50 526.75 1183.58 506.53
00011791 00000060 997.26 103.06 374.35 553.23 1035.94 333.52 1169.42 309.69 1054.53 416.84 1075.79 526.66 1182.98 506.56
00011792 00000061 996.80 102.19 373.37 554.20 1034.48 341.87 1169.48 315.01 1055.34 420.18 1076.53 528.85 1186.15 506.32
00011793 00000062 996.91 103.60 373.87 553.46 1034.78 352.55 1169.84 325.13 1056.69 426.74 1076.90 530.16 1188.79 507.16
00011794 00000063 994.33 110.49 377.45 550.46 1034.73 358.16 1168.55 329.63 1061.01 433.32 1082.12 535.38 1189.77 511.27
00011795 00000064 993.25 112.07 379.20 553.40 1036.06 356.10 1172.28 326.49 1066.17 434.72 1084.69 539.60 1191.88 514.81
00011796 00000065 994.12 114.98 375.43 552.13 1041.71 348.27 1174.26 328.46 1065.59 435.62 1080.73 538.48 1190.94 520.84
00011797 00000066 994.03 114.33 374.94 550.28 1042.34 344.72 1175.37 324.37 1067.17 432.84 1082.37 537.86 1192.34 519.83
00011798 00000067 993.72 108.62 381.11 553.73 1037.03 347.09 1181.26 319.76 1068.80 431.45 1086.33 540.68 1194.74 517.95
00011799 00000068 995.24 107.10 379.47 548.87 1038.08 344.55 1182.45 318.91 1070.97 431.03 1085.17 537.56 1192.73 516.24
00011800 00000069 997.37 108.99 377.77 544.79 1039.34 344.68 1183.18 319.74 1072.60 431.15 1082.78 538.46 1190.28 517.85
00011801 00000070 999.01 109.94 377.38 542.44 1040.48 342.63 1184.72 318.98 1073.42 432.49 1081.53 537.37 1190.30 517.91
00011802 00000071 1001.60 108.88 375.97 543.98 1043.05 342.34 1189.34 316.26 1077.19 432.49 1086.04 536.22 1198.68 514.82
00011803 00000072 1002.61 112.26 375.34 542.16 1048.55 340.36 1190.53 312.68 1082.78 430.22 1097.26 533.78 1203.76 510.90
00011804 00000073 1002.22 115.55 377.55 535.66 1050.41 342.59 1192.44 310.86 1087.75 428.26 1100.76 531.28 1209.40 505.08
00011805 00000074 1001.80 115.83 378.77 533.35 1049.62 346.75 1192.09 308.80 1089.41 425.14 1101.67 531.03 1211.37 499.76
00011806 00000075 1001.36 113.94 380.24 532.86 1048.18 349.00 1188.87 307.71 1088.05 422.72 1101.28 529.41 1209.84 495.48
00011807 00000076 998.82 111.80 380.78 537.21 1047.22 349.33 1184.54 306.10 1087.20 421.50 1102.82 531.08 1208.44 495.54
00011808 00000077 1003.39 111.40 368.81 541.62 1053.89 342.94 1179.77 317.63 1088.56 424.11 1104.00 528.73 1209.79 507.78
00011809 00000078 1000.04 119.22 371.43 535.19 1054.13 352.05 1179.70 320.43 1093.72 428.52 1110.77 532.67 1217.14 506.19
00011810 00000079 1001.16 117.41 377.90 535.43 1054.43 359.16 1188.22 313.92 1097.83 429.41 1122.60 545.37 1226.11 506.74
00011811 00000080 999.82 120.96 377.42 528.95 1051.83 357.68 1186.94 313.06 1096.17 430.03 1120.29 545.18 1223.96 507.20
00011812 00000081 1002.28 122.23 374.76 525.29 1051.42 354.64 1187.14 310.20 1094.19 427.67 1117.49 543.51 1222.19 505.91
00011813 00000082 1001.54 118.19 373.28 528.14 1049.97 351.40 1186.26 307.31 1091.23 424.91 1113.55 541.76 1219.22 504.88
00011814 00000083 997.42 126.84 367.94 519.52 1049.47 351.01 1181.20 314.59 1089.17 425.44 1101.92 531.99 1209.56 502.16
00011815 00000084 1005.61 116.97 368.87 524.26 1049.60 343.62 1187.03 305.05 1086.33 424.09 1106.71 538.99 1210.77 506.93
00011816 00000085 999.79 123.32 374.32 520.86 1044.60 350.50 1188.41 312.60 1084.25 426.45 1098.38 534.35 1203.99 503.18
00011817 00000086 1001.82 120.22 374.98 523.45 1046.57 348.59 1193.50 312.93 1087.38 425.35 1098.00 533.40 1205.73 504.13
00011818 00000087 1007.86 113.97 371.71 524.86 1051.62 345.12 1199.26 308.67 1090.16 421.09 1098.05 530.54 1209.27 500.81
00011819 00000088 1015.43 120.27 360.62 517.80 1062.55 338.72 1192.54 313.10 1092.04 415.13 1100.10 521.86 1207.26 502.07
00011820 00000089 1018.81 113.49 361.28 522.34 1060.56 336.58 1195.57 310.62 1091.66 410.05 1093.54 511.19 1207.04 490.32
00011821 00000090 1017.60 110.02 360.89 522.73 1057.78 331.39 1190.50 307.21 1083.45 405.09 1087.14 504.85 1200.72 485.34
00011822 DELETE   1017.67 109.69 358.61 519.49 1053.15 324.92 1183.75 301.12 1074.76 399.51 1078.70 502.61 1188.75 483.60
00011823 00000092 1016.39 115.32 353.92 507.13 1058.24 320.56 1179.45 301.91 1072.18 395.04 1084.59 500.34 1181.49 485.86
00011824 00000093 1013.40 111.88 357.21 507.37 1046.75 333.82 1175.14 297.89 1063.61 389.86 1072.00 506.13 1175.07 477.41
00011825 00000094 1012.16 113.92 356.94 505.92 1043.96 333.83 1170.71 299.19 1058.41 391.43 1068.52 507.88 1170.11 480.16
00011826 00000095 1010.04 115.02 355.58 506.19 1042.10 332.11 1167.68 300.22 1054.36 393.82 1067.14 507.20 1170.18 481.49
00011827 00000096 1010.46 109.99 355.31 514.61 1035.21 325.09 1164.03 303.31 1046.77 399.86 1059.57 503.27 1165.97 484.90
00011828 00000097 1005.37 113.91 354.67 508.61 1039.42 330.99 1162.23 301.02 1050.06 393.35 1066.70 504.57 1169.46 480.09
00011829 00000098 1009.35 108.59 351.42 518.21 1033.49 324.18 1159.83 301.67 1043.64 397.71 1059.20 504.95 1163.11 486.02
00011830 00000099 1003.44 112.23 352.37 514.87 1036.99 330.12 1158.31 300.13 1045.16 395.55 1065.38 507.94 1166.19 483.52
00011831 00000100 1000.45 110.08 351.19 517.26 1034.43 329.74 1155.70 301.06 1041.78 397.11 1062.70 507.83 1163.46 484.34
00011832 00000101 1000.18 108.68 349.46 519.18 1031.92 329.38 1153.07 300.94 1038.71 399.12 1059.82 510.12 1159.67 486.99
00011833 00000102 995.54 103.32 355.75 526.41 1017.41 330.48 1146.15 302.07 1028.73 401.96 1054.16 516.23 1159.05 495.51
00011834 00000103 993.12 102.02 355.63 529.51 1015.35 331.49 1145.79 301.40 1028.88 401.77 1052.93 518.20 1157.55 496.34
00011835 00000104 990.25 99.48 357.99 533.65 1012.48 331.09 1143.99 298.92 1026.98 402.11 1053.45 521.28 1155.78 497.75
00011836 00000105 987.64 99.65 359.87 532.56 1009.37 331.27 1143.59 296.28 1025.67 400.24 1050.89 522.07 1153.90 496.57
00011837 00000106 985.31 102.76 360.48 527.36 1007.27 332.34 1142.28 294.21 1025.69 398.92 1051.16 521.87 1154.56 493.92
00011838 00000107 983.41 101.07 361.39 525.51 1004.79 333.19 1141.41 294.66 1023.03 398.41 1047.89 519.05 1153.79 490.98
00011839 00000108 981.08 101.33 361.45 522.19 1002.61 332.30 1139.96 295.66 1021.65 398.03 1044.32 516.11 1150.14 489.65
00011840 00000109 978.70 100.54 362.69 524.30 999.59 331.26 1140.07 295.19 1020.53 399.55 1041.93 518.11 1148.82 492.03
00011841 00000110 977.21 99.94 363.79 527.49 998.00 330.90 1140.93 293.94 1021.07 401.30 1042.62 521.42 1149.95 494.64
00011842 00000111 976.02 101.55 364.91 527.59 997.23 330.73 1140.64 293.88 1021.33 402.26 1042.96 522.91 1149.39 496.14
00011843 00000112 975.64 99.93 364.83 528.64 996.83 329.93 1140.56 293.80 1020.71 401.84 1041.08 521.21 1149.31 495.01
00011844 00000113 975.12 101.52 364.55 523.71 996.97 327.94 1139.37 294.59 1019.55 400.71 1039.46 516.12 1147.41 492.26
00011845 00000114 974.46 99.96 364.65 525.68 995.28 327.68 1138.58 294.50 1018.74 400.77 1037.24 516.45 1145.15 492.78
00011846 00000115 973.61 98.17 364.95 529.25 994.27 326.03 1139.30 294.56 1019.33 402.14 1035.99 517.04 1144.91 494.67
00011847 00000116 973.39 97.70 364.71 530.99 993.92 326.55 1139.24 294.21 1019.06 402.52 1035.86 518.52 1144.80 495.56
00011848 00000117 973.12 97.78 364.57 530.65 993.11 327.01 1139.12 294.07 1019.49 403.21 1035.90 519.04 1145.48 495.56
00011849 00000118 972.66 98.57 364.87 528.68 993.39 328.09 1138.24 294.88 1018.68 402.21 1035.20 517.09 1144.38 493.45
00011850 00000119 973.32 99.74 364.61 526.36 993.29 328.14 1137.24 294.68 1017.06 401.62 1034.82 516.55 1143.28 492.76
00011851 00000120 973.64 99.26 364.73 529.84 993.05 327.76 1137.79 293.83 1018.02 401.69 1034.80 518.94 1143.63 494.85
00011852 00000121 973.97 99.93 364.77 528.89 993.74 328.37 1136.70 294.80 1017.54 400.89 1034.38 518.78 1140.97 495.11
00011853 00000122 974.20 100.73 363.50 526.71 993.68 328.75 1135.88 296.56 1017.01 400.74 1032.07 517.09 1139.25 494.54
00011854 00000123 974.90 99.98 362.45 525.84 993.67 329.40 1135.62 296.07 1016.74 400.52 1033.31 517.55 1140.05 494.07
00011855 00000124 973.76 99.74 363.63 528.42 993.72 329.02 1136.50 294.95 1017.94 402.13 1035.58 519.37 1142.80 495.09
00011856 00000125 973.08 98.00 365.45 537.68 993.02 327.93 1139.14 293.73 1019.58 404.77 1036.25 525.31 1144.80 500.77
00011857 00000126 971.40 97.81 369.38 545.30 993.31 326.84 1138.36 293.73 1017.97 407.28 1041.47 529.95 1144.56 505.89
00011858 00000127 969.87 98.86 370.38 545.01 992.21 327.94 1138.50 295.22 1018.18 410.15 1041.53 531.52 1144.85 507.58
00011859 00000128 969.94 97.46 369.58 544.29 989.48 333.67 1136.74 298.62 1016.52 413.82 1039.29 532.09 1146.95 506.34
00011860 00000129 968.34 97.70 369.90 544.48 989.04 335.15 1136.79 300.42 1017.67 415.83 1037.40 531.97 1146.38 506.38
00011861 00000130 964.66 107.00 370.04 533.49 1002.29 334.97 1127.85 309.46 1015.10 417.27 1037.81 523.32 1145.85 502.60
00011862 00000131 964.51 106.86 368.22 533.30 1001.27 333.69 1126.49 308.77 1013.37 416.96 1037.45 522.49 1145.18 502.21
00011863 00000132 964.36 106.24 367.46 531.36 1000.18 332.82 1126.63 308.52 1012.73 416.35 1036.21 521.51 1144.71 501.77
00011864 00000133 966.26 97.40 365.95 540.33 985.70 330.94 1131.96 297.41 1013.05 415.40 1033.84 527.15 1142.93 502.41
00011865 00000134 966.66 95.61 364.99 542.33 985.63 328.50 1130.58 296.49 1011.13 415.85 1033.87 526.20 1141.58 502.58
00011866 00000135 963.01 103.41 367.52 533.89 999.56 329.22 1125.60 306.28 1011.39 414.51 1034.72 518.57 1144.57 499.82
00011867 00000136 963.18 104.85 367.83 531.81 1000.74 329.43 1126.61 305.82 1012.94 412.47 1035.07 516.81 1145.10 497.55
00011868 00000137 963.24 102.25 368.54 534.15 1000.88 328.06 1127.67 305.53 1013.17 411.20 1033.58 514.73 1145.09 496.39
00011869 00000138 964.11 92.98 368.74 546.16 987.77 327.46 1131.20 295.28 1013.62 410.67 1032.85 520.20 1143.32 496.34
00011870 00000139 965.66 93.18 368.66 545.76 987.93 327.36 1132.23 294.59 1014.17 410.00 1032.80 521.19 1143.70 496.98
00011871 00000140 966.27 90.94 368.27 550.14 987.53 325.83 1134.52 294.68 1015.54 411.92 1032.61 524.81 1142.63 501.74
00011872 00000141 968.15 89.02 368.12 553.60 986.46 325.59 1133.33 295.15 1011.94 414.40 1032.04 526.85 1141.36 504.32
00011873 00000142 968.81 89.14 368.45 553.19 986.45 325.64 1133.00 295.81 1010.61 414.84 1031.43 526.52 1140.98 504.50
00011874 00000143 968.71 89.01 368.33 551.86 985.83 326.24 1131.59 296.64 1008.97 415.07 1030.14 524.71 1139.60 502.91
00011875 00000144 967.43 89.15 367.89 551.16 985.33 325.61 1130.27 296.42 1007.70 414.21 1028.92 523.85 1137.47 502.40
00011876 00000145 967.85 90.06 366.28 551.00 986.45 324.70 1130.32 296.22 1009.31 414.09 1030.25 525.67 1135.59 504.96
00011877 00000146 966.24 89.90 367.00 549.97 985.50 325.64 1129.00 296.36 1007.69 412.80 1028.19 523.71 1135.11 502.34
00011878 00000147 964.72 91.10 366.58 548.23 984.86 326.21 1127.52 296.15 1007.47 412.70 1027.88 521.75 1136.03 499.53
00011879 00000148 959.88 102.34 369.83 535.33 996.75 326.53 1123.91 305.14 1004.33 411.16 1028.73 516.81 1137.44 499.34
00011880 00000149 958.56 99.21 370.07 540.52 995.24 325.37 1122.52 304.45 1001.86 411.64 1026.58 520.13 1134.13 502.96
00011881 00000150 957.45 99.19 369.52 540.96 993.59 325.48 1120.64 305.21 999.98 412.46 1024.58 521.07 1132.13 504.34
00011882 00000151 955.95 98.18 369.28 542.77 991.49 325.62 1119.80 305.31 998.83 412.51 1023.38 521.42 1132.25 504.62
00011883 00000152 955.41 97.53 369.02 544.23 990.51 325.27 1118.19 305.40 997.43 412.09 1022.21 520.92 1130.96 504.47
00011884 00000153 954.01 97.31 369.07 544.96 989.70 325.58 1117.13 305.49 997.33 412.43 1022.34 520.68 1130.12 504.07
00011885 00000154 953.07 97.75 369.62 545.01 988.84 325.72 1116.18 305.29 995.35 411.91 1021.52 520.88 1129.00 503.98
00011886 00000155 953.99 99.15 373.19 546.35 983.29 321.29 1112.08 303.34 987.92 412.33 1014.88 518.01 1121.19 502.96
00011887 00000156 951.43 97.68 375.58 547.34 981.01 321.18 1109.91 302.71 985.84 411.83 1013.07 517.03 1119.77 501.47
00011888 00000157 948.45 97.00 376.15 548.17 979.92 321.46 1109.43 302.04 985.72 410.71 1011.74 516.99 1118.66 500.55
00011889 00000158 948.13 95.43 376.39 549.64 979.02 321.67 1108.85 302.00 985.19 410.34 1011.45 516.99 1118.50 500.30
00011890 00000159 946.25 96.41 375.32 548.67 977.13 320.79 1108.12 301.53 983.73 409.28 1007.54 515.98 1116.91 499.60
00011891 00000160 944.85 95.50 376.40 548.76 976.56 320.67 1107.95 300.93 983.36 408.17 1006.70 515.26 1116.61 498.33
00011892 00000161 943.60 95.44 377.36 548.36 975.67 319.73 1107.31 300.34 982.42 407.47 1005.42 513.78 1116.74 496.97
00011893 00000162 942.20 95.38 378.21 548.01 975.19 317.98 1107.56 298.78 982.27 406.26 1004.33 512.87 1116.01 496.18
00011894 00000163 936.06 87.96 380.79 553.49 970.30 326.40 1110.01 294.52 988.67 405.83 1009.02 517.56 1126.88 491.58
00011895 00000164 941.49 90.61 375.85 552.99 970.89 320.52 1102.29 295.91 978.22 407.23 1009.11 514.66 1118.46 492.94
