Video ID: 	iRvNcgfSZI8
H: 	1080
W: 	1920
FPS: 	29.97002997002997

FRAME INDEX X0 Y0 W H [Landmarks (5 Points)]

00025780 00000000 804.81 229.49 380.87 521.29 870.67 435.28 1047.97 432.91 920.09 497.40 868.04 614.83 1022.50 615.66
00025781 00000001 799.49 228.91 379.32 520.15 865.91 429.17 1041.89 429.88 914.64 491.75 862.79 610.16 1018.06 613.26
00025782 00000002 797.48 230.43 378.92 525.60 864.38 429.68 1039.94 429.81 913.10 491.93 862.48 613.60 1015.37 616.52
00025783 00000003 797.07 238.04 378.18 542.64 863.67 433.08 1040.04 433.16 912.71 499.10 863.07 624.40 1017.26 627.55
00025784 00000004 797.00 240.20 370.62 545.35 863.48 435.45 1035.80 438.47 914.42 509.98 864.88 630.41 1010.06 635.98
00025785 00000005 789.96 243.00 374.90 545.18 857.55 443.00 1029.70 445.17 914.75 520.61 864.03 636.53 1008.48 640.49
00025786 00000006 784.96 245.91 376.33 550.43 851.82 451.78 1029.47 454.49 907.33 534.20 856.77 649.71 1005.02 653.87
00025787 00000007 773.29 245.75 379.23 557.53 841.31 462.99 1025.04 462.35 892.65 549.44 853.64 670.10 996.29 670.26
00025788 00000008 765.45 257.05 382.54 556.64 833.21 474.30 1016.42 474.03 887.96 562.36 850.81 681.46 989.67 681.52
00025789 00000009 760.54 268.86 380.10 554.39 828.86 482.42 1011.03 483.64 888.12 575.36 848.28 691.48 985.87 692.57
00025790 00000010 759.46 275.02 378.12 554.35 827.39 485.51 1013.42 490.36 889.72 584.67 845.23 693.91 990.11 697.51
00025791 00000011 754.55 274.20 378.52 554.76 819.98 495.23 1007.49 492.23 887.94 591.17 837.05 698.18 993.12 696.02
00025792 00000012 752.72 275.71 378.21 554.53 817.91 495.48 1006.89 493.48 886.40 591.69 832.07 694.06 995.46 692.48
00025793 00000013 750.46 273.97 380.08 552.65 818.28 491.79 1011.94 491.70 889.83 590.21 829.78 690.39 998.63 690.34
00025794 00000014 748.30 267.97 381.48 553.07 821.32 482.82 1012.77 485.85 890.82 588.63 831.90 678.87 1000.96 682.45
00025795 00000015 748.74 262.32 381.31 556.74 823.83 478.26 1014.31 480.85 893.93 579.22 833.08 674.93 1001.34 678.36
00025796 00000016 751.06 254.73 380.71 562.05 829.96 473.46 1014.40 475.18 900.13 570.44 839.17 670.01 1001.07 672.79
00025797 00000017 751.69 250.25 383.03 559.25 833.83 472.68 1019.20 473.28 906.30 566.29 844.74 667.09 1006.95 668.63
00025798 00000018 752.55 252.32 386.68 552.10 837.95 474.12 1024.21 474.64 913.55 567.26 852.84 668.25 1011.30 669.11
00025799 00000019 755.48 253.55 389.19 543.73 842.53 476.93 1031.60 476.98 923.03 570.38 861.67 667.88 1022.41 668.21
00025800 00000020 757.58 260.81 389.32 544.84 850.38 472.40 1040.03 474.91 936.52 573.04 867.08 674.13 1021.83 675.90
00025801 DELETE   763.55 260.11 387.23 553.72 858.96 474.91 1046.34 475.08 945.39 577.58 885.05 685.10 1023.78 685.44
00025802 00000022 770.13 259.32 389.72 556.34 867.80 476.23 1053.39 478.80 956.67 576.24 892.28 680.22 1036.03 683.22
00025803 00000023 778.48 258.85 387.55 555.85 875.88 477.30 1064.48 481.50 965.38 576.65 899.41 680.83 1045.80 685.26
00025804 00000024 788.00 257.46 383.25 561.44 885.92 477.21 1072.84 485.74 975.50 578.93 906.57 682.01 1052.31 690.02
00025805 00000025 796.85 259.52 381.02 561.05 895.89 480.39 1081.65 486.90 985.60 583.54 915.62 686.66 1057.50 693.21
00025806 00000026 803.63 265.23 378.00 558.13 898.94 483.24 1091.89 489.27 991.72 588.40 916.78 689.71 1069.10 696.02
00025807 00000027 806.98 265.71 377.00 557.36 904.38 483.00 1098.53 490.63 999.83 592.93 920.70 689.61 1076.07 697.22
00025808 00000028 809.59 266.41 379.00 558.46 908.02 482.35 1102.96 490.89 1004.24 594.06 922.96 691.12 1079.25 699.64
00025809 00000029 810.07 265.08 382.73 559.80 908.18 478.96 1106.55 488.20 1004.28 592.45 921.86 690.15 1082.61 699.10
00025810 00000030 810.09 262.01 383.00 560.08 908.69 475.23 1104.34 483.86 1003.19 589.59 924.24 687.66 1080.68 695.88
00025811 00000031 809.96 262.01 385.57 553.78 908.96 472.23 1101.48 480.09 1001.13 580.14 926.04 682.92 1075.41 690.27
00025812 00000032 808.03 256.83 387.88 553.37 907.31 469.38 1099.35 476.43 998.35 573.17 923.06 676.39 1073.37 682.99
00025813 00000033 807.78 255.51 388.68 553.22 905.94 468.80 1096.90 474.74 995.54 571.46 922.73 675.70 1071.60 681.32
00025814 00000034 807.63 258.64 385.47 555.53 905.48 470.80 1093.43 477.32 993.86 574.52 921.67 678.25 1067.07 684.45
00025815 00000035 811.02 266.71 380.85 561.90 903.25 476.25 1094.90 481.39 993.43 582.67 921.02 688.07 1073.54 693.30
00025816 00000036 810.50 277.95 380.82 556.00 899.81 484.88 1093.77 482.37 994.62 589.28 921.57 697.17 1072.59 694.07
00025817 00000037 810.37 285.41 377.91 550.11 900.66 495.56 1092.39 489.47 998.18 592.77 924.11 700.20 1079.47 694.09
00025818 00000038 808.47 287.13 380.53 551.64 902.51 500.94 1092.53 494.83 1002.69 596.31 924.98 699.73 1086.13 693.39
00025819 00000039 807.64 288.15 381.50 549.39 902.25 502.60 1092.84 495.78 1004.07 596.56 923.65 698.42 1088.95 691.45
00025820 00000040 806.88 287.78 381.20 549.30 903.30 503.52 1093.46 496.47 1006.86 596.78 924.07 696.61 1091.87 689.31
00025821 00000041 805.02 287.15 382.66 548.14 902.98 502.74 1092.83 497.14 1005.68 595.51 922.10 694.47 1090.09 688.55
00025822 00000042 798.99 284.58 385.52 550.46 902.89 497.39 1097.66 497.99 1004.04 595.96 917.73 689.25 1090.56 690.49
00025823 00000043 796.39 283.78 386.61 547.08 900.66 498.21 1095.31 498.32 1001.96 596.19 917.04 688.29 1089.09 689.08
00025824 00000044 794.17 282.27 386.43 547.18 898.93 497.97 1094.59 498.04 1001.48 596.43 916.12 688.50 1088.61 689.24
00025825 00000045 792.91 284.03 387.50 545.10 897.64 498.30 1093.65 497.51 1001.08 596.86 915.78 688.89 1088.35 688.90
00025826 00000046 792.67 283.90 387.34 544.19 897.56 498.67 1093.67 497.28 1001.45 596.80 916.41 688.83 1089.04 688.33
00025827 00000047 792.44 284.79 387.61 543.18 897.41 498.88 1093.21 496.84 1001.86 596.58 916.81 688.90 1088.67 687.86
00025828 00000048 792.94 284.90 387.34 542.77 897.74 498.96 1093.75 496.78 1002.21 596.20 917.25 688.70 1089.48 687.55
00025829 00000049 793.62 282.82 386.33 544.55 898.73 498.59 1094.11 496.26 1003.00 595.91 918.06 688.25 1089.96 686.95
00025830 00000050 795.29 282.14 386.94 544.45 900.66 497.59 1096.05 495.71 1005.16 595.07 918.98 686.93 1091.34 686.08
00025831 00000051 796.75 281.48 385.65 544.13 902.50 496.38 1097.15 493.55 1007.89 594.85 921.19 686.24 1092.37 684.73
00025832 00000052 798.03 281.20 386.06 545.05 903.40 495.74 1098.57 492.03 1010.04 594.29 922.75 686.18 1094.79 683.87
00025833 00000053 800.96 281.67 385.48 543.22 905.54 494.89 1100.21 491.38 1011.45 594.07 924.42 685.00 1096.46 682.96
00025834 00000054 802.79 284.03 386.32 540.51 907.82 496.11 1101.47 491.57 1013.74 594.84 927.03 685.16 1098.51 682.37
00025835 00000055 804.72 284.23 387.13 540.15 910.02 495.78 1103.31 491.44 1016.33 595.63 929.45 684.50 1100.95 681.89
00025836 00000056 807.00 283.04 387.44 540.71 912.71 495.88 1105.33 491.48 1018.44 595.51 931.31 683.46 1103.29 680.94
00025837 00000057 810.38 283.10 386.55 540.25 912.00 500.93 1100.90 489.37 1022.30 594.60 934.54 687.48 1103.57 677.74
00025838 00000058 813.01 282.36 384.62 540.99 913.52 501.75 1103.09 489.26 1024.84 594.45 938.05 689.98 1106.03 679.49
00025839 00000059 814.29 281.17 383.74 544.11 915.16 502.41 1104.05 490.10 1027.24 595.86 941.63 691.83 1108.71 681.53
00025840 00000060 815.69 280.79 382.93 542.87 917.40 501.48 1107.77 488.98 1030.48 597.72 945.42 694.66 1109.70 684.17
00025841 00000061 814.64 277.40 386.31 547.70 920.94 499.26 1111.10 492.11 1028.74 600.02 950.65 694.03 1112.14 688.54
00025842 00000062 816.80 276.94 382.34 550.97 917.39 502.48 1108.59 488.69 1031.02 600.58 948.78 702.28 1109.58 690.45
00025843 00000063 816.26 279.40 383.36 547.96 915.74 502.49 1106.19 485.80 1029.58 597.43 948.25 699.63 1110.48 685.11
00025844 00000064 812.96 278.58 385.36 547.89 913.01 498.65 1102.88 484.98 1025.11 594.94 940.55 690.96 1106.39 678.74
00025845 00000065 811.33 276.19 388.35 545.66 915.48 492.36 1106.60 486.95 1020.20 591.24 936.42 680.71 1107.91 677.25
00025846 00000066 807.72 271.55 389.98 546.33 911.91 487.55 1103.52 483.96 1015.68 587.84 929.53 674.23 1104.38 672.23
00025847 00000067 807.51 265.79 387.46 542.22 911.39 480.59 1103.08 480.93 1012.67 578.67 925.41 666.58 1099.51 668.06
00025848 00000068 805.83 257.04 386.51 544.46 910.56 473.65 1100.55 477.89 1007.91 573.43 920.95 659.16 1094.51 663.83
00025849 00000069 804.51 251.44 385.17 548.96 908.42 468.75 1097.85 476.87 1002.97 566.66 917.05 656.71 1088.90 664.33
00025850 00000070 803.63 251.16 385.61 552.30 906.51 468.70 1096.84 477.30 1001.00 568.02 917.26 662.18 1084.91 670.07
00025851 00000071 803.34 253.46 383.24 553.07 904.49 472.40 1096.53 480.38 999.94 574.70 917.34 668.30 1083.94 675.61
00025852 00000072 802.85 258.95 383.54 549.88 904.09 477.62 1095.64 483.18 1001.13 582.52 919.17 672.48 1083.88 677.86
00025853 00000073 802.38 265.41 384.13 546.90 904.05 484.16 1095.58 487.21 1002.85 589.17 922.10 679.14 1083.43 682.57
00025854 00000074 803.45 269.91 383.00 542.44 904.01 488.34 1096.19 491.59 1001.59 592.81 922.23 681.49 1084.11 685.25
00025855 00000075 803.50 272.79 382.76 538.69 905.40 488.05 1098.34 494.68 1001.18 593.15 919.32 679.68 1083.21 686.37
00025856 00000076 803.17 272.32 383.30 540.10 905.68 483.85 1100.77 494.85 1001.09 592.32 912.34 673.36 1085.81 683.93
00025857 00000077 801.98 269.46 386.17 543.50 906.63 480.58 1103.29 493.78 1002.03 591.11 910.49 671.02 1086.75 683.52
00025858 00000078 802.51 269.54 384.92 543.61 908.61 480.48 1104.45 493.42 1005.51 591.04 911.92 670.39 1087.85 682.73
00025859 00000079 803.75 270.60 382.87 543.50 909.34 481.62 1104.55 494.44 1006.19 590.75 913.18 671.68 1087.90 683.90
00025860 00000080 804.24 271.81 381.01 550.56 910.06 481.22 1104.17 494.70 1005.76 591.44 911.94 674.17 1086.47 686.83
00025861 00000081 805.54 276.41 379.57 554.36 911.39 482.05 1104.06 495.37 1006.61 592.64 911.86 676.72 1086.62 689.14
00025862 00000082 803.42 276.38 379.59 550.61 909.30 484.81 1101.82 495.95 1005.53 593.24 912.95 677.32 1086.10 687.92
00025863 00000083 801.80 277.08 380.44 548.16 906.65 488.57 1098.48 496.29 1004.04 595.04 913.23 678.39 1085.83 686.10
00025864 00000084 800.39 278.64 381.27 544.71 903.77 491.23 1096.59 496.87 1001.58 595.97 913.32 679.75 1086.11 685.59
00025865 00000085 800.23 280.81 380.78 545.15 903.62 492.44 1096.48 498.09 1001.46 596.73 913.65 681.11 1086.66 686.86
00025866 00000086 799.06 279.97 380.36 546.27 902.05 493.47 1093.96 498.34 1000.22 596.52 913.84 682.10 1085.19 687.05
00025867 00000087 799.50 280.22 379.29 546.22 900.44 493.47 1092.18 498.08 997.24 595.26 913.60 683.05 1083.24 687.69
00025868 00000088 798.91 278.48 378.03 547.26 897.97 492.31 1091.15 497.50 994.27 593.20 911.94 683.19 1081.80 688.40
00025869 00000089 798.56 275.78 378.17 548.88 897.48 491.03 1089.56 494.51 994.57 592.41 914.10 683.31 1080.69 687.10
00025870 00000090 798.27 274.48 378.30 547.25 897.85 489.25 1086.72 490.44 995.47 590.62 918.09 683.17 1077.68 685.32
00025871 00000091 797.92 273.00 378.18 549.93 898.16 487.41 1086.10 487.93 996.34 589.17 918.42 682.71 1076.79 684.39
00025872 00000092 798.21 271.79 378.24 550.40 897.74 486.34 1085.99 486.43 995.68 587.73 917.86 681.99 1077.32 683.32
00025873 00000093 797.86 272.01 377.70 548.98 897.70 486.43 1086.96 486.50 996.45 588.28 917.91 681.86 1078.53 683.23
00025874 00000094 797.22 273.18 378.24 546.07 897.34 488.61 1086.21 488.22 996.56 588.80 918.99 682.05 1078.88 682.93
00025875 00000095 795.58 272.51 379.38 548.25 896.19 490.15 1087.83 490.55 996.65 591.18 917.33 683.82 1080.73 685.16
00025876 00000096 796.03 272.96 378.47 546.29 896.76 491.02 1087.97 491.27 997.66 591.67 918.48 684.06 1080.80 685.31
00025877 00000097 794.49 275.11 379.55 542.32 895.60 491.25 1086.97 491.03 996.93 591.41 918.49 683.64 1080.46 684.47
00025878 00000098 793.56 273.50 379.00 542.99 895.02 490.24 1086.61 489.65 997.41 590.65 918.53 683.10 1080.80 683.63
00025879 00000099 793.50 274.05 379.46 542.73 895.05 490.18 1086.13 488.35 998.08 590.97 919.52 683.59 1081.13 683.16
00025880 00000100 792.24 275.78 380.32 544.43 894.32 491.49 1085.85 488.13 998.54 592.79 921.28 685.99 1082.87 684.20
00025881 00000101 791.44 276.90 380.91 546.02 893.73 493.41 1085.76 490.20 997.67 594.80 921.22 688.88 1082.18 687.16
00025882 00000102 791.44 277.71 380.88 546.06 893.96 494.15 1085.67 491.12 997.80 594.92 920.84 689.37 1081.63 687.77
00025883 00000103 793.51 276.22 380.09 549.05 895.29 494.81 1087.13 491.99 998.59 594.90 921.08 689.95 1082.66 688.49
00025884 00000104 794.59 274.27 380.84 551.26 896.89 494.04 1087.99 491.32 999.14 594.25 921.46 688.99 1083.29 687.62
00025885 DELETE   794.12 273.63 381.43 555.37 899.00 496.74 1088.62 496.26 999.41 593.78 919.48 687.40 1083.55 687.65
00025886 DELETE   796.67 274.61 381.06 560.92 899.98 501.04 1090.64 499.05 999.55 595.32 918.48 690.38 1086.63 689.27
00025887 00000107 798.36 276.36 380.35 561.49 901.16 500.87 1092.45 498.84 1000.83 597.22 918.53 691.64 1087.94 690.63
00025888 00000108 799.25 276.28 382.98 560.10 901.83 497.57 1093.16 494.48 1002.27 596.90 918.67 689.80 1089.32 687.96
00025889 00000109 799.29 275.96 383.93 558.30 902.60 495.45 1094.37 492.97 1003.90 596.15 920.94 689.90 1089.49 688.62
00025890 00000110 799.97 274.32 383.01 562.16 903.53 495.43 1094.96 494.05 1005.31 598.14 923.54 693.31 1088.67 693.05
00025891 00000111 801.21 276.58 381.50 560.23 904.34 495.28 1096.69 493.49 1007.94 599.99 923.44 694.36 1089.92 693.93
00025892 00000112 801.75 276.31 380.82 562.68 904.71 494.67 1096.75 492.22 1008.69 600.06 924.29 695.71 1090.47 694.72
00025893 00000113 800.90 276.25 381.05 564.02 904.24 494.21 1095.57 491.17 1008.70 599.68 925.32 696.57 1090.46 695.05
00025894 00000114 798.98 276.58 382.50 562.77 903.14 493.88 1094.95 491.55 1005.84 597.51 922.48 694.30 1088.71 693.39
00025895 00000115 796.72 273.98 380.72 562.79 899.09 495.08 1091.36 492.96 1000.08 596.95 919.78 694.35 1084.53 693.75
00025896 00000116 793.89 274.06 380.00 559.58 894.32 495.54 1085.30 493.75 993.53 597.75 917.54 694.14 1078.07 693.85
00025897 00000117 791.19 277.01 380.96 554.21 890.52 494.60 1081.60 493.48 988.22 598.44 915.10 693.09 1074.07 693.27
00025898 00000118 790.70 277.52 380.81 551.57 890.26 494.93 1081.69 494.08 988.36 598.62 915.54 692.20 1075.17 692.47
00025899 00000119 791.14 278.38 380.81 548.09 891.66 496.30 1084.25 495.14 991.64 598.60 917.29 691.68 1078.72 691.59
CROP_BBOX: 579 21 1435 962
