Video ID: 	0laGBIWFR4w
H: 	1080
W: 	1920
FPS: 	23.976023976023978

FRAME INDEX X0 Y0 W H [Landmarks (5 Points)]

00020031 00000000 499.86 153.66 415.26 586.86 641.03 367.98 824.04 346.03 773.88 468.44 691.00 600.89 833.06 581.02
00020032 DELETE   497.76 148.97 417.90 589.38 638.97 364.14 822.60 340.14 774.53 459.70 689.52 596.03 833.11 574.58
00020033 00000002 498.80 149.47 415.95 585.02 642.42 357.46 824.97 332.43 780.90 450.15 695.25 591.98 835.63 569.96
00020034 00000003 497.53 147.42 417.22 587.15 644.92 356.50 827.53 332.80 785.37 453.20 697.02 592.13 838.58 570.99
00020035 00000004 498.04 151.47 415.64 587.94 643.68 360.26 827.46 337.45 784.26 460.18 694.75 597.73 838.78 577.19
00020036 00000005 494.96 150.22 416.65 591.03 642.17 363.35 824.64 342.91 779.48 464.05 692.64 598.51 834.54 579.87
00020037 00000006 494.66 149.96 413.19 592.75 640.55 365.68 821.45 348.53 772.94 468.39 689.15 601.71 827.05 586.02
00020038 00000007 494.34 146.98 410.04 596.69 638.25 366.58 817.78 351.25 768.69 470.58 686.18 604.04 821.67 589.99
00020039 00000008 492.45 145.78 409.47 599.82 635.65 366.79 814.78 352.02 765.86 470.70 683.31 605.70 818.27 592.07
00020040 00000009 492.10 145.46 408.23 599.62 634.95 364.92 815.00 350.36 765.01 469.29 681.49 604.49 817.16 591.09
00020041 00000010 491.76 145.69 408.40 597.38 633.42 363.14 815.77 347.70 764.62 465.53 681.74 602.76 818.46 588.48
00020042 00000011 490.31 145.02 410.37 596.74 633.93 359.58 816.42 345.40 764.87 464.14 680.98 600.00 817.43 586.64
00020043 00000012 491.29 144.58 408.87 596.18 634.70 358.66 816.45 345.49 765.11 463.28 680.64 598.86 815.82 586.42
00020044 00000013 492.03 144.71 407.61 595.88 635.14 358.14 816.62 345.24 765.02 463.12 679.94 598.38 815.10 586.24
00020045 00000014 491.96 143.15 407.90 597.04 635.85 358.33 816.92 345.42 765.66 462.40 680.79 597.90 815.36 585.76
00020046 00000015 491.78 142.73 407.85 598.04 636.24 358.01 816.76 345.09 765.77 462.41 680.84 598.12 815.20 585.98
00020047 00000016 491.49 143.06 408.60 600.00 636.83 357.46 816.55 344.98 766.43 462.93 680.70 598.32 814.46 586.61
00020048 00000017 492.59 146.12 407.72 598.11 637.54 356.34 817.62 345.01 765.77 464.57 680.36 598.18 813.65 587.39
00020049 00000018 492.21 142.94 408.97 595.82 638.58 356.82 819.62 344.42 767.07 464.38 681.43 595.32 816.07 583.42
00020050 00000019 493.14 141.85 410.32 592.27 637.68 356.81 823.21 343.99 768.19 464.06 679.43 592.78 820.90 580.15
00020051 00000020 494.86 140.76 410.39 592.73 639.64 357.18 826.05 345.11 770.70 463.48 678.53 592.18 823.20 580.04
00020052 00000021 496.42 142.45 410.54 592.92 639.92 356.67 827.32 344.84 771.74 465.43 677.76 592.26 824.79 580.32
00020053 00000022 497.24 145.76 411.36 595.53 641.51 355.79 827.16 347.60 771.91 467.31 675.58 591.60 823.96 582.95
00020054 00000023 497.92 146.80 411.03 605.90 642.47 356.20 828.10 350.24 773.62 469.98 671.77 593.76 825.12 587.14
00020055 00000024 498.55 147.13 411.17 604.70 641.39 358.06 829.31 350.63 773.57 471.64 672.70 594.45 828.85 586.58
00020056 00000025 499.55 145.19 411.36 598.32 641.50 360.45 829.95 349.96 774.36 471.76 677.29 593.10 832.54 582.68
00020057 00000026 499.76 145.73 412.92 592.74 643.88 360.73 832.27 348.32 776.94 471.53 682.25 593.47 833.96 581.32
00020058 00000027 501.18 145.78 412.20 592.58 644.79 359.38 833.32 346.94 777.88 471.32 682.52 592.96 834.49 580.82
00020059 00000028 501.04 144.76 412.42 595.42 645.24 358.32 832.59 346.51 777.88 470.16 681.74 591.31 834.22 579.68
00020060 00000029 501.49 147.19 411.89 596.93 644.40 355.82 831.26 345.78 776.64 468.78 678.23 590.46 833.32 580.39
00020061 00000030 501.65 150.65 411.04 600.64 646.13 353.46 830.63 347.02 776.66 467.27 673.26 589.77 829.20 583.00
00020062 00000031 500.61 148.23 411.84 602.35 643.70 354.10 830.10 346.91 775.54 464.92 672.34 589.86 830.39 582.37
00020063 00000032 499.10 146.19 411.75 603.16 642.36 353.99 827.56 345.93 774.01 464.13 670.82 589.48 827.70 581.40
00020064 00000033 498.75 146.99 411.45 602.49 640.67 353.50 825.84 344.85 772.20 461.97 670.26 589.36 826.36 580.78
00020065 00000034 498.45 144.81 412.60 604.35 639.52 354.49 826.20 344.59 772.41 461.78 671.99 590.06 829.62 580.25
00020066 00000035 498.51 145.14 412.72 605.65 640.32 354.06 825.51 345.27 771.74 461.64 670.50 589.52 827.33 580.60
00020067 00000036 498.20 145.01 412.98 604.69 640.24 354.21 825.41 345.49 771.75 461.18 670.40 589.02 827.02 580.18
00020068 00000037 498.22 145.24 413.01 603.88 639.81 353.88 825.25 344.69 771.71 460.02 669.89 588.68 826.80 579.54
00020069 00000038 498.11 144.77 413.25 604.73 640.25 353.03 825.85 343.92 772.26 459.52 670.38 588.40 827.56 579.33
00020070 00000039 498.60 143.97 413.10 604.16 640.72 351.85 826.96 342.23 773.08 457.69 670.83 587.85 828.06 578.48
00020071 00000040 498.38 142.63 413.23 604.29 641.51 351.65 826.95 342.17 773.32 457.03 671.77 587.02 828.09 577.72
00020072 00000041 498.52 142.56 412.90 604.48 642.32 351.22 827.57 342.02 774.49 456.91 673.23 587.87 827.74 578.66
00020073 00000042 498.43 144.38 412.50 600.24 642.32 351.50 827.01 342.30 774.44 456.93 674.70 588.76 826.61 579.56
00020074 00000043 497.73 141.80 412.53 599.04 643.85 352.10 826.00 340.30 774.53 456.56 680.64 588.27 825.72 576.61
00020075 00000044 497.83 139.92 411.79 596.17 644.41 351.19 825.21 338.51 773.97 455.17 683.46 588.99 822.89 576.75
00020076 00000045 497.05 140.51 411.63 590.73 645.69 351.13 824.11 337.80 774.32 454.31 683.84 586.60 821.12 573.90
00020077 00000046 496.27 139.89 412.65 588.32 647.53 352.06 824.84 337.70 776.18 452.86 686.43 585.41 822.41 571.80
00020078 00000047 496.93 139.58 411.82 587.04 649.85 352.19 824.85 338.46 778.24 452.28 690.01 584.67 822.97 571.55
00020079 00000048 497.48 136.43 411.75 588.07 647.90 354.85 824.61 338.17 777.65 452.63 693.15 585.78 826.75 570.04
00020080 DELETE   498.75 133.92 408.03 594.24 647.55 360.10 820.63 342.67 777.70 452.33 693.58 587.88 825.75 572.08
00020081 00000050 497.45 132.35 409.53 598.27 648.10 356.53 822.17 338.76 779.88 453.69 698.44 592.36 825.01 576.44
00020082 00000051 496.41 129.55 412.53 597.60 647.00 355.73 824.11 332.44 783.24 447.48 701.03 589.14 830.89 568.56
00020083 00000052 495.03 130.58 415.47 592.58 645.57 356.97 825.15 331.24 783.39 446.84 697.07 586.03 834.22 563.12
00020084 00000053 493.12 129.96 417.94 593.01 643.09 358.19 823.09 329.98 782.67 445.82 697.38 585.74 836.72 560.49
00020085 00000054 491.24 129.46 417.49 596.38 640.73 358.45 820.50 330.09 780.13 443.95 695.68 587.76 833.01 562.65
00020086 00000055 488.48 129.25 419.04 603.51 637.27 360.29 818.77 332.94 777.72 448.60 692.62 594.50 830.60 570.05
00020087 00000056 486.92 129.38 418.07 608.43 632.52 362.31 814.47 334.64 773.05 454.69 687.51 598.01 828.58 573.19
00020088 00000057 485.55 135.41 415.86 610.97 625.88 362.60 810.88 336.23 766.49 460.61 680.95 601.52 827.54 577.50
00020089 00000058 481.99 134.82 416.33 620.98 622.53 364.17 809.66 339.61 763.18 465.37 676.35 605.96 826.24 583.37
00020090 00000059 477.63 139.04 415.24 622.95 619.29 364.17 805.33 341.18 758.20 468.31 673.29 610.46 820.72 589.25
00020091 00000060 472.92 139.49 417.36 622.81 615.28 365.43 801.86 342.92 755.46 470.65 671.05 611.60 818.51 590.85
00020092 00000061 470.26 141.22 416.95 622.69 611.53 368.08 797.59 345.80 754.09 475.01 667.28 614.05 817.38 593.56
00020093 00000062 466.95 139.05 414.78 634.54 607.00 371.27 793.36 349.98 751.94 480.25 658.90 616.33 815.83 596.23
00020094 00000063 462.36 140.71 417.36 641.36 601.22 380.50 784.57 360.32 742.86 491.24 648.06 620.89 807.21 602.20
00020095 DELETE   459.93 149.03 421.31 639.60 599.42 389.39 780.27 369.73 733.88 506.59 650.20 631.04 799.93 613.21
00020096 00000065 456.82 165.39 423.72 637.81 598.52 404.50 783.29 372.74 734.35 513.65 663.85 653.63 795.11 624.74
00020097 00000066 453.50 164.25 423.70 638.81 599.05 408.32 780.69 383.60 735.33 529.34 659.33 655.54 797.57 634.78
00020098 00000067 452.73 164.63 424.30 628.28 594.51 408.83 782.76 382.40 736.17 530.68 657.20 653.19 801.64 630.88
00020099 00000068 455.02 159.64 424.08 631.00 595.83 403.41 783.93 377.25 737.80 522.56 656.84 645.63 804.84 623.38
00020100 00000069 455.97 155.83 422.72 629.86 595.89 398.05 781.79 372.14 737.64 512.66 657.61 637.87 805.52 615.56
00020101 00000070 455.14 158.98 421.67 627.69 597.99 397.14 778.17 372.43 735.66 512.03 661.51 642.02 799.44 620.60
00020102 00000071 451.23 166.20 426.35 628.66 599.02 402.54 782.34 372.76 736.77 510.11 666.54 652.52 795.94 625.48
00020103 00000072 449.88 171.25 424.89 627.84 595.15 404.88 780.97 375.15 734.82 513.55 663.25 656.82 795.73 629.69
00020104 00000073 449.41 172.15 424.95 627.07 595.47 405.78 780.72 376.28 735.08 513.37 662.43 657.20 795.16 630.37
00020105 00000074 450.30 170.50 425.59 627.08 597.94 404.49 781.17 375.16 736.61 511.23 665.64 654.42 795.38 627.86
00020106 00000075 453.30 167.32 426.39 620.23 601.94 402.64 784.33 371.48 740.07 507.96 670.45 648.33 797.57 620.30
00020107 00000076 458.88 156.37 420.90 619.07 600.07 393.65 782.66 368.10 739.20 504.70 664.91 631.00 806.92 608.48
00020108 00000077 462.40 149.99 418.70 619.08 602.79 389.61 785.11 367.40 741.04 496.72 663.55 623.13 808.11 602.99
00020109 00000078 464.72 146.46 417.76 618.84 603.69 388.64 790.10 366.16 743.60 493.45 663.86 621.04 812.07 600.59
00020110 00000079 467.62 146.51 414.96 617.55 609.70 386.42 790.15 364.92 745.52 493.12 668.09 622.24 807.80 602.86
00020111 00000080 468.82 146.58 413.21 619.36 610.50 384.65 789.74 363.49 746.73 492.18 668.67 623.56 805.96 604.60
00020112 00000081 467.83 144.95 413.96 621.55 610.74 382.32 791.33 361.23 747.70 490.00 665.05 621.50 805.34 602.54
00020113 00000082 469.11 144.65 413.27 618.12 612.24 379.37 793.84 359.41 749.15 486.07 666.31 619.60 805.98 601.68
00020114 00000083 471.88 144.55 412.34 609.97 616.30 376.59 798.09 358.10 752.09 482.92 671.26 615.47 809.61 598.63
00020115 00000084 474.16 144.27 410.89 606.55 618.93 373.79 801.30 356.84 753.04 482.68 671.24 611.53 809.80 595.88
00020116 00000085 475.11 142.49 410.65 607.87 620.15 373.25 803.04 356.84 754.00 482.62 671.48 610.96 810.32 595.70
00020117 00000086 475.42 143.06 409.93 608.27 620.65 372.17 802.62 356.10 753.79 482.35 670.58 610.90 809.15 595.93
00020118 00000087 475.15 143.93 410.45 609.27 619.20 371.67 802.00 355.16 752.57 483.09 669.97 612.17 809.07 596.81
00020119 00000088 476.18 143.60 410.04 607.67 618.83 371.42 803.23 355.26 753.19 482.01 668.41 610.80 809.67 595.75
00020120 00000089 476.75 142.78 410.33 605.75 619.26 369.06 804.10 351.78 753.42 479.99 670.16 609.38 810.44 593.33
00020121 00000090 475.22 141.56 412.15 609.65 619.71 367.72 801.39 350.41 751.91 478.69 671.03 608.62 807.77 592.56
00020122 00000091 477.76 139.74 407.41 611.51 625.01 372.13 798.94 354.88 753.19 478.59 673.48 609.19 805.42 593.43
00020123 DELETE   477.74 139.68 406.81 611.73 623.37 370.45 798.93 353.67 751.92 474.53 671.81 608.29 805.10 593.04
00020124 00000093 476.60 136.54 408.64 615.32 622.66 365.97 800.89 347.41 754.09 470.04 673.98 607.46 808.38 590.63
00020125 00000094 475.37 138.24 410.63 616.81 619.46 360.68 799.09 340.52 753.28 463.48 675.30 607.55 810.33 589.19
00020126 00000095 474.44 135.76 413.97 609.96 618.29 361.77 799.73 338.49 752.48 461.91 675.28 601.50 813.83 580.35
00020127 00000096 473.05 133.55 416.19 610.19 613.57 365.27 801.36 340.43 752.23 463.63 669.33 599.38 820.70 576.55
00020128 00000097 470.81 136.67 414.92 611.11 610.55 365.77 797.09 342.72 748.51 467.21 664.74 601.34 815.37 580.32
00020129 00000098 469.16 140.54 409.87 610.14 611.45 367.78 789.80 346.78 744.89 472.32 667.67 605.36 804.18 586.70
00020130 00000099 466.66 140.47 409.44 615.07 608.67 370.93 787.01 350.57 745.44 475.83 667.37 612.17 803.62 593.97
00020131 00000100 463.34 142.26 412.15 614.76 604.86 375.07 787.18 354.83 744.81 479.19 663.42 614.19 805.22 595.99
00020132 00000101 460.36 143.42 413.72 612.92 603.00 379.52 785.09 359.38 743.61 481.67 661.09 614.53 804.01 596.55
00020133 00000102 457.59 144.14 415.39 612.36 601.00 383.19 784.51 364.42 741.48 488.04 656.89 616.24 802.20 599.51
00020134 00000103 455.14 145.93 415.94 610.61 599.43 385.91 783.87 367.92 739.50 491.51 655.15 618.23 800.52 602.33
00020135 00000104 450.97 148.94 417.02 614.04 595.78 386.84 777.50 367.82 736.76 495.04 653.02 622.02 796.86 605.24
00020136 00000105 447.14 152.44 416.85 614.42 593.44 386.81 771.95 368.08 734.53 496.31 653.25 626.45 792.39 610.07
00020137 00000106 441.94 151.13 417.57 620.80 592.29 388.62 768.89 368.47 733.60 499.71 652.41 629.65 790.09 612.22
00020138 00000107 440.28 150.43 414.50 620.61 590.73 392.11 766.20 370.82 730.65 501.83 650.39 630.19 787.65 612.02
00020139 00000108 438.51 155.88 412.13 614.98 590.96 396.13 760.90 374.11 727.80 503.26 652.46 631.52 782.34 613.26
00020140 00000109 433.85 159.58 412.60 620.59 590.63 398.81 757.80 382.01 725.26 511.99 648.09 638.09 772.49 624.94
00020141 00000110 422.86 170.64 419.17 620.07 579.85 419.75 761.53 386.75 723.71 516.30 639.03 657.80 772.57 628.90
00020142 00000111 433.61 169.92 407.28 637.93 584.88 415.95 757.86 398.87 721.23 530.51 645.10 661.85 771.51 648.91
00020143 00000112 428.09 177.06 411.62 636.66 579.67 434.97 768.78 405.43 725.13 542.73 637.28 681.27 776.76 655.33
00020144 00000113 427.68 186.38 412.12 627.50 580.96 441.25 768.84 410.20 726.51 550.68 639.53 684.52 778.31 657.05
00020145 00000114 425.90 194.45 415.95 624.07 579.94 442.80 766.57 410.96 724.96 553.63 638.29 686.00 778.07 657.88
00020146 00000115 424.57 192.21 416.70 623.02 578.71 442.07 766.21 409.45 725.47 549.86 635.93 683.04 778.20 654.32
00020147 00000116 425.76 185.08 415.13 626.63 578.61 439.83 766.10 405.44 726.16 545.52 637.03 680.50 779.27 650.27
00020148 00000117 426.10 176.33 414.72 625.26 577.37 437.60 768.42 404.28 726.37 544.04 638.33 677.89 780.26 648.20
00020149 00000118 424.70 177.05 413.99 626.06 577.65 436.08 767.64 403.21 726.06 542.30 639.67 677.90 779.69 648.62
00020150 00000119 424.24 177.79 414.76 633.57 578.81 435.23 766.00 401.86 725.29 539.67 640.14 679.19 778.28 649.66
00020151 00000120 424.59 182.05 415.38 635.28 577.09 435.19 763.88 403.45 722.71 538.90 639.50 681.42 776.18 653.49
00020152 00000121 423.73 183.93 417.62 633.85 578.13 438.78 766.05 406.99 725.85 543.22 641.24 684.43 779.12 656.35
00020153 00000122 427.77 191.30 416.27 626.25 579.87 446.34 769.47 413.04 728.90 551.94 641.49 687.78 784.00 658.53
00020154 DELETE   434.43 190.68 410.04 631.99 588.18 433.04 765.56 415.97 730.55 555.78 647.55 685.04 781.51 669.93
00020155 00000124 437.26 191.92 408.84 628.86 589.11 434.37 767.67 417.74 731.55 557.01 649.98 684.81 783.69 670.04
00020156 00000125 437.68 190.07 412.49 632.92 584.15 444.85 770.68 420.50 730.40 562.88 646.92 681.34 788.90 662.64
00020157 00000126 439.97 187.96 411.70 637.79 585.63 444.30 770.44 418.76 730.43 561.29 647.25 682.81 788.39 663.37
00020158 00000127 439.10 187.53 415.57 639.61 591.74 432.96 772.16 413.63 732.63 555.47 646.41 682.16 784.13 664.90
00020159 00000128 435.92 187.23 422.83 646.94 590.11 432.15 774.13 412.38 733.31 552.91 635.98 678.12 790.60 659.62
00020160 00000129 436.60 189.05 424.36 641.97 589.01 433.07 776.20 411.13 733.62 552.42 636.02 675.63 794.51 655.28
00020161 00000130 443.09 186.87 418.55 632.15 585.62 442.52 775.30 412.20 733.46 558.65 642.39 671.22 798.33 647.48
00020162 00000131 445.25 186.70 417.02 627.79 588.36 441.88 776.63 411.98 734.46 558.48 645.86 670.36 798.39 647.03
00020163 00000132 445.52 186.16 417.53 627.11 589.28 441.38 776.87 411.09 736.13 557.65 648.27 670.77 799.57 647.07
00020164 00000133 446.93 186.20 416.78 625.66 588.21 438.63 775.48 409.77 734.69 555.82 648.60 670.98 797.79 648.53
00020165 00000134 448.44 187.96 414.47 625.57 593.08 427.34 777.48 405.21 735.01 545.09 651.56 675.40 789.44 655.51
00020166 00000135 448.67 184.53 417.15 631.08 593.75 423.52 779.17 401.19 736.16 539.15 651.43 674.13 790.45 653.97
00020167 00000136 449.86 183.07 417.46 633.02 594.41 418.63 781.83 396.10 737.84 533.69 651.42 669.87 793.92 649.16
00020168 00000137 451.91 182.42 418.56 632.24 596.68 413.06 785.96 390.54 738.32 528.36 653.04 664.68 794.58 643.76
00020169 00000138 452.54 178.30 421.80 635.64 598.72 407.90 788.55 386.71 739.75 523.90 654.22 660.65 797.30 640.38
00020170 00000139 453.34 173.75 423.66 637.02 600.67 403.26 791.03 383.85 740.52 518.81 652.77 654.59 799.29 635.62
00020171 00000140 456.36 169.19 422.75 638.67 601.34 399.29 792.04 379.23 739.98 512.16 652.18 648.05 799.73 628.72
00020172 DELETE   461.10 167.94 419.41 631.22 606.11 397.67 793.47 378.25 743.22 504.50 650.39 637.52 801.91 618.88
00020173 DELETE   468.83 152.62 409.03 632.81 605.34 390.18 788.93 377.53 743.80 498.59 644.32 622.70 805.47 611.31
00020174 00000143 467.77 142.99 411.77 638.19 607.21 383.37 793.96 370.05 749.06 492.75 643.96 617.34 809.01 605.24
00020175 00000144 469.28 139.30 411.43 640.20 609.11 377.65 795.41 364.35 749.68 488.88 644.07 614.56 808.88 601.89
00020176 00000145 468.72 138.93 412.36 642.90 610.47 371.94 796.91 360.24 750.14 484.32 642.67 612.39 809.54 600.62
00020177 00000146 470.43 135.77 411.69 644.48 610.29 367.84 798.10 357.23 749.57 479.15 642.22 609.57 810.08 598.51
00020178 00000147 472.50 133.11 412.13 642.66 612.44 366.11 800.03 354.43 749.27 476.26 645.02 606.98 810.37 594.96
00020179 00000148 475.54 130.53 415.68 635.71 618.71 367.70 806.40 355.06 752.89 473.97 652.79 602.31 815.60 589.46
00020180 00000149 480.80 127.49 417.06 629.30 624.87 367.57 810.69 352.83 757.55 471.62 662.53 596.76 822.74 582.05
00020181 00000150 484.77 125.56 416.33 628.53 629.06 366.26 813.47 350.92 761.84 470.00 668.57 596.32 825.43 580.95
00020182 00000151 490.00 126.24 416.56 626.28 634.48 366.44 817.28 349.49 767.65 468.01 672.93 593.96 828.96 577.83
00020183 00000152 495.13 125.77 416.66 631.42 640.50 365.64 822.89 350.18 773.33 469.56 675.14 594.19 833.19 579.44
00020184 00000153 501.14 130.74 415.29 629.17 646.30 363.55 829.92 348.88 777.45 470.69 678.63 594.96 837.06 580.97
00020185 00000154 504.76 134.21 415.77 622.27 648.21 363.05 833.87 347.11 780.67 468.26 682.55 594.11 841.68 579.27
00020186 00000155 508.71 137.22 414.19 612.31 650.79 362.41 836.55 344.10 782.81 464.33 687.97 592.36 844.82 575.88
00020187 00000156 514.90 136.86 411.47 610.85 656.72 346.34 832.05 338.91 780.94 459.06 699.58 588.62 837.99 581.52
00020188 00000157 519.48 135.99 409.11 610.55 660.83 346.43 835.85 336.78 785.45 455.70 707.78 589.55 840.14 580.81
00020189 00000158 523.16 136.50 404.91 611.49 663.57 344.93 836.61 335.60 788.60 454.48 713.48 592.56 840.04 584.16
00020190 00000159 524.74 136.37 404.32 613.52 667.02 345.63 838.26 335.92 791.64 454.62 718.54 593.63 842.41 584.85
00020191 00000160 526.18 136.22 403.12 614.43 666.96 346.61 838.98 335.58 793.03 454.34 721.52 595.32 843.93 585.36
00020192 00000161 525.15 138.03 402.49 613.38 669.08 344.75 839.00 334.45 795.37 451.95 726.79 596.27 843.74 587.05
00020193 00000162 524.94 137.26 402.23 616.35 669.36 344.58 837.99 333.73 796.77 450.14 729.89 598.49 843.74 588.86
00020194 00000163 523.91 136.94 402.59 617.89 669.41 344.13 837.25 333.42 796.46 450.23 729.22 598.50 842.52 588.97
00020195 00000164 521.56 138.20 404.44 617.99 667.54 343.89 835.00 333.89 794.72 449.18 726.92 599.23 840.42 590.34
00020196 00000165 518.97 136.85 405.19 620.68 665.93 343.87 833.81 335.38 793.50 449.21 724.81 600.17 838.58 592.49
00020197 00000166 517.19 136.87 405.93 621.10 664.86 343.73 832.43 336.13 792.30 448.31 722.70 600.52 836.05 593.66
00020198 00000167 514.96 138.11 406.91 620.34 663.14 342.17 830.87 335.95 790.03 448.67 718.61 599.22 832.48 593.57
00020199 00000168 512.54 138.37 408.40 621.96 660.64 342.24 828.65 335.63 787.59 449.72 717.61 601.36 831.55 595.39
00020200 00000169 509.74 140.99 408.56 621.45 659.08 343.53 826.14 336.73 787.57 453.47 719.13 605.57 830.14 599.57
00020201 00000170 507.94 142.75 407.18 625.33 657.34 347.50 824.28 341.31 788.57 459.73 716.96 611.79 829.54 606.63
