Video ID: 	CHlP-rSLSCU
H: 	2160
W: 	3840
FPS: 	24.0

FRAME INDEX X0 Y0 W H [Landmarks (5 Points)]

00005931 00000000 1003.48 315.23 405.94 668.35 1206.88 594.03 1361.39 614.70 1347.68 704.20 1203.13 812.73 1342.74 829.40
00005932 00000001 998.85 310.99 410.69 671.42 1206.44 590.18 1358.56 608.78 1346.30 699.98 1204.52 810.07 1339.87 824.95
00005933 00000002 995.70 310.08 414.31 671.80 1206.16 591.89 1358.13 607.11 1346.62 699.56 1204.09 808.07 1341.23 820.91
00005934 00000003 995.64 308.52 414.69 668.98 1203.06 592.39 1358.62 606.53 1341.90 700.95 1198.58 805.91 1340.49 818.24
00005935 00000004 983.59 308.17 419.77 672.82 1196.35 596.68 1357.57 617.72 1335.49 703.63 1199.06 803.84 1336.19 821.09
00005936 00000005 988.95 314.57 418.25 657.70 1190.04 601.85 1356.68 614.71 1332.33 707.02 1182.92 809.09 1340.05 821.04
00005937 00000006 976.74 319.29 423.34 652.29 1176.34 611.81 1350.81 622.95 1314.81 710.35 1177.71 810.02 1333.81 819.44
00005938 DELETE   972.85 325.89 422.19 649.17 1164.92 612.63 1343.40 622.73 1301.87 710.94 1167.96 812.17 1325.14 820.64
00005939 00000008 966.32 320.23 417.54 655.20 1151.26 607.59 1331.86 617.16 1285.85 708.09 1159.89 814.61 1313.83 822.26
00005940 00000009 961.89 315.19 416.08 655.54 1141.93 599.13 1324.61 609.29 1275.59 703.53 1152.47 812.98 1302.82 820.69
00005941 DELETE   955.53 308.23 417.92 653.80 1130.79 592.11 1314.67 599.47 1263.10 695.44 1133.94 800.97 1291.95 807.82
00005942 DELETE   941.68 306.51 430.27 646.13 1110.25 594.76 1302.08 604.35 1245.91 688.31 1104.03 790.71 1281.97 800.04
00005943 DELETE   915.73 309.45 437.02 639.32 1090.94 580.61 1284.66 596.46 1220.25 676.05 1091.01 785.05 1258.81 797.69
00005944 00000013 905.52 303.59 437.91 644.69 1083.23 566.96 1271.29 587.35 1204.31 668.67 1080.77 779.47 1239.45 795.12
00005945 00000014 897.80 300.07 438.85 639.53 1076.58 560.84 1259.57 580.19 1194.10 660.19 1072.47 769.16 1231.99 784.11
00005946 DELETE   890.62 295.58 437.98 634.28 1067.09 553.83 1249.08 572.87 1183.57 646.34 1063.77 760.50 1225.51 775.58
00005947 00000016 882.55 289.83 440.46 637.75 1053.62 548.35 1240.68 565.50 1175.69 636.59 1052.43 754.76 1221.64 769.10
00005948 00000017 873.70 288.68 445.80 652.35 1041.12 547.14 1232.57 563.42 1166.43 631.26 1041.18 757.64 1216.19 771.40
00005949 00000018 866.95 293.25 449.41 653.67 1035.85 546.12 1227.31 561.93 1161.40 624.69 1038.25 759.29 1211.60 772.53
00005950 00000019 864.16 293.99 450.84 653.78 1032.18 542.42 1224.94 561.24 1158.28 619.61 1035.95 757.18 1207.13 772.87
00005951 00000020 865.72 291.80 449.75 646.40 1034.22 540.88 1224.24 562.20 1157.50 618.56 1040.11 752.00 1203.81 769.43
00005952 00000021 868.25 288.64 453.04 637.99 1036.93 544.75 1225.42 563.54 1155.66 623.20 1045.57 748.11 1202.80 763.16
00005953 00000022 876.12 286.47 451.68 635.49 1042.04 551.00 1228.02 566.15 1156.76 631.57 1051.43 749.89 1205.00 762.04
00005954 00000023 885.76 293.47 448.67 631.29 1048.57 562.00 1232.72 571.83 1159.88 637.43 1059.56 758.51 1209.56 766.48
00005955 00000024 896.07 294.33 443.81 637.08 1050.84 570.97 1238.50 577.35 1162.17 650.81 1061.40 769.82 1215.65 775.38
00005956 00000025 909.23 304.04 439.32 629.17 1056.69 579.39 1245.84 585.81 1161.98 658.65 1064.26 774.77 1219.58 780.79
00005957 00000026 920.60 304.67 434.06 627.98 1064.54 582.82 1258.75 593.54 1171.40 667.07 1069.93 778.87 1225.70 788.22
00005958 00000027 931.03 302.23 434.50 641.30 1064.79 584.01 1266.18 591.10 1172.57 672.39 1074.09 787.73 1235.71 791.94
00005959 00000028 939.40 297.37 435.20 651.86 1067.96 586.33 1267.29 588.73 1174.42 671.65 1081.29 791.38 1242.70 792.13
00005960 00000029 944.98 298.97 434.17 654.42 1065.05 593.30 1270.14 589.71 1174.25 677.74 1088.75 798.94 1250.33 794.86
00005961 00000030 952.37 303.18 430.49 658.24 1064.27 603.28 1270.44 590.06 1174.95 688.33 1095.92 810.64 1257.56 799.41
00005962 00000031 955.24 303.74 432.53 659.09 1065.00 607.86 1271.48 591.71 1176.98 694.62 1098.85 815.74 1262.05 802.61
00005963 00000032 963.45 306.11 432.39 652.23 1068.37 606.73 1274.92 588.22 1177.64 690.45 1099.59 809.80 1270.94 795.47
00005964 00000033 980.92 315.64 429.95 635.13 1077.98 598.79 1282.41 580.00 1180.52 678.49 1109.80 800.62 1280.42 786.16
00005965 00000034 998.30 307.15 433.31 636.23 1093.75 591.60 1295.31 572.52 1192.23 669.71 1125.42 792.88 1295.69 778.98
00005966 00000035 1009.32 305.01 441.26 628.46 1111.27 584.11 1315.22 563.97 1207.16 663.63 1142.73 789.90 1311.50 775.25
00005967 DELETE   1030.90 306.81 441.16 618.12 1130.51 587.57 1327.89 558.58 1223.30 662.36 1162.87 783.33 1333.83 762.37
00005968 DELETE   1063.00 305.02 434.95 616.12 1152.63 583.56 1347.29 558.51 1242.09 658.86 1185.91 777.98 1349.76 760.03
00005969 00000038 1078.86 304.11 439.75 627.01 1173.58 577.61 1373.54 550.14 1261.06 658.76 1215.47 785.87 1370.38 764.94
00005970 00000039 1100.27 302.98 434.14 633.90 1192.82 575.60 1386.46 549.39 1277.61 655.88 1233.36 786.78 1385.77 766.77
00005971 DELETE   1120.09 302.05 431.60 648.33 1208.53 583.07 1398.34 558.60 1296.17 656.65 1249.50 792.67 1397.46 774.29
00005972 00000041 1133.70 307.69 432.19 653.91 1219.94 592.19 1413.74 568.78 1310.16 656.20 1263.08 801.14 1411.62 783.49
00005973 00000042 1138.14 307.46 436.00 665.29 1226.75 597.58 1421.74 572.28 1317.15 660.17 1273.08 811.09 1420.75 791.62
00005974 00000043 1140.98 308.26 434.49 669.71 1227.92 603.38 1424.02 575.03 1319.99 664.95 1275.42 814.88 1426.98 792.98
00005975 00000044 1138.98 308.27 434.57 672.70 1226.17 606.93 1421.20 575.10 1318.89 665.24 1273.72 815.48 1427.92 791.09
00005976 00000045 1136.74 309.19 431.46 668.81 1221.36 607.16 1417.39 574.09 1313.58 667.27 1264.66 809.76 1428.43 784.65
00005977 00000046 1134.26 305.98 427.73 661.61 1214.24 606.85 1414.53 570.86 1308.87 671.05 1255.79 805.10 1431.27 777.99
00005978 00000047 1127.57 309.43 430.22 649.58 1206.64 604.35 1410.42 566.39 1301.38 674.11 1248.19 803.04 1429.25 774.28
00005979 00000048 1121.48 314.98 428.27 637.26 1201.63 601.86 1404.93 563.53 1297.11 672.99 1241.83 798.91 1426.67 769.68
00005980 00000049 1116.24 314.72 429.95 633.16 1198.62 601.88 1400.89 562.04 1293.50 673.81 1239.08 795.96 1424.54 765.41
00005981 00000050 1111.05 314.31 431.99 627.97 1196.70 602.66 1399.27 562.16 1294.09 673.95 1234.81 794.35 1425.60 763.42
00005982 00000051 1108.55 313.61 433.13 626.61 1195.66 603.69 1397.22 561.59 1294.47 673.82 1232.90 792.61 1426.45 760.41
00005983 00000052 1107.02 313.21 432.30 627.29 1194.33 604.35 1394.79 561.70 1294.64 675.66 1230.85 792.02 1425.94 759.40
00005984 00000053 1105.48 310.53 431.69 630.72 1193.03 604.45 1393.66 561.34 1295.71 677.29 1229.82 792.16 1425.59 759.37
00005985 00000054 1103.32 312.58 432.99 632.28 1192.78 605.06 1393.84 560.45 1296.59 674.83 1231.13 795.12 1426.45 760.94
00005986 00000055 1101.50 313.64 435.46 643.52 1192.55 606.15 1394.90 560.81 1298.64 673.32 1239.21 808.07 1424.02 772.82
00005987 00000056 1100.10 317.47 437.75 664.72 1193.41 601.34 1390.82 556.19 1298.48 669.54 1248.15 815.86 1418.94 780.03
00005988 00000057 1101.01 318.17 437.79 668.10 1196.10 600.90 1392.49 555.69 1301.86 669.14 1251.53 817.95 1420.66 781.94
00005989 00000058 1104.26 316.90 436.25 665.90 1198.30 600.39 1395.16 556.30 1304.10 668.94 1251.85 815.14 1422.33 780.08
00005990 00000059 1106.58 316.43 438.42 664.66 1200.77 599.53 1399.14 556.08 1305.53 668.92 1252.59 814.14 1424.30 779.51
00005991 00000060 1109.27 315.98 437.93 665.55 1203.93 598.95 1402.69 556.72 1308.95 669.88 1253.79 812.87 1425.86 779.30
00005992 00000061 1111.58 313.11 439.52 667.85 1206.98 598.22 1405.42 558.46 1310.06 668.38 1255.66 810.18 1426.22 778.74
00005993 00000062 1112.92 313.25 439.98 663.89 1209.26 597.15 1408.10 560.06 1311.74 668.10 1255.96 808.33 1426.55 779.01
00005994 00000063 1115.01 314.19 439.51 659.05 1211.93 596.74 1410.91 561.32 1314.79 669.22 1256.64 807.04 1429.03 779.12
00005995 00000064 1120.29 312.46 437.25 651.23 1214.26 596.75 1416.17 564.07 1317.06 671.35 1254.62 802.06 1432.77 776.61
00005996 00000065 1124.86 312.56 432.30 643.53 1217.15 597.05 1420.06 568.72 1319.38 672.46 1249.41 795.90 1436.27 774.54
00005997 00000066 1127.48 311.04 431.64 644.81 1219.63 599.74 1423.14 573.79 1322.37 675.13 1250.39 794.87 1437.05 775.61
00005998 00000067 1130.82 312.70 430.60 647.50 1224.24 601.39 1425.89 575.30 1326.00 676.93 1254.05 797.71 1438.58 778.63
00005999 00000068 1132.49 313.30 429.77 648.72 1228.45 601.79 1429.58 576.75 1330.62 679.41 1257.21 798.82 1441.04 780.71
00006000 00000069 1132.38 315.16 431.39 648.29 1228.51 600.04 1430.54 574.88 1332.04 678.06 1259.03 799.39 1441.89 780.91
00006001 00000070 1132.34 311.31 431.58 656.04 1228.29 595.55 1430.06 570.41 1332.24 673.13 1261.15 799.61 1440.43 780.80
00006002 00000071 1131.08 310.44 431.47 656.93 1227.71 590.47 1428.26 566.13 1332.26 671.54 1262.27 800.09 1436.46 781.44
00006003 00000072 1128.25 307.13 434.20 653.67 1227.15 586.98 1426.75 561.36 1332.28 668.06 1265.64 796.43 1434.77 776.26
00006004 00000073 1125.36 305.37 436.18 647.32 1226.97 583.34 1425.05 557.58 1331.35 667.15 1269.26 792.10 1430.92 771.34
00006005 00000074 1124.07 306.12 435.97 641.91 1226.68 582.76 1425.43 557.88 1331.59 667.26 1269.01 790.72 1429.97 770.53
00006006 00000075 1124.41 306.40 435.38 643.27 1226.24 583.76 1426.03 559.50 1331.56 667.42 1267.58 792.35 1430.23 772.68
00006007 00000076 1124.11 308.47 433.88 644.29 1226.55 586.11 1427.28 561.72 1334.20 670.48 1263.62 793.16 1434.86 773.80
00006008 00000077 1124.69 313.09 434.69 638.96 1224.70 588.94 1429.48 565.12 1333.27 673.44 1258.43 794.33 1439.59 775.84
00006009 00000078 1124.86 312.14 435.72 639.75 1224.47 592.41 1429.99 567.90 1332.40 673.73 1256.96 795.31 1441.38 776.65
00006010 00000079 1125.34 312.17 434.47 638.61 1224.68 592.77 1430.70 568.27 1331.90 674.86 1257.04 795.21 1442.15 776.56
00006011 00000080 1126.12 311.64 434.72 637.35 1225.14 592.03 1430.90 567.35 1331.66 673.26 1257.42 794.30 1442.93 775.57
00006012 00000081 1126.79 311.24 434.16 633.38 1225.24 590.20 1431.77 565.59 1333.69 673.53 1256.98 793.86 1445.36 775.24
00006013 00000082 1127.15 309.16 434.58 632.62 1224.29 588.02 1431.07 562.35 1332.27 671.21 1257.40 792.04 1444.91 772.65
00006014 00000083 1126.36 309.69 434.83 631.16 1223.76 587.15 1428.96 560.99 1330.60 671.75 1257.68 791.84 1442.90 771.92
00006015 00000084 1125.35 311.66 434.35 630.60 1222.20 586.42 1426.40 559.96 1327.92 671.26 1255.85 791.36 1441.18 771.17
00006016 00000085 1123.36 311.40 435.05 633.05 1220.29 586.96 1424.68 559.75 1326.39 671.29 1254.56 791.06 1439.43 770.22
00006017 00000086 1121.63 311.74 435.16 634.78 1218.82 588.38 1423.17 560.37 1325.01 671.77 1253.85 791.79 1437.92 770.24
00006018 00000087 1120.38 311.66 435.95 635.24 1218.59 591.53 1421.53 562.36 1324.43 670.68 1252.74 791.64 1437.98 769.21
00006019 00000088 1119.70 311.85 434.63 635.83 1217.76 593.53 1420.58 566.01 1324.38 671.57 1250.36 790.97 1436.08 769.83
00006020 00000089 1116.22 310.47 436.38 638.15 1216.03 596.31 1419.19 567.07 1323.33 672.96 1249.21 792.81 1435.64 770.33
00006021 00000090 1113.89 311.13 435.30 638.11 1213.94 596.84 1417.43 567.08 1320.92 675.49 1248.45 794.20 1433.33 771.06
00006022 00000091 1111.86 310.41 434.37 639.14 1211.58 597.33 1414.98 566.88 1318.15 676.70 1245.76 794.79 1430.95 771.15
00006023 00000092 1108.99 310.30 435.09 641.41 1209.58 597.57 1413.34 566.65 1315.92 677.22 1244.23 796.79 1428.40 772.84
00006024 00000093 1107.77 312.56 434.35 643.51 1206.98 600.27 1411.02 567.35 1313.19 678.18 1242.49 798.91 1427.35 773.40
00006025 00000094 1108.41 313.27 433.44 646.70 1205.96 600.58 1409.34 567.06 1311.53 678.26 1242.03 800.09 1426.27 774.10
00006026 00000095 1108.60 312.77 433.80 651.94 1205.31 601.19 1409.84 567.10 1310.97 678.50 1241.03 802.19 1427.34 775.80
00006027 00000096 1109.69 312.40 435.26 655.61 1207.60 600.53 1411.26 566.01 1313.53 676.64 1243.54 802.11 1429.73 775.38
00006028 00000097 1114.94 313.11 433.38 657.21 1212.49 596.93 1414.93 565.54 1318.88 677.25 1245.67 799.74 1433.77 775.59
00006029 00000098 1121.97 313.56 432.49 658.45 1219.20 594.51 1420.25 565.35 1324.60 677.35 1249.57 796.22 1440.87 774.07
00006030 00000099 1127.79 315.21 431.04 659.39 1229.81 594.34 1429.60 567.36 1338.82 678.92 1259.32 794.91 1448.12 774.18
00006031 00000100 1136.32 319.19 426.44 655.31 1242.73 594.87 1442.15 569.46 1352.97 678.53 1270.22 793.89 1458.56 774.54
00006032 00000101 1141.88 322.77 428.00 652.53 1254.50 593.89 1453.18 571.20 1367.08 681.83 1281.63 794.26 1470.00 776.62
00006033 00000102 1148.82 322.68 429.02 656.56 1259.86 597.36 1462.26 572.46 1376.37 686.74 1287.39 798.73 1478.50 778.92
00006034 00000103 1152.86 319.95 430.27 662.62 1264.82 598.21 1467.67 572.18 1382.60 686.07 1292.20 799.49 1483.85 778.98
00006035 00000104 1153.98 319.32 430.96 664.73 1266.40 599.67 1468.78 572.48 1383.96 687.44 1294.24 801.04 1485.41 779.72
00006036 00000105 1153.65 319.02 430.36 666.43 1265.59 601.26 1467.84 573.75 1383.11 689.48 1292.76 801.18 1485.42 779.58
00006037 00000106 1154.24 319.49 428.09 666.41 1262.92 602.13 1465.17 574.71 1378.58 693.52 1289.58 800.80 1483.47 779.06
00006038 00000107 1152.60 321.30 425.93 665.25 1258.01 603.17 1460.85 575.14 1372.18 697.05 1284.93 801.79 1480.65 779.39
00006039 00000108 1149.27 323.42 423.96 662.42 1252.58 604.25 1456.30 575.67 1367.38 698.67 1279.73 802.83 1478.33 779.86
00006040 00000109 1145.62 324.60 425.16 659.86 1250.14 603.53 1451.67 576.13 1363.80 699.07 1277.39 800.20 1475.83 778.51
00006041 00000110 1142.72 320.92 423.51 663.44 1246.81 608.01 1449.11 581.08 1362.46 704.35 1271.88 799.29 1474.09 778.12
00006042 00000111 1141.44 321.05 423.74 658.20 1246.30 609.61 1449.85 583.04 1363.98 708.42 1270.69 798.93 1474.70 777.87
CROP_BBOX: 673 0 2007 1336
