Video ID: 	5idqs1WbbJk
H: 	1080
W: 	1920
FPS: 	29.97002997002997

FRAME INDEX X0 Y0 W H [Landmarks (5 Points)]

00033158 00000000 665.98 111.56 408.12 611.36 827.70 369.59 996.48 354.63 956.24 456.97 875.12 581.26 1008.91 568.84
00033159 00000001 669.58 111.04 410.79 612.40 829.06 370.17 999.41 355.00 957.59 458.70 876.13 582.41 1012.28 569.67
00033160 00000002 675.26 121.80 412.79 603.55 830.62 367.84 1003.18 349.44 962.95 456.95 883.54 582.87 1018.30 565.99
00033161 00000003 675.35 115.37 414.79 603.57 832.29 374.44 1007.17 355.03 963.67 463.82 880.88 582.72 1022.77 566.29
00033162 00000004 680.17 123.51 413.04 607.42 834.08 375.03 1009.03 352.09 971.20 461.73 890.80 590.39 1029.98 569.45
00033163 00000005 681.68 128.60 413.31 610.72 838.24 382.51 1010.28 356.70 973.95 467.99 897.34 597.10 1034.80 573.82
00033164 00000006 679.62 133.92 416.99 619.24 842.64 390.69 1011.10 363.55 978.82 480.62 898.42 605.58 1035.78 581.21
00033165 DELETE   685.23 145.03 412.62 617.74 846.73 409.06 1012.45 381.56 983.81 498.94 902.39 618.81 1042.25 594.23
00033166 DELETE   684.02 148.48 417.00 621.06 850.02 420.58 1016.96 392.43 984.86 510.91 908.48 632.21 1045.16 607.09
00033167 DELETE   685.09 153.95 414.40 620.48 846.69 440.28 1016.64 398.89 985.29 530.82 908.28 647.45 1048.52 611.42
00033168 00000010 684.69 162.20 410.78 617.97 850.40 456.73 1017.99 411.20 989.98 547.11 910.15 659.25 1046.47 619.71
00033169 DELETE   691.67 172.75 411.00 613.18 856.35 456.66 1024.61 413.47 997.83 544.21 920.79 664.38 1052.92 625.90
00033170 00000012 698.50 174.40 408.66 615.75 865.15 460.20 1030.53 413.07 1009.19 545.71 929.94 668.53 1059.85 626.85
00033171 00000013 702.72 171.67 409.93 625.45 877.10 464.94 1035.57 420.02 1019.51 549.69 935.69 669.78 1063.46 630.82
00033172 00000014 705.45 172.66 407.34 626.19 883.14 470.64 1038.60 423.68 1026.45 553.79 940.58 674.26 1065.62 634.35
00033173 00000015 706.67 173.75 408.70 627.63 881.46 468.80 1041.72 419.73 1027.49 555.01 937.30 674.88 1068.98 633.37
00033174 00000016 707.12 174.78 410.16 622.28 874.89 465.73 1039.88 417.86 1021.68 552.28 936.68 674.07 1069.50 632.93
00033175 00000017 705.60 174.52 412.63 620.88 870.63 461.97 1038.72 413.10 1017.79 548.50 935.54 672.52 1069.37 630.23
00033176 00000018 705.08 174.75 414.11 620.55 869.09 462.33 1038.51 412.49 1016.54 548.07 934.85 672.28 1069.80 629.00
00033177 00000019 707.32 176.99 412.75 622.09 869.15 465.71 1038.78 415.75 1016.62 552.19 936.09 676.22 1071.48 632.76
00033178 00000020 706.79 177.73 413.97 629.26 867.51 470.26 1037.19 418.92 1014.34 557.54 936.97 681.40 1073.66 636.40
00033179 00000021 705.76 181.75 415.14 629.39 863.47 474.50 1033.44 422.16 1008.91 562.05 934.08 685.88 1070.74 640.35
00033180 00000022 706.29 184.80 415.96 625.91 859.32 478.29 1033.10 423.70 1004.05 566.44 931.27 687.79 1071.67 640.44
00033181 00000023 705.03 182.53 416.94 626.84 855.39 479.28 1029.34 425.04 997.56 566.46 928.10 686.14 1068.96 638.85
00033182 00000024 704.46 183.78 416.52 624.54 853.86 476.72 1027.31 423.38 994.93 564.37 926.86 684.12 1066.72 637.28
00033183 00000025 702.91 183.19 417.26 621.89 853.73 473.38 1026.54 422.30 993.01 562.22 924.42 680.43 1063.69 635.26
00033184 00000026 701.86 182.59 418.05 624.44 854.94 470.62 1026.27 422.08 992.89 561.79 922.09 678.86 1061.13 635.84
00033185 00000027 702.38 181.63 418.69 624.83 854.40 470.95 1028.53 422.60 993.17 562.63 920.74 678.55 1061.94 635.94
00033186 00000028 703.54 179.14 417.30 623.55 854.18 471.58 1031.89 426.30 993.86 568.25 919.33 679.97 1061.51 639.77
00033187 00000029 704.78 183.08 414.79 615.51 853.79 469.98 1033.59 425.24 994.24 567.96 918.93 679.55 1061.15 639.70
00033188 00000030 705.69 178.46 413.81 621.20 852.65 465.20 1034.50 420.36 992.24 562.56 917.10 677.41 1059.33 637.58
00033189 00000031 701.34 182.29 420.26 625.11 850.14 456.26 1028.10 409.69 987.88 550.22 915.22 671.47 1056.35 630.30
00033190 00000032 702.75 169.33 416.60 646.45 848.68 450.34 1027.09 406.12 982.79 557.72 912.74 675.73 1056.07 636.78
00033191 00000033 701.20 166.49 419.53 643.95 847.63 450.21 1025.79 405.14 982.01 557.18 913.80 674.06 1054.78 634.51
00033192 00000034 703.19 167.23 418.12 622.15 849.45 451.33 1029.16 407.45 981.97 560.13 918.69 671.04 1052.21 633.11
00033193 00000035 706.77 173.74 416.46 621.73 855.35 456.06 1034.66 413.79 987.19 566.11 920.71 675.66 1054.94 638.96
00033194 00000036 711.55 183.20 417.66 621.90 860.45 462.45 1040.44 420.04 994.27 569.21 924.97 681.46 1061.59 644.57
00033195 00000037 718.36 177.69 419.70 633.98 861.92 465.07 1046.20 429.41 998.52 566.97 930.54 670.10 1078.79 640.73
00033196 00000038 722.01 180.28 416.09 614.41 867.46 468.46 1052.13 431.06 1003.67 568.53 936.93 668.51 1079.93 637.89
00033197 DELETE   730.29 179.21 415.79 601.08 873.53 469.87 1056.03 426.58 1011.20 567.17 950.16 667.35 1091.15 631.41
00033198 00000040 736.23 180.15 420.55 610.98 884.08 461.42 1057.12 432.84 1009.19 565.79 951.43 673.01 1075.40 650.74
00033199 DELETE   747.95 184.58 415.82 588.43 897.74 462.16 1075.04 421.35 1031.93 563.63 973.03 665.86 1104.02 630.99
00033200 00000042 754.47 177.22 419.55 625.84 906.06 456.68 1082.97 416.54 1039.83 565.28 967.57 669.25 1107.85 635.01
00033201 00000043 764.98 182.39 419.59 626.28 910.12 454.71 1089.53 413.98 1045.98 564.12 975.07 673.48 1119.25 636.10
00033202 00000044 770.16 178.31 419.36 636.12 914.06 454.86 1094.04 417.16 1047.60 564.01 975.59 675.40 1121.02 640.79
00033203 00000045 769.50 178.47 422.55 636.40 914.33 455.33 1095.38 416.66 1048.44 563.20 974.12 674.16 1121.42 639.02
00033204 00000046 767.82 176.08 419.61 619.38 915.95 453.43 1097.54 417.51 1046.07 569.76 978.97 672.86 1115.89 641.20
00033205 00000047 767.33 176.43 419.62 613.84 915.22 454.82 1096.74 417.50 1045.67 569.43 976.48 671.00 1114.64 638.53
00033206 00000048 767.66 174.23 419.47 616.69 915.55 453.49 1097.27 414.83 1046.11 569.10 980.15 671.84 1117.31 638.04
00033207 00000049 771.35 174.49 417.40 619.39 918.16 453.26 1098.29 414.56 1046.98 567.62 980.72 670.88 1118.98 637.05
00033208 00000050 773.35 174.65 419.12 624.38 920.76 453.02 1100.73 413.41 1050.51 567.35 983.07 671.57 1122.40 636.78
00033209 00000051 777.09 181.51 422.04 620.91 922.45 451.43 1105.58 410.18 1057.98 557.08 982.34 666.40 1128.94 629.67
00033210 00000052 779.72 176.40 421.89 622.55 926.82 449.85 1110.09 410.25 1063.77 557.44 984.21 664.78 1131.29 629.62
00033211 00000053 783.27 171.20 418.29 627.25 930.39 445.24 1113.15 407.43 1067.35 554.81 984.47 661.21 1132.45 627.84
00033212 00000054 781.58 167.54 420.21 629.26 932.47 440.63 1112.79 404.05 1068.82 548.84 984.00 656.74 1131.47 623.96
00033213 00000055 778.00 158.33 419.44 640.69 931.67 438.29 1107.89 405.59 1061.13 550.88 983.70 659.07 1125.09 629.26
00033214 00000056 772.29 158.98 420.91 634.18 923.50 439.46 1099.64 407.15 1049.82 548.89 975.90 655.65 1117.02 626.33
00033215 00000057 766.50 155.12 416.75 636.67 918.41 436.61 1090.83 407.26 1040.65 544.52 965.56 651.15 1106.68 624.49
00033216 00000058 761.98 150.32 418.90 635.98 913.42 426.12 1084.63 405.43 1030.28 537.00 952.80 642.39 1093.27 623.34
00033217 DELETE   759.23 135.47 420.73 648.49 914.47 415.78 1082.42 404.89 1026.08 530.41 944.78 634.49 1082.62 623.59
00033218 DELETE   761.82 131.00 418.38 644.21 915.45 403.60 1084.76 402.47 1023.78 522.08 939.10 624.39 1077.31 621.63
00033219 00000061 764.69 130.68 419.35 639.31 918.02 394.29 1089.09 400.62 1022.59 512.42 933.95 613.95 1076.46 617.20
00033220 00000062 767.16 124.11 422.21 643.47 925.96 386.52 1094.75 397.76 1028.27 505.88 935.00 605.92 1077.56 613.08
00033221 00000063 772.42 128.00 419.03 636.37 934.09 378.89 1100.22 393.42 1034.08 499.02 938.94 598.82 1078.74 608.46
00033222 00000064 772.65 128.88 420.97 636.27 935.66 376.63 1101.96 392.32 1036.03 497.01 939.14 596.58 1079.68 607.13
00033223 00000065 773.09 129.63 420.77 636.33 935.69 377.95 1101.64 394.77 1034.25 499.08 936.90 597.51 1077.96 609.08
00033224 00000066 772.55 130.34 422.30 636.50 934.01 380.66 1101.42 397.95 1033.20 506.70 935.02 599.96 1078.73 612.01
00033225 00000067 772.21 132.45 423.63 627.71 933.39 382.53 1104.17 401.19 1033.62 507.85 935.96 600.74 1079.94 614.13
00033226 00000068 771.45 134.96 425.38 621.03 934.06 383.48 1107.92 403.32 1036.84 513.03 936.59 601.70 1082.01 616.40
00033227 00000069 774.28 138.01 424.62 615.28 941.21 385.30 1112.25 405.35 1044.18 513.26 943.18 601.50 1083.73 616.63
00033228 00000070 776.34 141.87 423.10 609.56 946.42 386.05 1117.04 405.82 1052.81 510.68 950.08 600.58 1088.11 615.77
00033229 00000071 778.37 143.06 424.16 611.71 951.46 383.30 1122.08 403.68 1059.87 506.34 954.84 598.71 1093.11 614.42
00033230 00000072 776.70 140.92 426.85 629.30 958.72 377.74 1123.13 401.24 1060.98 502.47 952.64 596.04 1091.99 613.65
00033231 00000073 779.54 138.19 425.72 635.05 959.53 376.50 1124.81 402.74 1058.49 503.14 948.07 594.31 1091.91 614.40
00033232 00000074 782.27 133.50 424.28 643.10 961.55 378.32 1127.89 404.57 1062.04 506.10 950.03 597.89 1095.15 618.04
00033233 00000075 788.59 131.94 426.15 645.84 969.08 377.12 1131.97 408.03 1067.65 511.82 951.28 594.86 1095.72 620.43
00033234 00000076 792.43 139.16 426.88 632.09 979.06 374.11 1142.34 406.52 1078.89 511.92 958.62 591.99 1103.54 618.83
00033235 00000077 794.45 140.64 424.81 626.64 984.02 375.81 1142.57 406.03 1084.03 510.34 966.82 589.75 1107.78 614.69
00033236 00000078 794.42 138.29 424.17 628.00 979.90 375.45 1140.81 402.81 1082.28 508.32 966.20 589.76 1108.61 612.23
00033237 00000079 793.78 137.96 417.74 621.57 974.59 380.62 1142.84 400.69 1084.89 504.57 972.27 598.16 1111.90 614.08
00033238 00000080 792.78 127.41 421.95 623.44 966.50 375.52 1141.82 399.70 1077.00 501.50 961.84 584.72 1102.44 606.81
00033239 00000081 792.57 130.25 418.90 605.89 964.59 373.34 1141.14 397.48 1074.41 499.66 959.25 583.13 1094.95 605.51
00033240 00000082 791.81 130.53 416.71 598.64 963.67 370.82 1140.60 394.55 1075.01 497.43 958.42 582.49 1092.39 604.60
00033241 00000083 789.55 138.41 412.21 586.26 957.16 370.41 1136.60 393.48 1075.38 496.15 964.12 592.01 1099.86 610.27
00033242 00000084 784.90 138.61 415.80 618.32 963.03 372.82 1128.13 391.33 1074.45 494.36 968.37 598.06 1097.45 612.22
00033243 00000085 778.75 138.47 417.47 630.08 959.86 371.87 1120.02 392.43 1066.26 492.92 960.65 598.81 1090.73 613.82
00033244 00000086 772.28 141.84 421.90 624.56 955.33 376.66 1117.72 394.98 1064.90 496.56 958.76 600.18 1089.46 613.53
00033245 00000087 774.67 144.01 419.69 612.25 953.92 382.24 1123.01 398.38 1070.46 503.94 965.96 606.53 1096.35 618.29
00033246 00000088 779.95 144.39 415.33 610.76 959.52 383.59 1128.30 397.85 1078.33 505.53 972.88 608.27 1104.97 618.58
00033247 00000089 781.18 149.95 413.36 610.66 967.61 385.37 1134.19 397.85 1088.29 507.42 984.40 611.92 1114.02 620.19
00033248 00000090 784.48 149.57 412.48 616.79 973.83 387.31 1141.43 396.15 1098.21 513.12 991.63 620.49 1120.66 625.97
00033249 00000091 782.23 152.58 412.36 621.38 973.84 389.72 1141.55 397.27 1100.67 518.62 993.24 626.82 1123.18 630.91
00033250 00000092 779.20 161.86 408.62 617.29 966.51 395.98 1132.94 400.55 1093.11 525.76 990.35 632.18 1118.44 633.55
00033251 00000093 770.00 163.88 416.93 627.93 961.98 403.10 1128.29 403.64 1095.49 533.59 987.07 640.48 1111.09 640.47
00033252 00000094 765.49 174.90 414.76 624.06 956.45 410.05 1124.70 411.87 1088.81 543.50 978.41 648.81 1103.69 650.02
00033253 00000095 757.57 180.86 418.07 622.95 950.53 416.32 1118.39 417.22 1081.92 550.24 971.02 653.96 1096.94 654.14
00033254 00000096 755.35 184.38 417.49 622.85 945.76 420.78 1115.64 420.35 1078.33 555.60 965.45 657.18 1094.54 655.93
00033255 00000097 753.15 188.47 415.44 621.65 942.33 425.40 1110.26 422.91 1073.51 561.54 961.51 661.45 1088.85 658.74
00033256 00000098 748.04 190.61 414.19 618.61 934.80 426.65 1103.61 423.99 1064.42 562.83 954.30 661.72 1082.10 658.93
00033257 00000099 743.52 192.49 413.33 622.77 927.39 427.96 1094.75 427.12 1054.19 565.71 944.95 661.99 1075.05 660.53
00033258 00000100 736.80 194.57 415.72 623.53 920.57 430.82 1090.08 431.14 1046.81 569.53 937.10 662.72 1071.48 662.11
00033259 00000101 734.13 195.09 413.45 622.74 916.39 432.43 1086.58 434.39 1042.98 570.37 932.92 663.15 1068.73 663.83
00033260 00000102 729.32 198.05 414.13 621.63 913.38 434.15 1082.35 437.42 1039.22 572.34 928.66 662.92 1066.09 664.58
00033261 00000103 723.32 198.81 417.15 622.66 910.66 437.43 1079.70 439.06 1037.76 575.92 926.27 664.84 1065.80 664.95
00033262 00000104 721.16 205.50 417.40 619.69 909.80 439.37 1078.11 440.00 1036.81 579.52 925.96 667.25 1066.61 666.48
00033263 00000105 720.05 203.55 417.04 624.02 908.63 442.21 1077.63 441.12 1037.16 583.67 924.02 670.42 1067.32 668.20
00033264 00000106 719.74 204.55 413.69 625.56 907.97 452.02 1080.04 438.96 1050.06 584.27 924.41 680.01 1069.95 669.04
00033265 00000107 715.35 203.62 417.41 632.04 905.48 457.17 1078.97 442.62 1049.22 589.52 923.21 686.57 1069.67 674.17
00033266 00000108 714.50 201.25 416.71 636.50 904.71 461.86 1076.93 445.00 1049.23 591.03 925.05 690.49 1069.97 676.17
00033267 00000109 714.55 200.85 415.93 641.23 904.78 465.42 1074.80 446.49 1049.82 591.17 924.31 692.59 1070.77 676.78
00033268 00000110 713.08 194.26 413.61 646.62 909.20 466.85 1073.65 448.07 1051.93 589.51 926.98 692.39 1068.55 676.76
00033269 00000111 711.71 192.18 414.05 646.73 908.56 464.84 1071.19 444.91 1051.78 585.90 925.97 688.78 1066.90 672.42
00033270 00000112 709.72 188.54 414.63 649.28 905.97 464.29 1066.15 442.30 1049.50 582.84 925.28 686.53 1066.81 668.40
00033271 00000113 707.10 193.68 417.27 645.59 900.98 463.95 1064.96 438.42 1048.30 582.55 920.93 684.45 1068.52 663.53
00033272 00000114 705.29 188.55 417.81 650.12 897.11 464.83 1061.27 439.74 1042.73 583.55 918.09 684.37 1066.15 663.65
00033273 00000115 703.36 192.52 418.49 645.73 892.73 465.22 1057.74 438.00 1038.96 583.76 914.46 682.92 1064.79 660.30
00033274 00000116 702.25 190.61 419.59 647.00 891.62 462.72 1055.44 435.63 1037.16 580.66 909.93 676.51 1063.33 654.15
00033275 00000117 700.93 189.90 420.89 642.93 889.32 456.40 1054.55 430.02 1036.08 575.35 905.81 670.23 1060.10 648.94
00033276 00000118 698.43 187.41 423.24 644.11 884.71 447.82 1052.74 422.42 1030.10 567.94 899.43 664.89 1054.89 644.32
00033277 00000119 696.26 178.24 422.98 649.41 878.54 439.56 1048.59 417.89 1022.21 558.40 895.35 658.40 1051.42 640.55
00033278 00000120 695.38 177.40 421.45 645.83 873.22 432.21 1046.57 412.57 1016.27 553.57 894.48 653.76 1050.15 636.98
00033279 00000121 695.18 169.57 421.78 644.95 869.47 425.71 1045.01 406.87 1010.29 547.56 893.42 644.69 1052.32 628.16
00033280 00000122 693.66 163.62 423.12 641.59 866.81 420.41 1040.55 403.55 1003.36 540.37 889.63 634.17 1045.89 619.29
00033281 00000123 695.71 147.90 414.86 651.07 863.74 418.88 1036.42 400.79 992.66 538.63 888.86 636.00 1043.43 619.10
00033282 00000124 695.54 144.51 414.23 650.55 863.09 414.65 1035.31 399.21 991.65 532.41 890.04 631.95 1043.28 616.86
00033283 00000125 694.66 140.92 414.05 654.58 862.63 413.30 1034.12 398.32 991.43 530.81 889.38 630.68 1043.08 615.82
00033284 00000126 691.19 139.79 416.92 657.67 861.84 410.98 1032.94 396.83 990.80 528.14 887.88 630.17 1041.52 615.87
00033285 00000127 691.01 135.38 417.05 663.81 862.49 408.23 1031.34 395.66 991.26 522.16 886.10 627.40 1039.92 614.47
00033286 00000128 689.81 132.34 417.11 667.60 860.72 402.99 1027.69 394.50 986.40 512.99 883.74 620.50 1039.02 610.49
00033287 00000129 687.78 129.00 417.44 669.00 862.55 399.20 1026.47 393.10 985.10 510.08 882.46 617.62 1034.72 609.47
00033288 00000130 685.54 130.33 417.58 666.44 861.39 397.92 1025.47 391.45 986.99 505.26 882.71 615.76 1033.88 607.50
00033289 00000131 686.12 133.17 417.33 657.49 861.34 395.57 1026.47 389.93 987.35 503.83 883.49 613.19 1033.88 605.67
00033290 00000132 688.57 136.71 417.39 645.64 860.13 396.05 1027.10 388.78 987.27 502.08 889.52 613.60 1035.70 605.04
00033291 00000133 691.25 132.76 416.90 641.77 860.30 394.93 1029.33 386.88 988.05 500.31 894.77 613.67 1036.56 604.55
00033292 00000134 692.70 131.35 417.01 639.23 860.23 392.95 1032.07 384.50 989.58 498.36 899.26 614.96 1037.45 605.36
00033293 00000135 693.56 130.72 417.72 636.84 860.92 393.12 1033.30 383.75 990.91 498.50 902.27 615.24 1039.25 604.81
00033294 00000136 695.62 131.47 415.85 635.01 861.09 395.08 1035.29 384.77 992.01 502.21 903.45 618.05 1041.35 606.84
00033295 00000137 695.37 127.29 416.46 644.92 863.36 398.39 1034.42 388.06 992.98 507.70 905.04 623.10 1041.03 611.70
00033296 00000138 695.78 131.97 416.76 645.35 865.13 399.79 1034.63 388.95 993.90 510.90 907.56 627.79 1041.66 616.04
00033297 00000139 696.27 132.63 417.84 652.17 865.95 400.16 1035.80 389.28 994.64 511.48 904.78 628.16 1044.12 616.41
00033298 00000140 697.37 132.26 419.29 648.55 865.75 399.94 1035.63 389.05 993.45 509.86 904.06 624.11 1044.93 612.18
00033299 00000141 700.23 130.15 418.84 643.23 864.46 397.05 1037.47 386.80 994.95 503.40 903.27 618.21 1046.78 607.06
00033300 00000142 701.31 128.80 421.61 635.12 864.22 393.33 1038.66 379.48 995.88 495.47 904.35 610.32 1048.40 596.45
00033301 00000143 706.74 128.40 417.62 625.15 870.48 384.51 1044.23 373.44 1001.43 488.00 906.54 601.56 1049.38 590.56
00033302 00000144 710.39 126.02 414.39 623.45 873.58 379.71 1047.18 368.78 1005.17 484.37 905.49 596.76 1050.88 586.32
00033303 00000145 711.20 121.76 413.99 627.95 874.59 377.09 1049.56 367.60 1006.34 484.41 904.95 595.68 1051.74 586.41
00033304 00000146 711.46 122.21 414.67 632.04 877.66 376.01 1050.78 368.33 1007.97 484.53 904.75 595.63 1051.45 587.88
00033305 00000147 711.39 123.18 415.81 634.99 877.48 376.47 1050.98 368.71 1008.10 483.94 905.92 597.27 1053.35 589.42
00033306 00000148 712.73 122.83 415.10 633.64 878.31 377.29 1052.12 368.62 1009.54 482.88 908.47 597.99 1055.44 589.41
00033307 00000149 714.11 125.25 415.44 627.60 881.10 375.95 1055.86 366.54 1014.03 478.43 914.70 597.77 1059.00 588.42
00033308 00000150 718.53 124.12 412.21 620.23 883.28 374.54 1060.17 364.26 1016.57 473.40 919.98 596.85 1062.23 586.84
00033309 00000151 722.67 126.76 410.24 610.12 888.18 375.77 1063.94 361.77 1022.21 472.15 927.43 596.53 1066.51 583.66
00033310 00000152 723.59 123.74 414.71 614.85 895.70 376.21 1068.82 360.68 1031.49 470.35 937.01 598.73 1071.49 584.52
00033311 00000153 730.40 127.48 410.87 616.37 901.12 372.37 1065.64 366.10 1027.87 476.08 944.06 593.43 1071.19 587.40
00033312 00000154 735.38 128.41 412.74 618.59 905.18 381.38 1069.70 371.29 1031.79 482.21 948.57 598.54 1076.22 589.38
00033313 00000155 738.82 138.52 414.81 611.18 905.55 387.69 1075.05 374.04 1035.67 489.02 952.55 604.95 1085.39 592.70
00033314 00000156 743.19 136.81 412.24 613.05 908.02 389.87 1080.56 375.27 1041.63 494.31 956.05 609.17 1090.68 595.77
00033315 00000157 745.43 134.87 412.40 613.69 910.54 390.10 1083.22 374.09 1044.49 494.46 961.53 609.66 1094.89 594.79
00033316 00000158 746.50 132.85 413.06 621.05 913.62 389.67 1081.91 373.58 1046.07 491.39 963.80 609.60 1095.24 594.40
00033317 00000159 745.61 135.03 414.35 625.07 913.55 388.82 1077.55 373.09 1043.43 489.18 963.88 611.53 1091.83 596.85
00033318 00000160 745.25 136.00 416.29 634.63 911.45 392.96 1074.41 376.40 1041.05 492.53 961.41 615.70 1091.55 600.28
00033319 00000161 744.64 131.09 418.80 646.04 912.26 397.53 1075.81 380.41 1043.36 496.48 960.47 618.65 1096.01 602.43
00033320 00000162 746.79 134.11 417.89 644.70 915.09 401.49 1077.86 384.16 1045.93 500.67 960.24 620.18 1098.78 603.77
00033321 00000163 750.96 133.91 413.67 642.70 919.95 404.79 1081.17 388.11 1049.14 504.63 963.10 620.80 1099.91 604.90
00033322 00000164 754.51 137.87 412.52 635.16 922.38 404.38 1088.44 387.43 1052.73 507.80 967.66 621.33 1106.63 604.95
00033323 00000165 758.30 134.62 411.89 635.28 925.09 404.61 1093.44 389.85 1056.40 507.59 968.94 619.81 1108.30 605.26
00033324 00000166 762.54 137.18 409.67 630.75 929.11 403.12 1096.82 390.00 1060.65 506.08 971.77 618.96 1110.48 605.70
