Video ID: 	d3QojRrYvi4
H: 	2160
W: 	3840
FPS: 	25.0

FRAME INDEX X0 Y0 W H [Landmarks (5 Points)]

00018011 00000000 1796.63 498.45 405.95 586.47 1925.62 735.08 2099.68 723.33 2035.74 839.64 1942.98 919.76 2094.58 911.10
00018012 00000001 1796.41 497.94 406.86 584.60 1926.02 735.35 2100.08 723.86 2035.72 840.29 1944.34 919.40 2094.46 910.82
00018013 00000002 1796.26 496.89 407.07 585.83 1926.62 734.20 2099.67 723.07 2036.24 838.23 1946.00 920.17 2094.01 911.75
00018014 00000003 1797.03 496.37 404.87 583.99 1928.36 734.17 2100.38 722.12 2037.64 837.43 1945.11 915.66 2095.06 906.72
00018015 00000004 1797.40 496.29 405.89 584.77 1926.89 732.14 2100.34 721.38 2035.12 835.40 1942.60 914.44 2096.47 906.43
00018016 00000005 1795.58 497.03 408.74 581.60 1924.96 731.01 2100.28 719.88 2034.18 836.28 1941.31 914.11 2096.50 905.78
00018017 00000006 1794.79 497.02 406.80 582.29 1923.08 731.29 2097.10 721.00 2031.17 836.40 1938.99 913.88 2092.59 906.30
00018018 00000007 1791.43 494.63 407.56 590.70 1917.59 731.02 2095.01 722.75 2025.14 839.84 1931.96 915.96 2087.00 910.37
00018019 00000008 1785.14 492.44 412.43 591.90 1911.44 730.64 2090.58 719.97 2023.63 843.84 1923.38 919.99 2087.17 911.61
00018020 00000009 1780.82 491.45 415.45 595.76 1902.92 730.08 2084.22 723.69 2012.19 847.11 1914.20 921.14 2081.25 915.68
00018021 00000010 1779.06 497.41 409.85 587.48 1896.96 730.52 2079.57 724.78 1998.77 849.73 1910.86 925.90 2068.34 920.40
00018022 DELETE   1769.37 499.40 422.71 563.98 1887.34 732.72 2074.41 724.42 1989.55 849.65 1920.14 932.34 2062.55 924.40
00018023 00000012 1762.38 506.57 425.73 557.49 1882.82 737.01 2064.03 725.15 1984.21 847.14 1922.73 929.50 2054.26 918.92
00018024 00000013 1766.52 505.24 420.88 565.68 1867.60 732.06 2053.21 729.04 1970.94 862.11 1902.10 947.47 2038.22 941.32
00018025 DELETE   1764.26 486.23 414.88 578.99 1859.02 714.01 2043.90 728.82 1939.16 847.54 1873.45 926.22 2012.86 935.14
00018026 DELETE   1767.07 483.88 404.78 589.65 1862.57 717.00 2030.38 730.03 1925.88 829.39 1868.59 915.11 2002.69 923.67
00018027 DELETE   1763.00 505.02 401.72 579.94 1856.07 709.42 2025.93 722.81 1921.26 815.30 1852.34 901.95 1994.18 912.13
00018028 00000017 1740.43 508.99 407.34 578.34 1843.78 725.92 1995.37 731.03 1896.05 827.50 1837.92 912.27 1979.53 916.18
00018029 00000018 1726.61 508.75 411.32 582.05 1821.98 740.55 1976.53 742.13 1882.59 837.50 1822.75 921.13 1965.63 923.30
00018030 00000019 1713.18 505.90 415.18 581.93 1811.44 737.83 1956.07 741.54 1861.67 846.61 1810.07 919.35 1949.43 922.88
00018031 DELETE   1701.68 497.14 426.16 591.54 1789.83 749.97 1941.40 746.69 1847.13 856.34 1796.71 932.75 1936.82 932.44
00018032 00000021 1686.14 498.66 434.21 604.94 1753.24 748.29 1932.26 739.53 1818.69 850.83 1779.28 940.03 1927.16 931.97
00018033 00000022 1676.17 510.56 429.17 597.00 1758.58 759.70 1919.47 751.84 1813.46 865.11 1773.84 942.24 1921.09 934.89
00018034 00000023 1674.03 526.30 413.05 583.27 1751.33 759.39 1914.80 754.19 1804.37 853.92 1759.08 937.74 1917.78 932.79
00018035 00000024 1679.04 528.22 399.05 575.28 1759.77 753.67 1912.63 752.19 1803.18 853.87 1761.86 930.06 1914.35 927.71
00018036 00000025 1672.04 527.89 399.87 586.16 1753.47 758.64 1907.60 759.30 1798.63 862.32 1753.17 932.98 1910.02 931.92
00018037 00000026 1661.93 515.40 396.89 598.49 1751.42 758.93 1896.12 756.42 1796.44 857.86 1752.65 934.44 1896.27 931.20
00018038 00000027 1657.67 514.05 399.30 599.67 1741.30 758.33 1883.92 752.98 1782.09 854.95 1744.86 932.36 1889.47 927.11
00018039 00000028 1656.27 514.86 399.81 598.40 1737.26 747.37 1881.23 745.21 1776.71 847.55 1736.29 926.97 1885.77 924.52
00018040 00000029 1655.19 517.27 397.92 598.46 1728.17 749.05 1870.02 748.88 1765.63 856.27 1728.52 928.95 1879.13 927.66
00018041 00000030 1649.69 522.94 405.00 591.96 1725.10 751.45 1872.72 751.81 1765.63 856.03 1726.06 932.78 1875.89 931.87
00018042 00000031 1649.17 524.14 404.24 589.44 1724.64 754.66 1873.16 755.99 1764.35 858.92 1725.65 936.70 1873.48 936.64
00018043 00000032 1647.67 525.08 406.02 591.43 1722.32 754.85 1872.20 756.16 1764.28 862.29 1724.87 937.58 1874.63 937.32
00018044 00000033 1652.54 522.29 401.43 594.97 1727.12 752.17 1873.96 754.79 1768.01 861.04 1728.09 932.44 1877.45 933.42
00018045 00000034 1652.43 519.83 402.23 597.58 1730.96 750.68 1877.65 752.08 1773.08 857.80 1731.91 932.82 1880.61 933.01
00018046 00000035 1653.70 522.28 401.78 594.66 1733.32 757.23 1878.84 758.00 1774.86 863.91 1733.89 937.88 1881.03 937.34
00018047 00000036 1654.49 520.64 402.83 595.19 1737.49 759.25 1881.90 760.94 1778.41 865.14 1735.86 940.02 1881.68 940.21
00018048 00000037 1654.88 516.49 400.69 596.12 1736.78 754.90 1882.52 758.00 1779.25 862.97 1735.33 937.90 1880.25 939.36
00018049 00000038 1653.73 517.57 401.40 596.90 1733.16 754.56 1881.42 758.86 1775.63 864.34 1733.08 938.94 1879.05 941.39
00018050 00000039 1654.97 517.58 400.04 601.49 1734.20 753.09 1882.59 757.50 1776.69 863.27 1732.40 938.27 1880.60 940.99
00018051 00000040 1655.19 516.41 399.80 604.17 1735.17 752.45 1881.19 757.92 1775.05 864.84 1732.03 937.52 1879.66 940.91
00018052 00000041 1654.77 517.75 400.44 602.58 1734.23 753.00 1880.77 757.83 1774.45 864.86 1732.38 938.10 1879.26 940.91
00018053 00000042 1654.77 517.95 401.20 600.71 1734.57 753.81 1881.12 757.64 1775.37 865.39 1734.56 938.84 1880.35 940.67
00018054 00000043 1654.96 516.89 401.00 603.34 1735.73 754.29 1882.41 757.65 1777.42 865.27 1735.56 939.30 1881.95 940.76
00018055 00000044 1656.27 518.39 399.50 598.53 1734.93 755.56 1878.97 759.08 1774.38 867.21 1735.93 938.92 1879.15 940.25
00018056 00000045 1658.54 521.23 396.41 592.34 1737.23 757.32 1875.43 759.90 1772.69 866.47 1738.03 936.50 1877.32 937.09
00018057 00000046 1658.90 521.65 395.90 589.72 1738.01 756.56 1874.57 759.28 1772.27 864.59 1738.03 934.42 1875.51 935.14
00018058 00000047 1657.41 522.16 397.19 588.41 1736.02 757.73 1873.04 759.72 1770.67 864.59 1737.08 933.89 1874.75 933.91
00018059 00000048 1656.36 521.78 398.04 592.64 1733.52 759.18 1870.81 759.69 1769.17 866.51 1738.39 936.00 1875.78 934.67
00018060 00000049 1655.71 523.93 398.18 591.74 1732.87 761.05 1869.03 761.33 1767.43 869.48 1738.77 937.33 1874.96 935.58
00018061 00000050 1655.77 522.38 398.07 592.12 1731.63 761.62 1867.24 761.50 1766.19 869.98 1738.13 938.70 1873.11 936.56
00018062 00000051 1657.02 521.79 396.54 593.36 1731.89 761.46 1865.89 761.65 1765.72 870.98 1739.54 938.99 1871.81 937.12
00018063 00000052 1657.93 521.86 395.13 592.27 1732.51 760.39 1865.43 760.70 1765.28 869.89 1740.19 937.25 1872.65 935.44
00018064 00000053 1657.46 523.99 396.12 589.96 1731.33 759.70 1865.97 760.23 1764.92 869.33 1739.00 937.48 1872.74 935.92
00018065 00000054 1655.39 524.33 400.01 590.02 1729.90 762.18 1867.00 762.20 1765.10 871.35 1737.25 939.37 1872.84 937.22
00018066 00000055 1654.93 520.52 399.78 593.06 1729.28 760.45 1867.22 759.94 1765.39 869.02 1737.95 938.06 1872.98 935.46
00018067 00000056 1653.85 519.98 401.10 595.33 1729.56 761.62 1868.06 760.71 1766.01 869.54 1738.17 939.39 1873.99 936.39
00018068 00000057 1654.71 519.98 400.52 593.84 1730.80 761.94 1866.97 760.93 1765.55 869.73 1740.18 938.50 1873.11 935.35
00018069 00000058 1655.30 519.30 399.50 593.59 1731.08 760.75 1866.85 759.97 1765.13 869.12 1741.26 937.40 1873.44 934.42
00018070 00000059 1654.91 516.32 400.26 595.59 1729.82 759.38 1865.89 758.71 1764.46 868.06 1742.32 937.05 1873.49 934.04
00018071 00000060 1655.92 516.81 399.43 593.35 1731.96 758.01 1866.41 758.12 1764.72 867.03 1743.35 936.39 1872.83 934.10
00018072 00000061 1656.14 518.74 399.31 589.75 1730.58 758.78 1865.77 757.84 1764.24 866.51 1744.00 936.21 1873.28 933.01
00018073 00000062 1656.11 518.23 397.96 590.40 1730.54 757.64 1865.04 756.59 1763.62 866.06 1743.74 934.65 1873.16 931.37
00018074 00000063 1657.14 518.44 396.72 589.59 1731.76 756.49 1866.28 755.65 1764.96 864.50 1744.86 933.44 1874.21 930.37
00018075 00000064 1657.01 517.35 396.75 590.75 1731.13 756.41 1866.93 755.61 1765.73 864.62 1744.70 934.34 1874.96 931.24
00018076 00000065 1656.98 517.58 396.89 591.77 1730.47 756.92 1866.21 756.13 1764.94 865.42 1745.00 934.97 1874.36 931.92
00018077 00000066 1656.84 518.23 396.05 590.34 1729.72 758.84 1864.40 757.69 1762.83 867.31 1744.05 936.31 1873.30 932.86
00018078 00000067 1655.93 521.16 396.51 588.05 1729.73 758.90 1865.53 758.22 1764.08 866.28 1742.59 935.71 1873.21 932.73
00018079 00000068 1656.65 519.74 395.66 588.78 1730.41 757.75 1865.09 757.08 1763.52 865.57 1743.32 935.74 1872.12 932.80
00018080 00000069 1658.01 519.22 394.34 590.86 1732.57 756.33 1866.21 756.33 1764.94 865.81 1744.92 934.01 1873.96 931.73
00018081 00000070 1658.22 517.54 393.37 592.43 1729.95 755.40 1863.54 755.36 1762.12 866.33 1743.78 932.35 1873.71 929.85
00018082 00000071 1658.51 517.38 392.21 592.05 1732.25 752.69 1865.30 753.81 1764.24 864.80 1741.20 931.56 1872.59 930.42
00018083 00000072 1660.61 518.04 390.60 598.28 1733.15 753.65 1868.35 753.19 1766.81 864.85 1740.84 934.93 1875.19 933.01
00018084 00000073 1657.29 517.02 390.95 601.38 1724.67 752.55 1873.20 749.09 1768.46 862.58 1740.18 936.07 1883.14 931.30
00018085 00000074 1660.12 520.08 393.50 602.07 1734.47 754.62 1873.41 752.04 1772.27 864.60 1745.91 940.16 1882.64 936.60
00018086 00000075 1659.37 512.82 397.62 603.10 1735.59 756.94 1875.02 758.04 1772.68 867.73 1744.45 938.92 1879.24 937.73
00018087 00000076 1653.72 520.90 404.78 581.39 1728.52 762.82 1875.38 759.99 1770.74 865.88 1742.66 934.80 1881.79 930.40
00018088 00000077 1652.86 516.26 404.73 583.73 1728.16 767.66 1874.00 761.76 1771.53 867.97 1744.35 939.03 1876.18 933.10
00018089 00000078 1653.44 516.90 405.94 592.00 1729.36 769.10 1869.56 765.00 1767.44 876.04 1743.93 939.29 1875.50 933.60
00018090 00000079 1652.30 520.48 407.51 582.68 1729.57 771.65 1871.46 766.40 1770.13 874.83 1745.50 939.43 1878.00 932.91
00018091 00000080 1654.18 522.81 407.90 579.82 1734.09 771.88 1873.59 767.80 1773.89 875.59 1748.48 937.35 1881.49 931.57
00018092 00000081 1654.32 522.04 407.63 584.91 1733.95 770.11 1873.92 767.47 1773.04 875.24 1747.17 936.19 1880.73 931.49
00018093 00000082 1654.02 521.14 407.32 587.72 1735.42 766.73 1873.32 767.44 1771.47 875.26 1746.00 931.89 1881.13 929.34
00018094 00000083 1654.86 519.99 407.37 587.06 1736.20 766.13 1874.53 766.43 1772.70 874.06 1746.21 932.43 1880.31 930.01
00018095 00000084 1655.23 521.06 405.21 586.24 1735.53 767.31 1873.31 766.86 1771.71 874.80 1745.19 932.92 1879.15 929.84
00018096 00000085 1654.36 521.09 406.59 587.97 1734.67 765.93 1874.60 765.48 1770.86 874.72 1741.67 934.08 1878.25 931.32
00018097 00000086 1656.29 519.26 406.04 586.20 1736.12 763.59 1877.02 761.61 1774.12 869.97 1744.62 932.77 1881.72 928.97
00018098 00000087 1656.73 524.46 402.31 582.79 1732.33 763.31 1871.85 759.00 1769.14 869.72 1745.84 930.87 1884.52 924.80
00018099 00000088 1661.40 517.14 400.50 587.77 1731.74 764.92 1865.58 759.44 1765.41 869.02 1748.79 933.33 1880.34 927.04
00018100 00000089 1653.77 516.61 407.51 582.70 1727.15 766.63 1874.22 759.60 1772.20 867.43 1749.66 934.91 1887.90 926.94
00018101 00000090 1662.09 517.15 398.37 594.39 1735.71 757.54 1879.75 755.46 1778.42 861.82 1752.40 932.46 1887.34 929.22
00018102 00000091 1661.29 517.74 396.80 607.38 1739.13 755.49 1883.89 754.69 1781.83 868.27 1748.66 936.98 1893.40 934.11
00018103 00000092 1660.67 517.10 397.80 613.38 1740.49 768.67 1873.89 761.57 1776.21 876.80 1753.84 946.48 1888.91 938.91
00018104 00000093 1660.10 519.27 401.15 609.58 1741.92 765.86 1882.55 758.41 1784.98 867.67 1754.11 946.21 1895.81 938.16
00018105 00000094 1661.10 519.17 400.71 611.21 1743.69 764.44 1881.48 755.11 1785.64 864.84 1755.99 942.71 1897.49 933.63
00018106 00000095 1659.99 518.43 404.03 611.01 1744.28 765.39 1884.26 758.10 1789.47 867.50 1755.81 945.22 1897.63 937.85
00018107 00000096 1657.64 518.12 403.45 610.79 1737.39 766.07 1886.79 759.66 1787.88 874.16 1751.80 942.54 1899.13 935.41
00018108 00000097 1658.86 519.48 399.66 609.07 1734.20 769.46 1881.22 763.11 1780.98 879.51 1747.73 941.20 1896.75 933.45
00018109 00000098 1661.12 518.94 400.36 608.28 1739.05 765.03 1884.34 761.67 1783.05 874.45 1748.64 932.99 1898.86 927.88
00018110 00000099 1661.45 522.24 399.45 592.41 1736.97 770.36 1878.87 764.25 1776.40 876.37 1747.29 935.56 1893.95 927.84
00018111 00000100 1660.80 523.21 400.63 592.91 1739.73 771.28 1880.51 767.33 1778.19 879.74 1746.94 935.26 1892.77 929.29
00018112 00000101 1659.53 523.47 400.15 593.40 1739.20 769.35 1880.62 765.01 1778.87 876.72 1746.26 934.13 1892.35 927.99
00018113 00000102 1660.85 522.33 403.33 594.42 1746.94 768.24 1876.34 767.25 1779.93 871.88 1750.71 933.42 1884.17 931.27
00018114 00000103 1662.12 520.02 398.68 592.56 1740.77 767.52 1879.25 766.28 1777.30 877.21 1747.74 932.21 1889.21 928.46
00018115 00000104 1660.34 521.17 401.51 593.35 1741.25 767.91 1881.23 767.68 1779.35 878.90 1746.35 932.50 1889.41 929.71
00018116 00000105 1660.74 523.02 404.77 589.61 1746.11 775.31 1873.73 774.23 1777.54 879.22 1750.31 938.66 1880.24 936.37
00018117 00000106 1657.20 521.13 405.27 590.72 1735.42 773.51 1879.43 766.47 1777.51 876.80 1745.88 939.19 1888.82 931.22
00018118 00000107 1658.53 520.65 403.20 592.97 1735.31 768.78 1879.58 761.63 1777.43 872.66 1747.09 936.18 1891.22 928.22
00018119 00000108 1660.03 520.51 401.43 592.54 1736.61 771.76 1878.34 763.91 1775.82 875.82 1747.05 937.76 1890.04 929.20
00018120 00000109 1661.74 520.87 401.98 594.11 1740.91 773.03 1883.12 767.00 1778.99 877.55 1748.01 937.47 1892.85 930.28
00018121 00000110 1661.30 521.03 402.31 594.93 1741.26 771.81 1883.28 766.38 1779.42 877.24 1748.65 936.70 1893.46 930.06
00018122 00000111 1661.22 523.44 400.71 592.81 1740.25 773.67 1880.81 767.98 1777.64 879.74 1747.88 936.97 1891.79 930.06
00018123 00000112 1660.96 524.44 401.77 591.33 1739.74 773.52 1880.59 766.97 1777.66 879.91 1748.41 936.02 1894.16 928.08
00018124 00000113 1661.74 523.35 403.09 590.72 1743.73 772.42 1885.56 770.79 1779.71 880.62 1747.18 933.76 1894.62 929.67
00018125 00000114 1660.32 519.77 405.80 594.58 1740.45 762.73 1885.33 761.73 1777.65 872.30 1745.58 933.07 1894.23 929.86
00018126 00000115 1660.82 519.77 407.55 593.74 1740.13 763.09 1885.16 761.78 1777.43 872.62 1746.82 934.69 1894.95 931.21
00018127 00000116 1661.28 521.77 405.32 592.61 1740.44 764.22 1884.64 764.69 1776.84 876.19 1745.34 934.97 1893.45 933.00
00018128 00000117 1660.64 525.49 407.03 585.92 1739.62 767.24 1882.83 766.92 1774.10 877.43 1745.28 937.87 1890.97 935.48
00018129 00000118 1660.52 524.78 405.52 585.30 1739.04 767.07 1878.70 767.27 1771.19 878.47 1747.28 937.66 1889.19 935.36
00018130 00000119 1659.37 521.09 409.67 593.48 1738.93 768.72 1881.21 765.36 1773.60 879.25 1750.08 940.16 1894.18 934.88
00018131 00000120 1659.94 521.74 406.97 596.40 1736.18 769.37 1881.23 765.59 1774.56 880.06 1748.39 938.08 1897.54 932.26
00018132 00000121 1663.35 525.46 405.78 600.09 1744.59 774.57 1868.23 770.93 1771.45 886.25 1754.21 936.48 1890.74 932.06
00018133 00000122 1660.88 522.27 408.94 594.95 1742.33 772.32 1869.25 767.94 1772.40 882.14 1755.04 936.06 1889.32 931.14
00018134 00000123 1663.06 519.29 403.82 597.85 1741.98 768.34 1870.79 766.55 1771.51 881.60 1752.07 930.38 1890.08 927.35
00018135 00000124 1660.81 522.79 403.97 588.93 1731.99 771.92 1876.17 764.19 1770.93 881.40 1751.07 937.42 1896.37 928.32
00018136 00000125 1665.03 523.68 399.83 596.19 1739.50 769.10 1871.30 763.39 1772.48 881.37 1754.24 934.80 1894.45 928.61
00018137 00000126 1661.61 522.79 399.58 597.70 1735.97 767.83 1869.50 759.30 1768.49 879.73 1753.06 933.73 1896.70 925.04
00018138 00000127 1659.10 519.76 398.76 599.31 1731.02 767.25 1865.06 760.51 1763.40 883.56 1750.00 933.50 1890.47 926.04
00018139 00000128 1647.15 518.90 404.72 603.87 1722.70 771.78 1857.46 763.66 1757.37 891.65 1745.85 933.84 1890.98 924.07
00018140 00000129 1646.53 524.05 403.05 591.46 1716.07 777.20 1851.75 762.82 1756.00 894.29 1746.31 933.82 1892.33 918.35
00018141 00000130 1650.34 523.18 398.94 591.08 1724.84 778.62 1856.40 767.63 1763.71 896.10 1749.34 933.64 1889.94 921.36
00018142 00000131 1648.87 525.56 401.64 588.93 1721.24 780.08 1859.18 762.06 1767.54 900.08 1751.33 933.05 1903.35 913.19
00018143 00000132 1654.60 520.21 396.89 594.19 1728.95 779.25 1860.59 759.68 1772.09 896.36 1758.14 933.37 1906.93 912.74
00018144 00000133 1651.73 511.47 401.30 609.10 1726.84 770.13 1863.77 749.43 1775.66 889.21 1761.45 936.11 1907.35 915.26
00018145 00000134 1651.15 514.21 407.11 604.95 1729.12 766.67 1873.35 744.74 1784.33 890.37 1767.50 934.60 1918.73 912.08
00018146 00000135 1655.69 507.53 410.66 604.41 1733.25 759.22 1878.40 739.34 1786.30 880.33 1767.83 928.28 1920.00 907.65
00018147 00000136 1657.32 507.57 414.18 593.89 1736.48 747.19 1883.61 733.71 1783.46 873.38 1760.57 910.55 1924.65 893.32
00018148 00000137 1653.34 505.18 423.14 599.84 1729.19 749.26 1882.58 727.90 1782.49 868.25 1760.23 918.91 1922.38 896.52
00018149 00000138 1665.87 509.08 419.00 593.31 1737.57 746.81 1893.17 718.20 1795.72 844.11 1772.99 926.82 1934.74 901.21
00018150 00000139 1675.32 502.88 419.19 591.82 1749.06 734.67 1904.72 713.07 1795.03 837.21 1783.02 919.99 1933.75 899.81
00018151 00000140 1679.85 505.89 416.46 590.31 1766.91 733.61 1912.04 714.56 1816.05 833.54 1783.90 909.07 1945.68 890.89
00018152 DELETE   1681.65 502.57 424.56 579.84 1772.55 727.13 1920.28 713.86 1822.81 823.33 1782.10 897.75 1947.48 885.01
00018153 DELETE   1688.79 495.99 422.09 577.41 1776.24 708.72 1932.83 699.67 1827.38 796.74 1786.53 886.90 1950.26 878.51
00018154 00000143 1695.88 493.09 420.21 571.48 1783.33 698.50 1937.91 696.69 1831.31 794.72 1790.31 879.15 1946.59 876.34
00018155 DELETE   1698.52 480.52 428.91 590.15 1767.64 687.43 1946.73 681.94 1828.89 799.55 1798.21 901.35 1945.36 895.94
00018156 DELETE   1731.15 472.67 398.21 576.40 1780.73 703.74 1958.55 689.36 1848.57 812.54 1810.88 912.74 1943.29 901.52
00018157 00000146 1731.25 472.96 412.29 534.77 1796.09 700.84 1974.07 685.36 1871.51 786.98 1829.58 871.32 1984.71 857.60
00018158 00000147 1740.62 463.82 410.82 568.53 1807.79 693.96 1982.22 685.36 1863.07 786.47 1829.33 879.74 1988.34 872.69
00018159 00000148 1750.14 461.79 409.90 593.16 1820.52 682.13 1990.29 679.86 1869.63 784.10 1836.61 873.03 1999.15 870.28
00018160 00000149 1752.79 456.74 417.77 605.07 1828.96 677.37 2000.04 677.13 1878.88 779.24 1843.22 873.28 2004.65 872.15
00018161 00000150 1757.00 452.50 419.43 612.75 1834.69 677.96 2009.65 677.85 1889.04 776.82 1851.55 874.30 2009.41 873.11
00018162 00000151 1762.67 451.54 419.48 609.17 1842.33 676.11 2018.73 679.81 1898.33 773.94 1854.99 872.09 2011.76 874.06
00018163 00000152 1771.75 449.46 412.78 603.39 1853.85 675.28 2022.95 677.46 1903.60 772.17 1854.97 868.71 2016.55 873.85
00018164 00000153 1770.62 448.85 415.78 588.56 1849.80 672.50 2027.64 681.71 1907.56 772.66 1854.98 860.08 2015.24 866.77
00018165 00000154 1777.06 450.48 410.74 593.56 1858.81 674.26 2028.57 678.74 1908.30 769.47 1856.10 863.93 2018.85 871.19
00018166 00000155 1780.28 447.76 409.24 601.32 1861.23 672.49 2032.01 678.77 1910.22 770.19 1857.82 861.39 2023.22 869.81
00018167 00000156 1784.12 450.66 407.45 599.00 1864.49 672.49 2035.45 677.54 1914.02 768.37 1860.41 860.31 2027.03 868.04
00018168 00000157 1789.72 451.58 402.08 599.16 1869.97 672.99 2041.84 677.49 1924.00 769.44 1866.34 860.38 2032.08 868.24
00018169 00000158 1793.08 457.55 405.57 598.61 1879.68 675.60 2056.76 682.54 1943.93 771.13 1875.48 865.84 2038.23 875.85
00018170 DELETE   1797.73 468.04 405.08 597.36 1894.09 678.98 2069.92 688.45 1963.46 777.28 1890.90 869.29 2050.22 880.41
00018171 DELETE   1805.58 472.12 401.00 600.85 1907.58 683.70 2085.80 694.74 1985.48 788.19 1901.99 876.88 2067.95 888.11
00018172 DELETE   1806.37 471.56 405.75 608.02 1918.25 686.01 2102.41 702.40 2005.63 793.74 1909.43 881.28 2080.09 896.77
00018173 00000162 1807.92 483.12 409.22 589.47 1932.87 693.61 2113.52 707.84 2021.72 798.42 1929.60 889.48 2081.71 901.91
