Video ID: 	C0iYswxC-fs
H: 	1080
W: 	1920
FPS: 	25.0

FRAME INDEX X0 Y0 W H [Landmarks (5 Points)]

00002093 00000000 659.78 167.93 407.31 544.41 800.80 397.29 995.92 390.27 938.17 469.21 839.13 588.32 998.49 581.22
00002094 00000001 656.52 166.74 406.88 551.33 795.36 395.58 991.66 388.30 930.75 472.79 835.14 593.17 993.37 586.03
00002095 00000002 653.46 168.17 406.73 554.17 786.13 396.87 984.63 389.38 918.91 475.44 826.49 596.57 987.11 589.25
00002096 00000003 646.50 169.85 411.53 561.57 777.04 399.10 977.52 390.65 907.33 476.99 818.29 601.28 981.58 593.12
00002097 00000004 641.14 170.28 414.63 563.65 770.10 401.35 973.35 392.39 899.41 479.18 812.11 602.78 979.60 593.58
00002098 00000005 636.09 171.82 418.22 566.83 765.15 402.67 968.82 391.96 895.44 480.99 809.41 605.68 977.37 594.70
00002099 00000006 632.21 171.71 419.44 571.52 764.54 403.19 965.10 392.25 894.16 482.24 810.21 607.46 973.26 596.42
00002100 00000007 633.69 170.46 418.28 572.13 764.47 402.81 967.43 392.67 895.31 481.29 810.17 607.37 975.74 596.89
00002101 00000008 638.30 171.51 417.50 566.98 771.92 406.18 973.63 399.35 900.14 479.67 812.53 602.20 981.64 594.74
00002102 00000009 642.52 174.12 413.92 564.24 784.15 408.87 978.97 401.64 913.83 479.58 820.93 601.36 983.18 594.46
00002103 00000010 649.94 174.24 411.87 560.39 799.24 398.31 993.54 395.83 937.41 479.92 834.34 596.38 994.42 593.92
00002104 00000011 657.58 170.67 409.81 558.04 815.45 392.77 1007.57 394.50 959.17 477.81 842.79 588.93 1004.08 590.64
00002105 DELETE   664.04 173.07 415.68 560.46 824.83 387.79 1020.19 396.39 961.79 477.36 847.97 587.87 1010.07 595.03
00002106 00000013 670.27 168.98 414.07 570.53 838.65 384.07 1026.80 397.54 976.49 477.82 858.37 589.03 1014.12 600.10
00002107 00000014 680.99 166.57 407.59 568.05 853.38 382.84 1035.96 401.89 991.11 479.58 871.29 584.99 1018.64 600.23
00002108 00000015 685.86 164.81 410.62 569.29 865.43 382.44 1047.70 406.10 1005.22 476.85 882.38 581.66 1027.76 600.07
00002109 00000016 697.74 162.80 403.96 574.70 878.90 381.43 1056.69 407.90 1019.86 474.54 891.73 582.86 1033.82 604.54
00002110 00000017 701.53 165.94 405.82 576.79 887.15 380.45 1060.75 406.87 1029.76 475.20 894.17 582.14 1037.29 604.51
00002111 00000018 709.49 169.07 404.40 572.04 895.67 380.31 1068.93 406.77 1038.97 476.18 899.37 581.70 1045.01 604.96
00002112 00000019 713.16 168.55 405.66 569.05 900.88 377.81 1077.53 406.34 1047.46 475.11 901.60 579.24 1052.62 604.58
00002113 00000020 716.21 168.06 405.32 565.37 904.77 376.46 1081.57 406.03 1050.78 475.78 902.00 576.65 1054.72 603.23
00002114 00000021 718.06 169.26 405.24 561.85 906.93 376.08 1083.31 406.02 1051.75 476.72 901.97 575.07 1055.70 602.08
00002115 00000022 718.56 169.55 405.53 563.62 907.67 376.26 1083.59 406.73 1052.71 476.73 901.25 574.79 1056.29 602.38
00002116 00000023 719.07 169.93 405.94 565.55 906.77 376.60 1082.85 406.18 1052.62 477.26 901.39 575.81 1057.43 602.75
00002117 00000024 718.13 170.37 406.75 567.53 905.45 376.32 1082.06 406.31 1052.38 477.05 900.25 576.70 1057.51 604.00
00002118 00000025 718.24 169.80 406.93 571.08 905.04 377.10 1081.88 406.62 1052.21 477.68 902.17 580.11 1057.54 606.84
00002119 00000026 719.06 168.11 406.79 566.10 907.06 378.35 1087.14 406.21 1053.96 478.66 908.95 581.46 1060.46 606.37
00002120 00000027 720.30 167.16 407.29 566.01 908.32 378.66 1087.92 406.54 1054.20 477.63 911.42 579.72 1063.13 604.58
00002121 00000028 722.85 165.26 405.54 571.86 909.29 378.69 1088.79 407.34 1055.40 476.61 913.33 581.71 1063.96 607.21
00002122 00000029 723.66 166.21 404.58 570.37 910.51 379.51 1088.53 407.11 1056.22 476.33 916.13 582.32 1064.71 606.90
00002123 00000030 722.68 165.15 405.67 571.85 911.06 379.86 1088.80 407.30 1057.05 476.31 919.58 584.51 1065.13 608.57
00002124 00000031 722.66 164.93 404.74 572.15 910.00 379.91 1088.89 408.41 1056.78 475.50 920.42 586.43 1064.66 611.18
00002125 00000032 720.75 166.18 406.12 570.17 909.94 380.18 1085.71 409.66 1053.35 476.20 920.54 587.60 1059.45 612.85
00002126 00000033 718.30 167.41 406.32 566.56 906.18 380.21 1082.89 409.59 1048.78 477.98 916.13 587.58 1053.97 612.69
00002127 00000034 716.28 169.22 405.84 566.78 901.07 380.54 1078.63 410.10 1045.31 477.21 908.93 586.85 1050.63 612.51
00002128 00000035 716.96 169.95 403.77 570.96 899.49 380.92 1076.11 409.34 1043.51 479.24 905.22 588.23 1049.11 613.12
00002129 00000036 715.91 169.00 405.31 567.21 900.57 381.64 1079.99 409.11 1044.60 479.78 906.22 585.01 1053.49 609.08
00002130 00000037 715.73 168.46 405.05 569.48 900.20 382.09 1078.44 409.65 1043.81 479.04 907.88 586.45 1052.10 610.25
00002131 00000038 714.40 169.01 405.30 570.57 899.98 382.93 1076.61 409.16 1042.78 478.82 912.67 589.50 1052.30 611.72
00002132 00000039 713.86 169.58 404.70 572.52 901.15 383.31 1075.63 408.65 1042.20 480.61 912.94 590.74 1050.58 612.32
00002133 00000040 714.31 171.08 402.21 572.71 903.21 384.81 1073.80 410.75 1043.00 481.81 912.80 591.65 1047.67 613.98
00002134 00000041 713.89 173.80 399.71 566.40 899.72 386.98 1071.16 413.36 1039.50 483.53 908.29 592.70 1042.02 615.68
00002135 00000042 708.57 178.06 407.87 571.23 895.77 380.82 1064.46 411.54 1030.39 489.29 899.49 593.19 1038.90 619.81
00002136 00000043 709.23 180.86 405.34 570.53 893.11 380.10 1064.72 411.45 1029.17 490.88 896.11 595.84 1039.16 622.95
00002137 00000044 710.72 178.73 399.96 565.59 894.06 388.70 1067.64 415.67 1033.97 486.63 898.20 592.25 1038.20 616.04
00002138 00000045 710.07 178.23 400.41 569.49 892.83 388.49 1066.49 416.36 1031.59 486.82 897.67 593.39 1036.65 617.71
00002139 00000046 709.47 180.29 397.89 571.74 890.51 390.11 1061.68 417.45 1028.41 488.62 896.49 596.06 1033.12 619.92
00002140 00000047 705.70 179.83 400.50 571.41 888.24 390.13 1061.88 419.06 1026.79 490.91 893.26 594.65 1032.95 619.58
00002141 00000048 703.72 180.55 401.01 571.94 885.86 391.31 1060.44 420.17 1024.12 492.00 891.65 595.64 1032.08 620.40
00002142 00000049 702.73 182.37 400.56 572.56 883.29 393.00 1058.51 421.14 1020.86 494.98 890.04 598.83 1030.12 623.07
00002143 00000050 698.97 184.82 403.22 568.92 880.24 394.56 1055.35 422.02 1014.84 498.73 885.70 598.98 1025.88 622.81
00002144 00000051 696.07 185.25 404.25 566.90 876.89 394.64 1052.13 422.15 1011.60 499.96 881.62 598.50 1022.08 622.39
00002145 00000052 692.57 184.87 405.31 563.13 871.74 394.72 1049.60 421.77 1008.01 498.98 877.22 595.70 1020.89 619.04
00002146 00000053 692.19 182.80 405.48 567.84 870.36 394.68 1048.22 420.12 1006.74 497.46 876.70 595.11 1021.82 616.91
00002147 00000054 694.16 180.40 401.97 576.66 869.91 393.02 1045.70 418.24 1006.68 496.24 876.45 598.30 1020.99 619.87
00002148 00000055 693.84 178.42 401.00 577.56 870.26 392.31 1041.84 417.26 1004.51 494.04 878.86 599.31 1016.99 620.55
00002149 00000056 691.45 179.12 401.71 572.19 868.80 392.38 1040.95 416.73 1003.30 492.85 880.21 598.32 1016.35 619.06
00002150 00000057 690.37 178.07 401.97 572.14 867.49 391.16 1040.18 416.20 1003.82 491.56 879.12 596.83 1016.49 618.12
00002151 00000058 689.63 178.53 402.75 572.75 866.80 389.17 1040.37 415.75 1003.93 491.86 875.13 595.87 1015.92 618.47
00002152 00000059 689.41 178.29 403.68 573.30 865.89 388.22 1041.20 415.41 1002.77 491.35 872.57 594.08 1016.49 617.08
00002153 00000060 688.20 178.17 404.42 571.48 864.57 388.20 1042.40 415.18 1002.68 491.15 871.62 593.69 1017.15 616.57
00002154 00000061 684.52 180.11 408.75 568.77 864.27 395.37 1044.34 422.38 1001.25 492.96 869.46 594.13 1017.34 616.91
00002155 00000062 684.71 179.70 407.47 572.70 863.81 402.57 1043.49 427.49 998.25 496.02 867.43 597.53 1017.09 618.78
00002156 00000063 687.54 178.47 405.06 577.79 862.90 395.15 1041.39 421.80 999.49 494.60 866.30 597.07 1016.14 619.62
00002157 00000064 686.93 177.93 406.10 581.48 861.31 391.16 1042.17 418.41 998.76 495.04 863.60 597.18 1016.74 620.05
00002158 00000065 685.49 177.69 406.12 581.52 857.61 389.41 1039.78 415.08 995.60 496.22 861.14 596.81 1016.56 618.30
00002159 00000066 685.27 178.06 405.83 580.29 856.08 388.83 1039.17 414.75 993.37 496.44 860.08 595.82 1016.43 617.41
00002160 00000067 684.64 177.85 406.05 578.42 856.21 389.46 1037.89 415.11 992.98 495.58 861.97 596.04 1014.66 617.44
00002161 00000068 683.34 180.31 406.66 572.97 855.79 390.18 1037.38 415.47 992.09 495.85 863.25 595.71 1013.89 616.88
00002162 00000069 682.43 181.34 406.80 570.36 854.42 390.99 1038.67 415.49 991.68 496.45 861.80 595.85 1014.90 616.31
00002163 00000070 681.18 182.69 407.77 569.45 854.47 392.81 1038.92 415.79 992.60 498.35 862.06 597.16 1015.29 616.43
00002164 00000071 682.66 183.18 407.74 575.84 855.04 394.53 1037.15 417.52 992.15 500.90 860.57 600.02 1013.79 619.42
00002165 00000072 683.36 183.68 407.40 576.56 854.63 395.89 1037.41 417.96 992.28 503.38 861.10 602.65 1013.91 621.38
00002166 00000073 683.96 184.39 407.18 579.13 855.35 396.55 1037.38 418.51 992.63 504.53 861.16 604.39 1013.65 623.09
00002167 00000074 684.90 184.11 406.56 585.11 855.53 396.17 1038.52 418.42 994.18 504.91 860.57 606.83 1015.03 625.72
00002168 00000075 691.51 194.53 405.35 576.44 861.35 397.01 1041.36 417.86 995.04 510.81 866.74 610.37 1016.57 627.32
00002169 00000076 692.05 194.92 405.76 578.07 861.50 397.05 1041.82 417.00 995.85 510.79 867.15 611.04 1017.36 627.26
00002170 00000077 693.33 195.36 404.20 576.27 862.05 396.93 1041.89 416.30 995.73 510.87 868.40 610.75 1017.38 626.43
00002171 00000078 693.41 195.92 404.86 575.67 862.84 397.16 1042.18 416.66 996.32 510.44 869.38 610.56 1017.57 626.29
00002172 00000079 694.26 196.07 404.30 575.26 863.31 397.50 1042.09 416.59 996.15 510.36 870.10 610.42 1017.64 625.81
00002173 00000080 694.46 195.72 404.53 575.25 863.27 397.78 1042.19 416.95 996.13 510.54 870.02 610.29 1017.81 625.75
00002174 00000081 694.47 195.47 404.44 571.31 863.08 397.44 1042.25 416.90 995.45 510.99 870.41 608.78 1017.85 624.49
00002175 00000082 689.70 183.02 404.87 581.47 860.11 396.68 1040.47 417.99 995.78 503.48 866.73 605.16 1017.24 623.27
00002176 00000083 688.97 183.24 405.39 571.86 859.35 397.25 1041.99 418.09 995.92 502.98 869.21 602.92 1018.85 620.73
00002177 00000084 688.09 184.06 405.72 560.25 862.02 397.92 1044.74 419.52 998.13 501.17 874.40 598.73 1019.52 617.19
00002178 00000085 687.73 182.86 405.85 560.97 861.63 396.85 1044.78 418.85 997.85 499.99 875.10 598.43 1019.82 617.17
00002179 00000086 686.54 183.37 407.14 564.86 860.12 398.28 1043.69 419.99 996.00 501.15 872.07 601.69 1017.80 620.28
00002180 00000087 684.55 184.25 407.00 563.95 857.34 407.96 1043.69 428.32 991.30 502.72 866.85 604.36 1016.25 621.86
00002181 00000088 682.95 183.72 406.40 562.74 850.88 408.67 1041.22 429.28 982.75 501.79 861.96 604.24 1013.55 621.72
00002182 00000089 681.39 184.01 406.06 561.86 845.06 405.87 1038.00 426.99 976.51 501.29 857.50 605.24 1009.78 623.28
00002183 00000090 677.66 183.17 408.07 563.68 838.67 406.04 1032.88 426.74 969.60 501.64 852.96 606.13 1005.99 623.75
00002184 00000091 673.70 182.80 407.40 564.83 834.86 405.54 1026.16 424.81 964.74 503.18 850.60 607.52 999.97 624.32
00002185 00000092 671.21 183.49 405.46 568.37 830.83 405.48 1020.06 421.91 961.28 504.70 846.84 609.82 995.75 624.66
00002186 00000093 667.75 185.37 405.22 569.51 826.21 405.62 1013.01 419.52 954.53 506.21 842.66 611.00 989.39 623.97
00002187 00000094 662.68 188.33 406.17 569.17 820.89 406.94 1006.76 418.70 947.23 508.38 836.79 611.40 984.75 622.82
00002188 00000095 661.83 188.22 397.57 564.12 813.97 410.92 1004.31 422.31 949.63 508.37 835.14 613.69 990.20 623.63
00002189 00000096 659.39 188.86 397.22 564.63 808.93 412.86 1000.17 423.78 942.97 507.41 831.24 614.11 989.08 623.49
00002190 00000097 657.83 189.77 397.40 568.75 804.69 413.77 993.55 422.39 935.27 509.05 827.68 615.69 984.10 623.17
00002191 00000098 652.58 195.74 403.02 572.20 796.78 418.52 985.25 419.10 931.08 514.59 817.20 620.63 977.88 620.00
00002192 00000099 648.99 198.67 404.83 561.49 793.73 420.45 985.10 420.42 929.85 519.73 814.94 620.46 977.10 619.63
00002193 00000100 647.46 201.25 405.03 554.21 792.02 422.54 985.48 421.79 928.95 521.78 814.12 619.54 978.48 618.14
00002194 00000101 647.59 202.96 403.37 551.91 791.68 424.14 985.02 421.95 928.69 522.37 815.26 621.03 978.48 618.36
00002195 00000102 646.93 204.73 403.13 550.52 791.53 424.54 984.80 421.78 928.57 522.43 815.65 621.93 978.24 618.71
00002196 00000103 646.88 203.99 402.58 552.56 791.09 423.82 984.05 419.64 929.23 522.37 815.70 622.57 978.30 618.25
00002197 00000104 646.50 203.94 402.56 562.20 790.35 422.94 980.00 417.55 927.76 521.03 815.32 625.88 974.74 620.24
00002198 00000105 645.87 203.86 403.53 566.62 790.06 422.62 978.79 416.95 927.11 520.10 815.22 626.85 974.08 620.83
00002199 00000106 645.28 202.75 404.66 569.04 790.73 421.72 979.13 416.78 928.10 520.07 815.22 626.26 974.23 620.87
00002200 00000107 645.54 201.99 404.80 568.70 792.01 422.02 979.97 418.18 929.22 519.71 815.89 625.03 974.59 620.60
00002201 00000108 646.92 198.06 402.44 571.78 796.77 426.76 982.96 426.02 933.48 520.19 818.72 624.25 975.86 622.30
00002202 DELETE   649.66 193.89 398.50 566.15 804.36 422.66 993.66 429.76 938.29 514.52 826.30 620.04 982.61 625.97
00002203 00000110 656.05 192.70 396.45 561.64 811.16 411.13 1000.19 421.09 948.19 511.50 835.83 617.30 986.25 625.70
00002204 00000111 660.22 189.11 397.51 561.82 817.47 404.57 1007.52 411.47 961.68 508.98 841.99 614.36 993.35 620.56
00002205 00000112 665.54 192.50 404.15 563.59 827.59 404.13 1016.30 412.05 966.43 509.49 845.81 613.16 998.72 621.44
00002206 DELETE   675.03 186.68 406.25 567.85 838.97 399.69 1028.41 411.27 979.52 504.30 855.64 608.64 1010.45 619.08
00002207 00000114 687.19 183.68 400.80 575.44 853.24 399.02 1035.75 411.29 994.97 503.99 869.82 607.16 1021.06 617.83
00002208 00000115 699.43 183.71 394.53 568.09 869.75 399.05 1046.29 411.14 1012.41 496.79 891.22 603.95 1032.02 614.61
00002209 DELETE   712.90 183.92 393.91 562.97 890.39 392.97 1061.33 403.00 1036.84 487.94 911.90 599.04 1048.48 607.90
00002210 DELETE   722.58 179.12 399.45 566.66 908.88 388.78 1082.46 399.00 1057.55 488.67 926.13 599.10 1065.98 608.77
00002211 00000118 734.88 172.73 396.44 580.78 924.29 388.08 1090.77 397.61 1073.00 493.35 934.89 601.81 1071.86 612.17
00002212 00000119 743.91 174.97 394.65 571.59 928.14 389.33 1093.67 402.95 1073.25 494.72 947.81 597.58 1079.87 608.85
00002213 00000120 752.42 172.44 395.48 573.04 935.08 392.75 1103.97 403.90 1082.21 491.63 960.77 598.70 1093.40 607.67
00002214 00000121 763.24 173.46 391.03 570.47 944.33 393.71 1109.55 404.12 1089.98 491.48 968.89 599.50 1097.46 608.41
00002215 00000122 770.69 175.49 388.07 572.56 951.81 394.00 1116.55 403.87 1098.31 494.97 975.65 603.35 1101.74 611.93
00002216 00000123 773.19 184.41 393.95 568.51 955.16 391.47 1124.46 401.03 1102.48 503.22 976.69 608.60 1107.55 616.20
00002217 00000124 777.88 188.84 394.23 569.36 959.61 394.60 1126.29 404.37 1105.34 505.05 976.63 610.15 1108.87 618.17
00002218 00000125 779.82 191.61 396.08 567.55 961.60 396.42 1129.55 403.51 1108.71 507.92 978.03 612.67 1111.92 618.58
00002219 00000126 782.17 191.16 396.94 567.12 963.94 397.32 1134.05 404.46 1112.06 509.05 978.84 613.14 1115.45 619.28
00002220 00000127 785.37 188.70 398.31 567.90 966.87 397.63 1138.23 402.40 1115.43 508.30 982.97 612.84 1120.46 617.22
00002221 00000128 786.25 187.20 399.32 569.03 966.88 396.72 1139.02 400.77 1116.16 504.86 984.13 611.15 1123.05 614.81
00002222 00000129 787.11 187.14 398.06 569.09 965.56 395.21 1136.55 398.30 1115.19 501.41 983.93 609.50 1123.18 612.34
00002223 00000130 786.40 185.10 396.83 571.18 963.44 394.47 1132.23 395.75 1112.15 498.34 982.83 608.68 1121.09 609.72
00002224 00000131 783.52 182.76 396.32 571.49 959.85 391.98 1128.60 395.75 1108.36 494.40 980.43 606.05 1117.40 609.01
00002225 00000132 782.68 173.61 392.35 581.54 956.31 387.37 1129.40 397.47 1106.48 483.14 973.63 597.35 1116.86 606.53
00002226 00000133 775.96 172.52 394.84 579.43 946.69 389.49 1120.00 400.66 1091.63 485.91 964.77 595.50 1108.40 605.08
00002227 00000134 766.32 168.00 399.03 577.17 936.48 389.53 1116.04 404.86 1079.45 486.18 957.09 593.86 1102.47 606.45
00002228 00000135 758.91 169.31 400.71 574.22 925.22 386.71 1108.48 403.54 1065.41 487.42 946.38 593.99 1092.93 607.64
CROP_BBOX: 348 0 1343 933
