Video ID: 	en29CnEKpVs
H: 	1080
W: 	1920
FPS: 	25.0

FRAME INDEX X0 Y0 W H [Landmarks (5 Points)]

00002914 00000000 453.89 86.32 347.99 516.20 586.95 278.12 753.26 294.17 712.33 343.69 609.39 462.02 745.16 475.55
00002915 00000001 451.07 88.53 347.00 517.78 582.52 276.82 747.09 292.72 703.99 342.87 605.84 462.92 737.80 476.09
00002916 00000002 448.86 87.95 348.09 520.51 580.18 275.35 746.93 293.02 702.95 339.88 603.19 463.62 737.65 478.46
00002917 00000003 447.75 87.94 347.85 520.12 578.08 274.69 745.21 292.83 700.28 339.40 600.32 462.62 735.77 478.00
00002918 00000004 447.00 88.61 349.32 518.41 578.72 274.73 745.81 293.86 700.77 340.25 599.98 461.50 736.06 477.69
00002919 00000005 447.88 86.65 349.68 516.29 582.35 274.07 749.38 293.51 705.74 339.45 604.45 459.04 739.02 475.21
00002920 00000006 453.47 79.73 347.60 516.72 596.23 277.31 764.95 298.54 718.65 341.46 611.40 451.43 754.52 468.78
00002921 DELETE   456.78 80.68 346.70 513.38 602.47 276.81 773.11 301.30 730.54 338.39 620.27 450.56 764.99 470.41
00002922 00000008 458.22 81.55 350.01 515.81 610.75 277.40 778.76 304.75 740.92 341.61 630.40 454.20 769.61 476.41
00002923 00000009 461.54 82.63 349.08 516.36 616.10 277.33 781.76 306.86 745.52 341.61 634.25 454.91 772.04 478.78
00002924 00000010 463.24 83.92 349.76 515.02 618.29 278.32 783.24 306.85 748.29 341.49 637.14 455.75 774.59 478.72
00002925 00000011 463.72 84.35 348.72 515.16 616.80 279.71 781.30 306.82 746.05 342.42 635.76 456.31 772.92 478.19
00002926 00000012 466.31 87.50 344.32 513.98 607.63 277.37 773.34 299.41 739.28 346.90 627.00 464.10 760.49 482.91
00002927 00000013 464.70 87.58 346.52 516.82 601.99 279.43 772.13 298.85 732.40 350.69 620.93 467.56 758.88 483.99
00002928 00000014 466.85 86.52 345.43 516.74 600.72 280.20 773.02 297.78 729.69 351.49 619.89 468.19 759.40 482.95
00002929 00000015 467.92 86.58 346.71 515.49 603.50 278.89 775.16 297.85 732.66 349.41 623.10 466.04 762.15 481.74
00002930 00000016 469.44 86.78 349.43 515.85 609.68 278.29 779.18 297.42 739.99 349.88 627.29 464.79 765.95 480.93
00002931 00000017 474.06 87.13 349.06 516.23 619.29 279.79 784.31 301.55 747.30 352.47 633.57 465.80 769.19 484.41
00002932 00000018 477.82 85.61 350.79 521.71 629.50 280.19 790.60 303.07 755.20 356.18 640.88 469.33 773.00 489.07
00002933 00000019 481.37 86.21 350.10 525.38 637.83 282.69 794.62 305.44 765.35 357.01 649.28 471.44 779.74 491.41
00002934 00000020 476.10 97.19 356.19 511.24 651.25 285.06 800.05 307.48 766.77 378.41 658.33 470.89 782.20 490.35
00002935 00000021 485.58 91.80 349.49 520.16 646.56 284.19 793.54 300.39 767.07 368.43 670.80 468.24 787.92 482.06
00002936 00000022 487.71 93.66 347.54 521.13 648.72 286.88 794.82 305.87 768.38 369.55 670.28 469.73 787.10 486.03
00002937 00000023 487.27 93.33 349.08 523.09 647.36 289.58 794.50 306.42 766.03 371.16 667.74 469.36 787.68 484.20
00002938 00000024 484.34 94.90 352.49 524.46 644.08 290.73 794.43 310.34 761.73 372.88 660.84 469.65 784.36 486.64
00002939 00000025 485.05 96.21 352.67 531.54 641.70 290.60 791.69 310.63 755.78 376.53 656.34 475.94 775.90 493.18
00002940 00000026 485.97 99.74 350.90 531.89 640.55 291.90 791.42 312.08 754.89 380.29 653.72 477.99 775.21 495.41
00002941 00000027 486.28 102.03 350.97 530.71 643.00 295.27 793.94 315.01 758.16 384.31 654.41 480.89 777.14 497.91
00002942 00000028 487.09 101.92 350.34 527.61 645.19 299.54 797.88 318.09 761.30 386.27 655.21 481.50 780.67 497.77
00002943 00000029 487.77 100.93 349.32 526.15 645.03 300.00 799.84 318.34 761.28 385.06 655.28 480.35 783.29 496.53
00002944 00000030 487.37 98.86 350.10 532.62 641.60 299.54 798.81 317.24 757.77 384.66 652.47 481.92 782.80 497.60
00002945 00000031 484.25 99.50 353.82 534.22 638.18 298.80 794.60 314.59 752.77 387.75 649.46 484.57 777.46 498.58
00002946 00000032 483.35 100.37 354.19 534.15 633.33 298.30 789.35 314.82 744.95 387.18 645.47 485.08 770.81 499.60
00002947 00000033 486.19 99.00 354.91 539.07 638.30 299.40 794.93 316.32 753.62 383.71 642.31 491.25 776.65 507.16
00002948 00000034 483.10 99.24 354.69 538.24 633.22 298.61 786.50 314.99 742.41 387.56 647.95 487.54 766.85 501.53
00002949 00000035 484.35 99.88 355.11 537.68 638.95 298.77 790.79 315.34 750.15 387.60 653.16 488.00 771.90 502.15
00002950 00000036 486.69 100.95 353.37 536.95 645.13 301.42 794.77 320.03 757.08 387.50 658.40 487.60 775.60 503.52
00002951 00000037 486.91 102.11 352.68 534.16 648.29 303.22 797.21 321.50 762.18 389.19 660.75 487.12 778.67 502.96
00002952 00000038 486.09 100.27 352.62 533.94 645.86 304.27 797.21 318.96 762.86 388.56 659.92 485.28 783.40 498.31
00002953 00000039 485.35 99.20 351.37 531.09 641.82 301.69 793.58 316.07 756.89 385.14 656.34 481.81 780.11 494.64
00002954 00000040 485.71 94.93 354.23 535.62 642.14 301.30 799.66 316.48 763.95 381.17 648.12 487.51 784.64 501.74
00002955 00000041 483.70 93.46 355.28 534.58 639.30 300.41 797.46 315.92 761.73 380.07 645.91 485.98 782.50 500.47
00002956 00000042 483.95 93.01 354.67 533.27 639.81 298.39 797.95 315.04 762.96 377.52 647.72 485.23 782.54 500.47
00002957 00000043 483.88 94.84 350.84 525.34 638.59 293.51 790.15 306.93 755.40 380.06 655.62 476.84 777.60 489.04
00002958 00000044 483.91 93.60 351.47 522.15 640.09 291.95 791.16 305.60 757.93 376.43 658.24 473.55 780.64 485.90
00002959 00000045 481.34 92.80 355.24 521.01 637.77 289.17 792.02 304.26 756.83 373.67 656.28 470.97 781.20 484.28
00002960 00000046 479.37 90.40 355.09 522.49 633.57 284.56 788.80 300.10 752.83 372.26 651.71 471.90 775.72 485.45
00002961 00000047 483.59 88.74 353.61 528.65 637.20 288.38 795.79 308.19 759.37 369.91 646.20 478.95 777.42 496.84
00002962 00000048 484.74 88.53 354.63 533.79 641.85 290.67 800.84 310.78 765.18 371.41 649.20 479.05 784.67 496.96
00002963 00000049 481.51 91.24 354.39 530.34 639.32 288.17 793.25 303.28 758.24 374.45 657.46 473.66 782.42 486.93
00002964 00000050 482.60 90.88 351.69 533.74 638.73 285.38 788.61 300.80 755.57 372.17 662.63 476.81 777.86 489.61
00002965 00000051 482.49 92.04 350.82 532.96 637.50 283.26 783.48 300.09 749.98 370.65 662.58 477.23 770.01 490.77
00002966 00000052 485.74 90.18 348.94 537.46 642.74 286.82 791.85 309.70 760.87 368.17 652.42 482.91 774.14 503.56
00002967 00000053 484.38 90.97 350.16 535.68 640.38 288.45 791.07 310.99 758.53 368.91 650.01 482.92 773.33 503.20
00002968 00000054 483.98 90.05 350.61 533.19 639.33 287.52 791.86 309.60 759.03 368.46 650.29 482.49 773.84 502.27
00002969 00000055 484.01 89.64 350.12 533.53 639.83 287.51 791.54 309.58 759.68 367.98 650.69 481.90 774.09 501.73
00002970 00000056 484.68 89.64 349.24 532.77 641.07 286.50 792.08 308.64 761.52 367.17 652.20 481.25 774.80 501.16
00002971 00000057 485.02 89.49 348.85 531.90 640.79 286.15 792.94 308.28 762.03 366.52 651.35 480.10 775.82 499.94
00002972 00000058 483.58 89.63 350.07 530.59 638.19 286.30 791.99 308.55 759.79 367.67 648.34 479.43 774.23 499.32
00002973 00000059 481.54 90.11 351.18 528.10 633.51 286.32 790.98 307.53 754.83 369.27 643.42 479.29 772.18 498.26
00002974 00000060 479.55 91.44 350.58 524.31 626.46 288.50 787.93 306.95 749.09 369.36 637.77 479.29 770.09 496.12
00002975 00000061 477.84 91.30 350.77 519.83 621.82 289.25 786.86 306.17 745.83 369.03 633.97 478.27 768.57 493.65
00002976 00000062 477.78 91.00 349.85 518.22 619.02 287.17 785.54 304.61 742.79 365.61 631.58 475.96 767.44 491.48
00002977 00000063 477.42 91.75 349.18 517.70 617.53 286.92 784.62 304.30 741.08 364.73 630.31 475.60 766.50 491.05
00002978 00000064 476.71 90.61 348.47 518.64 615.62 285.30 782.36 303.98 739.66 362.34 628.88 474.00 764.96 490.38
00002979 00000065 476.31 90.34 347.00 517.38 612.32 283.52 780.50 302.65 736.34 359.81 626.74 472.68 762.78 489.30
00002980 00000066 473.29 89.46 347.14 516.42 607.12 281.95 778.01 301.95 731.80 357.87 622.62 471.52 759.75 488.64
00002981 00000067 470.38 91.17 346.04 514.24 602.88 281.64 773.71 301.38 727.47 356.70 619.59 470.53 756.25 487.45
00002982 00000068 467.78 88.80 346.54 516.75 599.55 282.49 770.43 300.28 723.83 358.29 615.88 470.71 752.97 486.21
00002983 00000069 463.94 89.26 349.75 515.48 595.06 285.26 768.42 300.86 719.65 359.01 611.10 469.64 752.93 482.97
00002984 00000070 460.42 87.58 350.80 514.56 592.04 286.28 764.88 300.20 715.01 361.66 608.90 468.94 749.88 480.68
00002985 00000071 456.94 88.42 352.02 512.19 589.52 287.41 760.93 301.16 710.23 364.04 605.23 467.93 745.44 479.58
00002986 00000072 454.99 89.68 351.02 509.74 587.53 286.81 756.99 300.15 707.12 364.52 603.92 467.65 741.75 479.08
00002987 00000073 453.30 89.76 350.87 510.27 585.12 286.92 754.09 298.91 704.84 364.15 602.69 468.10 740.13 478.34
00002988 00000074 452.47 90.95 350.58 510.95 583.18 287.10 752.10 298.10 703.19 363.35 602.33 469.51 739.58 478.74
00002989 00000075 453.42 93.31 346.69 511.26 584.02 284.22 748.45 297.19 701.13 361.12 605.03 470.93 732.83 481.98
00002990 00000076 452.96 93.26 346.49 515.96 583.97 283.30 746.57 297.14 700.20 360.69 605.90 473.14 730.45 484.91
00002991 00000077 453.05 93.29 346.50 518.07 583.75 282.68 746.71 296.58 700.10 359.85 605.28 473.36 731.15 485.19
00002992 00000078 453.04 92.89 346.75 520.00 583.50 282.64 746.12 296.64 699.67 358.87 604.97 473.76 730.87 485.73
00002993 00000079 452.26 92.54 347.82 521.98 582.07 283.00 745.05 296.46 697.23 358.83 602.72 474.09 730.10 485.68
00002994 00000080 451.70 92.78 348.59 524.38 581.15 284.10 744.11 296.71 695.61 359.83 601.72 475.59 729.30 486.63
00002995 00000081 451.90 93.30 348.55 524.13 580.40 285.23 743.85 297.54 694.34 360.64 601.18 476.90 729.00 487.75
00002996 00000082 452.17 93.60 348.56 524.53 580.74 286.09 744.19 298.21 694.87 361.79 601.58 477.89 729.24 488.63
00002997 00000083 452.47 92.93 349.64 526.47 581.50 287.43 745.16 299.70 696.28 362.20 601.61 477.96 731.16 488.83
00002998 00000084 453.04 93.21 349.43 524.80 582.25 287.42 746.78 300.22 697.56 362.23 602.42 477.00 732.79 488.11
00002999 00000085 453.10 91.84 352.23 526.18 582.74 288.55 750.32 299.39 701.87 362.70 601.59 475.65 738.82 484.97
00003000 00000086 453.67 91.30 352.29 525.26 583.32 288.77 751.31 297.94 703.36 363.96 602.61 474.83 741.42 482.60
00003001 00000087 456.14 90.47 350.82 526.28 586.21 288.21 753.52 298.32 705.96 365.88 604.99 476.47 740.41 485.22
00003002 00000088 459.25 90.10 349.81 526.30 589.37 289.13 752.16 300.86 705.90 367.58 609.75 479.25 737.33 489.77
00003003 00000089 462.71 91.43 348.52 524.01 592.75 292.35 755.99 303.40 709.88 371.52 612.63 480.84 741.10 490.79
00003004 00000090 465.98 91.24 346.53 523.02 595.79 294.52 759.23 303.84 714.09 371.43 617.84 482.36 746.86 490.97
00003005 00000091 467.59 95.50 345.84 521.69 599.42 294.88 761.77 305.00 718.69 370.85 620.44 482.90 749.90 492.35
00003006 00000092 471.02 91.88 345.53 523.70 605.48 296.38 770.30 306.43 728.68 369.84 623.69 480.01 759.98 489.44
00003007 00000093 471.70 91.74 345.27 524.01 609.40 297.20 773.32 308.30 734.50 370.28 624.83 477.89 763.29 488.32
00003008 00000094 471.30 92.92 347.53 530.13 611.07 296.67 770.87 306.39 734.84 373.72 626.88 482.68 760.74 492.35
00003009 00000095 472.00 94.95 347.15 533.81 613.08 293.99 771.59 307.58 735.93 373.89 627.64 485.57 758.77 498.68
00003010 00000096 471.91 93.70 348.42 536.07 612.75 294.35 771.88 305.42 737.17 373.98 628.42 486.36 760.70 497.33
00003011 00000097 472.47 94.11 348.25 534.28 612.24 294.27 773.09 305.58 738.50 372.76 628.55 485.44 762.83 496.59
00003012 00000098 473.38 93.52 349.40 532.56 614.00 295.27 776.01 308.06 740.65 372.54 628.66 483.77 764.86 496.14
00003013 00000099 474.95 90.52 349.01 527.36 617.11 294.94 781.95 308.47 744.57 371.77 630.97 480.69 768.82 493.60
00003014 00000100 475.82 91.42 349.34 525.26 621.88 294.54 785.52 307.72 749.19 371.32 633.98 479.03 772.14 491.56
00003015 00000101 476.81 91.85 349.75 526.38 625.38 293.42 786.72 308.01 751.33 371.68 636.20 479.35 772.47 493.09
00003016 00000102 477.17 91.72 351.91 534.17 625.66 293.74 785.51 309.05 750.66 372.51 637.75 483.52 772.30 498.02
00003017 00000103 478.67 93.02 350.72 534.39 625.38 292.62 784.97 309.36 749.47 371.80 637.12 484.03 771.08 499.77
00003018 00000104 479.24 92.77 350.78 536.50 625.85 292.57 785.38 309.23 749.61 371.77 637.30 484.42 771.81 500.00
00003019 00000105 479.10 91.99 351.30 536.55 624.32 292.63 784.27 309.04 747.63 371.86 636.56 484.76 770.88 500.13
00003020 00000106 480.75 92.40 351.13 535.38 624.23 292.46 785.18 309.64 747.02 371.30 636.36 484.65 771.16 500.65
00003021 00000107 482.03 92.09 351.82 534.83 626.08 292.58 787.91 311.34 748.15 370.59 637.57 484.09 772.50 501.33
00003022 00000108 482.76 92.83 352.96 534.76 630.66 291.31 788.95 311.44 751.56 370.01 641.10 482.87 773.52 501.09
00003023 00000109 484.19 92.77 352.52 532.43 634.32 290.96 792.45 312.10 754.42 371.45 642.90 482.68 774.38 501.90
00003024 00000110 486.19 91.92 352.96 530.35 638.70 291.09 796.60 309.55 760.28 371.89 647.52 480.63 780.58 497.50
00003025 00000111 483.56 91.93 353.16 527.40 636.30 288.18 792.96 304.62 755.27 374.31 652.05 472.90 780.90 487.26
00003026 00000112 487.61 91.11 350.32 527.85 637.59 285.71 794.99 304.94 755.95 369.53 654.06 471.99 781.42 488.48
00003027 00000113 488.75 92.50 349.29 529.27 639.21 284.80 791.75 303.73 754.67 370.25 658.11 474.86 777.25 490.76
00003028 00000114 489.19 93.88 349.65 526.13 642.54 289.37 797.44 308.61 760.05 372.33 657.05 472.26 784.24 488.97
00003029 00000115 490.36 95.14 349.01 523.74 643.10 290.79 798.56 309.88 760.73 373.05 656.72 471.68 785.52 488.39
00003030 00000116 489.94 94.82 349.44 529.70 642.55 287.87 795.40 308.70 756.88 371.93 658.72 475.37 779.20 492.96
00003031 00000117 488.84 96.36 348.96 531.50 641.48 286.97 789.05 308.13 752.76 373.47 658.73 476.68 771.81 494.43
00003032 00000118 487.47 95.13 350.34 530.56 640.51 289.53 794.28 310.03 754.69 377.00 653.33 476.75 775.90 494.31
00003033 00000119 484.90 94.37 350.52 529.88 639.19 290.14 795.29 311.13 755.92 377.51 650.67 475.70 777.84 493.81
00003034 00000120 487.00 94.92 351.05 534.73 643.53 292.68 799.23 316.43 762.19 374.91 646.42 483.39 778.25 504.87
00003035 00000121 485.56 96.16 352.10 537.74 640.95 292.55 792.78 314.78 757.01 375.90 644.69 485.27 772.95 505.47
00003036 00000122 484.48 96.13 352.66 538.67 639.78 293.65 791.94 314.44 756.74 377.60 644.91 487.19 773.33 506.12
00003037 00000123 483.37 96.54 353.31 536.97 637.67 294.99 791.87 314.56 756.68 378.23 644.14 487.31 774.67 505.18
00003038 00000124 483.37 96.51 352.83 536.55 636.26 296.41 791.65 315.03 755.97 379.43 642.87 488.00 775.27 505.13
00003039 00000125 482.43 97.12 353.36 535.96 635.33 298.53 791.36 315.82 755.36 381.59 642.80 489.49 775.52 505.55
00003040 00000126 482.07 98.74 352.20 534.96 636.03 300.11 792.41 316.75 756.69 383.15 643.26 490.58 776.41 506.14
00003041 00000127 481.52 100.25 352.29 533.68 636.64 302.60 791.91 317.67 757.83 385.77 644.32 491.93 776.26 506.21
00003042 00000128 480.55 100.32 352.89 534.12 635.97 306.71 791.13 321.11 757.73 388.13 643.99 494.06 776.76 507.93
00003043 00000129 480.49 103.07 351.14 532.96 635.61 312.43 792.16 326.01 757.51 390.00 644.51 496.91 778.44 509.86
00003044 DELETE   479.76 103.39 350.08 533.12 634.92 314.23 791.60 325.28 757.36 393.44 644.77 499.46 778.72 510.32
00003045 00000131 477.80 104.96 349.90 531.01 630.35 315.43 787.64 320.31 753.03 398.25 642.80 502.67 776.67 508.67
00003046 00000132 473.86 105.91 350.33 531.25 623.23 317.10 783.92 319.58 748.01 399.74 637.74 504.28 774.18 508.18
00003047 00000133 469.33 107.48 349.79 531.34 616.06 317.26 777.93 319.92 740.52 400.63 631.41 504.91 767.43 509.00
00003048 00000134 467.88 109.86 351.03 529.51 613.01 318.68 777.82 321.16 737.65 403.11 630.63 508.50 765.88 512.38
00003049 00000135 468.85 114.31 352.70 529.83 615.77 321.75 784.55 322.91 743.16 411.00 633.01 512.36 773.46 514.80
00003050 00000136 468.84 119.15 354.79 531.73 616.91 327.02 786.40 329.59 744.52 416.94 633.97 518.68 774.33 521.90
00003051 00000137 469.53 119.22 356.00 537.89 614.98 326.17 785.36 330.54 740.12 417.54 632.28 522.37 771.58 526.92
00003052 00000138 469.05 118.65 354.79 546.99 612.81 319.86 779.25 329.46 736.28 412.73 628.66 523.52 762.20 532.63
00003053 00000139 469.49 114.87 355.06 551.90 612.23 316.48 778.46 323.70 735.65 410.78 627.61 522.07 763.09 529.50
00003054 00000140 470.61 113.62 355.45 549.81 612.28 315.46 780.29 321.96 736.36 410.11 627.60 519.52 766.49 526.45
00003055 00000141 470.57 113.95 355.66 546.07 613.33 315.80 780.91 321.45 737.22 409.15 629.55 518.32 767.46 524.51
00003056 00000142 471.47 109.66 354.84 542.75 616.05 314.39 780.76 319.34 739.56 404.16 631.53 513.32 768.04 519.42
00003057 00000143 474.95 107.45 353.46 540.45 620.50 309.91 784.34 316.93 742.42 400.45 633.59 508.72 770.28 516.71
00003058 00000144 477.14 106.56 353.32 539.44 624.77 307.64 785.99 316.96 744.78 396.68 636.01 505.68 771.52 515.50
00003059 00000145 479.06 104.76 353.48 539.23 628.47 306.60 789.31 317.61 748.04 395.00 638.19 503.67 774.21 514.72
00003060 00000146 481.78 103.89 353.61 538.57 631.94 305.45 792.75 319.31 750.02 392.83 640.01 501.52 776.70 514.67
00003061 00000147 483.64 103.86 352.51 534.82 636.19 305.08 792.41 321.15 752.36 387.53 642.70 496.16 775.73 511.07
00003062 00000148 482.97 103.21 353.66 535.45 636.95 307.30 792.47 323.48 753.20 386.12 643.65 494.89 777.04 509.69
00003063 00000149 483.94 103.26 352.35 534.07 638.81 306.90 793.26 323.79 754.38 385.25 644.68 493.65 776.94 509.09
00003064 00000150 484.41 104.81 351.45 531.55 638.87 304.61 793.33 321.87 754.33 384.60 644.68 492.71 776.33 508.50
00003065 00000151 485.94 103.37 350.52 529.54 639.19 301.51 793.84 319.34 755.04 382.03 645.00 490.70 775.95 507.11
00003066 00000152 486.86 101.96 348.94 527.46 641.30 298.20 794.05 318.03 756.47 380.63 645.80 487.53 774.56 505.70
00003067 00000153 486.95 100.50 349.19 527.92 642.74 291.64 795.77 313.72 759.04 374.73 646.83 483.99 774.68 503.97
00003068 00000154 487.95 98.98 347.40 527.03 643.39 287.12 796.06 310.68 759.72 369.98 647.68 481.26 774.05 502.60
00003069 00000155 489.39 97.14 345.67 524.67 645.87 283.09 797.50 308.24 762.47 366.10 650.42 478.09 774.95 500.70
00003070 00000156 491.48 95.09 344.06 518.02 647.87 279.80 799.89 303.59 765.26 361.15 655.26 474.11 778.52 495.19
00003071 00000157 491.41 94.28 344.96 512.36 640.30 275.17 792.96 296.15 752.97 358.41 663.66 462.19 778.91 478.96
00003072 00000158 492.99 95.21 344.54 509.17 641.67 275.92 793.51 296.34 753.58 360.97 663.20 462.09 778.33 478.47
00003073 00000159 494.84 95.19 342.80 507.29 642.54 275.71 794.00 298.02 753.40 362.07 663.02 462.83 776.26 480.67
00003074 00000160 495.56 96.51 341.38 510.84 643.18 276.64 792.55 298.72 753.09 361.58 665.61 465.67 774.89 483.23
00003075 00000161 494.78 97.20 342.32 511.73 644.81 278.35 797.55 300.13 758.10 365.48 663.04 466.01 780.52 483.61
00003076 00000162 493.21 97.24 344.42 511.67 645.43 281.92 799.06 300.96 762.20 368.83 664.74 466.91 786.74 482.61
00003077 00000163 492.29 95.85 344.77 511.84 645.19 281.18 796.47 299.24 761.11 367.46 667.09 466.68 785.30 481.45
00003078 00000164 490.18 95.18 343.96 509.22 642.93 278.88 793.73 299.26 756.72 366.69 663.83 464.94 779.15 481.45
00003079 00000165 488.86 96.31 344.50 507.74 642.66 280.70 793.64 298.76 758.32 369.57 664.32 468.45 780.34 483.32
00003080 00000166 487.44 95.99 345.16 507.82 640.29 281.33 792.89 297.99 757.52 370.89 660.80 468.66 779.81 482.78
00003081 00000167 489.04 95.07 345.72 516.63 642.78 287.26 797.19 305.94 763.52 367.19 652.33 478.08 778.51 495.21
00003082 00000168 487.91 99.27 346.07 521.39 639.70 287.29 794.13 306.74 756.56 371.50 648.37 483.12 773.23 500.88
00003083 00000169 486.34 98.93 347.21 521.55 636.29 288.38 792.24 306.08 753.60 373.22 645.48 483.53 772.45 499.86
00003084 00000170 485.59 98.45 346.43 519.84 633.62 289.97 791.92 308.12 751.65 373.53 642.72 483.08 771.71 499.74
00003085 00000171 484.19 100.08 345.54 518.13 630.03 291.83 790.61 307.88 749.21 373.94 640.52 483.45 772.39 498.34
