Video ID: 	fxdq5TZhRZ0
H: 	1080
W: 	1920
FPS: 	23.976023976023978

FRAME INDEX X0 Y0 W H [Landmarks (5 Points)]

00008891 00000000 363.50 112.84 363.58 548.07 431.33 307.09 568.14 346.15 439.06 411.32 406.44 502.40 518.18 535.42
00008892 00000001 364.84 111.43 362.58 559.01 430.41 307.08 568.60 345.46 439.10 412.89 406.29 507.36 519.11 540.01
00008893 00000002 367.84 110.36 361.51 566.41 430.26 309.30 570.77 346.54 439.72 415.12 407.46 512.67 523.34 544.52
00008894 00000003 368.12 111.65 362.20 566.40 433.10 311.80 573.57 349.46 442.70 418.03 411.38 514.28 527.42 546.51
00008895 00000004 368.39 110.33 363.16 567.82 434.73 313.57 575.76 351.43 444.92 419.40 412.25 514.66 529.57 547.05
00008896 00000005 370.35 110.87 362.12 562.06 434.27 314.68 576.04 354.02 443.01 421.85 410.42 513.13 529.00 546.44
00008897 00000006 370.59 115.74 366.63 549.95 434.25 316.75 578.24 358.74 442.36 425.58 410.11 508.33 532.89 543.32
00008898 00000007 370.57 116.75 362.84 551.04 428.23 316.42 577.30 363.81 442.23 434.19 405.49 508.57 528.87 547.49
00008899 00000008 371.25 114.63 365.45 560.69 429.75 318.92 581.55 369.88 446.40 441.56 409.35 512.87 534.72 554.52
00008900 DELETE   377.94 117.49 369.05 568.33 436.96 324.90 589.94 360.73 459.58 441.72 421.12 521.02 547.24 550.99
00008901 DELETE   380.25 108.15 374.54 574.47 450.33 316.36 606.56 363.95 475.02 439.22 426.21 514.08 552.75 554.51
00008902 DELETE   388.99 113.43 378.60 568.66 465.22 318.23 622.25 359.74 491.23 436.24 437.59 514.89 562.76 550.62
00008903 00000012 394.76 111.55 376.84 566.46 473.18 320.24 625.58 362.25 498.55 435.53 443.60 513.43 566.03 548.65
00008904 00000013 397.97 108.67 376.68 562.50 477.10 316.17 632.52 365.49 499.34 435.92 441.97 508.15 572.78 548.41
00008905 00000014 398.69 107.01 376.98 561.98 477.36 315.58 631.54 365.49 499.08 436.76 445.03 506.47 572.43 547.17
00008906 00000015 395.65 107.71 379.66 563.92 474.92 314.68 632.63 359.49 497.02 427.12 443.56 503.48 581.62 541.55
00008907 00000016 397.06 110.16 375.45 565.53 475.52 314.19 630.54 358.30 496.61 425.34 445.08 503.88 581.44 541.67
00008908 00000017 396.03 106.50 375.05 555.40 468.12 314.42 624.33 357.15 486.39 422.80 439.08 502.74 573.31 539.47
00008909 00000018 393.67 100.65 375.81 554.97 462.11 314.36 616.93 358.72 475.95 418.33 432.23 500.05 565.19 537.26
00008910 00000019 390.82 106.49 372.84 549.45 461.93 313.22 611.09 359.34 473.45 420.19 430.18 500.52 556.20 539.34
00008911 00000020 389.49 106.54 371.63 563.11 463.98 313.34 610.05 359.74 473.38 421.14 431.61 505.99 553.53 545.56
00008912 00000021 387.58 105.86 370.53 561.08 461.91 313.06 606.00 360.37 470.33 420.30 428.97 506.01 546.66 546.44
00008913 00000022 387.43 105.99 368.56 556.57 460.20 312.81 603.63 360.28 467.61 418.12 426.40 504.37 543.90 544.87
00008914 00000023 375.93 111.76 370.78 563.09 457.94 308.93 603.88 364.25 458.70 418.53 419.06 502.39 536.81 547.41
00008915 00000024 386.86 113.11 373.05 560.57 447.62 309.52 605.88 353.56 461.89 432.65 417.33 508.58 541.81 545.70
00008916 00000025 386.53 114.51 368.60 572.47 446.97 312.76 604.53 353.79 462.48 432.92 420.76 516.04 548.28 551.12
00008917 00000026 383.25 110.48 369.90 569.67 443.78 313.52 602.45 355.30 460.84 435.27 419.36 512.14 548.66 547.64
00008918 00000027 380.15 107.11 371.95 553.93 452.11 313.94 601.44 361.72 463.49 423.76 421.70 502.61 547.47 542.41
00008919 00000028 380.83 106.84 371.27 553.75 452.90 313.17 602.09 362.11 463.73 422.40 421.92 501.05 549.33 541.42
00008920 00000029 380.92 106.90 370.90 554.20 452.97 312.76 601.53 362.31 462.31 421.06 421.11 499.38 549.26 540.15
00008921 00000030 384.02 102.64 369.17 562.39 454.15 313.48 600.07 361.68 463.84 421.11 425.30 501.51 552.03 541.28
00008922 00000031 385.89 102.21 371.47 579.10 457.80 315.02 605.53 360.33 469.80 423.24 430.56 510.36 559.39 548.17
00008923 00000032 385.75 106.59 371.59 573.35 458.61 316.95 605.27 362.57 470.69 427.72 431.61 508.42 562.11 546.57
00008924 00000033 385.12 109.52 371.83 565.71 459.84 317.87 607.63 364.47 472.77 428.99 430.55 505.93 561.55 545.10
00008925 00000034 388.53 107.91 370.74 570.70 461.97 318.17 608.92 365.17 473.41 430.09 432.27 508.23 561.22 547.88
00008926 00000035 392.99 107.93 365.98 578.76 465.25 318.00 609.75 363.06 476.21 429.99 436.72 514.93 560.68 553.45
00008927 00000036 393.14 108.96 367.77 580.99 465.65 318.15 612.56 363.95 476.90 431.21 436.08 515.51 563.80 554.44
00008928 00000037 390.44 110.53 372.91 571.44 463.45 318.92 616.21 366.27 477.98 432.31 434.96 508.58 573.42 547.90
00008929 00000038 389.17 111.37 373.52 563.11 462.71 317.99 616.68 366.03 477.94 429.83 434.55 502.91 573.87 542.56
00008930 00000039 388.54 111.37 374.75 564.12 463.08 315.15 617.79 364.75 478.19 427.87 433.65 501.47 574.70 542.32
00008931 00000040 390.07 112.62 374.77 572.53 464.10 315.74 620.49 365.20 479.39 428.80 434.39 506.95 577.16 547.87
00008932 00000041 390.88 111.85 372.90 572.55 463.41 318.72 617.08 367.22 476.95 434.02 433.78 507.70 574.95 547.84
00008933 00000042 392.38 116.47 369.68 559.39 462.66 325.29 611.98 371.69 475.48 436.93 435.08 507.72 568.57 546.26
00008934 00000043 392.22 119.42 371.04 554.60 462.19 327.36 613.10 373.19 476.16 437.71 434.84 510.92 566.64 549.13
00008935 00000044 390.39 119.67 372.62 551.89 462.95 328.51 613.54 374.80 477.30 438.47 434.42 511.09 563.96 549.93
00008936 00000045 389.49 117.27 371.60 550.16 463.29 327.15 609.89 374.78 474.67 436.72 432.94 510.01 555.59 550.25
00008937 00000046 387.46 118.18 370.08 541.97 463.01 326.01 606.13 374.25 472.24 437.08 430.03 509.06 546.11 550.09
00008938 00000047 387.18 118.33 369.35 539.18 463.10 324.99 605.58 374.14 472.01 435.93 429.08 507.28 544.56 548.99
00008939 00000048 387.40 117.76 371.12 542.43 464.18 324.62 607.43 374.63 474.07 435.66 431.05 507.83 547.06 550.30
00008940 00000049 388.56 118.43 371.22 540.59 463.08 324.54 610.22 374.45 474.63 434.23 430.47 505.72 552.37 547.69
00008941 00000050 389.12 116.39 373.25 537.98 461.86 323.09 611.65 372.81 474.27 432.42 430.16 502.48 555.80 543.77
00008942 00000051 389.00 114.27 374.09 541.63 461.76 321.87 612.33 371.10 473.88 432.11 428.78 502.58 556.13 543.53
00008943 00000052 388.75 111.72 375.09 546.44 462.86 320.78 614.00 370.50 474.86 430.14 430.08 501.69 558.80 543.11
00008944 00000053 392.34 112.23 373.09 554.89 465.84 320.21 616.12 369.17 477.18 429.30 434.15 504.86 561.73 546.01
00008945 00000054 391.16 111.69 375.08 557.69 465.54 319.77 618.52 367.41 479.57 429.59 435.86 505.77 567.34 545.57
00008946 00000055 391.03 113.03 373.65 551.66 466.53 319.72 617.68 367.07 480.08 428.38 435.92 503.55 564.40 543.43
00008947 00000056 390.24 113.21 374.39 550.57 466.63 319.47 618.18 367.56 480.55 428.59 434.71 501.31 564.78 541.77
00008948 00000057 391.58 113.02 375.02 553.34 467.13 320.24 619.35 366.89 481.99 429.74 435.36 503.34 566.16 542.94
00008949 00000058 392.78 110.91 375.18 559.12 468.33 320.07 619.51 364.69 482.95 429.02 437.94 508.30 565.40 546.73
00008950 00000059 394.16 108.13 375.21 549.80 465.32 320.40 617.58 364.76 479.11 426.81 436.11 504.25 563.74 542.06
00008951 00000060 392.26 106.05 379.62 545.90 464.56 317.37 621.22 362.67 480.43 423.69 433.09 500.86 565.39 539.01
00008952 00000061 393.51 105.43 379.12 548.88 465.54 318.14 622.13 361.59 483.11 426.25 435.49 503.29 566.89 540.12
00008953 00000062 395.68 109.72 376.39 547.26 469.17 318.72 624.77 364.31 487.28 429.79 438.71 502.42 571.03 541.02
00008954 00000063 397.74 112.45 377.11 551.37 472.52 319.24 626.90 366.23 490.37 434.35 441.80 503.06 574.90 543.01
00008955 00000064 401.05 110.24 378.59 569.79 475.72 319.39 627.39 370.15 494.83 441.24 443.95 511.19 570.81 552.95
00008956 DELETE   400.31 107.56 384.02 565.86 480.52 317.63 641.66 368.21 508.36 440.98 448.45 509.10 578.49 550.60
00008957 DELETE   406.50 118.61 376.08 560.63 488.88 314.82 652.12 372.51 513.25 432.57 453.16 508.78 591.39 556.55
00008958 00000067 414.66 110.38 382.70 564.11 499.70 319.45 656.49 373.51 525.81 441.45 466.13 508.80 595.75 553.43
00008959 00000068 418.94 108.57 380.01 566.00 505.65 316.30 659.61 373.34 529.62 442.21 469.12 508.34 595.06 555.52
00008960 00000069 420.73 109.47 378.86 565.49 507.11 314.14 661.30 372.29 529.30 441.44 470.64 507.03 597.41 554.99
00008961 00000070 420.45 108.93 380.30 566.52 508.29 313.37 662.89 372.30 530.26 441.59 472.15 506.40 598.25 555.14
00008962 00000071 421.16 111.11 381.93 566.26 510.51 314.45 664.92 374.03 532.53 441.71 473.43 506.19 601.20 555.59
00008963 00000072 423.45 111.59 381.51 563.34 512.30 314.73 666.92 373.48 534.91 441.62 475.99 507.27 602.07 555.93
00008964 00000073 423.83 111.90 383.92 563.55 515.16 314.81 669.07 373.01 537.48 442.27 478.35 508.43 602.76 556.78
00008965 00000074 424.13 112.84 383.92 563.11 515.80 315.06 669.37 373.56 538.53 442.68 479.08 508.63 603.71 557.22
00008966 00000075 423.87 113.07 384.29 562.52 516.22 315.77 669.88 374.50 539.81 442.85 478.84 508.40 603.77 557.14
00008967 00000076 423.69 113.98 385.32 563.04 516.45 316.04 671.40 374.76 540.44 444.25 478.89 509.38 605.15 558.16
00008968 00000077 423.92 113.18 385.21 564.47 516.53 316.02 671.74 373.83 541.25 443.97 479.56 511.08 605.66 559.14
00008969 00000078 424.55 113.83 384.82 562.86 516.32 316.66 670.30 374.17 540.11 444.51 480.39 510.88 604.63 558.69
00008970 00000079 424.08 114.18 385.41 560.95 514.06 316.79 667.22 374.99 535.78 444.67 477.60 509.88 599.29 558.13
00008971 00000080 423.59 114.64 384.01 559.65 511.68 318.71 664.60 375.52 533.28 445.66 476.03 511.67 597.08 558.65
00008972 00000081 423.78 113.24 380.50 560.90 510.05 319.88 662.76 376.26 532.08 446.29 473.95 513.01 595.67 559.55
00008973 00000082 423.97 110.72 378.48 568.72 508.79 319.45 661.16 376.42 529.93 447.34 472.53 513.88 597.94 560.91
00008974 00000083 419.21 112.72 381.34 567.46 503.53 318.76 659.16 377.16 525.23 448.32 465.17 513.52 593.47 561.66
00008975 00000084 418.33 112.87 378.85 564.19 501.37 318.77 656.47 377.87 521.98 447.79 462.53 512.32 589.44 560.99
00008976 00000085 415.84 112.69 380.16 564.31 499.62 318.13 654.09 377.11 519.77 448.03 461.07 511.94 585.86 560.54
00008977 00000086 414.46 112.56 381.13 572.11 497.89 318.33 654.14 375.68 519.62 445.72 460.44 515.45 590.48 562.69
00008978 00000087 410.71 113.18 383.90 577.59 495.99 317.60 654.36 373.56 519.27 443.80 459.03 516.26 593.56 562.44
00008979 00000088 407.78 113.53 385.53 577.07 494.33 317.91 653.58 373.12 519.49 444.37 458.11 517.33 591.75 563.01
00008980 00000089 410.00 113.69 382.08 569.66 492.19 321.97 649.08 372.18 517.86 445.49 460.00 519.19 585.74 560.88
00008981 00000090 411.99 115.08 377.71 567.38 488.86 323.86 646.70 372.14 515.45 450.04 458.57 522.58 583.18 562.57
00008982 00000091 413.28 119.25 376.33 573.57 488.72 327.83 645.87 374.95 515.78 452.21 459.98 527.67 585.17 566.82
00008983 00000092 413.29 121.53 375.95 583.65 490.27 331.54 646.20 374.92 521.01 453.53 464.19 533.56 594.29 569.94
00008984 00000093 413.22 122.64 375.07 578.99 489.72 330.50 646.04 373.73 520.41 453.86 463.83 530.56 598.54 566.35
00008985 00000094 412.94 121.52 374.39 577.15 489.23 329.62 646.06 373.04 519.68 452.70 462.32 527.99 598.36 563.87
00008986 00000095 411.80 121.49 373.96 573.48 487.74 328.32 645.05 372.29 517.63 452.51 460.68 526.27 594.45 562.70
00008987 00000096 411.26 120.55 374.37 569.17 486.26 326.10 643.15 372.03 513.97 451.67 458.46 522.70 590.29 560.65
00008988 00000097 410.56 119.08 373.83 564.16 485.11 326.15 642.34 372.27 513.48 452.59 457.46 522.00 585.98 560.16
00008989 00000098 408.70 120.05 376.20 561.81 483.60 327.90 640.61 373.50 513.08 454.14 456.77 523.25 583.94 560.90
00008990 00000099 407.68 122.02 377.34 560.26 483.65 331.61 642.42 376.12 514.72 457.06 458.62 526.66 583.11 563.40
00008991 00000100 405.55 124.33 379.37 559.84 482.85 333.79 642.98 377.43 515.92 457.60 457.34 528.39 583.02 564.50
00008992 00000101 407.17 121.54 377.59 558.54 483.28 332.04 641.80 376.74 514.41 456.60 458.13 526.68 581.83 563.48
00008993 00000102 406.19 120.11 378.52 560.36 481.14 330.13 637.64 374.66 510.51 454.95 456.65 524.14 581.38 560.69
00008994 00000103 407.85 118.88 375.74 568.32 482.11 328.53 638.69 373.03 510.85 453.26 456.25 524.17 585.05 560.97
00008995 00000104 408.23 121.29 375.31 576.82 482.28 331.87 640.26 374.10 513.21 454.08 457.92 528.94 593.88 563.63
00008996 00000105 409.91 121.79 372.82 579.82 482.93 333.84 639.44 374.74 514.33 454.82 460.30 532.45 596.43 566.10
00008997 00000106 408.70 120.73 374.64 580.88 481.02 333.76 639.83 373.93 512.74 453.92 458.15 532.41 596.68 565.41
00008998 00000107 408.35 119.52 373.11 570.53 479.52 329.39 637.03 372.50 509.41 454.16 456.82 525.74 590.57 561.03
00008999 00000108 406.36 118.41 375.11 565.44 478.65 328.54 635.69 372.59 508.20 452.86 454.15 522.35 584.49 558.49
00009000 00000109 405.44 118.70 375.86 561.75 479.00 329.50 636.25 373.57 509.52 452.74 455.17 523.54 582.00 559.61
00009001 00000110 405.52 120.79 375.63 560.26 477.88 330.37 635.35 373.94 508.69 454.06 454.93 524.56 581.08 560.23
00009002 00000111 405.61 119.53 375.29 561.50 477.62 330.20 634.81 374.49 508.11 454.25 453.96 524.19 580.77 560.41
00009003 00000112 406.63 118.54 374.28 572.22 477.92 330.70 634.22 373.58 507.53 453.85 453.61 527.66 580.07 563.31
00009004 00000113 407.39 118.49 373.01 575.38 478.41 331.60 633.63 372.47 507.99 453.10 455.52 529.33 582.61 563.20
00009005 00000114 406.84 119.26 373.54 575.60 478.38 331.57 634.08 371.65 508.79 452.80 455.55 529.82 582.60 563.21
00009006 00000115 406.76 118.60 372.92 575.43 478.10 331.07 632.45 372.25 506.77 453.17 454.58 528.83 581.21 563.00
00009007 00000116 405.89 122.07 372.70 571.21 476.72 331.58 630.33 372.27 505.21 453.24 453.74 528.51 580.08 562.32
00009008 00000117 405.45 121.60 370.67 572.59 474.59 333.48 625.35 374.66 500.98 454.40 453.70 528.86 578.54 562.78
00009009 00000118 403.55 120.97 371.41 573.85 472.02 333.49 623.48 374.34 498.65 453.92 452.96 528.45 576.60 562.29
00009010 00000119 402.66 119.78 370.48 574.30 470.09 333.25 621.23 374.25 496.88 452.40 450.63 527.35 575.42 561.46
00009011 00000120 400.86 117.14 370.57 579.98 469.23 333.49 618.56 373.69 494.15 449.12 449.67 526.72 574.93 560.43
00009012 00000121 399.61 121.86 370.06 576.72 460.54 333.26 622.80 363.29 489.39 449.42 444.73 527.65 587.07 553.92
00009013 00000122 397.01 121.74 372.03 573.37 459.72 332.96 623.30 364.54 487.42 446.95 442.25 523.46 587.73 550.91
00009014 00000123 396.03 120.65 372.74 566.99 457.61 333.17 620.37 365.47 485.08 448.44 440.76 520.76 584.00 548.85
00009015 00000124 395.37 119.77 371.79 560.51 465.16 332.40 614.49 377.32 488.57 447.92 441.51 517.08 571.77 553.87
00009016 00000125 394.76 121.96 374.07 557.27 467.98 332.57 618.76 381.90 491.56 450.99 440.37 515.83 572.42 556.21
00009017 00000126 397.52 118.93 377.04 566.69 470.25 333.50 623.53 381.20 497.04 454.25 444.86 520.10 574.06 559.54
00009018 00000127 400.75 116.81 373.70 568.91 470.66 329.31 624.62 375.42 496.65 453.18 446.57 519.75 577.75 557.70
00009019 00000128 399.43 117.05 376.00 563.08 472.73 324.28 625.68 374.34 495.50 448.96 446.09 512.79 577.79 553.73
00009020 00000129 397.59 118.23 376.35 564.09 471.87 324.15 624.49 372.48 493.65 444.27 443.74 511.78 579.84 551.31
00009021 00000130 397.56 118.94 376.93 567.30 473.99 322.73 626.26 368.72 493.62 438.53 444.08 513.29 578.79 551.30
00009022 DELETE   399.10 122.56 377.64 564.52 478.55 320.30 635.81 361.14 505.76 432.32 447.40 515.36 579.19 550.00
00009023 00000132 401.28 124.41 385.71 569.66 487.66 323.00 652.19 364.64 522.87 433.37 458.69 520.12 592.42 555.35
00009024 00000133 405.77 132.43 382.97 567.67 491.98 323.34 656.30 368.01 530.06 445.62 462.94 525.48 600.59 562.81
00009025 00000134 403.73 134.11 384.25 571.10 492.89 329.77 656.74 375.06 533.27 450.39 460.77 529.36 597.59 567.56
00009026 00000135 401.57 136.84 382.86 567.58 489.62 329.40 651.17 376.30 527.52 450.69 456.29 529.16 590.02 568.69
00009027 00000136 399.88 135.38 382.66 566.21 486.20 330.74 646.77 377.56 522.17 451.14 453.42 528.19 584.09 567.59
00009028 00000137 398.48 135.02 382.52 564.36 485.45 331.44 644.82 378.81 520.16 451.17 451.97 526.13 582.24 566.04
00009029 00000138 396.23 134.59 384.02 563.23 485.48 331.62 644.32 381.01 518.91 451.46 450.21 523.77 581.81 565.16
00009030 00000139 396.46 132.68 385.19 563.22 487.75 331.43 644.95 383.82 519.01 453.74 450.77 521.73 583.00 565.35
00009031 00000140 398.07 131.64 386.79 562.72 489.76 329.02 647.94 383.17 519.82 454.06 452.25 520.82 583.42 565.86
00009032 00000141 399.68 130.35 387.69 565.38 491.74 328.51 650.02 382.81 520.55 453.81 455.09 521.69 585.93 566.74
00009033 00000142 400.04 129.91 389.31 565.89 493.44 326.93 651.69 382.11 521.30 451.33 454.92 521.54 585.15 567.28
00009034 00000143 401.90 126.93 388.60 565.72 493.68 324.27 652.84 381.50 521.31 451.31 454.46 519.23 586.89 566.45
00009035 00000144 404.64 125.21 385.80 565.15 493.13 322.81 651.57 380.13 519.17 451.26 455.68 518.37 585.49 565.56
00009036 00000145 403.19 125.80 386.00 571.89 492.53 322.85 650.84 380.24 518.62 451.07 453.95 520.83 586.24 568.15
00009037 00000146 403.89 125.52 384.40 576.26 493.18 324.32 652.27 379.32 521.77 450.11 455.37 522.99 591.23 568.56
00009038 00000147 403.95 124.47 384.82 577.63 492.64 323.09 654.33 377.83 522.43 450.44 455.73 523.77 591.49 569.19
00009039 00000148 402.60 130.09 387.07 574.11 493.11 325.35 657.03 379.83 524.64 453.26 455.07 525.31 592.27 570.58
00009040 00000149 402.76 131.32 385.49 571.85 492.26 327.92 654.86 382.61 522.33 454.39 454.60 525.06 591.79 570.35
00009041 00000150 403.25 131.98 381.89 567.40 488.40 331.30 649.04 385.12 517.54 456.99 454.35 524.86 590.52 569.16
00009042 00000151 402.28 133.38 379.07 566.13 485.32 341.19 643.50 390.83 517.42 461.42 454.58 530.39 592.22 570.97
00009043 00000152 401.14 131.24 380.81 573.98 481.97 343.26 640.47 390.10 513.50 462.81 453.61 533.07 594.37 571.51
00009044 00000153 396.23 126.49 381.45 575.85 477.26 340.35 635.37 387.14 508.45 460.45 448.75 532.48 584.86 571.38
00009045 00000154 395.67 125.52 379.13 575.54 474.91 338.99 630.51 385.22 505.23 458.26 447.26 531.42 579.34 569.99
00009046 00000155 393.88 127.42 379.01 576.71 473.15 338.64 630.09 382.94 505.63 457.55 445.85 535.07 577.95 572.27
00009047 00000156 393.91 126.26 381.36 579.82 472.93 340.76 631.47 381.57 507.12 456.81 448.02 537.19 578.31 571.78
00009048 00000157 394.96 125.32 379.37 572.77 471.54 339.67 628.30 381.08 504.82 456.48 447.62 535.19 574.28 570.10
00009049 00000158 394.53 124.10 376.61 566.04 469.27 339.47 623.92 381.07 502.21 456.37 444.49 532.81 567.98 567.89
00009050 00000159 394.20 124.54 375.04 561.48 467.67 338.34 620.66 379.42 500.00 456.08 442.65 533.75 561.25 568.43
00009051 00000160 394.55 124.71 371.76 561.83 466.32 337.10 618.03 378.83 497.67 456.45 440.70 533.57 558.35 568.94
00009052 00000161 393.20 124.37 372.87 563.09 466.57 337.05 620.94 379.99 498.60 456.70 440.18 531.88 562.98 568.35
00009053 00000162 392.09 125.14 374.76 565.30 468.00 336.62 622.62 381.52 499.65 457.04 440.48 527.51 567.85 565.72
00009054 00000163 389.29 126.31 378.62 563.61 468.08 336.78 624.85 381.39 501.66 457.34 440.79 527.24 568.62 565.17
00009055 00000164 390.27 126.56 377.55 560.85 468.69 335.44 624.93 382.13 500.86 458.09 439.21 525.00 569.10 564.38
00009056 00000165 391.21 127.00 376.31 556.92 468.93 335.03 626.13 383.31 502.73 458.61 439.16 524.82 569.67 565.29
00009057 00000166 393.16 126.20 375.23 556.36 468.98 335.79 626.62 382.28 503.05 457.95 440.76 527.58 569.56 566.43
00009058 00000167 395.06 125.29 373.26 556.09 469.78 336.70 624.68 382.67 503.64 459.33 443.24 528.89 568.22 567.24
00009059 00000168 395.40 124.07 373.96 559.17 470.33 335.74 625.64 382.65 501.77 457.93 441.71 528.46 568.52 567.57
00009060 00000169 396.06 122.61 376.71 576.92 473.10 336.67 629.94 382.50 503.85 457.29 445.16 531.94 577.76 570.40
00009061 00000170 395.37 128.83 378.73 576.00 475.60 339.71 632.44 386.09 506.00 460.75 447.91 534.38 582.63 573.05
