Video ID: 	CaryZ1NB6N4
H: 	1080
W: 	1920
FPS: 	25.0

FRAME INDEX X0 Y0 W H [Landmarks (5 Points)]

00003788 00000000 912.11 160.13 413.82 550.65 1001.64 368.75 1197.82 369.93 1091.79 463.70 1023.52 576.54 1185.06 576.82
00003789 00000001 908.20 164.71 416.08 553.82 996.06 376.75 1192.58 373.52 1089.33 472.82 1024.88 585.58 1184.80 582.14
00003790 00000002 904.97 168.62 417.22 550.28 992.89 382.95 1188.62 377.08 1087.29 479.19 1023.60 589.86 1181.01 584.43
00003791 00000003 901.32 166.81 419.88 550.88 986.69 385.98 1182.52 379.17 1079.76 483.43 1016.40 593.94 1172.73 587.83
00003792 00000004 892.63 160.02 430.37 557.38 980.81 389.35 1174.44 377.51 1065.04 491.27 1020.31 595.78 1165.29 586.54
00003793 DELETE   890.56 165.61 429.51 551.18 976.59 389.27 1172.30 376.31 1060.60 489.46 1016.90 597.19 1161.97 587.05
00003794 00000006 887.61 166.69 428.98 553.24 972.49 390.27 1168.41 376.54 1055.44 488.46 1012.63 599.65 1156.72 589.11
00003795 00000007 885.44 161.14 423.12 554.17 968.95 389.13 1168.94 378.44 1052.70 490.49 1002.92 600.60 1158.45 589.93
00003796 00000008 882.57 157.91 419.89 559.20 965.42 387.31 1164.01 377.31 1048.43 489.78 997.76 599.13 1153.22 589.12
00003797 00000009 881.30 159.57 418.80 556.00 963.33 387.02 1160.61 377.30 1045.78 489.73 995.16 599.19 1149.51 589.49
00003798 00000010 879.73 160.00 417.61 558.06 961.61 388.06 1157.33 378.18 1043.32 489.77 991.54 599.16 1146.70 589.46
00003799 00000011 877.54 162.63 418.89 552.91 960.89 389.60 1155.67 380.91 1044.29 492.12 991.75 599.35 1146.03 590.56
00003800 00000012 875.20 164.42 422.60 555.59 960.99 393.27 1156.32 385.10 1046.04 496.99 994.26 603.25 1148.41 594.71
00003801 00000013 875.22 171.01 422.81 557.60 962.45 396.89 1156.78 387.94 1047.66 501.80 996.27 603.61 1150.10 595.05
00003802 00000014 874.30 173.63 424.56 566.47 963.84 400.15 1154.96 388.93 1049.82 505.19 1000.68 606.02 1152.52 595.80
00003803 00000015 875.63 177.31 423.28 565.06 964.13 401.81 1155.23 391.01 1049.09 507.51 999.54 606.02 1153.33 596.40
00003804 00000016 876.07 176.65 423.26 567.02 964.83 401.45 1156.22 391.10 1049.46 507.44 999.22 606.14 1153.47 596.95
00003805 00000017 877.05 175.94 421.51 559.53 964.70 401.20 1155.52 390.96 1048.22 506.88 999.47 606.26 1149.74 597.26
00003806 00000018 876.84 173.29 420.24 554.98 963.81 399.46 1154.06 390.26 1045.58 503.81 996.13 603.92 1145.60 595.50
00003807 DELETE   876.17 168.68 420.74 553.74 961.96 398.33 1153.66 388.83 1043.11 501.04 992.02 605.70 1142.47 596.53
00003808 00000020 874.49 168.56 419.55 555.04 960.04 395.11 1151.77 383.95 1041.95 499.10 990.48 606.02 1140.91 595.56
00003809 00000021 875.53 163.99 418.71 557.49 957.88 394.10 1152.68 382.37 1040.51 498.33 987.46 605.19 1144.91 594.12
00003810 00000022 874.76 162.50 418.79 553.81 955.66 393.81 1151.60 381.31 1039.99 497.04 985.67 604.23 1146.16 592.28
00003811 00000023 874.83 162.03 416.18 553.27 954.70 392.80 1150.69 380.74 1038.60 496.45 983.35 603.29 1144.19 591.85
00003812 00000024 874.43 159.22 415.72 551.85 953.43 392.41 1150.08 380.75 1038.23 497.14 983.53 606.02 1143.44 594.78
00003813 00000025 873.69 159.90 416.59 556.11 953.70 393.97 1149.88 380.43 1038.58 497.08 985.09 608.31 1143.39 595.61
00003814 DELETE   872.30 164.03 417.19 549.46 953.16 394.43 1147.28 380.32 1038.32 498.79 987.00 608.40 1142.71 594.93
00003815 00000027 872.53 165.11 417.71 546.44 953.25 395.17 1147.68 381.91 1038.41 500.05 986.33 609.05 1142.76 596.34
00003816 00000028 871.10 166.03 421.20 554.47 954.11 396.61 1147.74 383.90 1039.00 500.97 988.36 606.51 1143.04 594.19
00003817 00000029 870.02 169.04 423.99 559.43 956.07 397.90 1147.09 385.86 1040.33 501.93 990.43 604.14 1142.25 592.73
00003818 DELETE   870.18 170.13 423.53 561.59 957.27 395.63 1144.85 386.44 1037.58 501.30 986.72 600.63 1138.05 591.75
00003819 00000031 868.42 171.05 424.32 567.40 959.25 394.27 1143.55 386.38 1037.56 501.18 988.24 601.88 1135.15 594.19
00003820 00000032 867.50 172.52 424.60 564.75 957.06 393.64 1142.90 385.05 1036.37 500.83 987.25 603.54 1134.63 595.33
00003821 00000033 866.35 170.15 423.84 567.22 956.44 392.99 1142.76 384.54 1037.55 500.32 985.19 602.01 1135.09 593.88
00003822 00000034 865.33 164.67 423.67 570.50 954.10 391.50 1140.43 382.62 1036.03 498.95 983.81 599.45 1135.48 590.67
00003823 00000035 865.87 164.02 420.47 566.72 952.69 390.63 1139.76 381.05 1036.08 496.51 984.03 598.31 1135.77 589.01
00003824 00000036 864.89 165.32 421.30 564.48 951.48 388.46 1137.36 378.67 1035.04 491.47 982.67 593.28 1135.38 583.78
00003825 00000037 864.35 163.85 419.97 560.87 950.30 385.13 1136.35 375.09 1034.33 488.06 981.62 589.86 1131.49 580.38
00003826 00000038 862.57 162.04 421.81 563.95 949.13 381.53 1136.56 371.46 1033.74 483.99 981.57 587.64 1132.34 577.98
00003827 DELETE   863.86 157.46 419.58 562.30 947.89 379.06 1137.13 370.08 1031.76 481.13 981.18 586.91 1132.61 578.01
00003828 00000040 865.21 157.83 417.01 556.91 946.96 377.15 1139.04 369.92 1030.17 478.23 977.84 586.12 1132.50 578.88
00003829 00000041 866.95 154.78 413.94 555.73 947.22 379.96 1141.12 371.49 1030.47 479.37 977.07 589.79 1133.29 581.59
00003830 00000042 869.61 155.78 411.85 558.74 948.51 384.74 1140.77 375.16 1030.20 481.44 976.02 592.08 1133.05 583.60
00003831 00000043 871.04 157.48 411.34 554.27 949.06 385.79 1141.36 375.84 1030.78 483.83 977.38 592.92 1133.96 584.13
00003832 00000044 872.93 159.31 411.34 556.45 951.59 387.41 1143.41 378.49 1032.45 487.02 978.75 594.62 1135.12 586.53
00003833 00000045 873.86 159.07 412.20 559.94 954.09 388.43 1145.66 378.19 1036.23 489.43 983.94 597.71 1137.73 588.36
00003834 00000046 875.33 161.18 413.63 556.57 955.97 387.99 1148.56 378.63 1037.83 489.62 986.06 598.21 1139.25 589.42
00003835 00000047 877.56 158.75 411.94 553.66 957.38 385.35 1151.97 376.76 1039.11 488.57 988.27 599.53 1141.17 591.17
00003836 00000048 878.68 158.79 414.19 552.35 958.76 383.28 1156.86 373.98 1041.47 485.84 990.13 597.96 1145.13 588.84
00003837 00000049 879.17 154.51 413.94 548.69 959.38 380.78 1158.31 371.26 1044.80 484.43 993.81 596.90 1149.34 587.00
00003838 00000050 878.66 157.46 415.80 546.02 959.46 379.42 1160.65 369.23 1046.11 480.78 995.19 593.91 1152.85 583.19
00003839 00000051 877.41 157.92 414.48 547.40 957.89 377.84 1160.74 367.38 1045.09 475.76 993.40 591.07 1154.53 580.13
00003840 00000052 873.20 150.47 418.27 558.50 956.28 376.72 1157.21 364.34 1044.36 470.57 992.76 590.21 1152.71 577.56
00003841 00000053 869.86 151.04 418.51 560.91 954.23 376.34 1152.19 361.94 1042.58 467.79 991.84 589.84 1149.97 575.73
00003842 00000054 864.76 149.84 419.84 565.44 951.01 378.32 1146.98 361.81 1040.47 466.19 990.20 590.26 1148.18 574.70
00003843 00000055 859.19 152.69 422.54 560.85 947.62 381.30 1141.59 362.61 1039.14 469.87 990.90 590.51 1147.75 573.01
00003844 00000056 855.31 155.45 425.12 560.44 943.59 385.01 1136.97 364.45 1037.21 475.11 991.29 592.45 1147.15 573.27
00003845 DELETE   850.30 159.31 429.02 562.97 939.73 389.41 1134.92 367.06 1036.56 480.00 987.40 594.78 1149.19 574.15
00003846 00000058 844.51 164.16 432.74 563.01 938.23 389.97 1132.27 368.17 1037.86 484.08 987.57 596.29 1145.04 576.49
00003847 00000059 841.96 165.99 434.49 565.58 935.05 392.54 1128.84 369.69 1036.79 487.03 988.07 599.30 1144.84 578.70
00003848 00000060 841.19 171.94 432.12 556.66 934.07 393.88 1127.77 372.52 1035.73 487.93 984.74 597.84 1142.26 578.70
00003849 00000061 843.77 174.36 426.71 549.22 932.50 394.74 1125.82 375.31 1031.96 490.13 983.50 599.19 1137.41 581.87
00003850 00000062 844.10 175.42 424.45 542.81 930.60 395.04 1122.68 375.84 1028.42 492.16 982.38 601.82 1133.32 584.59
00003851 00000063 841.53 175.65 425.05 544.90 926.55 393.60 1120.67 374.04 1025.09 490.80 978.07 602.11 1132.94 584.62
00003852 00000064 840.00 170.95 424.61 548.72 925.84 390.14 1121.57 373.72 1023.94 490.25 975.67 602.45 1128.91 587.41
00003853 00000065 841.86 166.74 423.18 554.14 927.07 387.81 1122.14 372.75 1023.07 488.28 975.96 601.63 1128.54 587.66
00003854 00000066 845.08 164.31 421.49 555.68 929.80 387.09 1124.73 373.71 1023.68 486.13 975.59 598.90 1128.93 586.43
00003855 00000067 847.71 163.77 421.83 550.49 933.36 389.49 1127.36 374.57 1026.45 486.44 977.89 598.90 1133.76 584.92
00003856 00000068 849.97 163.76 423.90 549.37 935.18 389.80 1129.55 375.64 1026.53 486.46 977.72 597.37 1134.76 584.02
00003857 00000069 851.70 161.56 424.65 553.22 936.91 390.39 1131.33 376.91 1028.10 486.77 978.09 596.24 1136.11 583.43
00003858 00000070 853.02 160.42 425.36 556.60 937.72 391.88 1130.74 377.87 1028.74 487.91 979.53 596.90 1136.58 583.61
00003859 00000071 855.50 160.49 423.29 558.90 939.81 392.14 1131.33 378.57 1029.49 488.73 980.73 596.66 1136.81 583.94
00003860 00000072 855.70 161.49 423.19 561.83 940.62 392.30 1130.09 379.22 1029.18 489.17 978.98 596.25 1134.78 584.23
00003861 00000073 856.49 161.63 421.74 561.21 941.32 393.20 1131.33 381.23 1029.19 491.41 978.72 598.28 1132.98 587.25
00003862 00000074 857.44 165.72 421.34 557.40 941.60 394.51 1132.36 382.05 1028.86 492.09 978.10 600.76 1132.92 589.43
00003863 00000075 858.06 166.65 421.68 556.92 942.01 395.13 1132.09 382.52 1028.59 493.31 978.83 599.85 1134.06 588.37
00003864 00000076 858.83 167.46 421.41 552.15 942.18 395.31 1131.86 383.11 1028.28 493.87 978.77 598.46 1133.82 587.32
00003865 00000077 859.50 167.35 420.57 553.10 942.61 394.11 1132.76 382.42 1027.59 492.96 977.37 598.04 1132.48 587.50
00003866 00000078 861.79 164.35 418.16 551.62 942.36 393.41 1132.53 381.90 1026.31 492.51 976.05 599.35 1131.73 588.79
00003867 00000079 863.77 163.94 416.18 551.31 943.11 392.56 1133.91 381.20 1026.43 491.55 975.63 598.82 1131.84 588.52
00003868 00000080 863.56 162.50 417.39 557.81 944.24 392.29 1134.38 380.41 1028.48 491.08 976.53 597.12 1132.49 586.58
00003869 00000081 865.03 162.41 417.70 552.50 945.23 392.68 1136.71 380.60 1030.28 492.73 978.41 600.54 1133.98 589.59
00003870 00000082 864.95 165.08 419.63 550.73 946.24 393.07 1139.46 380.77 1031.98 493.57 980.21 602.00 1136.93 590.55
00003871 00000083 865.30 166.20 419.40 547.75 949.01 393.91 1141.04 383.09 1035.18 498.91 982.53 606.05 1135.21 595.66
00003872 00000084 865.39 168.12 421.86 552.67 951.70 395.61 1144.03 384.38 1038.17 501.40 985.20 607.30 1137.27 596.59
00003873 00000085 866.87 169.60 421.38 554.11 954.26 399.02 1145.62 386.62 1040.99 504.77 990.07 609.67 1139.99 598.02
00003874 00000086 867.93 170.98 424.12 559.14 955.70 401.58 1148.22 388.60 1042.37 506.14 993.10 611.26 1143.80 599.01
00003875 00000087 867.87 172.50 426.59 564.58 957.42 401.44 1150.71 388.81 1045.29 506.57 995.72 610.04 1147.70 598.01
00003876 00000088 868.45 172.46 425.83 562.73 958.61 401.15 1151.29 388.92 1047.03 507.55 997.80 609.36 1148.54 597.72
00003877 00000089 868.53 171.50 425.82 560.97 958.23 400.89 1152.73 389.04 1047.65 507.40 997.92 609.36 1150.10 597.84
00003878 00000090 868.82 170.08 424.81 562.07 958.33 400.48 1152.97 387.86 1048.00 506.56 998.26 609.78 1150.72 597.50
00003879 00000091 868.16 168.88 425.08 558.71 957.46 399.62 1152.58 387.55 1047.46 505.06 997.12 608.96 1150.08 596.94
00003880 00000092 867.39 170.18 425.09 552.99 955.79 398.59 1151.35 386.76 1045.66 505.50 994.20 608.42 1147.80 596.74
00003881 00000093 867.61 167.95 423.15 549.33 953.96 398.11 1149.54 385.57 1043.43 504.45 991.05 608.90 1145.71 596.59
00003882 00000094 867.26 166.77 421.67 548.69 953.29 398.36 1147.48 385.18 1042.27 504.28 990.64 608.85 1144.77 596.02
00003883 00000095 866.70 166.08 422.12 551.13 953.21 397.64 1145.79 384.59 1041.65 504.65 990.67 608.30 1143.05 595.61
00003884 00000096 866.01 167.61 422.81 552.44 953.87 398.20 1144.70 384.93 1041.16 504.92 990.45 610.61 1139.41 597.93
00003885 00000097 866.17 170.03 424.61 555.23 954.86 399.51 1147.76 385.45 1042.55 506.63 991.72 612.47 1141.88 599.21
00003886 00000098 867.44 171.34 424.54 556.10 955.55 402.21 1150.01 388.28 1043.29 507.03 992.23 614.08 1143.81 600.94
00003887 00000099 868.82 172.10 424.36 555.24 955.81 402.81 1152.62 389.53 1044.22 508.12 991.69 613.07 1146.79 600.40
00003888 00000100 869.56 172.45 423.92 554.13 955.84 403.96 1154.76 391.26 1045.11 509.41 991.89 614.95 1148.40 602.80
00003889 00000101 870.04 176.83 423.73 551.54 956.69 404.82 1156.48 392.53 1045.58 511.18 992.32 616.03 1148.68 604.46
00003890 00000102 869.89 177.94 424.12 554.87 957.61 405.30 1156.97 392.76 1046.26 512.54 992.91 616.61 1148.40 604.90
00003891 00000103 869.86 177.02 423.66 556.21 957.63 405.69 1155.55 392.44 1046.38 513.00 993.33 616.22 1148.20 603.86
00003892 00000104 869.46 177.69 422.98 551.57 956.56 405.35 1153.65 391.98 1044.74 511.47 992.78 615.39 1146.72 602.92
00003893 00000105 869.25 178.17 423.29 549.36 955.95 404.52 1152.33 390.97 1043.47 509.72 991.93 614.23 1145.84 601.54
00003894 00000106 869.10 176.24 421.93 547.57 955.60 403.74 1149.74 390.23 1042.17 508.51 991.26 612.92 1143.55 600.28
00003895 00000107 868.82 175.94 421.32 547.11 955.58 402.91 1149.30 388.92 1042.15 507.49 991.54 614.09 1141.93 601.17
00003896 00000108 868.27 172.68 422.12 552.43 955.38 402.37 1148.15 388.09 1041.77 507.51 991.40 613.53 1141.88 600.18
00003897 00000109 867.78 171.64 422.36 555.34 956.27 400.91 1147.97 387.31 1042.70 507.01 992.29 613.70 1140.57 600.99
00003898 00000110 868.19 171.75 422.13 552.98 956.68 400.44 1149.32 387.67 1043.38 507.00 991.90 613.43 1140.88 601.34
00003899 00000111 868.45 170.22 422.61 555.26 956.88 400.44 1149.78 387.87 1043.37 506.92 991.25 612.71 1141.14 600.69
00003900 00000112 868.77 173.86 423.17 555.35 958.00 401.12 1150.92 388.74 1043.58 507.01 991.57 611.17 1141.91 599.45
00003901 00000113 869.09 176.74 424.28 560.84 959.21 401.93 1153.25 389.61 1045.10 508.27 992.47 610.91 1144.41 599.44
00003902 00000114 869.62 179.13 424.34 560.13 959.74 402.25 1154.90 391.14 1045.76 509.75 992.45 611.07 1145.28 600.73
00003903 00000115 869.54 180.19 424.22 557.70 959.48 402.70 1155.02 391.85 1045.53 510.18 992.21 611.34 1145.46 601.17
00003904 00000116 869.77 180.79 423.95 558.87 959.62 402.70 1155.69 392.11 1045.44 509.91 991.59 611.84 1145.28 602.03
00003905 00000117 869.79 180.74 423.62 558.67 959.77 402.49 1155.66 391.75 1045.73 509.90 992.13 612.01 1145.46 602.08
00003906 00000118 869.91 178.89 423.54 559.16 959.91 402.47 1156.02 391.96 1046.53 509.44 991.72 611.36 1145.78 601.53
00003907 00000119 869.59 179.02 423.40 556.14 959.38 402.49 1155.13 391.31 1046.38 508.90 990.54 609.86 1146.03 599.40
00003908 00000120 869.30 178.30 422.64 548.00 957.91 402.37 1153.29 389.91 1045.27 508.49 990.90 610.22 1146.25 598.45
00003909 00000121 868.78 176.49 422.74 547.47 957.67 401.59 1151.86 388.83 1045.30 506.81 991.36 609.73 1144.93 597.58
00003910 00000122 867.83 172.23 423.73 550.19 957.47 398.96 1151.16 386.73 1045.67 504.74 991.60 609.37 1143.71 597.49
00003911 00000123 867.31 171.26 424.00 550.23 956.91 397.32 1149.93 385.39 1046.04 503.98 992.67 606.32 1144.78 594.66
00003912 00000124 867.32 172.05 424.97 549.90 956.64 396.97 1150.39 385.18 1045.27 501.64 991.83 605.37 1144.99 593.77
00003913 00000125 867.57 168.99 424.75 554.45 956.27 395.55 1150.44 383.96 1044.86 500.90 991.64 606.92 1144.45 595.52
00003914 00000126 867.52 167.49 424.15 550.75 956.28 395.29 1150.70 384.29 1045.31 501.02 993.33 608.03 1144.99 596.97
CROP_BBOX: 622 0 1502 870
