Video ID: 	SiLRglf6mEk
H: 	1080
W: 	1920
FPS: 	29.97002997002997

FRAME INDEX X0 Y0 W H [Landmarks (5 Points)]

00002428 00000000 533.11 314.83 445.81 616.42 603.96 588.01 778.58 583.25 665.98 738.87 682.93 802.13 826.45 795.73
00002429 00000001 525.40 299.32 449.99 625.40 598.74 573.82 766.49 569.81 659.31 730.49 681.47 797.15 815.19 791.17
00002430 00000002 520.65 290.11 450.24 623.61 592.96 566.37 756.51 560.18 649.83 718.18 674.17 784.66 803.75 776.60
00002431 00000003 513.72 287.53 451.57 617.51 583.91 563.04 746.94 549.08 642.16 710.50 668.04 780.42 795.34 766.40
00002432 00000004 509.45 288.27 453.28 614.30 580.39 560.45 744.57 546.18 639.21 711.20 667.62 779.57 794.78 765.35
00002433 00000005 511.23 289.16 452.34 614.63 582.73 561.47 744.12 547.94 640.89 712.42 670.59 779.53 796.47 765.80
00002434 00000006 514.55 289.34 454.10 619.19 587.43 560.72 747.49 550.74 643.30 714.23 676.05 779.20 801.28 768.00
00002435 00000007 518.38 289.15 454.52 623.08 593.68 562.28 752.18 554.42 649.62 717.76 686.64 782.44 811.14 772.53
00002436 00000008 521.14 293.00 457.14 623.08 598.40 563.18 759.41 557.03 655.08 721.22 691.52 784.95 820.54 776.51
00002437 00000009 524.77 294.79 457.80 626.47 603.42 565.41 765.11 560.19 660.32 722.88 695.97 786.72 825.63 779.22
00002438 00000010 530.59 294.89 455.93 622.60 607.44 566.22 767.85 559.51 665.01 722.54 701.95 787.42 829.57 778.46
00002439 00000011 535.87 295.81 454.16 625.13 610.99 569.22 772.69 561.19 670.39 724.31 704.73 792.16 832.78 781.89
00002440 00000012 537.54 298.02 458.94 626.29 615.88 570.75 781.41 560.81 681.03 725.16 709.36 794.40 839.07 782.64
00002441 00000013 539.53 298.32 469.61 625.26 620.67 572.05 791.15 562.23 690.91 730.22 718.20 797.50 848.39 785.89
00002442 00000014 547.91 309.66 471.48 618.40 632.35 576.45 805.49 569.09 703.85 742.22 732.52 802.39 862.93 792.63
00002443 00000015 564.31 318.23 472.52 623.14 648.74 583.27 817.49 575.52 711.36 751.33 741.77 804.19 872.55 796.01
00002444 DELETE   584.54 327.12 467.73 621.72 663.26 589.04 828.66 583.87 724.86 756.00 760.70 812.45 891.79 805.48
00002445 DELETE   601.67 326.92 470.47 621.84 676.51 594.46 852.54 584.61 747.51 765.31 777.41 821.30 916.77 810.16
00002446 00000018 619.94 334.85 470.97 619.89 691.70 597.54 868.72 589.43 762.36 768.49 791.84 826.44 931.12 816.35
00002447 00000019 619.40 337.20 478.48 610.41 697.03 603.47 883.26 591.20 777.70 781.07 796.88 825.02 938.30 812.68
00002448 00000020 624.68 344.86 475.61 603.17 699.86 608.60 890.42 596.74 782.08 788.96 798.46 830.51 941.66 818.76
00002449 00000021 628.00 346.36 469.93 602.18 702.45 615.05 891.59 602.33 784.57 793.78 799.49 834.25 942.14 821.58
00002450 00000022 626.39 348.20 468.84 599.74 698.50 615.21 890.21 603.02 781.45 796.32 795.88 834.50 941.39 822.24
00002451 00000023 624.47 347.76 470.01 597.74 695.94 613.59 887.94 603.57 778.03 794.35 792.81 833.10 936.49 822.72
00002452 00000024 622.45 349.91 469.99 594.87 693.28 610.46 889.47 601.73 776.65 791.28 788.90 831.34 935.12 822.04
00002453 00000025 623.93 347.08 469.45 600.71 695.78 609.90 890.87 600.68 778.60 788.57 787.92 830.94 934.57 821.31
00002454 00000026 624.95 344.62 470.83 601.77 695.94 608.16 891.17 599.97 778.06 787.86 788.09 829.32 935.03 820.50
00002455 00000027 623.92 340.99 471.66 604.16 695.81 606.59 891.05 599.74 778.13 787.11 787.81 826.66 936.29 818.84
00002456 00000028 623.87 338.81 473.21 601.14 697.07 603.23 891.11 596.19 778.98 782.55 788.61 822.57 935.97 814.61
00002457 00000029 623.94 333.45 471.32 604.27 696.04 600.09 889.89 591.85 777.80 777.48 785.14 818.95 933.30 810.02
00002458 00000030 624.53 334.21 473.97 610.28 701.58 594.54 885.32 595.71 767.86 772.27 787.58 813.61 926.71 812.83
00002459 00000031 623.81 326.92 469.42 613.11 697.67 591.39 883.89 591.88 769.32 765.54 784.55 817.29 927.66 814.51
00002460 00000032 619.47 324.76 472.27 612.24 697.47 588.71 882.11 589.68 769.38 762.86 786.36 814.94 926.00 812.61
00002461 00000033 618.07 322.81 473.22 613.03 696.80 588.06 882.56 589.19 769.93 762.28 785.09 813.82 926.38 811.63
00002462 00000034 617.19 323.37 474.24 613.21 695.54 589.14 881.31 590.24 769.31 764.28 784.70 814.80 926.38 812.73
00002463 00000035 616.74 328.38 474.02 614.29 693.31 595.61 879.29 593.62 767.08 770.31 784.43 822.83 925.27 818.02
00002464 00000036 621.44 336.41 468.96 610.36 692.98 602.83 880.28 600.66 766.38 777.24 783.54 828.57 925.04 823.16
00002465 00000037 621.31 346.68 468.57 594.58 689.93 607.55 890.43 602.51 774.43 789.49 778.19 827.49 928.35 821.17
00002466 00000038 630.02 349.41 464.28 592.55 693.84 608.32 894.32 603.10 776.37 791.54 781.48 830.19 932.11 823.80
00002467 00000039 642.43 349.52 462.84 596.97 712.73 604.88 897.83 603.53 779.92 776.23 797.03 823.88 936.06 822.00
00002468 00000040 652.66 336.99 458.88 603.88 723.25 595.81 906.80 596.81 790.32 766.94 804.20 817.15 945.03 816.93
00002469 00000041 656.88 330.72 458.80 604.52 728.49 591.71 911.36 593.91 796.74 766.01 810.04 814.23 952.18 814.44
00002470 00000042 658.55 326.04 461.76 602.22 732.44 585.74 918.78 590.08 802.29 761.79 811.80 808.33 957.47 810.11
00002471 00000043 668.06 321.12 456.30 600.75 742.03 575.95 927.87 583.52 808.89 752.08 817.65 800.67 963.18 804.74
00002472 00000044 670.50 307.11 461.52 610.10 747.92 573.27 934.42 581.01 817.69 747.51 826.31 796.54 969.82 800.22
00002473 00000045 678.32 311.16 458.59 603.36 751.97 568.12 943.62 577.23 821.97 744.97 826.34 792.98 975.82 797.70
00002474 00000046 682.68 307.85 462.38 605.64 754.39 567.27 948.82 577.14 824.98 744.63 828.14 796.20 977.57 801.12
00002475 00000047 685.20 307.23 462.76 605.69 757.28 568.21 953.23 578.19 828.60 745.20 830.67 797.27 980.24 802.14
00002476 00000048 685.36 307.76 462.97 605.56 758.30 568.42 953.66 578.58 829.69 744.99 832.20 796.86 981.22 801.85
00002477 00000049 685.33 307.40 462.75 605.41 758.21 567.84 953.57 578.07 829.31 744.38 831.43 795.85 981.33 800.94
00002478 00000050 686.89 300.76 460.53 609.11 759.04 565.77 954.19 576.37 830.98 741.68 831.25 794.75 980.52 799.97
00002479 00000051 686.88 300.01 461.57 605.35 759.04 562.79 953.86 573.16 829.78 735.22 830.96 789.64 981.26 794.45
00002480 00000052 686.37 297.00 460.03 604.09 760.23 559.57 955.24 569.19 833.12 731.87 831.00 782.05 982.37 786.51
00002481 00000053 687.78 293.41 458.15 605.57 760.86 558.20 954.95 565.39 834.58 725.83 831.60 779.22 983.71 781.67
00002482 00000054 688.01 293.35 458.72 604.72 761.20 556.73 954.35 562.32 834.85 723.78 832.43 776.08 985.69 777.24
00002483 00000055 687.40 288.73 458.56 608.84 761.29 555.07 952.96 560.87 834.70 723.08 833.81 774.87 986.08 776.22
00002484 00000056 687.30 290.20 458.24 608.74 761.75 554.30 952.34 559.30 835.22 722.20 834.50 773.88 986.31 774.74
00002485 00000057 687.92 290.40 456.89 608.03 762.06 555.43 951.53 558.71 835.56 720.75 834.82 774.90 986.44 774.21
00002486 00000058 687.47 290.15 457.11 606.97 763.24 556.26 951.83 562.17 835.51 719.76 834.93 771.60 985.75 773.00
00002487 00000059 688.74 283.63 455.53 609.39 762.30 553.62 951.20 558.52 835.58 715.31 835.89 771.80 984.96 772.17
00002488 00000060 695.58 277.27 448.19 616.37 762.66 551.66 955.16 555.40 829.64 717.15 831.60 772.24 980.95 772.74
00002489 00000061 691.75 275.67 456.39 611.09 762.51 543.68 955.72 545.50 835.78 713.06 829.21 759.44 980.73 760.59
00002490 00000062 691.27 270.21 461.18 609.38 761.42 532.90 958.11 538.03 833.82 707.10 827.35 749.26 981.07 752.81
00002491 00000063 698.71 251.62 449.61 620.64 765.14 517.23 954.45 521.72 833.68 686.22 833.69 743.54 985.57 744.36
00002492 00000064 700.21 238.22 446.78 620.02 769.62 507.34 957.03 514.08 834.78 672.71 836.66 733.67 986.28 735.94
00002493 00000065 700.93 227.38 447.04 615.35 771.57 497.20 959.97 503.78 840.12 662.93 839.60 722.74 987.17 724.81
00002494 00000066 701.08 218.34 449.53 615.74 771.04 491.99 961.35 495.68 841.35 656.27 839.50 716.12 989.84 715.59
00002495 00000067 704.59 208.01 441.87 618.80 773.80 485.46 958.76 487.83 842.51 645.13 838.91 705.85 988.38 704.54
00002496 00000068 709.04 210.62 440.54 620.96 772.64 480.16 963.30 479.62 843.65 647.63 833.96 702.71 981.96 702.56
00002497 00000069 709.76 207.92 440.60 618.63 772.07 475.98 965.32 477.86 843.56 643.63 830.89 697.95 981.95 699.85
00002498 00000070 712.81 210.74 437.85 612.49 774.28 475.84 966.86 477.70 846.03 640.62 832.56 696.37 982.26 698.33
00002499 00000071 715.88 208.41 437.07 615.30 777.30 476.04 971.45 478.83 850.07 642.25 836.12 696.99 985.95 699.91
00002500 00000072 719.36 212.37 434.74 609.29 780.70 476.42 973.30 479.26 852.41 640.64 839.98 696.60 987.61 699.67
00002501 00000073 724.31 206.10 431.40 619.62 785.28 477.24 974.65 480.50 855.85 641.31 844.29 698.42 990.56 701.49
00002502 00000074 725.40 209.38 432.97 619.70 786.61 478.40 975.11 480.87 857.49 642.58 845.89 699.06 992.96 701.38
00002503 00000075 726.85 212.52 432.61 617.80 788.07 479.82 975.90 481.40 859.09 643.20 849.17 700.57 994.98 702.00
00002504 00000076 722.05 209.28 441.65 615.72 781.55 481.50 984.52 477.38 860.68 648.44 844.44 706.25 997.77 701.45
00002505 00000077 723.67 211.62 439.61 615.47 782.16 482.88 986.09 479.42 860.42 648.22 843.40 706.12 999.45 701.74
00002506 00000078 723.28 212.64 438.56 616.18 781.60 483.34 987.08 479.80 861.29 649.82 840.98 708.15 997.39 703.81
00002507 00000079 722.79 211.95 437.60 617.83 780.01 485.03 984.69 481.40 859.21 650.15 837.38 708.91 994.52 704.27
00002508 00000080 720.40 213.31 436.96 619.59 778.77 486.17 984.56 483.74 857.92 650.29 834.61 710.35 991.45 706.60
00002509 00000081 721.06 215.03 431.97 616.94 786.71 488.99 970.11 491.43 850.18 642.55 841.76 706.94 991.33 706.16
00002510 00000082 721.02 217.52 435.91 620.73 779.21 486.97 985.79 484.44 857.33 651.22 832.20 712.67 990.65 708.86
00002511 00000083 721.69 217.80 428.34 615.31 786.73 487.30 970.69 490.48 849.03 640.96 837.87 706.48 988.25 706.57
00002512 00000084 722.58 220.53 423.96 612.33 788.05 485.42 971.25 490.44 849.49 639.29 837.33 705.03 986.49 706.72
00002513 00000085 721.72 220.85 424.25 610.17 788.18 483.17 970.92 488.95 849.31 637.68 836.90 702.24 986.38 704.47
00002514 00000086 723.61 217.63 423.81 610.19 788.98 480.16 971.43 484.49 850.22 632.55 838.15 700.60 985.50 701.63
00002515 00000087 725.58 217.50 421.24 607.06 789.89 476.61 972.27 480.24 850.55 627.95 836.29 695.69 985.31 696.20
00002516 00000088 725.99 217.08 424.69 608.21 784.82 472.72 990.13 475.18 862.48 636.27 830.89 698.66 986.61 700.33
00002517 00000089 729.10 211.97 424.05 612.39 789.72 471.14 993.32 474.17 866.64 631.69 832.99 695.64 990.37 697.86
00002518 00000090 738.54 209.76 416.37 613.50 802.26 465.46 994.99 471.53 876.11 618.66 842.46 687.94 991.60 693.77
00002519 00000091 742.86 210.12 417.32 610.64 809.66 464.02 1003.42 469.07 884.18 614.41 848.68 685.63 996.36 690.57
00002520 00000092 747.63 209.30 417.12 610.67 814.25 463.85 1007.19 468.35 888.36 613.31 852.96 685.37 1000.34 689.83
00002521 00000093 751.15 209.01 415.41 608.99 816.70 463.52 1008.66 470.56 888.71 614.67 853.73 683.40 1002.09 689.72
00002522 00000094 751.42 208.76 414.69 609.15 817.91 463.94 1009.29 471.95 889.56 614.89 853.91 682.79 1000.60 690.04
00002523 00000095 750.14 213.16 413.30 605.25 818.23 465.61 1009.90 473.64 891.73 616.26 854.53 683.15 1001.08 690.37
00002524 00000096 750.37 218.29 411.16 597.57 819.19 465.49 1011.09 474.96 893.05 615.56 853.29 682.23 998.84 690.54
00002525 00000097 751.39 216.58 412.64 598.86 821.05 464.93 1013.11 474.51 894.78 614.87 854.21 681.74 1000.14 690.12
00002526 00000098 752.77 213.22 413.03 600.51 822.16 462.61 1016.46 473.87 896.07 613.67 852.88 679.56 1002.80 689.29
00002527 00000099 753.03 209.68 412.26 602.74 822.47 460.91 1018.37 473.60 895.89 612.82 852.22 677.62 1005.06 688.27
00002528 00000100 751.37 207.50 410.96 604.47 823.08 459.35 1017.82 472.47 897.14 608.99 850.25 676.38 1001.11 687.54
00002529 00000101 749.01 199.89 408.01 613.04 821.40 453.97 1016.58 468.10 895.31 606.56 848.20 673.70 1000.99 685.55
00002530 00000102 747.96 184.28 407.38 627.83 817.26 449.38 1012.14 463.87 887.91 602.19 844.40 669.43 1000.95 681.21
00002531 00000103 746.82 182.49 405.78 638.98 813.07 445.70 1004.72 458.19 880.12 596.98 841.60 667.01 1002.06 676.84
00002532 00000104 737.85 183.25 405.58 627.79 807.10 452.05 994.19 457.00 868.38 592.69 835.34 669.66 996.63 670.94
00002533 00000105 749.61 172.84 401.52 647.08 816.86 440.69 1005.98 456.26 879.70 588.61 840.02 662.41 998.74 674.75
00002534 00000106 753.74 174.35 400.55 640.33 823.24 439.79 1011.39 457.70 885.28 588.78 845.23 660.89 999.53 675.44
00002535 00000107 759.45 176.62 402.61 633.24 831.90 442.27 1022.10 458.91 897.74 591.42 851.04 659.05 1008.33 672.42
00002536 00000108 766.75 179.55 402.61 621.96 845.84 446.75 1032.81 463.53 912.94 586.16 859.35 655.84 1010.49 669.36
00002537 DELETE   768.17 184.02 406.90 618.05 854.83 449.51 1046.65 464.17 926.51 583.71 866.98 656.34 1020.47 668.41
00002538 00000110 775.31 183.02 406.85 620.51 869.59 442.85 1057.18 460.23 942.25 581.33 875.19 654.89 1025.33 669.73
00002539 DELETE   782.99 177.70 403.90 629.36 879.05 438.31 1062.59 459.62 949.82 580.61 882.23 656.82 1027.42 674.66
00002540 00000112 788.95 186.73 401.93 621.74 889.60 440.04 1070.70 457.24 964.07 578.11 894.48 658.15 1033.41 671.17
00002541 00000113 794.49 184.34 405.95 622.56 901.76 432.46 1081.26 458.61 972.86 578.56 899.13 652.68 1042.64 674.60
00002542 00000114 802.72 173.61 407.56 631.18 914.13 432.44 1102.58 463.15 994.91 575.07 903.70 644.62 1047.00 671.87
00002543 00000115 798.41 180.49 408.09 626.81 912.55 432.90 1093.75 460.48 987.35 576.16 905.61 651.24 1052.22 674.38
00002544 00000116 798.08 181.47 408.83 632.47 913.46 434.26 1093.97 461.48 987.78 578.41 905.50 654.48 1052.32 677.33
00002545 00000117 793.57 181.60 409.17 634.73 906.03 433.90 1090.03 463.40 979.36 582.14 895.74 654.48 1047.33 679.03
00002546 00000118 786.87 185.23 407.54 633.03 896.63 431.92 1084.05 462.87 970.33 583.17 885.54 652.90 1042.17 678.68
00002547 00000119 780.90 188.62 406.18 631.75 890.25 438.78 1076.04 465.83 966.99 582.30 880.48 654.75 1037.16 675.96
00002548 00000120 768.58 188.99 412.71 629.15 878.70 439.65 1069.99 469.70 953.79 587.24 863.85 649.41 1027.30 674.84
00002549 00000121 762.65 195.98 415.18 623.98 872.71 447.59 1065.32 473.31 952.27 593.12 860.86 654.34 1025.83 676.19
00002550 00000122 761.80 201.38 415.60 623.31 871.68 453.74 1064.10 475.95 953.63 598.00 861.48 659.70 1026.83 678.49
00002551 00000123 760.93 203.53 417.56 626.52 873.19 458.95 1066.93 479.15 957.52 600.15 863.36 664.25 1030.28 681.33
00002552 00000124 761.45 208.73 416.46 620.50 873.75 461.87 1068.00 480.82 959.76 603.35 865.44 667.44 1030.96 683.56
00002553 00000125 760.49 211.43 417.27 619.15 874.41 465.29 1066.52 483.59 960.92 607.60 867.32 669.21 1030.32 684.72
00002554 00000126 757.71 213.33 417.31 617.08 871.77 470.50 1060.70 486.61 957.75 610.87 867.00 671.50 1025.90 685.24
00002555 00000127 754.17 215.00 415.39 610.58 867.03 473.53 1055.29 490.73 952.00 611.23 863.87 671.29 1018.84 685.93
00002556 00000128 750.17 216.05 413.28 610.57 861.42 474.31 1050.22 490.57 945.74 613.29 858.44 671.65 1011.91 685.82
00002557 00000129 746.25 215.77 412.81 613.63 854.44 473.91 1046.13 490.28 939.76 613.94 852.68 673.99 1006.33 688.36
00002558 00000130 742.87 210.89 411.77 615.56 850.05 472.37 1044.68 489.35 936.65 612.67 849.08 673.39 1004.28 688.26
00002559 00000131 732.13 201.42 416.30 615.40 842.74 472.14 1033.77 486.92 930.47 617.94 847.69 677.95 1011.16 689.41
00002560 00000132 730.52 201.35 415.38 618.97 841.51 471.62 1032.16 486.31 929.57 617.32 846.75 676.61 1012.66 687.76
00002561 00000133 728.89 203.85 414.89 614.45 838.01 471.58 1028.78 486.11 925.60 616.06 844.10 675.67 1009.81 686.64
00002562 00000134 727.19 205.21 414.08 607.61 829.00 469.42 1019.66 483.46 912.04 612.44 836.74 675.57 999.26 686.14
00002563 00000135 721.63 208.40 409.33 610.41 816.58 464.59 1002.86 480.24 892.33 608.72 824.08 675.12 982.66 687.14
00002564 00000136 715.00 209.35 407.69 616.47 799.71 462.48 981.24 480.27 864.33 607.88 804.09 676.27 961.53 690.39
00002565 00000137 707.53 221.22 406.55 604.82 783.30 464.03 965.19 486.65 836.95 608.64 783.65 674.57 941.22 691.75
00002566 00000138 703.22 224.01 398.27 605.77 770.14 464.02 952.21 491.95 817.45 616.94 772.91 678.68 925.47 699.89
00002567 00000139 697.03 228.24 400.14 604.95 760.51 463.36 946.50 494.37 806.96 620.05 764.78 680.66 917.03 704.51
00002568 00000140 694.94 228.46 398.48 605.77 755.79 466.12 939.31 495.16 801.78 621.64 765.24 684.20 912.91 706.33
00002569 00000141 691.63 222.29 402.32 610.14 752.69 466.79 938.73 494.10 802.38 622.43 765.30 682.94 917.98 703.29
00002570 00000142 689.89 220.79 404.48 614.61 751.05 467.02 939.13 494.57 801.24 626.69 764.91 684.43 920.23 704.84
00002571 00000143 689.85 219.29 403.37 621.02 750.97 467.87 940.22 494.05 803.14 627.78 765.28 689.91 920.60 709.48
00002572 00000144 690.89 221.54 403.30 626.44 753.26 471.12 942.80 494.27 807.79 628.28 767.45 696.73 921.68 714.31
00002573 00000145 693.14 224.55 402.08 623.44 757.82 473.49 947.52 495.09 814.67 629.19 770.78 698.76 925.30 715.40
00002574 00000146 694.26 223.24 402.25 622.81 761.68 474.95 950.96 496.84 820.56 633.23 774.71 699.99 927.92 717.07
00002575 00000147 694.84 224.72 402.51 619.55 763.16 475.46 951.86 496.69 822.81 633.63 778.17 701.49 930.09 718.11
00002576 00000148 694.27 223.04 403.00 620.48 761.43 475.47 951.59 496.72 821.69 633.46 776.21 701.85 928.49 718.51
00002577 00000149 691.51 220.71 401.26 619.94 758.13 474.78 948.05 497.99 816.20 632.52 771.05 699.38 920.54 717.67
00002578 00000150 686.23 219.62 402.82 620.18 751.17 474.51 943.16 498.90 808.38 633.96 764.97 697.33 915.20 716.42
00002579 00000151 680.25 210.55 404.81 633.68 741.03 475.87 933.71 498.65 797.29 636.27 752.63 700.64 906.79 719.90
00002580 00000152 676.86 212.88 407.45 630.83 738.96 475.83 932.43 496.22 796.74 634.88 751.54 699.23 908.35 716.41
00002581 00000153 675.95 214.77 409.51 626.48 739.14 475.31 933.04 496.09 799.09 635.83 753.40 696.82 909.98 714.26
00002582 00000154 678.89 214.87 405.90 622.19 742.37 474.35 938.74 494.92 805.21 634.55 756.42 695.58 915.54 712.82
00002583 00000155 680.28 212.63 404.33 622.15 743.25 472.76 940.91 493.25 808.82 634.92 757.99 694.13 918.22 711.26
00002584 00000156 677.94 210.47 405.29 623.30 742.94 472.12 941.63 493.17 809.28 633.89 756.58 689.90 922.35 707.13
00002585 00000157 677.36 211.59 406.01 621.44 741.75 471.21 939.55 493.73 805.91 631.87 753.59 686.95 918.81 705.38
00002586 00000158 678.64 212.96 405.27 618.79 742.35 469.69 938.21 493.60 803.80 629.30 752.65 684.76 916.61 704.41
00002587 00000159 680.46 210.47 405.94 625.19 743.41 470.07 939.75 493.15 805.20 629.22 755.00 686.62 919.51 705.57
00002588 00000160 683.32 218.42 406.25 618.27 749.76 466.50 945.68 491.19 813.10 629.46 765.28 687.91 922.58 706.81
00002589 00000161 684.92 218.55 406.96 619.82 752.45 466.14 947.67 490.40 815.11 628.52 766.50 688.13 922.41 706.94
00002590 00000162 687.13 220.22 406.05 618.53 755.14 465.53 950.19 488.93 818.71 626.66 768.34 688.32 923.92 706.62
00002591 00000163 688.55 217.84 407.53 620.51 754.81 464.94 949.84 486.68 818.26 625.81 770.63 688.42 926.77 705.15
00002592 00000164 690.34 220.37 407.75 616.61 754.10 465.39 948.91 487.70 815.23 626.87 770.11 689.26 926.77 706.31
00002593 00000165 690.41 221.83 408.14 616.35 753.52 465.33 947.96 487.43 814.35 627.50 769.59 691.86 925.45 708.79
00002594 00000166 691.63 221.82 407.95 618.07 752.43 462.76 948.15 486.02 811.47 628.30 767.70 692.62 924.39 710.50
00002595 00000167 692.53 221.41 408.00 619.82 752.60 462.51 947.90 485.93 810.42 629.15 767.59 693.86 924.19 711.84
00002596 00000168 693.63 221.39 408.01 620.27 753.77 463.28 948.35 485.87 810.86 628.17 768.78 695.15 925.31 712.48
00002597 00000169 693.76 222.70 409.91 619.52 754.19 464.76 948.84 486.88 810.77 628.60 769.16 695.94 926.38 712.86
