Video ID: 	hAZGlzH8z5M
H: 	1080
W: 	1920
FPS: 	23.976023976023978

FRAME INDEX X0 Y0 W H [Landmarks (5 Points)]

00007909 00000000 1155.37 243.10 391.57 518.88 1241.58 401.44 1413.46 396.16 1320.49 508.93 1274.33 608.54 1400.01 603.65
00007910 DELETE   1159.60 233.91 390.57 519.04 1246.27 397.61 1418.58 390.33 1324.14 501.95 1275.75 599.93 1405.34 592.93
00007911 00000002 1158.10 188.97 398.65 559.71 1248.25 387.79 1424.42 377.90 1327.99 490.02 1276.27 587.75 1413.80 578.38
00007912 00000003 1157.18 174.63 402.45 568.22 1249.70 372.72 1422.98 368.10 1327.63 480.54 1278.81 577.64 1418.62 573.09
00007913 00000004 1158.60 174.33 402.50 571.74 1253.74 371.01 1427.50 367.97 1332.68 481.99 1280.29 577.95 1423.03 574.67
00007914 00000005 1162.88 185.81 398.08 574.92 1259.37 383.47 1435.44 378.80 1338.56 490.85 1282.31 587.15 1424.19 581.92
00007915 00000006 1169.19 229.18 394.83 539.16 1263.03 388.04 1436.35 384.88 1342.91 499.45 1286.10 594.41 1425.11 590.66
00007916 00000007 1170.55 234.53 393.68 529.52 1264.02 392.65 1436.19 391.36 1343.42 502.85 1288.12 596.32 1423.75 594.03
00007917 00000008 1169.06 232.81 392.67 522.73 1263.18 390.92 1434.91 391.22 1341.74 499.89 1285.20 591.19 1420.59 590.26
00007918 00000009 1167.32 227.28 398.71 525.69 1262.79 387.93 1436.18 386.87 1342.82 497.89 1286.37 588.27 1423.48 585.75
00007919 00000010 1166.91 219.43 399.55 533.81 1264.69 384.74 1438.37 383.60 1346.03 496.73 1288.78 588.10 1424.02 585.55
00007920 00000011 1167.77 210.87 399.23 541.49 1264.53 383.95 1438.02 382.07 1345.63 495.54 1290.40 589.39 1421.96 586.29
00007921 00000012 1167.86 207.98 397.77 544.95 1263.96 385.23 1437.58 381.85 1346.03 495.78 1291.22 592.32 1421.02 588.32
00007922 00000013 1167.87 211.68 398.10 541.11 1264.23 385.27 1438.29 382.78 1346.08 496.11 1291.48 593.46 1420.07 590.35
00007923 00000014 1169.13 207.33 396.47 543.78 1263.90 386.75 1438.50 383.17 1346.82 497.25 1293.18 596.21 1419.95 592.25
00007924 00000015 1169.93 207.27 396.71 543.79 1264.08 387.00 1439.15 383.17 1346.71 496.46 1293.91 596.30 1421.02 592.14
00007925 00000016 1169.87 202.64 399.59 551.26 1265.18 384.06 1439.97 381.32 1344.93 492.77 1291.93 594.97 1418.22 591.94
00007926 00000017 1172.41 195.04 397.31 558.24 1265.06 380.30 1440.65 376.74 1343.22 488.22 1291.72 592.35 1418.31 588.84
00007927 00000018 1176.33 199.09 393.32 553.30 1267.32 376.17 1442.45 374.21 1344.27 484.17 1291.71 588.00 1418.50 586.27
00007928 00000019 1176.72 180.81 392.50 555.81 1267.59 368.97 1437.97 369.79 1337.99 477.25 1289.52 575.81 1420.91 576.31
00007929 00000020 1179.66 176.44 389.74 549.38 1265.94 362.85 1436.90 366.09 1332.80 468.48 1284.10 564.06 1419.64 566.59
00007930 00000021 1177.40 168.43 390.01 541.07 1257.71 358.81 1434.31 358.27 1326.92 455.43 1276.97 556.34 1414.33 555.83
00007931 00000022 1178.83 161.61 387.19 543.77 1255.32 352.66 1432.74 352.88 1322.98 449.94 1274.46 553.26 1408.33 553.66
00007932 00000023 1178.17 160.66 384.81 546.16 1257.74 350.29 1427.94 348.99 1323.38 446.70 1279.71 554.63 1400.89 554.40
00007933 00000024 1175.17 156.41 388.16 565.70 1257.69 352.05 1430.65 347.66 1323.62 446.30 1278.92 566.29 1399.86 563.06
00007934 00000025 1175.76 160.89 387.84 558.45 1259.42 352.89 1432.55 348.07 1325.96 445.72 1282.36 566.75 1402.05 563.22
00007935 00000026 1174.22 158.58 390.34 558.41 1260.21 348.51 1433.50 342.63 1328.88 439.70 1284.58 561.73 1404.57 557.14
00007936 00000027 1172.15 160.57 397.31 562.67 1260.91 341.16 1437.91 333.50 1333.74 435.92 1289.37 557.00 1419.50 549.65
00007937 00000028 1171.65 164.40 398.90 546.71 1260.04 339.77 1436.47 331.06 1336.54 430.06 1289.55 545.40 1429.08 536.73
00007938 00000029 1172.26 154.76 399.90 552.19 1259.21 340.41 1438.36 331.18 1337.09 426.79 1284.14 538.67 1436.29 529.34
00007939 00000030 1167.53 164.60 399.32 542.87 1257.98 336.24 1433.80 326.59 1334.20 422.14 1281.17 535.84 1427.82 526.91
00007940 00000031 1166.97 165.66 398.82 542.88 1256.99 329.28 1433.61 316.98 1333.27 419.29 1281.66 535.19 1424.57 524.39
00007941 00000032 1164.84 165.59 399.68 537.99 1256.20 324.71 1432.16 313.29 1332.74 417.18 1280.16 531.05 1421.70 520.78
00007942 00000033 1163.22 162.61 401.07 539.84 1256.56 322.65 1433.05 313.30 1333.11 416.79 1279.98 530.14 1419.81 521.54
00007943 00000034 1165.56 165.60 398.71 542.29 1256.85 330.88 1435.00 321.34 1333.16 422.36 1280.67 539.54 1419.48 531.00
00007944 00000035 1165.20 167.92 402.89 549.73 1254.51 339.91 1436.31 329.64 1332.25 430.39 1282.42 552.65 1422.29 543.11
00007945 00000036 1167.66 171.17 399.63 548.39 1255.24 348.64 1435.21 336.99 1332.19 435.19 1283.76 557.79 1424.65 547.30
00007946 00000037 1168.64 170.49 398.20 544.33 1255.63 351.95 1435.66 340.86 1332.63 434.21 1280.88 554.35 1425.66 544.35
00007947 00000038 1167.78 166.97 399.12 543.77 1254.99 347.80 1436.91 338.28 1333.39 435.21 1281.82 553.22 1425.43 544.11
00007948 00000039 1169.18 162.08 399.77 548.21 1256.97 344.91 1438.82 336.79 1336.23 434.15 1283.15 549.33 1430.18 541.08
00007949 00000040 1169.37 164.17 400.27 543.16 1257.79 344.30 1438.72 336.87 1336.84 433.84 1284.41 547.28 1430.55 539.52
00007950 00000041 1169.08 165.40 399.20 540.67 1258.51 345.04 1436.03 338.67 1337.15 435.77 1284.65 546.16 1427.47 539.41
00007951 00000042 1169.78 158.13 397.09 547.86 1258.01 350.69 1432.54 343.10 1334.77 439.47 1284.63 547.45 1424.52 539.87
00007952 00000043 1172.42 164.82 390.26 543.14 1260.04 360.34 1430.87 350.67 1334.31 444.73 1286.85 553.23 1420.65 544.27
00007953 00000044 1170.46 167.06 391.54 546.86 1258.02 362.42 1432.52 354.35 1334.00 453.26 1285.17 560.66 1417.42 553.26
00007954 00000045 1171.21 158.06 391.18 562.27 1257.41 362.40 1432.55 355.63 1331.89 458.86 1285.23 565.41 1417.32 558.91
00007955 00000046 1172.78 150.71 391.28 575.13 1258.92 361.56 1434.81 356.05 1334.72 462.94 1288.02 568.89 1419.11 563.16
00007956 00000047 1171.65 154.77 395.09 578.88 1259.68 359.52 1438.60 354.61 1336.83 464.32 1288.95 572.89 1421.27 567.33
00007957 00000048 1172.78 155.32 395.72 585.30 1261.80 356.25 1440.66 352.74 1337.09 465.23 1288.73 575.35 1419.52 571.25
00007958 00000049 1174.45 156.19 392.03 580.03 1263.04 354.28 1441.86 351.74 1339.29 464.21 1289.48 574.82 1417.71 571.76
00007959 00000050 1172.85 157.06 392.91 574.63 1262.42 354.20 1440.73 352.49 1339.96 463.02 1289.30 572.98 1414.88 570.88
00007960 00000051 1172.69 159.48 394.43 568.70 1264.07 355.05 1442.71 352.64 1342.52 462.13 1290.35 570.47 1417.72 567.60
00007961 00000052 1173.35 157.48 394.78 567.98 1263.97 356.72 1443.07 354.18 1342.60 463.27 1290.63 568.26 1420.88 564.82
00007962 00000053 1172.58 151.92 393.89 580.56 1263.14 358.69 1443.09 356.43 1342.21 467.88 1289.16 571.41 1424.45 567.78
00007963 00000054 1169.62 154.97 396.14 588.73 1263.71 360.60 1441.96 358.26 1341.82 471.96 1290.19 579.04 1423.51 575.49
00007964 00000055 1169.74 151.89 394.13 581.05 1260.03 362.48 1439.96 357.81 1339.83 468.30 1288.15 573.41 1425.26 567.91
00007965 00000056 1166.43 149.05 396.92 583.24 1257.38 359.81 1439.16 355.69 1338.83 463.25 1285.66 572.52 1420.93 567.54
00007966 00000057 1166.03 153.15 397.88 582.01 1257.70 359.37 1439.27 355.86 1339.56 464.42 1285.67 574.48 1419.46 570.13
00007967 00000058 1165.60 150.27 396.50 586.02 1257.40 361.56 1437.99 359.27 1336.94 470.04 1284.56 575.33 1419.05 571.84
00007968 00000059 1164.85 160.48 399.45 577.36 1256.60 362.47 1434.93 359.36 1335.26 474.04 1284.09 575.71 1420.27 571.66
00007969 00000060 1164.91 155.98 398.38 578.00 1256.36 364.61 1433.83 361.14 1335.95 473.98 1281.62 571.40 1422.44 567.32
00007970 00000061 1167.12 161.17 398.09 571.55 1258.03 362.83 1435.56 361.25 1335.44 471.25 1280.02 568.21 1422.67 565.82
00007971 00000062 1169.28 159.75 394.67 572.06 1258.63 359.71 1436.41 359.39 1334.58 467.83 1279.03 567.14 1419.57 566.01
00007972 00000063 1169.96 155.67 393.51 572.77 1259.03 358.62 1438.31 358.71 1335.77 466.82 1280.76 566.21 1419.66 565.13
00007973 00000064 1171.54 155.26 393.92 569.74 1260.87 358.91 1440.47 358.38 1338.04 463.91 1283.11 564.69 1421.67 562.94
00007974 00000065 1170.24 158.74 395.23 566.64 1261.90 359.86 1442.39 360.11 1340.46 464.44 1282.43 563.87 1423.85 562.70
00007975 00000066 1172.56 159.82 394.35 557.81 1262.25 360.72 1442.02 359.18 1341.81 464.18 1285.42 560.94 1426.92 558.30
00007976 00000067 1173.53 153.95 395.52 558.41 1262.64 363.29 1441.91 360.55 1343.64 463.58 1287.26 559.38 1430.60 555.73
00007977 00000068 1174.96 156.16 399.04 564.37 1265.23 361.57 1445.91 359.08 1345.61 461.85 1289.09 559.81 1436.28 556.09
00007978 00000069 1178.66 150.55 394.65 584.30 1272.00 356.83 1450.07 354.39 1350.95 457.38 1292.13 561.85 1440.55 558.32
00007979 00000070 1182.87 166.49 393.88 573.72 1274.99 358.08 1452.45 356.22 1349.73 452.67 1291.01 561.09 1443.88 558.43
00007980 00000071 1182.34 173.42 395.38 570.00 1274.94 361.91 1452.14 357.06 1349.99 452.61 1292.73 564.38 1447.94 559.11
00007981 00000072 1177.09 178.23 404.45 574.08 1271.83 362.72 1453.17 355.40 1350.84 454.08 1295.11 572.89 1449.71 565.20
00007982 00000073 1169.16 185.17 411.64 576.77 1272.36 369.54 1454.54 357.04 1361.08 464.93 1300.43 580.81 1450.73 568.31
00007983 00000074 1170.52 166.29 400.18 570.22 1268.23 373.39 1445.54 357.61 1354.01 462.16 1301.51 575.53 1445.90 560.39
00007984 00000075 1165.44 167.72 398.88 559.92 1261.64 377.72 1436.88 360.48 1350.75 467.72 1301.63 575.18 1442.63 558.97
00007985 00000076 1163.56 176.82 401.23 559.74 1259.95 386.11 1427.22 364.31 1346.69 476.05 1302.32 582.61 1439.17 562.92
00007986 00000077 1154.19 178.86 404.80 562.08 1249.06 390.06 1414.79 365.49 1337.95 479.20 1293.82 584.55 1436.28 562.70
00007987 00000078 1144.99 184.60 405.02 559.05 1239.99 390.36 1408.47 368.13 1330.59 484.80 1285.40 584.24 1432.12 564.44
00007988 00000079 1135.44 203.09 405.50 542.29 1231.28 400.43 1399.66 373.69 1323.27 488.34 1278.03 588.00 1426.82 564.60
00007989 00000080 1127.44 216.08 404.40 536.46 1225.20 401.34 1390.98 376.90 1314.57 489.93 1278.18 596.85 1407.43 574.02
00007990 00000081 1123.63 229.87 409.66 535.29 1216.73 404.50 1384.85 373.50 1310.92 490.73 1283.63 611.36 1410.42 583.87
00007991 00000082 1118.82 229.36 412.53 537.99 1214.26 411.91 1382.05 379.70 1310.20 497.58 1283.35 618.02 1408.98 589.75
00007992 00000083 1112.11 219.53 417.23 542.86 1207.61 416.60 1379.79 380.31 1309.57 506.75 1281.29 624.65 1407.45 593.07
00007993 00000084 1114.67 218.94 414.75 531.33 1206.57 419.54 1380.38 382.64 1307.22 507.86 1274.22 617.86 1408.68 585.43
00007994 00000085 1117.68 217.64 411.96 533.08 1212.39 410.18 1385.46 377.85 1310.73 498.92 1275.18 607.31 1412.80 577.88
00007995 DELETE   1120.46 197.25 408.88 548.84 1220.65 402.59 1391.15 368.73 1320.19 493.50 1286.16 601.62 1424.13 572.25
00007996 DELETE   1129.77 190.71 403.27 552.83 1232.98 392.33 1399.67 362.13 1333.71 481.13 1294.95 591.86 1435.11 565.23
00007997 DELETE   1137.77 205.27 394.01 532.86 1240.84 397.97 1404.31 361.98 1345.74 479.65 1296.67 586.23 1442.22 555.35
00007998 00000089 1138.58 206.98 393.87 531.14 1242.85 399.73 1404.99 365.28 1346.85 484.17 1295.95 586.35 1441.28 556.79
00007999 DELETE   1133.29 218.39 395.61 519.50 1236.33 403.42 1404.79 375.60 1336.71 494.82 1283.70 590.05 1429.87 566.45
00008000 DELETE   1119.25 203.06 408.84 531.08 1218.54 402.53 1394.63 382.45 1310.33 497.55 1268.53 593.25 1407.32 576.29
00008001 DELETE   1121.15 231.77 402.83 509.09 1203.37 401.46 1377.18 387.44 1286.70 504.01 1251.78 596.16 1384.00 583.13
00008002 00000093 1118.28 233.52 400.97 513.77 1196.99 402.41 1365.86 390.55 1276.97 503.88 1245.78 601.85 1370.21 590.79
00008003 00000094 1117.48 225.19 406.99 522.21 1198.53 400.46 1373.15 387.57 1282.50 503.55 1251.46 602.79 1377.45 590.94
00008004 DELETE   1120.23 214.51 413.78 531.83 1210.68 399.35 1387.72 381.46 1301.55 505.10 1267.35 603.96 1395.18 587.58
00008005 00000096 1128.14 216.54 407.27 530.21 1223.87 404.00 1399.33 379.49 1320.64 501.38 1278.76 602.03 1415.75 579.06
00008006 00000097 1134.54 205.98 404.64 543.31 1232.42 407.15 1405.72 381.42 1331.62 502.36 1284.36 601.50 1425.73 577.13
00008007 00000098 1134.09 216.30 404.84 537.02 1234.86 406.65 1406.32 382.94 1333.22 502.63 1285.19 602.15 1424.13 579.65
00008008 00000099 1130.48 232.46 406.30 530.33 1231.62 408.53 1402.76 389.15 1328.62 511.75 1286.33 612.97 1414.73 594.80
00008009 00000100 1123.80 249.78 408.73 521.27 1222.10 413.28 1398.55 402.86 1316.54 524.03 1274.18 619.02 1405.35 608.85
00008010 00000101 1118.25 266.19 414.66 509.20 1213.91 416.71 1394.77 408.48 1303.65 531.37 1266.32 624.07 1395.46 615.82
00008011 00000102 1118.88 269.25 414.71 509.77 1213.11 419.99 1395.10 413.42 1299.82 536.66 1265.49 628.81 1393.94 622.34
00008012 00000103 1119.59 271.77 411.20 498.24 1213.24 422.69 1400.06 413.78 1304.23 537.27 1265.29 629.19 1398.53 620.38
00008013 00000104 1121.01 270.77 413.55 500.28 1216.83 420.95 1403.16 411.70 1309.94 534.92 1268.74 626.87 1403.89 617.57
00008014 00000105 1123.55 266.89 412.82 505.47 1219.50 421.66 1405.09 410.76 1313.62 532.59 1270.44 628.27 1406.17 617.73
00008015 00000106 1121.34 267.50 413.68 507.08 1217.93 419.38 1403.12 409.80 1311.51 531.90 1269.08 626.87 1403.16 617.34
00008016 00000107 1119.66 264.76 413.88 510.71 1215.72 418.93 1400.43 409.37 1309.41 531.68 1269.61 627.35 1401.86 617.72
00008017 00000108 1118.27 265.00 414.96 510.52 1213.82 419.66 1398.60 409.39 1306.55 531.67 1269.37 628.08 1400.01 617.86
00008018 00000109 1118.33 262.50 415.49 514.36 1214.39 419.28 1397.77 409.85 1306.63 531.32 1268.95 627.64 1399.31 618.16
00008019 00000110 1117.89 259.33 415.94 517.03 1214.54 418.36 1397.97 408.86 1307.57 530.79 1269.34 627.70 1399.31 618.16
00008020 00000111 1116.92 259.73 418.91 516.28 1214.64 417.53 1397.01 406.90 1307.91 529.08 1270.84 626.92 1400.08 616.25
00008021 00000112 1116.71 255.61 419.34 520.63 1215.38 417.02 1397.54 406.14 1309.60 528.70 1272.28 627.41 1400.51 616.56
00008022 00000113 1118.65 254.46 416.23 522.18 1215.75 415.06 1397.61 404.40 1309.60 527.08 1272.85 627.34 1399.68 616.84
00008023 00000114 1119.70 255.94 416.00 521.65 1217.16 414.23 1396.97 403.83 1310.28 525.32 1273.22 626.38 1400.29 616.11
00008024 00000115 1122.34 248.74 413.28 530.72 1218.33 412.24 1397.77 402.15 1312.23 523.47 1273.02 625.33 1402.20 615.53
00008025 00000116 1127.33 242.81 409.45 536.49 1220.25 410.61 1400.47 398.93 1313.24 519.94 1271.14 622.26 1404.49 611.27
00008026 00000117 1128.14 234.71 408.68 544.21 1224.15 415.01 1398.94 401.41 1315.13 515.55 1275.18 619.75 1408.99 606.89
00008027 00000118 1130.62 233.01 408.17 544.74 1225.87 409.15 1402.63 394.54 1315.60 507.54 1275.26 614.86 1410.06 601.01
00008028 00000119 1130.65 218.08 407.96 557.91 1224.47 397.26 1404.64 381.17 1317.29 500.68 1274.44 607.87 1412.19 592.20
00008029 00000120 1131.34 202.38 408.80 571.41 1226.17 395.15 1406.12 378.40 1318.62 495.92 1271.33 602.39 1413.36 586.01
00008030 00000121 1136.85 197.68 405.23 574.59 1230.44 390.03 1407.41 375.49 1317.98 491.97 1270.30 594.90 1414.50 580.33
00008031 00000122 1135.47 181.10 406.44 582.19 1229.74 386.02 1406.81 372.33 1314.29 488.56 1269.82 592.32 1423.22 579.70
00008032 00000123 1135.32 169.79 406.31 586.73 1229.65 381.48 1405.94 366.96 1316.25 482.31 1272.19 589.44 1421.38 576.03
00008033 00000124 1141.03 157.78 401.05 586.05 1230.74 377.80 1407.62 363.46 1318.76 475.87 1273.05 581.63 1418.12 568.55
00008034 00000125 1142.90 165.80 399.44 570.54 1230.97 372.34 1411.20 359.64 1318.33 466.92 1271.13 573.59 1417.08 562.09
00008035 00000126 1141.81 165.31 402.57 568.23 1231.07 372.87 1410.28 360.08 1319.29 465.47 1272.00 571.56 1417.64 559.90
00008036 00000127 1143.86 165.63 402.02 570.74 1233.71 372.95 1412.44 359.13 1322.29 467.46 1273.70 573.67 1421.13 561.17
00008037 00000128 1146.42 160.91 398.98 573.76 1237.06 373.94 1410.69 360.70 1322.83 471.12 1276.18 573.57 1418.63 561.52
00008038 00000129 1145.32 158.89 403.57 579.81 1239.96 380.93 1411.04 365.42 1326.78 475.07 1278.53 576.58 1424.87 562.50
00008039 00000130 1142.99 178.16 405.28 563.95 1240.98 390.74 1410.04 372.33 1331.23 480.16 1280.66 579.64 1431.20 563.26
00008040 00000131 1143.22 180.36 402.89 563.46 1240.65 389.79 1412.08 373.17 1331.17 486.42 1279.54 582.65 1428.87 567.68
00008041 00000132 1144.66 185.09 396.55 554.73 1240.18 393.67 1410.87 379.35 1329.72 493.09 1279.87 585.80 1423.91 573.16
00008042 00000133 1142.16 195.58 398.56 546.81 1238.82 395.51 1410.44 385.42 1325.64 498.18 1275.75 589.39 1418.00 580.53
00008043 00000134 1135.79 193.60 401.74 555.28 1233.27 399.51 1406.66 385.99 1322.19 504.81 1274.41 599.41 1414.01 587.54
00008044 00000135 1134.46 200.38 406.00 554.45 1231.08 401.55 1404.20 384.51 1323.57 502.82 1279.53 604.61 1406.63 588.39
00008045 00000136 1136.50 199.04 404.10 557.99 1230.43 403.08 1406.47 383.86 1324.46 503.11 1280.15 609.28 1409.39 591.30
00008046 00000137 1136.82 191.82 402.56 555.31 1231.59 401.71 1409.76 386.67 1323.36 501.11 1275.58 603.16 1419.48 590.12
00008047 00000138 1138.21 179.85 403.24 568.27 1231.00 392.31 1411.23 377.56 1320.21 493.37 1275.01 597.73 1417.55 584.74
00008048 00000139 1137.39 167.10 401.36 582.98 1227.97 383.86 1408.83 369.42 1317.18 485.37 1275.47 595.80 1415.38 582.68
00008049 00000140 1138.53 167.11 400.32 576.56 1226.79 382.51 1409.26 367.85 1317.11 480.83 1272.12 590.09 1416.87 577.12
00008050 00000141 1141.06 166.91 399.21 572.70 1227.98 383.08 1408.64 369.19 1316.36 481.04 1273.05 588.48 1414.21 576.32
00008051 00000142 1142.19 167.41 400.28 575.67 1229.46 383.83 1410.90 369.27 1317.41 482.28 1273.54 590.45 1416.69 577.66
00008052 00000143 1141.96 169.37 401.70 580.14 1231.62 378.68 1411.39 366.58 1317.21 484.01 1275.04 591.52 1415.14 580.32
00008053 00000144 1139.48 163.89 402.13 588.27 1231.70 371.70 1411.40 361.84 1316.39 479.78 1272.45 588.74 1412.09 579.34
00008054 00000145 1138.75 160.35 401.38 591.89 1231.04 368.07 1411.98 359.05 1315.52 475.04 1271.28 586.30 1410.55 577.48
00008055 00000146 1139.60 162.52 401.45 585.23 1230.13 367.22 1412.15 357.98 1315.63 473.57 1270.81 583.36 1411.68 574.50
00008056 00000147 1139.51 159.39 402.99 585.45 1229.44 368.73 1411.06 360.09 1315.61 474.60 1270.21 581.04 1411.82 572.65
00008057 00000148 1140.21 162.08 402.68 582.60 1230.80 369.35 1411.01 361.28 1315.48 474.95 1270.53 580.18 1412.21 572.16
00008058 00000149 1140.93 161.25 401.84 584.26 1231.56 369.29 1411.63 360.57 1316.55 475.04 1272.21 581.28 1412.87 572.72
00008059 00000150 1141.17 158.73 401.56 589.47 1231.89 368.39 1412.80 359.21 1316.23 474.68 1272.04 582.64 1413.92 573.62
00008060 00000151 1142.35 162.39 401.25 588.26 1233.87 371.66 1411.60 361.54 1315.75 474.64 1270.96 582.86 1415.07 573.23
00008061 00000152 1141.90 169.36 403.44 585.80 1235.85 375.27 1413.18 363.95 1315.97 474.09 1270.18 583.12 1418.75 572.97
00008062 00000153 1138.95 169.27 407.47 591.71 1236.52 374.98 1415.57 362.61 1318.79 475.67 1271.20 585.00 1424.33 573.61
00008063 00000154 1143.03 164.61 403.49 596.30 1239.26 374.23 1417.78 361.14 1321.87 475.86 1272.89 585.85 1427.00 573.88
00008064 00000155 1144.51 156.97 404.03 593.41 1240.34 374.77 1418.43 362.91 1324.13 473.71 1274.01 581.84 1423.99 570.72
00008065 00000156 1146.63 161.98 400.32 572.47 1236.67 372.76 1415.73 362.11 1321.38 464.74 1270.95 570.81 1417.08 561.15
00008066 00000157 1146.59 159.21 401.99 571.98 1240.15 370.23 1418.28 362.52 1324.69 458.41 1270.11 564.80 1415.41 557.70
00008067 00000158 1149.45 159.87 401.85 570.26 1240.83 368.63 1417.26 358.35 1325.07 459.64 1275.77 569.60 1412.46 560.72
00008068 00000159 1148.50 155.31 400.98 583.30 1239.22 369.07 1417.75 361.14 1320.03 467.71 1273.43 574.86 1411.90 567.32
00008069 00000160 1149.97 165.65 399.15 576.12 1240.66 374.46 1412.92 368.50 1317.39 477.36 1274.41 577.81 1410.06 571.79
00008070 00000161 1151.03 177.77 399.85 565.31 1241.09 379.01 1416.61 372.87 1318.80 485.02 1273.86 583.51 1412.36 577.92
00008071 00000162 1149.13 191.97 401.92 563.70 1242.88 385.35 1419.49 374.84 1326.38 490.46 1279.79 593.95 1410.83 583.98
