Video ID: 	60fYrGxAVDc
H: 	2160
W: 	3840
FPS: 	25.0

FRAME INDEX X0 Y0 W H [Landmarks (5 Points)]

00001491 00000000 1332.22 164.05 823.90 1330.10 1763.23 745.45 2032.59 724.61 2027.91 929.61 1829.96 1183.06 2041.70 1163.52
00001492 00000001 1345.71 190.40 816.59 1322.50 1756.51 765.78 2049.26 753.07 2027.82 956.66 1808.04 1200.69 2041.39 1188.07
00001493 00000002 1346.96 219.97 814.89 1300.91 1750.95 775.80 2056.23 770.11 2016.58 981.40 1782.01 1208.78 2022.04 1204.54
00001494 00000003 1349.65 192.05 835.74 1330.89 1752.41 776.23 2075.15 785.61 2022.54 998.54 1779.16 1208.05 2023.32 1220.05
00001495 DELETE   1354.07 210.57 839.86 1286.78 1779.50 801.16 2090.67 789.31 2052.47 1013.60 1802.33 1220.92 2032.12 1216.75
00001496 00000005 1379.04 261.60 816.96 1262.68 1808.66 810.34 2093.51 785.30 2067.25 1035.88 1826.80 1248.15 2037.76 1229.99
00001497 00000006 1389.50 305.60 810.41 1235.30 1816.31 806.84 2110.76 802.68 2071.02 1067.88 1822.62 1253.23 2055.81 1254.67
00001498 00000007 1381.09 299.12 823.47 1247.33 1806.66 815.17 2108.48 826.23 2047.27 1084.91 1812.33 1257.89 2041.94 1270.67
00001499 00000008 1363.61 312.58 836.04 1253.75 1789.43 828.13 2096.58 843.66 2026.95 1103.48 1790.13 1266.80 2026.71 1283.53
00001500 00000009 1352.65 357.53 829.79 1203.44 1767.40 865.97 2080.85 839.52 2011.65 1116.96 1787.35 1297.76 2010.12 1278.40
00001501 00000010 1349.42 378.28 824.29 1186.68 1765.02 864.74 2074.11 846.05 2006.66 1117.91 1785.74 1299.31 2003.78 1286.59
00001502 00000011 1340.07 332.52 826.39 1234.25 1751.31 850.53 2060.17 836.92 1993.67 1104.42 1770.97 1291.28 1993.71 1281.38
00001503 00000012 1335.41 285.88 821.13 1280.40 1748.08 840.73 2046.91 826.85 1987.51 1086.94 1770.67 1279.52 1988.27 1268.26
00001504 00000013 1323.81 272.36 823.58 1283.22 1738.94 824.02 2025.60 811.59 1976.76 1064.25 1772.25 1259.95 1979.47 1249.01
00001505 00000014 1316.57 278.24 823.63 1264.41 1727.68 808.88 2014.78 796.51 1966.84 1040.57 1770.00 1245.42 1980.70 1234.77
00001506 00000015 1319.51 247.84 821.58 1283.71 1713.59 804.65 2007.36 781.33 1962.65 1026.84 1763.25 1243.14 1982.92 1223.25
00001507 00000016 1310.53 266.42 820.46 1258.01 1707.29 800.13 2005.10 776.73 1955.40 1034.54 1760.64 1244.99 1977.45 1225.82
00001508 00000017 1303.53 253.34 823.65 1287.81 1700.24 816.90 1999.30 786.79 1949.61 1057.23 1755.44 1260.95 1979.53 1235.45
00001509 00000018 1307.30 268.90 821.88 1304.39 1693.97 849.83 2002.35 814.02 1948.92 1087.32 1745.16 1288.97 1986.73 1259.21
00001510 00000019 1312.62 291.13 828.01 1301.69 1692.83 880.32 2010.42 843.34 1943.10 1105.63 1751.62 1306.39 1991.77 1275.94
00001511 00000020 1311.60 333.27 827.86 1258.01 1687.85 888.87 2014.03 853.34 1943.09 1118.03 1751.92 1309.00 1995.60 1280.49
00001512 00000021 1307.89 301.50 824.96 1293.25 1687.16 878.26 1997.96 840.33 1939.20 1099.23 1739.75 1303.76 1982.15 1273.99
00001513 00000022 1296.72 247.50 822.43 1328.56 1684.89 833.23 1984.60 805.04 1934.13 1063.95 1730.96 1273.51 1970.10 1249.60
00001514 00000023 1301.20 213.96 817.27 1355.77 1664.94 808.26 1998.80 780.73 1927.03 1023.10 1717.63 1243.19 1976.50 1222.80
00001515 00000024 1290.68 241.69 816.74 1320.35 1674.33 795.41 1971.90 774.97 1925.56 1014.75 1704.76 1229.67 1967.42 1211.38
00001516 00000025 1290.69 245.41 816.05 1295.97 1669.29 794.72 1969.34 769.54 1923.00 1007.86 1711.10 1224.27 1968.86 1202.22
00001517 00000026 1293.41 244.35 817.84 1312.86 1670.06 802.08 1975.89 775.38 1925.57 1023.17 1712.87 1242.84 1969.47 1219.66
00001518 00000027 1290.95 235.83 823.91 1349.03 1668.06 818.22 1977.66 789.86 1928.04 1049.59 1710.47 1261.50 1970.31 1237.08
00001519 00000028 1301.40 283.97 820.47 1298.51 1662.49 847.71 1978.92 806.28 1922.75 1071.82 1727.28 1281.42 1983.31 1247.67
00001520 00000029 1296.96 302.25 828.05 1300.25 1666.18 859.34 1977.36 814.41 1924.74 1078.29 1740.80 1290.13 1990.46 1252.69
00001521 00000030 1311.33 282.94 802.52 1270.34 1676.78 848.46 1978.80 804.35 1928.40 1059.76 1738.41 1261.53 1977.77 1225.91
00001522 00000031 1295.70 268.73 819.64 1279.71 1667.67 823.19 1971.43 781.22 1922.24 1028.38 1724.95 1244.93 1972.51 1209.89
00001523 00000032 1300.60 239.31 808.01 1285.45 1643.82 813.15 1967.56 773.44 1900.05 997.16 1715.95 1215.99 1966.28 1187.05
00001524 00000033 1293.26 240.66 806.69 1270.05 1633.98 814.15 1937.02 762.35 1887.15 987.60 1707.24 1217.40 1953.08 1175.85
00001525 00000034 1282.04 249.99 820.40 1261.90 1637.81 812.36 1934.02 758.10 1890.15 986.24 1712.35 1220.57 1950.06 1175.89
00001526 00000035 1298.30 261.22 808.62 1263.93 1645.66 827.74 1947.28 772.96 1904.05 998.62 1720.42 1224.22 1972.45 1180.16
00001527 00000036 1307.88 264.77 803.74 1255.81 1666.74 837.59 1956.69 780.60 1922.82 1015.71 1749.80 1236.07 1986.61 1188.92
00001528 DELETE   1322.73 272.69 799.74 1247.82 1679.26 855.54 1972.92 779.11 1945.68 1034.03 1781.59 1250.72 2017.84 1187.30
00001529 00000038 1336.61 286.70 795.63 1227.22 1705.88 861.03 1984.56 790.29 1958.20 1044.67 1800.71 1252.70 2017.79 1193.83
00001530 00000039 1346.33 259.68 798.78 1262.22 1719.43 866.46 1996.71 788.45 1974.39 1042.92 1818.93 1262.02 2025.08 1197.05
00001531 00000040 1353.04 278.38 796.26 1242.50 1730.79 874.27 2009.17 798.68 1983.82 1048.09 1825.97 1262.01 2036.33 1198.31
00001532 00000041 1344.60 297.66 808.15 1273.37 1745.73 893.09 2024.61 820.28 1999.99 1082.10 1822.76 1291.86 2040.76 1230.09
00001533 00000042 1353.86 288.94 816.05 1290.71 1758.24 906.79 2042.99 839.27 2014.20 1096.60 1842.43 1321.91 2050.60 1264.69
00001534 00000043 1367.98 290.98 820.36 1295.84 1773.69 917.79 2067.66 842.08 2039.35 1102.70 1852.17 1335.21 2068.77 1272.51
00001535 00000044 1365.90 293.58 836.19 1316.78 1784.99 932.89 2084.25 848.20 2063.82 1118.84 1851.02 1349.52 2077.22 1280.81
00001536 00000045 1360.22 309.38 846.83 1328.58 1781.20 946.34 2083.95 866.66 2060.26 1131.32 1835.88 1362.18 2072.39 1298.08
00001537 00000046 1370.43 315.18 839.21 1316.74 1776.92 943.17 2087.16 867.15 2052.99 1130.41 1829.25 1361.78 2070.48 1300.82
00001538 00000047 1364.16 291.15 848.90 1353.60 1794.01 930.75 2090.37 851.90 2073.03 1125.64 1840.19 1355.59 2078.03 1291.87
00001539 00000048 1372.08 284.90 840.53 1348.10 1794.88 919.53 2092.08 846.42 2073.16 1111.66 1846.30 1350.36 2077.25 1291.78
00001540 00000049 1369.62 274.45 842.45 1334.42 1787.53 911.24 2092.11 837.25 2065.88 1108.22 1841.45 1342.26 2074.43 1283.26
00001541 00000050 1366.56 277.12 844.81 1332.05 1783.77 910.90 2088.90 839.18 2059.12 1105.38 1843.60 1339.39 2075.19 1281.52
00001542 00000051 1382.37 258.65 842.03 1374.30 1796.89 890.91 2101.00 849.71 2061.88 1097.17 1856.58 1328.92 2092.27 1297.76
00001543 00000052 1384.27 253.48 844.48 1389.90 1808.53 899.99 2104.02 857.14 2070.22 1105.54 1864.89 1341.17 2085.67 1309.57
00001544 00000053 1386.97 270.50 843.70 1375.59 1810.44 901.94 2106.81 861.89 2070.91 1110.85 1868.00 1339.38 2090.45 1309.67
00001545 00000054 1383.72 272.44 845.29 1360.45 1807.10 900.21 2109.24 855.33 2074.65 1107.74 1864.83 1333.12 2096.24 1299.24
00001546 00000055 1382.04 261.68 848.15 1372.15 1808.67 895.97 2108.09 855.83 2072.24 1103.42 1867.42 1329.41 2093.83 1299.68
00001547 00000056 1381.23 271.32 842.16 1347.84 1811.50 890.96 2110.04 849.37 2079.79 1098.83 1871.39 1323.17 2100.11 1291.82
00001548 00000057 1388.80 263.24 838.10 1358.23 1810.06 892.22 2109.51 850.38 2075.93 1100.88 1874.63 1325.39 2104.13 1293.51
00001549 00000058 1386.45 262.20 843.61 1358.32 1811.04 892.76 2112.11 849.11 2076.99 1103.31 1875.97 1329.89 2101.78 1296.84
00001550 00000059 1386.50 259.47 842.54 1368.64 1810.08 893.43 2113.82 851.52 2075.45 1104.63 1864.11 1325.25 2099.11 1294.12
00001551 00000060 1395.44 256.83 834.96 1360.37 1806.95 890.63 2116.25 847.16 2077.01 1100.18 1871.53 1324.76 2110.06 1291.35
00001552 00000061 1381.53 253.01 851.38 1383.46 1802.94 891.83 2113.51 847.28 2073.80 1102.96 1874.25 1336.12 2108.37 1301.56
00001553 00000062 1378.37 256.00 857.17 1400.56 1806.52 886.49 2110.58 854.38 2065.97 1100.29 1868.44 1338.63 2095.04 1314.21
00001554 00000063 1385.07 247.77 848.25 1409.21 1812.17 883.82 2109.11 856.91 2064.79 1095.72 1876.97 1336.66 2096.35 1315.57
00001555 00000064 1379.45 248.99 854.82 1418.75 1805.90 883.68 2105.50 859.79 2058.27 1096.43 1861.18 1336.72 2085.46 1318.98
00001556 00000065 1376.87 255.76 859.18 1423.71 1801.72 879.56 2103.19 859.65 2055.43 1094.46 1855.43 1341.62 2081.43 1327.02
00001557 00000066 1376.22 251.24 862.67 1440.48 1801.15 881.92 2100.91 865.68 2053.95 1099.04 1853.95 1353.83 2069.11 1342.66
00001558 00000067 1374.55 245.98 864.33 1450.74 1802.40 883.81 2106.42 866.47 2057.39 1101.15 1856.37 1355.97 2074.01 1343.80
00001559 00000068 1377.37 246.11 857.98 1425.06 1800.68 883.66 2104.14 860.11 2057.99 1099.55 1858.64 1348.86 2077.25 1331.88
00001560 00000069 1372.45 254.53 863.31 1421.00 1800.36 879.06 2104.06 856.74 2059.88 1100.05 1862.66 1350.93 2081.39 1334.54
00001561 00000070 1375.65 255.37 861.17 1421.66 1801.82 881.00 2105.42 858.40 2060.54 1100.31 1865.18 1353.01 2081.26 1336.64
00001562 00000071 1376.17 255.51 863.35 1441.81 1805.59 881.27 2105.84 861.50 2062.52 1100.00 1856.95 1356.14 2073.71 1342.52
00001563 00000072 1369.68 245.33 870.67 1441.62 1801.56 887.42 2107.98 860.81 2065.30 1100.19 1865.63 1359.31 2085.06 1339.41
00001564 00000073 1374.22 236.99 867.00 1445.56 1801.85 888.32 2109.82 857.28 2067.66 1105.13 1860.12 1358.20 2083.47 1335.57
00001565 00000074 1363.58 240.48 877.51 1453.41 1809.81 884.79 2112.84 858.43 2073.87 1103.89 1865.72 1356.35 2087.10 1336.86
00001566 00000075 1360.00 246.62 879.35 1439.63 1807.99 890.79 2112.25 856.91 2079.07 1105.72 1865.04 1356.19 2090.31 1331.22
00001567 00000076 1363.29 252.34 875.24 1432.33 1810.85 891.38 2110.64 857.07 2080.22 1104.16 1869.14 1353.12 2093.06 1327.33
00001568 00000077 1373.22 251.18 864.94 1433.29 1809.35 889.40 2109.45 858.15 2075.94 1102.23 1863.31 1346.40 2091.94 1323.30
00001569 00000078 1369.65 245.68 871.44 1439.09 1811.02 890.27 2108.98 860.31 2074.56 1099.76 1864.32 1348.65 2087.67 1326.97
00001570 00000079 1385.36 244.84 856.42 1424.36 1810.07 892.56 2112.10 858.43 2074.88 1098.36 1876.83 1347.18 2099.28 1321.00
00001571 00000080 1375.18 249.19 864.98 1426.65 1813.63 890.07 2113.27 861.44 2075.56 1098.40 1874.38 1345.73 2096.51 1323.77
00001572 00000081 1374.01 248.14 867.31 1426.05 1806.58 888.88 2113.30 860.89 2073.62 1100.80 1864.55 1350.90 2090.80 1330.66
00001573 00000082 1386.67 254.92 853.99 1427.65 1808.42 888.02 2115.28 863.39 2073.25 1099.43 1868.35 1349.64 2097.49 1331.21
00001574 00000083 1384.27 256.14 855.04 1415.46 1811.09 889.10 2114.77 861.51 2077.49 1095.18 1874.36 1344.79 2101.88 1323.90
00001575 00000084 1381.64 259.02 856.85 1412.45 1813.67 888.04 2113.61 863.75 2075.78 1097.48 1873.16 1345.94 2094.71 1328.00
00001576 00000085 1383.95 254.28 852.81 1418.36 1813.22 887.00 2112.03 863.92 2072.02 1098.24 1867.34 1344.46 2091.72 1327.43
00001577 00000086 1385.88 253.02 846.51 1390.82 1811.03 887.38 2110.26 863.16 2070.90 1095.92 1867.08 1337.24 2088.14 1319.80
00001578 00000087 1381.73 259.31 848.00 1375.94 1810.64 888.09 2110.80 859.33 2074.70 1095.54 1869.66 1334.16 2093.91 1313.01
00001579 00000088 1384.32 258.95 850.59 1393.80 1809.32 893.60 2111.55 865.26 2073.30 1098.44 1871.73 1340.86 2094.06 1319.88
00001580 00000089 1386.60 262.58 851.43 1409.83 1809.88 893.41 2108.17 866.60 2072.46 1099.42 1871.90 1347.98 2091.40 1328.37
00001581 00000090 1385.51 262.24 852.42 1410.73 1810.16 890.06 2106.68 863.90 2071.08 1098.48 1870.97 1348.28 2088.82 1329.31
00001582 00000091 1381.39 261.42 852.77 1393.70 1810.13 890.54 2104.95 861.02 2072.42 1096.16 1870.15 1341.77 2087.00 1320.14
00001583 00000092 1384.65 260.75 849.59 1391.70 1810.33 894.21 2108.01 863.60 2074.17 1098.21 1874.78 1343.56 2092.30 1321.11
00001584 00000093 1385.57 262.42 849.41 1392.18 1812.44 894.01 2110.31 864.41 2075.19 1099.75 1876.70 1343.04 2094.19 1321.28
00001585 00000094 1380.86 258.11 852.92 1396.15 1811.30 896.48 2108.89 862.74 2077.90 1099.53 1881.29 1348.40 2096.72 1323.01
00001586 00000095 1375.81 270.15 855.55 1372.23 1812.11 893.84 2109.19 860.00 2075.83 1100.11 1873.94 1335.62 2095.86 1310.27
00001587 00000096 1379.84 268.10 855.74 1398.26 1810.88 892.21 2108.44 861.28 2075.25 1099.99 1870.87 1345.51 2091.39 1322.68
00001588 00000097 1380.40 265.57 856.07 1396.15 1812.88 891.40 2108.30 862.35 2072.70 1099.42 1873.05 1343.99 2090.45 1322.47
00001589 00000098 1379.25 262.67 854.56 1397.92 1811.56 887.83 2108.44 862.23 2074.23 1099.05 1867.99 1342.71 2088.56 1324.15
00001590 00000099 1376.13 261.99 856.49 1406.66 1811.72 883.94 2105.79 859.24 2073.29 1100.80 1857.88 1342.72 2082.57 1325.39
00001591 00000100 1370.09 256.49 863.52 1413.89 1814.33 886.36 2106.60 860.63 2074.56 1099.88 1862.24 1342.63 2083.56 1324.01
00001592 00000101 1376.60 255.70 857.53 1417.86 1812.00 883.85 2101.43 865.24 2067.53 1098.32 1858.95 1344.33 2075.29 1331.55
00001593 00000102 1369.31 265.57 861.96 1389.86 1805.26 888.42 2107.08 854.92 2071.48 1096.64 1861.93 1340.42 2090.62 1315.18
00001594 00000103 1365.50 260.98 869.71 1400.10 1800.57 886.53 2101.22 857.95 2064.39 1097.52 1856.08 1348.62 2074.51 1327.90
00001595 00000104 1363.04 256.38 869.99 1404.32 1798.27 883.67 2104.46 853.52 2064.84 1096.58 1847.02 1338.57 2079.17 1316.66
00001596 00000105 1372.78 262.52 855.67 1382.20 1796.75 885.34 2105.97 849.62 2063.89 1091.79 1850.83 1325.12 2095.04 1297.46
00001597 00000106 1376.88 282.32 845.01 1329.02 1797.76 898.62 2096.09 841.40 2063.96 1100.68 1850.00 1329.55 2079.45 1284.31
00001598 00000107 1383.82 286.22 829.76 1312.73 1802.28 906.26 2098.14 843.91 2069.83 1102.28 1852.93 1326.50 2083.19 1277.00
00001599 00000108 1375.90 271.28 837.50 1336.59 1801.91 910.11 2096.04 845.75 2068.12 1108.03 1845.63 1326.55 2077.72 1275.59
00001600 00000109 1376.53 272.71 840.57 1327.23 1802.37 913.82 2096.13 845.31 2069.75 1105.53 1846.30 1321.47 2078.83 1266.96
00001601 00000110 1375.35 278.94 837.89 1312.31 1805.01 919.48 2093.98 845.35 2074.93 1108.71 1846.43 1318.81 2079.29 1260.41
00001602 00000111 1379.49 290.01 831.91 1293.67 1804.52 919.13 2093.94 845.45 2071.17 1113.74 1843.31 1318.89 2071.76 1261.06
00001603 00000112 1384.59 296.68 825.98 1288.74 1805.59 916.98 2094.32 846.38 2070.07 1115.56 1846.63 1318.98 2072.76 1263.37
00001604 00000113 1380.77 292.44 829.44 1289.76 1805.59 918.12 2095.20 846.18 2072.97 1111.94 1846.48 1320.85 2072.01 1264.54
00001605 00000114 1381.68 288.42 825.78 1288.78 1806.90 919.53 2096.65 845.25 2077.40 1109.08 1846.13 1317.17 2078.21 1259.09
00001606 00000115 1375.92 278.42 834.46 1307.24 1807.69 917.48 2096.15 844.29 2079.54 1108.33 1843.72 1314.62 2079.80 1257.51
00001607 00000116 1382.68 279.37 831.40 1287.73 1813.00 913.64 2100.22 841.77 2081.99 1104.66 1855.76 1309.91 2084.66 1253.74
00001608 00000117 1386.93 288.45 829.00 1276.32 1810.95 911.89 2100.93 840.90 2079.30 1107.26 1855.05 1310.74 2083.32 1255.21
00001609 00000118 1386.25 280.36 828.02 1292.03 1810.82 912.86 2099.97 840.87 2082.47 1104.11 1850.64 1312.28 2082.78 1255.95
00001610 00000119 1384.17 275.14 832.15 1308.93 1810.77 912.18 2097.53 846.52 2078.96 1100.12 1852.64 1315.26 2081.37 1263.18
00001611 00000120 1384.97 270.60 830.01 1306.82 1814.73 913.36 2093.28 847.87 2076.08 1097.32 1856.87 1307.71 2079.51 1255.82
00001612 00000121 1377.16 267.77 836.76 1309.92 1816.49 911.89 2091.81 847.65 2082.04 1096.02 1858.87 1308.32 2075.99 1257.62
00001613 00000122 1388.91 261.52 830.01 1334.24 1810.94 897.95 2106.93 849.57 2080.66 1092.94 1856.74 1297.06 2102.58 1259.66
00001614 00000123 1393.19 266.00 822.88 1316.60 1810.77 893.86 2107.17 846.32 2080.80 1090.80 1857.63 1294.19 2100.59 1257.83
00001615 00000124 1378.53 262.87 836.70 1317.09 1818.59 908.19 2090.04 845.66 2079.69 1095.92 1861.32 1308.34 2071.31 1258.61
00001616 00000125 1378.14 267.11 834.76 1310.51 1819.29 906.28 2093.04 844.77 2083.44 1096.35 1858.22 1307.90 2073.05 1259.30
00001617 00000126 1388.01 271.31 827.58 1286.83 1817.27 902.65 2093.39 840.82 2081.16 1089.00 1864.60 1301.41 2076.82 1252.79
00001618 00000127 1387.72 274.90 828.49 1287.39 1817.79 908.11 2092.58 840.05 2082.63 1091.28 1861.75 1300.99 2078.66 1247.20
00001619 00000128 1385.68 269.64 829.98 1290.49 1815.28 904.18 2090.73 834.50 2080.63 1090.54 1860.91 1299.70 2079.67 1244.80
00001620 00000129 1380.09 268.79 835.74 1295.28 1815.66 901.86 2092.52 835.60 2081.02 1088.02 1859.23 1298.78 2078.44 1246.32
00001621 00000130 1381.83 265.12 833.88 1307.57 1816.93 902.23 2090.20 835.25 2083.69 1089.11 1862.54 1301.41 2079.22 1248.15
00001622 00000131 1382.64 271.33 830.55 1284.54 1815.09 900.17 2092.11 830.91 2082.05 1087.39 1862.18 1296.04 2079.70 1241.37
00001623 00000132 1381.04 262.37 831.10 1281.57 1813.15 896.64 2090.49 824.30 2080.84 1089.59 1857.48 1293.58 2072.92 1237.07
00001624 00000133 1383.85 262.60 827.52 1279.46 1816.00 894.05 2092.12 826.39 2080.48 1089.70 1859.50 1289.60 2076.19 1236.71
CROP_BBOX: 417 0 2629 2013
