Video ID: 	ZZA9xblsZzM
H: 	1080
W: 	1920
FPS: 	25.0

FRAME INDEX X0 Y0 W H [Landmarks (5 Points)]

00003750 00000000 429.79 158.20 433.86 673.17 529.67 462.09 721.41 430.53 639.52 585.01 581.61 661.72 766.20 635.30
00003751 00000001 431.48 160.58 433.23 670.03 531.09 458.73 722.02 427.63 639.81 582.11 578.27 654.20 769.06 628.10
00003752 00000002 424.43 171.15 433.55 659.72 529.48 458.19 718.44 426.29 635.92 575.50 574.02 656.52 756.05 627.85
00003753 00000003 418.53 161.67 439.75 660.68 524.89 451.53 714.26 419.29 632.98 569.37 573.66 655.78 747.87 627.32
00003754 00000004 415.70 149.24 440.84 660.13 522.08 441.97 711.16 409.76 630.35 558.70 575.57 651.70 743.64 623.34
00003755 00000005 415.33 139.26 442.01 666.33 521.94 434.74 712.16 403.76 630.49 549.09 576.09 650.14 741.56 622.58
00003756 00000006 415.59 137.80 442.35 669.75 522.96 433.54 714.51 402.33 632.79 547.45 576.71 649.48 744.64 621.62
00003757 00000007 415.32 136.70 443.19 672.26 524.37 435.65 715.03 403.52 634.97 550.43 578.47 651.19 744.90 622.59
00003758 00000008 415.23 142.76 442.85 666.74 524.64 440.98 716.50 408.64 636.64 559.74 579.16 654.87 746.61 626.28
00003759 00000009 415.08 151.94 444.79 663.20 525.71 448.60 719.49 416.01 639.68 568.60 579.38 660.19 749.21 631.51
00003760 00000010 423.96 143.71 441.79 685.35 524.26 450.05 724.37 418.69 638.91 579.23 576.34 664.04 764.14 637.71
00003761 00000011 425.20 153.38 441.19 680.27 525.07 456.28 725.11 424.35 639.61 588.01 577.15 663.08 770.27 636.24
00003762 DELETE   425.29 159.51 441.97 678.89 524.55 463.30 723.72 429.16 638.47 595.31 576.89 661.65 775.81 633.10
00003763 00000013 426.49 167.28 441.34 672.78 525.91 467.27 723.02 434.37 637.97 602.21 575.76 660.27 776.76 633.13
00003764 00000014 427.31 169.92 439.39 669.82 525.28 467.27 723.14 434.39 637.66 602.74 574.11 658.68 778.28 631.61
00003765 00000015 428.31 169.35 438.13 666.52 525.19 467.01 722.02 434.39 636.27 601.09 574.17 657.08 777.10 630.20
00003766 00000016 428.11 168.32 437.68 665.17 524.63 465.53 722.24 434.84 635.19 600.94 574.70 659.95 772.01 634.65
00003767 00000017 427.50 163.06 437.98 670.00 526.03 462.53 723.59 431.35 638.08 594.47 577.79 662.93 768.95 636.93
00003768 00000018 428.41 157.43 434.48 671.83 528.81 457.16 725.12 427.48 640.93 584.86 578.63 661.68 764.14 636.91
00003769 00000019 421.27 165.68 438.89 662.25 530.77 456.92 720.21 427.76 638.39 575.63 578.04 663.76 747.69 637.57
00003770 00000020 418.99 159.62 440.14 665.61 529.26 452.19 718.07 423.54 637.49 568.11 577.91 662.38 743.07 636.97
00003771 00000021 416.17 156.25 444.25 667.72 527.81 447.79 714.95 417.87 636.47 562.30 579.03 659.90 741.78 633.48
00003772 00000022 414.91 154.78 444.50 668.85 527.49 447.51 714.76 416.66 637.50 562.10 580.37 660.52 742.63 633.22
00003773 00000023 415.50 157.03 443.42 669.83 527.63 451.01 716.64 419.61 639.22 566.00 579.79 663.53 744.25 635.85
00003774 00000024 413.93 159.15 445.00 671.03 525.19 453.58 717.30 420.91 637.27 570.78 574.67 660.83 750.31 631.90
00003775 00000025 414.90 162.83 444.26 668.31 524.61 454.46 717.17 420.87 635.56 572.67 570.71 655.52 755.50 625.79
00003776 00000026 421.47 149.22 438.92 681.55 526.08 451.51 722.34 417.47 640.58 573.35 569.26 649.03 770.76 619.97
00003777 00000027 422.63 153.98 438.85 677.10 527.34 453.77 724.26 419.38 642.55 575.48 569.63 647.38 774.44 618.16
00003778 00000028 425.11 155.95 438.38 671.72 528.04 455.95 727.73 421.84 643.07 577.27 567.33 644.43 777.85 615.60
00003779 00000029 429.43 163.50 433.07 662.87 530.02 459.84 729.07 424.45 645.53 583.27 566.23 641.93 782.02 612.35
00003780 00000030 432.10 168.32 430.79 655.79 532.40 460.43 729.49 425.91 646.90 584.88 567.69 640.01 784.02 611.45
00003781 00000031 433.74 169.28 430.62 653.24 534.17 460.57 730.02 426.09 648.28 585.94 567.75 636.97 786.94 608.67
00003782 00000032 434.23 170.31 430.21 650.77 534.91 461.44 730.99 427.05 649.15 587.96 566.55 635.21 787.58 607.25
00003783 00000033 434.35 169.86 430.72 652.11 534.63 462.96 731.49 428.03 649.94 589.35 564.98 635.15 788.72 606.78
00003784 00000034 433.76 172.39 429.28 650.56 533.18 464.63 730.51 429.19 648.61 590.52 562.36 635.47 787.85 606.73
00003785 00000035 431.97 173.58 429.55 650.29 530.93 464.76 728.43 429.58 645.48 592.18 560.10 635.84 785.52 607.22
00003786 00000036 430.83 173.53 429.51 650.67 528.74 465.93 725.58 429.42 643.22 591.51 557.88 635.60 784.83 605.62
00003787 00000037 428.74 174.26 429.00 650.53 527.06 465.70 724.45 428.61 641.56 591.30 556.16 636.54 782.04 606.06
00003788 00000038 428.51 173.10 427.99 652.36 527.08 466.15 724.08 428.52 641.76 590.98 556.88 637.17 782.17 606.16
00003789 00000039 428.55 174.64 428.28 651.07 527.58 467.07 723.67 429.88 641.91 592.40 557.98 638.21 781.61 607.66
00003790 00000040 428.14 175.30 428.66 652.17 527.87 467.62 722.71 429.93 641.88 592.17 560.50 640.29 780.84 609.28
00003791 DELETE   427.32 172.63 430.87 657.07 529.71 464.75 722.11 425.31 645.54 588.11 574.97 646.71 781.38 613.78
00003792 00000042 424.29 162.92 435.63 667.34 528.73 462.05 722.05 423.49 644.99 583.66 581.16 655.73 773.84 623.25
00003793 DELETE   418.96 171.37 434.00 647.69 528.50 461.55 718.31 423.63 642.65 578.57 580.85 661.40 754.61 628.40
00003794 00000044 415.61 164.39 438.03 650.52 526.90 456.00 716.26 417.68 642.54 573.20 581.21 658.30 752.77 624.98
00003795 00000045 415.93 163.46 439.45 649.63 526.17 453.45 716.31 415.26 641.21 571.25 577.98 653.37 754.23 620.35
00003796 00000046 416.09 162.27 440.54 654.39 525.80 452.80 716.33 414.51 639.64 568.98 573.71 648.21 757.17 615.12
00003797 00000047 414.55 161.07 442.33 660.92 526.41 453.04 715.18 413.73 640.63 566.45 575.97 650.50 756.99 616.52
00003798 00000048 413.69 159.93 441.02 656.53 526.06 452.09 714.20 412.40 641.26 565.27 576.44 649.63 755.45 615.49
00003799 00000049 412.93 155.88 440.84 661.37 525.81 449.52 713.12 408.55 642.21 561.85 577.51 648.62 757.33 613.31
00003800 00000050 410.64 149.56 441.61 667.21 524.55 446.39 712.34 403.86 643.07 559.04 578.54 648.97 757.86 612.41
00003801 00000051 408.84 148.01 441.54 668.05 523.44 445.08 709.62 401.48 642.46 556.31 579.00 648.57 756.05 610.98
00003802 00000052 407.07 145.94 442.46 669.03 522.30 444.87 708.31 400.67 641.72 554.47 578.01 647.47 755.91 609.26
00003803 00000053 405.74 143.47 442.64 669.64 519.96 443.89 707.54 398.60 640.60 551.58 575.21 645.58 756.59 606.34
00003804 00000054 404.34 141.25 444.49 673.61 520.07 443.07 708.28 397.59 641.93 549.83 573.23 642.53 758.53 603.11
00003805 00000055 404.49 142.78 444.22 669.78 520.70 444.19 708.92 397.78 644.14 550.64 573.09 640.20 759.84 600.08
00003806 00000056 405.74 147.51 444.34 668.65 521.79 447.44 709.70 400.14 645.70 554.48 574.44 642.58 761.99 601.80
00003807 00000057 408.48 152.09 443.12 669.75 525.14 450.08 712.98 403.16 648.64 557.02 576.33 645.86 763.96 605.49
00003808 00000058 410.92 158.20 442.06 668.27 528.53 453.30 714.68 407.30 651.10 560.30 583.72 653.52 762.58 613.67
00003809 00000059 412.61 161.89 443.19 659.38 530.74 455.57 718.14 409.89 654.12 563.98 588.55 659.51 760.30 620.11
00003810 00000060 414.53 161.34 440.61 653.32 533.70 454.83 719.78 408.85 657.58 561.04 592.09 657.89 760.47 618.31
00003811 00000061 415.87 156.63 439.85 654.82 534.60 450.49 722.38 404.63 661.04 558.90 591.78 656.77 760.85 617.67
00003812 00000062 416.45 151.74 441.01 660.69 536.69 447.04 722.63 402.67 661.97 553.24 594.04 656.37 757.84 618.39
00003813 00000063 416.89 147.82 441.70 667.34 537.03 445.61 724.38 400.26 662.26 550.26 593.09 654.12 762.09 615.11
00003814 00000064 417.61 149.02 441.63 667.52 537.55 445.08 725.51 400.42 661.79 550.26 590.64 651.10 764.18 612.68
00003815 00000065 417.87 152.68 441.44 665.17 537.29 447.66 724.90 402.19 661.82 554.58 588.47 649.83 765.54 610.94
00003816 00000066 417.64 155.02 441.15 662.32 537.31 450.37 725.97 405.18 663.05 558.65 587.91 650.90 765.97 612.29
00003817 00000067 419.59 158.71 439.83 657.51 538.46 452.46 726.88 409.25 661.80 560.22 588.71 652.44 764.67 615.36
00003818 00000068 428.28 142.99 436.73 671.25 540.29 445.85 729.85 406.48 662.08 559.96 591.99 646.13 777.39 613.21
00003819 00000069 430.26 143.93 435.88 668.91 540.89 446.83 730.36 407.61 661.65 559.92 591.80 644.82 777.75 611.99
00003820 00000070 431.50 142.94 436.26 667.29 540.82 445.45 730.66 407.38 659.88 557.61 589.64 641.15 778.38 609.13
00003821 00000071 432.40 141.95 436.01 665.56 540.97 443.15 730.67 405.93 659.48 552.91 588.05 637.21 779.21 605.75
00003822 00000072 432.88 142.07 435.75 663.53 542.91 440.15 731.42 403.87 660.73 549.37 588.47 632.84 780.84 602.00
00003823 00000073 432.76 138.02 436.28 666.89 543.48 437.62 730.92 401.60 661.26 546.03 587.43 627.90 784.07 596.72
00003824 00000074 433.15 139.65 436.59 665.91 543.19 437.59 731.27 401.55 660.66 545.46 586.32 627.03 784.84 595.74
00003825 00000075 432.60 139.50 437.21 667.92 542.91 437.43 731.35 401.45 660.62 545.40 586.27 627.30 785.77 595.99
00003826 00000076 433.16 139.62 437.19 669.29 543.39 438.41 732.40 402.70 661.06 547.04 585.87 627.54 786.89 596.34
00003827 00000077 432.58 134.47 436.22 674.87 543.43 443.36 733.43 407.05 661.70 550.19 586.82 629.93 787.99 598.09
00003828 00000078 434.14 138.32 435.69 670.83 541.61 445.70 734.80 409.86 660.33 554.08 586.56 633.70 786.85 602.83
00003829 00000079 430.78 168.08 437.88 635.95 543.04 446.27 738.23 411.13 662.09 557.58 592.37 636.19 782.99 606.43
00003830 00000080 562.85 141.08 418.16 641.15 734.06 400.25 915.61 402.00 862.11 524.14 748.87 622.70 898.21 622.88
00003831 DELETE   557.12 133.60 410.63 647.18 720.55 403.91 898.36 399.08 854.54 523.66 745.26 629.26 895.28 623.95
00003832 DELETE   546.78 130.61 408.18 664.21 710.70 404.06 881.33 396.58 848.25 520.21 732.10 629.26 883.09 622.33
00003833 00000083 538.36 129.69 407.53 671.53 696.65 402.34 869.53 394.40 836.17 519.32 719.28 627.59 878.50 620.53
00003834 00000084 529.59 130.90 411.29 668.43 683.74 401.96 857.74 390.10 821.57 520.56 709.96 627.63 872.94 617.51
00003835 00000085 526.30 125.99 410.92 671.94 676.34 399.70 851.64 384.49 816.61 515.18 703.96 625.28 869.86 612.25
00003836 00000086 525.88 126.02 411.96 666.82 675.55 395.40 850.85 378.97 815.56 509.53 703.48 617.57 871.65 603.24
00003837 00000087 527.65 123.12 413.43 668.08 677.51 390.54 855.27 376.44 818.45 501.35 702.59 610.11 875.10 597.80
00003838 00000088 530.13 120.09 414.08 671.44 680.60 388.06 859.33 376.15 820.18 498.11 704.49 606.58 877.66 595.46
00003839 00000089 532.44 120.64 413.34 673.24 683.46 388.47 860.40 377.73 822.00 499.94 705.24 607.93 877.19 597.76
00003840 00000090 531.69 124.68 413.66 669.86 682.75 391.96 858.89 381.84 819.79 505.62 705.26 611.47 875.60 601.97
00003841 00000091 531.99 125.00 412.55 666.04 683.18 393.99 858.25 384.44 818.15 508.25 712.04 616.52 872.65 607.13
00003842 00000092 535.34 123.48 409.55 660.97 687.98 395.17 862.32 384.22 820.64 508.29 721.73 619.59 870.38 609.03
00003843 00000093 540.64 122.99 405.77 653.61 694.52 396.66 867.23 384.25 828.66 504.66 731.76 618.03 875.85 606.03
00003844 00000094 543.69 123.27 405.17 651.78 697.63 396.62 873.74 383.95 835.68 505.61 736.14 618.16 883.74 605.82
00003845 00000095 543.65 124.37 406.09 653.81 697.63 397.30 874.01 384.91 836.26 506.40 736.24 619.88 884.76 607.86
00003846 00000096 542.01 125.17 406.64 653.54 692.62 397.90 871.35 386.08 831.07 507.84 731.54 621.95 882.47 610.59
00003847 00000097 541.57 125.59 407.38 653.71 686.96 398.41 869.95 386.63 824.65 510.85 725.56 623.51 881.76 612.42
00003848 00000098 540.32 125.37 408.89 658.56 690.35 397.22 867.65 384.27 827.20 508.56 730.42 625.97 880.27 613.30
00003849 00000099 544.62 124.70 407.27 662.87 700.75 396.04 874.47 381.92 841.95 504.70 742.74 627.21 887.50 613.39
00003850 00000100 549.81 120.84 409.13 665.79 716.58 395.32 888.14 380.37 866.42 496.34 761.54 627.18 901.19 613.14
00003851 00000101 560.60 120.20 406.12 654.10 731.85 390.34 906.43 374.70 883.67 488.04 778.14 622.60 919.93 608.58
00003852 00000102 568.76 120.79 404.20 646.33 746.80 391.92 918.02 378.37 901.80 483.06 787.65 618.53 929.01 606.80
00003853 DELETE   569.30 120.55 403.83 638.48 748.46 394.44 919.91 380.40 899.93 477.64 789.23 613.22 930.64 600.77
00003854 DELETE   565.42 118.38 401.22 636.51 740.77 390.65 909.63 375.79 887.82 476.30 784.11 609.86 921.22 596.34
00003855 DELETE   559.10 116.47 404.74 641.20 722.34 388.98 899.15 372.30 868.09 483.17 770.62 611.70 910.48 595.88
00003856 00000106 551.10 118.00 405.72 647.20 709.92 385.02 889.38 369.48 855.24 486.80 756.76 612.30 899.26 597.19
00003857 00000107 544.87 116.84 409.14 649.08 701.92 385.78 881.25 369.23 844.23 487.78 744.92 608.88 890.65 593.23
00003858 00000108 543.72 117.62 408.77 650.61 695.39 383.50 873.47 369.42 833.48 488.35 735.03 606.95 884.37 593.31
00003859 00000109 542.55 117.48 409.32 650.57 692.10 383.82 871.18 370.13 829.34 489.04 733.50 608.56 881.97 595.32
00003860 00000110 543.69 116.41 409.40 648.48 691.82 384.07 871.02 367.73 828.92 487.47 736.97 608.27 884.59 592.64
00003861 00000111 545.45 114.49 407.68 646.06 691.07 383.93 875.47 364.21 833.01 485.57 741.69 609.03 891.64 590.19
00003862 00000112 544.47 116.35 406.93 645.20 689.39 384.10 874.66 363.92 833.22 487.69 740.82 611.03 891.07 591.86
00003863 00000113 539.91 118.36 408.23 647.34 687.03 386.17 868.62 368.25 828.04 492.48 733.49 612.03 881.63 595.26
00003864 00000114 537.09 120.50 409.89 645.59 685.37 388.36 862.05 370.45 821.72 493.05 731.39 611.53 875.91 594.95
00003865 00000115 535.43 120.12 409.00 645.48 683.48 387.35 858.17 369.31 819.01 491.61 730.08 610.76 873.13 594.26
00003866 00000116 535.34 120.36 408.78 644.04 683.30 386.96 858.30 367.15 819.38 490.44 730.31 610.47 873.40 592.62
00003867 00000117 533.97 119.74 409.91 645.84 680.99 387.18 857.35 367.65 818.18 491.30 727.41 610.14 873.66 592.46
00003868 00000118 530.97 123.01 409.82 644.22 675.45 390.14 852.67 372.38 811.88 492.79 720.42 610.80 869.77 594.48
00003869 00000119 528.27 122.36 409.07 647.30 670.56 394.69 846.82 377.18 806.01 496.44 713.46 611.63 867.05 595.43
00003870 00000120 526.26 124.83 409.48 645.28 664.07 400.64 842.04 382.90 798.67 501.81 704.87 612.71 864.81 597.12
00003871 00000121 524.86 127.04 410.56 643.57 659.04 403.27 835.42 384.85 789.07 504.92 696.88 610.47 861.94 594.60
00003872 00000122 522.04 128.18 415.05 644.88 655.57 402.44 831.13 385.87 782.07 504.00 689.92 606.88 859.12 592.37
00003873 00000123 519.70 130.73 416.05 640.47 653.11 403.58 829.42 388.28 777.30 505.32 682.75 602.72 857.45 589.26
00003874 00000124 518.12 134.49 414.45 636.25 650.37 407.65 828.87 392.56 772.65 509.97 676.34 602.53 855.67 589.31
00003875 00000125 516.11 133.57 413.87 647.10 647.79 411.01 827.37 394.80 769.13 513.98 670.48 604.87 855.67 590.74
00003876 00000126 510.78 142.75 417.26 648.08 642.44 419.43 828.57 399.51 770.84 511.59 663.39 610.16 853.90 592.80
00003877 00000127 508.85 142.08 417.41 650.22 640.45 422.89 827.74 401.06 770.22 515.06 662.29 613.90 853.15 594.88
00003878 00000128 507.47 144.71 416.92 646.93 640.07 425.42 825.65 401.47 768.87 520.08 660.29 613.58 851.48 592.87
00003879 00000129 506.53 146.09 417.40 647.07 639.28 426.77 824.30 401.85 767.90 521.85 658.33 613.56 850.76 591.93
00003880 00000130 506.31 144.97 416.85 649.54 638.92 426.52 823.47 402.22 766.22 522.00 655.86 613.04 849.21 592.02
00003881 00000131 505.66 143.79 417.06 652.58 638.75 426.54 823.45 402.31 766.44 522.15 654.35 612.71 848.93 591.65
00003882 00000132 505.32 143.44 417.22 653.31 638.64 426.47 823.42 402.42 766.38 522.33 654.75 613.62 848.96 592.66
00003883 00000133 505.69 142.80 417.18 653.24 638.31 427.53 822.77 403.08 765.30 521.43 657.26 616.51 848.26 595.14
00003884 00000134 507.44 138.94 414.28 642.69 639.69 425.21 822.56 403.28 767.73 517.20 672.95 621.71 844.02 602.48
00003885 00000135 510.81 133.66 411.14 641.92 642.72 419.92 827.87 399.64 774.54 513.09 685.53 627.52 844.15 610.09
00003886 00000136 513.71 129.15 410.08 647.36 647.93 413.12 830.97 394.04 780.25 510.47 694.82 630.82 843.38 614.34
00003887 00000137 519.89 122.29 404.52 658.36 658.16 404.52 824.85 391.21 780.10 507.88 701.93 629.24 832.97 618.26
00003888 00000138 521.18 129.51 402.14 660.02 659.61 411.46 824.89 397.68 781.20 515.22 704.46 636.34 836.44 625.64
00003889 00000139 521.90 138.05 400.10 661.75 657.57 421.46 827.71 405.69 782.77 526.49 705.47 648.02 839.86 635.97
00003890 00000140 519.81 142.77 403.08 664.86 656.43 429.29 832.03 412.48 785.36 537.89 702.86 652.73 844.93 639.72
00003891 00000141 518.07 148.80 407.31 669.80 654.73 438.64 834.55 417.18 787.54 549.25 701.69 659.97 851.09 642.96
00003892 00000142 518.01 162.31 407.65 664.05 654.29 450.62 837.69 425.48 790.13 558.01 697.58 664.83 856.19 645.02
00003893 00000143 521.37 171.62 406.58 664.19 655.65 464.54 842.76 431.95 796.39 568.66 699.14 669.99 869.02 643.31
00003894 00000144 517.94 171.75 412.42 669.55 660.13 458.77 837.33 438.42 794.03 573.98 696.23 674.48 861.82 655.45
00003895 00000145 519.46 173.17 407.31 659.70 656.24 466.95 844.94 431.24 799.81 570.52 704.79 672.86 873.40 643.45
00003896 00000146 519.33 167.72 405.45 653.24 654.51 460.94 843.78 422.65 798.43 563.98 710.10 668.59 877.22 636.55
00003897 DELETE   515.38 161.83 407.15 655.25 652.98 451.74 837.77 413.59 796.56 554.80 712.24 663.83 874.79 631.89
00003898 DELETE   513.42 148.84 406.64 665.11 650.97 437.31 832.27 401.87 794.80 540.52 713.01 658.81 870.86 629.21
00003899 00000149 513.55 142.13 408.86 669.72 653.38 433.88 832.73 396.97 799.40 537.00 719.36 658.85 874.80 627.59
00003900 00000150 518.39 146.59 407.46 671.90 660.88 439.99 836.24 400.87 806.80 543.54 728.86 666.42 876.50 633.43
00003901 00000151 524.98 156.51 401.84 664.82 667.19 449.85 848.00 410.44 814.62 554.27 738.40 676.14 882.90 642.93
00003902 00000152 526.53 164.74 401.31 655.54 674.02 454.96 848.64 416.02 817.85 558.48 744.41 676.95 882.07 644.32
00003903 00000153 524.51 156.68 404.30 656.72 671.51 448.36 845.66 403.07 818.17 548.69 745.25 669.39 886.57 631.23
00003904 00000154 518.25 143.49 409.79 659.17 664.30 440.27 837.86 393.13 814.98 536.72 737.82 658.58 885.95 618.77
00003905 00000155 510.82 136.76 411.49 659.94 656.68 435.33 833.37 388.11 809.79 527.13 729.58 651.56 883.03 611.64
00003906 00000156 507.13 132.70 409.78 661.55 654.94 432.32 825.55 385.65 806.13 521.87 726.59 646.28 877.61 606.65
00003907 00000157 493.24 137.28 422.40 651.54 655.07 433.54 827.11 380.14 807.85 519.75 723.27 654.05 864.55 608.53
00003908 00000158 490.15 138.51 422.41 646.69 647.37 434.85 824.22 379.92 801.49 520.55 718.63 653.91 861.92 606.96
00003909 00000159 487.26 136.89 422.18 648.66 641.10 432.64 819.35 380.09 793.12 517.07 713.20 650.19 857.87 604.99
00003910 00000160 483.75 136.74 422.06 648.88 636.12 426.08 810.63 376.23 783.43 508.48 706.78 645.03 848.98 602.15
00003911 00000161 480.14 131.44 419.60 649.79 628.32 419.93 799.97 372.41 772.62 501.35 698.46 637.20 838.01 597.00
00003912 00000162 477.14 128.19 421.90 644.18 618.25 414.98 797.99 366.93 764.21 496.37 692.06 631.94 837.68 590.76
00003913 00000163 472.78 123.34 426.90 649.12 610.22 410.75 794.46 361.59 757.67 490.42 683.56 628.09 838.03 585.67
00003914 00000164 471.73 123.39 426.21 649.98 603.67 405.57 789.53 360.42 745.55 489.35 674.74 623.79 831.50 583.70
00003915 00000165 470.10 122.81 425.60 653.38 600.27 404.27 786.37 361.20 740.50 489.92 667.85 622.61 826.71 584.21
00003916 00000166 470.41 122.98 424.16 654.04 599.95 405.46 786.40 363.75 739.21 491.98 665.09 622.19 825.49 584.75
00003917 00000167 472.58 126.71 422.34 651.48 602.31 408.86 788.03 366.97 741.63 495.97 666.55 624.47 826.89 587.21
00003918 00000168 473.07 127.37 423.79 652.23 604.50 411.17 792.28 369.31 744.95 499.10 667.10 625.82 830.04 588.58
00003919 00000169 475.65 129.15 423.22 649.88 608.84 410.32 796.53 369.84 748.93 499.04 670.70 625.49 832.88 589.29
00003920 00000170 478.51 126.60 421.45 648.48 614.33 406.95 800.75 368.72 754.74 494.58 674.48 622.51 834.46 588.21
