Video ID: 	5qVIaa9Nr88
H: 	1080
W: 	1920
FPS: 	23.976023976023978

FRAME INDEX X0 Y0 W H [Landmarks (5 Points)]

00009644 00000000 775.17 176.86 382.46 541.00 843.67 375.95 993.13 377.10 890.77 459.03 861.42 563.93 977.48 565.63
00009645 00000001 776.65 177.81 383.49 540.76 845.83 375.24 997.84 376.08 894.52 457.83 862.46 564.01 982.79 565.77
00009646 00000002 776.10 179.17 380.75 538.05 844.97 376.19 993.07 379.15 889.59 459.83 859.94 562.99 976.06 566.30
00009647 00000003 775.82 179.04 376.93 537.18 842.04 378.60 987.85 382.32 882.70 464.69 853.16 562.17 969.20 566.13
00009648 00000004 776.51 179.19 375.77 539.10 839.70 379.41 986.61 383.65 876.55 467.36 849.71 563.83 967.12 568.03
00009649 00000005 776.19 178.42 376.06 542.90 839.79 380.07 986.79 383.40 876.46 467.62 849.94 566.50 967.91 570.06
00009650 00000006 776.67 178.73 376.17 542.58 841.81 378.62 988.12 383.58 879.49 467.88 852.05 564.95 970.29 569.90
00009651 00000007 775.13 180.26 380.18 532.76 842.64 381.03 992.22 384.94 886.75 467.39 853.92 562.55 976.14 566.53
00009652 00000008 776.46 181.61 382.03 526.74 844.37 382.78 995.35 386.79 891.26 468.05 856.85 563.46 978.76 567.37
00009653 00000009 776.75 180.76 383.30 531.95 845.10 381.50 997.39 386.21 893.14 469.13 858.95 564.60 982.44 569.09
00009654 00000010 776.59 182.22 382.37 539.58 846.82 381.31 995.07 385.71 892.02 469.16 862.26 566.98 982.59 571.46
00009655 00000011 775.09 181.32 381.55 548.76 843.50 383.64 992.01 387.11 884.00 475.01 856.68 573.24 978.56 576.99
00009656 00000012 774.55 179.95 376.03 554.51 838.56 387.06 987.01 389.17 875.02 477.42 850.49 577.05 971.80 579.91
00009657 DELETE   766.10 181.27 381.55 562.66 824.91 385.86 983.11 391.45 855.77 475.96 832.75 584.95 958.70 588.60
00009658 00000014 772.58 180.55 371.48 559.97 831.23 393.02 980.02 397.94 863.47 489.12 837.72 584.85 958.52 590.36
00009659 00000015 773.92 182.24 373.81 561.91 835.85 394.37 983.33 399.42 868.33 490.90 842.19 587.19 963.03 592.85
00009660 00000016 777.04 184.55 376.55 561.48 847.65 392.77 993.04 403.18 881.07 491.07 851.70 585.79 972.43 595.54
00009661 00000017 781.45 181.71 381.36 566.48 854.43 388.38 1005.84 398.45 892.05 486.87 858.58 586.27 989.69 595.59
00009662 00000018 782.21 180.95 380.42 566.54 855.27 386.51 1006.54 396.57 892.74 485.00 859.34 585.47 990.29 594.90
00009663 00000019 780.64 181.55 379.96 564.32 852.18 386.84 1001.19 397.16 886.61 486.05 857.87 583.81 985.54 593.32
00009664 00000020 779.72 184.14 378.26 557.16 850.21 387.80 997.18 398.28 883.81 485.63 856.51 580.28 980.73 589.85
00009665 00000021 777.75 186.17 381.41 549.54 849.17 388.37 996.91 400.17 884.38 487.34 856.64 576.80 979.72 587.16
00009666 00000022 779.49 185.46 381.17 548.55 850.89 387.04 1000.30 398.63 889.10 487.09 859.45 576.80 983.17 587.19
00009667 00000023 780.19 185.98 381.14 547.14 851.67 386.93 1001.21 397.67 890.63 486.99 861.60 576.84 985.15 586.53
00009668 00000024 780.36 186.06 380.25 547.20 851.65 387.01 1000.15 397.07 890.73 485.86 862.35 577.33 984.84 586.58
00009669 00000025 779.42 185.72 380.34 547.87 849.99 385.86 998.06 395.53 887.64 484.19 860.47 577.19 982.12 586.04
00009670 00000026 779.56 185.19 379.91 547.78 849.98 384.99 998.27 394.05 888.30 483.27 861.02 577.02 982.49 585.39
00009671 00000027 779.94 184.91 379.26 547.92 850.19 384.81 998.33 393.72 888.39 482.86 861.51 577.06 982.57 585.32
00009672 00000028 779.61 185.38 379.18 546.36 849.72 385.10 998.18 393.97 888.10 483.25 861.00 576.82 981.98 585.05
00009673 00000029 779.38 185.91 379.78 545.47 849.34 386.12 998.36 394.64 888.00 483.14 860.23 577.02 981.59 585.04
00009674 00000030 778.76 185.52 380.57 545.69 848.97 386.25 998.35 394.49 888.33 483.54 859.99 577.55 981.43 585.25
00009675 00000031 778.50 185.91 380.96 544.74 848.67 386.61 998.33 394.57 888.23 483.36 859.55 577.34 981.46 584.80
00009676 00000032 778.86 185.94 380.71 544.62 848.96 386.61 998.44 395.24 887.86 483.55 858.94 576.60 981.68 584.59
00009677 00000033 778.90 185.33 379.72 545.67 848.81 387.25 997.75 396.11 886.96 484.50 858.32 577.06 981.54 585.23
00009678 00000034 778.78 184.98 380.02 548.66 849.47 387.19 997.72 396.78 887.00 485.00 858.22 577.62 981.66 586.33
00009679 00000035 778.85 184.69 379.83 548.36 849.50 387.87 997.55 397.41 887.09 485.95 858.70 577.92 981.37 586.63
00009680 00000036 778.43 185.53 380.24 546.41 849.14 388.61 997.15 397.66 887.43 486.01 859.21 578.26 980.84 586.52
00009681 00000037 779.09 185.72 380.25 549.29 849.87 389.80 998.10 398.49 887.88 486.24 858.66 579.61 982.11 587.81
00009682 00000038 778.91 186.61 380.10 547.89 850.19 390.23 999.09 398.77 889.52 486.96 859.72 579.65 983.61 587.69
00009683 00000039 780.33 186.33 379.39 548.78 852.27 389.87 1000.58 398.36 891.81 486.96 861.48 579.76 984.96 587.87
00009684 00000040 780.90 187.09 378.98 548.03 853.01 390.67 1002.63 398.86 893.58 487.24 862.10 580.19 986.50 588.17
00009685 00000041 781.70 187.59 380.12 548.61 854.57 390.73 1004.01 399.35 894.43 488.09 862.70 580.35 987.95 588.82
00009686 00000042 782.89 188.05 381.34 549.43 855.90 392.05 1006.04 400.89 895.42 488.77 861.94 581.45 988.34 590.26
00009687 00000043 783.78 189.00 380.79 547.65 856.36 395.08 1007.10 403.35 896.85 490.61 862.26 582.65 990.56 591.19
00009688 00000044 784.63 190.45 380.62 545.13 857.95 397.72 1008.19 407.18 899.48 493.89 864.64 582.67 995.47 592.03
00009689 00000045 785.19 195.09 380.94 538.62 860.77 401.63 1013.47 410.88 905.40 494.67 865.93 581.17 1000.94 590.43
00009690 00000046 787.46 196.93 378.66 540.87 862.10 405.73 1013.75 414.77 904.78 499.18 867.62 588.00 997.71 597.23
00009691 00000047 788.06 198.17 377.81 542.43 862.94 409.99 1014.11 416.12 907.25 502.64 870.98 595.89 996.61 602.94
00009692 00000048 788.87 199.61 377.98 542.40 863.88 412.98 1013.99 417.93 908.36 505.12 872.95 598.84 998.88 604.82
00009693 00000049 788.19 202.09 379.61 542.21 865.09 416.61 1016.86 420.48 910.06 506.30 874.11 600.58 1001.97 605.65
00009694 00000050 786.58 203.96 384.89 541.53 867.46 418.50 1021.69 423.05 915.24 505.73 876.27 599.48 1006.83 605.23
00009695 00000051 787.50 203.19 386.32 541.53 869.44 418.94 1025.21 423.89 920.15 508.36 880.77 597.80 1013.79 603.45
00009696 00000052 789.87 203.42 383.19 540.93 871.97 417.87 1027.26 419.33 927.21 508.13 886.88 598.13 1019.01 600.88
00009697 00000053 789.50 201.45 385.18 545.84 873.66 417.57 1030.18 415.97 932.21 507.66 891.37 600.19 1024.80 600.11
00009698 00000054 787.31 202.50 388.26 544.63 871.99 416.74 1030.39 414.31 931.75 505.89 890.81 599.88 1025.72 598.87
00009699 00000055 786.88 202.68 389.29 546.86 870.72 416.74 1030.26 413.82 930.95 506.13 889.53 600.54 1026.98 598.97
00009700 00000056 786.05 202.52 388.79 548.86 869.74 417.55 1029.53 415.65 929.74 507.83 887.58 601.24 1025.67 600.52
00009701 00000057 786.51 208.79 391.04 541.32 866.43 418.89 1028.23 415.23 928.04 506.16 888.05 596.98 1022.18 594.24
00009702 00000058 784.95 203.57 387.32 538.97 867.50 417.66 1028.21 417.06 927.21 507.53 885.69 599.13 1021.19 599.82
00009703 00000059 784.08 203.04 387.93 540.20 867.87 417.87 1028.41 417.63 927.92 507.68 886.11 599.90 1020.55 600.91
00009704 00000060 783.24 203.60 388.22 539.46 868.19 417.05 1027.86 418.24 927.26 507.79 885.27 599.13 1017.70 601.37
00009705 00000061 785.91 209.19 389.93 536.75 865.20 418.77 1026.66 416.96 926.37 506.81 885.08 594.71 1017.23 593.54
00009706 00000062 785.22 210.30 390.72 544.15 865.60 418.23 1027.48 416.97 927.11 507.40 885.38 597.05 1019.25 596.36
00009707 00000063 785.73 211.32 390.67 542.59 866.40 418.13 1027.48 417.21 927.59 508.14 886.74 597.51 1018.91 597.15
00009708 00000064 786.66 211.38 390.01 537.92 869.25 418.65 1029.86 417.23 931.72 509.52 891.15 598.67 1019.05 597.95
00009709 00000065 788.87 210.41 389.29 535.28 873.39 418.65 1033.55 414.80 937.47 507.97 897.11 596.96 1025.19 594.12
00009710 00000066 787.80 208.67 394.05 538.62 874.68 415.07 1039.38 409.68 943.96 504.97 900.94 598.32 1030.58 593.90
00009711 00000067 786.63 199.71 392.16 546.94 876.15 410.68 1039.80 407.01 944.60 502.43 896.89 599.16 1032.12 597.13
00009712 00000068 787.10 198.64 392.26 552.38 875.70 409.04 1040.26 406.93 941.60 503.36 893.00 597.09 1035.16 596.06
00009713 00000069 785.77 198.87 391.33 549.24 873.32 408.03 1036.76 406.27 937.84 501.69 890.83 596.97 1028.89 596.51
00009714 00000070 784.41 197.75 390.98 547.64 873.35 409.12 1033.74 408.51 937.76 503.41 892.16 598.47 1023.17 599.20
00009715 00000071 784.80 198.49 390.40 542.73 872.93 410.75 1033.28 411.49 937.73 506.39 893.15 598.70 1021.14 600.64
00009716 00000072 784.46 198.44 391.33 543.35 871.96 412.01 1033.54 411.91 936.83 505.50 891.73 601.17 1020.22 602.59
00009717 00000073 785.19 206.10 394.87 548.07 871.65 413.90 1033.57 406.88 939.20 503.97 900.54 606.10 1019.84 600.90
00009718 00000074 783.97 208.30 395.87 549.19 872.29 411.19 1032.98 404.65 939.14 501.30 899.32 604.01 1019.63 599.32
00009719 00000075 782.89 198.24 389.79 548.62 873.18 407.33 1031.40 407.22 936.39 502.67 892.39 601.43 1016.37 602.90
00009720 00000076 781.21 196.94 390.11 545.55 869.28 405.53 1028.73 409.51 929.38 503.92 885.00 596.62 1010.76 601.47
00009721 00000077 779.13 195.10 390.44 547.15 866.64 405.34 1027.28 410.15 926.74 500.90 881.35 595.33 1009.61 600.88
00009722 00000078 779.03 193.14 389.84 546.89 865.68 405.39 1027.44 408.38 928.05 499.09 882.93 594.75 1013.16 598.78
00009723 00000079 779.01 192.55 392.57 540.49 867.44 401.59 1032.41 405.18 934.55 495.41 885.31 586.87 1019.27 591.05
00009724 00000080 784.29 190.96 390.87 545.09 873.08 401.31 1038.68 398.66 945.50 491.11 895.42 586.51 1033.91 584.84
00009725 00000081 786.72 189.89 389.51 545.80 880.96 398.96 1044.35 394.46 957.57 487.78 905.65 587.54 1038.88 584.54
00009726 00000082 787.48 188.23 390.58 547.50 885.11 396.42 1047.07 391.80 962.73 481.47 908.24 584.25 1043.92 581.19
00009727 00000083 788.00 187.79 390.17 545.00 886.83 396.34 1047.05 391.82 965.15 479.72 909.71 581.27 1045.26 578.29
00009728 00000084 789.52 189.36 391.68 543.18 887.11 397.33 1048.63 392.73 964.85 480.85 907.85 578.74 1050.46 575.50
00009729 00000085 788.83 189.01 393.52 547.78 888.26 396.22 1050.88 393.89 966.31 482.13 905.55 578.33 1052.77 576.80
00009730 00000086 790.40 187.55 393.12 555.05 890.54 395.94 1053.20 394.48 968.80 482.23 905.89 578.02 1058.22 576.84
00009731 00000087 790.70 186.98 394.68 556.32 892.40 395.43 1054.50 394.73 970.73 481.67 906.91 576.42 1061.40 575.67
00009732 00000088 790.74 187.26 394.67 554.50 892.73 396.90 1054.90 394.78 972.00 482.00 908.42 576.32 1063.29 574.46
00009733 00000089 793.09 188.70 393.82 554.36 895.18 397.66 1056.87 394.60 974.80 483.15 910.52 576.02 1067.06 573.34
00009734 00000090 794.52 190.03 394.21 556.40 898.59 400.31 1061.49 395.76 980.63 484.34 913.64 577.71 1072.49 573.70
00009735 00000091 797.92 190.86 392.67 559.75 903.36 402.01 1068.54 397.33 989.27 485.18 917.67 580.20 1079.43 576.05
00009736 00000092 797.37 189.67 393.47 558.73 903.47 400.34 1068.46 395.35 989.87 482.98 918.37 578.95 1079.22 574.50
00009737 00000093 794.73 188.76 395.49 556.22 898.74 397.41 1064.32 392.33 984.35 482.14 914.62 575.23 1076.54 570.75
00009738 00000094 793.16 185.92 395.49 555.33 895.69 393.92 1060.13 390.09 977.74 477.78 911.24 570.83 1072.05 567.30
00009739 00000095 793.86 183.69 393.96 553.70 896.56 391.58 1062.01 388.25 980.13 474.71 911.68 568.23 1072.78 565.07
00009740 00000096 793.65 184.22 395.92 555.60 898.57 392.37 1065.49 387.51 985.65 476.73 913.83 569.46 1077.84 565.01
00009741 00000097 794.57 181.04 396.23 561.05 901.39 392.64 1069.62 387.26 991.56 477.55 916.27 570.46 1082.58 565.41
00009742 00000098 794.37 178.27 398.17 567.82 902.24 391.23 1069.59 385.59 992.44 476.92 915.81 571.00 1083.22 565.75
00009743 00000099 795.88 177.37 392.30 569.78 899.57 387.65 1062.26 383.76 982.36 471.39 911.87 571.08 1073.06 567.42
00009744 DELETE   786.45 175.15 390.44 563.44 881.67 386.85 1047.01 381.43 960.71 472.16 903.42 572.39 1054.39 567.24
00009745 DELETE   777.46 177.97 389.44 547.11 861.08 383.39 1024.46 385.63 931.33 475.99 882.47 565.50 1023.28 566.86
00009746 DELETE   768.45 182.42 384.74 536.95 842.17 389.02 1002.82 391.23 902.50 483.24 861.32 566.59 997.68 568.59
00009747 00000103 756.80 181.31 386.05 547.98 826.87 392.98 984.96 390.32 879.94 481.96 847.94 574.22 979.67 570.06
00009748 DELETE   763.51 189.14 384.48 543.03 837.34 398.66 993.65 399.30 888.87 488.61 852.89 573.91 986.95 574.90
00009749 00000105 767.49 188.48 389.36 551.86 845.16 395.52 999.50 397.69 893.83 489.07 862.49 579.81 995.90 582.16
00009750 00000106 768.14 186.49 387.08 560.48 841.83 394.73 997.33 396.15 887.19 488.00 856.21 577.95 999.17 579.03
00009751 00000107 768.07 186.09 383.90 558.89 838.27 391.16 992.63 391.40 880.74 482.44 851.65 575.55 992.84 575.74
00009752 00000108 768.44 184.56 382.43 547.08 837.14 387.73 991.37 387.20 882.54 478.12 852.22 569.43 989.04 569.10
00009753 00000109 769.31 185.02 382.93 538.84 840.18 386.94 993.01 388.22 887.71 477.92 854.39 563.33 993.47 564.33
00009754 00000110 769.93 184.20 382.63 541.31 839.64 386.09 992.51 386.99 886.47 478.47 856.37 566.34 992.34 567.18
00009755 00000111 771.25 182.96 381.77 547.89 838.89 387.01 989.82 386.00 882.89 478.47 858.85 574.54 988.10 574.08
00009756 00000112 773.92 182.09 381.66 549.59 842.42 387.94 992.12 387.28 886.97 479.69 862.93 578.62 987.62 578.79
00009757 00000113 774.68 183.33 380.83 538.98 845.99 386.30 994.05 389.09 893.94 480.48 863.39 572.27 986.41 575.32
00009758 00000114 776.34 183.83 379.24 529.79 846.09 387.43 996.62 390.45 896.08 480.29 862.42 570.14 987.04 573.28
00009759 00000115 777.36 183.84 381.22 530.57 846.84 386.89 998.11 390.57 895.65 480.47 862.35 571.25 987.09 574.92
00009760 00000116 779.52 184.57 380.48 529.83 849.12 386.09 1002.69 391.85 897.74 480.85 863.06 569.71 991.24 575.00
00009761 00000117 782.29 184.45 380.17 540.36 852.88 387.79 1006.30 394.42 900.06 485.70 866.22 576.70 994.50 583.29
00009762 00000118 783.56 182.70 380.67 559.01 855.18 389.04 1008.27 396.18 897.90 489.09 863.61 582.20 999.07 588.88
00009763 00000119 780.94 185.08 381.15 558.93 852.29 392.87 1003.05 401.90 890.28 494.41 859.76 584.66 991.74 592.93
00009764 00000120 777.28 187.29 379.57 543.30 844.95 396.86 995.51 404.90 884.05 498.05 855.64 582.57 984.41 589.96
00009765 DELETE   782.99 187.97 379.54 538.57 853.18 391.16 1004.75 401.26 896.36 493.52 862.64 575.96 994.21 585.02
00009766 00000122 786.41 184.80 382.89 546.77 858.67 388.84 1013.82 396.03 908.32 488.22 870.51 574.99 1007.51 581.69
00009767 00000123 788.55 183.83 379.61 544.58 858.39 387.67 1012.02 393.60 906.82 487.72 873.22 573.57 1010.31 579.09
00009768 00000124 788.12 184.53 379.83 545.30 857.84 386.06 1010.57 394.12 902.75 487.09 867.56 569.99 1007.48 577.06
00009769 00000125 789.29 184.50 378.81 556.36 858.14 387.31 1009.48 395.28 898.09 489.08 865.92 573.48 1012.68 579.75
00009770 00000126 789.81 183.39 378.81 561.28 858.19 388.67 1011.13 394.04 899.65 490.36 868.65 577.94 1017.79 581.83
00009771 00000127 790.33 181.74 379.17 562.41 858.61 389.17 1013.69 392.19 903.27 489.57 871.12 577.66 1022.49 579.53
00009772 00000128 790.85 182.93 381.84 556.79 860.27 388.04 1014.48 391.60 905.22 488.13 872.17 572.18 1023.83 574.58
00009773 00000129 790.63 184.22 382.55 545.06 860.92 386.65 1017.07 391.03 908.84 484.52 871.57 565.92 1020.77 569.42
00009774 00000130 789.53 184.58 385.25 542.06 861.11 385.64 1018.46 390.25 910.97 482.55 871.26 563.29 1020.29 567.02
00009775 00000131 791.44 183.99 383.26 540.77 864.09 386.03 1020.58 391.15 914.09 482.80 873.13 561.54 1021.68 565.90
00009776 00000132 792.86 184.80 384.32 538.74 866.28 387.26 1022.69 391.66 917.05 482.95 876.00 560.54 1024.30 564.27
00009777 00000133 794.92 185.43 384.73 539.13 868.96 389.79 1025.37 392.89 920.13 484.15 878.19 560.33 1028.86 562.81
00009778 00000134 799.80 186.18 386.23 539.78 874.38 391.82 1027.18 394.22 922.65 485.93 883.18 561.39 1032.30 563.49
00009779 00000135 803.68 186.77 388.31 537.36 877.46 394.99 1029.12 395.92 924.85 485.26 888.66 564.26 1035.15 565.21
00009780 00000136 811.06 189.56 384.74 530.71 883.84 397.51 1035.80 394.89 933.96 485.63 895.61 564.02 1043.10 562.58
00009781 00000137 818.42 187.31 383.45 533.92 891.29 397.22 1047.52 394.80 945.06 489.92 901.48 566.16 1052.00 565.62
00009782 00000138 825.84 189.46 387.45 536.78 897.48 400.30 1053.37 395.33 948.32 492.39 909.72 571.70 1056.12 568.86
00009783 00000139 826.96 187.59 393.72 553.09 897.66 394.36 1059.76 394.65 946.17 486.88 909.57 577.22 1052.19 575.16
00009784 00000140 835.63 192.39 391.44 549.13 911.06 402.47 1066.93 407.91 956.40 497.22 918.62 578.54 1063.35 582.99
00009785 00000141 841.61 194.60 389.81 553.81 918.45 405.85 1074.61 414.79 962.69 504.36 923.26 585.02 1070.93 592.17
00009786 00000142 849.10 201.04 384.50 552.68 923.21 414.03 1080.84 423.57 967.60 511.33 927.19 590.37 1078.34 597.96
00009787 00000143 856.93 212.20 388.71 555.16 927.43 414.71 1088.46 425.00 980.28 515.47 936.28 589.06 1088.63 597.02
00009788 00000144 860.67 215.91 388.14 553.28 929.96 420.00 1091.95 427.81 983.06 517.37 938.28 591.88 1093.23 597.94
00009789 00000145 863.05 222.34 388.91 549.51 931.30 423.29 1093.51 429.43 984.61 519.63 941.10 594.43 1096.74 598.87
00009790 00000146 864.99 222.81 390.91 548.22 934.14 424.86 1097.13 430.09 986.96 519.06 944.83 593.94 1100.79 597.59
CROP_BBOX: 579 0 1435 894
