Video ID: 	EwKxc9E7MsY
H: 	1080
W: 	1920
FPS: 	25.0

FRAME INDEX X0 Y0 W H [Landmarks (5 Points)]

00006233 00000000 900.28 155.12 392.49 578.14 968.84 407.10 1140.36 424.36 1024.71 546.02 991.32 606.17 1126.70 618.99
00006234 00000001 903.11 150.35 397.16 581.29 972.80 404.87 1148.82 420.95 1034.54 546.00 997.65 606.23 1137.18 618.49
00006235 DELETE   905.69 151.49 400.90 581.29 976.17 404.90 1153.60 419.01 1040.81 546.85 1002.46 606.26 1142.93 616.83
00006236 00000003 912.21 146.63 397.43 593.99 984.56 410.24 1160.08 424.30 1052.69 542.40 1012.16 605.01 1150.23 616.55
00006237 00000004 911.24 144.57 399.46 594.39 986.59 409.81 1161.76 422.39 1057.21 542.30 1017.23 606.33 1151.86 616.58
00006238 00000005 911.81 140.29 399.68 597.10 987.60 408.61 1162.36 420.73 1058.96 541.89 1022.21 607.05 1155.33 616.64
00006239 00000006 910.11 138.90 401.27 596.47 986.63 408.35 1162.50 419.17 1059.75 540.95 1022.12 605.99 1156.61 614.53
00006240 00000007 909.19 131.40 402.18 604.17 985.55 406.18 1160.82 416.31 1056.62 536.50 1020.50 603.69 1157.70 611.56
00006241 00000008 907.18 127.86 402.70 606.41 983.35 404.36 1158.90 412.73 1054.52 531.54 1018.42 600.54 1157.12 607.08
00006242 00000009 906.04 123.64 402.45 609.79 981.20 402.61 1156.21 410.41 1051.64 530.00 1017.11 599.29 1156.69 605.34
00006243 00000010 904.39 126.94 402.64 607.13 979.13 402.64 1153.83 409.62 1050.24 531.11 1016.76 599.35 1155.70 604.85
00006244 00000011 902.69 129.50 403.39 605.10 977.34 402.49 1152.12 408.31 1049.83 531.85 1016.77 598.87 1155.67 603.50
00006245 00000012 901.01 123.59 403.50 610.01 974.72 402.71 1149.39 407.31 1047.43 532.27 1014.94 598.46 1154.90 602.04
00006246 00000013 900.25 121.04 402.01 611.46 973.15 402.96 1147.28 406.36 1046.70 533.20 1015.39 598.90 1154.60 601.40
00006247 00000014 900.38 120.13 401.92 610.58 973.44 403.72 1147.43 406.65 1047.11 534.24 1016.46 599.13 1155.78 601.17
00006248 00000015 898.14 120.53 401.42 607.02 971.76 403.46 1146.81 404.94 1047.30 534.04 1015.68 597.85 1155.06 598.94
00006249 00000016 897.27 119.70 400.72 605.93 969.94 401.75 1144.95 403.57 1044.84 533.75 1013.81 595.79 1154.62 597.18
00006250 00000017 897.61 115.99 398.97 608.28 968.91 397.81 1143.13 401.13 1043.14 531.30 1013.35 594.50 1152.61 597.15
00006251 00000018 896.81 118.64 399.49 606.80 967.99 394.78 1141.27 398.83 1040.74 530.64 1013.46 594.24 1149.82 597.73
00006252 00000019 896.29 115.66 400.71 611.58 967.54 393.16 1140.67 396.75 1039.91 529.14 1012.57 594.34 1149.26 597.41
00006253 00000020 896.57 112.28 400.10 615.36 966.75 392.25 1139.81 395.27 1039.09 528.44 1012.11 593.60 1149.66 596.24
00006254 00000021 897.05 110.94 399.94 615.78 966.89 392.27 1139.82 395.31 1039.26 528.08 1012.91 593.55 1150.68 596.10
00006255 00000022 897.13 112.55 397.52 614.11 966.24 393.76 1137.30 397.26 1037.97 529.28 1011.90 594.35 1147.94 597.30
00006256 00000023 896.78 113.38 398.27 612.47 966.24 393.70 1136.61 396.95 1037.41 528.89 1013.44 595.72 1146.08 598.55
00006257 00000024 897.31 111.35 397.86 615.60 966.92 393.65 1135.77 397.10 1036.84 528.23 1014.36 596.51 1145.03 599.52
00006258 00000025 898.70 105.06 396.90 618.79 966.92 390.29 1136.66 394.24 1036.96 524.73 1013.05 594.30 1144.89 597.80
00006259 00000026 900.09 102.89 393.38 616.58 965.66 390.02 1134.55 394.63 1033.56 522.23 1010.58 590.57 1143.94 594.37
00006260 00000027 899.06 99.41 391.86 615.07 963.32 388.16 1131.96 393.82 1030.07 517.92 1007.84 587.30 1141.91 591.72
00006261 00000028 898.70 100.68 390.50 611.85 961.83 387.95 1130.72 394.90 1028.42 517.88 1005.49 584.42 1141.87 589.78
00006262 00000029 895.83 105.01 391.12 607.56 960.08 389.45 1129.46 396.00 1028.06 519.09 1003.30 583.19 1141.45 588.14
00006263 00000030 893.21 113.67 390.76 602.01 957.28 391.11 1128.41 397.04 1025.91 522.49 1001.35 584.97 1140.00 589.67
00006264 00000031 893.77 114.93 390.62 603.40 958.01 392.38 1127.58 398.19 1026.12 523.99 1002.29 586.83 1138.99 591.56
00006265 00000032 895.29 115.49 390.32 603.92 960.27 392.59 1127.96 397.29 1028.67 523.28 1006.40 589.59 1139.02 593.62
00006266 00000033 896.01 105.19 390.06 615.61 961.05 390.52 1128.00 395.02 1028.79 520.57 1006.96 588.99 1140.05 592.72
00006267 00000034 897.16 100.10 390.46 617.96 962.35 388.45 1128.64 392.12 1029.18 514.38 1008.51 586.27 1141.60 589.10
00006268 00000035 900.54 103.49 390.22 615.54 965.95 387.71 1130.13 391.30 1030.34 512.72 1011.55 584.72 1144.02 587.45
00006269 00000036 902.56 106.64 389.21 609.44 968.35 385.35 1131.20 389.70 1031.28 510.32 1011.92 580.76 1144.55 583.99
00006270 00000037 904.81 104.59 389.59 608.59 970.47 384.85 1134.11 390.06 1033.94 511.42 1012.59 578.62 1147.11 582.47
00006271 00000038 905.20 105.81 390.63 604.36 970.97 384.02 1136.60 390.53 1035.23 512.00 1011.61 577.39 1147.24 582.33
00006272 00000039 908.52 102.21 389.77 613.26 974.68 383.13 1139.03 390.19 1038.12 511.95 1014.09 576.41 1152.46 581.65
00006273 00000040 911.75 105.40 389.90 613.57 978.35 382.88 1141.43 389.73 1041.62 511.45 1017.50 575.14 1158.11 580.09
00006274 00000041 912.94 111.02 392.24 607.60 982.67 384.45 1147.96 391.59 1047.75 511.62 1019.97 574.54 1162.78 579.76
00006275 00000042 914.72 110.20 392.67 603.26 984.06 384.49 1152.07 392.36 1049.82 511.49 1021.00 574.51 1163.28 580.27
00006276 00000043 916.80 111.26 388.99 591.83 985.55 382.31 1153.17 391.81 1050.59 508.22 1020.16 574.04 1156.77 581.34
00006277 00000044 917.65 112.15 387.64 590.98 987.45 380.78 1153.99 391.38 1051.27 506.35 1020.35 573.77 1155.20 582.04
00006278 00000045 915.14 111.62 388.44 591.28 985.98 379.16 1152.94 389.34 1050.08 503.64 1018.94 571.46 1154.94 579.48
00006279 00000046 913.35 107.06 386.62 593.74 981.58 376.67 1149.80 388.08 1044.34 501.33 1015.11 569.99 1153.01 578.78
00006280 00000047 912.73 104.93 385.88 596.87 979.43 376.39 1146.43 386.98 1041.36 501.50 1013.82 569.73 1152.32 577.69
00006281 00000048 911.67 102.68 385.91 600.61 977.83 377.07 1143.46 387.84 1038.75 503.80 1014.29 571.32 1151.28 579.36
00006282 00000049 911.77 97.85 383.89 606.79 977.24 376.81 1141.86 389.08 1037.36 504.55 1012.60 573.55 1146.98 583.00
00006283 00000050 908.60 98.44 383.44 608.72 974.28 378.59 1137.18 390.44 1034.39 504.89 1009.74 577.16 1139.13 586.43
00006284 00000051 908.36 96.95 383.28 612.27 973.61 379.13 1134.50 390.72 1032.65 504.86 1009.77 577.99 1136.92 587.01
00006285 00000052 906.58 101.38 382.87 609.07 969.17 380.27 1129.36 392.43 1026.74 507.56 1006.10 577.49 1133.69 586.75
00006286 00000053 898.44 101.93 386.57 609.09 964.10 387.21 1124.64 392.67 1020.50 514.60 997.35 577.39 1126.95 580.33
00006287 00000054 903.88 97.08 381.94 617.66 963.30 378.66 1124.26 388.99 1018.55 502.74 1000.44 576.33 1132.45 584.04
00006288 00000055 902.44 98.13 381.31 613.78 961.08 376.22 1123.43 386.18 1016.48 500.93 998.15 572.20 1134.23 579.48
00006289 00000056 902.00 99.60 381.27 609.13 960.10 376.09 1123.60 386.95 1015.82 501.72 996.77 571.46 1133.07 579.48
00006290 00000057 893.08 102.84 388.72 604.09 957.99 384.80 1118.78 391.90 1013.34 511.92 987.22 571.64 1124.04 575.67
00006291 00000058 900.50 99.38 384.55 607.39 958.77 378.59 1121.66 392.59 1015.49 508.04 995.26 574.23 1126.26 584.65
00006292 00000059 898.08 101.44 385.58 609.91 956.06 378.86 1119.60 395.31 1011.44 511.25 990.92 576.39 1121.01 588.93
00006293 00000060 896.44 100.34 386.28 612.82 952.54 378.10 1117.19 395.03 1005.89 510.74 986.98 576.15 1119.74 589.03
00006294 DELETE   900.60 100.36 378.77 613.96 950.17 381.34 1113.34 397.78 1002.00 510.86 985.45 575.22 1121.06 587.37
00006295 DELETE   897.93 102.15 377.45 614.55 947.13 381.74 1110.02 398.05 997.83 511.72 982.87 574.93 1118.50 587.09
00006296 00000063 896.44 100.99 379.97 617.80 945.97 378.30 1111.13 394.32 997.50 513.38 982.68 575.62 1120.42 587.66
00006297 00000064 895.18 105.46 381.42 613.63 946.55 376.80 1108.73 392.38 996.17 513.95 984.16 575.40 1118.61 587.01
00006298 00000065 894.35 104.50 382.19 614.50 945.54 375.78 1107.97 391.26 994.48 513.02 984.17 574.86 1119.36 586.38
00006299 00000066 892.44 108.52 383.48 607.68 944.43 376.14 1107.72 390.24 994.51 513.15 984.05 573.34 1120.61 583.77
00006300 00000067 886.04 113.99 392.97 596.08 945.48 382.21 1107.87 388.74 997.67 516.45 976.20 570.02 1119.37 573.55
00006301 00000068 885.93 111.51 394.67 594.94 944.66 381.48 1107.92 389.15 997.21 517.44 975.98 569.68 1118.82 573.98
00006302 00000069 887.19 110.11 393.90 595.72 944.41 380.52 1106.84 388.49 995.31 515.57 975.30 568.38 1118.36 572.92
00006303 00000070 888.13 111.63 392.29 592.96 943.86 378.46 1105.27 387.01 992.97 513.21 974.90 566.68 1116.97 571.62
00006304 00000071 887.18 111.19 392.99 596.84 942.66 374.23 1103.91 383.41 990.20 509.99 973.92 565.48 1117.13 570.97
00006305 00000072 886.81 111.04 393.00 602.07 941.55 371.97 1103.13 380.87 988.09 509.86 973.41 566.52 1116.51 571.84
00006306 00000073 890.90 105.16 383.78 609.15 938.17 365.28 1099.23 379.06 979.68 505.78 978.15 568.00 1114.78 577.63
00006307 00000074 885.91 104.39 392.55 609.69 938.24 372.31 1100.09 379.68 982.79 507.66 969.82 569.11 1109.76 572.92
00006308 00000075 886.03 103.39 393.59 609.97 938.37 371.86 1100.54 380.26 983.34 508.99 970.49 570.40 1108.84 575.12
00006309 00000076 886.27 104.29 393.77 606.93 938.19 372.18 1100.47 381.01 983.79 509.96 970.00 570.44 1108.05 575.56
00006310 00000077 887.30 103.38 387.19 606.59 936.13 365.56 1096.77 380.99 978.61 508.23 974.39 568.50 1106.21 579.70
00006311 00000078 886.33 100.48 387.69 608.39 935.61 365.45 1096.84 379.71 979.58 507.71 974.34 569.19 1105.16 579.49
00006312 00000079 886.40 95.94 387.19 612.49 935.82 366.38 1095.49 378.35 981.00 507.41 976.33 570.92 1104.76 579.31
00006313 00000080 886.87 93.35 386.98 616.18 938.20 370.45 1095.62 382.55 985.24 509.22 981.52 572.40 1108.32 580.78
00006314 DELETE   883.21 92.40 398.57 618.97 939.06 385.11 1102.38 383.44 993.71 509.02 977.83 576.34 1116.22 573.30
00006315 00000082 883.44 90.33 400.47 616.65 944.18 387.66 1108.43 384.59 1003.97 505.23 983.46 575.68 1120.07 571.54
00006316 00000083 885.37 87.98 401.48 617.88 948.85 390.17 1112.07 385.99 1010.07 504.57 989.28 578.62 1123.11 573.35
00006317 00000084 886.51 85.65 403.23 618.84 952.78 389.06 1116.19 385.29 1015.18 503.40 997.58 577.78 1127.68 572.69
00006318 00000085 893.12 82.43 400.36 619.41 955.53 382.16 1123.99 379.10 1018.18 503.05 1001.97 577.02 1134.41 572.69
00006319 00000086 900.98 77.92 392.02 622.82 959.22 372.77 1130.67 372.86 1018.71 497.83 1000.04 572.26 1139.83 570.97
00006320 00000087 909.56 74.21 388.51 623.83 970.83 362.09 1136.04 371.35 1026.15 488.23 1005.95 565.99 1141.33 572.55
00006321 00000088 912.95 80.08 387.69 619.16 974.84 358.72 1140.30 372.70 1027.05 489.91 1006.75 562.97 1143.04 573.18
00006322 00000089 911.52 91.00 387.91 607.53 970.82 358.39 1147.80 371.40 1030.20 501.08 997.96 561.74 1144.79 571.92
00006323 00000090 915.43 97.81 390.41 600.72 979.82 355.02 1151.30 375.55 1031.10 491.52 1003.18 559.53 1145.31 575.25
00006324 00000091 917.74 92.92 391.50 603.92 984.31 360.23 1156.79 380.66 1039.49 493.57 1005.96 560.03 1150.44 575.41
00006325 DELETE   917.00 101.99 393.22 601.18 986.28 367.87 1160.01 387.08 1044.43 501.53 1009.52 566.38 1153.98 581.19
00006326 00000093 915.06 107.18 397.02 601.43 986.32 376.95 1160.72 392.68 1048.22 507.19 1013.93 567.16 1163.75 578.88
00006327 00000094 914.93 113.04 398.35 607.02 986.39 385.30 1161.50 398.04 1051.19 514.67 1018.40 570.45 1176.57 579.48
00006328 00000095 915.17 113.09 399.23 614.22 985.89 387.31 1160.83 400.46 1050.94 520.67 1019.95 574.21 1179.10 583.24
00006329 00000096 913.75 113.33 400.45 615.48 985.36 388.03 1160.65 401.40 1050.35 520.98 1018.22 575.44 1177.80 584.66
00006330 00000097 909.61 114.21 402.90 617.61 982.61 386.24 1159.88 399.91 1049.04 521.54 1014.57 574.49 1177.75 584.08
00006331 00000098 910.24 120.09 400.54 614.92 981.79 388.11 1157.36 400.68 1047.20 522.85 1013.61 579.80 1172.44 588.93
00006332 00000099 910.56 126.30 399.00 615.76 980.54 394.28 1154.29 406.40 1046.12 527.11 1013.84 591.01 1163.35 600.44
00006333 DELETE   904.28 131.73 400.31 608.66 975.99 402.11 1152.55 412.26 1045.48 539.72 1006.25 592.79 1157.48 601.17
00006334 DELETE   902.39 127.74 398.41 615.01 973.39 410.15 1148.10 417.76 1042.74 541.42 1005.51 598.74 1155.00 604.83
00006335 00000102 902.17 129.09 396.81 616.95 973.47 407.11 1142.89 414.55 1041.85 533.53 1013.75 597.14 1154.39 602.91
00006336 DELETE   900.26 129.48 393.71 616.51 969.72 408.96 1137.90 416.06 1035.98 535.76 1010.31 599.80 1148.84 605.69
00006337 00000104 899.99 128.79 390.43 617.12 965.07 409.66 1132.46 418.01 1030.54 537.18 1005.93 601.71 1143.40 608.79
00006338 00000105 895.65 137.16 390.06 607.90 960.23 409.10 1128.29 418.10 1026.13 537.70 1000.56 599.08 1138.42 607.12
00006339 00000106 891.52 140.41 388.59 602.09 956.14 409.36 1124.68 418.08 1022.67 536.46 995.11 597.68 1132.54 605.70
00006340 00000107 887.92 137.13 387.41 604.71 950.61 410.77 1119.73 417.26 1017.85 535.44 989.52 600.42 1126.66 606.54
00006341 00000108 883.61 145.47 388.94 597.45 945.34 411.10 1115.09 415.94 1012.36 536.86 986.08 601.85 1122.94 606.88
00006342 00000109 882.86 152.65 387.59 576.56 946.53 412.02 1107.44 415.31 1007.19 541.42 986.59 604.72 1122.96 605.62
00006343 00000110 881.72 151.46 387.95 578.16 944.79 411.64 1106.75 414.70 1005.57 541.29 985.23 605.33 1122.87 605.92
00006344 00000111 879.71 149.96 387.42 581.17 942.81 410.48 1102.69 413.50 1001.87 540.22 984.07 605.30 1120.94 605.72
00006345 00000112 875.01 150.04 389.95 585.40 939.52 409.90 1097.11 411.20 997.26 539.63 983.14 606.98 1117.91 606.15
00006346 00000113 870.69 148.42 392.20 587.90 935.15 411.23 1094.99 412.62 994.41 540.86 980.48 609.04 1116.35 608.12
00006347 00000114 869.29 155.83 389.88 579.13 929.95 417.34 1095.41 418.10 991.97 543.58 974.09 607.71 1108.88 607.39
00006348 00000115 869.08 158.99 389.69 575.02 928.04 417.98 1093.21 417.72 989.86 543.44 972.91 607.89 1107.80 606.61
00006349 00000116 868.27 158.35 389.88 574.28 927.45 417.43 1091.28 415.91 989.43 541.14 974.11 606.62 1108.17 604.22
00006350 00000117 864.96 160.02 393.33 569.86 929.20 414.02 1087.44 411.38 990.32 540.00 979.86 607.62 1114.92 603.21
00006351 00000118 867.54 155.38 391.71 573.18 930.36 411.91 1089.59 409.29 990.10 536.73 978.95 605.29 1115.60 600.92
00006352 00000119 874.49 155.18 383.99 566.68 933.11 411.18 1097.54 411.52 993.04 534.71 975.84 598.33 1110.73 597.82
00006353 00000120 874.96 150.23 388.56 568.33 936.46 407.46 1098.06 407.44 996.37 532.95 977.38 598.59 1117.55 596.49
00006354 00000121 875.91 150.43 387.82 571.32 938.11 407.08 1098.34 407.45 997.72 533.42 979.62 599.77 1117.68 598.08
00006355 00000122 877.15 149.94 387.01 571.58 939.17 407.15 1100.52 408.21 999.32 534.11 980.85 600.59 1118.65 599.47
00006356 00000123 878.29 152.90 386.80 568.18 940.20 407.75 1102.48 408.94 1000.64 534.42 981.53 600.19 1120.30 599.28
00006357 00000124 878.03 151.63 387.60 573.06 940.77 408.38 1102.67 410.39 1000.43 535.34 981.61 600.89 1120.98 600.61
00006358 00000125 878.44 153.71 386.58 574.51 941.62 409.40 1101.79 411.65 1000.23 537.63 982.45 601.90 1121.48 601.86
00006359 00000126 878.81 156.63 383.51 575.84 938.95 415.15 1105.16 416.03 1000.45 542.50 977.80 602.12 1119.10 601.94
00006360 00000127 877.05 153.89 387.56 575.53 940.77 411.67 1102.96 412.53 1002.41 541.56 980.77 603.42 1123.69 602.40
00006361 00000128 875.90 154.12 386.62 573.85 939.68 411.62 1103.13 414.40 1001.70 540.74 977.76 603.89 1119.95 604.50
00006362 00000129 873.92 157.38 386.42 570.85 935.78 415.66 1103.29 416.05 999.04 541.24 973.52 601.39 1112.95 601.05
00006363 00000130 868.98 154.82 389.85 573.00 934.89 412.44 1098.41 412.77 999.24 538.64 974.02 603.26 1116.88 601.64
00006364 00000131 867.10 154.81 392.96 574.41 932.90 411.64 1095.84 411.58 997.02 539.01 972.89 601.24 1117.16 599.23
00006365 00000132 864.42 157.13 395.26 571.04 929.48 413.16 1092.47 412.00 993.97 540.76 971.67 601.80 1116.48 598.79
00006366 00000133 863.39 155.00 396.25 572.79 928.56 413.39 1091.25 409.70 994.43 539.88 973.00 600.15 1120.18 594.94
00006367 00000134 865.67 148.48 394.49 580.13 927.36 413.90 1094.00 410.35 991.48 536.51 972.18 595.20 1117.41 590.55
00006368 00000135 864.98 141.73 397.18 587.06 928.61 412.05 1096.36 407.67 994.85 532.79 973.72 592.51 1121.76 586.92
00006369 00000136 866.25 139.37 396.88 586.57 931.02 410.68 1100.25 403.81 1000.43 530.41 979.34 590.10 1128.20 582.42
00006370 00000137 865.56 141.59 397.97 578.04 934.24 409.78 1107.38 401.39 1008.67 531.51 983.77 585.54 1136.84 576.63
00006371 00000138 864.92 136.77 396.83 578.84 935.05 409.82 1109.62 398.51 1012.74 531.00 986.60 586.41 1139.18 575.11
00006372 00000139 864.55 136.05 397.70 578.40 935.18 409.65 1110.86 397.84 1013.68 531.85 987.09 585.28 1141.66 573.56
00006373 00000140 864.05 134.36 398.71 581.22 934.27 408.57 1108.85 397.96 1011.01 529.85 985.86 586.59 1138.04 575.82
00006374 00000141 865.24 133.63 397.72 584.47 932.98 406.08 1105.70 396.28 1007.42 529.04 985.03 588.11 1134.83 577.96
00006375 00000142 865.97 132.31 395.07 591.81 932.35 404.55 1100.00 394.39 1003.51 528.06 986.15 591.00 1131.10 580.48
00006376 00000143 866.39 131.00 394.66 598.12 931.88 402.37 1097.77 392.01 1001.15 526.07 984.22 590.02 1131.44 579.21
00006377 00000144 867.93 130.03 393.24 598.01 933.50 402.23 1099.23 392.30 1002.02 525.24 984.59 589.62 1131.43 579.19
00006378 00000145 866.59 128.38 394.94 598.06 933.30 401.47 1099.89 391.85 1002.35 524.06 985.05 588.75 1131.60 578.51
00006379 00000146 866.65 126.25 395.50 596.22 933.35 401.58 1101.05 394.13 1001.58 525.03 984.12 587.86 1130.06 579.43
00006380 00000147 869.73 131.22 390.64 588.84 934.26 403.64 1097.26 399.81 997.31 525.02 981.82 585.95 1124.67 580.58
00006381 DELETE   873.96 127.25 386.64 591.10 934.18 399.43 1097.05 398.50 993.45 522.57 980.78 584.57 1122.10 581.80
00006382 00000149 874.99 126.79 385.76 590.53 930.93 395.93 1093.64 398.20 986.75 522.18 976.45 583.34 1117.73 583.17
00006383 DELETE   877.38 129.66 383.05 588.09 929.69 392.91 1090.76 397.82 982.70 522.61 976.05 583.70 1113.81 585.85
00006384 00000151 876.96 128.75 392.04 587.11 935.07 396.58 1093.29 395.93 989.46 524.25 975.80 586.43 1120.10 583.04
00006385 00000152 885.57 115.89 385.59 602.83 936.28 384.93 1098.96 392.58 992.06 523.27 983.32 579.31 1119.04 584.58
00006386 00000153 885.16 113.08 387.28 607.34 936.91 382.27 1099.60 390.08 991.33 520.88 982.31 579.05 1117.19 584.48
00006387 00000154 885.59 105.31 385.87 613.81 937.34 379.80 1098.23 387.71 989.30 517.72 981.79 577.70 1114.78 583.03
00006388 00000155 886.27 105.81 385.13 612.07 936.73 378.79 1096.51 388.61 986.52 520.27 982.12 578.43 1113.30 585.29
00006389 00000156 886.42 104.01 385.29 613.85 935.71 379.80 1096.67 389.74 985.71 521.84 981.58 579.16 1114.37 586.02
00006390 00000157 885.15 109.38 386.06 608.70 934.84 379.50 1095.80 389.62 984.13 521.84 981.62 580.13 1114.46 587.25
00006391 00000158 883.89 111.37 387.02 609.76 933.99 378.70 1093.62 389.60 980.63 521.28 981.97 581.27 1112.42 588.95
00006392 00000159 882.71 114.96 387.61 608.39 932.34 379.35 1091.66 390.28 978.18 523.24 980.61 582.83 1110.65 590.51
00006393 00000160 881.23 117.96 389.73 609.82 931.61 379.98 1090.76 389.96 976.98 523.70 980.15 584.47 1110.08 591.40
00006394 00000161 878.98 118.03 390.95 612.08 928.78 379.37 1089.00 389.43 974.07 525.81 977.63 584.93 1110.00 592.07
00006395 00000162 874.57 131.15 395.00 593.66 929.61 392.51 1081.79 392.09 974.84 524.76 976.87 594.13 1112.49 590.87
00006396 00000163 874.41 132.94 394.47 591.83 929.78 392.91 1080.84 393.26 974.53 526.15 977.19 594.68 1111.68 592.06
00006397 00000164 874.97 133.96 394.79 589.85 929.70 392.30 1081.77 393.46 974.14 525.96 975.47 593.30 1112.02 591.36
00006398 00000165 877.10 125.13 391.98 602.26 928.63 379.40 1091.58 393.34 975.49 530.65 975.07 582.24 1111.29 592.48
00006399 00000166 876.76 125.51 390.04 602.78 927.67 380.78 1091.82 394.16 976.02 531.21 972.87 582.66 1110.82 592.51
