Video ID: 	chi_Zcvkky0
H: 	2160
W: 	3840
FPS: 	23.976023976023978

FRAME INDEX X0 Y0 W H [Landmarks (5 Points)]

00001676 00000000 1551.84 412.77 923.39 1324.23 1605.14 1014.99 1917.94 903.17 1589.07 1122.04 1640.41 1445.57 1893.52 1357.91
00001677 00000001 1551.70 407.39 926.06 1331.45 1606.32 1012.84 1920.80 903.31 1590.43 1123.07 1642.09 1441.98 1902.32 1355.99
00001678 00000002 1552.48 410.25 926.27 1328.97 1606.99 1011.92 1921.86 901.83 1590.51 1121.75 1644.77 1440.54 1908.77 1353.58
00001679 00000003 1553.90 411.40 923.29 1327.31 1608.44 1007.91 1923.75 902.28 1594.87 1122.16 1646.29 1437.99 1911.91 1354.53
00001680 00000004 1555.90 411.05 920.95 1322.08 1611.95 1004.58 1924.81 899.75 1597.53 1120.19 1649.69 1436.04 1913.08 1352.82
00001681 00000005 1558.16 410.49 920.58 1319.75 1616.35 1000.23 1926.74 897.03 1600.31 1116.42 1652.60 1431.27 1914.87 1349.02
00001682 00000006 1545.93 429.18 922.71 1295.61 1609.65 997.26 1929.23 900.07 1585.39 1118.57 1649.03 1433.11 1907.64 1353.52
00001683 00000007 1547.18 429.82 924.96 1290.95 1609.04 996.20 1932.48 898.40 1588.18 1118.97 1651.58 1433.35 1911.81 1353.51
00001684 00000008 1548.77 428.69 925.42 1292.04 1611.79 996.47 1935.99 898.23 1592.45 1118.41 1656.49 1433.59 1916.76 1353.25
00001685 00000009 1552.11 429.35 922.65 1286.73 1616.21 995.33 1938.51 897.94 1595.51 1118.13 1660.16 1432.07 1917.00 1352.38
00001686 00000010 1555.37 430.66 920.57 1281.11 1618.40 995.19 1941.44 897.79 1599.16 1117.72 1664.09 1429.65 1921.61 1350.13
00001687 00000011 1555.18 430.43 923.50 1298.21 1621.15 997.01 1944.35 898.03 1605.24 1119.48 1672.37 1434.36 1932.12 1353.08
00001688 00000012 1556.85 430.40 925.84 1314.31 1625.56 998.88 1945.18 899.06 1608.73 1119.79 1680.14 1438.81 1935.82 1356.50
00001689 00000013 1556.93 430.68 930.80 1324.84 1629.39 1001.16 1944.93 897.06 1612.25 1121.33 1688.93 1446.52 1948.97 1360.01
00001690 00000014 1559.49 427.26 932.52 1327.50 1629.98 1004.29 1947.62 897.08 1612.11 1120.54 1690.21 1450.68 1951.01 1361.64
00001691 DELETE   1563.57 426.66 928.18 1325.36 1633.11 1003.86 1950.69 896.89 1616.89 1120.47 1694.76 1451.32 1953.64 1362.38
00001692 00000016 1565.01 426.04 930.31 1327.10 1634.56 1005.88 1954.02 897.30 1619.27 1119.10 1695.56 1454.20 1952.36 1364.10
00001693 00000017 1565.08 428.38 932.50 1327.09 1637.60 1004.30 1955.41 898.33 1617.88 1117.32 1692.87 1451.77 1949.78 1364.06
00001694 00000018 1566.45 429.14 934.21 1332.71 1642.17 997.82 1958.59 898.04 1621.27 1116.99 1694.41 1448.81 1952.19 1366.12
00001695 00000019 1565.52 431.46 934.39 1332.96 1642.33 996.62 1959.99 899.69 1624.60 1115.16 1696.57 1445.57 1957.31 1364.98
00001696 00000020 1564.24 429.93 931.72 1331.65 1640.96 1010.88 1961.63 913.18 1629.84 1114.68 1694.97 1447.63 1955.36 1367.02
00001697 DELETE   1566.86 425.30 928.05 1331.53 1639.86 1001.89 1960.73 909.79 1628.36 1113.04 1691.93 1441.41 1954.40 1365.95
00001698 00000022 1565.99 424.79 925.84 1327.92 1629.25 997.97 1948.71 905.40 1612.46 1115.82 1682.94 1445.65 1942.90 1369.57
00001699 DELETE   1561.08 426.96 910.44 1248.04 1622.17 987.40 1944.71 906.35 1608.95 1127.83 1662.88 1426.16 1914.24 1361.73
00001700 00000024 1545.52 459.90 908.89 1214.87 1616.69 1000.05 1945.03 902.26 1608.90 1123.67 1644.26 1444.95 1889.90 1364.89
00001701 00000025 1545.29 467.32 906.57 1218.92 1618.81 1008.33 1937.46 912.17 1599.22 1132.76 1642.87 1447.23 1887.19 1368.40
00001702 00000026 1549.46 463.64 906.93 1233.93 1618.57 1014.01 1933.57 916.84 1597.53 1142.74 1652.59 1456.21 1897.53 1375.62
00001703 00000027 1557.83 451.74 926.64 1267.53 1629.53 1002.15 1945.31 918.07 1615.89 1154.85 1683.83 1453.78 1938.97 1382.71
00001704 00000028 1566.48 450.86 934.08 1289.78 1644.74 998.99 1957.99 916.30 1628.73 1150.77 1693.67 1451.73 1955.35 1381.41
00001705 00000029 1571.70 438.32 935.69 1302.66 1641.71 1002.30 1961.88 920.53 1633.62 1151.79 1691.47 1458.20 1948.29 1390.41
00001706 00000030 1581.86 438.34 929.25 1291.41 1649.62 997.08 1965.89 918.54 1639.50 1149.93 1697.14 1451.86 1951.02 1387.38
00001707 00000031 1587.94 446.29 930.23 1288.14 1658.08 997.62 1972.19 917.72 1638.15 1149.80 1703.52 1448.81 1964.31 1381.83
00001708 00000032 1587.89 445.03 931.14 1289.39 1658.10 999.23 1973.28 919.10 1640.45 1151.81 1706.69 1450.29 1966.63 1382.96
00001709 00000033 1585.91 444.17 927.99 1280.90 1655.57 1002.64 1974.15 921.94 1644.94 1154.68 1705.93 1451.70 1963.70 1384.59
00001710 00000034 1584.72 443.48 927.51 1279.21 1654.33 1002.87 1974.43 925.38 1644.39 1156.87 1703.74 1452.33 1960.16 1387.98
00001711 00000035 1584.69 444.58 925.27 1276.67 1653.30 1004.27 1973.18 927.11 1645.57 1158.84 1704.55 1453.22 1958.80 1389.42
00001712 00000036 1581.29 438.99 930.60 1284.87 1643.14 1006.92 1962.62 928.48 1640.99 1163.03 1694.31 1460.96 1946.32 1396.73
00001713 00000037 1581.08 438.80 929.04 1288.09 1643.22 1006.39 1961.22 928.25 1639.93 1164.58 1695.88 1463.95 1945.32 1399.79
00001714 00000038 1577.32 443.23 931.38 1292.33 1637.53 1010.21 1957.24 930.69 1637.99 1166.81 1694.95 1468.34 1943.83 1403.15
00001715 00000039 1573.11 442.87 931.08 1303.01 1635.65 1009.88 1955.85 930.43 1634.67 1168.17 1694.12 1471.17 1943.54 1405.60
00001716 00000040 1570.67 440.80 930.52 1301.53 1634.01 1007.23 1950.29 930.32 1628.02 1169.71 1689.56 1468.17 1937.51 1404.59
00001717 00000041 1568.87 440.40 927.73 1295.00 1630.80 1008.30 1946.45 929.32 1623.66 1172.85 1685.92 1469.25 1932.40 1404.00
00001718 00000042 1567.77 467.13 933.61 1262.76 1622.12 1025.23 1950.10 950.97 1621.44 1181.40 1670.09 1476.60 1939.02 1418.70
00001719 00000043 1564.23 473.25 934.19 1258.30 1619.17 1030.27 1944.01 949.60 1621.43 1180.81 1669.64 1479.06 1937.25 1416.19
00001720 00000044 1562.65 448.44 920.70 1264.84 1623.79 1011.91 1938.54 928.41 1617.03 1170.73 1672.35 1464.22 1911.36 1396.85
00001721 00000045 1558.09 449.32 921.62 1260.19 1621.46 1013.53 1936.51 926.85 1613.31 1166.74 1663.18 1469.35 1898.38 1399.72
00001722 00000046 1553.19 450.59 920.92 1239.34 1620.29 1014.85 1931.70 926.33 1610.02 1167.85 1661.07 1461.87 1890.22 1392.06
00001723 00000047 1552.83 451.55 911.90 1232.78 1622.30 1020.89 1933.34 928.07 1618.25 1166.36 1664.16 1460.38 1889.62 1387.64
00001724 00000048 1547.67 455.56 921.28 1274.63 1623.30 1025.03 1926.68 931.72 1606.95 1166.16 1664.46 1475.01 1889.46 1398.97
00001725 00000049 1544.10 488.63 937.52 1252.91 1617.61 1050.56 1932.20 971.70 1600.74 1182.79 1652.35 1477.45 1907.09 1416.94
00001726 00000050 1543.16 486.22 945.28 1282.89 1616.28 1059.40 1932.75 971.19 1598.40 1184.80 1660.64 1489.00 1928.02 1420.13
00001727 00000051 1551.45 452.83 932.18 1308.09 1620.36 1039.67 1933.66 951.08 1618.91 1177.04 1681.74 1485.19 1921.91 1411.50
00001728 00000052 1562.21 450.09 919.90 1299.39 1629.44 1028.45 1951.66 949.90 1640.41 1182.45 1690.29 1476.63 1937.95 1411.45
00001729 DELETE   1587.59 434.13 923.92 1345.35 1643.87 1027.60 1960.22 949.00 1652.78 1179.54 1705.94 1483.12 1956.44 1417.91
00001730 DELETE   1582.92 468.50 942.83 1357.53 1672.72 1026.44 1992.89 954.69 1674.78 1198.28 1742.18 1493.69 2010.75 1433.17
00001731 00000055 1588.68 489.05 939.47 1348.26 1672.96 1039.63 2026.19 969.13 1701.92 1208.40 1740.84 1506.69 2045.72 1449.23
00001732 DELETE   1597.00 465.33 933.55 1346.20 1681.62 1034.18 2026.08 972.18 1712.41 1220.75 1747.26 1497.71 2034.45 1447.68
00001733 DELETE   1592.83 475.23 939.34 1338.80 1676.66 1054.56 2038.78 996.32 1730.13 1252.79 1745.72 1526.86 2036.35 1479.59
00001734 00000058 1579.43 498.97 943.58 1303.41 1672.40 1073.14 2049.55 1020.50 1752.99 1284.35 1739.25 1538.54 2049.51 1498.35
00001735 00000059 1575.95 500.17 950.43 1321.58 1664.26 1074.55 2033.12 1020.62 1728.60 1288.30 1740.20 1557.72 2017.89 1514.20
00001736 00000060 1572.78 506.76 946.96 1295.43 1657.17 1073.65 2029.33 1023.81 1725.64 1295.79 1736.77 1558.55 2009.38 1518.65
00001737 00000061 1565.50 507.70 946.63 1303.81 1650.55 1074.87 2024.00 1024.36 1717.64 1298.46 1730.50 1565.74 2004.31 1524.87
00001738 00000062 1555.07 512.16 948.28 1308.66 1642.97 1080.78 2013.90 1023.86 1709.02 1301.65 1727.04 1573.70 2002.32 1527.12
00001739 00000063 1550.98 514.75 952.39 1308.19 1636.17 1085.69 2011.60 1027.33 1708.07 1308.67 1724.09 1573.89 2006.34 1525.83
00001740 00000064 1547.96 517.77 954.92 1299.35 1636.63 1086.83 2011.08 1028.80 1711.40 1311.85 1727.67 1573.31 2009.53 1525.15
00001741 00000065 1546.27 519.57 958.36 1306.60 1637.71 1087.52 2012.66 1030.71 1710.38 1315.85 1729.62 1577.75 2012.60 1530.34
00001742 00000066 1543.32 521.28 966.56 1337.38 1639.67 1090.45 2013.15 1036.57 1704.31 1319.17 1727.62 1587.00 2018.73 1541.68
00001743 00000067 1543.51 523.94 966.43 1326.51 1641.31 1090.26 2017.38 1035.55 1709.86 1317.68 1731.17 1583.34 2025.00 1537.36
00001744 00000068 1542.10 524.88 970.95 1331.05 1642.26 1091.47 2019.10 1036.14 1712.84 1320.46 1732.29 1581.62 2030.46 1534.93
00001745 00000069 1542.91 525.89 975.18 1333.04 1643.82 1094.48 2021.99 1038.96 1715.37 1324.20 1737.37 1581.85 2036.79 1534.80
00001746 00000070 1545.45 523.87 974.42 1339.00 1645.69 1094.42 2022.76 1039.53 1714.67 1326.25 1738.34 1583.80 2035.32 1537.41
00001747 00000071 1548.07 524.08 973.93 1326.56 1642.17 1093.98 2024.40 1039.47 1716.57 1327.60 1737.71 1589.06 2026.26 1543.60
00001748 00000072 1547.41 524.71 967.21 1302.31 1638.20 1092.14 2023.25 1036.83 1718.76 1327.81 1734.24 1585.24 2018.80 1539.54
00001749 00000073 1549.61 526.14 965.46 1300.37 1638.78 1092.54 2023.43 1036.68 1720.39 1328.32 1736.44 1585.16 2019.97 1539.05
00001750 00000074 1550.23 526.44 966.15 1293.04 1638.03 1091.90 2023.09 1035.89 1719.71 1327.38 1735.41 1583.57 2018.33 1537.30
00001751 00000075 1548.99 526.19 966.89 1294.42 1638.09 1092.58 2022.96 1036.85 1720.37 1327.30 1735.02 1581.19 2020.47 1535.17
00001752 00000076 1548.98 527.01 967.08 1292.57 1637.21 1092.46 2022.35 1037.72 1718.65 1327.58 1732.81 1580.64 2018.09 1535.38
00001753 00000077 1550.22 525.58 965.19 1285.93 1635.17 1093.04 2020.14 1034.97 1715.62 1325.00 1730.85 1581.86 2011.98 1533.95
00001754 00000078 1548.37 524.89 964.30 1278.18 1633.59 1092.28 2019.72 1035.37 1715.37 1323.68 1727.78 1579.19 2008.55 1532.22
00001755 00000079 1545.72 523.60 964.60 1277.16 1631.60 1091.32 2015.95 1037.11 1711.06 1325.93 1725.89 1577.72 2004.84 1532.48
00001756 00000080 1543.13 521.40 964.03 1271.84 1626.99 1093.95 2013.32 1036.32 1707.52 1324.10 1722.17 1579.81 2000.50 1531.60
00001757 00000081 1540.89 520.13 962.52 1272.93 1622.96 1095.16 2008.07 1036.94 1702.16 1323.35 1716.74 1576.81 1997.74 1527.85
00001758 00000082 1536.48 520.10 962.97 1272.07 1620.83 1094.72 2005.54 1037.42 1698.97 1322.76 1713.45 1575.06 1996.16 1526.78
00001759 00000083 1534.86 517.79 962.67 1278.15 1619.36 1094.94 2004.26 1037.01 1697.56 1322.52 1713.12 1574.54 1996.14 1525.96
00001760 00000084 1532.89 520.96 963.13 1270.77 1617.29 1096.05 2003.30 1038.02 1695.01 1321.57 1709.65 1575.68 1991.72 1526.89
00001761 00000085 1531.31 520.70 961.58 1267.83 1616.19 1097.86 2003.31 1038.72 1696.30 1322.07 1708.28 1577.28 1989.19 1527.68
00001762 00000086 1530.42 520.83 960.44 1264.35 1615.84 1098.82 2001.71 1038.46 1698.06 1323.21 1708.61 1576.62 1989.50 1526.03
00001763 00000087 1532.18 521.25 958.13 1271.65 1617.71 1098.68 2001.70 1037.20 1698.15 1320.55 1711.27 1575.72 1992.51 1524.39
00001764 00000088 1535.33 518.02 958.69 1270.62 1621.14 1092.60 2002.24 1033.05 1699.57 1315.35 1713.51 1570.13 1993.34 1520.23
00001765 00000089 1537.07 511.22 956.37 1276.06 1622.13 1086.85 2002.58 1026.61 1698.39 1305.63 1711.24 1562.75 1995.80 1512.43
00001766 00000090 1542.29 512.04 952.00 1281.67 1626.34 1082.31 2004.00 1022.06 1698.25 1298.78 1711.03 1559.04 1994.74 1509.28
00001767 00000091 1543.30 510.20 953.62 1288.92 1627.12 1081.95 2004.73 1021.03 1697.92 1297.45 1711.95 1560.66 1996.12 1510.53
00001768 00000092 1542.78 507.13 952.79 1310.31 1627.04 1083.25 2004.21 1023.41 1696.94 1300.43 1711.65 1565.44 1995.37 1516.71
00001769 00000093 1541.39 511.20 957.71 1318.68 1627.28 1087.26 2003.46 1025.91 1696.65 1305.00 1715.89 1572.48 1998.05 1522.17
00001770 00000094 1540.25 515.80 958.57 1318.33 1627.28 1090.40 2003.08 1029.82 1696.35 1309.45 1715.68 1578.60 1992.35 1529.06
00001771 00000095 1540.81 516.31 958.58 1313.29 1628.54 1090.44 2004.67 1031.13 1697.98 1309.49 1716.42 1577.55 1993.07 1529.02
00001772 00000096 1543.52 517.11 957.24 1316.52 1629.97 1087.15 2007.03 1027.69 1698.29 1305.27 1716.28 1574.59 1997.78 1525.91
00001773 00000097 1549.70 508.97 952.59 1312.93 1634.98 1079.66 2009.76 1022.13 1701.66 1296.35 1717.73 1564.82 2000.52 1517.70
00001774 00000098 1557.19 502.51 949.59 1301.90 1640.60 1070.33 2013.94 1016.00 1704.60 1286.63 1718.76 1551.23 1998.91 1507.04
00001775 00000099 1557.46 496.89 950.44 1317.61 1642.65 1065.08 2018.66 1014.89 1704.42 1285.77 1717.08 1551.14 2000.89 1510.56
00001776 00000100 1560.86 495.52 955.66 1327.11 1648.31 1067.30 2021.90 1011.91 1708.91 1283.88 1727.71 1555.21 2012.21 1509.98
00001777 00000101 1549.79 503.43 979.49 1373.84 1653.39 1076.95 2026.86 1022.77 1719.57 1298.46 1730.96 1565.57 2039.02 1522.19
00001778 00000102 1554.41 503.71 971.31 1364.21 1655.90 1081.21 2024.88 1025.01 1712.21 1297.87 1736.45 1572.42 2022.42 1526.50
00001779 00000103 1546.00 508.86 980.13 1357.52 1650.39 1113.32 2027.86 1049.41 1713.50 1293.02 1730.45 1577.24 2033.87 1523.41
00001780 00000104 1553.95 497.48 975.17 1351.03 1652.05 1107.46 2035.29 1039.73 1717.36 1277.38 1729.66 1570.85 2034.17 1514.56
00001781 00000105 1570.06 482.98 958.08 1340.51 1660.87 1071.79 2031.28 1005.39 1719.31 1247.43 1731.79 1543.14 2025.46 1488.48
00001782 00000106 1585.16 457.91 951.02 1361.49 1672.91 1041.89 2036.10 982.48 1722.48 1226.64 1734.68 1520.51 2020.50 1473.02
00001783 00000107 1589.52 442.25 958.13 1357.56 1675.59 1027.63 2039.75 969.80 1721.61 1207.57 1730.55 1507.67 2008.59 1463.05
00001784 00000108 1593.89 441.03 959.20 1359.19 1685.24 1025.78 2040.53 968.54 1727.57 1207.40 1742.28 1496.27 2017.90 1452.21
00001785 00000109 1597.08 447.45 953.29 1371.13 1682.09 1030.12 2042.02 977.32 1725.01 1223.74 1739.39 1512.43 2020.17 1471.83
00001786 00000110 1591.38 486.54 959.87 1349.39 1680.33 1052.45 2055.83 1001.84 1741.94 1247.30 1741.55 1530.06 2050.11 1490.28
00001787 00000111 1596.62 480.60 951.52 1359.97 1685.61 1059.11 2050.61 1015.63 1737.10 1270.27 1750.85 1544.16 2037.99 1509.85
00001788 00000112 1595.90 495.94 948.80 1344.76 1693.65 1075.49 2064.47 1033.90 1765.55 1289.85 1751.97 1541.09 2056.20 1509.32
00001789 00000113 1595.88 495.65 951.28 1346.88 1695.87 1076.55 2064.79 1035.37 1768.31 1287.44 1754.12 1538.95 2054.26 1507.75
00001790 00000114 1593.92 476.85 960.88 1353.34 1696.65 1084.96 2056.40 1033.70 1753.98 1261.66 1753.71 1545.14 2033.06 1503.77
00001791 00000115 1601.28 458.32 963.70 1369.69 1701.72 1074.04 2053.44 1017.36 1750.57 1237.45 1754.89 1528.82 2028.79 1484.12
00001792 00000116 1614.97 448.59 959.83 1383.08 1709.63 1049.73 2052.55 992.07 1747.94 1221.29 1764.10 1516.05 2033.05 1470.73
00001793 00000117 1616.31 468.12 961.57 1359.72 1709.11 1040.11 2084.58 986.75 1769.52 1221.38 1761.76 1511.94 2060.43 1472.18
00001794 00000118 1619.77 467.29 960.27 1379.31 1714.19 1033.60 2088.18 984.02 1769.77 1221.80 1765.06 1511.19 2069.56 1473.89
00001795 00000119 1623.71 469.80 954.33 1376.44 1711.10 1044.55 2086.09 994.78 1771.24 1236.19 1763.15 1524.33 2064.41 1487.30
00001796 00000120 1628.42 471.41 944.08 1351.01 1707.49 1047.83 2086.84 1001.94 1777.12 1244.16 1758.70 1517.93 2061.35 1484.48
00001797 00000121 1627.79 473.06 952.24 1356.25 1714.92 1044.89 2090.99 999.11 1780.95 1237.83 1764.47 1513.38 2059.92 1480.39
00001798 00000122 1629.12 470.16 956.26 1364.42 1721.35 1038.26 2093.42 989.33 1784.49 1229.41 1773.72 1509.24 2067.18 1473.41
00001799 00000123 1638.28 470.92 954.10 1369.95 1726.93 1035.02 2098.88 985.54 1784.28 1223.48 1778.98 1510.56 2077.44 1473.80
00001800 00000124 1644.54 465.71 955.99 1368.23 1724.16 1035.84 2100.54 985.73 1782.42 1228.22 1778.44 1514.53 2088.12 1477.03
00001801 00000125 1644.71 467.67 953.60 1367.21 1721.20 1039.96 2096.23 989.91 1780.92 1238.09 1781.35 1523.66 2087.94 1485.90
00001802 00000126 1641.09 468.86 953.58 1366.92 1719.52 1054.19 2090.91 1000.92 1779.02 1250.34 1783.15 1531.12 2088.61 1490.61
00001803 00000127 1637.77 473.87 957.14 1374.21 1720.78 1062.29 2088.61 1010.15 1774.70 1257.51 1784.37 1537.88 2085.96 1497.81
00001804 00000128 1633.80 474.88 958.50 1374.91 1718.26 1063.18 2088.17 1012.35 1777.06 1260.94 1780.96 1535.78 2085.82 1496.96
00001805 00000129 1634.99 475.87 954.88 1364.75 1713.59 1059.65 2086.60 1010.31 1774.15 1257.95 1774.05 1532.41 2082.56 1494.91
00001806 00000130 1632.33 472.20 956.49 1361.21 1709.01 1057.70 2085.04 1004.13 1773.60 1253.19 1771.42 1531.71 2081.70 1490.97
00001807 00000131 1630.90 472.39 958.20 1363.94 1707.41 1054.27 2082.94 1001.09 1770.92 1252.01 1769.42 1531.63 2079.99 1491.31
00001808 00000132 1629.62 470.30 964.30 1389.87 1711.79 1050.13 2084.32 1002.33 1766.96 1251.91 1768.84 1532.36 2081.74 1496.09
00001809 00000133 1627.28 469.81 964.96 1395.40 1711.45 1051.15 2085.39 1003.21 1767.18 1251.91 1766.75 1532.61 2081.09 1496.22
00001810 00000134 1627.91 471.53 960.50 1388.92 1711.13 1052.40 2084.15 1005.07 1768.34 1254.23 1767.15 1531.40 2080.92 1495.41
00001811 00000135 1628.76 473.87 958.56 1375.57 1712.68 1054.72 2083.63 1007.86 1771.08 1255.39 1771.22 1531.02 2081.77 1495.31
00001812 00000136 1631.08 476.29 960.28 1372.29 1713.73 1058.06 2083.85 1011.21 1770.71 1258.66 1771.93 1534.80 2077.95 1499.28
00001813 00000137 1635.62 474.19 953.74 1352.48 1710.47 1061.63 2084.34 1011.94 1773.45 1261.57 1771.69 1536.01 2076.94 1498.48
00001814 00000138 1637.84 474.60 953.66 1358.17 1715.24 1059.54 2087.24 1008.33 1774.03 1254.75 1776.11 1533.23 2079.84 1494.37
00001815 00000139 1642.79 472.72 952.13 1353.70 1717.72 1050.12 2094.83 996.60 1781.26 1241.68 1775.36 1525.69 2082.97 1485.49
00001816 00000140 1651.22 472.06 951.22 1355.98 1725.19 1041.77 2104.38 986.30 1781.86 1222.84 1777.66 1514.94 2086.61 1473.26
00001817 00000141 1667.43 437.38 956.59 1381.02 1742.45 1020.22 2099.95 960.95 1779.45 1195.81 1789.29 1492.01 2081.90 1445.46
00001818 00000142 1676.96 430.20 957.55 1384.28 1750.97 1016.53 2108.32 954.40 1785.01 1178.73 1794.68 1484.81 2087.11 1435.47
00001819 00000143 1665.79 468.35 962.76 1335.98 1754.60 1016.54 2132.52 968.27 1797.83 1189.92 1795.78 1485.91 2110.09 1450.31
00001820 00000144 1683.68 425.98 957.73 1401.64 1758.77 1015.96 2115.15 954.30 1789.03 1178.35 1803.62 1488.76 2097.11 1438.97
00001821 00000145 1679.05 426.21 959.28 1397.31 1757.35 1016.93 2110.22 961.32 1789.15 1186.78 1802.86 1489.97 2091.67 1445.28
00001822 00000146 1683.69 436.52 949.33 1380.19 1758.37 1039.12 2107.13 982.19 1785.79 1201.00 1805.36 1495.60 2089.65 1449.64
00001823 00000147 1688.90 433.04 950.86 1381.01 1757.84 1054.54 2106.76 988.04 1788.09 1208.63 1811.16 1505.50 2094.00 1451.38
00001824 00000148 1695.15 433.82 948.45 1377.78 1763.59 1047.08 2116.31 985.64 1799.98 1205.57 1816.04 1504.51 2098.57 1454.61
00001825 00000149 1704.18 435.37 940.96 1355.46 1771.02 1029.89 2119.60 973.38 1807.73 1197.52 1822.31 1493.64 2097.25 1448.47
00001826 00000150 1702.16 428.47 945.74 1393.22 1776.17 1024.53 2124.34 969.04 1810.47 1195.27 1820.78 1493.83 2100.78 1449.33
00001827 00000151 1689.24 461.12 955.65 1362.86 1775.82 1024.34 2159.48 985.14 1819.66 1218.06 1811.86 1512.36 2116.80 1482.88
00001828 00000152 1689.77 468.50 953.92 1354.27 1787.10 1027.90 2163.26 991.24 1828.34 1221.25 1821.64 1510.85 2109.36 1484.15
00001829 00000153 1685.16 476.48 959.73 1373.62 1788.80 1038.08 2165.77 998.62 1838.12 1241.67 1832.43 1529.94 2133.60 1500.05
00001830 00000154 1686.07 483.52 962.51 1363.99 1783.98 1051.76 2167.92 1010.79 1840.45 1264.36 1836.16 1538.88 2149.72 1507.52
CROP_BBOX: 1047 0 3104 2160
