Video ID: 	DGljWC4Llj0
H: 	1080
W: 	1920
FPS: 	25.0

FRAME INDEX X0 Y0 W H [Landmarks (5 Points)]

00048604 00000000 874.98 153.86 395.03 551.13 1068.77 347.68 1229.63 380.73 1204.55 430.13 1076.41 547.30 1207.41 573.62
00048605 00000001 876.80 154.52 394.85 554.51 1072.37 351.75 1231.89 385.18 1203.73 441.19 1072.74 552.78 1201.94 580.13
00048606 DELETE   870.22 166.03 411.14 550.38 1070.54 360.49 1228.01 392.99 1191.51 458.76 1073.91 550.61 1201.00 577.00
00048607 00000003 874.44 177.66 405.13 549.47 1073.92 371.81 1229.82 398.70 1195.09 469.33 1082.78 564.92 1205.40 586.46
00048608 DELETE   878.45 179.81 403.28 554.13 1079.08 381.11 1235.98 406.75 1200.09 477.76 1089.82 576.36 1210.38 596.25
00048609 00000005 880.76 179.42 406.57 555.70 1084.79 383.93 1244.05 406.97 1208.17 483.48 1093.36 578.26 1216.88 596.07
00048610 00000006 882.71 180.77 409.21 552.60 1085.47 382.67 1248.46 406.54 1212.88 477.07 1093.31 572.22 1224.61 590.95
00048611 00000007 886.54 180.94 405.44 550.04 1089.41 375.02 1246.95 399.90 1215.83 470.88 1093.79 567.25 1221.83 587.20
00048612 00000008 885.92 179.12 405.82 549.21 1087.07 366.49 1244.12 398.55 1213.99 463.75 1087.74 562.04 1214.90 587.82
00048613 00000009 884.44 175.20 407.44 550.25 1086.46 361.99 1244.16 397.96 1210.74 460.71 1084.81 557.72 1212.09 586.51
00048614 00000010 882.75 172.90 408.66 554.27 1084.15 362.18 1241.26 396.29 1205.49 463.74 1082.41 560.25 1207.47 587.60
00048615 00000011 881.45 173.51 408.65 564.36 1081.78 366.57 1240.45 401.49 1204.18 471.29 1077.69 568.54 1204.20 596.87
00048616 00000012 881.03 175.08 407.80 562.89 1079.86 369.24 1239.10 403.33 1202.35 472.10 1078.81 571.54 1205.04 599.05
00048617 00000013 881.89 174.24 407.80 555.63 1079.58 366.45 1239.56 397.52 1203.20 466.68 1083.69 567.24 1208.61 592.03
00048618 00000014 882.11 173.19 408.33 549.03 1078.57 363.89 1239.01 395.89 1201.02 459.38 1083.29 559.24 1208.64 584.50
00048619 00000015 880.72 167.25 411.13 546.18 1076.65 361.50 1239.63 393.77 1200.35 454.29 1083.62 553.56 1209.76 578.91
00048620 00000016 879.97 165.69 411.19 541.64 1076.52 360.72 1240.14 392.19 1200.92 448.91 1086.01 547.53 1214.97 572.12
00048621 DELETE   879.56 165.84 407.83 552.20 1075.28 364.09 1233.51 391.36 1193.63 457.77 1084.49 555.42 1206.80 576.69
00048622 00000018 877.69 172.25 405.39 558.22 1070.20 368.58 1229.52 393.70 1188.98 470.76 1080.14 571.08 1201.56 591.16
00048623 00000019 875.60 178.39 409.46 557.87 1069.71 378.57 1233.65 403.97 1190.92 480.94 1074.89 577.11 1203.34 597.83
00048624 00000020 872.92 180.15 415.10 561.34 1072.48 385.27 1238.55 411.58 1194.82 487.97 1074.05 581.41 1205.65 602.79
00048625 00000021 873.10 183.02 417.29 562.32 1075.15 389.80 1243.04 415.93 1197.28 493.01 1074.05 584.98 1206.99 606.46
00048626 00000022 873.98 182.14 415.58 565.81 1078.14 390.66 1243.89 418.76 1199.16 497.20 1074.73 589.17 1204.67 612.36
00048627 00000023 874.18 184.22 415.65 565.27 1079.16 392.92 1244.03 421.84 1199.19 502.43 1074.05 594.20 1201.21 618.25
00048628 00000024 872.96 187.09 415.92 562.66 1078.20 395.35 1243.34 422.49 1198.98 505.90 1074.53 597.58 1200.41 620.21
00048629 00000025 872.59 189.44 415.26 561.08 1076.71 396.27 1241.30 422.33 1197.38 508.11 1072.28 599.02 1198.43 620.98
00048630 00000026 871.23 189.59 417.26 561.48 1074.54 395.99 1240.45 423.40 1196.11 508.01 1067.62 597.33 1197.82 620.75
00048631 00000027 870.12 190.45 418.38 560.80 1073.05 397.83 1238.28 422.13 1194.39 508.81 1063.59 592.46 1198.24 613.72
00048632 00000028 869.92 191.07 417.35 558.94 1073.64 398.47 1237.55 420.39 1196.83 508.98 1062.65 589.80 1199.46 609.55
00048633 00000029 869.63 191.11 417.54 557.93 1074.13 398.22 1238.12 420.93 1197.18 507.72 1063.97 589.47 1199.88 609.69
00048634 00000030 869.34 192.17 417.44 557.30 1074.24 399.17 1238.77 422.03 1197.48 507.96 1065.89 590.24 1201.07 610.38
00048635 00000031 868.14 192.80 417.45 554.95 1073.63 398.58 1239.07 421.79 1198.65 507.23 1066.72 590.45 1201.63 610.83
00048636 00000032 868.22 190.51 415.85 557.20 1071.27 396.00 1237.01 419.18 1195.10 506.07 1067.14 592.21 1200.34 612.43
00048637 00000033 868.01 185.59 414.10 570.51 1067.56 392.41 1233.66 418.15 1190.73 506.28 1061.61 596.22 1195.12 618.64
00048638 00000034 867.33 180.66 410.76 576.90 1068.64 388.49 1228.29 415.15 1187.43 501.55 1062.16 595.31 1187.47 618.27
00048639 00000035 865.54 181.71 410.01 578.72 1064.90 376.33 1222.29 407.18 1187.02 492.47 1053.48 588.33 1179.31 614.91
00048640 00000036 866.73 173.14 409.88 575.62 1062.86 366.27 1221.29 395.98 1184.00 482.25 1052.90 577.25 1181.33 602.69
00048641 00000037 872.16 166.19 402.07 567.23 1070.51 365.21 1231.72 392.38 1195.49 472.57 1061.10 571.88 1195.56 594.63
00048642 00000038 872.20 160.80 397.03 552.68 1070.25 359.29 1227.46 380.89 1194.48 461.51 1072.20 566.77 1195.09 584.12
00048643 00000039 871.83 154.59 395.24 549.89 1064.34 354.58 1222.36 374.63 1188.51 452.91 1076.35 563.15 1195.71 578.73
00048644 00000040 870.00 154.31 395.15 549.00 1060.79 357.00 1216.55 372.62 1184.88 453.61 1077.65 565.36 1192.89 577.37
00048645 00000041 868.85 160.87 397.39 548.95 1055.36 361.35 1213.72 377.25 1177.30 457.23 1072.41 569.92 1188.88 582.21
00048646 00000042 867.12 168.79 398.50 553.61 1052.19 366.65 1215.35 387.15 1174.36 466.84 1067.96 579.53 1185.55 595.93
00048647 00000043 868.33 172.94 397.86 559.77 1050.87 377.07 1218.11 397.10 1179.87 475.07 1066.20 588.78 1188.78 605.53
00048648 DELETE   868.39 179.79 399.31 558.45 1048.57 386.17 1219.74 400.65 1176.03 484.89 1066.60 597.00 1191.30 608.44
00048649 DELETE   869.69 189.88 398.14 556.06 1048.57 394.94 1224.24 413.00 1177.35 496.23 1067.14 606.71 1195.06 620.28
00048650 00000046 869.25 207.12 396.35 548.82 1041.82 399.20 1213.54 413.13 1167.88 507.74 1059.39 619.53 1184.18 629.47
00048651 00000047 870.51 211.76 396.05 540.76 1042.71 403.07 1214.45 418.12 1167.74 511.83 1058.38 620.13 1182.67 631.33
00048652 00000048 872.46 213.17 397.36 540.00 1045.78 405.33 1217.16 417.59 1171.57 515.13 1060.15 620.98 1188.12 630.10
00048653 00000049 873.76 216.45 398.68 537.38 1048.42 406.49 1220.62 416.20 1175.70 517.15 1061.50 619.20 1195.45 626.52
00048654 00000050 872.05 212.92 401.56 542.75 1045.38 406.32 1223.17 414.36 1176.43 520.72 1054.59 616.88 1198.87 623.24
00048655 00000051 870.59 211.76 402.73 552.74 1043.36 406.56 1222.20 416.88 1175.04 520.37 1050.78 618.64 1198.55 626.56
00048656 00000052 869.71 210.81 402.74 559.02 1040.11 406.37 1219.74 420.53 1170.94 519.47 1044.29 619.73 1192.88 630.73
00048657 00000053 869.26 211.38 402.64 561.07 1038.56 405.73 1218.16 422.36 1168.98 516.95 1039.21 618.01 1190.24 631.20
00048658 00000054 867.85 210.36 403.14 563.53 1037.09 405.45 1216.49 423.11 1167.66 516.77 1035.55 617.94 1187.06 632.17
00048659 00000055 867.32 209.69 402.78 557.05 1036.54 404.13 1215.52 421.40 1165.21 514.28 1038.57 616.47 1185.33 630.17
00048660 00000056 867.23 207.34 400.40 549.75 1036.33 400.83 1214.91 416.49 1163.43 509.86 1045.01 613.61 1186.14 625.28
00048661 00000057 865.22 202.76 402.39 548.58 1034.43 398.09 1212.57 413.63 1161.26 506.84 1044.86 608.33 1185.96 619.77
00048662 00000058 864.86 189.52 402.79 557.24 1042.18 396.13 1219.54 415.36 1166.75 501.26 1052.24 602.07 1187.39 616.67
00048663 00000059 864.67 200.36 400.27 550.38 1035.71 396.40 1207.98 413.36 1158.53 504.89 1050.63 612.55 1175.72 624.86
00048664 00000060 864.25 204.55 400.02 555.97 1036.90 398.72 1207.74 415.67 1158.74 507.53 1049.82 618.55 1172.57 631.14
00048665 00000061 865.84 208.88 398.75 552.30 1037.85 401.10 1211.92 418.12 1162.20 508.92 1048.49 619.33 1177.59 631.93
00048666 00000062 865.96 209.44 400.42 555.11 1037.14 404.11 1214.16 420.31 1164.81 513.65 1042.75 618.70 1182.53 631.17
00048667 00000063 865.13 210.13 402.41 554.85 1037.32 404.53 1215.83 420.63 1166.69 515.72 1041.01 616.96 1185.19 629.62
00048668 00000064 865.02 210.30 402.66 550.87 1036.24 404.44 1216.02 419.71 1165.94 516.40 1042.11 614.74 1188.73 626.61
00048669 00000065 863.54 209.19 405.48 552.72 1035.30 405.44 1217.62 422.07 1165.88 519.39 1038.82 612.29 1191.80 625.39
00048670 00000066 863.09 210.34 405.23 551.37 1036.11 405.27 1216.38 422.34 1165.50 517.79 1041.00 614.10 1188.89 627.24
00048671 00000067 864.59 211.38 401.96 548.87 1039.97 403.34 1214.11 418.55 1164.82 516.24 1048.87 617.59 1183.21 628.81
00048672 00000068 863.38 208.19 402.95 550.65 1037.65 401.54 1215.98 415.16 1166.76 516.79 1048.10 616.15 1188.02 626.16
00048673 00000069 863.17 206.31 403.53 552.61 1036.88 400.65 1217.27 415.22 1167.58 516.52 1043.56 611.38 1190.76 622.51
00048674 00000070 865.89 204.99 401.83 554.96 1037.15 399.09 1217.41 414.85 1167.78 515.93 1040.05 607.27 1191.43 619.57
00048675 00000071 867.15 203.18 400.40 554.30 1036.55 400.74 1218.01 416.90 1168.29 515.77 1041.10 608.61 1192.91 621.37
00048676 00000072 866.02 202.72 402.06 554.16 1035.75 400.34 1217.16 416.32 1165.97 516.26 1039.89 605.06 1193.59 617.67
00048677 00000073 865.44 202.71 402.74 554.83 1035.66 399.13 1216.71 416.47 1164.92 514.87 1039.40 606.40 1190.25 620.03
00048678 00000074 865.09 207.07 399.80 550.83 1040.80 398.32 1212.09 416.46 1162.98 511.02 1048.29 616.20 1174.86 629.79
00048679 00000075 865.88 209.65 398.57 547.31 1042.30 398.81 1213.58 416.98 1164.34 512.96 1051.88 618.77 1174.95 632.38
00048680 00000076 867.66 211.16 398.16 543.28 1040.39 399.74 1215.20 417.61 1164.63 513.41 1045.50 612.45 1181.92 626.44
00048681 00000077 868.04 209.72 399.43 547.61 1039.63 400.93 1216.82 420.56 1167.25 516.14 1037.88 609.32 1184.92 625.61
00048682 00000078 866.94 207.27 401.99 558.00 1039.77 400.13 1217.80 418.79 1170.59 517.57 1035.88 610.99 1186.50 626.40
00048683 00000079 866.67 204.40 403.08 555.93 1039.27 399.97 1221.72 418.51 1171.02 517.37 1037.97 607.83 1192.63 623.01
00048684 00000080 867.46 204.42 403.38 554.80 1040.04 400.16 1223.08 417.71 1172.49 517.30 1040.01 609.36 1193.44 623.84
00048685 00000081 868.17 205.97 401.98 553.88 1040.50 401.51 1222.82 418.09 1173.49 518.41 1041.39 613.41 1191.98 627.21
00048686 00000082 867.88 206.66 402.17 553.47 1041.99 401.71 1222.98 418.45 1174.98 518.32 1042.67 615.78 1189.33 629.71
00048687 00000083 867.12 207.86 401.99 554.43 1044.77 401.60 1220.68 416.96 1173.81 515.30 1048.97 618.72 1186.02 630.81
00048688 00000084 866.62 207.25 402.72 561.08 1046.40 401.07 1219.34 415.71 1173.68 515.41 1051.90 622.69 1184.30 633.78
00048689 00000085 865.73 208.11 403.62 564.22 1047.49 402.30 1218.86 417.17 1173.63 516.47 1052.60 624.85 1183.24 635.89
00048690 00000086 865.16 211.41 400.66 562.77 1049.21 411.32 1215.17 426.78 1173.57 518.05 1052.91 625.42 1180.70 636.88
00048691 00000087 863.40 209.81 401.25 564.57 1049.06 415.58 1213.04 430.11 1173.19 518.23 1054.52 626.38 1180.29 636.94
00048692 00000088 864.42 207.71 401.61 564.95 1046.48 412.15 1213.86 429.10 1171.42 515.38 1051.78 623.29 1180.76 635.73
00048693 00000089 867.52 203.00 396.96 564.18 1046.34 411.22 1213.74 431.92 1169.94 511.74 1050.19 618.66 1180.38 634.74
00048694 00000090 869.60 200.99 395.21 560.90 1048.16 408.09 1214.64 432.46 1168.56 506.88 1050.15 613.42 1179.96 632.62
00048695 00000091 867.59 194.04 397.46 565.18 1048.96 404.00 1214.72 430.41 1169.96 502.13 1051.17 609.57 1179.72 630.54
00048696 00000092 868.45 182.51 395.85 569.69 1056.32 401.72 1221.73 427.78 1177.50 493.98 1055.63 601.52 1184.20 623.01
00048697 00000093 866.26 179.95 398.14 569.20 1055.77 399.74 1222.08 426.67 1178.94 490.38 1054.07 597.31 1184.40 619.66
00048698 00000094 866.83 179.96 397.18 566.69 1056.46 397.04 1222.31 424.96 1179.37 487.18 1053.89 594.05 1184.75 617.31
00048699 00000095 867.57 179.73 396.24 565.30 1056.91 395.74 1222.26 424.06 1179.11 485.41 1053.98 592.20 1184.21 615.78
00048700 00000096 867.21 178.97 396.83 565.58 1057.42 395.86 1222.06 423.68 1179.34 485.93 1054.91 592.16 1183.69 615.25
00048701 00000097 867.83 178.00 396.81 565.78 1057.90 396.83 1222.16 423.94 1179.81 486.77 1055.45 592.34 1184.01 614.90
00048702 00000098 869.81 177.50 395.15 563.22 1058.30 396.82 1223.59 422.98 1181.19 487.62 1058.56 593.29 1185.71 614.99
00048703 00000099 870.49 178.47 395.35 557.12 1058.03 396.81 1226.13 421.45 1183.62 488.23 1061.27 591.86 1190.22 612.15
00048704 00000100 871.14 178.15 395.35 553.32 1057.39 395.69 1226.32 419.11 1183.32 488.35 1060.51 589.23 1191.04 608.58
00048705 00000101 872.48 178.34 394.38 550.26 1058.81 393.85 1226.58 415.31 1184.60 486.62 1062.15 586.75 1193.27 604.44
00048706 00000102 871.97 177.94 391.65 546.71 1060.89 389.12 1223.90 409.02 1186.66 481.48 1064.82 583.58 1191.43 600.13
00048707 00000103 867.39 176.72 392.62 543.09 1056.83 386.28 1219.99 406.34 1181.50 477.79 1059.26 577.81 1186.76 594.50
00048708 00000104 861.77 177.40 396.72 543.01 1049.37 385.69 1217.38 409.54 1175.31 477.65 1049.63 574.73 1184.17 594.57
00048709 00000105 856.11 176.87 401.68 548.35 1043.99 385.46 1212.96 413.36 1166.27 479.27 1038.23 573.95 1177.06 597.63
00048710 00000106 849.99 178.79 405.50 567.46 1037.30 383.94 1205.20 413.63 1162.98 484.25 1022.71 579.36 1167.78 605.37
00048711 00000107 848.07 181.35 411.29 578.77 1036.99 382.51 1204.79 417.68 1155.32 492.71 1008.83 579.64 1160.57 610.99
00048712 00000108 846.92 183.41 412.91 574.02 1037.11 384.66 1206.02 419.35 1155.88 495.57 1008.56 579.83 1162.01 610.60
00048713 00000109 848.29 183.15 410.43 557.47 1036.84 391.43 1210.29 421.58 1159.60 490.72 1022.23 579.89 1169.60 605.99
00048714 00000110 854.02 182.69 405.47 545.14 1041.68 391.05 1216.86 421.42 1164.02 486.11 1034.34 581.03 1173.40 606.61
00048715 00000111 857.37 182.67 403.86 546.61 1044.99 390.80 1219.23 421.32 1167.83 486.01 1036.07 580.34 1175.96 606.31
00048716 00000112 861.70 181.11 401.06 555.82 1048.00 391.18 1219.73 421.35 1170.06 486.05 1037.82 581.33 1178.79 607.11
00048717 00000113 864.99 178.49 399.48 556.72 1053.23 390.05 1222.52 419.42 1174.06 486.24 1047.99 585.53 1181.50 610.27
00048718 00000114 867.28 177.50 397.64 548.87 1057.91 388.60 1222.60 413.51 1179.38 483.93 1059.38 584.60 1184.95 605.21
00048719 00000115 868.73 174.71 397.74 551.33 1059.37 386.25 1223.33 409.95 1179.84 483.60 1061.15 584.11 1184.66 603.60
00048720 00000116 867.25 170.83 401.18 565.19 1057.09 384.53 1224.33 410.82 1177.22 483.93 1056.56 588.09 1182.90 609.80
00048721 00000117 867.51 175.68 401.07 570.05 1059.14 387.10 1223.67 418.46 1176.92 487.07 1044.65 586.71 1179.57 613.56
00048722 00000118 865.42 176.63 404.49 567.74 1056.34 390.18 1225.27 419.33 1177.47 491.78 1038.21 580.05 1186.09 605.30
00048723 00000119 864.60 178.96 404.31 563.85 1055.80 390.21 1225.03 419.85 1176.53 492.68 1036.82 579.56 1183.50 605.26
00048724 00000120 864.18 178.18 405.74 567.47 1054.98 389.32 1223.38 417.23 1175.95 492.66 1036.90 580.50 1184.51 604.68
00048725 00000121 863.33 179.26 405.64 568.06 1053.78 388.79 1221.19 418.93 1175.56 492.07 1035.42 583.54 1179.27 609.73
00048726 00000122 863.56 183.15 403.38 561.20 1049.21 388.57 1218.85 417.50 1173.81 491.67 1034.49 585.85 1176.05 611.36
00048727 00000123 863.62 181.04 402.41 557.35 1048.80 389.23 1219.56 417.56 1172.96 490.24 1038.75 586.36 1176.47 611.12
00048728 00000124 861.28 180.97 403.93 554.77 1047.73 389.02 1218.79 417.54 1171.82 488.90 1038.50 584.49 1175.42 609.22
00048729 00000125 860.52 179.45 403.04 560.02 1046.20 388.50 1216.12 417.34 1169.64 487.12 1036.49 585.30 1172.75 610.40
00048730 00000126 858.54 179.36 404.03 559.55 1044.97 388.51 1215.28 418.17 1168.41 486.65 1034.75 583.66 1172.50 609.42
00048731 00000127 858.57 180.57 402.83 560.84 1043.21 386.28 1212.57 416.44 1166.48 485.25 1031.57 583.40 1169.45 609.80
00048732 00000128 856.91 180.06 403.81 561.24 1043.48 384.40 1212.78 415.49 1168.10 485.14 1028.94 580.98 1169.96 608.13
00048733 00000129 856.53 177.65 405.89 552.18 1045.05 384.26 1217.38 414.20 1167.72 483.62 1033.43 573.95 1177.35 599.41
00048734 00000130 856.09 177.25 404.66 546.29 1044.59 383.53 1216.57 412.73 1166.93 481.28 1036.44 574.17 1175.28 598.57
00048735 00000131 856.38 176.43 403.92 544.60 1043.53 381.90 1216.61 411.15 1165.75 479.94 1037.83 575.56 1173.90 600.01
00048736 00000132 855.93 175.18 404.46 544.50 1044.76 380.55 1214.93 409.25 1165.12 479.00 1039.35 574.48 1171.77 598.26
00048737 00000133 854.73 175.65 405.44 543.27 1043.88 380.49 1214.27 409.84 1163.78 478.88 1038.77 574.27 1170.67 598.50
00048738 00000134 856.06 172.85 404.48 547.40 1042.67 381.27 1211.08 406.58 1161.03 477.04 1046.81 579.35 1171.17 599.69
00048739 00000135 855.79 171.86 404.60 547.78 1041.99 381.88 1208.81 405.32 1160.02 476.73 1049.77 580.55 1171.31 599.18
00048740 00000136 856.81 171.94 403.24 546.89 1043.63 381.95 1210.47 405.73 1162.61 476.85 1050.38 580.08 1172.60 599.06
00048741 00000137 857.39 172.44 402.41 545.19 1044.99 380.43 1215.19 407.71 1165.78 477.35 1046.31 577.05 1173.95 599.20
00048742 00000138 857.45 172.66 402.18 544.14 1045.27 380.73 1216.47 408.70 1166.36 477.69 1043.59 574.44 1174.64 597.17
00048743 00000139 858.04 173.47 401.68 543.31 1046.29 380.48 1217.04 409.08 1167.07 477.77 1042.90 573.48 1174.72 596.78
00048744 00000140 858.58 173.81 401.57 542.85 1046.46 380.17 1217.43 409.60 1167.03 477.49 1042.23 573.04 1174.33 597.13
00048745 00000141 860.47 173.55 398.51 544.31 1046.73 380.30 1216.19 408.99 1166.64 476.90 1045.28 574.64 1174.96 598.20
00048746 00000142 864.56 172.86 396.55 541.66 1055.14 381.44 1214.91 405.81 1171.73 474.20 1058.03 575.79 1175.88 595.65
00048747 00000143 866.53 168.60 396.03 549.08 1060.35 376.14 1218.26 400.89 1178.12 473.15 1066.15 578.93 1179.79 599.13
CROP_BBOX: 589 0 1552 928
