Video ID: 	8FIT_OvbAIo
H: 	1080
W: 	1920
FPS: 	25.0

FRAME INDEX X0 Y0 W H [Landmarks (5 Points)]

00000695 00000000 925.90 172.36 355.09 532.61 951.38 395.62 1071.29 381.58 947.48 482.70 977.94 586.96 1072.58 578.21
00000696 DELETE   928.37 180.31 346.09 524.67 959.84 402.57 1068.41 384.63 951.86 480.32 978.78 587.66 1069.08 572.95
00000697 DELETE   924.94 171.59 353.28 532.58 946.69 404.29 1068.55 385.45 943.50 483.39 972.61 588.81 1071.67 576.67
00000698 00000003 925.07 173.13 352.72 531.09 946.52 405.00 1067.93 386.65 942.60 484.50 972.74 588.89 1071.47 577.07
00000699 00000004 924.26 173.72 352.92 531.77 944.94 406.26 1066.87 387.91 941.11 486.73 972.35 589.88 1071.39 577.99
00000700 00000005 922.66 175.08 353.47 532.22 943.88 407.21 1066.18 389.85 940.87 489.86 972.89 590.37 1072.00 579.10
00000701 DELETE   921.03 175.14 353.91 536.15 942.45 407.87 1064.60 391.64 938.45 493.11 972.00 592.21 1071.90 581.54
00000702 00000007 921.11 175.71 352.10 535.39 939.20 408.30 1062.06 392.97 935.85 495.36 969.11 593.00 1068.29 583.10
00000703 00000008 921.28 175.65 351.42 535.69 939.20 409.29 1061.69 393.82 935.29 496.05 969.34 593.39 1068.26 583.36
00000704 00000009 921.28 174.67 351.18 537.42 937.40 409.80 1060.45 393.42 933.74 496.69 968.83 594.95 1067.76 584.25
00000705 00000010 919.92 174.80 351.82 537.41 936.26 409.38 1060.05 392.99 933.68 496.75 968.63 593.90 1069.06 583.11
00000706 00000011 919.20 175.01 352.91 537.18 935.78 409.72 1060.57 392.01 933.80 496.43 969.33 594.50 1070.43 582.56
00000707 00000012 918.45 175.49 354.12 538.82 935.32 408.24 1061.40 390.91 935.39 495.33 968.42 593.29 1072.04 581.53
00000708 00000013 917.82 174.85 354.81 540.86 935.04 407.74 1061.97 389.97 935.84 494.60 968.80 593.46 1073.08 581.23
00000709 00000014 916.63 176.92 357.00 541.11 935.23 407.18 1062.48 390.48 936.40 494.71 968.43 593.70 1072.34 582.27
00000710 00000015 917.18 176.77 357.47 541.20 936.91 406.43 1065.18 390.44 939.00 494.07 969.17 594.70 1072.34 584.02
00000711 00000016 918.45 173.56 357.35 547.44 939.83 406.78 1068.47 391.39 942.00 493.18 969.53 594.91 1075.64 584.58
00000712 00000017 918.20 176.04 358.10 544.19 940.94 408.54 1069.20 392.83 943.04 493.87 971.16 595.02 1077.72 584.32
00000713 00000018 919.02 177.55 358.61 545.52 945.25 407.90 1072.25 393.49 947.13 494.39 975.53 595.10 1081.61 584.90
00000714 00000019 920.26 180.36 359.92 541.87 949.29 406.33 1075.02 393.58 950.94 495.31 979.99 595.05 1085.32 586.04
00000715 00000020 919.55 180.21 360.63 543.65 949.32 405.91 1075.38 394.64 951.29 495.84 979.49 595.00 1085.20 587.02
00000716 00000021 919.66 180.23 360.37 542.72 947.70 406.09 1075.47 394.72 951.07 496.66 977.91 595.15 1084.93 587.27
00000717 00000022 922.62 180.27 360.70 539.62 951.66 404.76 1077.73 395.50 952.22 498.43 980.68 593.79 1087.26 587.66
00000718 00000023 930.37 182.42 355.38 535.29 961.46 405.20 1079.00 391.32 958.17 492.77 981.76 590.95 1086.02 579.28
00000719 00000024 931.20 181.33 355.84 532.51 962.17 404.06 1082.06 390.28 960.16 494.10 981.77 590.06 1087.48 578.71
00000720 00000025 931.54 178.60 356.82 532.27 962.35 402.96 1084.84 388.83 961.78 494.61 981.93 588.08 1090.97 576.67
00000721 00000026 933.45 174.77 358.33 535.59 964.48 403.03 1087.69 387.12 965.90 493.19 985.05 587.51 1095.60 574.75
00000722 00000027 933.81 173.49 358.97 537.63 965.50 402.57 1089.09 386.34 967.63 492.07 986.48 586.93 1097.18 573.87
00000723 00000028 934.13 174.49 359.38 538.86 966.39 403.06 1089.72 387.20 969.11 493.04 987.97 586.70 1098.18 573.83
00000724 00000029 935.78 174.11 360.84 541.16 968.05 403.69 1091.20 387.94 970.79 495.02 991.27 589.08 1099.90 576.29
00000725 00000030 936.21 174.56 360.60 539.91 968.07 405.49 1091.40 388.02 971.11 495.57 991.86 590.68 1099.78 576.61
00000726 00000031 936.32 174.97 361.55 538.38 967.60 406.84 1092.41 388.13 972.30 496.44 992.56 591.62 1100.86 576.64
00000727 00000032 937.07 174.09 360.90 539.07 968.33 405.35 1093.56 388.07 973.09 495.65 992.27 589.92 1101.28 576.09
00000728 00000033 936.94 172.45 362.05 540.11 968.94 404.77 1095.46 387.35 974.67 494.52 992.60 588.73 1102.92 574.85
00000729 00000034 937.36 173.07 362.92 539.32 969.62 405.31 1096.01 387.31 976.16 493.56 993.62 588.41 1104.01 574.01
00000730 00000035 937.44 173.12 363.21 538.56 970.93 405.65 1097.72 387.38 978.38 493.00 995.47 587.44 1107.16 572.79
00000731 DELETE   937.08 174.81 363.06 536.94 970.35 409.88 1096.92 389.70 977.78 491.37 995.09 586.73 1108.95 570.33
00000732 00000037 936.64 175.40 364.96 536.92 971.93 416.73 1098.19 394.28 979.30 491.33 997.98 589.79 1110.87 571.42
00000733 DELETE   936.94 177.29 367.59 535.80 973.29 419.80 1097.64 396.64 981.08 491.98 1000.81 592.51 1110.73 573.48
00000734 00000039 939.45 178.36 366.91 533.63 973.37 421.47 1103.70 398.54 978.94 493.75 1000.80 596.45 1114.83 578.72
00000735 DELETE   939.00 179.90 370.15 533.75 975.04 422.36 1105.71 399.61 981.37 494.79 1004.46 597.40 1117.36 579.40
00000736 DELETE   940.58 182.06 371.04 526.77 975.67 421.65 1109.23 398.18 986.32 495.87 1006.00 595.88 1124.02 577.43
00000737 00000042 934.11 182.20 373.95 525.96 976.92 423.64 1108.28 395.15 997.12 490.44 1006.33 591.52 1122.17 568.31
00000738 00000043 941.58 181.56 373.25 520.28 978.77 415.81 1115.73 393.24 993.03 490.80 1007.86 589.49 1130.22 571.60
00000739 00000044 941.89 179.20 376.14 523.08 982.21 413.03 1119.87 393.11 996.76 490.34 1010.78 586.17 1134.15 570.22
00000740 00000045 942.91 180.06 379.28 523.32 987.07 414.26 1123.92 391.12 1003.81 487.43 1017.05 585.59 1139.69 566.94
00000741 DELETE   944.80 183.81 378.26 520.79 990.57 417.06 1125.72 391.13 1008.74 487.19 1021.13 587.01 1142.94 565.92
00000742 DELETE   945.91 182.75 378.93 520.80 992.82 417.16 1127.74 391.76 1012.32 488.83 1023.48 587.82 1144.90 567.10
00000743 DELETE   944.98 182.07 380.05 520.51 994.73 414.37 1130.49 387.85 1016.31 483.97 1027.15 585.00 1148.10 563.32
00000744 00000049 947.85 184.87 381.31 523.47 997.62 404.45 1131.68 382.08 1024.55 482.25 1030.20 582.19 1152.12 563.31
00000745 00000050 951.53 180.81 380.86 527.30 1000.75 399.76 1135.03 379.06 1028.11 479.45 1032.25 579.53 1155.27 562.17
00000746 00000051 950.34 179.76 381.89 525.16 1001.07 396.51 1136.35 376.87 1030.99 478.41 1033.17 576.00 1156.06 559.49
00000747 00000052 952.22 174.35 383.01 528.89 1001.85 395.11 1141.11 375.79 1035.41 479.49 1033.11 577.64 1159.02 561.42
00000748 00000053 953.73 176.60 381.56 525.86 1005.19 393.26 1142.67 375.33 1039.64 477.73 1036.75 575.83 1159.38 560.94
00000749 00000054 954.72 178.20 381.65 529.57 1008.37 394.24 1142.78 375.45 1042.32 478.38 1041.70 576.81 1161.96 561.28
00000750 00000055 955.84 177.72 382.20 530.29 1010.27 395.02 1145.70 376.05 1045.36 478.99 1044.06 577.08 1165.04 561.37
00000751 00000056 956.22 176.41 382.78 530.40 1010.89 395.36 1148.21 376.35 1047.04 478.86 1044.61 577.20 1167.01 561.37
00000752 00000057 955.00 182.69 383.88 525.39 1014.19 399.77 1151.31 383.74 1050.35 478.68 1046.03 576.28 1167.09 563.11
00000753 00000058 955.60 182.33 383.82 527.14 1014.38 398.48 1151.06 380.96 1050.55 477.52 1046.58 575.99 1167.92 561.66
00000754 00000059 957.14 177.35 381.76 528.27 1012.45 394.40 1148.73 376.26 1047.69 476.24 1045.46 576.16 1165.63 561.21
00000755 00000060 956.63 176.32 381.55 527.93 1010.57 391.92 1147.09 373.35 1045.11 473.93 1044.02 574.76 1163.77 559.52
00000756 00000061 956.79 175.74 380.44 526.15 1010.01 391.29 1146.73 372.30 1044.84 473.11 1043.77 574.07 1163.15 558.54
00000757 00000062 956.41 175.83 377.75 519.43 1008.03 388.20 1144.08 370.62 1042.28 472.25 1040.90 571.84 1156.89 557.70
00000758 00000063 953.86 173.94 378.66 522.23 1005.59 387.79 1140.19 370.02 1039.73 472.33 1038.43 572.28 1153.34 557.97
00000759 00000064 951.77 176.05 381.70 524.22 1005.29 387.71 1137.39 368.48 1038.59 471.29 1040.54 571.12 1153.12 555.65
00000760 00000065 950.49 175.96 379.75 522.45 1002.91 384.89 1132.65 366.00 1036.08 470.32 1040.09 568.83 1148.55 553.90
00000761 00000066 947.46 174.63 379.10 522.12 998.99 383.00 1130.44 363.13 1032.90 467.88 1037.65 566.86 1147.18 551.16
00000762 00000067 945.64 174.96 379.03 521.45 997.38 381.83 1128.33 361.07 1030.63 465.20 1036.45 565.58 1145.39 549.15
00000763 00000068 945.24 173.46 374.48 518.47 995.40 378.42 1126.28 358.74 1028.19 461.18 1034.66 561.95 1141.88 546.66
00000764 00000069 943.61 160.56 374.38 529.01 992.52 378.11 1122.26 356.93 1017.24 460.26 1028.72 562.99 1134.63 546.36
00000765 00000070 942.51 160.94 375.30 524.80 990.96 377.85 1121.14 356.19 1015.58 458.61 1027.36 561.66 1133.53 544.41
00000766 00000071 939.95 159.80 376.25 524.34 989.35 375.71 1117.94 353.45 1013.31 456.55 1026.75 560.70 1130.47 542.80
00000767 00000072 936.10 154.83 378.31 525.88 980.06 374.07 1118.82 348.97 1011.00 454.58 1022.09 560.74 1130.62 539.01
00000768 00000073 934.07 156.27 379.24 525.21 978.49 372.38 1116.73 346.27 1009.14 452.33 1019.80 559.17 1126.63 536.73
00000769 00000074 930.91 155.07 380.24 526.01 976.71 371.11 1114.29 344.50 1006.89 449.76 1017.48 557.76 1122.75 534.97
00000770 00000075 929.35 152.14 382.23 524.83 973.24 370.40 1111.43 343.49 1003.50 448.23 1014.04 555.79 1120.79 532.83
00000771 00000076 927.68 152.01 383.94 523.59 971.96 370.68 1109.97 342.39 1002.54 446.69 1013.82 554.99 1121.77 530.80
00000772 00000077 924.51 151.77 384.60 523.06 969.67 370.82 1107.94 343.27 1001.08 445.48 1012.14 553.77 1119.78 530.13
00000773 00000078 921.69 150.29 383.71 523.14 966.89 375.25 1105.96 346.62 1000.58 446.82 1010.01 554.63 1118.61 530.15
00000774 00000079 920.05 151.18 382.69 524.26 964.19 377.12 1102.86 348.26 998.82 449.80 1007.74 555.88 1116.92 531.23
00000775 00000080 918.07 155.71 381.38 522.06 962.23 379.91 1100.62 348.96 998.47 450.44 1006.22 555.87 1116.67 529.47
00000776 00000081 915.58 159.08 380.99 520.80 960.72 382.52 1098.20 349.02 997.59 449.33 1004.72 554.15 1115.45 525.65
00000777 00000082 913.31 159.97 381.21 522.46 959.01 383.80 1095.19 346.84 996.63 447.95 1007.97 553.29 1120.06 521.54
00000778 00000083 911.88 160.52 382.29 523.01 956.41 384.72 1092.43 346.39 993.97 448.37 1007.07 553.16 1122.16 520.09
00000779 00000084 911.02 161.81 380.71 521.62 953.53 387.01 1089.58 345.96 990.31 447.34 1005.26 554.05 1122.03 518.58
00000780 00000085 908.26 163.63 381.39 517.95 952.38 387.53 1086.87 345.87 989.72 446.95 1005.29 552.68 1122.73 516.52
00000781 00000086 906.14 162.30 382.39 517.96 950.70 388.34 1083.75 346.67 988.57 447.02 1003.61 550.63 1121.31 514.27
00000782 00000087 904.08 162.37 383.15 516.99 948.89 389.01 1081.65 347.85 987.94 449.31 1000.58 549.71 1120.10 513.63
00000783 00000088 900.71 165.75 383.60 511.18 946.41 389.28 1079.41 348.44 988.17 452.00 999.68 549.15 1119.89 512.96
00000784 00000089 895.55 164.90 385.67 512.08 943.34 389.07 1076.47 348.68 987.96 454.34 998.84 547.96 1119.42 511.58
00000785 00000090 893.83 168.77 385.57 509.63 941.73 389.64 1076.30 349.54 988.66 457.02 996.84 549.03 1118.88 512.81
00000786 00000091 893.75 169.06 385.45 512.02 941.16 389.77 1076.56 350.08 988.07 458.44 995.63 550.26 1117.91 514.30
00000787 00000092 893.00 168.42 385.99 513.65 940.81 389.62 1076.20 349.93 987.60 458.95 995.13 550.74 1117.37 514.82
00000788 00000093 893.18 168.65 386.13 513.68 940.59 389.79 1075.96 349.50 987.57 458.76 995.32 550.81 1117.93 514.42
00000789 00000094 892.86 167.77 387.14 513.74 940.69 390.02 1076.22 349.34 988.14 458.15 996.01 550.79 1118.80 514.09
00000790 00000095 897.02 169.00 386.27 513.62 943.16 391.01 1077.25 349.01 988.45 457.63 998.80 551.96 1121.13 514.45
00000791 00000096 896.71 168.65 386.64 514.27 942.64 390.97 1076.81 347.35 988.20 455.23 999.34 551.06 1122.83 512.13
00000792 00000097 896.33 166.25 386.88 515.82 942.80 388.99 1076.00 345.63 988.28 453.69 1001.47 547.76 1126.39 508.65
00000793 00000098 897.94 162.80 387.36 519.34 943.18 388.76 1074.99 341.82 987.14 450.14 1005.42 547.88 1130.73 505.66
00000794 00000099 903.85 160.86 384.68 522.96 946.52 388.85 1080.17 339.69 989.67 446.06 1008.22 549.08 1134.15 505.52
00000795 00000100 902.30 159.39 379.05 523.84 948.08 378.86 1086.36 335.32 989.56 449.48 1003.17 549.58 1134.98 509.94
00000796 00000101 903.14 155.42 381.19 525.56 949.12 375.26 1089.00 331.58 991.83 447.79 1004.22 546.69 1139.51 507.07
00000797 00000102 908.83 145.74 387.39 529.15 957.73 377.88 1100.10 324.30 1005.83 447.66 1016.35 553.31 1158.34 505.74
00000798 00000103 907.21 150.92 381.66 517.02 958.80 367.91 1099.33 326.76 1003.25 441.84 1013.96 538.11 1148.59 500.78
00000799 00000104 911.88 137.49 391.06 533.86 965.56 371.43 1109.96 319.09 1019.89 439.92 1023.83 545.16 1166.60 499.00
00000800 00000105 916.96 134.81 393.40 534.67 971.60 370.00 1115.58 317.63 1025.07 435.72 1027.79 544.88 1170.17 498.99
00000801 00000106 912.27 142.92 390.05 522.22 975.27 360.49 1117.85 321.19 1024.95 432.35 1030.20 531.26 1165.56 495.77
00000802 00000107 918.15 143.57 387.03 520.57 980.65 359.61 1121.70 321.63 1029.72 431.26 1034.06 529.73 1169.43 495.60
00000803 00000108 921.89 146.62 389.48 519.15 985.18 359.44 1125.90 321.43 1035.49 430.25 1038.34 529.02 1173.58 494.99
00000804 00000109 928.19 147.74 388.40 517.08 990.21 359.31 1131.91 321.12 1041.52 427.63 1041.78 527.36 1178.47 493.71
00000805 00000110 930.82 143.75 389.23 519.47 993.59 352.90 1136.94 317.34 1046.92 423.54 1044.57 522.17 1183.83 491.29
00000806 00000111 940.16 141.22 384.04 520.12 1002.18 347.37 1145.62 314.10 1055.69 420.30 1048.98 517.01 1190.53 488.56
00000807 00000112 947.86 139.37 381.96 517.91 1010.82 342.84 1153.56 311.38 1063.72 415.56 1053.08 509.90 1194.52 483.35
00000808 00000113 953.00 135.74 381.13 517.55 1016.40 340.16 1159.77 310.11 1070.55 413.83 1056.16 506.66 1196.66 481.54
00000809 DELETE   954.41 137.36 381.13 512.85 1017.75 344.16 1161.11 313.04 1068.89 412.73 1055.92 506.95 1194.95 481.24
00000810 DELETE   954.10 141.17 380.12 510.61 1014.69 345.56 1157.52 313.96 1061.12 412.65 1049.40 509.18 1188.13 483.39
00000811 DELETE   955.91 141.62 374.53 511.82 1009.50 345.47 1146.89 317.00 1046.78 415.46 1040.79 512.43 1174.44 489.48
00000812 00000117 957.58 144.57 369.49 510.82 1004.07 348.22 1140.74 321.69 1033.34 419.09 1032.95 519.29 1161.23 498.10
00000813 DELETE   958.50 148.15 365.32 513.34 1001.08 348.51 1132.28 328.69 1022.60 431.19 1029.71 523.51 1152.90 507.47
00000814 DELETE   959.12 146.95 361.05 518.09 997.83 353.20 1124.32 335.23 1013.47 440.26 1029.15 527.74 1148.42 512.63
00000815 00000120 957.31 141.75 359.20 529.44 991.37 354.58 1130.23 337.09 1007.16 439.40 1017.49 539.50 1144.63 523.56
00000816 00000121 956.44 144.86 357.83 526.23 989.28 358.40 1125.92 341.50 1003.90 443.21 1013.63 542.41 1133.81 527.38
00000817 00000122 953.35 148.50 357.49 526.36 984.92 360.43 1121.19 344.84 999.45 450.25 1009.32 547.94 1124.64 534.30
00000818 00000123 950.45 150.60 358.18 524.57 980.97 363.31 1117.53 346.70 995.95 452.78 1005.21 551.88 1119.12 537.55
CROP_BBOX: 687 0 1543 868
