Video ID: 	CpfGk8ms3aY
H: 	1080
W: 	1920
FPS: 	23.976023976023978

FRAME INDEX X0 Y0 W H [Landmarks (5 Points)]

00015449 00000000 896.50 104.46 400.35 593.34 934.39 338.04 1097.37 337.01 939.97 424.80 932.27 552.36 1059.51 552.29
00015450 DELETE   895.96 99.87 393.52 595.06 936.05 340.67 1086.65 336.63 946.99 426.01 935.99 549.94 1054.45 546.90
00015451 00000002 891.77 102.63 390.08 595.61 929.59 340.03 1082.36 339.36 941.24 430.17 926.39 551.10 1049.94 551.34
00015452 00000003 888.48 106.56 389.34 595.38 923.14 340.50 1075.91 341.79 934.11 434.73 919.46 553.61 1043.29 555.71
00015453 00000004 887.46 106.19 391.43 598.94 919.51 342.28 1071.52 343.60 928.03 438.11 915.58 556.33 1038.71 558.47
00015454 00000005 886.37 110.83 390.61 596.00 918.55 346.16 1068.69 346.45 927.32 439.60 915.38 558.62 1035.83 560.02
00015455 00000006 880.47 114.32 394.98 589.20 915.45 347.40 1073.08 348.40 923.56 442.92 919.17 560.71 1051.17 562.59
00015456 00000007 880.39 115.81 393.04 590.35 914.87 349.20 1070.29 349.84 922.63 445.90 919.55 564.11 1048.98 565.76
00015457 00000008 881.05 116.85 393.45 590.33 914.97 350.47 1070.70 351.38 922.91 447.98 919.79 564.75 1049.89 566.54
00015458 00000009 881.99 116.22 395.69 592.30 916.28 351.56 1072.29 351.67 923.70 449.20 921.31 565.94 1052.31 567.12
00015459 00000010 882.04 119.08 395.71 588.80 916.58 353.46 1073.47 352.23 925.34 449.92 922.50 566.63 1055.01 566.61
00015460 00000011 881.49 119.83 396.39 586.51 916.61 353.90 1074.50 351.65 926.27 449.04 922.88 565.82 1056.70 564.91
00015461 00000012 882.50 118.40 393.86 585.78 917.44 353.13 1075.30 349.66 927.29 447.04 923.14 563.99 1057.89 562.19
00015462 00000013 887.19 113.20 390.33 598.01 921.60 350.52 1073.52 346.79 932.46 443.66 926.10 562.13 1052.09 559.52
00015463 00000014 889.63 109.79 388.96 602.10 926.09 346.76 1078.33 342.49 936.84 438.22 929.76 560.02 1055.26 557.16
00015464 00000015 890.35 108.83 391.95 606.41 930.04 345.84 1082.54 338.73 941.71 432.33 934.81 559.07 1060.30 553.74
00015465 00000016 891.90 106.87 396.34 612.05 936.32 344.58 1085.21 337.41 944.77 428.15 941.01 557.71 1064.60 551.77
00015466 00000017 896.72 105.14 396.40 612.21 939.31 344.64 1087.91 336.36 945.69 426.77 942.51 558.87 1062.07 552.01
00015467 00000018 891.72 112.93 396.84 594.16 940.82 343.89 1088.64 342.67 944.69 424.60 937.66 556.45 1048.19 556.05
00015468 00000019 892.39 113.07 396.04 588.87 933.61 342.95 1094.16 341.27 938.81 425.82 924.14 558.46 1043.15 559.33
00015469 00000020 888.48 117.87 394.51 586.29 939.79 347.97 1085.45 347.76 943.05 426.19 932.91 558.05 1033.70 558.45
00015470 00000021 896.39 109.90 389.64 603.24 937.95 354.40 1083.15 346.09 952.52 433.94 936.57 567.40 1034.08 561.83
00015471 00000022 896.67 109.35 394.69 610.99 938.80 355.72 1086.48 348.81 952.57 437.12 942.37 566.52 1050.32 561.37
00015472 00000023 891.23 121.85 401.75 598.61 939.00 355.57 1088.23 353.45 947.71 437.44 941.36 565.89 1055.72 564.88
00015473 00000024 892.11 125.04 400.66 591.12 938.49 356.65 1088.75 356.38 948.53 442.22 939.97 564.03 1057.08 564.51
00015474 00000025 892.25 125.24 399.90 588.95 938.40 357.59 1088.70 359.10 947.82 444.95 940.10 561.75 1059.31 563.54
00015475 00000026 892.66 125.58 397.34 587.57 938.28 358.58 1087.12 360.06 948.49 447.78 941.93 561.90 1059.46 563.49
00015476 00000027 891.82 127.44 397.67 588.78 937.35 360.47 1085.90 360.72 947.20 448.24 941.91 563.55 1060.52 564.02
00015477 00000028 894.67 116.57 395.04 616.48 933.98 359.15 1084.61 356.80 948.22 452.26 942.55 571.81 1063.66 569.70
00015478 00000029 895.98 116.08 394.32 613.49 932.92 360.60 1083.40 358.71 948.87 455.30 941.07 573.88 1056.58 572.48
00015479 00000030 888.63 124.63 395.74 591.34 936.05 358.95 1085.70 360.17 947.58 449.40 939.09 568.63 1048.35 570.16
00015480 00000031 887.27 126.48 393.13 582.81 935.87 355.37 1085.42 358.14 945.30 442.53 934.85 563.89 1041.90 566.39
00015481 00000032 886.33 125.71 393.14 585.99 935.65 353.97 1083.36 355.18 943.45 438.28 934.38 564.49 1038.43 565.67
00015482 00000033 895.35 114.48 385.49 601.54 930.43 354.14 1076.10 350.13 944.99 441.28 932.31 569.32 1029.25 567.22
00015483 00000034 894.58 111.97 388.65 599.44 929.02 351.69 1077.97 348.24 943.17 440.37 931.08 565.59 1035.83 563.87
00015484 00000035 895.06 110.93 387.08 594.77 927.83 348.99 1077.20 347.60 940.82 440.58 927.24 562.05 1035.81 562.21
00015485 00000036 894.40 112.13 386.51 592.35 926.82 347.01 1076.58 346.25 939.22 441.25 927.26 561.31 1037.92 561.86
00015486 00000037 893.45 111.56 387.70 598.55 927.04 348.22 1076.44 346.42 938.45 440.80 928.44 562.90 1039.29 562.51
00015487 00000038 892.78 111.21 388.94 600.99 927.28 348.44 1077.89 346.48 938.43 441.84 929.75 562.68 1043.99 562.08
00015488 00000039 892.32 110.26 391.11 603.29 927.68 348.10 1080.06 345.41 940.58 441.39 931.41 562.01 1050.71 560.57
00015489 00000040 892.01 108.88 390.45 607.62 928.72 349.00 1082.76 345.29 943.77 441.31 933.35 563.70 1054.33 561.43
00015490 00000041 894.04 106.95 390.66 609.74 930.31 352.44 1083.25 347.94 946.18 440.67 935.77 566.71 1049.98 563.72
00015491 00000042 888.21 121.76 391.27 586.73 937.86 353.83 1087.11 353.85 948.32 436.84 938.71 562.79 1046.92 563.07
00015492 00000043 887.85 121.99 391.46 581.54 936.86 353.43 1086.29 353.99 946.67 436.16 935.17 562.04 1040.42 562.90
00015493 00000044 887.43 122.99 394.94 583.61 937.65 354.34 1085.98 352.99 946.46 435.24 937.19 562.80 1041.48 561.96
00015494 00000045 887.68 122.81 397.67 588.41 938.04 355.98 1085.86 353.34 947.82 436.36 939.00 564.63 1045.14 562.79
00015495 00000046 888.47 123.69 398.24 589.63 936.58 357.61 1084.68 353.91 946.70 441.31 941.03 566.99 1049.67 564.38
00015496 00000047 888.71 124.27 396.78 584.98 934.03 358.98 1082.29 354.57 944.60 444.24 940.66 566.82 1050.53 563.41
00015497 00000048 888.39 125.07 395.66 581.62 933.13 358.01 1080.17 354.62 942.21 445.74 941.04 564.29 1052.05 561.53
00015498 00000049 891.40 115.44 389.81 590.91 923.10 357.62 1074.88 352.91 941.58 453.78 934.17 567.15 1051.43 563.46
00015499 00000050 889.51 114.70 392.53 595.82 921.73 357.76 1074.52 351.96 939.49 454.25 934.35 568.85 1053.65 564.19
00015500 00000051 889.24 115.39 393.33 598.81 921.83 358.62 1073.81 352.11 938.81 455.80 936.85 571.50 1055.22 566.12
00015501 00000052 890.04 116.25 393.22 605.52 924.05 359.34 1073.73 353.46 938.89 455.47 938.53 574.00 1054.23 569.20
00015502 00000053 890.36 118.20 392.53 608.20 924.98 359.79 1073.76 354.30 938.67 456.68 939.80 574.81 1056.81 570.17
00015503 00000054 891.04 117.93 391.70 609.35 925.91 360.25 1072.90 355.67 938.46 457.12 939.83 575.19 1053.80 571.45
00015504 00000055 891.40 119.55 392.86 611.63 926.75 361.63 1073.42 355.75 939.22 457.83 941.78 577.27 1054.94 572.31
00015505 00000056 892.73 117.22 392.25 611.36 926.66 362.63 1073.31 356.31 939.43 458.70 942.16 578.65 1053.24 573.37
00015506 00000057 893.50 115.53 390.24 600.88 923.91 362.10 1073.63 355.73 940.30 459.05 938.68 575.09 1052.40 569.86
00015507 00000058 894.30 114.18 390.00 598.66 925.08 361.03 1074.68 355.03 941.80 457.14 937.03 572.01 1049.52 567.41
00015508 00000059 889.32 126.39 398.82 582.44 932.53 360.20 1079.44 355.14 941.20 447.60 939.55 567.22 1047.10 563.30
00015509 00000060 889.47 125.47 398.28 583.39 933.14 359.98 1079.09 354.11 941.55 444.71 938.61 567.78 1043.94 563.25
00015510 00000061 889.55 124.30 397.23 589.11 935.56 360.21 1079.83 353.77 944.27 443.60 940.39 569.49 1042.18 564.57
00015511 00000062 889.91 123.51 400.14 595.95 936.77 362.43 1080.82 353.60 945.68 445.30 943.32 573.54 1045.37 566.85
00015512 00000063 890.81 123.64 402.16 598.29 937.22 363.24 1081.63 355.20 946.14 447.65 944.87 574.74 1050.25 568.64
00015513 00000064 891.76 123.35 402.92 600.07 936.01 364.31 1081.95 358.07 945.40 453.21 945.14 574.54 1056.39 570.02
00015514 00000065 893.30 124.19 401.54 600.66 936.48 366.42 1081.82 361.21 944.73 455.29 944.54 574.76 1057.36 571.02
00015515 00000066 893.74 125.45 401.13 601.33 936.66 366.95 1082.36 361.86 945.76 456.87 945.79 576.04 1059.25 572.39
00015516 00000067 894.05 126.95 403.31 610.39 936.65 368.18 1082.37 361.04 945.75 457.28 949.09 580.61 1065.30 575.24
00015517 00000068 894.25 126.99 402.38 611.38 936.23 370.45 1082.15 361.77 946.24 459.63 951.13 585.19 1065.91 578.41
00015518 00000069 894.01 126.76 399.34 598.08 934.81 370.27 1081.49 363.41 945.87 461.55 950.43 579.08 1066.50 573.48
00015519 00000070 893.02 125.95 397.64 594.18 934.04 368.05 1081.73 363.44 946.84 460.96 947.64 575.90 1062.40 572.22
00015520 00000071 892.88 126.70 396.81 594.39 934.64 368.32 1081.16 363.03 947.26 460.32 946.81 579.27 1057.11 575.15
00015521 00000072 892.70 125.51 398.57 599.91 935.46 367.20 1080.52 361.79 946.58 458.06 946.97 578.31 1056.75 574.26
00015522 00000073 893.05 126.19 397.71 601.32 934.91 367.34 1080.25 361.65 945.89 457.90 946.39 580.25 1056.10 575.93
00015523 00000074 892.83 125.38 397.84 599.17 935.36 366.35 1080.48 361.43 946.66 458.31 947.12 579.44 1056.48 575.65
00015524 00000075 893.00 125.93 397.86 597.74 935.54 366.62 1081.45 361.69 947.69 459.06 947.62 579.22 1057.12 575.44
00015525 00000076 893.69 124.53 398.25 600.47 935.08 368.47 1081.47 363.11 947.39 460.19 948.25 580.86 1058.94 576.64
00015526 00000077 894.41 125.28 398.14 599.51 935.04 369.01 1081.51 363.62 947.63 461.47 948.26 581.32 1059.32 577.14
00015527 00000078 894.53 125.25 399.91 598.75 935.45 368.29 1082.62 363.89 947.85 461.91 948.85 580.08 1061.40 576.73
00015528 00000079 895.25 123.45 399.29 599.85 936.21 367.75 1083.05 363.48 948.39 461.38 949.45 578.87 1061.79 575.69
00015529 00000080 895.46 124.82 400.59 599.18 937.02 366.58 1084.11 362.91 948.74 461.48 949.67 577.73 1063.12 575.04
00015530 00000081 896.23 124.75 402.77 597.87 937.23 366.88 1084.09 362.43 947.97 460.71 949.70 577.41 1064.01 574.12
00015531 00000082 896.93 124.98 401.59 591.34 937.98 366.81 1085.42 362.17 949.87 460.38 950.61 574.32 1065.37 570.80
00015532 00000083 896.44 124.45 402.49 590.67 938.64 366.39 1085.89 361.72 949.84 459.03 950.15 571.26 1065.77 567.80
00015533 00000084 896.00 124.28 401.95 588.85 938.90 366.32 1085.36 361.79 949.38 458.04 950.05 569.71 1065.37 566.34
00015534 00000085 895.45 124.43 402.21 595.72 937.51 365.17 1085.54 361.22 949.23 458.44 949.68 571.81 1068.76 569.00
00015535 00000086 896.39 126.50 399.86 600.03 936.29 367.38 1084.29 362.00 947.71 460.25 949.33 576.09 1069.51 572.01
00015536 00000087 898.21 115.24 397.32 615.95 935.37 363.98 1083.60 358.55 948.77 459.55 948.78 576.51 1070.90 570.99
00015537 00000088 895.55 124.60 399.13 595.29 935.66 366.63 1082.40 361.70 946.74 457.72 946.81 572.87 1064.22 569.10
00015538 00000089 895.09 125.12 399.73 585.63 935.89 364.57 1082.45 360.86 946.20 457.97 947.61 567.17 1063.93 564.22
00015539 00000090 894.31 125.15 399.03 589.97 935.88 363.98 1082.01 359.51 946.73 456.59 947.26 570.38 1059.98 567.04
00015540 00000091 895.10 124.49 397.38 605.00 937.68 365.79 1080.90 359.25 947.80 454.45 948.03 581.05 1052.22 576.25
00015541 00000092 894.84 125.75 396.26 605.01 937.39 367.59 1081.03 361.70 948.26 457.20 947.62 583.14 1051.81 578.74
00015542 00000093 895.08 126.17 399.14 601.91 936.82 367.83 1081.18 363.04 946.08 458.53 945.83 580.15 1054.30 576.72
00015543 00000094 894.46 126.49 399.56 599.58 936.59 367.02 1081.66 363.02 946.13 458.98 945.55 577.66 1055.88 574.89
00015544 00000095 893.96 126.55 397.50 603.52 936.60 367.48 1081.02 362.48 946.65 457.59 945.86 580.19 1053.93 576.65
00015545 00000096 897.12 116.87 393.09 624.68 935.01 366.62 1078.98 360.92 946.84 460.53 947.99 583.61 1056.17 578.83
00015546 00000097 895.16 120.33 391.49 625.49 931.76 367.30 1074.47 360.53 942.75 461.36 945.40 586.02 1052.87 580.46
00015547 00000098 893.04 124.78 391.98 623.93 928.02 368.02 1070.09 360.79 937.65 464.36 942.95 588.38 1051.74 582.34
00015548 00000099 891.15 129.54 392.42 617.88 925.40 368.65 1065.36 361.04 931.71 465.29 940.24 587.84 1050.54 581.21
00015549 00000100 884.92 128.67 394.42 599.28 921.55 366.97 1071.55 357.37 932.70 464.94 934.04 580.69 1063.33 573.35
00015550 00000101 888.89 123.19 393.89 604.58 921.09 363.99 1064.69 357.58 928.31 460.63 934.78 576.71 1048.66 571.45
00015551 00000102 887.85 123.01 393.76 598.33 919.40 361.80 1064.34 355.94 928.24 459.45 933.73 573.69 1049.22 568.86
00015552 00000103 886.30 124.30 395.19 596.17 919.10 361.62 1064.32 355.86 928.21 458.71 933.75 572.46 1050.46 567.71
00015553 00000104 886.17 126.34 394.93 595.87 919.29 362.79 1063.84 357.17 928.44 460.43 933.83 574.01 1050.19 569.31
00015554 00000105 885.96 125.21 394.15 597.12 919.10 362.42 1065.10 357.04 928.66 460.77 933.20 574.59 1051.71 570.07
00015555 00000106 886.81 127.03 394.11 596.39 919.41 362.20 1065.73 357.34 928.91 461.94 933.86 575.28 1052.24 571.11
00015556 00000107 888.16 128.80 394.02 596.01 919.94 364.59 1065.79 358.80 929.42 464.11 935.38 577.03 1053.83 571.94
00015557 00000108 856.56 173.76 512.78 805.78 907.95 490.71 1103.43 467.04 925.56 608.12 938.89 758.07 1130.42 737.74
00015558 00000109 861.33 172.96 512.71 803.06 911.43 489.04 1108.88 465.21 929.49 605.33 940.58 757.54 1131.84 737.27
00015559 00000110 866.43 173.29 515.17 795.22 916.65 485.92 1117.49 469.23 937.08 604.55 937.62 751.29 1128.93 737.55
CROP_BBOX: 532 0 1780 1080
