Video ID: 	0sYMSVCscDw
H: 	2160
W: 	3840
FPS: 	25.0

FRAME INDEX X0 Y0 W H [Landmarks (5 Points)]

00006095 00000000 1065.46 229.44 463.67 726.01 1300.72 491.60 1482.92 533.69 1435.90 656.30 1289.53 771.43 1434.73 802.26
00006096 DELETE   1055.13 225.97 461.94 718.68 1289.26 486.78 1470.17 519.70 1429.66 642.92 1280.40 764.46 1426.87 788.04
00006097 00000002 1045.24 230.25 457.48 704.97 1281.32 477.32 1460.20 504.64 1421.56 633.62 1275.81 758.78 1420.94 777.36
00006098 DELETE   1028.50 222.23 463.16 720.57 1271.32 466.18 1448.20 492.68 1417.77 622.79 1259.76 750.25 1406.57 769.47
00006099 00000004 1006.77 218.55 472.30 733.70 1256.69 466.64 1431.60 487.06 1409.10 607.89 1245.17 733.18 1395.09 749.67
00006100 00000005 998.76 225.54 471.34 733.80 1240.99 464.62 1418.30 485.32 1394.52 597.53 1231.55 724.94 1384.87 742.71
00006101 00000006 992.52 218.69 471.67 742.05 1222.85 460.87 1409.26 479.75 1380.59 583.12 1223.99 720.61 1383.15 737.56
00006102 00000007 984.90 207.27 467.13 755.17 1206.93 460.57 1393.82 477.82 1369.57 577.37 1220.32 724.80 1372.59 740.14
00006103 00000008 979.55 204.08 463.57 753.62 1200.02 459.61 1383.26 474.41 1364.28 578.10 1212.62 724.70 1360.81 737.88
00006104 00000009 969.45 206.04 463.91 726.40 1183.12 464.34 1369.56 463.56 1351.02 585.96 1200.16 721.63 1365.52 721.74
00006105 00000010 963.49 202.32 466.55 716.41 1175.43 463.40 1362.40 463.40 1340.20 585.77 1198.00 721.03 1361.40 720.79
00006106 00000011 951.34 200.46 470.65 708.86 1167.34 461.53 1353.25 460.44 1334.56 585.61 1199.25 715.76 1358.59 714.44
00006107 00000012 947.08 198.98 466.77 712.05 1164.06 464.32 1349.84 464.17 1329.19 596.81 1194.88 723.01 1351.89 721.58
00006108 00000013 944.03 194.57 465.48 719.97 1161.09 466.73 1348.28 468.91 1326.66 599.43 1195.27 730.98 1349.00 731.07
00006109 00000014 939.73 198.05 473.94 732.36 1161.43 477.53 1354.69 484.89 1325.09 615.02 1185.53 739.23 1348.04 745.24
00006110 00000015 938.87 204.13 471.64 731.37 1157.91 484.02 1352.61 488.47 1323.56 624.63 1179.07 747.27 1345.86 750.97
00006111 00000016 939.13 210.25 471.08 722.67 1155.53 486.57 1351.71 488.48 1321.83 631.60 1175.11 752.63 1347.81 753.64
00006112 00000017 941.00 215.35 472.46 720.65 1157.58 488.46 1354.18 488.67 1328.12 635.37 1183.19 759.34 1353.38 758.83
00006113 00000018 947.78 207.99 471.80 729.18 1163.70 496.35 1358.61 494.14 1334.38 640.95 1195.09 763.61 1359.35 761.83
00006114 00000019 959.94 222.58 468.56 723.59 1177.63 501.04 1368.32 502.13 1346.26 647.16 1205.48 771.50 1365.59 772.61
00006115 00000020 979.95 224.11 454.03 743.97 1194.05 513.08 1375.56 507.27 1363.23 660.33 1209.10 789.53 1370.78 785.34
00006116 00000021 984.67 230.65 456.80 736.81 1202.17 517.87 1382.25 509.49 1374.34 663.21 1219.83 792.67 1376.06 786.46
00006117 00000022 985.60 230.58 458.19 730.17 1202.95 516.63 1384.70 505.72 1376.74 653.10 1224.96 785.98 1386.03 778.00
00006118 00000023 984.41 226.17 466.58 730.33 1205.35 513.00 1390.78 503.33 1380.96 648.27 1230.24 780.44 1392.04 773.06
00006119 00000024 988.21 218.97 470.16 739.47 1209.94 522.55 1395.11 507.22 1387.45 646.78 1230.56 776.15 1400.96 766.58
00006120 00000025 991.07 224.65 476.52 734.70 1217.40 525.12 1404.61 505.87 1396.94 646.94 1234.86 779.13 1408.04 767.05
00006121 00000026 992.36 220.81 477.24 739.17 1219.27 514.83 1407.59 496.12 1403.63 641.02 1238.17 777.86 1411.61 765.52
00006122 00000027 993.54 215.22 473.85 738.68 1214.68 508.96 1408.01 492.15 1393.34 639.51 1241.68 778.73 1411.05 766.61
00006123 00000028 986.35 216.22 476.94 736.05 1206.79 503.92 1402.57 495.74 1382.26 639.35 1232.26 777.28 1399.80 770.62
00006124 00000029 981.25 217.28 477.36 737.54 1201.47 501.58 1393.69 495.42 1373.35 638.81 1224.73 778.08 1388.32 772.56
00006125 00000030 982.82 214.20 472.41 745.92 1195.97 498.94 1387.49 490.61 1367.26 640.18 1215.07 778.68 1381.57 771.52
00006126 00000031 982.16 220.59 476.02 737.90 1195.24 498.36 1387.84 488.02 1367.26 637.34 1213.80 774.51 1386.67 765.93
00006127 00000032 981.80 215.24 480.27 738.30 1194.99 494.85 1390.02 483.25 1365.82 634.32 1218.54 772.91 1390.00 763.08
00006128 00000033 980.73 211.81 487.21 737.65 1197.33 491.45 1398.31 483.55 1370.64 628.60 1223.21 767.90 1397.78 761.40
00006129 00000034 984.64 208.60 488.80 737.27 1201.30 486.73 1404.67 477.77 1375.98 621.71 1228.77 762.88 1407.12 755.72
00006130 00000035 986.91 210.59 484.58 738.82 1206.74 482.40 1405.60 476.56 1377.54 621.28 1237.26 770.23 1397.07 764.37
00006131 00000036 987.20 209.04 482.82 745.52 1208.53 481.96 1405.16 474.30 1380.12 619.78 1237.36 770.23 1396.75 763.23
00006132 00000037 985.50 206.30 486.35 740.85 1208.32 479.77 1407.04 474.20 1378.81 612.26 1243.90 763.17 1401.21 757.71
00006133 00000038 984.57 200.80 488.41 741.51 1206.30 476.25 1407.23 470.42 1374.98 609.13 1241.38 753.47 1399.65 747.98
00006134 00000039 980.61 198.52 491.02 739.46 1203.94 476.23 1406.85 474.70 1372.82 598.92 1239.29 745.34 1400.33 743.85
00006135 00000040 977.81 196.58 491.63 737.55 1203.74 471.63 1404.95 471.63 1370.10 593.84 1240.63 739.53 1396.76 739.09
00006136 00000041 977.74 190.39 486.42 740.70 1204.13 470.74 1398.91 470.34 1367.01 596.85 1236.32 734.32 1387.98 734.25
00006137 00000042 979.22 189.59 480.33 744.13 1204.26 475.32 1396.22 477.09 1368.62 600.63 1233.52 738.49 1386.06 740.43
00006138 00000043 980.70 199.57 479.08 738.13 1205.87 481.28 1399.71 485.60 1372.19 619.26 1223.56 748.59 1386.96 752.12
00006139 00000044 986.30 217.44 475.02 731.88 1210.40 490.58 1401.18 492.63 1376.17 633.56 1219.87 759.51 1388.47 761.27
00006140 00000045 994.53 214.20 469.63 741.82 1223.83 486.70 1412.18 490.79 1392.46 628.39 1235.47 766.61 1396.48 769.67
00006141 DELETE   994.16 210.11 479.51 733.44 1241.30 473.03 1422.94 480.91 1410.48 600.06 1263.28 747.03 1409.26 753.21
00006142 00000047 997.02 206.29 481.09 716.27 1249.84 454.40 1426.95 467.97 1422.07 576.54 1272.07 722.36 1419.19 733.03
00006143 00000048 994.35 200.81 479.15 706.06 1250.62 448.85 1426.10 467.16 1424.25 568.55 1257.31 709.31 1416.87 724.69
00006144 00000049 990.78 191.71 475.01 711.85 1239.73 446.66 1414.14 465.46 1409.19 568.20 1255.21 708.63 1408.15 722.70
00006145 00000050 988.99 199.08 482.38 716.23 1238.93 455.83 1422.87 473.44 1398.79 579.64 1249.81 714.17 1405.55 728.70
00006146 00000051 990.43 197.36 479.32 725.30 1237.97 458.23 1420.67 471.88 1395.98 582.11 1261.95 721.65 1403.10 732.51
00006147 00000052 990.10 197.78 478.19 727.72 1236.19 459.01 1418.45 469.75 1392.24 580.04 1277.05 728.74 1404.87 736.74
00006148 00000053 988.19 196.07 482.58 732.22 1238.32 455.12 1419.36 466.92 1395.44 576.65 1283.23 731.51 1407.46 739.98
00006149 00000054 990.68 198.60 484.22 731.73 1239.51 455.66 1422.39 469.03 1400.85 573.40 1286.16 730.86 1414.38 740.75
00006150 00000055 993.65 202.98 485.87 725.20 1242.33 459.66 1426.25 469.21 1402.31 580.55 1282.90 730.74 1416.73 737.64
00006151 00000056 992.95 201.69 487.91 722.65 1239.01 463.66 1430.79 473.25 1404.76 589.29 1270.28 734.46 1419.56 741.81
00006152 00000057 993.70 207.10 488.66 718.94 1237.38 465.37 1432.02 473.72 1404.15 594.15 1261.90 734.06 1419.52 740.55
00006153 00000058 994.38 205.06 486.89 720.06 1236.66 465.30 1430.52 473.39 1401.81 594.73 1258.85 732.37 1417.25 738.76
00006154 00000059 994.80 204.28 486.03 722.26 1235.81 466.37 1430.12 474.43 1400.37 594.77 1257.34 732.11 1417.01 738.64
00006155 00000060 993.70 204.63 487.91 722.85 1238.03 466.17 1430.86 476.93 1400.99 593.75 1260.83 731.22 1414.52 739.63
00006156 00000061 994.64 206.87 487.71 722.38 1239.57 467.37 1432.60 478.66 1402.72 595.91 1261.71 732.47 1415.60 741.35
00006157 00000062 995.66 209.35 487.43 720.00 1239.62 468.40 1433.68 478.25 1404.78 598.26 1267.11 739.25 1420.36 746.74
00006158 00000063 997.85 206.46 484.59 724.14 1244.60 467.91 1433.35 475.23 1409.17 599.86 1279.63 743.34 1421.16 748.35
00006159 00000064 996.24 205.89 486.09 725.66 1244.83 466.75 1433.63 475.48 1409.73 598.89 1278.01 741.67 1421.32 747.89
00006160 00000065 993.27 207.88 488.38 727.39 1242.60 466.95 1432.42 479.85 1407.91 599.26 1269.21 738.51 1418.50 748.31
00006161 00000066 990.73 208.50 490.60 725.36 1238.62 468.53 1432.58 484.69 1401.56 605.04 1253.13 736.59 1414.69 749.03
00006162 00000067 990.38 217.13 487.97 722.57 1229.93 470.84 1428.33 490.25 1387.06 611.13 1226.62 734.31 1401.01 749.73
00006163 00000068 989.62 214.64 483.84 731.45 1229.39 469.59 1423.36 493.02 1388.95 613.16 1213.55 732.64 1391.28 752.98
00006164 00000069 990.78 216.00 483.84 720.48 1227.80 466.82 1425.76 488.22 1388.07 605.42 1210.08 724.39 1397.25 743.34
00006165 00000070 992.41 212.26 483.43 712.40 1229.54 461.35 1427.85 480.86 1388.21 597.96 1213.30 717.74 1401.97 735.16
00006166 00000071 993.52 201.28 477.71 718.06 1230.72 453.51 1418.73 472.84 1392.20 588.47 1224.13 713.18 1403.10 728.82
00006167 00000072 996.63 208.08 480.20 728.02 1238.70 459.13 1430.30 478.27 1398.20 598.13 1219.45 718.33 1403.32 735.74
00006168 00000073 999.32 210.98 479.46 742.75 1245.26 461.60 1432.09 480.98 1407.80 608.50 1225.20 729.15 1400.18 747.29
00006169 00000074 1001.64 209.51 479.00 745.22 1247.17 462.50 1436.05 484.39 1413.65 611.41 1225.79 733.89 1404.14 753.91
00006170 00000075 1001.19 210.55 485.72 741.18 1253.43 466.51 1442.06 486.56 1420.12 618.03 1239.47 738.15 1412.33 755.72
00006171 00000076 1006.44 210.35 484.44 735.52 1256.81 474.69 1446.96 498.35 1427.50 621.65 1244.92 733.38 1421.90 754.03
00006172 00000077 1009.06 207.11 485.00 740.79 1260.17 477.40 1448.86 499.51 1432.67 625.54 1247.83 736.69 1424.30 756.60
00006173 00000078 1018.22 215.16 477.12 742.58 1268.88 475.10 1450.41 501.42 1433.35 631.01 1248.14 745.27 1418.86 768.00
00006174 00000079 1019.78 219.51 478.90 745.29 1274.06 477.11 1454.43 507.62 1434.42 634.97 1248.26 750.45 1418.07 776.33
00006175 DELETE   1036.74 216.44 477.36 740.65 1290.55 471.28 1471.77 519.72 1441.69 632.32 1255.15 733.03 1423.97 774.04
00006176 DELETE   1054.95 204.61 480.33 724.48 1321.73 457.31 1495.84 512.03 1457.60 614.81 1290.74 715.02 1440.83 757.94
00006177 DELETE   1068.06 196.21 482.69 704.73 1341.49 439.98 1514.21 506.95 1478.42 590.00 1318.59 680.75 1457.53 732.59
00006178 00000083 1071.40 189.93 484.64 700.20 1341.19 417.04 1513.10 510.32 1486.45 571.99 1322.92 659.11 1463.16 731.90
00006179 00000084 1068.81 185.30 478.70 692.78 1332.01 410.86 1495.18 505.90 1473.76 547.54 1325.77 645.92 1453.44 720.61
00006180 00000085 1061.68 185.92 475.57 675.33 1319.49 396.85 1487.32 483.06 1465.14 524.78 1313.33 630.39 1454.15 698.89
00006181 00000086 1049.62 176.81 483.13 675.10 1309.62 389.28 1479.63 471.56 1453.43 518.15 1300.32 630.21 1440.55 695.31
00006182 DELETE   1037.06 175.25 482.42 692.35 1297.87 395.28 1470.13 477.43 1429.91 534.07 1275.57 644.84 1411.28 709.26
00006183 DELETE   1016.48 181.45 482.36 701.64 1278.02 420.88 1459.06 480.13 1414.00 579.26 1245.20 680.49 1400.34 726.17
00006184 00000089 1015.71 189.90 479.26 711.05 1269.27 435.91 1451.43 490.22 1402.62 595.25 1244.76 696.15 1392.91 737.19
00006185 00000090 1010.50 189.54 479.16 700.91 1266.12 435.43 1449.36 480.77 1404.58 586.25 1254.16 694.42 1400.88 727.85
00006186 00000091 1008.82 187.57 474.32 690.50 1264.15 428.43 1447.35 474.35 1409.07 574.45 1255.57 685.25 1405.57 718.94
00006187 00000092 1007.32 184.89 466.62 697.59 1257.82 428.51 1435.85 471.74 1402.44 570.39 1257.81 686.74 1399.29 718.30
00006188 00000093 1002.34 188.33 465.43 711.71 1248.01 430.56 1424.86 469.85 1390.75 571.82 1255.76 697.76 1386.37 726.04
00006189 00000094 1001.52 187.30 467.23 726.97 1241.18 436.13 1426.26 470.56 1384.06 571.87 1248.09 701.46 1384.26 727.89
00006190 00000095 999.72 186.42 467.11 705.85 1240.27 429.16 1419.18 467.82 1383.80 564.13 1250.90 692.70 1384.36 720.90
00006191 00000096 1000.27 186.86 469.47 689.83 1236.82 426.48 1419.92 463.93 1380.60 556.94 1248.57 684.79 1389.91 711.79
00006192 00000097 1003.40 185.04 471.78 682.22 1236.90 422.48 1423.47 465.32 1382.42 551.83 1243.59 676.86 1394.68 708.84
00006193 00000098 1003.64 187.52 477.45 675.31 1238.49 421.90 1427.96 461.23 1382.45 548.32 1244.43 673.83 1398.30 702.77
00006194 00000099 1007.75 192.10 478.06 667.43 1244.82 421.94 1434.05 459.81 1388.86 545.35 1247.13 671.33 1405.58 698.77
00006195 00000100 1012.96 194.09 482.55 664.63 1251.96 419.98 1445.67 468.26 1402.48 541.93 1247.35 664.26 1413.84 700.73
00006196 00000101 1017.39 195.51 481.64 667.65 1265.79 414.94 1453.98 477.22 1414.28 547.72 1246.60 662.77 1411.35 710.72
00006197 00000102 1020.11 200.03 479.67 673.17 1274.44 412.35 1458.25 484.67 1423.32 551.54 1243.55 663.62 1409.38 720.35
00006198 00000103 1013.50 199.58 482.29 689.86 1272.25 417.68 1456.24 487.17 1421.71 560.57 1236.22 672.63 1406.07 727.66
00006199 00000104 1005.36 198.01 477.93 703.32 1264.61 424.44 1445.22 488.05 1415.46 570.69 1225.71 679.43 1396.44 730.49
00006200 00000105 999.75 194.29 473.93 711.37 1251.24 429.14 1432.39 482.81 1400.64 575.24 1218.03 688.97 1388.80 731.37
00006201 00000106 995.57 193.06 473.50 719.53 1241.64 437.84 1422.11 479.88 1386.79 586.72 1216.41 700.64 1381.14 733.83
00006202 00000107 992.75 202.98 477.68 723.11 1237.42 452.76 1426.71 488.28 1380.23 601.96 1209.50 712.50 1377.10 742.40
00006203 00000108 993.91 211.42 476.91 723.40 1240.74 465.49 1426.52 494.97 1385.15 622.46 1211.68 727.79 1379.19 753.79
00006204 00000109 996.03 216.34 478.70 723.07 1244.12 470.79 1429.21 499.33 1391.75 631.46 1213.07 732.39 1384.54 758.25
00006205 00000110 1000.41 222.29 475.65 718.88 1246.48 474.18 1430.30 501.30 1394.28 633.87 1218.10 735.76 1388.13 760.17
00006206 00000111 1001.58 221.03 475.93 719.47 1247.48 476.97 1431.81 503.33 1396.48 634.09 1224.58 739.50 1391.19 762.46
00006207 00000112 1003.45 223.34 475.59 717.89 1248.20 479.16 1432.92 504.63 1398.27 636.01 1228.16 741.36 1395.45 763.33
00006208 00000113 1003.32 222.67 475.75 717.88 1248.47 479.71 1432.65 504.22 1397.98 635.41 1230.45 742.22 1395.21 763.02
00006209 00000114 1003.03 223.26 475.83 718.12 1246.81 478.99 1431.81 503.01 1396.50 635.82 1229.06 742.05 1394.53 762.58
00006210 00000115 1003.02 221.24 475.74 721.73 1245.97 478.25 1430.82 500.56 1395.74 637.03 1227.69 740.49 1394.78 760.23
00006211 00000116 1003.14 225.90 475.89 716.39 1245.01 478.65 1430.43 498.94 1395.04 637.44 1226.30 738.94 1397.33 757.26
00006212 00000117 1003.69 223.81 473.35 722.30 1244.27 479.20 1428.57 498.83 1394.20 639.25 1222.77 738.02 1396.03 756.59
00006213 00000118 1004.20 222.81 470.83 725.01 1245.19 482.60 1427.34 502.96 1395.42 640.12 1221.38 738.05 1395.04 757.84
00006214 00000119 1007.63 224.31 468.11 726.82 1249.22 485.41 1430.42 509.73 1402.16 641.39 1222.13 739.87 1395.93 763.13
00006215 00000120 1009.94 229.38 467.87 724.44 1261.68 493.65 1437.49 519.10 1414.68 652.79 1230.71 741.91 1400.48 766.51
00006216 DELETE   1015.90 219.15 464.01 740.41 1278.44 494.22 1443.35 519.84 1435.59 659.86 1246.19 751.70 1404.89 776.75
00006217 DELETE   1033.13 200.84 450.87 763.84 1300.44 494.64 1453.51 526.79 1454.14 663.96 1267.92 759.24 1413.17 788.93
00006218 DELETE   1051.12 190.35 440.07 780.31 1316.76 490.04 1463.00 525.85 1467.38 660.79 1277.86 760.84 1419.99 793.18
00006219 00000124 1060.83 181.55 438.58 788.06 1327.67 490.09 1467.88 525.76 1478.09 661.18 1280.79 755.12 1421.88 788.86
00006220 00000125 1064.89 181.33 440.41 784.83 1329.94 488.05 1469.49 521.73 1480.03 658.82 1282.64 749.07 1422.04 781.78
00006221 00000126 1063.23 179.45 444.18 778.70 1328.15 483.07 1472.01 518.68 1481.88 652.04 1283.24 741.39 1427.14 775.46
00006222 00000127 1058.66 189.26 451.30 762.92 1319.75 480.14 1474.06 515.20 1475.29 643.20 1284.21 737.57 1432.13 769.57
00006223 00000128 1051.64 200.25 459.76 742.49 1309.88 475.25 1472.48 506.48 1461.17 634.17 1278.15 732.05 1431.14 760.40
00006224 00000129 1044.35 211.01 457.57 725.54 1300.83 475.87 1465.93 503.82 1447.95 628.01 1272.90 727.66 1424.57 752.75
00006225 00000130 1034.52 212.19 460.92 723.17 1290.28 469.47 1459.24 501.01 1437.70 623.82 1261.04 726.17 1416.95 753.59
00006226 00000131 1026.70 213.72 468.19 722.79 1277.29 468.36 1454.10 498.49 1428.45 623.24 1252.14 729.04 1413.40 754.84
00006227 00000132 1018.43 218.79 474.48 720.25 1263.48 467.21 1445.65 492.89 1415.83 624.25 1241.20 730.92 1408.42 752.77
00006228 00000133 1004.53 220.23 485.21 717.16 1251.43 466.08 1439.77 487.97 1405.28 620.04 1232.81 726.40 1404.64 745.38
00006229 00000134 1000.75 215.74 486.27 737.93 1251.75 456.73 1436.11 483.02 1401.84 613.72 1220.14 720.77 1389.50 745.21
00006230 00000135 1002.71 218.02 488.28 734.78 1244.53 448.53 1442.63 475.49 1404.48 591.25 1218.74 718.41 1392.21 744.66
00006231 00000136 1001.72 195.51 483.54 743.88 1250.47 437.90 1435.63 469.36 1413.01 579.37 1228.76 705.09 1400.89 731.33
00006232 00000137 1001.88 190.59 485.37 721.16 1252.25 442.03 1439.21 471.58 1412.10 577.02 1236.73 699.93 1406.99 723.72
00006233 00000138 1002.46 198.69 487.26 711.11 1256.04 459.90 1442.34 486.39 1413.45 587.04 1238.31 704.90 1410.91 726.94
00006234 00000139 1001.30 187.52 478.59 715.03 1252.83 455.18 1434.94 475.88 1417.66 585.68 1253.71 707.71 1417.61 723.46
00006235 00000140 1002.15 192.95 478.86 725.78 1250.52 461.76 1434.57 471.73 1416.41 595.46 1254.87 720.91 1417.10 729.98
00006236 00000141 999.22 189.57 482.32 733.38 1245.96 462.94 1433.18 469.13 1413.61 596.84 1261.71 726.81 1419.07 732.59
00006237 00000142 995.01 185.90 483.46 734.40 1241.43 463.07 1427.78 467.42 1410.98 591.82 1261.62 725.65 1418.39 730.28
00006238 00000143 992.62 184.62 482.66 736.27 1235.10 464.43 1423.30 470.04 1402.76 591.09 1256.48 725.03 1413.39 730.72
00006239 00000144 990.35 179.38 480.97 744.90 1229.78 467.12 1418.96 469.52 1393.17 593.10 1247.01 723.43 1404.63 727.13
00006240 00000145 988.56 188.60 479.20 749.03 1225.70 469.65 1414.99 476.78 1387.45 602.43 1235.47 733.13 1393.17 739.76
00006241 00000146 985.35 189.80 477.00 745.90 1222.27 471.72 1412.04 483.50 1388.09 612.23 1226.76 739.96 1390.68 750.14
00006242 00000147 984.91 190.64 473.19 747.48 1219.64 473.05 1407.22 482.94 1385.35 612.80 1221.29 734.01 1389.03 744.01
00006243 00000148 984.08 188.26 471.12 748.42 1215.88 471.48 1402.65 480.73 1382.08 609.79 1219.63 732.37 1386.75 741.97
00006244 00000149 980.31 188.07 471.44 751.95 1211.01 470.65 1397.92 480.58 1378.14 606.77 1217.03 730.65 1382.42 740.79
00006245 00000150 978.91 188.98 470.58 747.82 1207.45 470.52 1393.89 480.04 1375.36 607.70 1211.87 729.22 1379.94 739.33
00006246 00000151 978.03 185.15 470.98 746.12 1205.23 472.32 1393.69 481.93 1371.97 610.93 1212.44 732.96 1378.94 742.43
00006247 00000152 977.82 182.72 470.44 752.04 1205.96 473.47 1394.35 485.33 1372.99 614.34 1212.77 736.28 1376.99 747.50
00006248 00000153 976.84 184.17 468.67 753.02 1205.77 474.77 1390.81 486.72 1370.34 618.21 1214.26 740.76 1372.50 751.55
00006249 00000154 976.15 180.59 467.47 754.29 1204.06 474.90 1389.16 484.49 1367.45 617.73 1219.44 744.36 1372.60 752.46
00006250 00000155 974.32 181.23 468.48 754.24 1202.80 472.96 1388.86 484.18 1367.32 615.98 1218.07 744.35 1372.28 753.76
00006251 00000156 971.66 177.85 468.89 756.01 1202.75 470.90 1389.72 484.70 1364.69 613.10 1223.49 747.62 1370.69 758.53
00006252 00000157 969.98 175.18 466.78 753.46 1207.47 464.04 1389.23 481.94 1368.36 603.52 1234.35 746.19 1369.79 759.79
00006253 00000158 968.96 177.42 468.20 734.89 1211.48 447.31 1386.66 466.27 1365.70 580.75 1247.86 721.86 1367.05 735.64
00006254 00000159 959.54 180.74 464.96 708.37 1203.92 433.76 1375.92 451.85 1358.94 561.85 1257.26 697.83 1367.59 710.13
00006255 00000160 946.79 182.42 475.41 692.53 1186.97 421.06 1368.43 435.68 1348.16 544.19 1245.84 684.02 1369.37 693.35
00006256 00000161 936.57 176.92 475.83 688.63 1177.49 421.07 1357.60 434.27 1338.82 542.60 1234.75 684.73 1364.04 692.88
00006257 00000162 934.72 175.69 469.90 696.79 1173.26 430.43 1354.85 439.42 1338.11 552.08 1230.75 693.04 1361.65 698.35
