Video ID: 	VQ8LPUql1Sc
H: 	1080
W: 	1920
FPS: 	25.0

FRAME INDEX X0 Y0 W H [Landmarks (5 Points)]

00016496 00000000 573.99 115.79 395.83 539.47 690.96 340.81 866.40 325.12 799.08 415.68 730.34 528.69 873.57 515.31
00016497 00000001 575.37 118.70 399.96 533.30 696.09 339.90 869.86 322.66 803.09 411.60 736.14 527.26 876.27 512.44
00016498 00000002 582.32 123.42 397.55 526.01 703.57 340.29 875.52 320.83 811.30 411.28 743.02 526.33 881.91 510.05
00016499 00000003 587.74 116.21 396.83 531.57 710.26 341.32 882.13 323.33 819.64 410.52 750.01 525.62 889.49 510.66
00016500 DELETE   592.75 107.43 397.86 538.78 715.33 338.81 888.39 323.22 826.08 411.17 756.32 524.92 896.02 511.92
00016501 00000005 599.29 112.94 393.72 531.59 719.25 337.77 894.92 322.09 829.63 411.57 760.31 524.92 901.65 511.74
00016502 00000006 605.22 105.82 392.05 533.28 723.56 332.84 901.96 319.94 832.77 409.98 764.01 521.96 906.70 510.57
00016503 00000007 613.36 109.31 389.27 532.20 737.01 326.44 907.31 318.48 841.66 402.60 777.30 515.70 909.96 510.25
00016504 00000008 616.34 110.48 390.12 527.91 744.39 323.50 913.79 315.49 852.53 398.40 785.25 512.83 916.43 507.23
00016505 00000009 624.86 105.59 388.20 530.80 751.33 321.53 919.55 312.13 862.14 397.70 793.01 510.78 925.26 504.02
00016506 00000010 632.22 114.35 387.49 519.75 759.06 320.83 930.25 311.86 870.12 395.04 799.56 508.73 935.12 501.68
00016507 00000011 638.90 110.71 391.58 524.52 765.40 318.88 943.01 312.99 877.43 392.96 803.93 509.58 943.94 504.46
00016508 DELETE   644.96 111.42 394.11 523.11 773.10 320.40 948.35 313.34 886.68 393.75 812.55 510.59 951.07 504.09
00016509 00000013 655.34 104.04 392.17 528.83 781.24 321.56 958.56 314.11 897.50 395.84 819.23 511.71 961.06 504.73
00016510 00000014 663.18 103.58 392.89 527.95 789.47 322.27 969.78 313.46 907.75 400.06 826.86 511.59 973.07 503.74
00016511 00000015 668.51 113.38 393.91 523.10 797.01 323.11 975.15 313.76 914.95 398.65 832.88 509.54 980.61 501.37
00016512 00000016 675.69 106.38 390.60 519.76 802.77 324.45 982.77 314.12 921.20 399.40 839.30 507.84 987.97 498.96
00016513 00000017 681.39 103.29 388.03 522.54 806.44 324.78 989.36 314.94 923.57 398.52 841.18 507.99 993.08 499.61
00016514 00000018 678.33 103.86 393.18 529.95 814.22 321.10 988.21 316.01 929.27 397.02 845.71 506.60 989.03 503.45
00016515 00000019 678.65 101.99 393.82 533.89 814.81 321.38 987.81 316.11 929.15 397.25 849.39 509.04 988.75 505.62
00016516 00000020 680.67 103.49 391.84 531.01 817.23 320.96 989.90 315.81 932.83 399.00 854.14 512.31 990.80 508.93
00016517 00000021 683.38 106.79 391.07 531.66 821.33 322.47 994.16 317.64 938.52 402.07 859.40 515.58 994.35 512.62
00016518 00000022 688.46 107.07 387.75 531.38 825.48 322.50 996.44 318.93 940.75 405.07 862.78 518.28 994.33 516.40
00016519 00000023 691.72 105.83 389.63 533.38 829.39 321.34 1001.97 317.91 945.20 404.11 867.94 518.45 998.35 516.45
00016520 00000024 697.07 110.26 390.40 530.41 832.45 319.93 1008.53 318.40 947.88 404.22 871.37 518.90 1003.04 517.97
00016521 00000025 700.32 106.88 394.22 538.16 835.95 320.48 1013.78 320.64 951.72 406.62 874.82 523.54 1007.58 523.59
00016522 00000026 703.09 101.68 395.88 548.22 837.74 321.06 1017.36 322.47 952.95 408.54 875.05 526.25 1010.25 527.15
00016523 00000027 706.76 105.63 395.87 548.43 840.47 323.05 1020.86 324.83 955.82 411.95 877.41 528.51 1014.80 529.57
00016524 00000028 707.86 102.82 397.09 550.43 842.75 325.94 1021.18 326.39 958.12 413.30 882.37 530.34 1018.47 530.03
00016525 00000029 711.08 100.77 395.47 550.46 845.39 325.45 1021.45 328.37 958.91 412.78 881.74 526.62 1018.29 528.33
00016526 00000030 713.27 102.26 394.47 547.99 846.33 325.31 1024.24 329.17 959.47 411.84 880.02 525.26 1018.68 527.92
00016527 00000031 712.67 100.67 393.71 548.81 845.86 324.77 1023.03 328.92 959.03 411.87 880.33 524.72 1018.67 527.66
00016528 00000032 709.98 100.36 393.06 549.07 842.15 324.20 1022.12 328.89 956.87 412.26 877.36 524.84 1017.78 528.25
00016529 00000033 703.86 101.67 395.30 547.99 837.33 323.62 1017.86 326.57 952.33 412.98 873.49 526.03 1012.26 528.22
00016530 00000034 699.82 105.34 394.79 545.40 832.89 324.64 1010.84 323.34 948.46 414.60 874.42 529.21 1007.40 527.95
00016531 00000035 696.31 105.49 392.84 548.08 828.76 327.72 1003.78 323.91 944.25 415.85 871.20 531.64 1000.96 528.62
00016532 00000036 694.41 105.80 392.06 549.90 825.95 329.57 1000.32 324.02 940.64 417.44 869.91 533.25 999.07 528.78
00016533 00000037 692.49 109.96 391.70 544.84 825.40 331.04 998.64 324.71 939.99 418.68 868.79 533.71 996.29 528.86
00016534 00000038 692.17 108.62 391.15 546.28 826.85 331.23 998.08 326.69 940.58 418.45 868.52 532.31 996.15 528.93
00016535 00000039 693.48 105.99 390.04 546.12 828.51 333.65 1001.24 327.31 945.58 420.36 871.80 532.79 1001.51 527.85
00016536 00000040 692.14 101.31 393.28 551.30 831.96 335.16 1006.50 329.62 952.00 422.21 874.42 532.32 1006.91 527.84
00016537 00000041 693.47 102.34 395.49 552.52 833.49 337.21 1010.77 332.31 953.54 426.58 876.09 535.01 1010.15 530.96
00016538 00000042 692.39 99.51 401.17 561.52 836.24 337.68 1011.71 333.25 954.44 430.33 881.08 541.20 1009.43 537.28
00016539 00000043 693.30 98.18 401.48 570.02 840.86 337.62 1012.89 333.14 957.78 432.15 885.92 545.45 1011.24 541.32
00016540 00000044 696.21 94.27 399.86 574.47 843.73 336.67 1014.69 332.93 961.24 430.52 887.48 544.15 1014.60 540.45
00016541 00000045 700.39 96.76 397.21 566.62 845.23 336.84 1017.77 333.73 963.26 428.70 889.31 540.16 1018.72 536.81
00016542 00000046 702.90 97.35 395.85 564.91 847.48 336.96 1021.60 334.03 966.15 429.16 890.64 539.49 1021.60 536.27
00016543 00000047 705.94 98.35 394.58 564.53 849.50 338.88 1024.73 336.46 968.19 432.85 890.36 540.65 1023.64 538.10
00016544 00000048 709.80 103.44 391.58 558.76 852.46 344.30 1028.39 342.36 972.06 438.61 891.00 539.97 1028.66 537.89
00016545 00000049 712.36 105.52 390.77 558.85 855.42 347.45 1030.49 344.58 975.09 440.32 893.09 541.25 1031.67 538.30
00016546 00000050 712.40 98.55 391.73 568.82 860.74 343.53 1032.75 342.80 979.38 436.07 897.27 542.18 1031.89 540.89
00016547 00000051 714.76 97.73 389.81 569.52 867.44 342.48 1035.38 339.55 987.23 431.99 906.46 543.44 1035.75 540.39
00016548 00000052 717.98 100.08 388.17 563.19 869.73 343.97 1036.98 338.72 989.92 433.07 910.91 544.19 1039.41 539.04
00016549 00000053 721.12 100.93 387.34 560.26 872.47 344.16 1042.39 339.07 994.39 433.18 912.50 544.33 1043.90 539.56
00016550 00000054 721.58 103.50 389.47 564.16 874.77 344.63 1046.36 339.62 996.62 438.62 913.74 549.02 1045.85 544.15
00016551 00000055 722.89 107.06 390.00 563.87 875.34 346.95 1049.82 342.65 997.80 442.34 914.12 552.07 1049.41 547.49
00016552 00000056 722.96 107.50 390.66 563.29 874.94 347.50 1050.33 342.52 998.19 442.87 915.24 553.21 1050.52 547.96
00016553 00000057 722.95 105.41 388.89 555.69 875.48 345.88 1050.95 341.98 999.14 437.55 914.30 546.33 1050.13 542.36
00016554 00000058 724.77 101.82 385.95 556.52 873.94 342.99 1050.66 340.15 999.90 433.20 909.89 540.82 1050.55 538.13
00016555 00000059 722.49 97.37 389.01 570.16 874.51 342.72 1047.89 341.73 998.58 433.22 909.92 542.33 1049.48 540.87
00016556 00000060 720.67 101.91 388.81 574.74 869.62 345.53 1044.38 343.01 992.91 438.74 905.93 548.07 1046.17 545.17
00016557 00000061 718.01 105.18 389.80 578.00 865.87 350.86 1037.61 346.55 986.32 444.82 901.77 551.88 1040.19 547.31
00016558 00000062 715.93 104.28 390.43 578.68 863.21 351.66 1034.97 346.48 983.11 446.34 902.41 553.40 1038.95 547.84
00016559 00000063 712.71 99.54 392.78 578.89 863.71 350.45 1034.18 342.18 984.98 445.33 908.72 555.94 1038.29 547.75
00016560 00000064 712.19 98.90 391.75 571.39 864.19 347.68 1034.64 338.38 986.67 439.18 910.62 551.55 1038.77 542.79
00016561 00000065 709.74 95.87 392.85 570.40 862.72 345.71 1032.79 335.85 986.46 435.88 910.37 548.37 1038.56 539.10
00016562 00000066 707.62 94.45 393.56 572.62 860.52 346.08 1030.57 337.22 983.44 438.26 910.17 550.35 1036.42 541.66
00016563 00000067 703.28 99.10 396.37 575.71 857.00 350.15 1027.49 341.08 980.38 446.95 906.00 556.05 1031.48 547.19
00016564 00000068 699.78 101.33 398.09 582.88 855.49 353.64 1023.62 344.67 977.34 451.48 900.98 557.65 1028.39 548.96
00016565 00000069 698.32 103.19 398.39 587.67 855.22 354.62 1023.05 346.89 977.44 452.92 897.53 560.08 1027.05 552.44
00016566 00000070 697.63 103.58 399.60 584.55 855.42 353.98 1023.88 347.41 977.62 451.91 898.25 558.13 1027.57 551.41
00016567 00000071 698.08 99.80 400.33 582.86 854.55 353.23 1023.90 345.42 977.66 451.02 901.03 557.23 1029.00 549.41
00016568 00000072 698.67 101.28 399.71 579.32 856.58 354.56 1025.91 345.28 978.81 453.06 905.53 560.52 1029.54 551.42
00016569 00000073 698.22 97.78 399.61 583.67 858.09 359.76 1023.97 350.43 979.09 458.00 908.64 564.37 1030.82 554.74
00016570 00000074 700.34 105.18 396.73 584.18 860.76 365.89 1025.61 355.92 980.42 465.04 906.61 568.47 1030.89 558.31
00016571 00000075 703.07 113.22 393.01 580.18 860.37 374.33 1024.35 362.59 978.73 472.65 903.44 573.38 1029.14 561.90
00016572 00000076 701.19 112.78 394.18 580.47 859.70 377.69 1023.84 364.89 978.75 473.42 900.21 572.22 1028.75 559.95
00016573 00000077 701.81 112.84 393.62 577.62 861.66 376.01 1025.51 363.51 981.56 470.85 901.12 568.93 1029.85 557.02
00016574 00000078 702.78 109.83 392.61 580.75 861.92 373.72 1025.56 361.13 982.67 468.12 902.01 567.70 1031.13 555.63
00016575 00000079 699.05 110.84 395.32 579.28 859.97 372.59 1025.10 360.76 982.17 468.62 900.76 568.15 1029.14 556.87
00016576 00000080 695.17 109.73 397.26 584.50 856.61 372.51 1021.40 360.77 978.26 470.30 898.34 569.93 1025.63 558.77
00016577 00000081 695.41 113.30 395.76 582.67 855.49 373.83 1020.47 362.55 976.06 472.49 896.92 571.98 1023.53 561.19
00016578 00000082 695.55 110.18 396.08 583.94 855.71 373.73 1019.84 362.26 975.36 472.76 898.36 572.40 1023.45 561.34
00016579 00000083 694.66 109.72 397.00 585.41 854.83 373.11 1019.66 361.45 975.09 472.47 898.39 573.10 1023.53 561.87
00016580 00000084 694.51 109.28 396.70 588.55 853.93 376.15 1018.92 364.97 973.65 473.90 895.34 574.79 1021.69 564.01
00016581 00000085 696.83 111.60 393.37 594.53 851.97 382.85 1017.68 369.67 972.36 475.66 889.85 577.92 1020.18 565.44
00016582 00000086 694.83 113.24 395.71 593.00 847.57 386.99 1016.67 372.71 968.48 477.51 887.71 580.26 1018.70 567.05
00016583 00000087 694.19 113.23 396.22 596.75 847.37 388.48 1015.13 376.17 966.95 480.30 885.59 581.85 1016.74 570.26
00016584 00000088 694.58 112.98 396.08 596.99 846.88 386.51 1016.17 375.53 967.08 482.18 885.27 583.28 1015.91 572.84
00016585 00000089 694.37 111.78 396.59 598.50 847.35 385.28 1016.41 375.31 967.07 482.06 885.19 583.06 1015.96 573.36
00016586 00000090 694.30 110.91 397.44 599.76 846.38 386.88 1017.38 377.04 966.91 482.95 883.84 583.76 1016.21 574.15
00016587 00000091 693.95 114.12 398.23 597.50 847.06 394.23 1019.07 382.75 969.06 485.05 883.62 585.24 1018.00 574.17
00016588 00000092 700.39 117.49 393.13 596.96 851.37 397.39 1021.22 384.45 972.74 487.94 888.24 589.46 1021.90 577.07
00016589 DELETE   702.24 119.95 396.14 598.08 859.02 385.17 1024.25 378.85 982.56 479.91 894.93 588.02 1020.77 581.47
00016590 DELETE   705.50 116.38 396.45 590.99 867.84 377.63 1031.04 369.68 990.47 470.57 901.54 575.69 1030.60 567.81
00016591 DELETE   705.25 117.41 396.28 587.19 870.98 374.90 1034.20 366.14 992.77 469.23 905.34 571.57 1037.81 562.31
00016592 00000096 707.71 111.99 396.37 592.41 870.63 372.98 1035.16 365.23 992.39 466.33 905.57 571.66 1038.59 563.08
00016593 00000097 710.01 116.96 394.83 595.66 874.07 376.97 1034.78 373.36 991.78 473.59 905.82 580.17 1033.30 575.07
00016594 00000098 711.36 114.53 394.96 596.35 873.30 384.52 1036.50 379.81 990.77 479.21 901.98 582.32 1032.18 576.34
00016595 00000099 711.91 116.64 396.76 595.78 872.76 388.68 1036.63 381.18 988.69 484.26 903.47 587.02 1032.39 578.81
00016596 00000100 712.83 117.61 395.74 594.88 872.22 390.41 1034.75 382.97 987.97 484.77 904.49 588.88 1031.46 580.73
00016597 00000101 711.56 117.70 396.92 599.99 869.36 390.05 1034.78 382.76 985.82 485.07 901.16 590.80 1030.49 582.86
00016598 00000102 710.47 113.37 398.61 607.18 863.78 381.58 1034.11 381.13 986.08 479.05 892.68 582.83 1026.54 581.06
00016599 00000103 709.69 115.81 398.57 605.09 862.33 380.20 1035.19 377.94 986.81 478.25 889.94 583.04 1027.20 579.99
00016600 00000104 712.69 117.24 395.07 599.56 859.99 380.88 1034.25 377.31 984.65 478.06 887.83 582.27 1027.22 578.49
00016601 00000105 709.26 118.70 397.20 599.34 859.43 381.11 1032.54 379.07 981.62 478.91 888.94 583.25 1024.79 580.44
00016602 00000106 709.18 115.82 394.75 604.34 860.13 388.24 1026.98 382.76 975.27 486.45 888.07 586.98 1022.83 580.89
00016603 00000107 707.26 118.59 394.39 595.32 857.14 390.76 1027.84 382.13 974.65 487.27 885.54 583.45 1024.85 574.75
00016604 00000108 704.53 116.17 395.76 594.59 856.54 390.40 1027.22 380.93 975.00 486.91 886.59 582.33 1024.76 572.88
00016605 00000109 704.12 116.40 396.35 599.42 855.38 386.41 1024.19 377.61 972.63 483.80 885.59 581.64 1022.89 572.94
00016606 00000110 699.50 111.60 398.34 598.83 852.36 383.69 1020.17 375.11 969.99 480.34 884.57 579.15 1019.17 570.50
00016607 00000111 696.25 103.44 403.35 602.05 847.61 375.18 1020.40 366.01 965.70 475.75 884.25 577.09 1017.52 568.14
00016608 00000112 692.18 104.92 405.43 593.85 843.61 375.25 1016.89 365.41 960.78 472.84 879.36 572.55 1012.67 563.46
00016609 00000113 687.93 105.50 407.45 586.24 837.55 373.59 1013.11 362.12 956.15 469.59 875.02 567.58 1010.34 557.51
00016610 00000114 688.72 105.36 406.14 589.90 835.68 368.92 1010.92 358.08 954.82 466.45 874.43 567.47 1009.35 557.92
00016611 00000115 688.67 101.44 403.03 594.08 830.31 368.86 1003.99 354.82 949.11 464.43 877.46 571.36 1006.94 559.04
00016612 DELETE   686.99 106.18 402.02 582.94 824.08 369.64 997.26 351.39 941.44 461.28 873.02 567.49 1002.03 552.11
00016613 00000117 683.72 101.82 401.50 583.62 820.53 363.31 992.54 348.30 935.25 456.78 868.05 564.44 994.52 552.13
00016614 00000118 679.65 102.04 402.73 585.09 813.89 360.25 988.85 347.64 927.54 455.78 859.51 563.56 990.48 553.28
00016615 00000119 678.48 108.10 402.48 574.97 807.53 362.60 984.51 347.95 919.97 456.81 854.21 558.68 992.31 546.51
00016616 DELETE   676.37 108.97 402.32 569.98 803.36 360.40 980.80 346.30 917.14 456.76 849.13 553.75 992.94 541.72
00016617 00000121 675.92 108.65 400.69 570.29 801.31 356.24 975.73 345.06 913.10 455.98 847.70 551.55 989.37 541.91
00016618 00000122 672.70 108.93 401.56 574.10 799.36 351.68 972.64 341.76 911.36 453.26 845.73 551.63 986.36 543.26
00016619 00000123 671.73 106.63 400.33 580.36 797.37 350.90 968.93 341.18 909.00 450.39 842.49 551.79 982.36 543.75
00016620 00000124 671.22 106.85 399.89 584.60 796.20 350.61 967.05 341.47 906.45 449.17 840.68 552.90 979.07 545.58
00016621 00000125 669.42 108.14 400.88 578.17 794.68 351.28 967.10 341.57 905.60 448.93 841.04 552.76 979.34 544.96
00016622 00000126 670.56 108.11 399.28 573.73 794.38 353.07 967.03 340.87 905.27 448.09 843.83 554.41 979.84 544.53
00016623 00000127 668.96 108.76 399.33 570.04 793.59 352.40 967.63 339.37 905.41 446.32 843.11 553.06 979.83 542.50
00016624 00000128 669.74 110.31 397.18 565.71 792.78 351.43 965.36 338.78 902.80 443.47 842.18 552.78 977.09 542.53
00016625 00000129 668.99 106.58 398.26 568.51 792.83 350.32 964.42 338.55 902.06 441.48 841.23 550.55 976.28 541.05
00016626 00000130 669.45 107.13 397.91 566.98 793.24 349.57 964.34 339.14 902.10 441.07 840.84 548.26 977.19 539.72
00016627 00000131 668.79 106.27 398.91 567.67 792.31 348.80 963.22 337.47 901.13 440.71 840.21 547.66 977.23 538.39
00016628 00000132 669.01 102.81 398.69 570.92 793.14 348.21 963.50 337.01 901.85 441.22 838.97 546.24 976.83 537.06
00016629 00000133 664.84 109.13 397.80 566.99 787.23 359.43 961.63 339.47 900.35 442.71 832.53 551.52 972.84 535.05
00016630 00000134 666.23 107.67 396.65 565.79 786.13 359.61 962.90 340.06 899.16 444.19 829.50 549.65 974.28 533.52
00016631 00000135 666.95 109.06 395.91 562.64 786.06 359.52 963.25 339.40 899.53 444.03 831.11 550.20 974.37 533.51
00016632 00000136 666.33 108.22 396.85 563.91 785.57 357.79 962.53 338.41 898.54 442.97 830.73 549.52 973.44 533.38
00016633 00000137 666.23 104.85 398.21 566.60 786.89 356.76 962.72 338.10 899.37 442.03 832.22 549.50 972.62 533.94
00016634 00000138 666.80 109.38 396.94 560.21 788.03 355.19 963.68 337.30 900.13 441.65 833.20 548.88 971.63 534.05
00016635 00000139 666.28 108.89 397.05 560.96 787.75 355.84 963.38 337.96 899.70 442.08 833.17 550.15 971.01 535.32
00016636 00000140 666.46 109.35 396.68 560.61 787.55 355.69 963.31 337.85 899.37 441.93 833.42 550.60 970.93 535.79
00016637 00000141 666.12 108.73 397.41 561.72 787.61 354.87 963.71 337.45 899.61 442.36 834.19 551.40 970.87 536.87
00016638 00000142 666.44 109.83 396.46 560.84 787.65 354.55 963.19 336.89 899.23 441.57 833.76 551.30 970.43 536.66
00016639 00000143 666.35 109.07 396.27 564.47 787.59 354.90 962.67 337.07 899.23 440.55 833.44 551.68 970.84 537.08
00016640 00000144 666.57 115.12 394.91 560.50 787.74 354.87 962.29 337.83 898.67 439.90 832.37 552.56 968.81 538.78
00016641 00000145 665.95 114.75 395.84 562.19 786.53 357.31 960.87 340.12 896.95 439.97 830.22 552.64 968.11 538.75
00016642 00000146 665.64 115.77 395.40 560.40 786.22 357.27 960.32 340.97 896.27 439.84 828.78 551.38 967.18 538.31
00016643 00000147 666.80 116.19 394.37 561.46 786.05 357.53 960.29 340.99 895.48 439.62 827.51 551.20 967.33 537.99
00016644 00000148 666.32 115.66 394.48 561.80 786.12 357.76 960.03 341.22 895.93 439.13 827.20 550.57 967.51 537.38
00016645 00000149 666.23 114.79 394.40 562.76 786.00 357.50 960.10 341.60 895.77 438.96 825.79 548.95 968.19 536.32
00016646 00000150 665.85 113.28 394.46 563.74 786.77 357.37 961.84 342.23 897.90 437.03 824.69 546.86 969.72 534.87
00016647 00000151 665.86 113.84 395.31 564.32 788.11 357.96 962.82 343.09 900.10 437.43 825.00 545.90 971.05 534.19
00016648 00000152 666.38 116.44 395.29 561.74 788.56 358.23 963.27 342.82 900.72 438.06 825.37 545.62 972.42 533.51
00016649 00000153 667.25 108.44 397.86 565.65 790.94 349.45 965.89 338.94 902.73 439.12 831.71 543.19 980.95 534.40
00016650 00000154 665.72 113.92 396.43 563.09 789.00 358.46 965.59 343.99 902.11 439.17 827.41 546.97 974.60 535.42
00016651 00000155 665.59 117.68 395.58 555.35 787.86 359.55 965.13 344.36 900.83 440.14 828.55 548.57 972.94 536.20
00016652 00000156 664.89 115.71 396.21 556.50 787.35 360.17 964.24 344.56 900.63 441.56 828.41 549.18 971.10 536.32
00016653 00000157 664.60 114.56 395.42 559.12 786.52 359.99 962.92 344.65 899.26 441.05 826.52 548.89 969.75 536.30
00016654 00000158 662.17 108.16 397.20 569.98 785.48 359.62 961.59 345.09 899.02 440.10 822.84 547.73 969.36 535.83
00016655 00000159 660.09 111.33 397.67 575.56 783.75 360.18 958.92 344.19 897.86 440.27 821.05 550.64 968.02 537.30
00016656 00000160 660.48 113.27 395.71 574.50 782.40 361.27 957.61 345.20 895.38 441.58 818.97 552.03 965.77 538.78
00016657 00000161 658.80 113.30 395.43 568.15 779.86 361.31 956.41 345.50 892.70 443.31 818.63 552.43 963.81 539.62
00016658 00000162 656.94 113.53 397.23 564.22 779.17 361.64 954.49 345.93 891.19 443.80 819.85 552.52 961.61 539.86
00016659 00000163 655.94 113.06 397.20 563.30 777.37 361.84 953.83 345.37 889.62 443.72 819.94 553.95 960.82 540.66
00016660 00000164 655.74 109.99 396.57 565.09 776.86 361.71 953.66 345.92 888.72 443.59 819.95 554.19 960.67 541.39
00016661 00000165 655.10 112.02 397.09 564.72 777.74 362.15 953.48 346.47 889.79 444.29 820.62 554.93 959.99 542.28
00016662 00000166 654.47 109.99 398.39 569.34 778.41 361.97 953.88 345.92 890.86 445.54 821.75 556.33 960.85 543.19
00016663 00000167 656.34 110.51 397.73 568.56 779.80 362.42 954.82 346.36 891.77 445.74 822.54 556.08 961.42 543.02
00016664 00000168 656.48 109.92 398.46 568.24 780.10 361.91 955.66 345.84 892.93 445.67 824.39 556.20 962.72 542.97
00016665 00000169 657.72 112.04 397.83 563.87 780.89 362.28 956.27 346.00 893.20 445.14 825.12 555.29 962.49 541.97
