Video ID: 	gzgMGWoyZ9I
H: 	1080
W: 	1920
FPS: 	25.0

FRAME INDEX X0 Y0 W H [Landmarks (5 Points)]

00001403 00000000 702.07 179.55 413.24 534.90 750.19 432.16 891.02 386.22 780.77 471.99 796.54 598.96 905.03 561.48
00001404 DELETE   703.07 182.11 414.49 523.81 751.88 425.33 889.81 376.66 780.79 468.28 795.34 589.81 902.67 550.44
00001405 DELETE   706.00 165.98 411.21 532.84 749.81 409.95 898.09 356.87 779.32 457.71 795.81 586.78 915.28 540.96
00001406 00000003 708.08 161.64 415.10 536.79 749.14 407.98 891.85 355.78 777.38 455.26 798.62 578.01 912.86 534.08
00001407 DELETE   710.19 160.70 413.89 535.63 750.99 410.82 902.19 357.12 779.34 450.62 796.25 583.29 918.82 537.20
00001408 00000005 704.57 155.34 420.24 553.54 748.97 417.23 904.28 359.51 785.43 459.77 803.20 598.15 924.00 549.08
00001409 00000006 702.96 159.36 422.29 549.04 749.31 417.55 904.60 358.45 789.45 465.43 806.78 600.27 926.28 549.70
00001410 DELETE   708.70 154.67 422.79 548.39 750.03 408.37 897.77 358.21 784.00 469.71 804.86 589.59 917.54 547.44
00001411 00000008 712.95 152.47 417.89 541.84 748.57 399.41 897.93 349.24 778.99 457.74 801.70 580.79 918.71 538.56
00001412 00000009 712.22 140.96 420.05 549.10 748.00 389.66 903.70 338.17 779.41 442.75 798.69 576.19 913.33 533.48
00001413 00000010 715.38 139.66 414.16 547.28 752.83 380.53 906.61 333.33 783.08 435.83 801.83 570.72 912.38 531.66
00001414 00000011 713.88 132.20 421.63 540.68 761.26 379.23 914.35 325.24 795.66 428.12 813.62 566.38 921.13 521.78
00001415 00000012 719.66 125.26 418.46 539.52 756.23 380.58 907.71 327.28 787.49 424.50 797.68 559.14 909.25 516.05
00001416 00000013 721.22 127.44 417.79 536.34 755.84 380.79 908.25 330.09 789.42 429.44 799.90 557.18 912.56 515.92
00001417 00000014 721.30 143.65 418.24 527.61 766.55 382.38 913.60 332.86 795.57 434.05 815.27 564.15 920.88 522.96
00001418 DELETE   717.96 152.50 422.06 544.14 763.47 390.37 911.97 339.64 796.18 448.87 817.98 582.57 924.25 540.34
00001419 00000016 711.99 162.90 424.48 548.82 758.03 398.67 906.59 343.63 794.02 467.73 822.44 598.17 932.05 551.48
00001420 DELETE   704.50 166.28 425.50 548.59 749.63 414.60 900.50 363.61 788.03 484.37 808.92 604.00 922.08 562.52
00001421 00000018 700.37 169.70 426.09 553.57 746.62 417.71 892.56 369.71 780.74 491.58 810.06 608.30 920.79 569.23
00001422 00000019 696.43 170.76 429.37 557.04 745.87 416.38 886.83 375.32 775.19 496.51 813.32 607.85 914.76 574.14
00001423 00000020 692.13 170.26 432.32 556.56 742.41 416.30 884.58 376.46 771.95 495.48 811.32 610.71 906.70 577.48
00001424 00000021 685.07 168.33 436.14 555.80 736.93 410.50 880.24 372.55 768.03 492.98 805.56 608.29 901.21 576.73
00001425 00000022 683.34 165.77 435.48 556.11 735.68 401.38 876.18 364.07 763.19 481.81 798.31 601.28 893.60 570.41
00001426 00000023 674.86 157.53 437.28 564.74 724.01 389.08 880.07 351.46 758.35 476.77 788.23 600.54 894.26 569.72
00001427 00000024 677.13 156.24 435.37 564.04 723.02 388.40 877.65 347.71 756.43 473.20 787.84 599.19 898.73 566.21
00001428 00000025 681.92 151.66 431.30 569.55 736.43 385.59 875.55 352.31 754.62 469.96 779.79 584.56 892.72 555.21
00001429 00000026 684.03 146.26 430.74 575.27 738.66 384.93 880.33 350.12 759.48 468.71 782.95 584.35 900.35 554.00
00001430 00000027 685.73 146.09 431.42 575.18 741.71 385.34 885.07 349.64 763.16 469.11 785.55 584.69 905.49 553.60
00001431 00000028 692.30 147.66 430.05 569.19 745.07 385.39 893.89 346.95 767.27 468.39 789.17 585.95 912.69 552.20
00001432 00000029 700.08 153.51 428.02 557.78 748.56 388.02 904.96 350.22 772.22 472.00 792.02 587.58 920.07 554.23
00001433 DELETE   708.68 158.41 422.44 545.44 755.70 396.82 916.58 358.95 794.52 464.96 806.72 586.30 933.45 553.03
00001434 DELETE   710.38 155.48 430.01 540.99 759.91 406.10 924.80 365.19 805.36 466.96 811.68 582.91 941.03 547.84
00001435 00000032 715.59 156.01 434.73 541.70 765.34 401.38 932.22 360.40 810.81 467.07 816.85 577.10 953.06 541.66
00001436 DELETE   720.39 161.79 426.08 541.90 774.41 396.80 939.25 354.67 819.42 467.91 822.14 582.72 961.86 546.63
00001437 00000034 722.52 149.20 435.61 549.69 776.15 392.20 941.01 353.15 825.72 465.49 831.07 576.68 959.14 543.34
00001438 00000035 723.72 157.45 424.57 545.19 779.25 393.98 944.01 353.26 828.90 467.76 829.83 582.46 968.62 547.93
00001439 00000036 724.00 147.38 433.92 556.79 781.41 384.42 945.44 346.99 830.17 459.66 837.20 575.98 963.27 544.27
00001440 00000037 727.85 143.83 431.36 556.32 784.90 381.52 948.73 346.33 832.34 457.49 838.80 573.82 959.19 544.26
00001441 00000038 728.24 141.90 432.03 557.96 785.99 380.08 951.22 346.39 833.57 455.37 838.67 570.58 959.31 542.18
00001442 00000039 728.75 139.37 432.37 557.49 785.85 379.26 952.48 346.39 833.59 454.45 836.70 569.02 959.02 541.47
00001443 00000040 731.49 139.15 429.79 553.83 786.58 379.15 953.13 345.72 835.80 456.10 838.09 569.46 962.35 541.64
00001444 00000041 730.49 142.18 429.35 555.83 785.38 382.47 952.74 347.79 834.70 457.16 836.59 572.63 963.79 543.67
00001445 00000042 726.79 146.37 430.31 558.91 786.62 393.34 954.29 356.21 838.31 454.51 837.31 577.49 964.33 546.33
00001446 00000043 726.89 144.26 431.20 563.21 786.49 392.48 954.71 356.16 838.37 455.47 837.36 579.12 962.00 548.72
00001447 00000044 724.58 144.42 434.05 562.75 783.65 388.00 951.12 351.51 833.86 454.45 834.39 577.84 955.14 547.44
00001448 00000045 723.51 144.33 431.75 558.62 780.45 382.19 947.12 349.17 828.02 455.12 831.08 575.28 946.78 547.65
00001449 00000046 719.52 141.35 432.75 559.87 778.53 379.07 943.76 347.09 826.52 453.12 830.24 575.49 941.36 548.59
00001450 00000047 718.02 139.14 432.49 560.25 776.71 378.81 941.95 347.86 823.99 454.23 827.68 574.74 938.92 548.73
00001451 00000048 714.26 141.73 432.39 554.83 773.40 378.25 938.97 346.69 821.84 454.31 824.85 574.43 936.95 547.91
00001452 00000049 709.55 148.51 430.97 552.93 764.83 373.97 935.61 348.38 813.29 460.34 812.41 575.89 938.93 554.33
00001453 00000050 708.88 146.41 430.06 560.32 763.62 378.60 934.26 347.11 812.00 462.74 812.63 579.03 948.88 551.76
00001454 00000051 701.97 145.08 434.06 561.51 761.45 384.05 933.98 346.83 816.28 462.38 815.98 580.24 954.66 547.78
00001455 DELETE   698.18 143.42 435.32 558.16 761.24 383.58 925.90 342.16 812.11 460.65 814.62 572.22 952.14 536.92
00001456 00000053 695.06 139.55 437.61 559.16 760.31 377.52 923.32 338.62 809.95 457.50 814.22 569.61 949.38 536.15
00001457 00000054 692.44 136.60 438.12 564.73 757.02 379.04 919.14 338.50 806.00 460.36 812.37 572.58 948.78 537.69
00001458 00000055 688.62 134.01 438.34 571.61 753.29 382.87 913.68 338.69 801.62 462.41 810.35 576.57 946.29 538.61
00001459 00000056 686.90 131.41 438.60 574.60 750.92 382.60 910.37 337.24 798.67 461.91 807.95 576.69 943.40 537.76
00001460 00000057 685.86 131.61 438.90 574.98 750.28 382.10 909.40 336.54 797.07 460.69 806.48 576.46 941.71 537.30
00001461 00000058 687.19 130.87 438.51 574.98 751.00 382.61 909.85 336.55 797.52 460.28 807.44 576.36 942.52 536.80
00001462 00000059 689.92 131.07 437.78 575.46 752.31 383.40 910.11 336.62 796.66 459.98 808.32 576.63 943.02 536.32
00001463 00000060 694.65 133.11 433.32 574.08 754.76 389.33 910.28 340.14 796.37 463.07 809.63 578.74 943.50 536.46
00001464 00000061 695.87 136.90 432.40 564.61 753.79 391.15 908.55 343.56 792.78 464.70 806.57 575.91 939.22 534.84
00001465 00000062 695.04 142.59 433.34 556.70 751.62 394.02 907.25 348.77 789.15 468.28 802.48 577.25 933.27 538.12
00001466 00000063 696.21 152.62 430.86 549.25 749.96 396.84 905.85 355.60 786.15 475.46 799.03 577.42 932.06 541.37
00001467 00000064 697.07 154.46 429.77 551.76 750.93 400.00 907.56 363.03 784.61 479.78 797.51 582.88 927.36 550.71
00001468 00000065 698.15 155.53 429.79 554.87 751.80 398.91 909.78 363.35 784.59 481.24 797.58 586.00 928.51 555.03
00001469 00000066 696.50 153.05 430.94 553.24 749.85 395.56 906.99 358.49 780.82 477.27 794.43 582.92 924.96 550.47
00001470 00000067 700.23 146.69 428.96 555.17 749.59 391.54 905.59 350.70 777.63 469.25 793.18 579.48 924.69 543.48
00001471 00000068 702.55 145.42 427.36 554.87 750.47 389.96 907.27 349.34 777.98 466.42 792.85 577.35 926.03 541.46
00001472 00000069 708.54 148.60 420.55 552.46 750.94 403.11 906.75 358.60 786.49 461.75 804.21 585.26 930.63 546.27
00001473 00000070 710.49 149.99 418.38 558.22 752.06 408.58 907.76 362.82 788.59 470.91 807.61 594.70 931.72 554.55
00001474 00000071 708.37 149.48 422.59 559.03 750.29 404.17 895.58 362.00 777.27 475.78 805.78 588.24 923.52 552.03
00001475 00000072 706.51 147.31 420.19 553.93 746.27 397.15 888.18 355.55 771.75 471.82 801.75 583.47 915.43 548.35
00001476 00000073 700.35 139.74 425.60 559.77 747.16 387.21 892.78 348.58 766.62 466.65 791.17 577.86 911.74 543.78
00001477 00000074 700.75 132.33 427.67 563.33 745.11 382.08 894.20 339.02 764.56 456.00 788.97 574.37 912.98 536.57
00001478 00000075 706.26 119.28 424.30 566.10 741.65 388.11 889.54 336.18 767.66 447.62 792.40 571.49 912.34 528.67
00001479 00000076 698.68 124.55 430.39 569.61 746.57 384.63 896.79 334.01 770.34 452.22 795.01 574.34 919.87 530.49
00001480 00000077 695.73 128.32 431.48 565.10 746.05 390.87 893.37 335.27 772.18 455.83 798.30 574.80 922.05 526.83
00001481 00000078 699.68 122.01 427.93 555.62 740.58 401.07 881.04 336.47 773.10 448.57 803.52 572.55 915.72 519.46
00001482 00000079 691.50 120.14 431.58 552.75 736.16 401.78 874.39 333.15 771.24 441.35 800.94 569.25 912.11 513.23
00001483 00000080 687.56 119.67 434.86 553.11 733.36 400.70 872.78 327.20 771.28 439.41 803.37 571.45 912.53 511.39
00001484 00000081 685.86 117.15 430.95 560.87 732.14 400.30 869.80 324.58 771.94 439.51 807.95 572.41 917.52 510.22
00001485 00000082 680.11 120.20 435.28 562.96 736.23 395.33 878.03 321.16 768.53 445.14 805.15 572.62 919.73 509.23
00001486 00000083 677.96 122.58 436.04 561.53 734.69 398.67 877.13 322.65 768.44 447.45 804.86 574.32 919.87 509.40
00001487 00000084 677.16 121.68 437.52 561.68 734.35 398.88 876.90 323.55 768.29 448.46 804.27 573.78 919.83 509.36
00001488 00000085 680.67 118.57 435.99 559.88 729.14 406.32 866.84 324.47 773.76 441.93 809.56 573.36 922.54 505.76
00001489 00000086 682.94 118.41 434.54 553.40 731.10 406.89 868.05 325.99 775.28 442.11 806.88 571.30 918.82 504.92
00001490 00000087 688.02 119.55 429.88 551.73 733.63 406.71 869.56 328.91 775.94 442.30 805.99 570.46 917.91 506.81
00001491 00000088 690.65 120.48 428.92 551.26 735.68 406.60 871.46 329.80 775.87 442.32 805.64 570.39 917.04 507.61
00001492 00000089 693.86 123.29 429.26 549.01 737.41 405.65 875.96 331.15 775.40 444.38 804.76 572.03 917.46 511.09
00001493 00000090 694.76 122.54 428.04 555.28 737.18 402.97 876.24 331.43 773.69 446.85 803.46 573.50 916.03 515.04
00001494 00000091 692.84 125.72 428.61 561.55 744.18 397.89 885.72 327.72 773.09 454.43 808.87 575.53 927.78 515.51
00001495 00000092 693.78 126.60 428.25 563.96 743.72 398.49 885.97 328.32 772.50 456.18 808.35 577.81 928.40 517.77
00001496 00000093 693.89 125.81 428.49 563.49 744.49 397.92 886.53 328.86 773.21 455.76 808.69 576.62 928.29 517.51
00001497 00000094 693.84 126.08 428.38 562.66 744.77 397.83 886.74 328.60 773.18 454.95 808.63 576.59 927.75 517.33
00001498 00000095 693.90 126.65 428.83 561.65 744.73 397.17 886.74 328.16 772.84 454.32 808.29 576.27 927.42 517.12
00001499 00000096 693.73 127.05 427.60 560.65 744.57 397.32 885.84 328.53 772.67 454.27 808.18 575.51 926.75 516.57
00001500 00000097 693.00 127.31 427.97 560.04 743.34 397.70 884.83 330.11 771.38 456.17 806.54 575.69 925.30 517.68
00001501 00000098 693.03 125.75 426.41 561.65 742.49 398.41 882.85 330.60 771.17 456.48 806.66 575.57 924.75 517.43
00001502 00000099 691.78 128.14 425.64 558.76 741.69 398.37 881.68 332.46 770.92 456.97 804.98 574.92 922.67 518.34
00001503 00000100 691.83 126.95 425.69 560.86 741.66 398.56 881.11 332.93 770.74 456.79 804.55 575.07 921.73 518.84
00001504 00000101 694.95 124.94 420.36 556.53 735.91 403.67 871.96 332.85 773.69 451.44 808.03 575.41 919.24 517.33
00001505 00000102 693.21 125.34 422.21 556.23 735.08 403.96 871.32 333.11 773.78 451.28 807.83 575.58 918.74 517.48
00001506 00000103 690.71 128.11 426.65 558.45 741.21 399.29 880.99 333.50 770.31 456.12 803.32 574.35 919.88 518.15
00001507 00000104 691.13 128.08 426.42 558.42 741.28 398.18 881.44 333.11 770.11 455.15 801.60 573.70 918.48 518.06
00001508 00000105 696.97 120.11 426.18 559.99 737.76 405.00 876.56 333.21 772.00 447.67 802.72 574.68 914.83 516.03
00001509 00000106 694.84 118.54 427.57 556.04 738.49 403.33 878.82 334.34 775.67 445.97 803.46 571.79 915.67 515.74
00001510 00000107 696.24 117.39 428.31 555.52 739.31 402.08 881.47 333.98 775.35 443.91 801.46 570.58 915.28 515.31
00001511 00000108 696.21 117.01 429.17 555.67 738.85 401.92 882.18 334.26 774.58 444.05 800.12 571.01 913.99 516.22
00001512 00000109 695.29 116.55 428.61 556.25 737.98 400.58 881.68 333.24 773.86 443.36 799.80 571.46 913.32 516.91
00001513 00000110 695.77 117.33 427.68 561.52 738.13 401.06 879.51 335.87 771.54 444.88 797.21 572.56 908.06 519.78
00001514 00000111 694.30 129.49 420.23 552.23 736.88 404.96 873.91 340.97 771.36 445.57 800.73 573.10 908.32 520.69
00001515 00000112 684.80 129.51 424.15 557.30 737.64 385.72 875.81 335.98 760.38 445.65 789.41 566.02 902.16 522.82
00001516 00000113 693.65 120.91 419.84 554.13 733.59 386.16 868.01 334.35 755.32 427.83 787.83 560.45 894.65 517.41
00001517 DELETE   691.09 109.07 425.17 556.30 730.66 380.43 871.53 323.54 755.93 418.08 781.66 551.72 896.04 505.82
00001518 DELETE   696.32 104.24 421.04 551.69 733.28 367.30 874.40 311.83 755.10 408.99 779.73 544.96 894.00 500.91
00001519 00000116 703.11 105.09 414.63 544.33 738.93 355.68 878.51 304.74 754.32 398.60 775.88 532.65 891.97 492.41
00001520 00000117 705.82 103.07 413.99 546.58 739.92 353.35 880.66 303.30 755.43 398.37 775.62 531.34 893.14 491.90
00001521 00000118 706.52 103.34 415.61 554.35 743.24 357.23 883.12 305.85 760.95 401.96 780.13 539.49 892.36 498.89
00001522 00000119 705.99 106.68 416.37 558.43 742.72 361.00 884.42 308.81 765.14 407.77 784.07 546.19 895.03 504.95
00001523 00000120 702.16 105.75 418.79 565.76 741.88 367.75 881.01 311.40 765.79 412.82 787.59 555.67 894.03 511.02
00001524 00000121 698.24 108.93 421.64 566.01 737.75 373.12 875.57 313.37 758.58 417.84 787.95 563.06 894.76 515.19
00001525 00000122 694.84 109.02 426.89 562.90 735.40 374.77 874.94 317.50 757.99 420.64 783.33 558.98 890.86 513.13
00001526 00000123 695.65 107.76 426.95 563.88 734.82 376.18 876.52 318.81 756.64 421.25 781.02 559.28 893.25 513.48
00001527 00000124 695.90 103.50 428.97 568.38 737.28 374.59 880.13 316.11 761.92 417.76 785.83 556.92 898.58 510.29
00001528 00000125 695.91 104.80 430.57 567.25 740.53 377.50 883.27 313.10 766.84 413.98 790.22 556.73 903.10 505.29
00001529 00000126 696.32 103.62 428.82 566.85 740.46 377.87 881.87 314.26 765.55 414.34 789.51 555.18 902.86 504.44
00001530 00000127 695.49 105.27 428.63 562.74 738.46 377.53 879.11 316.91 762.75 417.68 786.55 554.50 898.81 506.39
00001531 00000128 694.04 109.70 427.76 556.51 735.72 376.98 876.80 319.82 760.19 420.58 782.79 553.25 895.19 507.80
00001532 00000129 692.77 112.75 426.98 554.04 733.02 378.63 873.18 321.78 758.50 423.78 781.25 554.19 892.19 508.71
00001533 00000130 683.89 111.87 430.54 554.79 721.73 374.44 880.61 320.86 755.92 434.28 779.28 562.72 894.54 518.98
00001534 00000131 691.95 127.89 421.22 548.38 727.66 385.66 867.55 333.87 752.39 445.12 780.55 569.40 883.95 527.31
00001535 00000132 684.03 136.32 427.44 555.03 728.12 382.58 866.71 342.03 748.48 458.45 774.91 572.82 879.99 537.49
00001536 00000133 682.35 133.06 426.75 557.20 728.50 382.32 864.52 340.67 747.31 457.60 776.86 571.21 880.27 535.20
00001537 00000134 680.92 130.72 427.22 549.93 729.09 377.46 867.55 331.95 748.63 447.09 778.49 565.57 883.69 526.12
00001538 00000135 685.91 118.26 427.52 553.54 728.64 379.79 868.26 323.11 756.70 429.19 788.39 561.12 895.01 514.90
00001539 00000136 690.37 112.66 423.63 559.84 733.26 379.13 872.30 318.55 759.79 422.16 788.95 561.88 897.09 512.92
00001540 00000137 690.92 111.71 423.36 560.08 734.57 377.57 873.65 317.20 761.49 421.62 790.40 561.19 897.68 512.54
00001541 00000138 689.37 114.31 424.12 558.61 732.34 378.56 870.30 318.83 759.54 423.84 789.64 561.39 895.66 512.91
00001542 00000139 683.55 116.29 428.72 557.26 727.61 379.64 868.07 318.96 759.17 426.66 790.48 562.66 896.58 513.20
00001543 00000140 682.77 115.35 428.64 558.38 725.94 379.59 866.82 319.44 755.34 425.35 786.26 561.81 893.63 512.78
00001544 00000141 674.18 110.39 433.68 555.91 717.10 369.98 876.29 312.22 753.38 424.39 778.23 558.75 893.98 511.45
00001545 00000142 676.30 107.77 433.80 553.55 717.22 366.53 876.99 307.44 752.28 420.22 777.07 554.31 895.21 506.32
00001546 00000143 678.61 105.99 433.11 556.27 721.95 363.77 881.39 305.70 756.10 416.16 778.06 552.99 894.53 505.90
00001547 00000144 677.84 104.72 433.28 558.08 724.30 360.37 883.31 305.18 760.81 416.93 781.09 553.75 892.05 508.97
00001548 00000145 677.32 103.55 433.68 562.15 725.03 362.71 882.64 308.30 761.72 422.10 785.73 557.40 892.34 512.88
00001549 00000146 676.31 108.51 434.57 559.91 723.92 366.31 881.51 315.20 760.36 429.73 785.34 559.16 891.64 516.97
00001550 00000147 678.17 112.95 436.59 555.47 726.48 372.91 869.41 322.27 761.95 430.64 787.69 553.33 890.73 512.12
00001551 00000148 672.80 109.06 436.59 558.63 720.45 365.12 879.88 314.52 757.27 429.39 782.98 556.84 894.21 515.10
00001552 00000149 672.75 105.97 436.63 557.64 720.57 365.97 880.55 311.64 759.15 426.38 784.60 554.56 898.51 510.00
00001553 00000150 673.95 104.00 434.73 554.04 719.18 359.27 879.92 305.55 755.72 421.56 781.22 550.72 896.62 507.05
00001554 00000151 673.84 102.22 433.51 555.67 719.73 355.48 880.79 304.99 757.28 420.41 780.35 549.20 893.47 508.18
00001555 00000152 672.38 101.81 434.29 559.90 720.83 353.55 881.18 304.95 758.03 421.27 782.04 553.22 889.39 513.55
00001556 00000153 670.99 104.86 435.48 563.39 720.57 355.02 881.01 308.04 760.44 426.80 785.57 558.07 892.08 519.24
00001557 00000154 669.67 106.08 436.29 563.82 713.67 357.12 876.52 310.09 751.65 431.70 781.51 558.50 892.11 519.45
00001558 00000155 670.77 108.87 439.41 562.89 714.13 371.36 864.82 318.58 748.31 430.03 776.83 559.94 888.31 516.95
00001559 00000156 670.00 108.14 437.62 562.07 713.04 368.45 863.94 317.20 747.59 429.84 776.02 557.98 886.29 516.19
00001560 00000157 661.68 108.51 436.03 557.63 707.04 350.48 870.62 305.99 747.57 429.38 775.64 554.82 883.74 518.01
00001561 00000158 661.19 104.76 435.73 561.44 707.74 348.16 871.25 303.64 747.96 425.38 773.74 553.70 879.75 517.05
00001562 00000159 658.43 101.81 437.53 565.27 706.02 345.62 869.33 300.83 745.42 422.04 772.87 552.19 877.49 515.34
00001563 00000160 657.65 100.45 438.57 565.07 705.64 346.80 869.65 300.00 745.92 421.27 772.90 551.94 878.84 513.59
00001564 00000161 656.76 100.22 438.43 565.24 705.34 347.49 868.90 299.42 746.51 420.14 773.07 551.66 879.23 512.32
00001565 00000162 656.49 97.62 439.54 566.50 705.88 346.47 870.87 298.29 749.06 418.43 774.27 550.98 880.76 511.56
00001566 00000163 656.15 96.55 440.63 569.76 706.19 346.42 872.20 298.77 749.64 418.23 773.56 552.81 879.83 513.87
00001567 00000164 661.33 97.09 441.47 574.03 713.95 361.43 864.79 306.87 752.33 414.31 778.48 554.62 883.66 509.98
00001568 00000165 664.60 97.36 439.03 574.80 715.13 362.21 864.50 306.72 751.38 413.89 780.78 554.76 887.55 509.18
00001569 00000166 666.97 96.77 438.34 575.93 716.14 363.93 865.55 306.15 752.46 412.76 782.30 554.87 891.04 507.47
00001570 00000167 669.56 94.29 437.75 578.25 717.55 362.49 865.93 304.39 752.21 412.37 784.74 553.93 894.34 506.42
00001571 00000168 670.71 93.78 437.64 579.19 718.61 361.69 866.15 303.82 753.19 411.81 786.06 553.39 895.07 506.03
00001572 00000169 672.32 93.49 436.39 579.26 719.77 361.48 866.44 303.90 753.66 411.57 786.44 552.81 895.50 505.71
00001573 00000170 672.75 93.82 436.01 579.37 720.55 362.70 867.97 305.33 755.90 413.23 787.98 553.75 896.53 506.83
