Video ID: 	-wC8PyVNpIc
H: 	1080
W: 	1920
FPS: 	25.0

FRAME INDEX X0 Y0 W H [Landmarks (5 Points)]

00008982 00000000 579.50 136.29 468.45 641.49 659.39 381.35 886.88 380.15 738.56 506.43 683.33 628.00 859.46 626.39
00008983 00000001 581.06 133.56 465.11 636.91 660.55 379.92 886.85 377.87 739.98 502.68 684.30 623.48 859.22 621.27
00008984 00000002 584.08 124.60 461.33 648.07 663.38 378.08 885.66 377.11 738.06 501.01 681.20 622.91 858.54 623.08
00008985 00000003 584.74 121.04 462.54 644.63 661.18 377.13 885.26 373.42 735.96 498.24 680.74 620.37 860.90 618.21
00008986 00000004 586.35 116.69 464.06 645.30 661.09 375.22 887.10 371.54 734.72 496.88 680.36 618.23 863.25 615.99
00008987 00000005 590.07 118.42 461.47 642.27 660.93 373.34 886.47 369.15 732.97 495.69 681.38 617.81 863.00 615.08
00008988 00000006 592.09 120.70 455.90 648.57 664.15 375.95 883.78 370.43 733.43 495.93 685.36 624.09 854.46 620.92
00008989 00000007 589.96 122.12 463.07 658.37 659.90 373.28 881.53 363.10 733.07 495.46 689.83 628.49 858.43 620.13
00008990 00000008 593.32 117.73 459.49 661.77 659.60 374.55 881.94 363.42 731.70 494.83 689.12 629.33 860.92 620.09
00008991 00000009 595.58 117.44 459.07 646.47 659.86 373.65 884.07 365.28 728.57 490.87 681.72 621.48 858.26 615.46
00008992 00000010 595.04 118.29 456.33 638.30 656.76 371.77 882.60 362.76 725.60 486.82 678.30 614.73 860.04 607.94
00008993 00000011 594.70 119.38 453.42 630.54 655.82 369.94 880.45 361.76 725.24 486.55 678.25 611.91 858.06 605.88
00008994 00000012 595.46 121.25 456.61 632.56 656.57 371.45 880.35 362.40 723.99 486.55 677.86 614.87 856.10 608.21
00008995 00000013 597.03 123.46 458.36 637.80 659.28 373.11 878.69 362.53 724.45 489.69 681.68 618.61 853.82 610.84
00008996 00000014 595.37 123.84 454.96 633.49 657.57 373.27 878.67 362.86 723.34 487.61 679.37 616.63 853.61 609.11
00008997 00000015 593.90 126.59 453.94 624.32 655.54 369.82 875.92 359.55 721.43 484.49 678.54 612.89 851.74 605.34
00008998 DELETE   590.73 112.86 450.35 641.32 652.73 367.30 869.77 355.89 717.96 479.88 676.61 611.41 847.70 602.90
00008999 00000017 588.75 111.95 443.95 647.58 653.61 373.87 865.67 360.13 718.90 480.23 677.42 615.65 843.30 605.29
00009000 00000018 588.80 114.36 451.31 652.06 652.45 381.99 865.21 367.71 717.20 490.44 674.42 621.91 842.28 611.37
00009001 00000019 588.29 120.45 449.50 650.44 651.60 387.29 865.10 374.86 718.42 499.43 674.42 629.23 840.83 620.50
00009002 00000020 587.49 136.48 452.94 642.60 652.32 396.14 862.78 384.21 716.99 508.03 673.57 639.52 835.72 631.31
00009003 DELETE   584.91 142.05 452.36 652.59 650.71 406.27 857.75 390.80 715.87 517.57 675.77 648.67 836.25 637.19
00009004 DELETE   584.05 137.90 452.32 664.59 642.22 408.39 857.48 386.68 711.13 525.95 672.86 655.02 842.87 636.64
00009005 00000023 583.60 145.73 458.24 665.97 642.64 411.71 852.81 390.01 708.03 528.92 673.20 660.75 839.22 642.91
00009006 00000024 580.89 149.30 460.09 664.70 641.58 412.71 849.98 390.66 704.48 529.57 670.52 660.92 837.25 642.52
00009007 00000025 579.24 154.96 463.05 654.51 638.24 413.65 847.64 391.87 700.36 530.07 667.84 660.13 832.24 641.76
00009008 00000026 578.82 154.26 459.48 652.08 635.61 413.98 843.85 392.11 696.55 530.35 664.45 658.72 828.55 639.92
00009009 00000027 577.98 151.52 457.99 651.46 633.12 413.90 840.43 392.49 694.07 529.36 661.19 657.28 824.33 638.75
00009010 00000028 575.77 148.01 456.29 647.95 631.01 413.47 838.94 390.28 693.34 525.77 660.25 653.73 823.03 633.74
00009011 00000029 580.08 140.96 450.97 650.97 634.02 409.80 842.67 387.24 695.74 520.44 660.42 647.96 824.07 628.68
00009012 00000030 581.30 137.06 456.28 650.06 641.09 412.41 844.95 387.02 699.72 517.48 672.22 650.30 833.16 630.46
00009013 00000031 584.36 136.84 455.38 647.94 642.18 411.25 845.67 386.15 699.20 516.81 673.72 649.75 833.11 630.17
00009014 00000032 591.34 154.51 448.65 632.48 645.00 412.88 849.16 391.56 700.00 513.81 669.14 650.57 824.84 633.53
00009015 00000033 589.67 144.21 452.73 639.43 636.56 411.12 844.89 384.90 694.21 518.15 667.19 650.16 828.41 627.51
00009016 00000034 591.68 144.76 451.57 638.14 637.55 411.47 844.56 386.03 693.67 518.60 667.52 649.82 826.99 627.98
00009017 00000035 591.38 145.79 453.12 640.17 637.73 413.35 843.08 388.11 692.24 520.54 667.45 652.73 824.43 631.08
00009018 00000036 592.33 149.27 450.20 643.57 638.94 418.37 841.18 391.68 690.68 525.42 669.64 658.94 826.53 635.93
00009019 00000037 592.14 156.72 452.33 645.32 640.72 421.05 838.93 395.62 687.64 529.92 670.04 663.08 825.81 641.22
00009020 00000038 596.18 162.39 454.07 647.45 641.17 427.65 838.15 401.42 683.17 534.02 669.66 669.90 826.40 647.73
00009021 00000039 597.14 161.42 451.55 651.24 642.12 431.42 837.04 408.51 682.75 539.90 669.06 673.14 823.55 653.96
00009022 00000040 597.52 163.86 446.61 649.35 642.20 435.68 835.46 413.36 684.65 545.78 669.00 675.30 822.19 656.75
00009023 00000041 597.70 174.24 445.29 643.21 641.08 437.89 836.30 418.49 685.58 549.07 666.55 678.70 818.12 662.95
00009024 00000042 596.90 185.51 440.44 636.84 640.59 441.29 833.90 422.90 685.83 552.85 666.91 681.47 813.91 666.95
00009025 00000043 593.42 188.99 441.08 639.62 638.11 445.88 832.57 424.38 685.20 556.31 668.05 688.59 812.57 671.57
00009026 00000044 591.72 189.16 442.45 645.49 638.19 447.94 829.00 424.97 682.04 556.49 670.02 692.01 809.35 673.92
00009027 00000045 589.50 189.00 439.98 648.17 635.22 450.25 826.33 426.99 680.61 558.74 668.38 694.58 807.27 676.34
00009028 00000046 586.75 193.22 437.39 643.11 631.22 451.49 824.60 427.73 680.19 559.47 666.23 696.56 805.39 677.96
00009029 00000047 584.69 194.33 437.19 641.43 629.58 451.37 822.73 427.47 678.79 559.07 665.39 696.37 804.03 677.58
00009030 00000048 582.33 187.45 441.68 645.91 627.93 445.75 819.67 423.39 674.25 558.14 664.44 692.44 803.17 674.75
00009031 00000049 583.07 172.08 435.92 652.23 623.89 439.39 818.10 415.75 671.52 549.19 656.57 685.90 799.06 667.32
00009032 00000050 581.90 156.86 444.10 663.12 621.78 431.23 816.20 408.58 666.02 541.29 651.39 677.42 798.55 658.94
00009033 00000051 579.65 160.36 446.41 654.77 616.78 427.27 813.90 406.36 662.57 537.66 644.98 674.65 790.65 657.88
00009034 00000052 568.99 179.91 447.18 635.46 614.49 434.67 814.11 408.18 658.58 541.99 647.46 680.24 793.42 659.74
00009035 00000053 565.22 186.72 449.79 633.13 612.56 435.71 814.85 412.72 657.75 547.53 646.15 683.23 793.43 665.66
00009036 00000054 562.22 183.39 453.82 636.73 611.40 435.20 815.17 416.08 657.50 549.85 643.80 682.54 793.60 667.76
00009037 00000055 571.73 170.82 453.57 650.68 610.49 428.72 808.43 412.82 655.66 546.53 640.17 678.78 785.77 666.54
00009038 00000056 569.95 169.24 449.90 650.40 609.39 428.52 808.16 412.57 655.99 547.42 639.24 679.33 785.47 667.22
00009039 00000057 569.10 167.01 448.66 652.32 609.31 427.39 807.65 412.09 655.80 547.22 638.98 678.12 786.00 666.52
00009040 00000058 568.51 170.95 449.39 647.50 607.14 426.86 807.44 411.66 654.60 547.76 637.58 677.70 785.83 666.11
00009041 00000059 566.54 174.65 450.02 643.21 606.24 430.73 803.40 414.31 653.63 549.43 638.19 680.16 782.64 667.81
00009042 00000060 565.51 177.25 451.48 643.18 604.25 432.65 801.24 415.77 651.95 551.75 638.13 683.30 780.65 670.63
00009043 00000061 564.58 182.75 451.46 638.00 604.45 431.84 800.53 417.29 649.91 553.08 637.56 683.33 778.16 672.30
00009044 DELETE   564.53 180.77 447.84 641.07 604.49 431.46 800.16 418.04 649.42 554.60 637.46 683.89 778.09 674.04
00009045 00000063 566.73 181.94 447.65 653.27 605.46 433.74 800.86 418.56 649.65 556.35 640.18 688.87 779.66 677.61
00009046 00000064 560.99 182.66 445.84 660.09 605.56 434.46 810.05 421.61 651.20 561.01 635.10 693.08 795.69 682.08
00009047 00000065 563.37 174.83 444.05 677.15 613.27 437.19 817.65 424.77 663.73 564.96 644.85 693.68 811.27 681.95
00009048 00000066 565.86 173.99 446.42 678.67 622.49 438.16 826.66 428.65 677.94 570.13 655.43 692.76 822.16 682.68
00009049 00000067 580.60 165.90 439.64 682.54 635.13 440.68 843.58 426.88 697.15 564.81 667.41 692.65 830.03 681.85
00009050 00000068 583.41 170.69 440.75 671.97 641.02 441.48 850.06 427.95 706.12 566.16 673.10 690.65 836.91 680.10
00009051 00000069 586.37 167.36 442.26 670.36 646.96 436.57 853.28 423.49 712.23 563.60 680.55 686.96 841.44 677.07
00009052 00000070 589.25 157.80 441.91 670.30 649.18 429.23 856.50 416.29 716.64 558.54 683.05 681.64 844.79 672.05
00009053 00000071 592.86 156.36 446.37 663.49 650.23 424.29 859.86 411.11 716.29 552.64 683.27 675.00 848.67 664.68
00009054 00000072 596.53 155.92 452.13 656.19 651.54 419.95 863.11 407.41 718.07 552.49 686.87 670.01 856.25 659.95
00009055 00000073 598.48 154.22 457.56 659.17 654.47 417.68 868.09 407.70 722.94 554.61 690.60 667.99 862.34 659.74
00009056 DELETE   603.66 149.49 457.04 665.92 660.68 415.91 877.46 409.75 732.24 557.87 696.27 668.96 868.03 663.34
00009057 DELETE   608.66 145.94 462.09 672.06 669.52 419.21 889.66 413.02 741.71 558.92 703.27 674.74 878.97 668.73
00009058 00000076 611.87 144.85 462.14 673.52 675.39 421.38 897.58 412.99 752.15 558.86 710.27 678.15 888.43 670.05
00009059 00000077 614.40 146.90 464.42 669.49 679.72 419.79 902.91 413.78 756.10 558.60 712.97 672.74 892.38 666.55
00009060 00000078 615.58 148.24 464.24 667.43 681.84 417.56 904.32 412.29 757.69 557.02 714.60 671.14 893.46 665.51
00009061 00000079 617.66 144.22 465.47 673.40 683.97 416.82 905.85 411.47 758.99 555.47 715.63 671.80 893.33 666.17
00009062 00000080 618.55 145.03 463.20 675.36 685.16 417.50 906.83 411.69 760.87 555.89 717.72 674.48 893.75 668.56
00009063 00000081 617.67 143.26 463.22 682.24 685.61 418.22 906.45 412.63 762.17 558.33 719.55 677.74 894.64 672.08
00009064 00000082 616.29 151.60 465.90 674.12 686.62 421.57 912.18 418.65 768.56 564.91 721.83 681.13 894.08 677.56
00009065 00000083 615.39 155.04 467.31 676.16 686.68 421.85 913.77 419.92 770.16 566.71 721.41 684.11 891.70 681.64
00009066 00000084 613.32 158.68 465.75 674.10 686.32 422.87 912.55 421.67 771.06 570.07 722.18 686.77 889.81 685.02
00009067 00000085 613.76 160.69 466.35 670.14 685.48 426.81 912.56 425.76 770.87 574.53 720.78 688.67 892.14 686.66
00009068 00000086 618.07 163.19 461.13 672.16 687.82 429.45 908.81 426.15 767.58 574.91 723.68 688.17 895.85 684.95
00009069 00000087 611.14 169.01 466.19 665.08 685.84 433.74 909.82 432.55 772.51 579.83 720.32 690.48 893.76 687.85
00009070 00000088 609.96 172.47 465.93 668.01 686.77 436.14 908.64 434.80 772.86 582.93 722.06 693.71 892.61 691.08
00009071 00000089 610.54 173.29 468.85 679.90 688.52 439.15 908.30 436.48 772.61 585.43 726.65 700.57 891.88 697.16
00009072 00000090 611.85 173.26 470.39 682.14 688.43 444.05 910.28 442.33 773.78 592.04 726.32 704.76 892.29 702.53
00009073 00000091 613.06 177.36 471.09 677.71 689.11 449.13 912.82 446.01 776.80 597.21 727.98 706.21 898.35 702.46
00009074 00000092 612.89 176.46 470.10 677.41 689.42 453.35 914.63 450.07 778.10 599.26 727.82 707.41 901.01 703.45
00009075 00000093 611.56 181.03 470.69 678.77 689.74 457.40 913.71 452.16 779.51 601.87 729.87 709.95 903.35 704.46
00009076 00000094 610.41 183.65 472.72 676.60 689.24 459.66 912.97 454.51 778.02 605.94 730.32 713.62 903.26 708.32
00009077 00000095 610.14 188.33 475.98 689.83 689.43 463.68 912.28 456.07 777.77 610.20 731.67 724.23 901.20 717.36
00009078 00000096 609.82 194.25 475.83 688.04 689.18 467.30 912.91 461.41 775.99 614.43 727.82 728.72 898.78 723.47
00009079 00000097 609.08 200.70 476.43 680.87 688.90 469.97 912.66 466.69 773.22 618.78 724.94 729.80 896.56 726.60
00009080 00000098 609.02 202.81 474.52 681.92 689.39 474.77 913.50 470.42 774.48 622.50 725.22 734.57 897.16 730.47
00009081 00000099 608.43 203.95 477.82 686.81 687.91 477.78 913.76 473.09 773.80 628.36 726.15 740.84 898.57 736.52
00009082 00000100 607.61 206.83 477.33 690.94 688.04 482.42 916.02 477.23 775.72 633.13 725.12 746.45 900.09 741.87
00009083 00000101 608.01 210.20 477.57 692.15 688.04 485.82 917.50 482.02 777.00 640.28 724.82 749.25 902.74 745.88
00009084 00000102 607.77 211.64 478.53 692.16 688.82 489.62 919.57 486.96 777.82 643.21 723.81 751.31 903.53 748.84
00009085 00000103 607.68 213.01 478.82 691.78 689.19 491.94 919.92 489.62 778.46 645.84 724.80 752.87 905.26 750.62
00009086 00000104 608.35 214.82 477.74 690.71 689.73 493.75 920.20 491.60 779.12 647.44 725.28 753.93 906.19 751.86
00009087 00000105 610.44 215.44 475.11 693.33 690.63 496.21 918.98 494.89 780.06 650.66 726.48 757.36 905.11 756.01
00009088 00000106 611.28 221.36 472.69 689.74 689.79 499.46 918.40 498.15 779.79 653.48 725.62 760.91 904.35 759.50
00009089 00000107 616.12 226.76 465.64 689.13 696.78 511.69 919.38 514.74 782.36 655.83 725.67 764.64 901.08 766.29
00009090 DELETE   617.47 231.35 467.69 688.86 696.73 521.70 924.45 522.41 784.29 663.11 726.73 775.23 902.37 775.28
00009091 DELETE   608.95 245.32 473.80 677.70 694.14 527.60 919.43 526.37 785.32 670.12 727.92 780.15 901.93 777.98
00009092 00000110 608.42 250.36 479.63 681.56 692.18 529.26 921.43 526.26 784.64 673.63 729.14 785.98 902.98 782.64
00009093 00000111 608.29 252.68 480.07 682.40 691.38 532.50 919.62 529.32 782.32 678.71 728.88 788.84 902.47 785.34
00009094 00000112 612.65 260.13 475.70 678.28 692.34 536.77 921.03 534.20 781.95 684.69 727.70 792.88 904.96 789.86
00009095 00000113 615.07 264.79 475.80 677.05 695.12 538.78 925.10 538.62 783.75 690.35 727.95 794.83 907.99 793.67
00009096 00000114 616.54 270.35 474.47 675.80 697.50 541.15 926.36 541.84 785.99 692.56 729.03 797.66 909.61 797.16
00009097 00000115 620.47 274.29 474.42 675.33 701.79 545.61 929.30 547.58 788.07 696.36 730.31 800.01 912.54 800.61
00009098 00000116 622.28 274.67 475.50 677.91 703.18 548.04 932.32 549.11 790.38 699.65 734.61 806.09 914.86 805.53
00009099 00000117 623.23 277.79 473.38 681.49 705.79 551.69 933.31 552.45 794.20 704.03 738.62 811.16 917.48 810.17
00009100 00000118 625.19 281.60 471.44 683.46 707.77 554.02 936.41 553.70 797.46 706.36 740.75 816.85 920.68 814.92
00009101 00000119 625.67 274.15 475.55 687.70 712.37 553.76 940.86 549.02 808.97 703.71 747.62 811.29 927.28 807.51
00009102 00000120 625.25 275.22 475.13 687.96 713.81 555.31 943.38 551.37 812.89 705.54 748.37 813.06 927.98 810.06
00009103 00000121 626.10 278.83 475.02 682.93 713.24 556.84 945.42 552.33 813.23 706.26 747.55 812.96 930.96 809.38
00009104 00000122 626.71 279.28 475.42 682.00 713.39 557.71 946.21 553.81 814.54 708.29 747.47 813.27 931.66 810.20
00009105 00000123 626.87 280.03 475.44 682.71 714.87 557.82 947.51 554.20 815.53 708.33 748.64 813.36 933.09 810.47
00009106 00000124 627.80 284.24 475.44 678.70 715.78 557.60 948.87 554.73 816.54 708.27 748.99 813.14 933.06 810.91
00009107 00000125 628.33 279.66 473.54 681.54 716.07 556.67 948.41 552.63 816.46 704.35 749.24 811.57 932.84 808.36
00009108 00000126 632.97 269.93 467.85 689.09 721.19 549.83 945.36 553.73 810.41 704.02 747.23 810.75 920.26 814.15
00009109 00000127 628.71 266.64 474.52 691.61 714.55 542.09 944.14 538.29 811.25 693.91 750.40 801.35 929.85 798.01
00009110 00000128 629.02 266.97 476.50 690.24 714.20 536.61 941.89 531.39 808.88 684.65 751.35 798.51 925.10 794.32
00009111 00000129 626.38 265.25 474.36 681.82 712.72 528.51 939.76 526.14 803.01 677.80 751.93 795.33 923.09 791.27
00009112 00000130 626.75 253.46 471.38 678.29 712.44 523.88 940.00 522.64 802.14 673.17 749.64 786.38 921.71 782.98
00009113 00000131 625.46 248.07 470.84 673.95 710.88 517.88 937.96 518.85 800.34 665.15 742.63 777.42 916.29 775.95
00009114 00000132 631.72 238.67 461.34 681.97 713.63 514.34 937.06 516.67 806.50 664.22 746.03 770.50 916.19 773.51
00009115 00000133 625.56 243.77 468.07 666.15 711.66 516.37 937.71 522.55 796.77 654.07 734.50 767.40 913.85 770.31
00009116 00000134 626.59 241.44 465.41 668.07 710.54 514.51 934.88 521.76 791.81 650.46 730.53 762.93 910.21 766.70
00009117 00000135 623.44 234.74 469.71 674.09 706.36 508.04 931.20 514.18 788.07 647.84 727.12 761.21 905.20 764.08
00009118 00000136 623.49 232.38 469.08 679.27 706.29 503.51 931.98 510.08 788.40 647.67 729.07 761.67 903.38 765.04
00009119 DELETE   627.10 232.90 462.58 681.83 708.13 502.15 929.79 506.81 789.42 647.82 733.58 764.30 900.43 766.36
00009120 00000138 630.87 230.02 458.19 682.09 712.14 500.84 933.41 503.79 799.26 650.61 741.46 757.59 908.13 761.31
00009121 00000139 631.53 227.57 458.40 684.35 712.24 502.01 934.72 505.56 800.46 654.07 740.18 755.79 913.68 759.64
00009122 00000140 629.07 233.21 463.02 676.16 711.66 504.16 935.01 510.94 794.95 652.52 734.53 759.02 909.19 762.19
00009123 00000141 635.37 227.98 457.58 687.44 714.01 504.66 938.03 508.46 802.94 656.46 742.60 759.77 918.74 763.65
00009124 00000142 637.69 228.23 457.36 685.34 715.34 505.83 940.61 510.20 805.19 658.05 743.15 760.99 918.46 765.53
00009125 00000143 639.02 230.77 457.82 685.82 717.22 506.48 942.85 510.63 808.15 658.40 746.15 763.44 919.81 767.81
00009126 00000144 640.05 231.05 457.72 690.12 721.08 506.24 945.36 511.15 810.94 657.99 748.45 763.87 920.46 768.86
00009127 00000145 643.51 230.32 454.47 694.62 722.95 506.02 946.84 510.91 812.73 658.28 750.07 766.43 920.80 771.47
00009128 00000146 647.06 231.45 458.04 691.14 726.08 506.20 950.78 511.97 814.89 658.73 751.12 766.68 922.67 772.46
00009129 00000147 649.43 231.09 459.56 684.98 729.11 505.33 954.59 512.62 817.67 658.70 752.57 763.21 924.32 770.39
00009130 00000148 649.99 233.25 463.41 679.55 730.96 503.23 958.44 512.46 818.46 657.10 752.91 760.51 926.63 769.19
00009131 00000149 652.01 233.55 465.36 676.83 731.44 501.27 959.68 511.21 819.37 655.46 752.30 759.24 926.49 768.55
00009132 00000150 652.82 231.66 465.27 675.11 732.19 499.94 961.26 508.63 819.40 650.07 752.17 757.24 927.52 765.62
00009133 00000151 655.38 229.97 466.84 674.61 732.85 498.86 962.26 506.14 819.23 647.13 754.52 756.46 930.40 763.39
00009134 00000152 655.94 229.91 460.65 674.25 733.64 496.76 961.65 503.34 819.72 644.11 754.52 753.70 930.11 760.14
00009135 00000153 656.51 233.86 460.10 667.12 733.73 492.39 963.75 500.21 818.74 640.69 753.24 749.28 931.18 756.70
00009136 00000154 655.08 234.43 463.04 662.93 731.64 489.68 964.11 496.17 816.93 636.41 751.79 746.03 932.88 752.08
00009137 00000155 656.07 230.50 463.95 666.85 732.55 486.31 964.93 492.02 817.20 631.84 751.99 744.51 932.72 749.88
00009138 00000156 657.94 229.87 459.76 664.88 733.44 484.46 965.51 490.76 816.42 629.29 752.13 742.84 933.12 748.59
00009139 00000157 658.11 231.18 462.65 659.18 732.52 483.35 965.75 487.89 815.05 626.71 752.36 741.81 933.36 746.10
00009140 00000158 659.44 227.97 459.67 662.82 732.39 483.17 963.83 485.48 812.84 623.10 753.18 741.04 932.98 743.60
00009141 00000159 659.87 225.39 459.98 665.00 733.62 484.33 962.01 485.79 812.53 620.29 753.78 740.48 929.89 742.40
00009142 00000160 660.13 225.50 462.34 664.27 734.60 482.51 960.10 483.66 809.84 615.20 753.90 738.86 924.94 740.81
00009143 00000161 660.04 225.99 462.06 662.88 733.78 482.66 957.34 480.31 807.55 609.48 754.04 737.40 921.66 736.52
00009144 00000162 658.56 220.66 460.54 665.61 733.88 480.10 954.96 478.94 806.56 607.41 751.65 732.75 918.29 732.80
00009145 00000163 658.40 221.59 458.58 661.24 732.19 478.21 952.35 476.46 803.72 605.38 750.76 730.12 915.85 729.58
00009146 00000164 658.95 218.09 457.52 663.94 731.15 477.58 950.31 474.89 802.87 603.63 749.30 728.67 913.89 727.33
00009147 00000165 658.88 213.06 456.47 670.19 729.58 475.80 947.02 471.15 799.77 600.15 747.34 728.70 909.57 726.00
00009148 00000166 659.14 213.39 455.01 663.47 727.22 475.53 943.46 468.74 795.81 597.17 744.65 727.12 905.52 722.63
00009149 00000167 659.16 210.87 455.03 666.30 726.14 475.38 941.09 467.95 793.21 595.60 742.73 727.28 904.02 722.15
00009150 00000168 658.55 212.54 453.45 662.34 724.27 474.94 938.01 467.50 790.37 594.94 740.14 725.88 900.70 720.50
00009151 00000169 657.15 212.59 453.20 660.98 722.17 475.10 936.81 467.28 788.71 593.74 738.24 725.82 898.40 719.96
00009152 00000170 656.40 213.16 451.74 662.89 721.17 474.41 934.66 466.65 785.91 593.20 736.35 725.10 897.66 719.35
