Video ID: 	zTxRd0HFGnE
H: 	1080
W: 	1920
FPS: 	29.97002997002997

FRAME INDEX X0 Y0 W H [Landmarks (5 Points)]

00002775 00000000 898.86 151.65 423.06 639.62 1071.45 378.42 1262.39 403.15 1207.22 498.99 1072.77 611.61 1236.00 631.23
00002776 00000001 899.40 150.43 423.38 637.07 1069.60 377.10 1263.11 400.95 1205.36 496.88 1072.57 609.57 1236.28 628.33
00002777 00000002 899.44 151.17 423.75 631.46 1067.88 376.13 1262.88 400.36 1200.34 497.63 1070.47 608.12 1233.67 627.29
00002778 00000003 900.82 149.86 425.06 630.37 1067.38 375.78 1264.02 399.50 1199.11 496.03 1071.89 607.85 1233.60 626.49
00002779 00000004 904.23 150.14 426.36 627.22 1069.86 376.36 1268.16 399.53 1202.35 495.44 1076.15 606.30 1240.25 624.26
00002780 00000005 907.98 149.12 427.88 626.83 1078.44 376.24 1274.23 400.87 1211.43 496.90 1082.20 604.86 1244.88 623.91
00002781 00000006 915.23 150.68 423.78 625.36 1082.62 373.79 1277.96 398.31 1215.71 496.18 1085.67 604.64 1247.42 623.90
00002782 00000007 918.13 152.88 422.59 623.10 1083.45 372.40 1280.29 397.16 1216.45 494.44 1086.54 603.95 1250.18 623.40
00002783 00000008 919.08 151.92 421.48 621.55 1080.83 370.85 1280.11 396.18 1214.56 493.25 1084.68 603.90 1248.74 623.85
00002784 00000009 920.16 149.43 420.12 621.75 1080.16 370.48 1280.62 395.63 1214.42 491.81 1086.56 604.07 1249.05 623.71
00002785 00000010 921.08 146.84 420.07 618.70 1084.57 369.85 1280.32 395.42 1215.43 488.10 1093.40 599.39 1248.81 618.97
00002786 DELETE   920.29 147.92 421.76 619.08 1090.20 371.78 1284.13 397.92 1222.75 484.63 1092.68 592.90 1254.76 613.17
00002787 DELETE   922.09 148.28 421.48 616.38 1094.02 368.06 1287.36 397.54 1225.92 478.39 1095.06 588.63 1255.46 611.67
00002788 00000013 923.37 145.73 419.58 615.28 1092.09 366.30 1286.47 398.07 1223.30 475.48 1093.18 588.89 1251.48 614.17
00002789 00000014 921.14 145.02 419.85 616.03 1084.57 360.23 1282.53 390.10 1217.74 473.93 1088.99 589.43 1248.20 613.05
00002790 00000015 918.16 142.25 420.94 618.93 1078.97 359.50 1280.09 386.89 1214.70 474.93 1086.78 591.12 1247.67 612.45
00002791 00000016 914.53 142.18 422.93 617.35 1074.73 358.50 1276.25 386.17 1209.76 473.01 1082.93 589.59 1243.89 611.03
00002792 00000017 911.87 139.89 424.53 619.06 1075.24 356.22 1275.06 383.44 1209.84 470.99 1082.91 587.26 1243.08 608.10
00002793 00000018 909.43 136.78 425.75 624.60 1073.30 355.06 1273.83 382.64 1209.14 468.85 1079.80 587.26 1241.22 608.46
00002794 00000019 908.01 134.90 424.53 628.18 1072.11 356.85 1269.24 384.57 1204.06 469.83 1076.65 587.82 1235.02 609.19
00002795 00000020 903.57 137.29 427.21 625.73 1067.63 362.75 1264.75 387.31 1200.75 468.90 1075.07 588.56 1236.31 607.52
00002796 00000021 902.09 136.64 427.15 629.18 1062.53 366.26 1261.92 388.04 1195.42 472.86 1070.64 590.90 1236.08 607.47
00002797 00000022 900.15 137.32 426.97 632.67 1060.79 370.19 1261.84 391.85 1195.13 478.21 1069.61 596.31 1236.99 612.88
00002798 00000023 899.38 139.74 426.39 634.39 1057.22 371.61 1260.77 393.04 1192.54 481.12 1065.47 601.66 1234.93 618.35
00002799 00000024 899.26 139.16 427.04 641.43 1057.55 374.40 1259.48 395.97 1190.56 488.45 1063.94 605.84 1233.38 622.78
00002800 00000025 897.44 141.46 428.93 646.40 1055.24 376.39 1257.01 396.70 1187.51 493.86 1062.08 612.03 1230.97 628.14
00002801 00000026 895.29 147.48 430.21 643.69 1055.64 379.88 1254.65 400.79 1184.75 498.87 1062.67 615.44 1226.88 632.19
00002802 00000027 894.18 147.32 431.62 648.43 1054.10 384.00 1253.09 402.31 1183.20 507.31 1065.27 623.54 1225.49 638.13
00002803 00000028 894.31 148.37 431.46 648.30 1052.72 385.97 1251.63 403.28 1181.43 508.48 1064.89 625.90 1224.04 639.66
00002804 00000029 893.83 149.55 431.18 649.81 1051.93 385.23 1249.87 401.81 1182.76 505.84 1063.72 624.72 1224.83 637.90
00002805 00000030 892.71 148.33 431.33 650.76 1048.10 384.26 1249.48 402.27 1180.61 502.76 1057.29 622.60 1224.09 637.08
00002806 00000031 890.64 149.39 432.94 649.62 1043.78 384.32 1249.39 402.03 1177.38 503.12 1052.16 623.62 1223.64 637.99
00002807 00000032 889.29 148.44 433.63 649.90 1041.35 384.70 1249.18 401.87 1175.80 504.46 1049.90 623.03 1225.73 636.76
00002808 00000033 889.56 146.90 433.00 651.10 1041.15 383.19 1249.34 401.51 1175.22 502.80 1049.10 621.16 1225.54 635.80
00002809 00000034 886.54 146.18 436.13 649.63 1044.11 383.10 1247.73 401.48 1176.53 496.89 1051.93 617.16 1225.02 631.91
00002810 00000035 884.10 146.72 435.25 643.78 1045.87 385.76 1246.73 402.34 1177.29 491.98 1055.44 612.35 1225.36 625.41
00002811 00000036 883.75 145.28 436.30 642.02 1045.95 384.30 1248.25 401.52 1177.41 490.24 1055.54 609.87 1226.63 623.28
00002812 00000037 882.89 146.57 436.01 641.16 1043.98 384.54 1247.40 401.16 1174.98 490.45 1053.89 611.05 1225.64 624.00
00002813 00000038 880.07 147.95 439.58 641.11 1039.52 384.32 1246.59 400.97 1170.99 491.42 1050.58 613.88 1223.73 626.97
00002814 00000039 878.49 149.90 441.08 640.08 1036.12 383.05 1245.94 399.97 1168.02 491.96 1046.85 614.68 1222.70 628.20
00002815 00000040 877.69 148.98 442.04 641.63 1033.87 382.43 1244.66 399.65 1165.67 492.94 1045.76 615.15 1222.20 628.79
00002816 00000041 877.49 150.21 440.61 642.12 1030.01 380.58 1242.56 398.44 1163.01 491.36 1042.25 615.19 1221.13 629.23
00002817 00000042 876.38 152.90 440.44 639.34 1026.98 378.91 1240.20 397.26 1159.61 491.27 1040.25 614.61 1219.88 628.93
00002818 00000043 874.08 152.40 441.87 640.42 1024.58 378.95 1238.32 397.43 1157.82 490.14 1039.06 613.84 1219.41 628.07
00002819 00000044 871.17 151.37 443.53 640.42 1022.12 378.94 1236.18 397.30 1154.56 490.27 1037.65 613.46 1217.16 627.47
00002820 00000045 871.14 152.61 441.54 638.70 1019.57 377.84 1234.83 395.94 1152.07 489.96 1034.76 612.75 1216.22 626.51
00002821 00000046 870.79 154.28 439.85 637.07 1017.38 377.15 1233.51 394.55 1147.83 489.68 1031.39 612.44 1213.55 625.68
00002822 00000047 870.04 153.46 438.28 636.67 1015.24 377.09 1230.59 393.50 1144.05 489.47 1029.47 611.73 1209.85 624.26
00002823 00000048 868.81 153.51 438.00 634.37 1012.37 377.09 1227.45 393.27 1139.48 489.82 1025.82 610.60 1206.89 623.04
00002824 00000049 867.94 154.80 436.99 633.45 1009.41 376.19 1225.75 392.79 1135.53 489.92 1021.23 610.80 1203.33 623.73
00002825 00000050 866.47 155.92 438.07 627.95 1004.94 382.17 1216.84 383.16 1134.19 488.35 1023.03 613.27 1198.49 612.60
00002826 00000051 864.96 156.83 438.29 625.94 1003.79 389.55 1212.68 389.04 1131.39 488.44 1023.48 614.99 1196.44 612.83
00002827 00000052 862.78 158.20 433.89 622.68 1000.42 391.74 1208.98 391.66 1126.97 490.36 1019.86 614.04 1193.26 612.32
00002828 00000053 861.13 159.46 431.11 621.62 995.36 392.13 1204.48 390.81 1121.25 487.22 1015.47 613.63 1190.84 610.62
00002829 00000054 863.38 154.45 425.44 622.12 997.39 382.95 1207.06 385.91 1121.31 485.44 1010.78 610.24 1187.83 612.42
00002830 DELETE   861.11 153.40 425.11 621.76 993.27 380.24 1202.23 383.01 1116.73 482.89 1009.45 609.35 1185.15 610.84
00002831 00000056 857.99 153.10 425.76 620.32 990.49 375.43 1198.84 381.08 1112.71 478.88 1007.74 605.79 1182.32 609.09
00002832 00000057 857.93 153.51 424.21 616.90 989.58 372.25 1198.02 377.81 1112.66 476.84 1007.93 604.42 1180.95 607.46
00002833 00000058 855.74 153.93 425.60 614.62 987.94 370.02 1195.84 376.44 1111.17 475.66 1007.78 603.46 1178.21 607.02
00002834 00000059 852.90 151.72 426.60 614.09 984.47 369.93 1191.91 375.75 1107.10 472.66 1006.28 602.65 1175.68 605.54
00002835 00000060 849.68 151.29 429.02 612.76 981.11 368.99 1188.23 375.26 1102.76 471.60 1003.70 601.11 1172.17 604.08
00002836 00000061 848.16 151.00 429.02 611.31 979.61 369.43 1186.19 376.55 1100.17 470.49 1001.54 599.37 1169.41 603.07
00002837 00000062 845.66 151.57 430.21 608.98 975.06 369.03 1184.51 376.70 1095.01 468.36 997.39 598.72 1167.74 602.68
00002838 00000063 843.96 152.22 430.71 606.03 973.01 369.09 1181.87 376.24 1092.03 467.82 995.13 597.77 1164.23 601.31
00002839 00000064 843.27 154.10 429.51 601.91 971.93 369.25 1180.42 376.21 1090.07 466.61 994.19 596.80 1161.79 600.37
00002840 00000065 841.99 154.85 428.15 602.27 970.38 368.72 1177.61 376.40 1087.71 466.22 992.10 596.41 1159.07 600.72
00002841 00000066 841.64 155.39 425.32 600.60 967.81 367.67 1174.94 375.19 1084.82 465.35 990.40 595.76 1157.57 599.99
00002842 00000067 840.43 155.34 423.43 600.84 966.15 367.23 1172.34 374.42 1083.26 464.30 989.36 595.27 1155.93 599.36
00002843 00000068 840.10 153.85 422.58 601.91 964.43 366.32 1172.06 373.90 1081.43 464.40 986.71 595.33 1155.03 599.68
00002844 00000069 839.75 156.15 421.65 598.27 962.47 365.74 1170.90 373.54 1078.64 462.63 984.07 594.19 1153.86 598.86
00002845 00000070 838.42 156.91 422.94 596.80 961.41 365.90 1169.05 373.86 1075.95 462.23 981.82 592.61 1151.57 597.45
00002846 00000071 837.46 159.09 422.00 592.34 959.25 365.87 1167.32 374.42 1072.63 459.35 979.49 590.74 1150.08 596.15
00002847 00000072 836.86 160.18 421.32 590.41 958.45 364.96 1165.63 374.76 1070.77 457.90 976.60 588.89 1147.10 595.54
00002848 00000073 835.56 161.05 422.66 588.75 956.43 364.26 1165.15 374.44 1068.69 456.40 974.79 588.57 1145.61 595.54
00002849 00000074 835.25 159.69 422.16 589.05 955.52 364.02 1164.69 374.67 1067.52 453.94 973.24 587.18 1145.04 594.47
00002850 00000075 836.00 159.98 421.56 587.13 954.81 361.86 1164.20 372.47 1065.46 452.70 972.56 585.91 1144.28 593.19
00002851 00000076 835.93 158.44 421.23 587.44 954.10 359.95 1162.68 370.95 1063.59 451.58 972.09 584.50 1142.34 592.00
00002852 00000077 835.33 158.65 420.16 584.82 953.15 359.50 1161.37 371.99 1061.73 449.70 968.52 581.91 1139.69 590.85
00002853 00000078 834.32 158.36 419.27 583.08 951.04 358.63 1158.95 371.60 1057.98 450.30 965.20 580.16 1136.89 589.68
00002854 00000079 833.68 158.81 419.10 581.80 948.58 357.56 1156.94 370.20 1054.40 448.91 962.77 579.48 1134.25 588.79
00002855 00000080 833.24 158.92 419.38 581.00 948.51 356.64 1156.67 370.46 1054.47 448.55 961.59 578.42 1133.03 588.70
00002856 00000081 834.42 159.16 418.27 578.92 948.64 355.64 1156.27 369.85 1053.50 448.02 961.47 576.43 1132.47 586.94
00002857 00000082 835.07 159.12 418.36 578.95 949.15 354.94 1155.69 369.30 1053.10 447.21 962.01 574.73 1132.07 585.30
00002858 00000083 835.44 158.14 417.64 578.46 949.97 354.28 1155.72 370.30 1052.83 444.71 961.14 573.17 1131.35 585.11
00002859 00000084 835.24 158.65 417.70 575.00 949.64 353.96 1155.36 370.43 1052.18 442.41 960.41 571.62 1130.21 584.00
00002860 00000085 835.26 157.47 417.89 574.21 948.12 355.05 1155.07 371.72 1050.24 442.05 957.54 570.45 1131.97 582.82
00002861 00000086 835.20 158.36 417.65 570.63 946.50 355.34 1153.30 370.57 1047.72 442.34 955.61 568.47 1131.47 579.62
00002862 00000087 834.95 159.73 417.36 570.31 944.79 355.24 1151.03 368.57 1046.09 444.56 954.95 568.17 1131.30 577.63
00002863 00000088 834.74 161.09 417.84 570.13 944.66 355.03 1149.29 367.14 1045.67 445.72 955.97 567.74 1130.13 576.22
00002864 00000089 835.36 160.57 417.32 570.26 944.39 354.34 1148.82 366.25 1044.91 446.00 955.47 567.63 1129.03 576.08
00002865 00000090 835.33 160.32 416.88 570.14 944.20 354.50 1148.07 365.83 1044.57 446.26 956.14 567.51 1128.58 575.48
00002866 00000091 835.84 160.25 416.57 571.10 943.82 354.12 1148.20 365.64 1043.58 445.28 955.41 567.89 1127.85 576.02
00002867 00000092 834.88 160.76 417.34 569.68 943.85 352.56 1147.89 364.89 1043.48 441.11 955.91 567.01 1124.11 575.95
00002868 00000093 834.50 162.44 417.72 567.35 943.67 351.50 1147.30 363.15 1042.83 439.54 956.75 567.83 1121.41 576.29
00002869 00000094 833.95 161.57 418.92 566.44 943.03 351.63 1147.20 362.81 1042.29 437.73 956.90 566.53 1122.40 574.56
00002870 00000095 834.05 160.88 418.51 566.73 941.83 350.99 1148.08 363.00 1040.90 436.95 953.67 565.68 1123.79 574.38
00002871 00000096 833.88 158.57 418.62 568.57 941.51 350.42 1148.93 363.01 1040.45 436.31 952.29 565.00 1124.41 574.19
00002872 00000097 832.77 158.55 418.29 568.79 940.29 349.99 1148.90 363.84 1038.79 437.52 949.34 564.98 1124.50 575.24
00002873 00000098 832.41 159.73 417.65 567.90 938.95 350.65 1147.14 363.69 1036.99 438.62 948.58 565.14 1124.02 574.77
00002874 00000099 832.42 159.08 416.71 568.11 937.86 350.94 1145.94 364.55 1035.56 438.32 947.09 564.33 1122.49 574.49
00002875 00000100 831.16 159.43 415.83 567.14 937.14 351.33 1144.42 364.86 1034.58 439.34 945.65 563.73 1120.75 573.84
00002876 00000101 831.08 158.73 416.07 569.06 935.76 351.82 1143.52 365.17 1032.08 440.14 943.81 564.08 1120.27 573.99
00002877 00000102 830.04 159.34 415.45 568.49 935.95 352.78 1142.50 366.21 1032.38 440.88 943.93 564.78 1119.18 574.80
00002878 00000103 829.43 160.05 414.58 567.24 935.30 353.78 1141.48 367.90 1031.17 442.34 942.00 565.47 1118.03 576.18
00002879 00000104 829.04 159.33 414.48 567.73 935.01 354.79 1141.00 368.95 1030.77 444.36 941.34 565.82 1117.32 576.54
00002880 00000105 827.75 159.94 413.14 566.28 934.42 355.76 1138.93 370.70 1028.70 445.71 939.48 565.86 1115.35 577.34
00002881 00000106 828.65 159.66 412.52 566.16 934.58 356.12 1137.72 370.88 1027.12 447.56 939.31 566.08 1113.54 577.47
00002882 00000107 828.16 160.34 413.67 566.60 934.01 357.01 1137.64 371.83 1026.01 446.64 938.43 566.67 1113.41 578.15
00002883 00000108 827.78 160.41 414.42 566.77 934.45 356.65 1138.24 372.87 1026.40 447.06 937.53 566.62 1112.97 579.27
00002884 00000109 827.14 161.41 415.60 565.41 934.40 356.31 1138.94 373.14 1026.58 447.51 937.14 566.89 1112.85 580.13
00002885 00000110 826.55 162.21 417.46 564.53 934.61 355.72 1139.51 373.46 1027.02 445.82 936.37 565.94 1113.06 579.85
00002886 00000111 827.88 161.70 416.58 564.99 934.99 355.07 1139.85 373.43 1026.64 445.18 936.36 565.18 1113.00 579.63
00002887 00000112 829.06 163.73 415.83 561.89 934.71 355.70 1139.90 373.13 1025.28 444.79 936.44 564.98 1112.85 578.72
00002888 00000113 829.84 163.80 414.18 560.70 934.77 355.56 1139.69 372.66 1024.94 444.16 936.72 564.71 1112.64 578.23
00002889 00000114 831.87 164.61 409.54 559.30 935.07 356.67 1137.13 372.10 1023.86 442.12 938.60 563.87 1112.51 575.85
00002890 00000115 837.01 160.81 407.19 564.52 936.74 362.48 1138.19 376.76 1024.31 439.36 939.93 564.71 1117.25 575.48
00002891 DELETE   843.24 161.63 404.47 563.62 939.43 363.71 1140.21 376.17 1025.41 438.33 943.46 564.71 1121.67 574.24
00002892 00000117 847.79 162.23 406.25 564.31 941.77 361.35 1144.91 370.74 1027.36 437.21 948.25 566.59 1126.88 573.41
00002893 00000118 850.66 161.19 408.28 565.00 946.44 358.07 1150.85 368.86 1031.84 436.24 951.77 566.64 1128.72 574.73
00002894 00000119 856.31 158.16 407.78 566.72 954.80 358.89 1157.84 369.95 1039.46 434.17 959.56 565.30 1133.76 573.72
00002895 00000120 861.75 153.30 409.96 570.80 960.23 358.24 1164.34 367.41 1045.69 434.36 967.02 565.88 1141.24 572.57
00002896 DELETE   867.18 153.45 410.86 570.06 968.81 357.30 1173.72 365.32 1055.24 435.00 974.12 567.63 1147.59 573.83
00002897 DELETE   873.04 150.07 410.58 572.26 976.34 355.65 1182.23 362.59 1063.96 434.16 981.30 568.07 1154.39 573.14
00002898 00000123 879.60 150.90 408.27 570.24 985.17 355.82 1188.35 363.59 1072.14 433.50 987.66 567.11 1159.29 573.13
00002899 DELETE   885.41 150.50 407.71 571.34 991.71 356.67 1193.47 364.23 1079.09 434.05 994.97 567.09 1165.04 572.64
00002900 DELETE   890.08 150.40 407.54 572.08 995.99 356.73 1198.92 365.67 1084.06 437.17 999.56 568.41 1169.50 574.61
00002901 DELETE   894.40 159.54 407.26 563.67 1002.40 357.75 1204.07 375.12 1091.62 440.60 1001.51 560.55 1171.90 574.67
00002902 00000127 897.25 161.75 406.36 561.87 1005.69 356.48 1207.34 374.78 1096.01 442.67 1006.15 561.72 1175.37 576.37
00002903 00000128 899.75 163.26 405.63 561.76 1008.09 356.60 1209.64 375.99 1098.57 443.15 1008.44 562.74 1179.02 578.20
00002904 00000129 901.97 163.77 406.07 561.62 1010.71 355.83 1211.22 376.45 1099.78 444.42 1009.60 563.27 1180.17 579.87
00002905 DELETE   902.99 165.40 405.26 561.41 1011.74 357.21 1212.41 378.81 1101.20 445.11 1009.79 564.41 1182.41 581.93
00002906 00000131 903.57 167.25 405.46 560.43 1011.11 357.87 1212.85 379.16 1100.75 445.67 1009.56 565.92 1181.47 583.22
00002907 00000132 903.46 168.38 405.83 561.30 1010.24 358.94 1213.45 380.48 1101.00 446.10 1008.65 567.65 1181.81 585.23
00002908 00000133 903.42 168.43 405.17 563.72 1010.07 360.52 1214.42 382.39 1101.25 447.41 1007.77 569.07 1182.79 587.06
00002909 00000134 903.21 168.50 404.70 566.72 1009.63 361.97 1213.44 384.30 1099.48 448.80 1006.12 570.62 1181.33 589.08
00002910 DELETE   901.98 170.56 403.03 566.87 1006.99 367.19 1209.96 386.89 1095.01 445.49 1005.67 573.08 1180.74 589.42
00002911 DELETE   904.02 174.23 397.50 566.46 1005.59 373.25 1202.49 389.71 1086.60 445.04 1001.20 574.91 1169.47 589.17
00002912 00000137 901.28 178.43 392.80 567.55 1001.04 377.09 1188.45 384.91 1079.28 450.49 1000.21 580.21 1162.83 587.85
00002913 DELETE   894.14 180.43 393.41 565.29 991.99 377.57 1178.13 381.18 1066.32 452.20 993.19 581.26 1154.24 585.40
00002914 DELETE   889.88 180.96 392.72 568.31 979.56 374.90 1168.28 373.73 1050.85 452.30 985.18 584.95 1147.40 585.14
00002915 DELETE   883.32 176.39 396.47 571.79 970.43 376.31 1163.12 370.55 1041.35 452.64 978.70 586.50 1144.44 582.48
00002916 00000141 880.25 173.69 397.83 573.99 964.22 377.09 1161.54 371.35 1036.21 453.65 972.92 586.16 1145.47 581.98
00002917 00000142 877.52 172.96 400.37 574.55 962.78 376.93 1161.19 372.70 1035.95 452.98 971.23 585.73 1144.53 582.81
00002918 DELETE   878.53 178.04 398.55 567.12 965.39 377.15 1161.90 372.24 1039.00 452.82 973.68 586.34 1142.50 583.08
00002919 00000144 878.43 178.55 399.11 567.70 967.21 378.44 1164.72 375.19 1044.90 454.35 976.02 588.31 1145.70 586.46
00002920 00000145 879.47 179.58 397.28 568.46 966.92 379.00 1166.84 376.65 1046.93 456.92 976.23 590.27 1149.95 589.00
00002921 DELETE   878.64 179.58 396.35 569.68 964.70 378.85 1165.93 376.51 1046.09 457.82 974.30 591.40 1148.92 590.26
00002922 00000147 872.89 178.67 400.21 573.84 958.96 380.22 1161.61 377.85 1040.23 455.95 967.45 592.56 1143.41 591.32
00002923 00000148 868.86 178.78 400.97 575.09 954.73 378.84 1158.51 376.98 1034.86 453.34 962.90 595.17 1137.34 594.41
00002924 00000149 862.48 179.84 405.09 574.92 949.95 379.04 1154.92 377.73 1032.66 453.21 958.45 595.05 1134.68 594.51
00002925 00000150 856.78 177.40 406.98 579.57 945.49 378.98 1152.52 377.96 1030.93 452.99 955.98 597.87 1132.59 597.17
00002926 00000151 854.00 178.21 407.13 578.03 943.04 378.26 1152.44 379.85 1029.53 452.77 953.51 597.34 1132.01 598.59
00002927 00000152 850.54 174.99 408.94 583.56 939.07 378.69 1150.23 380.92 1026.97 454.77 949.55 596.75 1131.47 598.15
00002928 00000153 844.89 174.37 411.88 584.99 933.39 378.66 1146.77 382.62 1020.05 457.81 941.95 595.92 1128.93 598.38
00002929 DELETE   839.48 174.73 412.90 586.33 927.95 378.56 1141.43 386.27 1012.03 460.81 933.01 595.28 1122.38 600.84
00002930 DELETE   834.59 172.65 411.95 589.63 923.34 380.10 1134.37 387.00 1006.52 462.99 928.57 597.67 1115.04 602.82
00002931 00000156 832.14 173.71 409.37 589.58 919.72 381.27 1129.49 387.38 1001.57 464.94 923.88 600.42 1109.00 605.16
00002932 DELETE   828.04 174.77 410.08 589.78 918.26 382.74 1125.18 388.69 999.32 469.63 921.67 600.95 1102.98 605.73
00002933 DELETE   825.68 172.51 409.68 595.05 913.36 384.87 1120.84 389.28 993.53 472.08 915.86 603.69 1098.00 607.40
00002934 00000159 821.52 174.35 409.06 595.86 907.15 386.47 1113.65 388.61 985.38 473.87 909.22 606.89 1088.23 609.35
00002935 DELETE   813.15 173.58 411.67 600.34 895.89 387.22 1105.73 392.34 974.19 474.50 898.44 614.83 1076.12 619.93
CROP_BBOX: 529 0 1496 963
