Video ID: 	TT4oMi8OsVk
H: 	1080
W: 	1920
FPS: 	25.0

FRAME INDEX X0 Y0 W H [Landmarks (5 Points)]

00002352 00000000 914.73 192.10 485.71 709.36 1023.96 463.40 1223.09 515.63 1064.68 614.92 994.27 704.24 1153.35 749.48
00002353 00000001 915.66 179.98 485.87 716.62 1026.91 457.74 1227.54 506.85 1071.67 607.56 997.60 699.94 1160.12 742.50
00002354 00000002 919.07 173.71 482.57 717.14 1028.03 453.97 1230.87 503.34 1074.68 605.61 999.39 696.01 1163.96 738.80
00002355 00000003 928.85 181.25 476.90 707.16 1030.71 447.24 1233.57 508.99 1076.34 602.93 1002.39 692.20 1155.99 745.70
00002356 00000004 931.84 177.92 473.44 704.26 1032.96 445.50 1233.65 507.58 1077.43 599.61 1005.07 687.48 1157.28 741.17
00002357 00000005 932.08 172.37 473.23 704.71 1031.92 444.51 1232.23 506.41 1075.27 596.10 1004.24 684.47 1155.77 737.99
00002358 00000006 931.90 172.68 471.22 700.94 1032.80 441.02 1231.25 504.11 1074.88 592.30 1004.61 681.26 1154.17 735.60
00002359 00000007 931.43 173.45 471.55 699.98 1032.62 440.63 1231.36 504.01 1075.06 592.31 1004.32 680.87 1154.20 735.47
00002360 00000008 929.28 170.44 471.26 700.22 1030.48 437.97 1229.73 500.28 1073.73 591.88 1002.79 678.80 1152.42 732.57
00002361 00000009 928.95 172.89 469.19 696.81 1029.51 437.46 1228.25 499.34 1072.80 591.77 1001.78 678.15 1151.09 731.53
00002362 00000010 927.60 178.35 469.18 691.04 1028.83 436.83 1227.84 497.55 1072.96 590.87 1000.65 677.76 1150.23 730.20
00002363 00000011 927.30 177.19 469.86 689.59 1028.61 436.27 1228.49 496.96 1073.18 589.36 1000.83 676.58 1150.75 728.94
00002364 00000012 928.08 175.00 472.63 690.13 1029.93 436.00 1230.79 496.93 1075.28 589.75 1002.67 676.34 1153.70 728.85
00002365 00000013 930.80 175.59 474.24 693.81 1034.38 433.49 1236.18 494.97 1078.48 587.21 1006.05 676.54 1158.44 729.48
00002366 00000014 937.16 172.47 472.06 698.13 1037.82 432.31 1238.70 493.69 1079.43 586.97 1010.29 678.48 1160.72 731.40
00002367 00000015 938.14 173.51 476.84 691.92 1044.17 434.81 1248.41 482.90 1092.89 580.37 1015.53 677.15 1170.13 720.32
00002368 00000016 944.55 175.70 475.51 690.14 1049.21 432.99 1253.53 479.10 1098.93 577.34 1023.02 677.14 1175.51 718.84
00002369 00000017 947.97 175.48 475.19 684.90 1054.60 429.54 1257.91 471.29 1108.07 567.58 1031.12 675.81 1178.71 714.01
00002370 DELETE   952.70 163.43 477.76 695.89 1060.65 421.17 1260.53 468.08 1108.01 563.73 1039.28 672.12 1181.36 713.40
00002371 DELETE   958.60 152.03 473.38 686.80 1071.30 413.94 1262.92 460.32 1120.39 552.00 1048.46 654.62 1185.93 695.45
00002372 DELETE   961.87 156.26 470.74 673.17 1073.14 404.49 1263.64 450.11 1119.24 540.47 1051.14 644.79 1192.67 684.68
00002373 00000021 954.62 146.80 475.92 676.99 1073.34 396.88 1266.08 439.74 1122.72 529.81 1049.26 637.41 1191.64 675.32
00002374 00000022 949.04 149.76 480.37 671.12 1068.29 389.74 1263.08 438.70 1114.10 526.28 1037.10 626.95 1189.65 669.82
00002375 00000023 945.16 144.04 483.54 676.29 1066.72 386.51 1262.66 441.33 1109.96 528.20 1030.59 622.37 1188.32 670.07
00002376 00000024 943.29 148.72 476.49 671.45 1060.94 386.79 1255.43 446.31 1098.44 533.77 1023.16 622.72 1182.31 674.21
00002377 00000025 943.38 150.56 469.22 671.85 1055.17 392.17 1249.94 452.70 1091.89 541.53 1016.83 627.11 1178.57 679.63
00002378 00000026 945.19 152.84 463.59 675.45 1053.80 396.10 1248.44 455.70 1088.43 546.10 1015.19 635.14 1172.76 687.01
00002379 00000027 940.30 161.80 461.39 675.49 1051.05 401.24 1245.08 460.52 1085.35 547.16 1012.53 638.16 1169.43 689.58
00002380 00000028 938.09 155.33 458.92 679.36 1049.05 405.28 1241.11 463.91 1084.24 549.23 1010.88 638.38 1166.53 689.21
00002381 00000029 934.17 153.70 457.96 675.34 1044.31 405.01 1236.90 459.62 1082.79 546.76 1007.24 635.97 1166.83 683.42
00002382 00000030 932.70 149.83 458.32 675.68 1040.97 400.76 1234.35 452.16 1080.03 541.72 1005.82 633.75 1166.13 678.44
00002383 00000031 932.78 149.91 458.23 675.56 1040.89 400.85 1234.31 452.14 1080.07 541.71 1005.81 633.78 1166.17 678.39
00002384 DELETE   929.03 150.33 461.88 667.09 1041.61 395.48 1233.18 445.79 1081.10 532.58 1006.23 626.27 1164.68 669.80
00002385 DELETE   928.40 145.67 462.15 661.85 1039.62 390.51 1229.83 436.70 1079.37 526.64 1007.41 620.19 1163.50 660.11
00002386 00000034 926.37 141.17 461.00 661.81 1038.08 387.93 1229.61 430.60 1079.90 520.87 1008.76 618.69 1164.15 655.35
00002387 00000035 924.43 135.29 463.08 663.63 1036.90 385.88 1227.96 432.42 1077.71 517.92 1006.06 612.01 1164.46 651.48
00002388 00000036 927.90 142.49 457.46 649.27 1033.89 380.94 1230.40 437.99 1082.03 515.21 1008.23 606.33 1160.07 655.24
00002389 00000037 927.91 142.01 457.67 643.31 1033.27 381.25 1230.66 435.84 1083.28 513.92 1009.57 604.65 1160.77 651.39
00002390 00000038 932.57 141.55 452.25 636.65 1035.19 384.79 1230.20 436.80 1085.40 516.64 1012.36 605.17 1162.18 649.69
00002391 00000039 930.90 147.86 454.57 629.84 1032.86 384.28 1231.66 435.94 1087.16 519.93 1011.99 608.51 1163.52 652.59
00002392 00000040 928.76 141.98 459.37 646.51 1039.70 388.45 1230.10 434.02 1082.61 520.55 1010.22 612.62 1164.12 651.24
00002393 00000041 926.78 148.97 457.60 641.71 1037.15 390.80 1227.89 437.61 1079.27 524.92 1007.23 615.34 1163.73 654.90
00002394 00000042 924.50 153.15 458.94 638.82 1035.76 392.86 1227.43 441.52 1078.82 528.39 1006.72 616.53 1161.04 657.67
00002395 00000043 923.55 162.76 450.43 631.42 1028.08 397.12 1229.50 449.81 1074.62 535.07 997.68 622.47 1159.75 666.10
00002396 00000044 921.68 157.35 449.02 639.52 1026.08 399.13 1227.14 451.29 1075.00 537.28 997.78 625.09 1159.24 668.20
00002397 00000045 920.65 164.13 447.87 635.00 1025.58 399.77 1224.97 449.06 1074.38 535.95 997.88 623.96 1160.02 664.72
00002398 00000046 919.52 165.75 448.35 632.70 1024.66 399.24 1223.41 445.08 1074.73 531.53 998.13 622.93 1159.85 661.01
00002399 00000047 916.05 161.99 456.96 637.46 1025.98 396.23 1217.73 436.25 1074.21 524.00 1001.70 620.67 1157.94 654.60
00002400 00000048 914.12 161.49 451.09 628.53 1021.54 392.54 1218.95 435.60 1076.26 522.88 996.53 614.18 1159.55 649.32
00002401 00000049 913.20 161.74 448.64 624.36 1019.36 392.44 1215.30 434.58 1073.78 522.07 994.22 612.37 1156.25 646.68
00002402 00000050 912.73 159.32 446.61 624.74 1017.18 394.80 1211.78 437.81 1071.55 522.09 991.54 612.87 1152.42 647.83
00002403 00000051 910.09 157.52 447.63 626.60 1014.76 395.65 1208.42 443.51 1065.76 526.63 987.42 613.17 1147.87 651.82
00002404 00000052 907.81 158.71 448.97 627.13 1012.79 397.69 1205.62 446.66 1060.92 528.66 984.70 614.85 1141.06 654.43
00002405 00000053 908.15 156.77 449.45 636.34 1013.33 399.02 1204.42 450.14 1058.95 530.31 983.46 617.01 1139.61 658.34
00002406 00000054 907.43 159.93 450.86 642.77 1014.64 400.72 1205.46 452.10 1060.01 530.66 982.54 619.52 1140.41 661.22
00002407 00000055 907.59 161.51 450.49 641.09 1014.69 400.62 1205.24 451.88 1059.92 530.65 982.61 619.49 1140.25 661.15
00002408 00000056 907.66 159.56 450.88 645.66 1015.71 401.63 1205.69 452.95 1060.60 530.41 983.72 619.68 1141.24 661.41
00002409 00000057 907.86 157.87 456.13 645.27 1016.17 398.87 1199.68 442.64 1053.59 518.42 984.18 617.75 1136.82 654.18
00002410 DELETE   904.31 154.17 454.72 635.49 1011.79 393.89 1196.37 438.92 1050.29 514.33 980.06 611.92 1128.95 649.52
00002411 00000059 905.40 147.73 449.77 643.00 1011.53 387.39 1186.49 445.96 1051.85 516.60 986.24 604.64 1125.81 654.63
00002412 00000060 911.27 145.51 445.44 648.42 1011.58 383.38 1186.36 438.74 1049.87 516.78 990.51 607.02 1129.75 654.39
00002413 DELETE   921.17 146.09 435.41 630.46 1013.73 386.19 1198.63 431.08 1052.29 507.68 991.66 606.73 1131.19 645.19
00002414 DELETE   925.68 150.78 436.96 624.93 1018.49 384.72 1206.52 430.70 1059.16 507.84 996.84 606.29 1138.14 645.81
00002415 DELETE   926.87 143.36 442.28 634.10 1020.30 387.36 1213.96 429.12 1065.06 510.72 994.61 613.83 1149.57 647.93
00002416 00000064 928.82 148.35 442.64 628.57 1023.75 389.97 1215.68 431.36 1066.85 512.73 998.28 612.89 1153.83 646.54
00002417 00000065 927.54 149.58 449.05 635.42 1034.48 390.83 1217.86 429.68 1073.23 513.03 1009.05 613.57 1154.62 646.26
00002418 00000066 929.43 145.32 448.19 638.79 1036.01 389.17 1219.87 427.56 1075.50 511.73 1011.92 612.52 1156.71 644.88
00002419 00000067 929.55 141.10 443.54 634.65 1030.01 386.67 1220.30 428.62 1073.57 508.37 1007.71 609.44 1158.70 643.76
00002420 00000068 930.54 136.89 442.08 640.67 1031.85 385.79 1221.99 428.09 1075.48 507.06 1009.01 608.68 1161.29 643.25
00002421 00000069 934.90 136.57 443.82 654.45 1041.83 388.11 1225.59 425.40 1082.57 509.83 1016.51 613.81 1161.50 645.63
00002422 00000070 935.97 140.50 445.77 654.71 1043.53 388.54 1227.53 425.07 1084.28 511.90 1018.40 615.99 1162.28 647.41
00002423 00000071 939.07 148.58 445.15 648.10 1045.38 389.80 1230.92 426.07 1086.57 514.67 1020.13 618.38 1162.44 649.89
00002424 00000072 938.57 152.42 447.10 647.29 1044.03 390.54 1231.36 427.40 1084.81 517.03 1019.13 620.77 1163.28 652.82
00002425 00000073 940.25 152.51 444.88 647.52 1043.04 393.04 1230.41 431.00 1083.02 519.55 1017.46 622.03 1163.06 655.11
00002426 00000074 940.88 154.60 444.62 645.68 1043.75 393.64 1232.59 433.72 1083.73 520.34 1018.34 622.06 1166.60 656.73
00002427 00000075 946.86 155.22 440.15 648.98 1046.22 394.73 1233.84 434.38 1083.30 520.64 1020.53 625.29 1168.31 659.88
00002428 00000076 954.25 152.68 437.09 653.28 1048.43 398.06 1235.54 435.94 1085.93 523.78 1023.54 629.68 1171.11 663.22
00002429 00000077 954.72 157.39 441.56 651.21 1052.04 399.05 1240.23 439.97 1089.52 525.45 1026.04 628.86 1175.52 665.00
00002430 00000078 957.00 150.02 442.37 657.86 1055.87 397.46 1245.11 436.73 1097.43 524.14 1029.67 629.02 1179.54 663.88
00002431 00000079 958.63 151.54 446.42 656.99 1059.25 396.32 1250.66 435.50 1103.12 524.25 1033.04 629.28 1183.01 664.25
00002432 00000080 957.64 154.83 446.63 652.76 1059.69 395.87 1251.22 436.33 1103.87 524.43 1032.24 628.49 1181.96 664.46
00002433 00000081 959.90 157.72 446.92 649.15 1061.11 394.83 1254.18 435.63 1106.00 525.72 1033.83 628.90 1183.54 665.18
00002434 00000082 959.91 156.74 446.66 651.14 1061.06 395.47 1253.96 436.96 1105.16 525.97 1033.58 629.73 1183.03 666.62
00002435 00000083 960.07 158.71 447.12 650.14 1059.82 396.59 1252.90 438.23 1103.52 527.79 1033.32 631.76 1182.23 668.76
00002436 00000084 959.77 160.43 445.39 648.20 1058.35 397.18 1251.49 439.09 1102.23 529.52 1032.54 632.44 1181.99 669.60
00002437 00000085 959.37 159.55 444.52 647.49 1057.80 397.88 1250.34 439.51 1102.10 529.88 1031.67 632.28 1180.98 669.23
00002438 00000086 956.50 160.54 445.13 646.91 1056.27 397.84 1249.68 438.83 1100.53 528.19 1029.42 631.90 1180.02 668.27
00002439 00000087 954.15 160.29 446.63 647.40 1055.69 396.95 1249.22 437.52 1098.99 525.79 1027.96 631.03 1178.77 667.08
00002440 00000088 953.39 161.15 445.93 644.65 1053.87 396.28 1247.19 436.74 1096.53 525.25 1026.23 630.28 1177.91 666.14
00002441 00000089 954.52 156.02 444.16 649.27 1053.43 397.43 1244.48 436.72 1094.97 525.90 1026.53 631.10 1175.90 666.03
00002442 00000090 954.12 160.04 443.87 646.26 1053.49 397.93 1244.85 438.18 1094.80 527.28 1026.28 631.76 1175.65 667.38
00002443 00000091 954.26 159.90 442.72 644.86 1052.50 397.87 1244.06 439.76 1093.07 527.77 1024.50 631.15 1174.32 668.09
00002444 00000092 954.74 159.56 441.43 644.11 1051.89 397.74 1243.29 439.47 1092.20 528.01 1024.25 630.86 1174.04 667.65
00002445 00000093 954.73 157.81 441.78 645.13 1052.13 397.78 1242.86 438.57 1092.42 527.19 1024.61 630.54 1174.84 666.54
00002446 00000094 955.12 159.04 442.20 642.32 1052.66 396.56 1242.98 438.03 1091.89 526.86 1025.16 629.67 1174.58 666.20
00002447 00000095 954.92 159.89 442.89 640.33 1052.50 396.27 1243.26 437.47 1091.97 526.21 1025.45 629.58 1174.38 665.85
00002448 00000096 955.02 158.17 442.49 640.65 1051.84 396.80 1242.59 436.46 1092.27 525.53 1025.77 629.95 1174.55 664.94
00002449 00000097 954.57 158.32 443.27 640.69 1051.80 396.44 1242.67 436.48 1091.89 525.12 1025.54 629.54 1174.64 664.80
00002450 00000098 954.20 159.43 443.34 639.51 1051.53 396.46 1242.35 436.94 1091.34 525.18 1025.29 629.13 1174.00 664.71
00002451 00000099 954.87 159.94 441.64 639.27 1051.86 396.17 1242.12 437.48 1090.60 525.37 1024.96 628.79 1173.75 665.01
00002452 00000100 954.54 158.35 441.00 640.44 1051.73 396.56 1241.83 437.83 1091.08 525.88 1024.41 629.14 1173.35 665.36
00002453 00000101 954.45 155.76 440.71 643.20 1051.48 396.17 1240.98 437.59 1090.31 526.41 1024.16 629.37 1172.99 665.65
00002454 00000102 954.19 157.02 440.77 642.53 1051.26 396.58 1241.13 438.26 1090.25 526.93 1023.88 629.34 1173.26 665.86
00002455 00000103 954.01 156.34 441.07 644.96 1051.06 397.17 1240.58 438.38 1090.07 527.42 1024.02 629.84 1173.47 666.07
00002456 00000104 953.94 156.17 441.06 646.05 1051.12 397.23 1240.60 438.51 1090.19 527.56 1023.80 629.76 1173.19 666.08
00002457 00000105 954.41 158.09 440.18 645.23 1050.94 397.54 1240.99 438.92 1090.30 528.59 1024.09 630.84 1173.77 667.30
00002458 00000106 953.79 159.68 440.67 645.31 1051.21 397.83 1241.96 438.94 1091.19 528.63 1024.52 631.70 1174.44 667.95
00002459 00000107 953.94 161.13 440.67 644.75 1051.81 398.17 1243.10 438.86 1092.43 528.54 1025.62 632.21 1175.41 668.12
00002460 00000108 954.43 161.24 440.78 644.37 1052.87 398.48 1243.72 439.87 1093.61 528.44 1026.34 631.50 1176.25 667.96
00002461 00000109 958.90 157.98 437.79 645.85 1053.02 399.26 1243.37 442.86 1092.70 528.36 1027.51 630.14 1178.01 668.30
00002462 00000110 960.67 157.89 436.66 644.68 1054.71 397.51 1245.39 442.42 1094.42 528.11 1028.69 629.27 1178.08 668.55
00002463 00000111 958.85 156.57 439.12 647.77 1054.81 400.25 1244.63 442.03 1097.20 528.24 1028.74 630.61 1180.09 667.33
00002464 00000112 958.32 159.08 439.57 645.00 1055.31 401.04 1246.55 441.19 1100.48 529.45 1029.55 631.89 1181.03 667.38
00002465 00000113 958.04 160.20 440.35 643.84 1055.78 400.73 1247.25 439.50 1101.97 529.52 1030.45 632.75 1181.27 667.17
00002466 00000114 958.20 158.93 440.56 645.23 1056.01 399.91 1247.82 438.08 1102.97 529.64 1031.05 633.03 1181.94 666.93
00002467 00000115 958.40 160.51 441.21 644.21 1056.43 398.95 1248.69 437.68 1103.37 530.04 1031.25 632.77 1182.45 667.17
00002468 00000116 958.60 159.24 441.38 645.26 1056.96 398.32 1249.00 437.34 1103.35 529.57 1031.17 632.47 1182.14 667.18
00002469 00000117 959.44 159.58 441.49 644.81 1057.13 397.62 1249.79 436.77 1103.44 529.57 1031.13 632.10 1182.77 666.97
00002470 00000118 960.15 158.22 441.42 645.35 1057.79 396.94 1250.48 436.46 1103.65 528.81 1031.74 631.78 1182.69 666.96
00002471 00000119 959.61 159.55 442.64 644.30 1058.09 396.35 1251.37 436.29 1104.17 528.56 1031.93 631.81 1183.04 667.36
00002472 00000120 960.11 159.68 442.02 644.77 1058.09 396.60 1252.00 435.78 1105.10 529.25 1032.51 633.12 1183.50 668.09
00002473 00000121 959.92 161.19 442.22 643.23 1058.04 397.25 1252.15 436.28 1105.41 529.90 1032.57 633.61 1183.69 668.44
00002474 00000122 959.94 161.32 441.36 643.37 1057.76 397.90 1250.75 436.44 1104.81 530.81 1032.72 634.37 1183.21 668.78
00002475 00000123 959.77 162.66 440.78 642.62 1057.37 398.26 1250.69 436.77 1104.18 531.00 1032.29 634.80 1182.75 669.15
00002476 00000124 959.19 160.97 441.37 644.74 1057.11 397.66 1250.28 436.25 1103.79 530.28 1032.06 634.14 1182.39 668.55
00002477 00000125 959.27 159.22 441.30 646.00 1058.60 396.70 1251.52 436.51 1105.16 529.18 1031.98 632.28 1182.67 667.73
00002478 00000126 958.80 160.39 442.67 646.83 1058.66 396.59 1252.51 435.84 1105.55 528.56 1032.78 633.17 1183.62 668.16
00002479 00000127 959.55 157.04 442.74 650.02 1058.98 396.78 1252.62 435.40 1106.19 528.42 1033.65 633.73 1184.17 668.23
00002480 00000128 959.01 156.97 443.70 652.47 1059.96 396.06 1253.05 434.85 1106.34 527.85 1034.84 633.38 1184.66 668.01
00002481 00000129 958.83 158.36 444.46 651.39 1059.94 396.42 1253.27 434.85 1106.63 527.97 1035.14 633.73 1185.22 668.05
00002482 00000130 958.49 156.96 445.63 653.99 1060.60 396.32 1253.65 434.72 1107.11 527.50 1035.65 634.04 1185.18 668.34
00002483 00000131 958.91 157.54 446.70 653.94 1061.41 395.70 1254.82 434.51 1107.78 527.21 1036.45 633.50 1186.40 668.12
00002484 00000132 959.34 157.40 447.03 652.42 1061.88 395.77 1255.18 434.73 1108.35 527.08 1037.15 632.54 1187.06 667.22
00002485 00000133 959.32 159.17 447.87 649.09 1062.23 395.40 1255.61 434.78 1108.79 527.30 1037.72 631.77 1186.99 666.82
00002486 00000134 960.42 156.98 446.89 649.22 1063.30 395.72 1256.30 435.10 1110.46 527.39 1038.73 631.10 1187.68 666.13
00002487 00000135 960.57 157.76 446.34 647.87 1063.08 395.58 1255.85 435.26 1110.19 527.43 1038.22 630.68 1187.69 665.92
00002488 00000136 961.26 158.36 446.46 645.74 1064.37 395.75 1256.82 435.26 1111.70 527.44 1039.67 630.13 1188.25 665.23
00002489 00000137 961.92 161.46 445.98 641.02 1064.11 395.76 1256.99 434.92 1111.63 527.04 1040.47 630.01 1189.20 664.76
00002490 00000138 962.87 160.44 444.91 641.20 1065.51 395.87 1258.15 435.27 1113.71 526.93 1041.12 628.93 1190.30 663.92
00002491 00000139 962.30 163.82 448.97 635.97 1069.16 396.38 1261.97 439.45 1120.62 525.35 1044.29 625.96 1195.49 662.29
00002492 00000140 962.50 165.91 449.45 632.63 1069.49 396.36 1262.45 439.80 1120.72 525.62 1044.25 625.46 1195.35 662.15
00002493 00000141 962.56 163.99 450.54 634.08 1070.08 395.01 1262.74 439.57 1120.18 525.73 1045.00 624.47 1195.13 662.07
00002494 00000142 963.35 165.79 449.77 631.19 1069.71 395.20 1262.99 438.41 1120.26 525.24 1045.10 624.88 1195.27 661.42
00002495 00000143 963.53 167.35 450.45 629.02 1070.06 395.86 1264.24 438.78 1120.46 523.90 1045.20 624.92 1195.42 661.15
00002496 00000144 963.46 169.96 450.71 627.42 1070.49 396.44 1264.81 439.02 1121.27 523.84 1045.09 624.60 1195.86 660.62
00002497 00000145 964.42 173.05 449.99 624.81 1070.12 397.04 1265.37 439.04 1121.46 524.51 1044.80 625.48 1196.84 661.05
00002498 00000146 964.10 170.80 449.77 627.51 1071.93 399.56 1266.80 444.14 1123.81 525.53 1046.02 625.52 1200.14 662.99
00002499 00000147 966.21 162.43 445.06 636.40 1070.92 400.16 1262.18 441.66 1119.98 527.06 1046.84 626.67 1197.91 663.03
00002500 00000148 964.73 167.46 448.94 631.48 1074.06 401.66 1269.27 448.32 1127.00 527.77 1048.15 626.13 1203.80 664.97
00002501 00000149 965.73 172.15 448.94 626.27 1074.49 402.75 1269.78 447.95 1126.11 528.81 1048.71 627.59 1202.87 665.55
00002502 00000150 965.85 171.14 449.95 627.77 1073.96 401.80 1269.07 446.59 1125.07 528.22 1048.16 627.69 1201.45 665.37
00002503 00000151 966.64 170.52 449.94 627.50 1073.91 399.12 1268.82 444.04 1124.24 527.11 1048.42 626.91 1199.25 664.76
00002504 00000152 966.86 170.98 449.69 627.40 1074.02 398.72 1268.55 442.93 1124.49 526.48 1048.25 626.83 1199.25 664.18
00002505 00000153 967.55 172.82 448.83 625.00 1073.78 398.64 1268.48 442.31 1124.02 526.57 1048.26 626.81 1199.22 663.72
00002506 00000154 967.63 173.63 449.03 624.40 1073.58 398.64 1268.53 441.75 1124.31 526.85 1048.40 627.23 1200.19 663.68
00002507 00000155 968.05 172.52 448.88 625.23 1074.04 398.57 1268.99 442.52 1124.25 527.22 1048.65 627.12 1200.21 664.22
00002508 00000156 968.78 175.06 447.88 622.53 1074.07 399.49 1269.68 442.57 1124.49 527.97 1049.09 627.99 1201.04 664.40
00002509 00000157 967.46 173.52 449.43 625.75 1074.15 399.94 1270.06 443.60 1125.05 528.95 1048.86 628.82 1201.36 665.62
00002510 00000158 967.36 174.26 449.67 625.73 1074.43 400.88 1269.80 444.90 1124.80 530.04 1048.69 629.05 1201.35 666.10
00002511 00000159 966.88 173.74 450.33 627.50 1074.60 401.49 1269.53 445.94 1125.20 529.97 1048.40 629.71 1201.45 667.08
00002512 00000160 966.76 173.57 450.12 627.07 1075.00 402.22 1268.92 446.88 1125.07 530.23 1048.86 629.00 1200.40 666.53
00002513 00000161 967.00 174.35 450.08 626.59 1075.36 401.41 1268.64 446.41 1124.84 530.30 1048.86 628.03 1200.09 665.89
00002514 00000162 967.69 175.80 449.73 623.82 1074.30 401.11 1267.93 444.50 1123.87 529.32 1048.84 628.14 1198.90 664.87
00002515 00000163 968.12 174.28 449.03 623.58 1074.82 399.89 1268.83 443.36 1124.64 527.92 1049.50 627.36 1198.67 664.16
