Video ID: 	3q6oyqhNed8
H: 	1080
W: 	1920
FPS: 	24.0

FRAME INDEX X0 Y0 W H [Landmarks (5 Points)]

00009486 00000000 612.10 241.44 380.27 539.19 679.68 464.99 841.76 430.64 752.18 534.81 728.79 649.42 868.97 621.38
00009487 00000001 614.79 243.04 383.53 542.71 683.83 462.62 848.54 425.14 760.25 531.39 736.36 649.42 879.48 618.61
00009488 DELETE   626.04 248.22 387.61 541.07 698.15 456.06 858.93 429.40 772.43 522.19 747.36 639.33 886.18 617.92
00009489 DELETE   632.91 241.53 387.80 545.01 709.38 456.45 871.09 423.46 788.87 516.75 759.07 635.79 903.95 609.70
00009490 00000004 643.49 237.18 382.85 547.60 721.62 449.80 883.99 416.68 802.25 513.16 770.60 632.32 916.35 606.10
00009491 00000005 652.20 227.06 378.79 551.62 734.11 445.16 893.36 410.98 816.40 503.60 779.03 624.66 924.23 597.34
00009492 00000006 660.82 220.35 377.47 558.79 744.43 441.21 900.93 406.23 826.93 501.15 788.65 623.02 933.01 594.73
00009493 00000007 669.03 220.30 374.05 557.68 753.46 438.55 912.81 403.52 837.64 498.72 793.80 621.65 941.75 593.06
00009494 00000008 676.07 215.29 370.87 559.84 758.79 437.80 920.32 401.16 844.64 494.46 799.81 620.82 949.91 590.55
00009495 00000009 680.83 218.49 372.58 554.26 764.81 435.63 927.14 401.20 854.18 494.50 805.92 619.09 955.88 590.04
00009496 00000010 683.94 217.96 370.99 552.61 767.26 435.50 929.17 402.37 856.23 495.55 809.15 619.13 956.70 591.10
00009497 00000011 685.97 216.70 369.58 550.89 769.27 432.09 933.21 401.21 858.22 494.76 809.11 617.25 957.45 590.95
00009498 00000012 685.00 214.44 369.74 549.30 768.34 429.58 934.05 400.58 856.86 494.26 807.31 615.96 954.80 591.45
00009499 00000013 685.04 211.54 368.79 548.56 768.36 425.94 936.58 398.81 854.82 491.59 803.85 611.53 953.91 588.47
00009500 00000014 684.71 202.08 371.27 549.68 771.30 418.14 942.14 400.80 853.89 486.19 798.86 601.71 953.09 588.20
00009501 00000015 687.25 201.83 371.07 546.58 775.51 419.58 945.57 406.66 855.12 485.22 798.54 596.46 955.48 586.33
00009502 00000016 691.61 203.24 369.84 546.62 780.08 415.06 948.73 404.06 859.15 482.73 802.14 594.26 957.65 586.25
00009503 DELETE   695.15 193.43 370.37 552.75 787.74 406.55 954.43 403.67 866.85 478.54 806.05 588.01 957.91 587.32
00009504 00000018 699.08 192.26 369.17 552.91 792.18 400.55 957.34 398.51 873.88 471.24 810.76 582.76 961.30 583.17
00009505 00000019 699.98 185.54 371.67 554.56 796.53 392.84 961.35 397.01 878.56 466.74 817.48 578.45 967.07 581.38
00009506 00000020 705.44 183.06 369.69 549.46 798.49 391.48 968.31 396.30 881.91 463.28 817.12 575.72 971.34 579.51
00009507 00000021 712.61 184.64 368.86 540.74 805.16 390.36 973.74 396.63 886.00 461.57 821.28 569.98 973.18 575.39
00009508 00000022 716.39 185.17 369.76 539.95 812.01 387.05 977.73 395.48 892.40 461.46 826.77 567.97 972.61 575.40
00009509 00000023 719.71 186.72 369.74 542.94 816.11 385.81 984.37 396.69 896.49 461.52 826.13 568.11 978.43 577.56
00009510 00000024 721.93 185.39 368.48 545.15 819.80 387.08 986.12 399.36 899.11 463.33 828.10 568.44 979.50 579.24
00009511 00000025 722.92 187.37 367.19 545.08 822.07 387.61 990.29 403.78 899.96 465.44 826.95 569.85 978.52 583.97
00009512 00000026 722.44 188.07 366.53 548.27 823.14 390.74 991.43 410.22 899.76 471.21 825.02 573.18 976.10 589.86
00009513 00000027 722.38 189.84 366.94 551.87 824.50 394.09 995.55 414.91 902.30 476.10 824.05 577.90 976.37 595.79
00009514 00000028 724.54 191.06 368.34 557.21 829.16 395.48 1001.73 418.70 906.89 479.62 824.69 581.04 978.38 601.02
00009515 00000029 725.72 195.12 369.06 559.68 834.74 397.66 1008.03 423.03 913.20 483.88 826.70 585.43 980.21 607.47
00009516 00000030 734.05 198.39 368.63 562.53 841.82 399.95 1016.82 425.69 920.26 485.02 832.61 589.16 989.44 611.58
00009517 DELETE   739.26 205.44 369.98 554.66 847.75 409.29 1019.79 434.88 923.05 485.70 839.20 591.10 994.24 612.91
00009518 DELETE   748.63 210.80 366.78 550.02 856.08 412.30 1025.10 438.79 928.04 486.23 846.04 592.26 997.91 615.31
00009519 00000033 751.29 210.62 368.89 553.70 861.36 409.02 1031.50 438.32 933.32 483.25 846.87 591.01 999.30 616.61
00009520 00000034 757.68 206.60 368.71 557.55 868.34 403.70 1036.38 440.68 938.71 479.33 847.31 585.43 997.54 617.94
00009521 00000035 760.45 204.04 371.00 555.28 870.04 403.63 1038.77 442.02 940.83 476.86 849.69 582.85 998.57 616.68
00009522 00000036 762.11 206.58 371.24 546.89 874.78 402.14 1038.82 441.92 944.90 474.54 852.60 579.40 994.32 614.72
00009523 00000037 747.33 213.80 390.91 540.85 878.43 406.44 1037.46 437.71 946.00 477.77 861.65 582.75 989.85 609.06
00009524 00000038 751.99 199.67 387.89 550.83 886.37 402.91 1044.87 439.17 955.16 480.47 864.76 578.88 992.39 609.72
00009525 00000039 750.89 198.77 388.55 558.48 888.13 403.44 1047.10 439.67 959.28 482.23 865.78 585.55 991.06 616.60
00009526 00000040 752.25 198.26 387.40 568.65 889.72 404.96 1051.91 441.81 964.78 486.51 868.83 591.40 1001.84 622.98
00009527 00000041 762.86 206.01 375.32 562.99 886.37 403.01 1054.84 440.65 968.42 477.41 868.34 591.57 1014.52 625.11
00009528 00000042 763.14 208.00 373.56 563.47 884.78 405.18 1054.90 442.03 967.58 481.87 867.11 594.90 1015.32 627.90
00009529 00000043 762.33 209.05 374.32 561.76 883.40 405.93 1054.82 441.75 966.41 485.43 866.93 595.72 1016.13 627.71
00009530 00000044 761.42 209.33 374.23 561.15 880.13 406.60 1053.00 441.10 962.83 487.87 865.17 597.31 1015.10 628.10
00009531 00000045 759.87 209.54 374.73 560.72 877.59 405.77 1050.82 440.62 959.52 486.93 861.87 595.60 1013.31 626.58
00009532 00000046 758.39 210.64 373.81 559.57 875.76 406.19 1047.36 441.11 955.61 489.61 858.57 595.25 1009.56 626.28
00009533 00000047 753.25 216.21 375.07 557.60 873.17 406.60 1040.21 435.53 952.06 485.50 857.14 598.97 1000.76 624.60
00009534 00000048 752.79 217.02 374.01 556.69 870.00 407.61 1038.34 435.64 948.83 486.48 854.57 599.78 999.37 624.75
00009535 00000049 752.38 215.84 373.77 559.14 868.41 408.62 1037.15 435.26 947.65 486.36 853.91 600.95 999.68 624.96
00009536 00000050 750.54 215.11 373.86 560.35 866.01 410.85 1034.26 435.65 944.84 487.49 853.04 601.97 999.45 624.36
00009537 00000051 748.04 215.59 374.21 563.29 862.07 411.85 1030.22 435.62 938.91 488.06 849.70 603.63 996.28 625.23
00009538 00000052 744.08 214.78 373.89 563.71 855.70 415.59 1023.45 438.10 929.96 489.33 845.86 603.75 992.61 624.02
00009539 00000053 738.97 218.70 374.67 560.57 848.92 420.86 1014.93 441.22 918.15 490.51 840.36 604.35 986.55 622.90
00009540 00000054 737.11 216.95 373.43 561.89 843.72 421.29 1008.88 439.92 909.71 492.93 837.19 605.04 980.88 622.16
00009541 00000055 736.44 220.54 370.04 556.83 838.85 419.65 1004.63 436.29 902.65 492.24 833.26 604.81 975.30 620.42
00009542 00000056 735.43 220.21 368.75 555.97 834.11 418.78 1001.07 434.03 898.10 493.72 831.15 602.83 974.11 617.13
00009543 00000057 732.09 221.55 366.34 549.62 829.06 419.26 997.18 431.99 897.59 494.30 829.26 601.68 972.74 613.75
00009544 00000058 722.74 201.24 369.70 568.91 826.02 419.93 997.66 437.40 902.91 495.34 824.24 599.85 978.61 615.00
00009545 00000059 721.09 204.73 367.43 559.66 820.49 421.57 992.81 434.85 899.09 494.56 824.74 599.52 978.79 611.04
00009546 00000060 716.44 205.24 367.96 557.46 813.22 424.07 987.40 432.45 894.64 496.03 823.44 601.46 978.36 608.92
00009547 00000061 710.29 205.32 370.70 558.17 804.97 425.77 981.37 430.63 887.50 499.46 819.75 604.53 975.58 608.92
00009548 00000062 702.61 205.67 374.17 552.61 796.67 427.82 971.02 428.45 880.13 498.80 816.60 604.33 971.31 605.06
00009549 00000063 696.48 205.24 374.85 554.72 790.11 427.85 959.33 423.20 871.97 498.01 814.21 607.87 963.46 604.45
00009550 00000064 699.08 219.04 359.20 542.87 777.77 431.46 945.86 412.14 856.23 492.77 806.49 614.55 956.03 599.22
00009551 00000065 693.99 219.13 361.19 547.49 769.77 433.07 934.46 410.81 844.55 492.93 797.16 615.62 946.18 598.06
00009552 00000066 685.84 217.60 364.52 549.12 763.82 433.70 922.82 409.97 836.88 492.98 791.97 614.54 937.12 596.05
00009553 00000067 675.97 213.93 370.57 550.13 755.34 433.39 918.42 414.47 830.19 496.82 784.61 615.43 928.77 600.45
00009554 00000068 671.47 215.08 372.54 546.56 751.30 433.49 916.78 411.26 829.69 495.33 783.27 614.73 930.47 596.77
00009555 00000069 668.73 211.81 374.40 539.01 749.87 434.73 911.78 409.29 828.38 493.40 787.40 612.29 929.45 591.59
00009556 00000070 667.56 210.11 374.85 538.18 748.73 436.17 910.07 405.74 829.05 491.36 790.73 614.36 931.00 589.46
00009557 00000071 665.99 211.04 376.33 550.30 749.62 433.60 910.53 403.28 830.58 490.55 790.73 616.95 932.56 591.89
00009558 00000072 666.68 209.33 375.98 554.19 749.34 432.80 908.44 399.53 830.69 487.71 792.62 616.29 934.47 588.75
00009559 00000073 665.74 207.30 376.03 553.91 747.44 431.46 906.22 396.84 828.84 484.91 792.43 614.50 934.71 585.72
00009560 00000074 663.26 201.54 378.76 557.94 744.95 429.83 902.89 393.47 826.40 482.88 792.59 613.10 934.61 582.71
00009561 00000075 661.55 197.81 381.57 557.00 742.71 429.77 900.17 392.38 823.01 481.87 792.43 611.86 932.79 580.44
00009562 00000076 661.66 197.29 381.98 554.71 742.53 427.72 900.06 391.49 823.20 482.71 792.64 609.34 933.23 578.80
00009563 00000077 662.84 198.20 382.79 550.38 744.04 425.74 902.52 390.26 825.27 483.02 792.45 605.63 935.71 575.78
00009564 00000078 664.94 198.49 383.38 543.54 747.66 422.36 905.06 388.76 829.66 480.97 794.68 599.05 937.69 570.92
00009565 00000079 670.03 193.59 383.75 544.27 751.79 419.71 910.36 385.60 832.20 479.26 797.77 595.60 942.00 567.54
00009566 00000080 676.38 194.86 380.73 537.41 756.69 412.86 920.20 380.98 836.89 472.32 798.14 588.20 949.03 562.35
00009567 00000081 680.38 186.92 378.68 542.34 759.11 409.82 922.83 376.25 838.46 464.95 799.91 584.55 952.24 557.55
00009568 00000082 685.92 185.99 374.78 539.29 763.93 405.56 925.60 370.41 844.31 458.55 805.13 579.76 956.87 551.65
00009569 00000083 691.11 182.68 374.24 535.44 768.35 399.86 929.81 362.38 850.39 446.99 813.67 576.27 961.60 546.20
00009570 00000084 694.61 182.45 382.90 531.13 776.19 389.61 936.63 361.80 857.17 438.27 822.63 566.60 965.94 543.28
00009571 00000085 700.00 177.28 378.95 532.37 781.03 385.32 939.51 357.96 861.96 436.43 827.72 561.00 970.22 538.25
00009572 00000086 703.60 176.24 376.52 530.83 787.63 385.86 939.82 359.06 864.29 432.03 830.61 557.68 970.23 535.81
00009573 00000087 706.79 177.75 376.87 528.17 790.20 385.35 943.99 358.38 865.31 430.41 831.77 555.40 973.79 533.60
00009574 DELETE   708.09 174.35 375.26 530.48 791.31 383.61 946.36 357.44 866.92 429.43 832.07 553.68 974.17 532.81
00009575 00000089 708.12 170.03 377.19 533.36 792.49 383.54 947.77 356.64 868.49 428.81 832.93 552.48 974.69 531.29
00009576 00000090 708.78 170.79 376.70 532.68 792.86 384.33 947.75 357.09 868.37 429.17 833.16 552.85 975.22 531.51
00009577 00000091 708.61 169.94 376.96 532.88 792.82 384.63 947.50 356.13 868.67 428.96 833.47 552.63 975.58 530.50
00009578 DELETE   699.89 157.60 381.06 540.56 784.24 388.67 947.26 352.01 864.58 430.94 828.86 559.49 974.94 529.55
00009579 DELETE   697.08 158.23 382.93 539.38 781.01 388.83 943.40 349.70 862.78 433.13 829.75 561.90 974.12 529.90
00009580 00000094 691.87 163.48 383.70 536.08 775.77 390.10 937.38 345.52 858.69 433.51 829.60 566.29 972.07 529.50
00009581 00000095 686.23 162.92 385.68 539.56 769.57 389.13 930.67 344.31 853.52 434.36 827.52 569.18 968.31 532.17
00009582 00000096 689.09 176.07 381.32 527.51 766.71 389.34 924.27 341.92 852.67 430.84 826.30 567.42 969.33 527.46
00009583 00000097 683.58 174.05 383.74 529.34 760.29 393.06 917.24 342.78 844.85 431.43 820.01 568.21 963.94 525.84
00009584 00000098 677.97 179.22 384.30 527.21 755.77 395.85 910.42 343.69 838.36 434.30 813.24 568.54 957.43 525.21
00009585 00000099 672.70 178.81 383.22 536.36 751.43 394.47 904.47 345.15 833.23 438.09 806.08 569.09 950.15 529.27
00009586 00000100 665.66 177.12 388.52 542.12 744.32 396.85 897.08 347.83 827.07 442.67 801.80 573.46 944.24 534.32
00009587 00000101 659.23 182.63 391.51 539.89 739.64 399.94 892.86 352.39 821.85 447.06 795.72 575.01 939.09 537.37
00009588 00000102 655.66 183.10 391.98 536.48 736.61 399.59 891.75 352.96 819.61 447.25 791.28 573.17 935.19 536.15
00009589 00000103 654.32 180.87 391.54 535.86 735.55 396.38 891.47 350.80 817.77 443.34 788.06 569.38 933.15 532.86
00009590 00000104 657.24 178.41 387.76 534.68 737.97 392.64 892.66 348.57 819.27 438.65 787.35 565.33 932.09 530.63
00009591 00000105 661.24 177.63 384.14 532.44 741.30 390.27 895.71 348.17 821.26 436.96 788.05 562.30 933.33 529.08
00009592 00000106 666.10 178.07 381.14 529.64 744.72 388.24 897.95 348.06 822.64 436.73 788.52 559.54 933.81 528.17
00009593 00000107 672.50 177.83 378.55 527.82 749.17 387.85 903.44 347.74 825.69 434.94 792.15 559.84 936.40 528.65
00009594 00000108 679.59 177.06 375.35 529.35 755.11 385.80 909.82 347.71 831.56 434.75 797.42 559.08 942.25 529.30
00009595 00000109 686.86 180.03 372.59 535.63 762.57 380.44 921.65 345.92 841.32 434.31 804.28 562.79 951.31 535.65
00009596 00000110 692.89 178.86 369.93 539.51 768.23 378.13 928.52 345.12 847.29 430.14 809.30 564.62 955.57 538.73
00009597 00000111 697.15 173.51 367.88 535.82 773.19 375.37 937.56 345.11 854.39 428.42 814.48 562.94 960.05 539.10
00009598 DELETE   702.55 178.26 364.32 521.04 779.35 378.07 943.16 350.79 861.73 433.63 819.95 560.18 964.16 538.35
00009599 DELETE   707.41 181.38 366.05 517.36 793.84 382.27 951.87 370.65 870.68 432.45 825.12 550.89 964.80 542.47
00009600 00000114 712.16 180.18 365.16 526.07 801.43 384.09 960.48 374.47 880.00 437.47 831.40 555.14 975.28 548.26
00009601 DELETE   719.58 176.06 368.17 535.05 809.09 387.28 971.15 379.77 888.47 443.20 835.17 556.26 984.57 551.27
00009602 00000116 726.90 174.59 369.06 538.52 817.14 389.32 978.65 383.39 896.40 447.31 841.14 556.58 990.43 553.03
00009603 00000117 733.40 178.46 370.94 541.10 827.84 387.17 990.07 387.83 908.17 449.27 845.35 557.79 997.88 559.41
00009604 00000118 737.72 175.27 371.25 555.07 837.13 385.84 998.97 391.79 919.10 455.18 849.03 562.20 1003.38 568.16
00009605 00000119 743.91 179.03 371.29 556.38 849.55 386.50 1009.00 396.67 933.77 461.85 857.66 566.82 1009.57 576.18
00009606 00000120 748.18 178.63 373.64 558.09 859.38 388.11 1018.20 401.26 943.87 465.34 864.47 569.55 1013.00 581.20
00009607 00000121 752.26 177.92 374.58 558.55 864.63 386.43 1025.03 400.32 949.81 465.57 870.08 569.98 1017.41 582.43
00009608 00000122 754.12 180.05 375.71 559.60 866.97 386.44 1028.57 401.17 952.51 468.29 870.99 571.63 1019.93 585.03
00009609 00000123 756.28 180.21 375.88 561.47 869.32 387.09 1030.54 401.96 953.97 471.21 872.55 572.62 1020.49 586.16
00009610 00000124 757.56 179.92 376.01 566.53 870.55 387.45 1033.21 403.00 954.98 472.24 872.42 574.10 1022.30 588.24
00009611 00000125 757.69 179.62 376.40 566.78 870.52 388.25 1033.67 403.88 954.74 472.85 872.15 574.35 1022.91 588.50
00009612 00000126 758.49 178.40 375.96 565.67 870.17 387.74 1033.20 403.04 953.44 472.35 871.83 572.49 1023.16 586.40
00009613 00000127 759.78 178.98 374.50 558.29 868.78 386.80 1033.07 400.79 952.54 469.49 870.98 569.59 1023.07 582.68
00009614 00000128 762.63 176.18 372.02 560.33 870.62 381.10 1034.78 395.03 953.41 464.48 871.41 566.70 1022.21 579.99
00009615 00000129 763.97 174.93 371.80 562.76 872.45 377.54 1035.52 392.05 953.90 460.98 872.95 564.71 1022.67 578.22
00009616 00000130 765.12 172.97 371.91 566.00 874.34 376.19 1038.02 390.72 956.50 461.07 874.37 564.52 1024.07 578.06
00009617 00000131 762.54 171.60 378.98 558.31 870.82 371.02 1037.25 393.01 952.53 461.91 876.68 559.32 1021.69 577.86
00009618 00000132 765.19 172.24 378.02 559.11 872.58 372.03 1039.20 394.12 953.59 463.05 877.58 560.12 1025.09 578.54
00009619 00000133 766.51 172.85 376.80 557.99 873.42 373.39 1040.65 395.26 954.14 463.50 877.60 560.28 1027.53 578.42
00009620 00000134 767.42 173.34 377.51 558.01 873.71 374.35 1041.63 395.71 954.52 463.48 878.16 561.41 1028.55 579.05
00009621 00000135 767.60 172.64 377.17 559.63 875.12 375.91 1041.86 397.54 955.58 465.29 878.44 563.33 1028.87 581.27
00009622 00000136 768.79 173.13 377.03 559.94 876.64 376.00 1043.52 398.20 956.40 465.61 879.23 565.17 1028.65 583.61
00009623 00000137 768.28 172.30 376.83 558.19 876.83 375.62 1043.11 397.33 957.57 462.61 880.91 566.48 1024.85 584.90
00009624 00000138 768.78 171.16 374.11 548.86 877.31 373.33 1045.47 395.95 959.74 461.14 883.19 564.18 1022.29 583.50
00009625 00000139 770.34 172.30 374.65 549.59 876.18 369.89 1046.23 389.15 959.02 454.67 883.88 563.49 1024.81 580.14
00009626 00000140 770.12 170.75 376.13 566.36 873.84 370.30 1044.05 384.91 956.68 454.02 882.10 566.80 1030.12 579.20
00009627 00000141 769.58 171.44 376.26 572.33 872.94 372.85 1043.63 387.85 954.93 459.33 880.17 569.53 1032.80 581.88
00009628 00000142 767.68 176.01 374.48 563.48 872.44 381.15 1039.17 396.40 954.95 466.26 881.41 568.46 1034.89 580.72
00009629 00000143 770.85 182.45 365.44 556.45 874.67 398.66 1031.58 403.87 955.66 469.94 882.37 571.52 1032.61 577.80
00009630 00000144 767.43 184.87 366.94 554.20 870.19 402.72 1028.21 405.55 952.00 473.80 880.35 575.70 1030.99 579.70
00009631 00000145 761.44 186.66 373.54 556.38 861.56 403.60 1024.85 401.02 946.14 473.75 876.15 580.22 1029.89 579.85
00009632 00000146 757.24 185.83 373.47 567.25 851.91 403.44 1019.07 396.99 937.83 476.32 871.64 587.64 1027.82 583.73
00009633 00000147 752.12 188.78 372.90 564.40 841.86 406.10 1009.68 393.50 927.88 479.75 867.22 592.70 1022.19 583.51
00009634 00000148 746.01 190.25 375.64 555.44 834.01 409.42 1002.52 395.61 918.11 484.11 861.06 594.22 1013.56 583.72
00009635 00000149 741.88 193.49 377.55 553.81 828.82 413.93 996.09 398.13 911.97 487.01 859.12 597.22 1010.12 584.51
00009636 00000150 737.08 196.82 378.30 554.87 824.16 416.16 991.23 401.94 908.66 491.21 854.97 600.00 1005.45 588.24
00009637 00000151 733.10 197.41 379.85 556.38 819.86 418.79 986.23 402.84 903.75 491.53 852.37 602.45 1002.23 589.07
00009638 00000152 731.07 196.89 380.29 557.19 818.42 418.93 983.95 401.96 901.98 491.90 851.98 603.80 1000.37 589.67
00009639 00000153 729.19 197.96 381.76 554.59 816.63 419.86 980.21 401.16 899.60 490.98 852.36 603.24 998.86 587.61
00009640 00000154 727.53 195.65 381.67 557.20 813.87 419.40 977.57 398.67 897.58 489.69 851.63 603.04 998.83 585.51
00009641 00000155 725.11 193.78 381.26 560.87 809.91 418.66 974.01 395.50 893.94 486.98 849.46 605.00 995.40 585.90
00009642 00000156 722.76 192.28 381.83 559.92 808.70 416.60 970.42 393.34 892.49 483.18 850.80 601.93 994.34 582.57
00009643 00000157 720.44 191.37 380.63 558.43 805.75 415.06 965.33 391.45 889.45 478.94 849.57 599.06 991.91 579.35
00009644 00000158 717.72 191.64 381.87 557.70 801.07 415.89 962.68 390.67 885.07 477.67 847.40 599.38 992.29 577.94
00009645 00000159 713.34 194.15 384.37 554.41 796.48 416.21 960.37 392.49 880.89 479.73 843.05 597.96 991.18 577.21
00009646 00000160 706.97 195.29 387.12 551.47 793.23 414.62 957.11 392.72 879.31 482.04 841.09 596.81 989.18 577.09
00009647 00000161 703.66 193.94 384.27 550.83 790.45 413.76 952.96 392.35 876.24 481.00 838.48 595.45 985.55 576.06
00009648 00000162 701.62 192.60 382.86 547.11 788.06 409.13 947.71 388.67 873.38 476.99 836.73 592.21 981.46 573.80
00009649 00000163 699.83 189.69 379.87 548.97 784.92 405.52 942.56 385.49 867.65 471.47 831.66 589.05 975.95 571.30
00009650 00000164 697.55 184.67 379.56 554.06 782.62 401.54 938.43 381.33 864.00 466.96 827.89 587.19 970.99 569.55
00009651 00000165 693.62 181.98 379.59 554.86 776.72 396.81 935.70 376.47 858.44 460.95 822.02 584.78 966.11 567.51
00009652 00000166 692.23 187.32 376.10 550.66 773.36 397.84 939.91 368.79 857.82 459.63 814.13 584.74 966.10 561.76
00009653 00000167 691.93 185.61 374.20 549.84 771.94 395.20 937.54 364.70 856.95 455.82 813.55 582.70 964.68 558.71
00009654 00000168 690.70 182.70 374.11 542.11 771.77 392.59 934.32 361.10 856.02 448.36 813.15 575.43 961.65 550.52
00009655 00000169 691.36 175.28 374.27 544.33 771.82 388.12 934.64 357.67 855.20 443.87 813.29 570.07 962.01 545.43
