Video ID: 	VNw1LEJ08wo
H: 	1080
W: 	1920
FPS: 	25.0

FRAME INDEX X0 Y0 W H [Landmarks (5 Points)]

00005251 00000000 1182.21 212.55 402.44 586.77 1293.58 458.76 1472.08 486.35 1374.10 585.80 1285.67 661.58 1416.85 686.16
00005252 DELETE   1175.03 207.72 399.92 590.55 1282.19 455.30 1462.72 484.46 1363.33 583.66 1273.35 659.96 1405.02 685.76
00005253 DELETE   1164.29 211.79 396.67 579.63 1268.64 448.77 1443.94 478.10 1337.77 584.38 1262.96 660.89 1394.40 687.33
00005254 DELETE   1156.45 204.42 399.08 590.99 1258.29 443.49 1436.31 475.58 1323.82 579.18 1246.98 655.76 1384.43 684.54
00005255 00000004 1147.78 200.94 404.86 596.75 1247.08 442.10 1433.00 476.65 1312.72 575.37 1229.34 650.00 1380.70 680.13
00005256 DELETE   1140.28 202.18 405.47 591.35 1239.96 440.01 1425.38 476.63 1304.84 571.67 1219.71 647.10 1369.08 679.13
00005257 DELETE   1131.55 205.69 405.87 581.49 1229.70 441.48 1413.79 474.04 1295.70 569.83 1214.09 647.42 1356.71 676.55
00005258 00000007 1120.14 200.26 407.62 584.70 1217.68 438.40 1401.99 466.93 1287.16 566.06 1209.75 648.00 1347.74 673.38
00005259 DELETE   1111.35 199.79 402.40 581.78 1203.84 431.27 1389.84 456.01 1273.02 558.07 1199.01 642.05 1340.33 664.47
00005260 00000009 1096.31 192.04 403.07 586.32 1179.86 432.35 1368.97 449.08 1249.73 560.71 1182.54 644.04 1330.42 657.93
00005261 00000010 1094.83 190.62 395.62 587.98 1168.95 425.61 1355.56 439.22 1232.97 550.83 1173.66 640.39 1319.92 652.42
00005262 00000011 1091.44 189.83 394.11 581.46 1161.36 419.02 1345.78 429.61 1224.43 542.26 1169.57 634.25 1315.88 643.97
00005263 00000012 1084.46 188.97 401.15 586.57 1162.29 417.84 1338.09 423.56 1221.85 540.13 1174.84 632.88 1318.97 638.51
00005264 DELETE   1087.84 190.52 399.50 586.54 1163.24 431.13 1349.77 432.68 1240.33 556.55 1185.55 650.76 1327.96 653.36
00005265 DELETE   1091.54 196.03 403.74 587.42 1176.87 443.72 1367.33 441.00 1264.22 567.22 1204.72 665.07 1345.99 663.37
00005266 00000015 1097.25 205.43 408.23 581.42 1190.93 452.99 1381.26 446.78 1283.22 578.14 1223.99 672.77 1365.48 667.39
00005267 00000016 1107.49 209.17 409.26 586.23 1208.96 446.58 1394.97 450.06 1302.18 570.06 1236.91 665.01 1373.26 669.97
00005268 00000017 1113.49 210.44 406.09 583.31 1215.79 443.26 1399.07 448.03 1307.62 567.15 1241.49 661.06 1377.62 667.07
00005269 00000018 1117.18 208.25 401.93 582.67 1216.63 437.32 1400.12 449.11 1303.40 563.30 1232.07 655.24 1371.67 667.28
00005270 00000019 1116.75 204.64 401.08 579.75 1211.64 430.62 1397.61 449.76 1291.27 561.29 1218.47 650.04 1359.74 668.02
00005271 00000020 1115.96 197.40 398.67 582.80 1205.29 425.81 1391.37 447.94 1276.80 557.03 1209.07 642.69 1353.94 662.67
00005272 00000021 1113.72 194.57 398.23 594.26 1205.10 421.78 1389.20 444.45 1271.81 550.33 1204.07 636.70 1353.39 656.90
00005273 00000022 1112.69 193.13 397.78 602.91 1205.16 418.71 1388.77 439.69 1271.98 544.30 1204.40 636.66 1354.27 655.57
00005274 00000023 1107.23 194.76 401.86 586.94 1196.34 425.27 1386.19 436.62 1272.93 548.79 1204.35 637.83 1358.60 647.19
00005275 00000024 1104.44 192.54 401.17 584.53 1191.39 428.31 1382.00 439.02 1268.60 552.54 1201.04 639.40 1355.25 648.29
00005276 00000025 1100.33 197.21 401.32 584.26 1183.59 433.58 1372.48 443.83 1258.62 559.71 1193.56 646.63 1344.44 655.30
00005277 00000026 1097.92 199.38 399.88 581.30 1176.54 436.87 1364.44 448.84 1246.72 567.43 1184.27 650.11 1335.09 660.11
00005278 00000027 1098.08 197.49 394.75 578.35 1169.25 433.25 1353.93 447.85 1231.15 563.36 1173.86 645.72 1322.50 658.34
00005279 00000028 1099.45 189.13 389.34 580.15 1164.08 425.27 1347.41 440.81 1219.39 554.35 1167.69 638.48 1316.58 652.08
00005280 00000029 1099.50 187.63 388.55 577.43 1162.90 419.83 1344.68 434.47 1216.11 544.33 1166.24 632.71 1313.32 645.66
00005281 00000030 1099.70 186.33 387.05 575.49 1161.76 415.49 1341.33 427.31 1214.27 537.63 1167.21 627.71 1312.08 638.78
00005282 00000031 1095.70 185.27 393.20 577.49 1165.42 407.38 1335.34 416.94 1211.39 528.53 1169.38 619.50 1308.41 628.69
00005283 00000032 1094.68 183.02 394.83 579.16 1163.45 406.20 1332.01 415.88 1207.49 526.88 1167.15 618.61 1305.02 627.87
00005284 00000033 1094.25 184.44 394.08 576.67 1161.93 406.33 1330.34 417.01 1204.43 527.33 1165.18 619.41 1301.84 629.61
00005285 00000034 1094.17 184.77 394.05 575.51 1161.17 406.64 1330.03 417.54 1203.31 527.41 1164.18 619.69 1301.08 630.05
00005286 00000035 1094.16 183.66 393.68 575.31 1160.55 406.70 1328.75 417.26 1202.11 526.42 1164.02 619.68 1300.41 629.73
00005287 00000036 1092.93 182.57 394.06 574.07 1158.56 406.28 1323.94 415.61 1199.20 524.11 1164.08 618.88 1297.97 627.73
00005288 00000037 1087.77 181.47 396.55 572.41 1154.41 405.86 1320.35 413.24 1195.75 520.66 1160.94 617.78 1295.59 624.76
00005289 00000038 1084.35 179.66 395.23 572.03 1146.64 407.37 1312.14 414.11 1184.23 520.08 1154.79 618.49 1288.86 624.25
00005290 DELETE   1082.20 179.01 391.36 572.44 1141.99 412.81 1304.25 419.96 1177.01 521.93 1151.30 620.13 1281.75 625.99
00005291 00000040 1080.78 171.48 386.86 580.98 1134.17 415.83 1294.67 422.89 1166.22 522.71 1143.88 622.65 1272.33 627.94
00005292 00000041 1077.86 170.56 383.63 581.71 1125.70 416.52 1283.24 425.31 1151.46 525.28 1134.08 624.20 1260.30 630.33
00005293 00000042 1073.52 163.90 381.79 594.57 1108.63 415.66 1271.64 423.05 1142.42 530.51 1117.59 634.19 1242.10 641.04
00005294 00000043 1064.93 170.71 387.48 592.58 1100.73 421.03 1257.28 427.46 1128.11 530.10 1110.88 635.64 1226.09 641.50
00005295 00000044 1053.57 177.09 392.99 592.03 1092.87 426.69 1247.50 432.82 1118.23 533.44 1106.31 639.88 1216.29 645.19
00005296 00000045 1045.08 176.82 394.45 589.70 1083.29 431.00 1235.00 435.76 1107.18 537.26 1099.02 643.41 1207.02 646.84
00005297 DELETE   1038.43 173.41 389.58 589.48 1077.76 432.97 1227.86 441.03 1100.41 539.23 1092.01 642.18 1198.78 648.23
00005298 DELETE   1035.72 177.27 384.26 585.00 1069.54 440.66 1221.47 447.63 1089.94 541.41 1082.81 648.08 1192.16 653.62
00005299 00000048 1028.29 175.44 387.05 588.16 1063.20 444.80 1217.81 450.04 1082.25 545.01 1078.02 650.16 1189.41 654.52
00005300 00000049 1026.10 182.46 389.44 583.95 1061.33 446.94 1216.20 450.33 1080.61 550.43 1078.05 654.19 1189.54 657.16
00005301 00000050 1027.03 185.87 387.81 581.30 1061.21 447.99 1215.68 449.97 1080.80 552.56 1079.11 656.16 1190.90 657.88
00005302 00000051 1026.81 186.58 388.83 582.97 1063.07 446.21 1216.37 450.19 1082.64 553.56 1080.96 654.50 1192.50 657.54
00005303 00000052 1026.85 190.92 387.42 581.65 1062.96 445.44 1218.27 449.96 1084.55 555.45 1081.90 656.30 1193.42 659.65
00005304 00000053 1027.88 192.29 388.49 585.05 1063.47 445.45 1219.15 450.56 1083.64 555.66 1081.99 658.32 1192.66 661.90
00005305 00000054 1029.51 194.61 388.07 593.65 1065.24 445.14 1220.11 450.35 1083.59 554.75 1083.89 662.16 1191.95 665.58
00005306 00000055 1029.01 196.13 390.01 600.20 1067.89 446.96 1222.40 449.82 1087.30 554.32 1089.52 667.69 1194.34 669.08
00005307 00000056 1028.93 189.16 389.03 603.38 1056.26 442.56 1223.40 442.94 1083.64 562.09 1084.13 669.55 1202.84 671.31
00005308 00000057 1029.41 190.80 393.01 596.37 1056.68 441.78 1227.25 443.74 1088.20 564.31 1083.60 664.47 1209.05 667.64
00005309 00000058 1031.08 192.32 393.71 593.71 1058.91 441.87 1229.00 443.39 1091.32 564.64 1087.07 662.15 1215.22 664.97
00005310 00000059 1031.33 192.50 397.18 599.17 1062.50 444.31 1232.24 443.90 1094.30 564.50 1090.46 666.11 1217.53 667.46
00005311 00000060 1030.48 196.17 397.92 599.97 1066.69 445.37 1236.50 447.40 1101.13 567.07 1093.15 665.98 1220.17 669.10
00005312 00000061 1030.29 196.06 395.46 598.43 1068.59 443.22 1239.48 450.57 1104.31 568.49 1091.70 662.90 1219.86 670.25
00005313 00000062 1028.72 195.42 393.49 598.55 1067.85 443.05 1240.54 452.14 1105.44 570.14 1089.98 662.45 1220.90 671.10
00005314 00000063 1027.08 192.91 394.14 599.97 1066.23 444.52 1240.62 451.61 1105.71 571.24 1089.32 664.19 1221.77 671.31
00005315 00000064 1022.77 192.17 396.66 600.95 1063.21 446.45 1239.60 450.13 1106.66 572.26 1088.67 666.77 1222.09 671.24
00005316 00000065 1021.26 193.96 394.78 597.85 1061.64 446.88 1238.83 449.49 1107.60 571.69 1088.37 668.16 1220.92 671.71
00005317 00000066 1018.66 206.64 387.37 581.63 1068.59 456.62 1231.38 461.12 1107.90 567.12 1085.24 660.74 1219.55 664.21
00005318 00000067 1019.13 201.77 395.03 587.66 1067.87 453.70 1238.19 456.61 1116.09 569.61 1090.78 664.59 1218.74 665.66
00005319 00000068 1019.06 201.62 395.55 588.22 1069.13 453.39 1238.67 455.70 1117.92 570.18 1094.00 665.16 1219.96 665.68
00005320 00000069 1019.48 202.26 396.69 586.53 1071.46 453.24 1240.26 454.97 1121.27 569.43 1098.06 663.16 1224.68 662.98
00005321 00000070 1019.85 196.09 397.27 590.85 1072.89 449.45 1240.15 450.86 1121.81 564.50 1099.16 657.76 1228.58 657.14
00005322 00000071 1020.59 191.22 396.50 591.45 1074.38 444.28 1239.00 445.86 1122.80 560.38 1102.20 652.74 1229.59 652.45
00005323 00000072 1022.82 190.26 395.41 592.55 1076.60 442.80 1239.35 444.47 1122.97 558.35 1104.71 651.75 1229.25 651.65
00005324 00000073 1025.50 187.17 396.05 597.79 1080.13 443.80 1241.12 445.21 1124.31 555.06 1108.44 651.67 1230.97 651.40
00005325 00000074 1030.08 187.79 393.67 595.34 1083.11 442.38 1242.80 444.26 1125.17 552.10 1109.99 650.84 1230.53 651.11
00005326 00000075 1035.06 189.84 391.36 587.88 1086.97 442.45 1247.56 445.33 1129.15 551.88 1111.68 648.31 1232.72 649.61
00005327 00000076 1039.77 188.87 391.56 589.83 1091.95 439.82 1253.88 443.96 1133.25 550.57 1115.70 646.18 1238.10 648.76
00005328 00000077 1049.28 181.87 389.71 592.36 1098.13 435.56 1263.09 442.62 1139.67 547.96 1117.66 642.94 1246.62 648.18
00005329 00000078 1061.43 176.13 382.93 587.25 1105.47 427.56 1275.96 437.91 1152.90 549.06 1121.96 638.89 1256.17 647.30
00005330 DELETE   1070.63 180.77 379.87 576.54 1115.65 417.76 1288.28 427.25 1164.64 539.60 1126.91 629.59 1262.17 637.84
00005331 DELETE   1074.25 182.21 384.11 565.53 1134.28 410.05 1300.98 420.24 1177.26 524.34 1143.51 617.37 1277.37 625.25
00005332 DELETE   1077.33 179.57 391.69 563.57 1148.95 402.65 1319.00 410.95 1197.44 514.97 1155.10 609.35 1292.33 616.87
00005333 00000082 1086.65 173.53 390.54 562.51 1160.94 399.31 1329.54 403.87 1212.63 509.55 1167.81 605.58 1303.40 610.71
00005334 00000083 1091.74 172.28 392.84 559.90 1168.82 398.95 1341.55 400.72 1225.88 504.00 1175.44 600.71 1315.71 603.75
00005335 00000084 1094.78 169.26 392.11 563.31 1173.86 398.26 1347.83 400.63 1233.61 503.07 1180.47 599.32 1322.92 602.72
00005336 00000085 1095.55 166.58 392.13 572.37 1175.84 398.51 1349.91 399.24 1236.91 502.68 1184.42 602.69 1326.12 604.58
00005337 00000086 1097.07 163.81 389.52 586.86 1176.49 394.13 1348.75 394.29 1234.95 500.63 1184.31 607.19 1323.00 608.50
00005338 00000087 1095.89 162.65 390.32 589.30 1175.29 392.93 1348.15 393.66 1233.41 498.68 1182.18 607.25 1320.74 609.02
00005339 00000088 1094.81 163.26 391.47 581.67 1173.36 394.25 1347.00 395.79 1233.37 500.06 1181.51 607.28 1316.40 610.05
00005340 00000089 1091.72 162.29 396.02 577.48 1171.35 397.19 1347.70 398.34 1235.43 500.87 1181.67 607.66 1319.76 609.63
00005341 00000090 1091.12 162.41 397.41 575.60 1171.16 397.32 1348.24 398.92 1235.97 500.67 1180.76 605.46 1321.09 607.69
00005342 00000091 1091.19 163.87 396.82 572.09 1172.07 398.77 1347.96 400.74 1236.28 502.08 1181.67 605.78 1320.58 608.42
00005343 00000092 1091.78 165.88 395.55 568.52 1172.95 400.38 1347.45 401.85 1235.98 504.37 1182.89 606.67 1320.44 609.02
00005344 00000093 1092.48 167.10 394.16 571.45 1173.84 399.86 1346.15 400.36 1234.91 503.54 1184.04 608.04 1317.87 609.84
00005345 00000094 1091.74 164.53 395.82 574.59 1172.49 400.99 1347.38 401.98 1235.55 505.07 1183.18 608.34 1322.28 610.24
00005346 00000095 1091.71 163.86 396.93 574.88 1173.92 398.70 1354.11 402.88 1239.74 506.08 1181.95 605.53 1328.85 609.63
00005347 00000096 1094.40 163.49 398.08 573.55 1186.45 399.03 1370.26 403.66 1260.83 507.74 1198.63 608.60 1342.16 612.94
00005348 00000097 1100.64 167.41 398.34 572.06 1200.85 401.72 1388.40 405.80 1282.18 510.75 1219.82 613.41 1362.43 617.48
00005349 00000098 1115.20 177.55 398.10 573.92 1223.31 397.48 1411.01 406.77 1312.66 514.06 1240.28 615.39 1384.23 623.78
00005350 00000099 1119.72 178.47 403.57 579.87 1241.28 403.81 1426.23 409.75 1340.40 521.78 1268.32 624.09 1405.48 628.96
00005351 00000100 1130.04 184.72 399.01 576.90 1256.55 408.52 1438.05 415.00 1356.51 528.15 1282.46 627.37 1416.66 632.83
00005352 00000101 1133.48 182.96 397.67 580.95 1262.99 411.78 1443.42 414.98 1365.93 531.57 1290.48 632.07 1424.71 634.51
00005353 00000102 1145.33 189.10 389.51 574.20 1261.32 410.11 1448.64 409.03 1369.81 532.12 1291.89 636.93 1419.37 635.10
00005354 00000103 1144.46 187.12 390.16 578.16 1260.53 408.92 1448.13 407.64 1368.94 529.98 1291.25 636.15 1419.25 634.12
00005355 00000104 1133.69 176.90 398.24 592.14 1262.11 407.19 1441.97 412.05 1362.26 527.55 1287.10 629.88 1423.61 633.34
00005356 00000105 1130.92 174.40 401.04 591.90 1253.75 405.26 1438.58 411.22 1354.85 524.18 1277.57 622.67 1424.59 627.07
00005357 00000106 1129.90 171.60 401.44 588.01 1251.04 404.21 1436.33 409.31 1353.74 520.36 1276.62 618.04 1424.60 621.72
00005358 00000107 1130.52 168.71 402.57 587.34 1252.33 403.13 1438.76 407.85 1357.23 518.75 1278.82 616.41 1427.79 619.60
00005359 00000108 1133.23 167.21 402.25 586.73 1254.67 403.41 1443.39 405.20 1363.04 517.39 1283.40 616.31 1435.05 616.98
00005360 00000109 1136.56 164.39 401.59 586.69 1258.80 402.90 1447.12 402.29 1368.64 515.95 1288.50 615.68 1439.51 614.26
00005361 00000110 1139.89 162.38 399.47 585.52 1261.14 402.07 1449.99 400.13 1372.47 511.84 1292.79 614.11 1443.38 611.54
00005362 00000111 1141.72 159.35 400.18 584.63 1263.38 398.27 1451.72 396.77 1375.37 507.42 1297.42 613.00 1442.87 610.78
00005363 00000112 1146.83 158.30 398.70 580.96 1270.42 396.07 1452.74 394.64 1378.57 502.48 1303.72 610.12 1440.22 608.17
00005364 00000113 1151.47 157.41 399.80 576.87 1275.69 393.08 1459.40 393.19 1384.79 500.34 1305.31 605.35 1446.15 604.67
00005365 00000114 1157.20 156.47 399.99 576.86 1283.46 391.30 1466.93 390.95 1392.87 500.43 1310.84 604.32 1451.99 603.81
00005366 00000115 1162.99 156.60 398.62 588.72 1290.90 389.08 1471.09 388.06 1399.25 497.27 1314.07 603.86 1458.19 603.06
CROP_BBOX: 785 0 1783 941
