Video ID: 	vIOYRC3Ukgg
H: 	1080
W: 	1920
FPS: 	25.0

FRAME INDEX X0 Y0 W H [Landmarks (5 Points)]

00007820 00000000 528.68 231.08 386.83 529.72 612.29 463.41 773.56 423.21 703.15 529.54 675.43 648.14 805.77 614.02
00007821 00000001 525.55 230.73 388.06 537.80 606.16 466.95 768.46 428.60 692.39 533.65 666.05 651.54 799.17 619.17
00007822 00000002 523.07 234.90 386.72 541.05 598.35 472.67 758.08 436.25 678.29 541.98 652.94 652.95 790.61 622.34
00007823 DELETE   515.03 240.53 387.42 543.51 588.27 479.00 748.65 445.80 666.82 552.33 641.84 658.36 783.06 630.74
00007824 DELETE   507.95 246.80 386.24 543.56 580.53 480.98 737.50 451.21 653.23 556.54 633.15 661.58 771.58 636.66
00007825 DELETE   493.64 250.71 391.97 540.64 571.34 479.88 729.09 455.62 647.07 558.35 620.86 661.03 759.48 640.88
00007826 00000006 489.10 247.30 388.89 543.53 557.96 479.67 719.13 453.12 630.83 554.25 608.73 663.30 750.09 641.37
00007827 00000007 482.80 237.00 387.39 548.46 546.86 472.98 712.21 439.98 617.66 553.87 598.70 666.63 737.52 638.74
00007828 00000008 479.07 232.30 386.58 539.99 539.18 465.90 704.94 436.40 609.29 549.41 589.20 657.97 725.54 633.15
00007829 00000009 477.31 232.16 385.67 539.05 538.35 463.72 703.23 435.34 606.92 545.58 588.37 657.03 719.23 633.17
00007830 00000010 476.21 229.57 385.65 534.08 538.15 462.06 702.83 434.90 607.36 545.44 587.13 650.82 718.29 628.05
00007831 00000011 476.91 227.45 383.12 530.22 538.37 457.25 704.69 431.65 608.08 542.94 581.53 645.67 717.38 624.59
00007832 00000012 476.51 223.88 382.03 535.12 538.76 452.66 704.86 426.61 606.80 533.52 580.71 641.78 715.57 620.61
00007833 00000013 479.36 220.29 376.11 533.47 540.02 449.72 704.86 434.82 607.43 524.71 583.36 634.49 708.35 620.92
00007834 00000014 473.81 216.01 373.99 526.51 538.58 447.81 703.18 431.25 610.17 519.75 581.74 626.42 709.68 611.47
00007835 00000015 459.81 214.42 379.26 521.68 539.56 444.21 701.51 426.41 610.51 525.21 575.65 619.79 705.36 606.40
00007836 00000016 453.34 215.00 379.33 517.56 532.04 444.41 695.91 425.31 605.80 525.45 570.39 619.99 701.29 605.18
00007837 00000017 444.44 212.56 384.17 517.99 523.14 444.12 690.02 424.23 598.29 521.35 563.75 617.51 698.85 601.26
00007838 00000018 440.62 209.63 384.59 521.48 515.14 440.80 682.47 421.36 589.90 515.71 555.73 614.95 692.30 599.16
00007839 00000019 434.18 205.77 386.37 524.00 507.82 438.20 675.43 416.68 582.67 511.79 552.12 614.01 689.54 596.32
00007840 00000020 425.32 204.21 393.19 522.53 500.98 435.20 671.44 411.18 577.30 507.75 546.34 612.25 686.24 592.42
00007841 00000021 417.98 200.98 396.94 528.20 497.12 428.21 665.83 403.84 573.71 502.99 544.80 608.83 684.34 588.54
00007842 00000022 411.43 192.96 395.38 535.96 488.03 421.64 654.72 396.71 563.18 494.24 537.69 604.45 676.06 583.64
00007843 00000023 410.16 182.29 393.86 529.32 475.41 417.76 639.83 387.65 543.37 494.62 521.16 602.28 657.68 577.00
00007844 00000024 403.90 181.75 386.46 523.42 462.86 410.31 626.72 382.85 527.86 490.20 509.30 597.75 643.77 574.82
00007845 00000025 392.80 185.74 388.21 523.66 459.29 415.63 619.33 390.62 521.94 494.76 498.51 591.64 632.97 571.69
00007846 00000026 387.83 183.98 387.80 525.87 452.10 415.97 611.32 393.85 511.96 492.93 490.66 592.63 623.22 574.76
00007847 00000027 378.74 184.04 386.93 528.59 441.41 415.31 601.15 395.75 502.02 491.75 479.70 593.91 611.39 578.05
00007848 00000028 374.32 189.02 386.97 525.70 435.92 415.12 593.87 395.50 494.21 493.68 474.79 595.48 602.10 579.58
00007849 00000029 365.79 186.40 389.34 537.90 428.65 414.28 581.42 392.74 486.15 492.55 473.17 601.27 592.29 584.24
00007850 00000030 360.35 189.12 390.82 538.29 423.48 419.90 573.30 394.20 478.87 493.94 470.85 609.38 586.38 588.95
00007851 00000031 358.07 191.04 389.18 538.09 420.21 426.32 567.77 398.96 474.59 499.67 467.19 612.56 584.46 590.48
00007852 00000032 356.76 187.66 393.95 537.38 414.45 436.28 564.53 404.48 465.14 508.17 466.34 619.02 584.15 591.60
00007853 00000033 353.55 192.02 395.68 536.33 411.39 438.54 558.72 408.94 463.52 514.89 466.32 623.21 578.54 597.42
00007854 00000034 353.40 196.95 396.22 535.28 409.76 442.26 558.10 412.94 463.88 519.28 467.47 626.60 580.64 600.87
00007855 00000035 359.42 200.59 391.34 539.57 414.16 447.63 559.85 418.28 465.10 519.48 470.34 630.49 581.67 604.56
00007856 00000036 365.43 207.46 389.19 536.05 418.11 449.66 564.15 421.54 468.55 523.18 474.61 633.73 585.18 608.56
00007857 00000037 370.98 211.61 388.64 538.35 421.52 455.23 567.77 426.42 471.90 526.34 476.07 638.66 585.71 612.83
00007858 00000038 375.90 219.34 384.76 535.30 426.40 459.99 576.22 432.66 477.39 530.45 478.49 643.19 589.51 618.65
00007859 00000039 381.63 221.95 382.22 544.26 430.60 464.72 582.59 442.13 481.26 539.50 478.88 647.68 595.38 627.22
00007860 00000040 384.61 228.78 383.99 541.75 434.35 468.68 588.48 447.31 486.98 542.10 480.59 650.16 598.86 631.06
00007861 00000041 390.55 237.64 382.33 538.88 439.72 478.66 596.09 455.07 494.32 549.27 485.34 657.87 606.41 637.02
00007862 00000042 398.91 241.18 378.40 538.48 446.56 488.07 597.20 464.09 497.15 555.37 488.52 662.81 607.06 641.99
00007863 00000043 402.26 248.32 379.43 532.82 450.32 492.69 599.26 468.01 500.86 563.88 492.83 670.01 607.58 648.95
00007864 00000044 402.76 257.30 386.25 529.97 456.99 500.29 603.26 476.90 504.45 568.02 503.46 673.42 611.01 653.23
00007865 00000045 407.01 260.46 384.50 528.69 465.57 499.90 609.91 474.57 514.63 578.02 517.71 684.20 622.77 662.58
00007866 00000046 413.26 261.55 386.12 532.13 475.06 503.31 617.43 476.15 524.25 579.37 530.09 689.33 630.94 666.04
00007867 00000047 417.47 262.40 388.86 531.60 479.79 504.61 622.98 474.61 531.31 577.97 536.56 690.87 639.24 664.98
00007868 00000048 424.37 262.88 389.21 531.48 487.40 504.75 631.63 474.15 538.98 576.23 542.61 690.40 647.77 664.06
00007869 00000049 432.17 267.57 384.74 524.29 493.10 507.88 640.32 475.14 548.84 576.18 549.78 689.96 657.56 661.97
00007870 00000050 433.73 272.89 381.80 523.07 497.45 504.75 644.27 475.49 559.97 579.96 551.23 687.27 664.61 663.66
00007871 00000051 437.67 270.00 384.39 524.71 502.00 503.34 651.47 473.12 567.03 578.46 558.71 686.20 675.19 661.23
00007872 00000052 440.72 269.88 386.78 525.49 507.48 500.25 661.16 468.55 575.73 574.69 565.29 682.87 688.19 656.39
00007873 00000053 445.83 263.44 388.05 530.80 512.39 496.52 666.35 464.01 579.23 572.19 568.86 678.23 694.99 651.09
00007874 00000054 450.19 257.58 389.15 530.05 515.75 493.93 671.93 460.59 581.13 566.56 569.15 673.29 698.28 645.61
00007875 00000055 452.69 253.41 386.98 530.24 516.59 489.22 672.51 457.58 580.35 558.98 567.59 669.03 696.36 642.87
00007876 00000056 452.39 250.09 387.66 532.01 519.14 488.41 675.23 455.38 585.27 554.40 570.56 667.26 698.94 639.99
00007877 00000057 452.97 247.50 387.42 531.58 521.25 486.96 677.90 454.62 588.67 552.67 571.19 664.48 700.04 637.93
00007878 00000058 454.40 246.29 387.17 528.97 525.05 484.14 680.90 453.71 593.80 551.85 574.60 661.39 701.30 636.47
00007879 00000059 457.19 244.99 387.20 530.10 529.34 482.84 685.17 452.01 600.21 554.04 581.54 662.81 705.52 637.70
00007880 00000060 461.00 246.88 385.78 526.60 533.38 482.49 689.11 450.32 604.47 553.83 586.11 662.91 709.77 636.97
00007881 00000061 461.80 249.23 387.80 524.08 537.27 478.52 697.18 446.59 611.06 552.19 589.06 662.46 714.37 636.57
00007882 00000062 462.82 247.61 388.36 524.01 539.33 474.40 702.93 443.14 615.14 549.39 591.68 662.15 718.26 636.81
00007883 00000063 463.53 245.68 387.25 526.25 537.02 469.43 698.98 434.39 614.30 542.61 599.22 663.09 716.32 634.06
00007884 00000064 464.41 241.48 390.05 534.00 535.87 466.21 704.04 430.15 614.80 542.24 598.51 664.84 724.60 634.64
00007885 00000065 465.40 239.26 392.32 538.12 535.01 464.85 705.75 426.98 614.42 541.75 598.55 664.64 730.89 632.74
00007886 00000066 466.52 237.88 391.34 535.65 534.99 463.39 706.68 425.23 613.16 538.96 595.89 661.19 731.63 629.02
00007887 00000067 466.38 234.23 391.17 533.18 535.60 460.48 704.55 422.27 611.72 533.33 594.36 657.20 724.69 625.47
00007888 00000068 466.21 227.69 388.70 529.72 537.35 452.31 703.98 415.23 611.13 520.44 591.10 645.19 718.91 615.04
00007889 00000069 466.60 223.15 384.24 519.55 541.17 442.97 706.10 413.93 615.97 506.70 588.14 630.01 715.05 606.72
00007890 00000070 472.12 214.14 386.17 520.58 546.76 443.52 707.18 407.21 616.08 494.96 597.45 626.01 716.39 595.61
00007891 00000071 473.26 209.83 386.59 518.55 548.12 434.83 710.99 399.34 617.45 487.86 599.19 619.38 718.33 589.84
00007892 00000072 472.61 207.65 389.84 517.27 549.91 426.55 713.35 391.84 620.81 479.78 601.00 611.60 719.04 582.84
00007893 00000073 472.79 205.04 388.35 510.67 549.84 418.45 712.49 386.10 618.66 476.25 598.19 602.50 718.73 575.90
00007894 00000074 472.00 203.33 387.18 510.24 548.77 413.84 711.89 381.71 617.07 470.32 596.66 599.15 716.33 572.83
00007895 00000075 471.66 199.29 386.18 505.06 545.91 411.55 711.16 376.19 614.59 463.33 593.54 594.91 717.65 565.93
00007896 00000076 475.31 195.75 382.88 497.26 546.99 406.77 713.30 369.40 612.85 455.04 590.50 586.14 721.23 555.49
00007897 00000077 475.85 191.92 382.42 493.38 548.75 395.94 712.67 356.90 615.97 443.83 591.40 575.91 718.26 544.38
00007898 00000078 476.80 177.65 384.42 500.08 553.55 384.07 714.43 347.36 615.09 423.60 591.42 562.00 711.06 532.69
00007899 00000079 486.47 166.01 377.83 501.68 562.96 380.40 716.70 343.33 619.93 409.12 593.41 548.15 716.18 517.03
00007900 00000080 489.95 158.76 377.01 492.29 564.60 376.83 717.83 341.21 623.63 406.77 596.45 537.74 718.75 507.88
00007901 00000081 488.63 157.60 378.21 494.30 564.46 375.50 718.92 339.85 624.72 407.50 597.36 538.27 719.33 508.43
00007902 00000082 486.06 158.51 377.83 493.33 562.62 373.46 720.02 337.70 626.20 405.78 597.01 538.72 721.21 508.83
00007903 00000083 482.97 156.51 378.07 491.62 562.67 367.73 720.95 333.21 630.50 401.25 600.87 533.90 725.49 504.75
00007904 00000084 473.85 152.34 380.65 499.38 562.30 359.76 730.83 331.44 647.64 403.60 603.04 530.41 738.18 507.55
00007905 00000085 471.05 152.09 385.56 509.79 565.14 365.50 733.21 337.30 655.20 412.04 611.70 540.59 744.54 517.78
00007906 00000086 468.38 168.42 388.65 508.49 568.41 374.98 728.05 344.73 661.45 416.11 612.24 554.25 731.56 530.06
00007907 00000087 463.65 175.21 385.48 524.67 564.98 388.48 727.60 364.69 664.52 435.10 613.56 571.21 738.72 552.67
00007908 00000088 463.74 190.02 383.13 518.12 561.66 397.49 731.38 370.99 660.79 453.56 611.90 587.19 746.38 564.75
00007909 00000089 453.02 196.98 391.27 517.63 556.05 406.77 725.34 378.54 658.56 468.78 609.76 593.45 745.53 569.78
00007910 00000090 447.93 200.85 392.46 516.99 551.67 416.58 722.30 388.20 653.43 481.06 605.64 599.52 742.82 575.37
00007911 00000091 444.49 200.80 393.68 520.45 548.54 424.14 719.38 395.10 650.09 489.75 603.19 604.38 740.38 580.01
00007912 00000092 443.54 203.70 392.42 519.84 545.78 428.80 716.22 399.86 646.01 494.41 599.63 607.48 737.53 583.34
00007913 00000093 443.12 205.07 391.10 518.40 543.96 432.20 714.67 401.98 644.39 499.12 597.98 608.74 737.52 583.52
00007914 00000094 442.69 206.34 391.39 517.29 543.15 433.44 713.06 402.74 642.92 500.30 597.27 608.60 736.89 582.87
00007915 00000095 442.54 208.01 391.52 516.29 543.16 434.21 713.65 403.14 643.75 500.81 598.27 609.43 738.27 583.37
00007916 00000096 444.96 207.94 389.35 517.55 544.80 434.11 715.93 404.61 645.50 501.71 599.71 611.42 738.47 586.83
00007917 00000097 446.18 208.07 390.54 520.34 547.83 432.55 718.95 404.11 648.65 500.31 601.98 611.83 740.13 588.14
00007918 00000098 448.34 206.98 390.06 523.13 551.23 430.48 723.94 402.61 652.71 495.13 603.24 611.41 742.53 588.27
00007919 00000099 449.22 202.14 392.43 528.51 552.42 426.45 727.03 397.33 655.32 489.71 605.32 610.17 747.73 585.89
00007920 00000100 451.01 204.28 392.92 526.78 552.87 420.02 728.99 390.25 656.33 482.22 605.40 606.17 751.03 580.96
00007921 00000101 452.22 202.74 392.96 525.84 551.85 415.18 727.41 384.38 654.58 474.20 604.59 600.13 752.95 574.02
00007922 00000102 452.01 199.80 395.15 521.54 550.88 414.72 723.75 381.60 652.80 469.81 605.03 595.10 751.87 567.01
00007923 00000103 448.52 198.23 394.20 518.77 550.15 424.57 717.74 389.27 649.98 470.84 605.38 597.28 746.06 567.53
00007924 00000104 445.35 201.43 394.77 516.89 542.62 429.33 703.09 389.04 634.69 476.26 600.93 603.71 732.84 570.20
00007925 00000105 442.83 203.16 395.45 520.24 533.16 433.03 690.91 390.20 618.90 484.08 593.26 608.73 722.83 573.31
00007926 00000106 441.82 204.45 390.93 525.42 526.17 437.02 680.52 390.36 607.04 488.31 586.08 613.63 714.50 575.30
00007927 00000107 441.01 204.36 387.45 529.74 519.72 437.00 676.62 389.27 598.05 488.00 577.08 615.62 708.34 576.57
00007928 00000108 440.72 204.95 386.39 526.30 517.47 438.85 674.62 392.15 593.79 490.16 574.33 617.04 703.95 579.01
00007929 00000109 442.14 209.60 383.64 517.19 517.00 441.46 675.60 398.24 592.00 493.78 571.43 617.29 700.78 582.31
00007930 00000110 441.65 215.34 383.84 517.94 516.67 446.41 674.61 404.57 588.18 499.86 567.74 622.75 694.05 589.17
00007931 00000111 440.27 215.50 386.01 533.00 515.65 452.58 670.88 411.11 585.22 509.45 568.19 633.18 691.12 600.04
00007932 00000112 439.49 217.34 385.11 531.83 518.18 458.05 673.86 421.78 592.08 521.88 572.30 634.54 696.03 605.35
00007933 00000113 448.03 225.26 385.22 533.36 525.48 459.12 688.00 423.50 609.06 527.76 583.23 647.88 709.77 618.77
00007934 00000114 450.48 231.46 392.63 537.69 534.70 454.78 701.57 420.96 625.83 528.72 598.07 656.27 720.65 627.15
00007935 00000115 455.80 236.34 393.02 548.60 544.82 454.86 718.93 422.65 642.33 533.12 606.42 662.67 736.05 634.65
00007936 00000116 454.79 242.98 392.92 541.10 549.92 469.81 722.96 438.82 651.40 558.73 610.87 669.64 742.74 643.16
00007937 DELETE   450.46 268.62 395.47 525.10 553.42 488.80 729.87 460.19 654.56 583.02 608.46 680.51 744.34 656.39
00007938 00000118 445.25 288.55 393.17 521.77 547.20 505.83 723.19 478.52 651.56 605.61 600.07 694.16 737.36 671.59
00007939 00000119 444.94 294.69 389.97 526.14 543.10 516.36 720.60 491.11 646.86 615.69 597.48 705.20 734.47 683.97
00007940 00000120 446.75 295.98 385.76 527.68 534.96 514.94 711.33 489.26 637.21 613.66 584.60 711.83 724.21 688.80
00007941 00000121 440.94 294.11 385.26 519.43 533.91 507.70 708.57 488.79 629.30 605.44 580.64 695.30 717.20 680.03
00007942 00000122 437.31 279.21 389.13 521.26 529.34 497.49 703.99 479.95 622.67 595.00 575.12 682.71 713.21 668.60
00007943 00000123 437.53 274.26 389.78 520.44 530.50 491.64 699.80 475.60 620.12 584.64 573.87 674.60 707.95 661.52
00007944 00000124 435.11 279.20 391.45 519.76 528.07 494.33 699.79 478.94 618.65 590.88 570.34 676.34 707.65 663.75
00007945 00000125 432.85 279.03 392.47 523.89 527.39 500.35 700.36 483.18 620.80 598.37 574.55 683.60 711.89 669.41
00007946 00000126 435.10 279.19 389.76 526.30 529.18 501.15 702.61 483.72 623.22 598.79 577.37 686.79 713.39 672.57
00007947 00000127 438.30 280.73 387.74 521.94 530.47 498.94 704.90 480.21 625.29 595.07 577.99 684.40 716.03 669.35
00007948 00000128 440.31 275.80 388.75 523.91 533.53 494.46 705.69 474.60 626.95 588.64 579.99 680.05 716.76 663.99
00007949 00000129 441.81 269.40 389.41 525.99 536.02 488.16 705.54 466.71 629.51 581.98 585.27 677.17 717.86 659.47
00007950 00000130 443.81 264.99 389.98 526.90 538.84 482.60 710.17 460.79 633.09 577.72 588.39 675.03 721.71 656.91
00007951 00000131 444.83 262.15 390.38 528.39 542.21 477.81 716.72 458.75 637.75 574.14 590.25 673.46 724.47 657.35
00007952 00000132 446.75 263.67 390.56 529.85 546.23 480.92 723.35 462.55 643.21 577.55 591.35 676.53 727.74 661.31
00007953 00000133 454.51 277.20 382.25 527.15 552.59 492.69 725.83 478.23 646.93 585.12 594.52 686.07 726.80 674.42
00007954 00000134 460.51 282.29 378.03 531.70 558.21 499.96 730.59 487.18 653.36 596.28 600.23 696.18 731.02 685.71
00007955 00000135 464.95 286.65 374.93 534.24 563.57 503.54 735.95 492.23 659.27 601.94 602.47 698.89 735.35 689.70
00007956 00000136 464.50 290.32 374.16 530.06 555.29 510.71 729.92 493.90 653.27 602.22 589.32 698.92 733.23 684.67
00007957 00000137 459.55 297.97 377.16 521.85 551.25 519.28 725.93 502.74 647.90 608.75 581.21 698.53 732.17 684.57
00007958 00000138 460.07 297.22 375.76 519.12 548.85 521.99 725.43 505.44 645.13 611.57 577.61 698.74 733.58 684.86
00007959 DELETE   460.57 295.87 375.06 513.06 550.52 506.90 730.00 495.18 645.14 600.70 580.75 682.66 734.11 673.62
00007960 DELETE   459.69 270.94 383.44 523.34 556.17 480.34 730.42 463.56 649.54 568.63 587.38 659.86 740.68 646.21
00007961 DELETE   466.02 243.26 381.42 525.14 548.51 460.06 731.46 442.24 639.32 544.46 581.07 645.95 738.76 630.39
00007962 00000142 467.10 236.27 376.35 514.75 546.01 453.87 726.47 437.29 634.91 534.68 576.37 633.65 732.02 620.20
00007963 00000143 465.39 237.06 376.24 516.28 543.68 456.17 725.02 442.46 630.61 539.98 572.66 638.93 726.35 627.76
00007964 00000144 466.42 239.30 377.18 520.20 544.65 458.96 728.23 445.18 630.05 543.22 573.09 646.66 724.85 635.13
00007965 00000145 469.32 232.42 377.17 530.51 547.39 453.42 733.00 439.07 634.54 540.11 577.86 650.62 726.79 638.96
00007966 00000146 473.64 228.96 374.53 526.49 551.39 445.77 735.85 430.88 641.24 531.18 584.77 643.37 732.26 631.58
00007967 00000147 478.23 226.93 370.18 525.68 554.23 440.85 737.06 426.91 645.30 527.74 588.04 639.20 733.60 628.50
00007968 00000148 475.98 229.58 374.34 511.98 555.69 436.26 734.23 428.70 647.31 529.94 587.14 624.32 737.55 617.51
00007969 00000149 479.71 228.31 371.73 512.01 559.37 432.52 736.41 423.79 650.50 523.52 591.03 622.61 738.92 615.30
00007970 00000150 474.80 219.13 378.13 529.73 567.58 424.40 739.38 415.73 656.73 508.24 605.12 619.40 735.97 611.74
00007971 00000151 469.27 217.71 380.82 526.86 562.67 425.07 733.58 413.93 653.42 506.71 603.17 618.01 732.81 608.24
00007972 00000152 462.12 216.45 380.11 524.02 550.28 426.90 728.05 418.19 633.02 511.18 579.44 616.32 718.60 610.23
00007973 00000153 452.15 217.02 382.27 520.34 536.98 430.41 713.08 423.57 615.86 520.30 564.73 615.96 702.35 611.39
00007974 00000154 456.25 217.31 380.08 522.95 530.07 426.74 709.44 414.10 608.77 515.72 556.11 623.48 693.15 613.65
00007975 00000155 456.43 211.43 381.16 525.27 541.87 423.55 717.75 415.86 619.23 512.57 569.52 615.43 703.28 610.31
00007976 00000156 463.70 209.22 380.78 517.73 552.69 419.23 729.86 409.23 634.49 498.18 580.63 603.45 722.77 596.03
CROP_BBOX: 164 0 1104 957
