Video ID: 	O20zaZuveog
H: 	1080
W: 	1920
FPS: 	25.0

FRAME INDEX X0 Y0 W H [Landmarks (5 Points)]

00008171 00000000 1072.43 150.64 401.27 616.46 1095.00 386.97 1257.25 397.68 1107.58 494.26 1098.02 615.65 1214.11 626.79
00008172 00000001 1071.85 151.37 400.31 626.10 1094.44 386.30 1255.40 398.96 1106.68 496.81 1097.04 620.47 1209.43 633.25
00008173 00000002 1068.47 154.06 406.03 639.22 1098.74 390.25 1257.44 399.12 1106.51 499.20 1099.20 629.86 1211.67 637.82
00008174 00000003 1073.22 155.57 396.30 645.54 1092.47 390.26 1251.70 401.45 1105.63 506.06 1095.83 639.23 1201.69 650.79
00008175 00000004 1069.45 160.88 401.49 641.96 1100.68 404.13 1254.99 407.22 1112.48 509.80 1104.14 645.25 1210.39 648.71
00008176 00000005 1069.86 173.86 402.71 633.13 1104.87 418.16 1253.50 417.31 1114.79 523.88 1109.09 660.77 1208.10 661.07
00008177 00000006 1071.40 176.34 401.74 648.79 1105.62 436.93 1254.32 434.76 1111.93 544.59 1117.49 676.64 1226.98 675.49
00008178 DELETE   1074.29 187.98 403.90 642.03 1109.87 465.88 1269.35 459.27 1130.62 574.02 1132.42 695.20 1253.24 689.31
00008179 DELETE   1075.98 194.09 413.03 640.78 1114.54 469.03 1276.72 465.78 1135.89 581.17 1141.56 697.57 1273.58 693.13
00008180 DELETE   1084.51 208.04 417.45 624.57 1124.93 464.41 1290.06 465.54 1144.93 585.71 1151.42 689.40 1293.69 687.69
00008181 00000010 1091.97 207.52 419.41 627.39 1134.34 455.85 1313.21 463.62 1165.20 589.87 1163.05 681.57 1309.94 686.24
00008182 00000011 1096.98 218.62 427.04 610.47 1143.21 457.58 1328.93 464.32 1183.80 594.12 1174.80 682.74 1325.41 685.82
00008183 00000012 1107.46 213.58 428.17 623.66 1157.74 462.32 1339.51 468.64 1200.75 594.63 1185.58 683.78 1337.67 688.34
00008184 00000013 1120.45 217.09 421.90 624.46 1169.51 464.02 1350.77 468.05 1213.19 593.10 1198.31 689.23 1345.08 692.55
00008185 00000014 1130.32 215.42 412.49 630.71 1176.21 461.66 1354.63 464.36 1215.84 596.53 1204.42 694.39 1349.29 694.60
00008186 00000015 1136.77 218.50 410.66 623.00 1185.23 463.26 1367.80 466.88 1227.64 596.55 1209.31 692.95 1358.37 693.89
00008187 00000016 1144.13 219.91 412.79 613.59 1192.76 461.57 1373.51 471.00 1232.42 594.80 1212.69 687.02 1364.04 692.51
00008188 00000017 1149.80 226.99 415.82 602.85 1201.94 459.64 1379.48 472.61 1237.64 591.55 1218.96 684.58 1367.01 693.27
00008189 DELETE   1161.51 215.85 409.47 609.48 1214.11 465.74 1388.34 476.30 1244.72 586.58 1226.26 681.05 1376.91 687.84
00008190 DELETE   1177.95 223.95 401.56 597.91 1224.31 455.01 1410.45 470.94 1264.99 581.34 1237.24 677.86 1382.96 690.67
00008191 00000020 1183.29 216.12 407.63 603.15 1242.03 451.29 1426.17 468.91 1277.88 575.97 1249.18 674.63 1395.29 689.09
00008192 00000021 1191.91 214.99 404.49 602.23 1251.24 441.32 1442.72 465.42 1290.96 574.55 1256.30 669.00 1409.85 688.81
00008193 00000022 1205.69 219.69 394.47 597.61 1263.65 442.67 1444.66 461.82 1302.70 570.09 1267.19 660.71 1420.21 675.76
00008194 00000023 1209.38 217.67 399.73 597.34 1273.08 440.65 1456.38 460.20 1314.66 565.70 1273.07 655.78 1430.75 671.25
00008195 00000024 1214.63 215.28 405.04 597.81 1279.21 438.79 1463.42 456.33 1323.88 560.99 1278.86 653.79 1439.37 667.53
00008196 00000025 1219.17 207.12 412.58 605.17 1283.40 436.53 1470.10 451.98 1332.67 556.32 1284.79 653.32 1446.17 665.15
00008197 00000026 1220.99 208.19 416.10 599.98 1287.92 431.93 1475.08 446.24 1339.19 551.21 1291.31 651.24 1452.04 662.28
00008198 00000027 1225.71 209.73 412.40 593.77 1293.45 427.55 1485.02 440.61 1347.69 546.94 1296.77 649.69 1459.38 660.02
00008199 00000028 1230.44 207.85 405.82 591.21 1298.82 427.77 1491.73 439.15 1354.97 542.16 1301.68 646.77 1466.49 655.99
00008200 00000029 1233.75 205.44 404.73 592.23 1302.75 426.01 1496.42 435.66 1359.13 540.19 1305.98 646.00 1469.25 654.11
00008201 00000030 1236.01 202.44 403.17 593.02 1305.53 424.67 1499.64 432.30 1363.47 538.41 1310.18 644.36 1472.19 651.12
00008202 00000031 1237.00 200.44 403.43 594.22 1306.78 422.64 1502.60 429.90 1365.11 536.18 1311.09 642.02 1475.01 648.38
00008203 00000032 1237.74 198.28 402.96 595.08 1307.02 421.39 1503.57 427.92 1365.80 534.74 1312.27 641.89 1475.67 647.46
00008204 00000033 1236.87 195.26 403.72 598.17 1306.42 421.68 1503.81 427.54 1366.41 534.51 1312.67 642.18 1477.14 647.19
00008205 00000034 1235.10 196.93 405.07 597.81 1305.59 421.44 1502.78 427.33 1366.46 534.38 1311.94 642.55 1475.98 647.65
00008206 00000035 1232.32 200.45 406.00 594.16 1303.29 419.69 1500.83 426.43 1365.66 534.64 1309.50 642.29 1473.85 648.09
00008207 00000036 1229.80 204.60 405.42 590.56 1300.14 418.19 1497.01 426.00 1361.98 534.24 1304.78 641.31 1470.01 648.04
00008208 00000037 1226.69 203.09 404.99 592.51 1296.54 415.48 1490.19 425.82 1356.33 532.86 1299.21 638.94 1462.01 647.35
00008209 00000038 1223.85 197.50 405.47 599.67 1290.52 412.34 1481.77 423.63 1349.01 532.02 1295.78 637.29 1455.77 646.23
00008210 00000039 1219.00 192.36 405.47 604.67 1284.35 407.63 1478.45 419.32 1344.62 529.45 1291.18 635.17 1451.29 644.26
00008211 00000040 1216.66 183.52 402.22 618.06 1278.10 403.63 1471.18 413.44 1332.90 522.47 1285.72 632.43 1446.87 640.03
00008212 00000041 1210.84 180.11 401.05 625.22 1272.95 400.41 1466.91 408.99 1326.67 510.66 1279.00 626.75 1447.77 633.11
00008213 00000042 1200.77 171.94 405.73 630.70 1267.96 395.73 1464.62 401.91 1322.30 509.08 1267.37 624.79 1441.21 629.20
00008214 00000043 1196.45 173.66 406.09 631.84 1263.59 398.05 1460.20 402.00 1316.76 506.61 1264.40 628.02 1438.02 630.74
00008215 00000044 1194.10 178.72 405.28 630.10 1259.99 402.07 1455.51 404.83 1313.77 512.23 1262.58 631.68 1436.39 633.12
00008216 00000045 1194.45 189.58 402.05 608.77 1251.24 405.11 1453.95 413.36 1308.06 517.65 1254.46 628.95 1425.80 636.81
00008217 00000046 1185.95 183.70 408.20 604.60 1249.02 399.00 1451.05 411.55 1304.11 509.39 1248.82 619.26 1418.69 630.13
00008218 00000047 1173.39 176.71 413.20 595.73 1241.07 401.20 1440.03 407.22 1296.72 506.86 1243.67 613.85 1417.63 618.44
00008219 00000048 1167.63 162.71 413.48 600.88 1233.15 382.42 1433.07 390.24 1288.93 491.72 1234.74 598.07 1412.27 604.81
00008220 00000049 1160.43 155.20 418.38 601.09 1225.81 378.09 1427.86 386.66 1283.41 486.85 1228.45 593.68 1407.74 600.63
00008221 00000050 1157.06 155.78 418.22 600.15 1223.44 375.61 1424.03 384.25 1280.30 485.19 1225.71 593.06 1403.13 599.51
00008222 00000051 1156.01 155.23 418.11 605.78 1222.09 375.32 1421.06 381.90 1277.71 485.87 1226.42 597.59 1399.19 602.02
00008223 00000052 1154.49 156.25 415.74 607.60 1220.41 374.68 1417.99 378.51 1275.18 484.63 1227.21 601.07 1394.96 603.36
00008224 00000053 1153.39 152.10 412.51 596.55 1217.20 372.44 1413.08 374.03 1270.97 474.32 1223.33 595.28 1388.67 596.68
00008225 00000054 1148.76 150.84 414.64 589.94 1216.32 361.14 1417.12 368.19 1272.97 458.53 1218.46 582.96 1387.34 588.91
00008226 00000055 1149.50 151.17 411.70 580.50 1214.29 351.62 1413.71 359.43 1271.12 445.25 1214.78 571.22 1382.86 578.27
00008227 00000056 1146.78 148.13 413.34 585.30 1213.99 345.42 1410.29 349.55 1270.13 431.21 1217.36 567.90 1377.19 572.30
00008228 00000057 1146.87 145.67 410.32 593.06 1211.74 340.73 1406.20 340.51 1262.14 414.35 1215.16 568.61 1368.86 570.75
00008229 00000058 1146.78 143.38 404.58 596.57 1209.95 335.96 1400.37 330.35 1254.55 405.14 1211.79 566.41 1358.26 564.51
00008230 00000059 1143.84 139.33 404.09 602.82 1208.76 336.64 1396.45 323.80 1248.58 388.62 1206.00 566.61 1348.15 558.80
00008231 00000060 1144.51 136.48 405.32 607.85 1208.53 334.38 1392.70 321.07 1241.10 381.56 1199.81 564.07 1338.43 556.05
00008232 00000061 1145.92 120.43 403.02 605.48 1200.49 328.41 1395.44 324.33 1236.07 397.96 1190.42 558.82 1334.86 557.39
00008233 00000062 1144.51 118.92 413.70 597.01 1200.37 331.79 1387.72 326.28 1226.68 396.92 1187.38 554.39 1334.99 551.53
00008234 00000063 1140.28 127.56 405.64 576.92 1201.67 329.68 1384.87 332.31 1221.96 404.03 1185.97 550.61 1322.31 553.90
00008235 00000064 1137.66 132.69 401.53 566.22 1195.47 328.43 1376.82 329.75 1213.06 402.38 1176.80 548.15 1313.10 550.81
00008236 00000065 1136.53 122.21 396.36 567.09 1184.05 326.25 1361.84 318.37 1201.89 390.88 1168.64 542.55 1307.40 537.74
00008237 DELETE   1126.42 113.80 408.50 556.37 1176.26 324.07 1351.43 303.84 1188.04 360.62 1157.61 521.86 1296.93 506.56
00008238 DELETE   1120.06 114.99 411.15 534.11 1173.42 316.05 1350.49 290.73 1181.55 338.09 1147.04 509.09 1284.94 488.75
00008239 00000068 1110.70 115.76 408.99 514.74 1165.25 296.34 1345.67 270.82 1176.56 326.06 1138.21 487.03 1287.81 467.90
00008240 00000069 1110.52 108.74 404.66 516.09 1161.41 288.63 1338.88 262.18 1169.96 319.41 1133.23 480.21 1282.79 460.22
00008241 00000070 1106.24 106.69 407.78 526.13 1152.50 293.22 1332.09 263.04 1163.35 324.95 1131.84 488.18 1282.84 465.31
00008242 00000071 1108.87 105.51 408.07 536.38 1139.43 304.06 1322.06 271.43 1148.85 333.09 1124.43 505.72 1277.78 481.93
00008243 DELETE   1108.67 113.25 407.30 546.95 1137.96 313.86 1321.91 282.33 1149.47 348.82 1125.08 521.75 1278.07 499.40
00008244 00000073 1109.36 112.37 408.46 557.64 1143.03 317.65 1323.05 286.60 1150.56 352.98 1129.00 527.89 1277.71 505.69
00008245 00000074 1108.38 109.76 414.91 556.16 1141.96 316.39 1325.46 285.76 1156.27 355.06 1132.56 525.12 1283.98 502.98
00008246 00000075 1108.98 110.78 414.42 550.39 1144.31 310.84 1328.79 283.84 1161.38 353.91 1133.80 519.80 1285.24 500.77
00008247 00000076 1110.48 110.85 412.26 549.82 1144.71 305.47 1333.80 281.00 1163.24 352.37 1133.22 518.56 1287.60 501.99
00008248 00000077 1110.82 104.52 416.47 568.92 1149.72 313.25 1335.94 290.73 1168.14 366.20 1142.23 528.95 1289.62 513.76
00008249 DELETE   1116.02 108.78 416.76 592.41 1152.38 327.78 1333.60 307.45 1169.04 400.60 1152.17 554.26 1292.44 539.24
00008250 DELETE   1125.08 125.36 418.53 596.31 1153.45 354.65 1323.88 328.87 1175.65 428.62 1167.65 574.13 1298.79 554.92
00008251 DELETE   1124.10 149.18 422.88 593.22 1156.11 365.14 1322.86 348.51 1170.14 459.43 1175.09 598.59 1307.00 586.93
00008252 00000081 1134.93 150.42 407.46 601.95 1161.47 378.84 1328.22 366.94 1183.39 474.78 1178.96 608.97 1304.68 600.79
00008253 00000082 1141.80 154.20 404.30 615.10 1169.47 384.44 1330.56 378.91 1187.13 484.63 1180.91 618.15 1301.82 615.81
00008254 00000083 1146.89 151.48 401.60 619.44 1172.53 381.94 1336.40 380.50 1195.09 487.43 1181.27 618.65 1304.39 619.77
00008255 00000084 1151.89 142.87 400.44 617.31 1178.99 376.75 1347.04 375.06 1201.77 476.05 1184.99 611.20 1310.74 612.12
00008256 00000085 1157.22 152.79 394.26 593.15 1189.00 349.93 1355.32 362.46 1197.29 463.19 1179.72 593.72 1311.25 605.34
00008257 00000086 1154.31 132.26 400.24 601.46 1188.50 343.32 1358.84 352.49 1194.65 445.67 1173.04 582.99 1309.82 592.60
00008258 00000087 1145.84 122.98 402.36 603.46 1180.12 337.50 1355.21 343.17 1196.53 430.21 1166.69 570.68 1302.01 577.59
00008259 00000088 1144.12 119.12 406.38 598.74 1178.35 328.56 1357.01 330.33 1201.23 419.93 1167.58 564.62 1303.54 568.48
00008260 00000089 1147.12 115.22 408.39 600.99 1181.68 324.25 1363.17 324.25 1205.37 414.16 1172.04 560.63 1311.12 562.87
00008261 00000090 1146.08 104.19 420.70 618.44 1189.47 327.02 1376.69 323.81 1206.99 399.57 1175.82 561.68 1324.60 560.77
00008262 00000091 1144.52 103.05 424.69 622.14 1193.82 325.10 1383.01 323.01 1214.09 396.84 1180.09 558.19 1332.32 558.23
00008263 00000092 1139.63 105.13 427.43 622.55 1193.36 328.05 1384.29 324.98 1217.07 394.07 1178.19 558.31 1332.39 557.44
00008264 00000093 1129.84 116.27 423.20 608.04 1184.16 330.99 1374.54 325.01 1211.48 401.83 1167.52 560.21 1316.80 557.50
00008265 00000094 1116.49 120.19 422.70 608.80 1171.91 330.46 1362.94 326.95 1201.80 401.02 1159.29 559.47 1309.84 558.71
00008266 00000095 1099.11 121.65 430.96 610.18 1157.77 337.74 1349.62 332.83 1189.03 405.83 1150.51 560.71 1299.01 557.96
00008267 00000096 1079.96 122.59 432.96 614.41 1133.74 339.36 1336.57 335.13 1169.86 409.11 1134.40 567.51 1301.90 564.99
00008268 00000097 1078.99 125.86 424.82 614.34 1124.93 349.69 1316.49 339.56 1157.68 424.28 1131.14 578.84 1285.82 571.12
00008269 00000098 1072.83 132.40 421.60 614.62 1116.07 360.18 1305.65 342.03 1149.26 436.06 1128.84 594.48 1278.55 580.44
00008270 00000099 1072.06 128.15 415.68 627.08 1104.91 366.50 1291.68 345.55 1145.23 450.13 1124.82 601.05 1262.17 586.05
00008271 00000100 1063.31 129.25 418.54 631.38 1097.94 374.95 1283.11 352.24 1136.74 459.90 1121.93 612.49 1252.62 595.85
00008272 00000101 1054.90 125.97 423.11 634.55 1096.74 391.03 1281.14 358.23 1141.96 464.78 1126.33 620.03 1259.54 594.57
00008273 00000102 1051.57 128.26 429.57 647.19 1090.84 400.70 1278.31 359.54 1134.92 469.82 1124.78 631.48 1261.26 598.85
00008274 00000103 1044.68 139.97 436.13 650.17 1091.49 396.38 1276.95 354.35 1132.71 477.57 1129.11 638.35 1273.23 602.63
00008275 00000104 1045.19 141.86 434.02 654.22 1094.24 395.90 1276.14 355.82 1134.17 478.66 1130.47 635.67 1280.51 601.11
00008276 00000105 1047.70 143.43 431.06 651.03 1096.60 392.00 1278.31 358.12 1132.82 476.41 1126.93 630.96 1278.97 601.72
00008277 00000106 1050.12 137.25 432.21 651.70 1095.27 389.70 1278.68 359.54 1127.94 475.91 1121.84 628.63 1275.76 602.41
00008278 00000107 1054.47 142.33 428.24 649.91 1099.78 391.29 1283.83 370.84 1132.19 484.29 1120.81 627.36 1281.53 608.85
00008279 DELETE   1059.45 153.36 422.31 644.67 1104.47 402.21 1283.22 388.02 1131.82 501.26 1119.37 631.74 1279.32 618.22
00008280 DELETE   1069.38 156.39 412.20 649.17 1110.54 414.01 1288.20 403.64 1137.00 512.72 1121.87 641.82 1282.66 631.84
00008281 DELETE   1073.84 165.25 413.09 656.16 1116.56 425.26 1301.70 421.16 1149.83 530.76 1130.26 654.39 1297.42 649.68
00008282 00000111 1079.40 177.08 415.78 651.11 1126.40 442.86 1305.56 443.16 1164.74 553.24 1142.63 668.04 1304.62 665.86
00008283 00000112 1082.32 183.58 422.64 646.73 1131.37 455.19 1316.77 450.62 1173.59 562.32 1153.81 678.53 1317.68 672.02
00008284 00000113 1084.42 196.67 425.27 630.38 1137.55 457.39 1320.74 452.93 1178.80 567.15 1161.78 677.96 1323.55 671.52
00008285 00000114 1089.80 201.29 430.93 618.82 1143.79 460.20 1335.92 450.34 1197.54 570.81 1170.85 681.06 1325.06 673.04
00008286 00000115 1097.82 179.38 426.27 640.57 1154.62 460.25 1339.69 444.26 1205.58 553.45 1178.85 675.22 1327.03 661.72
00008287 00000116 1096.84 179.75 430.37 637.80 1152.75 452.19 1345.88 445.71 1211.24 544.50 1175.12 669.83 1318.03 665.69
00008288 00000117 1101.70 181.52 423.81 633.83 1155.18 444.09 1344.94 438.77 1211.51 539.91 1176.07 664.59 1315.34 661.37
00008289 00000118 1105.12 180.91 420.71 635.35 1157.44 437.24 1344.72 432.93 1209.36 535.34 1175.07 662.35 1308.50 660.25
00008290 00000119 1108.88 183.40 414.54 633.32 1164.21 434.77 1342.52 429.10 1208.40 532.82 1177.74 657.85 1307.67 654.26
00008291 00000120 1107.44 195.46 416.18 625.82 1158.61 433.59 1346.02 436.36 1208.50 541.23 1171.22 668.07 1300.96 671.95
00008292 00000121 1109.29 190.90 411.61 631.14 1162.64 438.23 1339.83 438.04 1203.71 544.63 1174.55 667.98 1301.29 669.55
00008293 00000122 1108.21 192.01 413.49 636.58 1160.20 439.34 1337.59 445.26 1195.29 558.34 1172.16 671.97 1304.28 677.86
00008294 00000123 1108.35 176.18 414.91 658.64 1157.38 441.77 1335.15 448.18 1190.97 565.30 1170.55 675.65 1310.56 681.53
00008295 00000124 1109.53 176.15 414.92 660.44 1159.81 442.98 1335.85 446.99 1193.72 568.31 1176.42 675.93 1318.22 679.82
00008296 00000125 1114.20 182.82 416.81 652.81 1164.17 448.24 1340.55 445.02 1201.33 566.56 1185.85 678.70 1328.08 676.69
00008297 00000126 1115.98 187.50 413.72 647.15 1162.54 455.23 1347.53 446.74 1208.49 565.07 1193.79 686.66 1331.98 680.50
00008298 00000127 1118.79 185.00 410.45 639.16 1169.03 446.49 1355.16 434.91 1217.53 558.85 1195.30 673.67 1345.68 665.25
00008299 00000128 1117.51 190.26 416.32 627.69 1167.95 432.74 1357.00 418.69 1223.95 551.43 1201.11 668.65 1350.49 658.01
00008300 00000129 1120.90 187.54 419.42 627.22 1167.93 428.55 1361.40 410.49 1229.52 554.03 1207.74 671.08 1355.20 657.18
00008301 00000130 1118.71 192.83 423.55 627.31 1165.93 427.86 1360.11 403.94 1227.23 545.63 1208.62 670.89 1359.17 652.08
00008302 00000131 1116.16 180.70 423.55 641.76 1163.08 426.45 1349.92 404.21 1217.00 539.63 1202.53 668.30 1345.34 651.09
00008303 00000132 1105.97 168.59 422.60 650.83 1156.39 417.66 1342.02 405.27 1197.59 526.58 1182.56 658.79 1322.79 649.65
00008304 DELETE   1105.04 161.09 405.74 639.67 1142.92 394.05 1326.62 394.86 1175.19 513.67 1154.62 639.73 1289.69 640.41
00008305 00000134 1099.56 161.16 401.01 622.85 1132.79 383.23 1303.48 396.56 1148.44 499.61 1130.21 621.23 1257.87 633.31
00008306 00000135 1091.50 150.09 396.38 624.17 1123.66 379.36 1284.84 393.02 1130.53 489.06 1116.40 612.02 1238.12 625.34
00008307 00000136 1093.13 147.79 397.03 621.98 1125.45 373.24 1286.21 384.72 1135.48 481.01 1120.90 609.29 1239.98 620.63
00008308 00000137 1092.18 146.72 404.46 619.58 1130.52 369.39 1292.38 379.16 1132.92 478.88 1122.42 609.74 1245.53 618.88
00008309 00000138 1100.30 155.75 402.23 607.47 1132.42 370.59 1297.59 382.40 1138.44 483.80 1138.16 610.61 1261.94 621.18
00008310 00000139 1101.92 152.94 404.91 612.56 1131.07 375.92 1302.83 380.96 1145.32 490.49 1145.98 616.62 1274.23 621.60
00008311 00000140 1101.99 158.66 409.54 609.28 1130.35 381.49 1305.24 382.10 1149.58 496.65 1151.85 619.53 1286.03 620.16
00008312 00000141 1097.87 146.26 414.47 628.36 1133.22 387.41 1308.93 383.57 1160.11 499.66 1149.87 619.79 1285.75 616.34
00008313 00000142 1095.64 160.02 414.45 612.53 1125.80 386.67 1301.55 384.68 1148.69 501.95 1150.94 626.02 1284.53 624.60
00008314 00000143 1091.59 156.75 417.67 617.27 1137.05 390.23 1306.97 387.42 1158.34 501.78 1153.99 625.11 1278.74 623.46
00008315 00000144 1091.41 156.82 416.33 617.15 1137.16 390.71 1307.39 387.93 1158.78 501.97 1153.55 627.17 1275.54 625.67
00008316 00000145 1091.40 157.89 416.59 616.32 1137.43 389.81 1308.19 388.74 1159.59 502.71 1153.47 626.71 1273.51 626.57
00008317 00000146 1090.86 158.68 417.84 616.90 1137.38 390.32 1310.32 387.31 1162.11 500.40 1153.08 628.88 1270.13 627.42
00008318 00000147 1090.85 155.07 417.74 621.78 1138.01 389.42 1311.13 385.46 1163.26 498.42 1154.24 630.43 1267.28 628.31
00008319 00000148 1092.72 155.66 416.20 622.51 1140.38 386.96 1313.60 385.29 1163.43 495.51 1153.80 627.88 1267.58 627.61
00008320 00000149 1097.86 152.30 408.72 625.98 1131.87 385.12 1311.49 379.84 1154.74 492.68 1149.26 636.16 1272.28 634.04
00008321 00000150 1100.39 151.81 407.50 626.74 1133.01 383.88 1312.13 376.66 1156.58 491.66 1154.35 635.15 1278.69 630.90
00008322 00000151 1093.36 150.12 418.05 629.37 1144.64 382.79 1318.33 378.94 1169.97 491.73 1161.43 621.64 1286.59 619.07
00008323 00000152 1092.17 149.77 413.15 615.37 1135.20 377.50 1312.45 372.29 1165.17 489.66 1150.81 611.22 1296.57 606.38
00008324 00000153 1093.67 142.74 411.69 619.10 1136.57 375.70 1316.73 372.00 1167.39 487.31 1148.38 609.95 1289.95 607.32
00008325 00000154 1093.00 140.89 418.63 634.82 1147.26 374.75 1327.88 375.74 1173.64 481.79 1155.48 620.02 1277.24 622.03
00008326 00000155 1093.47 141.76 419.01 637.92 1146.86 372.45 1330.53 371.55 1175.45 479.79 1155.09 624.48 1274.69 624.92
00008327 00000156 1097.01 139.50 416.91 641.21 1149.34 370.85 1330.52 367.26 1176.99 472.20 1159.93 623.76 1277.06 621.90
00008328 00000157 1097.02 142.27 417.57 640.37 1153.12 365.71 1332.37 361.37 1182.85 465.72 1169.04 620.43 1282.99 617.64
00008329 00000158 1100.99 132.34 416.76 650.29 1157.34 359.75 1337.60 355.66 1184.98 455.40 1169.93 613.63 1288.99 610.88
00008330 00000159 1104.79 137.56 415.14 635.37 1155.43 357.23 1342.29 348.51 1183.09 454.13 1165.98 613.24 1302.48 607.83
00008331 00000160 1106.09 138.72 416.71 627.87 1158.24 354.94 1345.36 347.47 1186.81 453.50 1169.39 606.36 1310.62 601.92
00008332 00000161 1110.33 144.44 418.16 618.90 1155.04 358.10 1348.95 347.23 1193.08 450.06 1172.08 601.42 1310.71 593.88
00008333 00000162 1114.49 144.34 417.58 611.57 1157.08 358.51 1351.30 348.60 1196.70 449.07 1172.63 596.43 1312.36 590.01
