Video ID: 	08a0356cztg
H: 	1080
W: 	1920
FPS: 	29.97002997002997

FRAME INDEX X0 Y0 W H [Landmarks (5 Points)]

00006559 00000000 734.96 266.22 414.26 586.93 834.61 524.57 1043.27 523.17 932.14 649.68 859.34 733.75 1025.02 732.15
00006560 00000001 734.18 278.75 411.17 580.83 832.83 529.69 1037.65 527.34 926.52 654.69 858.52 738.53 1019.71 736.30
00006561 00000002 731.73 282.65 409.64 580.91 831.64 532.47 1036.50 530.71 926.75 659.27 857.59 741.63 1019.78 739.83
00006562 00000003 730.83 281.65 409.44 583.85 831.00 533.04 1034.51 531.05 927.18 661.45 857.06 742.22 1019.12 740.27
00006563 00000004 733.96 281.78 408.28 577.84 825.05 532.80 1036.23 529.73 926.12 657.61 851.64 741.06 1030.93 737.42
00006564 00000005 728.77 282.06 410.79 582.10 831.54 536.47 1036.16 530.47 930.60 659.93 858.77 740.20 1024.57 734.91
00006565 00000006 730.02 281.12 409.19 579.03 836.05 531.67 1039.41 527.19 933.57 652.06 859.77 734.65 1024.93 730.82
00006566 00000007 729.73 278.46 407.94 576.83 835.09 526.52 1038.91 522.04 933.61 646.18 861.83 730.98 1026.99 727.00
00006567 00000008 729.78 267.55 406.37 580.49 831.36 527.45 1033.19 517.47 931.14 642.61 860.42 727.27 1026.75 718.69
00006568 00000009 730.64 266.00 403.85 574.96 827.29 520.55 1032.87 510.13 927.64 633.64 856.87 721.45 1028.14 712.66
00006569 DELETE   730.08 251.75 405.78 579.34 824.48 513.83 1031.09 503.74 925.47 628.44 857.48 714.47 1031.02 705.70
00006570 DELETE   728.88 247.67 405.01 577.84 821.43 509.33 1027.84 498.80 922.83 621.56 854.98 709.80 1029.40 700.60
00006571 00000012 728.50 237.25 407.48 580.94 821.25 505.18 1027.48 494.75 923.39 614.83 856.23 706.22 1031.96 696.38
00006572 DELETE   729.02 232.88 407.66 581.51 819.96 501.28 1027.38 489.68 923.91 610.32 855.08 701.66 1035.34 690.76
00006573 00000014 730.08 229.48 407.54 580.69 820.15 497.89 1027.87 485.92 922.21 604.55 854.82 699.47 1035.52 688.24
00006574 00000015 730.21 226.14 406.92 582.81 821.67 493.81 1029.03 482.15 924.77 598.83 856.30 695.11 1036.73 683.95
00006575 00000016 730.05 221.55 406.78 589.89 822.26 489.46 1028.90 476.71 926.94 593.48 858.57 694.51 1035.10 682.68
00006576 00000017 729.57 216.78 407.76 593.78 823.07 484.89 1029.42 472.41 927.22 587.61 860.72 693.63 1032.52 681.95
00006577 00000018 729.83 210.20 407.90 600.72 825.01 480.42 1031.63 469.23 929.21 583.85 861.69 689.50 1034.06 678.83
00006578 00000019 731.51 207.96 406.17 598.76 826.97 478.63 1033.01 466.33 931.93 578.58 864.18 687.53 1035.14 676.08
00006579 00000020 729.10 202.02 407.08 604.52 834.69 472.20 1034.74 460.08 937.62 580.82 865.68 685.88 1024.18 675.43
00006580 00000021 730.68 200.09 408.26 605.95 836.64 470.24 1037.38 457.94 939.42 576.41 867.52 684.79 1026.00 674.24
00006581 00000022 732.14 194.05 409.77 609.60 838.78 467.85 1039.67 456.05 941.88 572.17 871.21 681.37 1030.64 671.11
00006582 00000023 732.73 193.29 410.07 608.85 839.66 467.28 1042.26 454.64 944.70 570.52 873.26 679.39 1035.00 668.31
00006583 00000024 734.38 190.67 410.07 609.34 842.05 464.15 1044.63 450.97 947.08 565.17 876.08 677.03 1037.62 665.65
00006584 00000025 738.97 183.72 416.92 609.57 841.41 459.79 1052.21 449.35 951.62 550.74 875.03 663.68 1047.39 655.54
00006585 00000026 739.99 182.08 417.02 611.96 844.19 459.56 1055.30 448.57 955.17 549.07 876.96 661.91 1051.30 653.22
00006586 00000027 740.80 180.89 418.65 611.84 845.89 457.20 1056.26 446.06 957.09 547.09 879.29 658.17 1054.41 649.22
00006587 00000028 740.64 181.05 419.69 613.81 848.32 457.01 1058.75 446.25 960.59 546.63 880.81 658.14 1056.46 649.56
00006588 00000029 741.78 180.57 418.68 613.60 851.19 456.11 1059.96 446.79 963.24 546.72 882.61 655.95 1057.39 648.52
00006589 00000030 742.16 182.33 417.60 609.78 854.36 452.99 1062.24 444.33 968.00 543.62 884.70 652.31 1059.29 645.57
00006590 00000031 742.69 180.68 418.83 609.86 856.06 450.57 1064.69 442.51 971.74 542.51 886.77 651.45 1062.38 645.01
00006591 00000032 743.30 179.86 420.36 609.50 857.98 448.80 1066.52 441.65 973.99 542.89 887.29 649.38 1063.95 643.62
00006592 00000033 742.44 183.64 422.84 605.07 860.48 448.93 1069.89 441.48 978.30 543.10 889.64 649.06 1066.61 643.17
00006593 00000034 743.58 184.79 423.12 601.37 864.57 448.86 1073.63 442.24 983.21 543.02 894.09 649.04 1068.88 643.96
00006594 00000035 743.63 189.10 424.54 594.25 867.73 451.09 1077.07 442.16 988.78 545.84 897.88 648.23 1074.13 641.30
00006595 00000036 745.09 188.86 425.61 592.69 873.43 453.24 1083.03 446.20 996.11 547.48 902.16 649.57 1078.18 644.06
00006596 00000037 747.24 191.15 425.56 589.55 879.18 455.55 1088.57 448.35 1004.01 550.01 907.41 651.10 1082.75 645.28
00006597 DELETE   749.41 191.01 425.65 592.50 884.14 456.84 1093.57 450.40 1009.99 550.29 909.86 651.97 1086.27 646.65
00006598 DELETE   754.06 189.30 422.60 592.73 887.82 454.92 1097.67 449.03 1014.28 550.73 913.79 652.33 1090.03 647.35
00006599 00000040 756.01 189.47 421.53 591.56 889.88 454.97 1099.02 448.93 1016.29 550.29 917.44 653.29 1091.11 647.98
00006600 00000041 757.43 189.85 420.38 593.19 891.55 454.86 1100.89 448.20 1018.81 551.57 919.04 653.97 1093.46 648.13
00006601 00000042 759.50 188.65 419.26 596.61 895.13 455.73 1103.48 449.64 1021.41 553.56 920.35 655.19 1094.04 649.98
00006602 00000043 761.02 190.03 419.71 595.06 896.33 456.63 1106.12 450.16 1022.81 555.56 922.87 657.15 1097.61 651.43
00006603 00000044 761.03 191.30 420.69 594.77 898.77 456.85 1109.20 450.25 1026.28 556.28 924.65 657.95 1099.39 652.27
00006604 00000045 760.74 191.19 421.70 594.99 900.89 457.78 1110.31 451.32 1028.62 557.47 926.56 658.69 1099.25 653.28
00006605 00000046 762.74 189.12 420.16 595.83 901.79 457.75 1111.73 450.59 1029.51 557.69 928.05 658.75 1101.79 652.61
00006606 00000047 763.67 191.04 419.79 592.60 902.64 458.11 1112.62 450.71 1030.11 557.77 929.16 658.87 1102.73 652.53
00006607 00000048 764.12 190.81 419.63 593.79 903.03 458.26 1113.41 451.30 1030.70 557.74 928.35 658.96 1102.70 652.95
00006608 00000049 764.02 191.12 419.65 593.69 903.11 458.41 1113.25 451.17 1031.06 557.56 928.99 659.36 1102.85 653.12
00006609 00000050 763.69 189.78 420.40 594.44 903.84 458.07 1113.84 450.92 1032.60 557.48 930.61 660.12 1102.61 653.99
00006610 00000051 765.64 189.16 418.92 592.66 904.99 458.24 1113.48 450.50 1033.00 558.77 934.73 661.73 1102.97 655.04
00006611 00000052 765.33 188.26 419.09 595.16 904.83 458.67 1111.01 450.33 1032.00 558.59 935.15 661.61 1101.79 654.48
00006612 00000053 763.61 188.71 420.80 595.52 904.39 457.74 1109.90 448.89 1031.59 557.50 936.01 661.45 1101.33 653.97
00006613 00000054 763.19 188.11 421.60 596.21 904.02 457.11 1110.04 448.64 1031.23 556.97 935.40 660.96 1101.49 653.73
00006614 00000055 763.33 188.19 420.40 594.87 903.58 457.25 1109.43 448.08 1030.99 557.23 936.22 660.73 1102.36 652.81
00006615 00000056 762.99 187.70 421.20 597.57 903.47 457.67 1109.34 448.22 1031.10 556.31 935.14 661.43 1101.91 653.33
00006616 00000057 762.83 187.32 421.38 598.73 903.43 457.87 1108.57 448.32 1030.57 556.08 933.75 660.52 1100.97 652.38
00006617 00000058 763.10 187.48 420.25 595.44 903.90 456.47 1108.01 448.41 1029.49 555.13 932.98 657.42 1099.45 650.51
00006618 00000059 763.27 190.42 418.30 590.35 901.49 454.65 1107.60 446.88 1027.32 552.13 930.93 655.59 1099.39 648.87
00006619 00000060 762.25 186.30 418.83 593.73 899.27 452.94 1106.06 445.72 1024.86 550.18 929.48 654.84 1097.68 648.44
00006620 00000061 762.33 184.02 418.23 594.94 898.02 451.12 1105.54 444.54 1023.72 547.18 928.96 653.89 1097.68 647.80
00006621 00000062 760.85 183.90 419.85 595.31 896.38 449.88 1104.63 443.77 1022.24 545.34 926.52 652.45 1096.49 646.75
00006622 00000063 760.86 183.38 419.42 594.77 895.21 449.53 1104.09 443.32 1021.50 543.15 925.07 651.25 1096.55 645.41
00006623 00000064 761.80 182.19 418.64 595.80 894.16 448.48 1103.22 443.62 1019.18 541.13 924.48 650.06 1096.04 645.18
00006624 00000065 761.88 181.96 418.20 595.23 894.11 448.31 1102.49 443.52 1018.96 540.21 923.52 648.69 1095.18 643.85
00006625 00000066 761.83 181.63 419.04 594.28 894.05 446.00 1102.66 442.71 1017.78 538.15 923.17 646.46 1095.13 642.79
00006626 00000067 760.73 179.00 420.51 595.82 893.89 443.55 1101.74 441.13 1018.22 535.48 924.03 644.99 1094.31 641.90
00006627 00000068 760.48 176.81 421.37 597.22 892.82 442.65 1101.61 440.32 1016.93 534.28 922.94 644.42 1094.20 641.43
00006628 00000069 762.04 175.67 419.85 598.58 892.85 440.99 1101.01 438.66 1016.16 532.97 923.05 643.28 1094.17 640.44
00006629 00000070 762.41 173.48 419.39 599.57 892.49 440.09 1100.82 437.04 1016.46 531.53 923.38 642.34 1095.08 639.03
00006630 00000071 764.10 172.19 417.96 600.18 893.22 439.58 1101.38 436.29 1016.81 531.47 924.34 642.24 1096.30 638.76
00006631 00000072 765.79 174.00 416.93 597.55 894.86 439.59 1102.81 436.61 1017.74 530.94 926.20 641.99 1097.36 638.71
00006632 00000073 767.59 173.37 416.82 597.80 897.77 439.42 1104.83 437.00 1020.35 530.00 929.47 641.61 1099.25 638.63
00006633 00000074 768.99 171.22 415.66 599.57 898.77 438.75 1106.08 436.02 1021.79 529.21 930.43 640.81 1101.25 637.62
00006634 00000075 770.64 170.65 414.22 599.55 900.16 438.60 1106.57 435.70 1022.72 529.14 932.41 640.87 1101.98 637.28
00006635 00000076 771.49 170.15 414.22 599.87 903.33 437.44 1107.78 434.57 1026.57 528.89 934.74 639.60 1103.59 636.07
00006636 00000077 772.43 169.93 413.85 600.80 904.04 437.05 1109.20 433.96 1027.85 528.47 935.15 640.10 1104.80 636.35
00006637 00000078 773.69 170.21 411.01 600.53 905.05 440.74 1111.55 437.43 1028.18 527.29 935.56 641.51 1106.18 637.64
00006638 00000079 770.95 172.77 412.95 598.08 903.84 438.59 1111.76 434.89 1028.59 524.45 934.25 639.39 1105.61 634.96
00006639 00000080 770.90 171.16 412.60 599.53 902.68 438.48 1112.26 434.23 1028.72 524.16 934.34 639.87 1107.25 635.07
00006640 00000081 772.20 172.04 410.28 599.44 904.22 440.99 1112.93 437.41 1028.94 525.92 934.49 641.78 1106.58 637.90
00006641 00000082 773.84 170.54 409.10 600.40 905.20 440.81 1111.36 437.21 1028.45 527.71 935.19 641.63 1104.86 637.87
00006642 00000083 773.27 170.06 410.50 600.88 904.38 441.46 1109.76 437.65 1027.30 529.27 934.42 641.66 1104.06 637.67
00006643 00000084 772.47 170.83 410.33 600.51 903.00 442.19 1108.93 437.83 1026.67 529.79 932.95 641.75 1103.79 637.34
00006644 00000085 772.44 172.38 410.70 597.65 902.01 443.32 1107.83 438.16 1024.92 530.53 933.16 642.25 1104.00 636.97
00006645 00000086 770.54 174.00 412.11 596.66 900.84 443.69 1107.85 439.27 1024.50 531.72 931.61 642.47 1103.96 637.77
00006646 00000087 769.31 175.37 413.96 595.76 900.55 444.58 1107.72 440.31 1023.91 533.12 931.38 643.44 1102.86 638.75
00006647 00000088 768.83 176.97 414.38 595.88 899.89 446.70 1108.32 441.43 1024.00 537.18 930.30 646.06 1103.13 640.47
00006648 00000089 768.41 178.97 415.59 596.06 899.14 448.48 1108.22 442.13 1023.12 541.04 928.51 647.73 1103.03 641.38
00006649 00000090 769.39 181.46 414.49 596.02 899.79 450.22 1108.65 444.05 1022.57 543.47 927.46 649.22 1102.66 643.25
00006650 00000091 770.39 180.12 412.89 597.88 899.84 451.43 1110.09 444.46 1022.83 545.35 927.06 650.16 1104.61 643.54
00006651 00000092 770.86 180.47 412.79 598.97 899.75 453.54 1108.97 445.33 1022.18 547.10 928.60 652.20 1104.71 644.43
00006652 00000093 771.28 180.63 413.17 598.14 899.90 453.94 1107.97 445.24 1022.05 547.34 932.06 654.17 1104.72 645.78
00006653 00000094 770.00 181.01 414.10 595.79 898.99 453.39 1106.40 444.47 1020.23 547.35 933.61 654.64 1103.12 646.02
00006654 00000095 769.67 182.27 413.25 593.38 899.71 454.47 1105.96 445.17 1021.76 549.54 936.58 657.36 1102.13 648.53
00006655 00000096 770.16 182.12 413.28 600.15 900.63 456.24 1105.77 447.34 1022.19 551.38 935.64 660.20 1101.84 651.81
00006656 00000097 770.24 181.28 413.44 603.86 903.27 457.47 1106.63 449.11 1024.00 553.45 934.04 659.99 1101.21 652.19
00006657 00000098 769.88 183.35 413.57 600.39 904.64 455.09 1107.87 447.61 1026.01 551.70 933.88 657.41 1101.17 650.66
00006658 00000099 771.62 179.12 413.45 603.15 906.57 450.15 1108.81 444.47 1027.71 545.76 936.42 652.57 1103.55 647.09
00006659 00000100 772.97 174.23 413.87 602.20 905.23 442.82 1109.29 437.39 1026.38 536.09 937.52 645.97 1107.19 640.12
00006660 00000101 772.00 166.63 415.74 603.58 903.96 434.66 1109.97 428.28 1029.63 526.00 936.47 636.49 1111.25 630.30
00006661 DELETE   767.69 161.21 423.05 603.78 896.93 424.76 1108.21 418.10 1024.86 519.00 930.50 626.57 1114.79 620.30
00006662 DELETE   766.40 157.78 422.80 598.49 891.49 418.84 1107.08 412.89 1021.43 507.37 924.95 615.37 1118.70 610.35
00006663 DELETE   764.10 155.89 426.38 596.42 887.74 412.98 1107.86 409.11 1021.24 500.74 921.63 611.93 1118.42 608.45
00006664 00000105 761.91 150.66 427.90 592.35 892.97 417.03 1110.56 407.21 1021.18 501.33 917.66 612.02 1108.90 602.38
00006665 00000106 761.19 146.54 428.41 594.93 891.30 416.26 1109.20 406.03 1019.26 497.42 917.37 611.33 1107.22 601.44
00006666 00000107 762.20 147.05 424.48 594.00 889.95 417.64 1104.71 406.95 1015.46 499.64 915.03 610.21 1103.68 600.03
00006667 DELETE   762.20 150.81 424.31 591.19 886.94 420.29 1105.19 411.11 1011.38 504.11 910.72 613.18 1101.63 604.30
00006668 00000109 763.16 161.42 417.42 589.73 879.98 419.75 1095.69 413.90 1009.06 507.31 915.15 616.09 1106.49 611.12
00006669 DELETE   764.30 165.88 416.72 593.38 879.75 428.28 1097.47 424.24 1005.67 518.09 913.72 630.90 1100.58 626.97
00006670 DELETE   763.41 172.99 416.33 598.07 885.25 435.59 1098.70 433.11 1006.24 533.01 912.19 640.63 1090.29 638.12
CROP_BBOX: 415 0 1447 1030
