Video ID: 	pTQsoZ0STNE
H: 	1080
W: 	1920
FPS: 	25.0

FRAME INDEX X0 Y0 W H [Landmarks (5 Points)]

00005456 00000000 932.75 232.21 488.93 670.32 1071.61 436.15 1273.21 529.91 1109.49 622.76 1012.00 682.95 1173.73 762.17
00005457 00000001 929.88 225.06 487.51 667.83 1064.95 434.12 1268.50 526.42 1105.48 622.71 1008.23 677.98 1170.08 756.28
00005458 00000002 931.45 225.75 488.52 670.22 1070.97 439.53 1275.72 531.66 1115.62 626.28 1011.71 681.77 1177.39 759.93
00005459 00000003 940.23 227.37 494.71 672.19 1083.45 443.17 1289.33 534.05 1130.03 632.88 1024.55 687.95 1189.78 764.84
00005460 00000004 949.12 230.84 502.03 666.64 1095.60 438.89 1304.41 533.38 1143.16 629.02 1037.81 683.55 1207.86 762.67
00005461 00000005 956.02 219.73 495.26 667.25 1106.68 426.48 1309.99 520.33 1149.31 605.02 1043.53 670.02 1211.58 749.03
00005462 DELETE   954.69 194.58 500.24 678.46 1106.56 406.26 1308.02 500.49 1146.17 573.88 1040.94 650.62 1196.41 731.12
00005463 00000007 938.07 173.94 511.67 684.55 1106.53 391.14 1305.34 481.40 1144.31 553.83 1033.81 636.37 1191.88 711.79
00005464 00000008 937.50 154.73 502.66 689.59 1085.08 374.19 1285.91 455.88 1126.23 534.99 1031.62 627.27 1180.73 696.87
00005465 00000009 935.17 147.17 493.29 699.39 1077.08 373.02 1279.38 453.57 1118.17 530.96 1021.63 625.08 1179.05 693.99
00005466 DELETE   930.52 176.14 501.91 673.51 1068.46 380.01 1278.77 462.17 1113.12 548.94 1013.70 628.66 1185.92 698.17
00005467 DELETE   937.37 199.96 482.58 658.75 1064.28 402.32 1262.15 489.96 1096.80 577.31 1010.57 641.89 1170.64 716.93
00005468 00000012 937.78 202.54 475.15 671.33 1054.70 425.42 1250.57 505.80 1088.13 603.87 1004.29 667.92 1163.71 736.79
00005469 00000013 930.80 214.97 476.90 677.50 1047.37 445.73 1252.03 521.80 1090.20 626.92 1003.03 695.63 1163.64 760.58
00005470 00000014 927.18 233.91 480.11 664.31 1043.88 458.05 1253.24 535.95 1089.93 639.92 999.40 703.00 1162.63 769.08
00005471 00000015 925.00 248.07 478.86 652.92 1040.34 467.79 1247.97 544.46 1086.76 651.78 998.89 707.83 1160.60 772.75
00005472 00000016 924.11 247.57 476.14 657.04 1038.26 472.76 1244.91 549.61 1084.36 658.80 997.23 711.09 1158.71 776.15
00005473 00000017 921.17 252.45 477.43 656.99 1035.61 472.21 1242.71 550.86 1079.86 659.82 995.54 710.59 1158.98 776.69
00005474 00000018 921.40 257.93 476.14 653.88 1030.78 471.45 1238.98 548.24 1075.18 655.87 993.95 713.07 1156.10 777.66
00005475 00000019 918.40 264.75 473.18 645.23 1029.40 469.02 1237.65 545.72 1074.13 649.28 990.22 708.74 1153.07 772.88
00005476 00000020 915.26 254.37 474.03 654.30 1027.10 465.87 1234.17 541.71 1071.72 645.72 988.40 705.85 1151.46 769.32
00005477 00000021 913.60 246.23 474.18 660.71 1026.78 463.90 1233.50 538.54 1071.90 640.27 987.65 704.74 1151.28 767.29
00005478 00000022 911.97 241.67 473.14 660.59 1023.72 461.77 1231.83 534.41 1070.49 636.32 986.35 704.11 1149.31 764.93
00005479 00000023 910.32 233.19 474.95 667.14 1024.49 458.50 1230.36 530.96 1069.38 631.45 985.59 700.93 1148.06 761.50
00005480 00000024 908.43 230.61 475.16 667.70 1022.50 457.13 1228.26 527.82 1067.66 629.10 985.91 702.69 1144.87 761.75
00005481 00000025 907.73 232.82 476.34 667.67 1022.96 455.54 1228.62 527.56 1066.61 627.36 985.69 701.38 1144.80 761.45
00005482 00000026 909.28 229.48 476.36 673.46 1025.67 456.41 1229.96 528.41 1068.71 627.05 987.01 702.59 1144.67 762.75
00005483 00000027 910.92 230.67 477.77 673.82 1027.65 457.13 1232.22 530.54 1070.16 627.76 987.84 703.65 1145.04 765.18
00005484 00000028 912.26 234.43 476.67 663.51 1026.47 457.41 1235.45 529.81 1072.24 630.51 989.26 706.03 1145.89 766.68
00005485 00000029 913.34 226.82 478.27 667.71 1031.19 454.45 1238.12 527.54 1077.24 627.25 990.74 701.46 1146.48 762.98
00005486 00000030 917.12 231.24 475.03 662.65 1035.81 451.53 1238.71 528.44 1076.09 624.58 992.48 696.66 1149.53 761.16
00005487 00000031 917.25 234.13 475.90 659.81 1038.93 450.23 1240.74 530.50 1078.91 620.58 994.03 695.62 1148.31 762.80
00005488 00000032 919.78 236.46 478.69 656.49 1040.40 450.63 1243.15 529.75 1081.67 620.66 996.99 697.57 1148.43 764.07
00005489 00000033 925.55 224.68 472.09 663.71 1043.69 448.46 1243.13 526.07 1083.81 618.82 1000.26 697.07 1147.01 762.67
00005490 00000034 925.66 223.53 473.37 665.42 1045.55 445.62 1245.51 524.76 1086.01 618.17 1000.26 691.57 1151.35 758.48
00005491 00000035 925.06 228.25 476.38 663.31 1047.58 443.45 1249.46 523.44 1089.79 619.49 1001.29 690.87 1152.33 758.69
00005492 00000036 927.42 223.46 476.14 665.29 1049.98 441.22 1250.65 523.28 1091.03 619.56 1001.63 687.75 1154.69 757.50
00005493 00000037 933.82 221.30 472.06 666.76 1049.41 438.12 1250.68 520.33 1087.59 618.53 1001.22 686.71 1157.93 756.60
00005494 00000038 933.45 210.85 478.70 670.63 1051.68 441.70 1249.51 520.08 1089.57 615.32 1005.95 683.54 1160.95 750.76
00005495 00000039 934.47 210.57 480.33 662.83 1052.62 438.02 1249.43 514.50 1090.01 609.23 1008.60 677.92 1162.65 743.50
00005496 00000040 933.81 206.21 474.74 665.54 1052.93 431.12 1249.58 507.92 1090.52 598.79 1005.08 672.14 1160.54 737.98
00005497 00000041 929.33 203.04 473.49 667.97 1048.01 430.35 1247.07 503.16 1086.63 591.74 1001.20 671.40 1155.50 733.80
00005498 00000042 919.44 217.72 476.08 654.30 1043.26 429.74 1241.13 505.48 1078.97 589.11 996.42 667.18 1150.00 731.34
00005499 00000043 912.76 216.66 474.92 648.60 1036.77 425.11 1226.64 508.76 1067.82 598.73 987.50 659.86 1133.88 729.84
00005500 00000044 908.70 208.25 474.55 653.06 1029.88 420.46 1221.22 503.83 1059.70 594.90 983.14 655.98 1127.95 726.05
00005501 00000045 907.24 212.25 472.96 660.43 1028.60 417.85 1220.75 498.74 1058.96 591.49 979.61 661.67 1122.35 730.41
00005502 00000046 905.87 213.13 481.95 671.90 1030.43 414.08 1226.73 494.88 1062.55 584.47 982.78 666.48 1134.52 734.70
00005503 00000047 905.11 206.64 493.02 678.53 1045.33 413.08 1245.95 494.47 1081.49 574.24 989.42 661.21 1147.12 730.03
00005504 00000048 915.69 207.07 492.75 669.28 1052.97 414.12 1255.54 493.26 1095.39 580.00 1000.35 660.95 1155.30 728.74
00005505 00000049 922.66 192.85 492.83 676.28 1059.25 416.81 1268.67 488.54 1114.44 580.84 1011.30 664.85 1170.05 727.44
00005506 00000050 933.35 193.01 488.16 670.37 1072.18 408.50 1277.64 481.16 1125.68 573.95 1026.13 660.86 1177.13 724.32
00005507 00000051 933.23 199.28 492.30 663.76 1074.23 407.95 1278.21 478.73 1127.42 571.15 1029.52 657.60 1180.22 719.22
00005508 00000052 933.04 193.26 487.79 668.50 1066.22 405.00 1271.92 477.95 1116.74 568.80 1021.37 654.50 1172.02 718.20
00005509 00000053 925.79 193.80 481.09 673.15 1051.77 402.20 1249.51 474.23 1084.22 556.86 1007.40 653.35 1147.36 715.62
00005510 00000054 908.52 197.37 480.33 677.53 1024.78 396.89 1219.02 470.71 1047.61 557.20 981.17 654.96 1115.82 719.17
00005511 00000055 900.31 186.36 479.51 678.51 1012.76 394.37 1206.12 463.67 1037.69 548.26 971.30 650.07 1106.08 710.65
00005512 00000056 897.73 188.65 481.39 675.05 1012.39 395.11 1205.84 462.23 1039.12 549.02 974.60 651.04 1108.17 709.72
00005513 00000057 896.17 190.48 491.26 669.79 1022.43 399.84 1228.98 473.65 1062.29 555.64 976.61 649.71 1125.90 711.88
00005514 DELETE   913.99 192.49 488.91 685.33 1047.79 400.46 1249.91 470.41 1087.73 559.94 1004.48 659.53 1147.25 719.82
00005515 00000059 924.01 195.55 490.26 698.38 1063.58 409.89 1266.43 473.89 1116.36 569.90 1025.32 673.11 1165.91 729.49
00005516 00000060 927.77 198.94 490.45 694.52 1070.84 414.51 1272.30 477.71 1125.22 575.34 1030.86 676.31 1175.06 731.64
00005517 00000061 924.05 192.88 484.90 694.72 1056.74 419.60 1262.30 484.30 1106.61 579.79 1015.56 674.81 1164.59 731.47
00005518 DELETE   905.89 206.28 486.43 678.06 1037.36 416.85 1233.03 486.45 1073.50 573.17 993.54 672.21 1130.37 731.95
00005519 00000063 896.47 205.57 479.10 670.53 1017.21 409.54 1210.44 477.55 1045.53 567.16 975.58 663.15 1111.42 722.67
00005520 00000064 886.61 202.92 482.64 664.76 1008.77 408.55 1197.88 478.69 1036.08 561.27 966.00 657.90 1096.02 718.86
00005521 00000065 887.48 207.23 482.20 656.66 1006.02 410.54 1197.60 478.20 1035.58 564.69 967.40 659.53 1098.29 718.34
00005522 00000066 893.26 200.28 478.06 664.56 1011.93 412.88 1205.03 477.07 1046.06 568.03 978.17 663.01 1112.22 718.85
00005523 00000067 903.66 199.43 477.08 661.79 1020.58 408.98 1218.44 473.14 1060.31 571.34 987.78 661.37 1126.03 716.81
00005524 00000068 904.68 195.10 483.16 662.45 1022.09 405.27 1222.29 471.52 1061.08 568.87 989.40 656.60 1131.29 713.59
00005525 00000069 898.50 185.60 481.86 667.01 1013.80 402.27 1211.28 465.15 1051.16 558.73 984.05 650.14 1121.34 705.21
00005526 00000070 888.22 190.06 478.36 658.09 998.60 401.64 1199.59 467.74 1035.12 558.73 965.32 644.13 1108.74 701.91
00005527 00000071 879.59 189.48 476.41 657.40 983.71 403.77 1178.81 469.97 1011.85 554.96 946.35 642.82 1092.70 700.39
00005528 00000072 870.66 183.59 479.57 667.63 972.91 404.76 1165.50 470.87 997.66 555.09 933.78 645.80 1083.65 702.80
00005529 00000073 871.77 189.30 478.10 669.05 974.00 412.06 1165.64 473.40 1000.56 561.70 938.79 654.05 1085.63 707.20
00005530 00000074 878.44 199.70 479.90 679.16 981.63 420.19 1175.08 475.73 1010.86 574.42 953.33 670.39 1099.36 718.76
00005531 00000075 883.92 194.63 478.47 696.15 993.30 424.72 1194.64 481.03 1031.39 584.81 961.15 679.99 1117.36 728.98
00005532 00000076 890.38 206.82 476.98 689.87 1007.60 425.49 1210.17 487.71 1051.48 594.19 972.66 686.42 1132.01 739.71
00005533 00000077 893.91 211.16 478.65 694.28 1021.99 423.62 1228.97 497.94 1070.61 599.20 973.77 685.91 1142.06 749.28
00005534 00000078 895.55 207.84 483.84 685.54 1025.54 422.26 1231.94 497.09 1073.76 594.95 978.74 678.38 1145.14 741.90
00005535 00000079 893.53 195.21 480.55 683.17 1015.43 417.45 1216.58 487.61 1058.90 587.72 977.89 665.49 1135.52 725.53
00005536 00000080 883.14 190.65 480.92 676.48 999.20 418.69 1202.79 485.10 1042.13 581.87 962.56 660.12 1121.74 717.44
00005537 00000081 872.85 204.99 480.77 661.16 985.66 422.40 1186.28 485.80 1027.16 588.63 950.89 664.65 1107.36 719.52
00005538 00000082 871.68 198.23 480.28 670.44 988.55 425.16 1193.20 486.20 1037.08 587.79 951.90 667.46 1114.12 720.39
00005539 00000083 869.24 194.21 481.97 678.03 988.71 426.15 1195.47 485.67 1040.72 588.24 952.12 671.33 1115.92 723.07
00005540 00000084 858.99 203.31 487.33 674.65 978.53 428.37 1184.80 485.38 1028.23 593.83 944.39 677.25 1104.51 727.31
00005541 00000085 843.15 198.18 489.89 688.65 967.26 429.16 1173.82 489.76 1012.69 588.13 929.50 679.14 1091.59 731.29
00005542 00000086 835.47 206.31 485.40 685.50 958.82 434.21 1164.82 497.76 1003.66 597.13 920.67 683.94 1084.67 737.97
00005543 00000087 832.39 220.26 481.73 670.85 951.15 437.59 1159.23 500.78 997.94 599.74 918.28 687.23 1083.06 740.36
00005544 00000088 831.45 223.05 476.69 673.86 943.50 435.45 1146.04 500.10 984.61 606.99 915.86 694.49 1071.72 748.53
00005545 00000089 829.14 220.29 477.77 674.13 941.50 436.43 1142.90 500.80 981.50 604.98 913.53 692.99 1068.20 746.91
00005546 00000090 827.44 220.05 486.22 675.34 945.74 441.09 1153.10 504.03 989.23 598.23 913.27 689.43 1076.93 742.16
00005547 00000091 830.58 212.32 484.81 680.51 949.64 437.73 1154.81 500.42 991.19 594.15 915.28 685.58 1078.95 738.23
00005548 00000092 835.71 207.94 484.72 676.26 954.89 431.41 1159.94 494.92 995.97 588.02 917.83 678.65 1079.66 732.40
00005549 00000093 841.39 199.18 487.42 677.09 963.52 420.83 1166.97 489.08 1002.17 578.50 921.82 665.04 1084.18 722.98
00005550 00000094 855.67 196.49 483.74 673.31 973.33 419.80 1172.19 481.65 1009.02 568.92 933.60 662.86 1091.45 716.10
00005551 00000095 868.06 198.09 481.38 664.42 981.68 415.84 1180.66 478.20 1018.15 568.19 942.54 657.49 1099.49 711.62
00005552 00000096 877.48 194.78 485.57 663.99 995.26 409.09 1195.39 475.61 1030.73 562.54 954.53 650.88 1110.57 708.42
00005553 00000097 877.75 182.87 493.90 675.73 1012.22 403.30 1212.72 470.79 1049.18 553.66 966.18 651.76 1122.63 707.55
00005554 00000098 883.48 176.15 498.32 678.95 1021.13 393.03 1228.24 464.34 1060.47 549.94 970.40 647.59 1134.07 706.42
00005555 00000099 900.68 175.51 490.43 688.92 1022.00 391.34 1221.08 467.55 1051.85 554.18 978.12 643.68 1128.40 709.38
00005556 00000100 903.68 182.43 486.05 692.81 1025.96 392.66 1222.45 472.24 1050.25 555.87 977.20 649.25 1126.96 717.64
00005557 00000101 899.90 183.51 496.87 695.43 1039.40 394.58 1238.75 481.74 1064.17 554.50 978.15 642.84 1134.25 716.34
00005558 00000102 909.17 189.28 489.12 685.34 1046.91 396.68 1244.66 484.97 1071.26 556.18 987.02 641.16 1142.84 715.71
00005559 00000103 914.02 195.45 487.79 665.98 1051.23 395.27 1248.95 483.61 1078.86 559.55 993.26 637.72 1147.04 712.53
00005560 00000104 914.34 192.26 489.59 664.11 1051.46 395.17 1251.24 482.63 1081.65 560.17 994.93 636.58 1148.53 710.89
00005561 00000105 915.99 189.84 490.06 664.44 1052.61 394.52 1254.55 483.99 1085.01 560.64 994.99 635.61 1150.08 711.87
00005562 00000106 920.59 202.82 485.50 650.98 1055.46 396.41 1255.60 484.85 1088.91 563.66 998.33 637.63 1151.42 712.89
00005563 00000107 923.99 200.24 482.12 657.23 1058.05 399.14 1257.52 488.84 1092.96 569.92 1000.46 639.50 1156.73 715.96
00005564 00000108 925.62 201.52 479.24 658.84 1059.14 404.02 1258.52 491.19 1094.79 571.37 1000.57 642.93 1160.14 717.34
00005565 00000109 925.06 198.90 479.56 663.15 1056.69 405.64 1256.59 492.38 1091.54 571.66 998.07 644.02 1158.79 718.08
00005566 00000110 926.24 198.93 479.11 662.08 1056.88 406.62 1256.65 492.66 1091.34 570.90 998.95 644.19 1158.56 717.77
00005567 00000111 925.78 202.13 477.18 655.60 1056.35 405.72 1255.89 492.14 1090.91 571.22 999.77 641.44 1157.65 715.05
00005568 00000112 924.37 205.37 479.62 651.37 1056.54 404.66 1255.26 491.17 1090.85 570.55 1000.57 641.51 1155.56 715.18
00005569 00000113 923.28 202.25 479.05 654.39 1055.96 404.48 1255.30 491.85 1089.84 570.08 998.65 641.41 1153.95 715.77
00005570 00000114 921.59 201.20 481.20 654.24 1055.18 405.78 1255.18 492.70 1089.97 570.63 998.34 642.22 1153.73 716.29
00005571 00000115 920.28 203.68 483.33 651.84 1055.44 406.59 1255.36 494.24 1089.64 571.33 996.83 642.16 1152.11 716.86
00005572 00000116 918.75 201.87 485.96 656.34 1055.41 407.21 1254.44 495.25 1088.12 571.07 996.00 643.61 1149.73 718.64
00005573 00000117 918.74 207.35 485.72 652.24 1054.90 408.86 1253.25 496.25 1086.95 570.53 996.07 644.98 1148.07 719.36
00005574 00000118 918.20 208.03 483.38 651.48 1053.55 408.63 1251.83 496.52 1084.30 568.72 994.29 644.33 1145.89 718.89
00005575 00000119 916.19 201.30 485.79 659.51 1050.74 408.73 1249.32 495.55 1080.76 567.82 992.40 644.93 1146.33 718.71
00005576 00000120 914.34 205.88 487.82 654.91 1049.62 418.05 1243.18 500.11 1079.28 567.53 995.00 648.61 1146.13 718.26
00005577 00000121 902.65 204.52 498.67 663.16 1046.06 424.05 1237.18 507.52 1085.47 576.26 989.63 656.55 1142.27 725.58
00005578 00000122 903.06 209.51 496.02 655.08 1038.62 418.13 1232.63 503.23 1065.87 571.01 984.20 649.65 1136.20 721.32
00005579 00000123 901.48 208.49 484.88 657.03 1027.64 415.84 1220.17 497.03 1057.65 576.62 977.81 655.87 1121.01 724.56
00005580 00000124 897.21 213.25 477.95 659.25 1022.08 419.04 1215.11 498.90 1052.97 581.23 973.89 664.05 1116.85 731.85
00005581 00000125 893.59 209.96 472.30 671.01 1016.31 427.03 1207.60 506.42 1047.00 597.06 967.42 677.02 1106.71 744.82
00005582 00000126 889.97 218.04 478.21 668.39 1015.34 438.66 1208.80 521.52 1047.04 611.40 965.58 692.78 1099.32 763.14
00005583 00000127 886.34 235.47 485.54 661.53 1010.76 452.91 1214.25 533.08 1050.83 628.75 963.38 706.06 1103.95 774.15
00005584 00000128 895.06 246.60 475.44 662.01 1011.09 467.55 1208.16 551.78 1047.54 634.87 966.91 708.50 1110.50 778.23
00005585 00000129 894.55 256.67 482.73 659.46 1014.47 475.09 1214.18 561.79 1053.64 643.48 966.37 713.95 1117.21 786.00
00005586 00000130 899.12 256.96 483.21 662.99 1018.68 479.92 1220.28 572.37 1058.07 656.56 968.18 714.60 1123.92 791.42
00005587 00000131 900.36 265.22 484.45 652.06 1024.47 477.47 1226.57 571.25 1067.29 657.86 971.99 709.83 1130.25 788.13
00005588 00000132 901.56 267.98 484.84 646.22 1029.20 472.08 1231.89 563.34 1074.66 648.63 976.54 709.57 1132.61 786.03
00005589 00000133 894.95 256.24 492.99 655.18 1028.71 463.72 1227.94 554.37 1070.71 637.51 975.89 699.34 1130.52 775.13
00005590 00000134 895.11 249.35 490.37 650.86 1024.25 453.77 1225.93 539.68 1066.62 624.27 977.66 691.27 1134.86 762.71
00005591 00000135 887.25 238.32 496.38 663.50 1016.56 448.53 1218.80 531.83 1057.09 615.08 967.89 691.17 1124.57 760.23
00005592 00000136 887.36 242.16 492.14 662.90 1011.20 456.49 1215.00 538.10 1053.38 624.97 965.56 697.45 1123.50 765.29
00005593 00000137 891.64 260.31 484.63 652.48 1012.58 466.19 1215.49 548.58 1056.69 638.15 966.79 703.78 1126.64 772.69
00005594 00000138 890.23 252.73 490.75 664.32 1020.66 466.32 1226.38 548.04 1070.58 638.70 971.57 703.50 1134.69 772.31
00005595 00000139 893.81 241.71 493.74 665.90 1029.12 458.71 1236.59 534.53 1083.07 625.35 983.38 699.32 1146.28 763.11
00005596 00000140 897.16 236.66 491.04 661.24 1035.49 449.08 1239.95 525.84 1084.69 611.96 991.31 688.46 1152.41 752.88
00005597 00000141 902.58 236.13 484.04 653.06 1036.12 441.09 1243.15 518.93 1085.56 608.87 992.10 685.23 1155.30 750.60
00005598 00000142 907.84 233.19 483.25 656.11 1039.08 433.09 1242.15 515.47 1080.95 609.57 990.56 683.01 1151.53 751.31
00005599 00000143 909.16 234.83 482.49 655.75 1038.85 432.67 1241.42 514.77 1079.56 609.52 991.04 684.09 1149.52 752.23
00005600 00000144 905.61 232.05 481.55 656.27 1038.97 435.28 1245.31 518.84 1085.80 607.17 991.52 681.81 1153.14 752.06
00005601 00000145 905.93 238.78 484.57 649.97 1041.29 434.41 1247.48 520.65 1087.34 608.35 993.51 680.21 1154.27 752.67
00005602 00000146 907.57 233.22 485.06 656.52 1042.40 435.11 1247.87 520.27 1087.65 610.13 994.37 680.08 1155.63 751.81
00005603 00000147 909.22 232.17 484.74 657.91 1043.78 436.29 1247.89 520.83 1088.62 611.28 995.65 681.22 1156.23 752.51
00005604 00000148 912.25 235.24 482.83 654.44 1043.24 435.81 1247.50 520.85 1086.32 611.31 995.24 680.74 1156.70 752.33
00005605 00000149 914.73 233.72 482.54 653.24 1046.99 434.48 1248.88 520.34 1088.98 610.57 998.38 678.09 1157.09 750.44
00005606 00000150 914.25 227.52 487.12 656.68 1046.35 432.67 1247.82 515.79 1087.70 607.31 998.37 676.39 1156.65 746.71
00005607 00000151 914.08 226.26 486.76 658.56 1046.67 431.88 1247.83 515.03 1087.83 605.74 997.77 676.17 1156.54 746.55
00005608 00000152 911.10 229.99 487.25 657.12 1045.37 432.45 1247.46 515.26 1087.79 605.48 997.88 678.28 1154.08 748.29
00005609 00000153 909.05 230.85 486.60 659.04 1043.35 433.45 1244.86 514.67 1086.26 606.41 997.18 682.84 1150.16 751.64
00005610 00000154 909.85 234.80 485.70 653.60 1042.43 434.39 1245.12 515.22 1086.70 607.34 997.15 686.25 1147.38 754.61
00005611 00000155 905.18 233.27 488.94 658.70 1040.93 433.98 1242.52 515.82 1083.26 605.87 994.09 686.89 1143.11 755.96
00005612 00000156 903.36 237.01 487.95 658.69 1041.25 435.40 1243.11 518.80 1082.46 605.30 991.93 687.10 1141.38 757.26
00005613 00000157 902.86 239.33 488.53 665.02 1036.89 437.79 1239.48 521.16 1075.68 606.82 989.00 689.15 1143.27 759.05
00005614 00000158 901.30 242.10 488.36 664.71 1034.84 441.27 1237.81 524.58 1075.08 609.40 987.68 689.75 1145.15 759.41
00005615 00000159 901.27 247.48 488.56 659.17 1033.39 445.27 1238.67 528.29 1075.81 613.85 986.22 690.17 1148.19 759.58
00005616 00000160 901.48 245.87 487.66 657.61 1033.36 446.02 1239.22 528.66 1077.86 615.64 987.45 689.69 1149.74 758.64
00005617 00000161 902.85 245.39 485.11 656.12 1033.55 446.77 1238.86 529.76 1078.08 616.69 988.80 691.56 1146.99 760.85
00005618 00000162 903.04 246.64 485.32 652.52 1032.47 447.47 1238.31 530.61 1077.22 616.96 987.89 691.50 1145.65 760.93
00005619 00000163 903.58 244.02 483.88 652.93 1032.49 447.83 1238.06 531.13 1077.24 618.25 986.77 691.90 1143.75 761.55
00005620 00000164 902.77 242.14 484.14 654.08 1030.87 448.59 1236.01 530.95 1075.41 617.59 985.58 692.59 1142.30 761.39
