Video ID: 	jQkfVN3FKmA
H: 	1080
W: 	1920
FPS: 	25.0

FRAME INDEX X0 Y0 W H [Landmarks (5 Points)]

00043296 00000000 761.18 360.71 465.79 569.54 842.95 527.94 1055.65 559.77 899.20 673.64 840.46 751.44 1016.28 777.64
00043297 DELETE   763.88 363.50 463.08 570.48 844.50 525.14 1054.61 554.23 898.80 663.99 845.21 754.69 1011.60 778.21
00043298 00000002 766.44 357.92 461.58 575.57 846.12 525.42 1052.13 552.83 897.99 662.76 847.80 751.51 1013.30 773.26
00043299 DELETE   765.84 361.82 460.93 569.60 847.05 523.55 1052.64 551.81 899.23 661.68 847.31 749.25 1012.64 771.90
00043300 00000004 764.94 356.54 464.27 572.24 845.32 523.06 1056.21 551.12 898.89 661.77 843.88 748.74 1017.03 771.38
00043301 00000005 756.43 356.16 473.06 569.07 843.58 521.37 1059.22 546.07 892.70 665.26 840.14 749.32 1017.18 768.38
00043302 00000006 756.05 357.56 472.92 565.06 845.13 520.84 1061.12 547.08 894.28 664.44 840.20 747.16 1015.81 767.72
00043303 DELETE   758.67 341.37 469.38 584.76 845.45 518.26 1060.04 545.07 893.28 664.54 841.37 748.55 1016.57 769.58
00043304 00000008 762.27 322.86 463.63 608.18 846.25 520.71 1055.21 542.93 893.73 664.21 849.94 754.23 1016.82 771.25
00043305 00000009 761.85 329.93 466.38 599.27 846.65 519.25 1055.42 542.39 892.65 661.52 848.56 753.04 1013.06 770.97
00043306 00000010 764.97 345.30 466.93 580.51 846.26 519.25 1052.24 545.74 896.26 652.20 850.62 748.35 1013.51 769.59
00043307 00000011 763.76 351.21 467.89 573.08 846.56 516.13 1052.23 543.61 895.97 649.79 850.21 746.03 1011.94 768.07
00043308 DELETE   762.23 344.87 471.79 583.45 843.88 512.94 1051.40 540.61 895.45 649.81 850.92 743.27 1013.66 765.12
00043309 00000013 761.78 336.86 475.70 594.97 843.39 510.83 1050.17 539.07 891.95 648.80 849.39 741.32 1014.58 763.55
00043310 00000014 762.25 330.65 469.75 600.86 842.28 512.42 1046.33 539.33 891.21 651.44 848.90 742.36 1014.64 763.50
00043311 00000015 761.03 324.87 469.66 604.41 838.93 515.57 1044.79 542.23 887.54 655.17 847.21 746.31 1015.45 767.24
00043312 00000016 760.30 337.34 471.71 584.56 837.59 516.64 1045.68 542.20 889.10 654.56 845.86 743.43 1017.53 763.45
00043313 00000017 761.71 344.13 470.02 578.77 839.45 516.55 1044.12 541.80 890.15 654.09 847.05 743.68 1014.03 763.43
00043314 00000018 753.17 341.63 471.95 578.29 834.63 513.61 1045.24 532.94 884.74 659.41 843.30 742.30 1017.62 756.73
00043315 00000019 757.77 340.21 470.22 578.88 835.70 512.91 1041.92 536.25 888.37 652.04 844.86 736.55 1018.98 754.55
00043316 00000020 749.40 337.50 476.72 576.76 828.77 510.25 1041.55 526.71 880.98 651.89 842.09 738.20 1019.05 750.35
00043317 00000021 746.18 342.80 478.41 573.25 823.99 512.83 1037.23 527.77 877.60 653.51 839.53 739.71 1020.86 750.39
00043318 00000022 747.54 340.42 479.15 578.42 823.30 515.88 1031.59 531.23 877.37 651.29 840.87 739.63 1021.17 750.77
00043319 DELETE   747.70 343.87 476.75 574.36 820.76 520.21 1029.55 532.73 875.34 654.78 840.28 743.59 1022.80 752.36
00043320 00000024 746.78 359.68 474.33 557.66 820.92 522.65 1027.06 533.69 877.97 654.19 841.18 744.21 1021.98 751.81
00043321 DELETE   746.65 361.88 478.22 558.94 819.59 522.95 1027.56 533.04 878.55 656.21 840.33 743.78 1024.33 750.33
00043322 00000026 744.83 365.56 474.97 555.87 818.60 523.61 1023.13 531.71 878.38 654.94 841.45 743.15 1022.45 747.84
00043323 DELETE   744.31 362.38 475.26 558.14 816.55 523.54 1022.41 530.27 877.05 655.04 840.60 743.63 1023.58 747.08
00043324 00000028 744.34 360.15 475.27 560.68 816.60 523.57 1021.31 530.00 876.04 653.37 841.01 742.33 1024.10 745.44
00043325 00000029 744.60 357.06 472.85 562.92 817.18 523.13 1017.79 529.56 875.08 652.90 843.94 741.75 1020.13 744.71
00043326 00000030 744.16 364.14 473.70 554.36 816.95 523.12 1018.98 529.28 875.80 652.28 843.55 742.15 1020.50 745.06
00043327 00000031 745.45 362.36 475.55 557.07 817.86 524.69 1019.37 530.38 875.68 652.73 845.75 742.38 1021.57 744.59
00043328 00000032 744.91 366.93 476.82 555.08 818.69 525.44 1020.86 531.05 878.12 653.26 845.58 743.79 1019.12 746.21
00043329 DELETE   743.72 362.64 475.50 560.16 817.58 525.40 1019.86 530.78 878.24 654.77 844.90 743.70 1019.59 745.77
00043330 00000034 741.38 358.43 477.72 566.48 815.60 525.32 1018.44 530.23 876.09 654.38 842.46 744.30 1018.80 745.90
00043331 00000035 739.98 353.57 479.37 570.39 813.27 524.10 1017.82 530.50 874.30 655.59 840.64 740.49 1019.97 743.00
00043332 00000036 737.40 355.05 480.53 569.13 811.43 524.51 1016.09 530.10 872.68 654.14 837.36 741.10 1016.51 743.19
00043333 00000037 733.39 351.55 482.06 573.01 808.45 524.06 1015.31 528.81 871.97 654.34 835.43 739.62 1016.09 741.01
00043334 00000038 729.90 358.92 481.09 564.48 804.61 523.84 1013.14 525.75 870.22 653.20 833.74 741.27 1015.21 740.38
00043335 00000039 728.80 368.41 484.22 554.21 803.77 526.76 1013.64 528.19 869.68 658.17 834.62 743.95 1015.59 742.47
00043336 00000040 730.19 373.47 478.80 550.70 801.32 530.85 1010.24 529.36 868.43 663.50 836.14 748.18 1016.21 744.11
00043337 00000041 726.89 373.95 481.01 553.91 796.66 533.56 1007.25 529.10 865.94 665.43 833.52 751.76 1016.87 744.68
00043338 00000042 727.08 376.61 479.55 550.34 796.51 534.93 1004.36 530.98 864.47 665.82 831.72 751.85 1013.31 745.26
00043339 00000043 726.70 364.10 478.17 559.36 794.71 535.25 1003.70 529.72 863.78 665.57 831.47 751.66 1013.26 743.93
00043340 00000044 726.40 369.88 480.54 556.02 796.05 534.14 1005.14 531.43 863.85 666.04 831.09 751.79 1011.79 746.45
00043341 DELETE   726.16 372.93 481.54 553.04 797.83 534.42 1008.88 532.66 867.26 667.75 832.30 751.32 1015.01 746.75
00043342 00000046 728.05 380.19 481.95 549.14 799.57 535.66 1009.50 533.92 867.16 667.60 833.41 752.61 1016.28 748.06
00043343 00000047 729.80 379.22 482.92 548.91 801.53 535.98 1012.12 534.44 867.94 666.43 834.48 754.29 1016.03 750.23
00043344 00000048 730.92 382.40 483.44 546.00 803.33 535.22 1012.85 535.14 867.89 664.92 834.55 752.59 1016.24 749.80
00043345 00000049 731.25 388.02 483.41 541.49 804.46 534.86 1013.64 536.25 868.26 664.89 834.49 752.15 1014.44 750.69
00043346 DELETE   730.56 384.99 485.12 543.69 804.13 534.99 1014.26 535.98 868.68 664.69 834.64 752.47 1015.21 750.59
00043347 00000051 729.03 380.12 485.92 547.00 802.12 534.86 1013.99 535.49 868.10 665.63 833.22 753.48 1013.86 751.41
00043348 00000052 727.65 378.59 483.58 549.34 801.67 533.63 1011.74 534.56 868.28 665.29 832.37 752.59 1011.50 750.76
00043349 00000053 728.85 380.39 478.78 548.23 802.14 535.14 1010.89 535.22 869.03 665.16 832.34 753.95 1011.61 751.62
00043350 00000054 729.09 381.57 481.65 546.57 802.07 535.80 1011.44 536.36 867.25 666.02 832.55 755.22 1011.95 753.31
00043351 00000055 730.16 382.86 480.67 546.52 802.86 536.06 1009.89 537.40 866.60 666.47 833.22 755.39 1009.83 754.01
00043352 00000056 729.62 381.52 480.35 548.04 802.55 535.77 1009.20 536.33 866.42 664.63 832.86 754.76 1010.14 752.60
00043353 00000057 728.62 382.84 482.14 546.04 803.22 534.63 1011.41 535.80 868.49 664.55 832.92 753.98 1010.45 752.61
00043354 00000058 729.40 383.83 482.75 546.09 803.54 534.34 1012.02 535.46 867.88 663.62 832.66 754.17 1011.54 752.63
00043355 00000059 729.09 387.75 483.83 541.64 803.42 534.52 1013.84 535.36 868.19 662.78 831.35 754.45 1013.41 752.75
00043356 00000060 730.40 375.61 485.99 551.03 803.01 534.99 1014.51 536.26 866.83 663.53 831.72 754.50 1015.65 753.27
00043357 00000061 730.76 378.50 486.62 549.04 804.16 536.19 1015.93 536.48 868.78 663.15 833.21 755.98 1015.80 753.97
00043358 00000062 731.37 381.23 484.33 546.33 805.08 536.56 1016.68 537.71 869.46 662.47 833.21 755.24 1017.01 753.95
00043359 00000063 733.00 376.15 483.24 555.87 806.70 535.43 1017.34 535.82 871.77 664.71 838.37 756.10 1020.31 753.74
00043360 00000064 734.46 366.96 484.00 564.32 807.87 535.18 1018.94 535.91 873.48 663.75 840.03 756.58 1019.58 754.73
00043361 00000065 734.33 373.95 480.38 562.40 811.03 531.55 1018.56 535.74 876.55 662.49 838.98 754.78 1015.29 756.05
00043362 00000066 738.16 373.22 478.51 562.25 814.61 527.74 1022.74 533.67 879.84 660.40 841.29 753.40 1018.01 756.22
00043363 00000067 744.75 364.04 474.82 568.47 820.98 527.66 1027.57 534.24 884.10 658.43 844.13 752.29 1021.19 755.65
00043364 00000068 750.04 360.75 469.68 571.22 826.92 525.82 1032.84 533.87 888.65 656.31 847.55 749.08 1026.41 753.66
00043365 00000069 755.26 347.82 470.76 581.94 829.92 523.75 1032.59 533.13 885.64 650.76 848.57 743.29 1027.51 749.00
00043366 00000070 756.42 348.04 474.15 581.64 833.37 517.07 1038.43 526.53 889.88 642.88 849.09 738.46 1028.98 744.04
00043367 00000071 752.10 328.75 474.61 588.60 832.61 515.66 1044.16 523.08 892.11 645.58 849.89 740.41 1029.46 744.80
00043368 00000072 754.07 333.43 476.48 581.91 834.33 514.10 1047.61 522.65 892.95 644.35 850.86 738.48 1030.35 743.79
00043369 00000073 753.95 333.80 478.15 582.42 835.57 515.00 1047.35 524.33 893.18 644.01 851.07 738.08 1030.36 743.90
00043370 00000074 757.39 335.58 477.79 588.82 836.90 518.47 1044.44 528.14 895.02 642.30 851.43 736.42 1031.94 742.29
00043371 00000075 751.67 334.01 477.94 586.50 835.01 517.63 1047.17 526.74 893.42 648.85 850.13 741.52 1030.74 747.06
00043372 00000076 756.89 339.61 476.11 586.72 835.79 521.17 1042.75 529.54 893.60 644.71 850.76 739.18 1032.21 743.94
00043373 00000077 751.37 333.29 478.56 588.86 831.42 518.71 1042.42 527.24 887.46 651.60 848.76 742.89 1028.06 747.74
00043374 00000078 755.11 342.90 476.48 586.03 832.42 520.70 1038.75 529.51 890.00 645.63 849.33 739.31 1030.03 744.16
00043375 00000079 748.03 335.04 480.91 588.72 828.98 520.04 1040.46 526.47 888.38 651.28 847.27 743.74 1029.52 747.07
00043376 00000080 746.94 336.32 478.54 585.19 830.14 522.83 1042.48 528.38 893.68 652.87 848.82 745.72 1029.58 748.65
00043377 00000081 747.51 342.77 484.49 583.11 834.06 524.25 1050.89 527.71 901.52 654.69 854.32 747.18 1039.38 748.19
00043378 00000082 746.14 343.17 489.84 585.02 834.67 526.63 1054.02 527.65 907.11 656.70 857.46 750.86 1043.30 749.91
00043379 00000083 746.31 346.17 490.85 583.63 835.98 529.42 1057.65 529.25 910.94 660.73 859.30 753.60 1048.60 751.52
00043380 00000084 747.56 341.91 489.92 588.73 838.64 529.66 1060.58 529.01 916.02 662.01 861.81 753.56 1051.43 751.14
00043381 00000085 747.80 347.59 488.94 581.51 840.39 530.27 1061.71 530.53 918.15 662.63 862.00 752.61 1051.60 751.12
00043382 00000086 748.49 342.96 488.80 584.91 841.60 528.94 1062.36 530.13 919.57 660.93 863.78 751.39 1052.13 750.67
00043383 00000087 749.21 340.48 488.14 586.74 842.11 529.28 1063.55 529.00 922.03 662.62 865.82 751.02 1056.15 749.04
00043384 00000088 749.30 344.52 491.27 581.33 842.35 529.88 1064.72 528.98 922.14 661.29 866.18 751.35 1055.59 748.87
00043385 00000089 750.40 343.80 488.33 582.22 843.79 530.51 1064.26 530.54 922.68 661.29 865.83 750.29 1055.14 748.70
00043386 00000090 749.52 343.20 489.95 583.13 842.00 528.98 1064.21 529.98 920.00 661.08 863.78 750.07 1054.49 749.19
00043387 DELETE   749.06 340.86 489.66 584.16 841.62 528.04 1062.69 530.00 918.68 659.50 862.79 749.52 1051.43 749.68
00043388 00000092 748.29 340.74 490.37 586.71 840.11 526.07 1061.52 528.87 915.25 660.27 861.15 749.53 1049.72 750.36
00043389 00000093 746.96 340.86 491.25 588.80 838.87 526.42 1060.04 529.25 914.03 660.93 860.78 750.43 1049.26 751.22
00043390 00000094 745.57 344.39 491.48 584.61 837.47 526.36 1058.66 529.59 912.82 660.05 858.98 749.71 1046.76 750.72
00043391 00000095 745.12 344.59 490.05 584.22 836.58 526.46 1057.64 529.89 911.74 659.23 856.33 749.03 1046.08 750.22
00043392 00000096 743.94 348.55 493.57 583.01 835.73 527.43 1057.35 530.99 909.42 657.82 853.94 749.24 1045.69 750.42
00043393 00000097 743.51 344.65 491.31 587.76 833.74 528.82 1055.59 530.43 908.62 660.07 853.20 752.05 1044.53 751.66
00043394 00000098 742.68 348.43 489.86 582.74 833.43 528.27 1056.52 530.29 907.99 660.80 853.33 751.73 1043.53 751.64
00043395 00000099 743.05 348.58 489.95 581.53 833.15 528.72 1055.27 530.02 908.10 659.95 853.14 751.76 1043.32 751.13
00043396 00000100 741.73 351.31 491.24 580.22 832.78 528.93 1056.56 530.22 908.03 660.45 852.43 751.81 1044.28 751.07
00043397 00000101 741.07 349.06 487.80 582.37 831.35 529.67 1054.40 529.76 907.79 661.10 852.26 753.16 1043.33 751.57
00043398 00000102 740.69 349.18 488.30 583.41 831.71 528.26 1052.86 527.54 907.85 657.99 855.06 754.32 1040.86 752.16
00043399 00000103 742.71 345.39 488.46 587.65 830.68 526.17 1053.85 524.91 906.92 659.45 856.78 756.36 1040.16 753.87
00043400 00000104 744.91 339.31 487.09 593.64 831.95 524.98 1054.92 522.94 909.84 658.19 857.99 755.17 1044.75 752.15
00043401 00000105 747.91 347.57 483.82 580.19 835.88 528.89 1057.34 525.30 914.06 654.21 860.81 753.38 1047.87 748.89
00043402 00000106 746.96 336.18 481.68 587.40 842.10 526.21 1059.58 526.39 925.02 651.82 867.56 746.43 1053.28 745.02
00043403 00000107 750.99 341.18 477.08 574.67 846.26 524.87 1061.19 524.02 928.72 646.10 871.80 743.27 1053.55 741.43
00043404 00000108 751.93 338.74 474.95 573.03 844.18 517.74 1060.36 518.87 926.85 642.39 870.22 739.91 1051.14 739.59
00043405 00000109 751.91 337.36 472.66 574.25 842.33 513.94 1058.93 518.01 919.31 639.31 864.54 737.67 1046.61 739.92
00043406 DELETE   753.33 338.38 469.54 573.74 838.91 517.16 1054.26 519.32 910.87 637.99 857.02 737.14 1041.18 737.48
00043407 00000111 753.11 338.05 471.03 574.60 834.92 515.55 1048.09 518.36 902.37 635.87 850.43 735.99 1034.49 736.73
00043408 00000112 750.01 341.77 475.83 571.21 828.37 514.01 1042.86 516.83 893.80 638.49 846.95 738.70 1030.95 739.36
00043409 00000113 749.47 332.31 472.25 582.97 827.03 513.38 1040.54 518.40 891.16 640.46 844.78 740.79 1025.84 743.55
00043410 00000114 746.29 332.80 475.45 587.19 825.45 515.49 1040.14 520.52 889.88 646.62 844.93 744.40 1027.05 747.07
00043411 00000115 746.65 333.56 477.28 585.90 827.38 519.19 1044.22 523.21 894.91 650.67 846.84 746.66 1030.14 748.48
00043412 00000116 747.15 343.55 481.23 579.45 831.67 526.67 1049.97 528.26 901.66 653.97 850.74 751.59 1035.21 751.35
00043413 DELETE   744.86 351.82 485.74 574.47 833.82 530.17 1053.62 534.64 904.63 662.48 848.90 753.58 1036.45 755.80
CROP_BBOX: 460 18 1504 1080
