Video ID: 	GTazfa9Spkk
H: 	1080
W: 	1920
FPS: 	23.976023976023978

FRAME INDEX X0 Y0 W H [Landmarks (5 Points)]

00005763 00000000 887.94 233.63 446.26 608.20 980.27 469.60 1176.34 468.92 1061.51 600.32 1007.01 690.27 1161.29 691.06
00005764 00000001 892.14 234.78 446.60 617.78 988.65 469.46 1183.59 468.19 1073.28 598.34 1014.15 690.29 1173.05 688.97
00005765 00000002 897.10 232.48 445.55 624.42 995.29 467.94 1185.98 468.29 1076.82 596.44 1018.78 688.03 1176.91 687.91
00005766 00000003 901.33 228.79 445.77 627.75 998.98 468.44 1189.87 468.20 1078.67 594.37 1021.02 687.94 1178.36 687.43
00005767 00000004 902.26 229.91 447.23 626.34 1000.96 467.38 1193.33 466.66 1081.90 592.01 1022.46 687.59 1182.28 686.36
00005768 00000005 902.94 230.10 448.25 626.95 1002.24 467.60 1194.38 465.24 1083.94 590.98 1025.31 687.69 1185.24 684.98
00005769 00000006 903.07 231.63 448.54 624.40 1002.70 467.54 1195.02 465.04 1084.78 591.30 1025.86 687.07 1186.65 684.24
00005770 00000007 902.98 230.43 446.30 622.56 1000.22 466.08 1193.41 465.15 1081.57 592.03 1022.64 684.81 1183.90 683.32
00005771 00000008 899.30 230.50 442.83 622.80 988.76 462.35 1177.80 465.76 1059.49 593.79 1011.86 683.46 1169.04 685.21
00005772 DELETE   889.88 229.70 444.40 622.98 969.02 453.43 1157.06 467.75 1023.10 593.07 979.09 671.73 1131.23 684.55
00005773 DELETE   872.82 226.46 449.06 626.74 950.62 449.57 1136.97 470.40 991.62 588.05 952.29 669.00 1106.92 687.14
00005774 DELETE   862.03 221.28 453.75 632.00 937.13 447.92 1117.49 469.16 967.90 587.03 941.30 671.26 1090.93 689.54
00005775 00000012 856.22 222.04 442.49 622.52 923.11 446.64 1103.55 467.67 952.99 579.40 930.35 670.14 1078.84 686.30
00005776 00000013 847.67 228.67 454.09 627.89 921.02 448.69 1098.98 469.77 946.36 583.93 927.72 672.70 1073.76 690.13
00005777 00000014 851.53 225.61 437.75 632.59 916.01 448.38 1087.83 467.69 945.50 585.62 925.89 673.03 1069.31 689.10
00005778 00000015 851.68 228.65 434.59 625.80 913.12 450.26 1083.24 468.66 940.38 585.34 922.80 672.46 1064.21 687.81
00005779 00000016 849.05 228.63 435.50 628.72 911.07 450.71 1080.61 467.93 937.88 585.29 921.01 673.47 1062.94 688.06
00005780 00000017 845.64 226.34 436.08 630.45 908.36 450.71 1078.09 466.46 935.16 583.57 918.47 673.96 1060.04 687.50
00005781 00000018 843.30 226.99 435.31 628.55 906.08 450.20 1076.05 466.46 931.66 583.98 916.33 674.45 1058.68 688.38
00005782 00000019 842.58 228.33 433.91 629.46 903.68 450.32 1073.61 467.80 927.34 585.43 912.04 676.07 1056.20 691.18
00005783 00000020 838.23 228.82 434.94 630.05 900.30 452.00 1070.75 470.26 922.97 586.98 906.38 677.69 1050.78 693.72
00005784 00000021 834.54 229.11 434.67 630.18 897.05 452.82 1069.06 470.51 921.67 586.41 901.76 679.26 1045.73 695.09
00005785 00000022 832.92 229.00 435.50 631.47 895.72 452.23 1067.86 469.71 919.56 585.66 900.52 679.91 1044.43 695.56
00005786 00000023 831.78 228.19 435.53 631.45 894.96 452.75 1066.96 470.09 918.59 585.28 899.35 679.75 1042.72 695.32
00005787 00000024 831.39 230.52 435.06 628.97 894.00 454.23 1067.04 471.93 917.50 587.25 898.56 680.43 1042.08 696.33
00005788 00000025 831.84 229.84 434.74 628.44 894.02 456.01 1067.43 472.82 918.76 588.29 898.69 681.35 1041.73 696.61
00005789 00000026 832.97 228.14 435.35 630.55 896.13 453.44 1069.05 469.41 921.70 585.04 900.76 680.04 1044.80 694.50
00005790 00000027 834.96 224.27 434.99 631.69 898.32 451.17 1070.06 467.41 924.56 581.70 903.23 676.59 1046.45 691.14
00005791 00000028 837.71 223.95 434.66 632.56 900.63 451.35 1071.87 467.14 926.79 582.77 907.27 676.78 1050.41 690.89
00005792 00000029 839.15 228.06 434.51 630.63 901.34 453.23 1073.27 469.39 926.91 587.45 909.17 678.25 1053.63 692.58
00005793 00000030 840.35 230.45 434.34 628.18 902.02 454.18 1075.50 470.98 928.69 590.08 910.91 678.40 1056.27 693.09
00005794 00000031 842.96 230.30 434.88 628.12 905.80 452.75 1076.78 468.74 932.42 586.82 915.66 676.23 1059.44 690.06
00005795 00000032 845.81 227.12 435.35 629.59 909.45 449.67 1080.60 464.94 938.24 583.59 920.63 675.26 1061.26 688.48
00005796 00000033 848.26 223.24 433.37 632.97 911.19 447.03 1083.70 462.77 942.07 581.79 922.98 673.96 1064.39 687.47
00005797 00000034 848.79 223.55 433.44 631.41 913.87 446.37 1087.06 461.80 946.71 581.55 927.33 673.75 1067.86 686.98
00005798 00000035 851.10 221.86 429.95 628.87 916.45 449.76 1090.41 465.00 951.48 582.81 930.45 674.24 1069.64 687.38
00005799 00000036 848.90 223.87 441.57 639.32 920.86 451.77 1093.60 469.41 956.04 584.33 934.44 674.18 1080.08 688.48
00005800 00000037 851.07 225.49 456.77 643.18 930.61 462.30 1107.60 474.48 966.20 592.29 945.21 682.68 1098.80 692.57
00005801 DELETE   860.10 230.45 453.35 645.79 941.32 464.86 1123.38 476.65 985.29 596.96 953.22 685.73 1109.54 695.99
00005802 DELETE   869.62 240.05 450.40 637.93 951.52 470.92 1136.36 480.00 1001.97 599.74 964.73 691.28 1115.80 699.70
00005803 00000040 878.66 241.97 446.07 630.57 959.21 472.67 1146.32 480.48 1015.65 604.95 972.92 692.57 1127.14 700.37
00005804 00000041 884.75 240.83 442.96 615.58 967.70 475.07 1157.61 482.79 1033.84 608.55 983.18 693.49 1134.63 701.34
00005805 00000042 888.90 243.21 442.62 616.25 973.03 478.80 1164.00 484.41 1041.20 612.20 993.38 698.93 1145.28 704.94
00005806 00000043 894.37 244.20 440.59 614.88 977.58 480.56 1170.96 484.94 1047.27 614.11 1000.31 700.80 1153.98 705.69
00005807 00000044 893.70 244.61 444.15 620.24 982.50 480.58 1177.01 484.05 1055.74 614.52 1004.67 701.08 1160.49 705.04
00005808 00000045 890.60 245.92 445.37 619.33 984.92 480.62 1176.54 482.55 1063.72 610.33 1008.98 703.32 1166.56 705.22
00005809 00000046 891.33 247.00 446.90 615.87 988.01 481.16 1179.98 481.76 1069.46 611.27 1014.52 703.27 1170.97 704.11
00005810 00000047 892.52 246.99 447.31 613.55 990.09 480.60 1183.38 479.75 1073.47 610.58 1018.20 703.30 1173.81 702.95
00005811 00000048 894.30 246.56 447.73 612.16 992.79 479.77 1185.45 479.03 1075.85 608.68 1021.08 701.55 1175.95 701.08
00005812 00000049 896.51 244.46 447.62 612.96 996.46 478.40 1188.41 478.21 1078.94 607.85 1024.93 699.80 1178.48 699.74
00005813 00000050 896.12 243.69 449.19 616.07 997.67 477.69 1189.85 477.93 1080.44 606.45 1025.15 699.27 1180.21 699.49
00005814 00000051 897.36 243.34 448.53 616.15 998.86 476.96 1191.05 477.31 1081.75 605.22 1025.06 698.13 1181.20 698.46
00005815 00000052 897.11 242.28 447.89 616.35 997.56 476.26 1190.35 474.94 1081.88 603.77 1025.58 697.52 1181.66 696.38
00005816 00000053 896.29 242.15 448.28 615.86 996.30 474.38 1189.90 473.07 1081.37 602.11 1024.33 696.32 1180.77 695.18
00005817 00000054 894.37 241.73 449.38 614.69 994.53 472.95 1189.22 470.69 1080.47 601.24 1023.66 695.32 1180.35 693.36
00005818 00000055 893.87 240.24 448.59 614.87 992.98 471.50 1188.03 467.99 1079.05 599.00 1022.63 694.61 1178.77 691.60
00005819 00000056 892.96 239.24 448.18 615.03 991.58 469.91 1186.88 466.97 1077.21 599.19 1020.27 693.32 1177.53 690.73
00005820 00000057 892.82 238.46 446.82 616.21 991.78 470.21 1184.33 467.38 1077.22 599.62 1021.74 692.85 1175.87 690.58
00005821 00000058 890.45 242.45 447.12 610.85 992.39 474.39 1177.54 473.95 1075.27 600.62 1022.56 690.37 1172.32 689.97
00005822 00000059 887.69 242.98 444.93 612.97 986.70 476.90 1173.74 477.12 1068.52 602.05 1015.16 692.10 1167.14 692.41
00005823 00000060 885.75 238.19 446.96 617.09 979.41 470.98 1171.11 474.92 1052.93 601.59 1005.01 688.73 1152.42 692.66
00005824 00000061 884.46 233.53 447.99 619.22 978.37 470.96 1170.61 473.06 1053.05 600.35 1004.13 688.63 1153.09 690.85
00005825 00000062 886.92 232.82 450.75 623.33 981.76 468.74 1176.02 468.10 1059.60 598.74 1008.14 689.20 1161.77 689.07
00005826 00000063 886.78 238.31 446.09 617.76 984.91 468.24 1179.19 465.72 1070.32 597.65 1013.73 689.76 1171.22 687.62
00005827 00000064 887.13 236.69 445.44 617.21 983.77 465.13 1178.33 464.16 1067.01 594.28 1010.94 688.14 1165.88 687.46
00005828 00000065 885.94 231.90 442.57 620.93 981.15 463.71 1174.17 463.78 1061.11 593.92 1009.63 688.66 1158.50 689.30
00005829 00000066 885.92 230.08 442.85 622.99 980.42 461.97 1173.33 461.94 1059.35 592.87 1007.61 687.40 1158.36 687.78
00005830 00000067 884.44 236.69 446.39 623.62 981.79 463.55 1175.33 463.62 1066.49 594.88 1012.51 680.64 1167.85 679.10
00005831 00000068 885.16 234.34 448.22 616.79 980.58 463.93 1175.97 462.64 1065.53 595.58 1012.52 677.88 1170.00 674.93
00005832 00000069 884.20 225.05 449.62 619.56 977.50 461.19 1171.91 460.15 1055.72 591.79 1004.06 680.55 1160.85 679.78
00005833 00000070 881.87 224.14 449.33 620.20 975.01 459.88 1167.96 459.64 1051.78 590.80 998.79 679.72 1153.36 679.96
00005834 00000071 879.62 224.06 449.29 620.85 973.05 460.14 1165.31 460.03 1048.26 588.79 997.49 681.25 1146.10 681.80
00005835 00000072 877.31 222.08 449.99 623.00 970.98 459.88 1163.61 459.39 1046.13 587.69 997.60 683.56 1140.84 683.89
00005836 00000073 874.27 222.23 452.71 620.49 968.95 461.35 1163.66 459.56 1046.55 589.22 996.10 684.84 1140.55 684.19
00005837 00000074 872.41 222.89 453.23 619.78 967.50 460.80 1162.15 459.54 1045.25 589.20 995.77 684.69 1139.00 684.44
00005838 00000075 871.53 221.44 454.33 622.81 967.53 459.86 1161.86 458.64 1044.57 588.64 993.36 682.59 1138.31 682.40
00005839 00000076 871.86 220.16 454.54 625.15 966.97 459.39 1160.66 457.17 1043.29 586.61 993.46 682.44 1138.79 681.33
00005840 00000077 871.95 219.82 455.01 623.53 967.04 459.33 1161.40 458.70 1042.89 586.74 991.51 678.74 1140.50 678.96
00005841 00000078 871.71 219.45 455.68 620.13 966.74 458.21 1162.46 458.29 1043.53 586.12 990.80 676.08 1142.26 676.79
00005842 00000079 872.52 216.39 454.54 623.92 966.07 455.42 1160.17 453.95 1042.44 583.06 992.36 676.35 1142.02 675.80
00005843 00000080 872.24 214.91 453.27 623.57 965.92 452.71 1158.83 451.75 1042.69 582.58 994.07 675.54 1139.99 675.46
00005844 00000081 871.47 213.30 451.48 624.75 964.71 450.41 1156.65 449.95 1041.04 580.51 994.27 674.24 1139.44 674.52
00005845 00000082 869.96 212.83 450.93 625.28 962.99 447.70 1154.12 447.72 1038.42 576.64 992.20 671.32 1136.97 672.05
00005846 00000083 868.48 210.43 449.29 635.77 964.37 446.01 1155.68 449.35 1040.04 578.06 989.28 666.68 1142.21 668.87
00005847 00000084 868.27 208.40 447.79 638.33 964.23 443.33 1155.34 447.50 1040.53 575.77 988.80 665.35 1141.64 668.30
00005848 00000085 868.82 205.44 446.50 641.18 964.40 442.19 1155.80 446.08 1040.18 574.77 989.32 665.07 1143.23 667.75
00005849 00000086 869.35 205.01 445.39 641.52 964.21 440.94 1155.76 445.24 1039.83 574.01 988.94 664.24 1143.51 667.14
00005850 00000087 869.19 206.30 445.82 636.98 964.22 441.21 1155.35 444.86 1040.16 573.56 989.49 662.81 1142.91 665.27
00005851 00000088 868.95 207.53 446.69 635.55 964.25 441.22 1156.83 444.77 1041.30 573.21 989.32 662.13 1143.11 664.44
00005852 00000089 868.92 207.86 444.51 621.84 963.49 440.18 1157.24 445.25 1037.42 571.70 983.56 660.94 1137.13 666.74
00005853 00000090 871.01 207.67 443.35 618.80 964.90 439.65 1158.18 445.16 1038.00 571.85 985.48 659.98 1136.41 666.29
00005854 00000091 871.34 208.40 445.09 615.89 964.78 442.15 1157.58 449.82 1038.17 574.35 983.84 659.43 1136.18 667.50
00005855 00000092 870.19 206.42 444.67 618.35 963.53 451.51 1152.97 456.19 1036.91 574.89 984.28 664.28 1134.56 669.34
00005856 00000093 869.08 206.72 444.67 618.04 961.78 451.85 1151.05 455.99 1034.88 576.39 982.43 664.89 1132.72 669.55
00005857 00000094 867.79 206.41 444.65 621.65 959.25 448.27 1148.83 453.11 1030.43 575.00 978.92 663.75 1128.43 669.21
00005858 00000095 867.74 209.78 442.17 617.73 960.17 445.28 1148.80 450.30 1031.18 574.07 979.80 661.98 1126.42 667.88
00005859 00000096 870.39 206.86 440.57 617.84 963.24 441.07 1153.13 447.33 1034.41 571.54 983.09 659.51 1129.55 666.48
00005860 00000097 868.78 204.73 439.50 620.46 959.98 438.93 1151.52 445.13 1030.92 568.99 980.50 658.12 1129.24 664.92
00005861 00000098 862.99 206.63 441.50 621.50 952.74 438.15 1144.03 443.47 1019.31 562.55 971.70 656.09 1123.81 661.56
00005862 00000099 860.90 203.13 441.63 619.62 949.48 437.41 1140.91 443.66 1015.11 560.82 965.99 652.59 1120.13 658.81
00005863 00000100 861.95 205.81 440.97 617.89 949.90 441.07 1138.59 443.46 1019.04 563.00 971.04 659.81 1123.25 659.45
00005864 00000101 860.34 206.61 442.13 620.84 949.81 440.30 1141.78 445.29 1017.62 566.87 969.66 658.92 1122.73 664.09
00005865 00000102 858.28 207.77 442.80 622.61 948.49 441.75 1136.67 446.73 1012.39 566.87 967.61 662.02 1115.97 667.12
00005866 00000103 858.60 210.12 440.08 620.03 945.09 446.69 1130.29 447.76 1011.04 564.55 966.80 666.89 1116.81 665.63
00005867 00000104 856.86 210.69 441.69 620.42 944.11 448.96 1131.01 449.24 1012.41 567.40 966.73 668.42 1120.40 666.50
00005868 00000105 858.89 211.41 440.05 620.18 946.26 449.95 1131.38 449.75 1013.51 569.10 970.15 670.25 1119.42 668.01
00005869 00000106 857.32 212.17 440.16 626.52 944.78 450.25 1127.69 450.57 1009.82 569.12 968.71 672.28 1118.64 670.39
00005870 00000107 855.95 214.98 439.30 628.98 943.39 451.96 1126.22 452.03 1008.16 571.79 967.54 675.49 1119.91 673.19
00005871 00000108 853.40 219.80 441.19 621.21 941.39 456.48 1126.58 453.99 1009.37 574.56 967.86 680.08 1118.31 676.09
00005872 00000109 853.63 221.72 442.61 623.22 942.74 458.38 1127.58 457.34 1009.85 577.47 966.54 681.47 1117.31 678.60
00005873 00000110 854.15 224.60 442.90 617.36 943.30 459.50 1128.83 460.61 1009.63 579.97 964.62 680.12 1116.57 679.18
00005874 00000111 853.78 225.59 453.43 619.97 942.16 460.21 1134.84 462.01 1009.67 589.40 963.73 678.98 1113.96 681.09
00005875 00000112 854.54 227.11 453.33 617.83 942.43 459.81 1135.43 461.44 1010.71 589.35 964.93 678.63 1114.78 680.60
00005876 00000113 856.33 226.63 452.09 616.97 943.05 459.71 1136.28 461.86 1011.61 590.27 965.28 678.15 1115.98 680.52
00005877 00000114 857.64 226.70 451.92 616.15 944.10 459.34 1136.80 461.62 1011.80 590.45 965.82 677.89 1116.40 680.42
00005878 00000115 858.59 228.31 450.65 613.97 945.00 458.76 1137.69 462.21 1011.82 590.74 965.91 676.69 1116.83 680.17
00005879 00000116 859.54 226.43 450.14 615.40 946.24 458.75 1139.02 462.73 1013.65 591.65 966.66 676.43 1118.21 680.31
00005880 00000117 861.53 230.10 448.68 612.57 947.21 459.01 1140.68 463.37 1013.75 593.08 966.39 677.66 1119.59 681.94
00005881 00000118 863.14 230.76 447.83 612.62 948.36 458.69 1141.57 464.18 1013.94 594.45 966.10 678.23 1119.75 683.56
00005882 00000119 863.46 231.68 447.59 612.40 949.42 459.44 1141.96 464.63 1014.83 594.74 967.07 678.68 1121.23 683.72
00005883 00000120 863.90 230.76 447.82 613.49 949.80 459.42 1142.06 464.70 1015.03 594.58 967.17 678.85 1120.71 684.02
00005884 00000121 864.34 231.42 446.88 611.85 950.53 459.21 1142.44 464.59 1015.51 594.04 967.71 678.54 1120.04 683.83
00005885 00000122 864.92 231.57 445.89 612.02 951.21 459.41 1142.53 464.56 1015.58 593.46 967.99 678.70 1119.13 683.84
00005886 00000123 863.84 230.24 447.23 614.22 950.29 459.37 1141.62 463.71 1015.16 592.71 967.74 678.99 1119.44 683.41
00005887 00000124 863.81 227.75 446.96 614.82 950.25 458.61 1141.69 463.12 1015.71 591.30 968.43 677.57 1118.65 682.14
00005888 00000125 861.94 227.37 447.91 617.14 948.66 458.45 1140.83 462.05 1014.50 591.06 968.23 678.23 1117.86 681.98
00005889 00000126 859.80 226.86 448.84 615.45 946.71 458.47 1139.93 461.63 1015.22 590.73 968.37 677.66 1117.99 680.93
CROP_BBOX: 545 0 1531 1018
